Data from 2938579_Reflection_2.txt Node
Date: Sun Jun 14 21:21:11 EDT 2015
User: robert
Spectrometer: USB4E03002
Autoset integration time: false
Trigger mode: 4
Integration Time (sec): 1.000000E-1
Scans to average: 10
Electric dark correction enabled: true
Nonlinearity correction enabled: false
Boxcar width: 5
Stray light correction enabled: false
XAxis mode: Wavelengths
Stop averaging: false
Number of Pixels in Spectrum: 3648
>>>>>Begin Spectral Data<<<<<
177.575	196.93
177.794	222.3
178.014	866.23
178.233	-5437.5
178.452	-303.41
178.672	-289.3
178.891	128.29
179.11	180.31
179.33	139.43
179.549	188.95
179.768	355.57
179.987	224.47
180.207	215.61
180.426	146.62
180.645	211.63
180.864	115.25
181.084	133.27
181.303	109.66
181.522	86.52
181.741	105.53
181.96	75.67
182.179	73.86
182.398	62.64
182.618	55.91
182.837	88.74
183.056	66.39
183.275	75.13
183.494	107.84
183.713	118.05
183.932	122.01
184.151	102.28
184.37	127.6
184.589	145.56
184.808	120.36
185.027	117.32
185.246	121.89
185.465	124.81
185.684	126.64
185.903	109.77
186.122	103.46
186.341	130.63
186.56	162.02
186.779	149.8
186.998	137.96
187.216	188.9
187.435	182.55
187.654	187.73
187.873	230.36
188.092	297.54
188.311	238.66
188.53	278.11
188.748	313.8
188.967	684.9
189.186	519.78
189.405	-1692.28
189.623	-33188.89
189.842	-492.67
190.061	-557.98
190.28	-669.81
190.498	-1224.87
190.717	-3053.75
190.936	1065.51
191.154	1114.39
191.373	265.57
191.592	574.76
191.81	189.44
192.029	289.47
192.248	183.04
192.466	120.6
192.685	101.14
192.904	110.81
193.122	108.59
193.341	97.35
193.559	88.52
193.778	117.41
193.996	106.29
194.215	111.08
194.433	93.79
194.652	85.51
194.87	119.94
195.089	127.72
195.307	106.62
195.526	110.48
195.744	131.2
195.963	117.75
196.181	155.07
196.399	160.22
196.618	142.64
196.836	124.61
197.055	134.71
197.273	119.34
197.491	130.18
197.71	161.4
197.928	150.7
198.146	142.54
198.365	171.45
198.583	112.61
198.801	111.95
199.019	134.24
199.238	154.01
199.456	135.42
199.674	119.01
199.892	102
200.111	74.58
200.329	73.63
200.547	52.75
200.765	55.03
200.983	38.27
201.202	6.13
201.42	7.81
201.638	9.99
201.856	-7.75
202.074	7.92
202.292	19.86
202.51	58.78
202.728	56.71
202.946	68.54
203.165	77.2
203.383	84.51
203.601	93.23
203.819	90.5
204.037	81.26
204.255	99.18
204.473	136.87
204.691	87.74
204.909	62.15
205.127	72.76
205.345	68.5
205.562	63.55
205.78	76.22
205.998	79.99
206.216	70.37
206.434	80.31
206.652	86.04
206.87	84.64
207.088	86.82
207.306	100.69
207.523	97.98
207.741	108.95
207.959	117.48
208.177	101.36
208.395	103.7
208.612	131.5
208.83	120.74
209.048	113.05
209.266	112.2
209.483	126.04
209.701	107.12
209.919	114.29
210.136	120.04
210.354	133.41
210.572	138.23
210.79	150.49
211.007	159.49
211.225	166.03
211.442	147.53
211.66	131.89
211.878	133.39
212.095	137.3
212.313	110.08
212.53	89.81
212.748	70.05
212.966	75.74
213.183	76.62
213.401	61.23
213.618	66.9
213.836	76.68
214.053	79.62
214.271	76.58
214.488	66.77
214.705	84.22
214.923	80.06
215.14	94.47
215.358	94.76
215.575	72.83
215.793	87.87
216.01	77.01
216.227	65.16
216.445	56.23
216.662	39.53
216.879	40.74
217.097	29.08
217.314	45.71
217.531	41.26
217.749	40.24
217.966	62.09
218.183	39.66
218.4	41.04
218.618	47.38
218.835	50.49
219.052	67.02
219.269	69.08
219.487	74.48
219.704	70.26
219.921	71.64
220.138	61.29
220.355	50.12
220.572	55.98
220.79	60.37
221.007	62.37
221.224	57.89
221.441	50.67
221.658	49.72
221.875	44.23
222.092	38.84
222.309	37.45
222.526	38.72
222.743	41.36
222.96	39.07
223.177	36.64
223.394	29.51
223.611	30.08
223.828	33.19
224.045	32.93
224.262	27.42
224.479	28.58
224.696	26.9
224.913	24.75
225.13	23.07
225.347	19.63
225.564	18.19
225.781	17.52
225.997	17.36
226.214	15.13
226.431	14.03
226.648	14.19
226.865	13.56
227.082	12.91
227.298	12.59
227.515	12.57
227.732	13.44
227.949	13.56
228.165	13.55
228.382	13.66
228.599	13.74
228.816	13.58
229.032	13.51
229.249	13.18
229.466	13.11
229.682	13.98
229.899	12.81
230.116	12.31
230.332	12.34
230.549	12.36
230.765	11.45
230.982	10.06
231.199	9.52
231.415	11.42
231.632	11.27
231.848	12.66
232.065	10.61
232.281	12.9
232.498	13.21
232.714	14.9
232.931	14.75
233.147	15.97
233.364	17.44
233.58	18.55
233.797	17.39
234.013	19.43
234.23	20.25
234.446	20.7
234.662	20.52
234.879	19.99
235.095	19.23
235.312	19.51
235.528	19.56
235.744	18.47
235.961	17.49
236.177	15.01
236.393	15.92
236.61	15.08
236.826	17.1
237.042	16.26
237.258	15.36
237.475	14.39
237.691	14.25
237.907	14.28
238.123	14.22
238.339	14
238.556	16.08
238.772	14.28
238.988	12.45
239.204	11.55
239.42	12.12
239.636	12.12
239.853	11.99
240.069	11.9
240.285	11.15
240.501	10.7
240.717	10.52
240.933	10.27
241.149	9.97
241.365	10.39
241.581	11.09
241.797	11.14
242.013	10.61
242.229	10.81
242.445	10.87
242.661	10.92
242.877	11.87
243.093	12.19
243.309	12.36
243.525	13.32
243.741	13.53
243.957	12.09
244.173	11.05
244.388	11.41
244.604	10.61
244.82	10.58
245.036	10.3
245.252	9.68
245.468	9.52
245.683	9.18
245.899	9.27
246.115	8.96
246.331	9.23
246.547	9.55
246.762	9.59
246.978	9.82
247.194	9.8
247.409	9.79
247.625	10.41
247.841	10.54
248.057	10.88
248.272	10.16
248.488	10.64
248.703	10.24
248.919	10.54
249.135	10.42
249.35	10.5
249.566	9.97
249.782	9.76
249.997	8.93
250.213	8.01
250.428	8.17
250.644	8.69
250.859	8.91
251.075	8.75
251.29	7.75
251.506	8.07
251.721	8.09
251.937	8.18
252.152	9.22
252.368	9.75
252.583	10.64
252.798	10.78
253.014	10.65
253.229	9.72
253.445	10.5
253.66	11.48
253.875	12.11
254.091	12.07
254.306	12.86
254.521	11.4
254.737	10.48
254.952	10.89
255.167	11.04
255.383	11.36
255.598	11.48
255.813	10.32
256.028	9.93
256.244	9.03
256.459	8.4
256.674	8.17
256.889	8.12
257.104	7.77
257.32	7.33
257.535	7.11
257.75	6.5
257.965	6.61
258.18	7
258.395	7.11
258.61	7.06
258.826	6.97
259.041	6.83
259.256	6.71
259.471	6.96
259.686	7.09
259.901	6.81
260.116	7.1
260.331	6.7
260.546	6.84
260.761	6.6
260.976	5.93
261.191	6.61
261.406	6.9
261.621	7.67
261.836	7.81
262.05	8.18
262.265	8.68
262.48	9.16
262.695	10.01
262.91	10.12
263.125	10.38
263.34	11.66
263.555	11.32
263.769	11.01
263.984	10.33
264.199	10.3
264.414	9.9
264.629	10.01
264.843	9.17
265.058	9.4
265.273	8.45
265.488	7.88
265.702	7.21
265.917	6.89
266.132	6.69
266.346	7.09
266.561	7.71
266.776	7.58
266.99	7.1
267.205	7.45
267.42	6.59
267.634	6.56
267.849	6.49
268.063	6.87
268.278	7.38
268.492	8.05
268.707	7.51
268.922	7.31
269.136	7.57
269.351	7.76
269.565	7.48
269.78	7.25
269.994	7.61
270.209	8.08
270.423	8.12
270.637	7.83
270.852	7.35
271.066	7.58
271.281	7.3
271.495	7.28
271.709	7.05
271.924	7.18
272.138	7.71
272.353	7.85
272.567	7.7
272.781	7.77
272.996	7.78
273.21	8.16
273.424	8.42
273.638	8.46
273.853	8.28
274.067	9.04
274.281	9.48
274.495	9.34
274.71	9.3
274.924	9.08
275.138	8.95
275.352	8.96
275.566	8.81
275.781	8.5
275.995	8.57
276.209	8.51
276.423	7.67
276.637	7.36
276.851	7.51
277.065	7.3
277.279	7.67
277.493	8.05
277.707	7.88
277.921	7.74
278.135	7.22
278.349	6.99
278.563	6.88
278.777	7.44
278.991	6.81
279.205	6.76
279.419	7.08
279.633	7.06
279.847	6.62
280.061	6.38
280.275	6.14
280.489	7.23
280.703	7.22
280.917	7.29
281.131	6.89
281.344	7.33
281.558	7.16
281.772	6.53
281.986	6.26
282.2	6.19
282.414	6.02
282.627	6.08
282.841	5.12
283.055	5.33
283.269	5.59
283.482	5.71
283.696	5.27
283.91	5.12
284.123	5.23
284.337	5.4
284.551	5.33
284.764	5.51
284.978	5.48
285.192	5.59
285.405	5.54
285.619	5.56
285.833	5.61
286.046	5.9
286.26	6.27
286.473	6.16
286.687	6.42
286.9	6.37
287.114	6.03
287.327	6.05
287.541	6.33
287.754	5.95
287.968	5.53
288.181	5.58
288.395	5.58
288.608	5.63
288.822	5.76
289.035	5.4
289.248	5.52
289.462	5.84
289.675	6.05
289.889	6.07
290.102	5.94
290.315	6.11
290.529	6.32
290.742	6.17
290.955	6.12
291.169	6.14
291.382	6.13
291.595	6.55
291.808	7.02
292.022	6.72
292.235	6.43
292.448	6.91
292.661	6.85
292.875	6.71
293.088	6.98
293.301	6.87
293.514	6.93
293.727	6.81
293.94	6.62
294.153	6.51
294.367	6.09
294.58	6.15
294.793	5.94
295.006	6.13
295.219	5.84
295.432	5.94
295.645	6.04
295.858	6.08
296.071	5.76
296.284	5.55
296.497	5.42
296.71	5.82
296.923	5.98
297.136	6.13
297.349	6.22
297.562	6.2
297.775	6.18
297.988	6.34
298.201	6.46
298.414	6.87
298.626	7.17
298.839	7.42
299.052	7.76
299.265	7.67
299.478	7.55
299.691	7.38
299.903	7.57
300.116	7.28
300.329	6.96
300.542	6.41
300.755	6.51
300.967	6.79
301.18	6.8
301.393	6.47
301.605	6.32
301.818	6.27
302.031	6.08
302.243	6.27
302.456	6.27
302.669	6.45
302.881	7.16
303.094	7.18
303.307	6.82
303.519	6.73
303.732	6.89
303.944	7
304.157	7.39
304.37	7.68
304.582	7.72
304.795	7.99
305.007	8.08
305.22	7.88
305.432	7.89
305.645	8.18
305.857	8.25
306.069	8.13
306.282	8
306.494	7.76
306.707	7.75
306.919	7.4
307.132	7.45
307.344	7.4
307.556	7.19
307.769	7.06
307.981	6.74
308.193	6.6
308.406	6.33
308.618	6.5
308.83	6.51
309.043	6.45
309.255	6.82
309.467	6.67
309.679	6.85
309.892	7.21
310.104	7.44
310.316	7.34
310.528	7.29
310.74	7.9
310.953	8.04
311.165	7.78
311.377	7.79
311.589	7.64
311.801	7.72
312.013	7.45
312.225	7.37
312.437	7.07
312.649	7.26
312.862	7.58
313.074	7.17
313.286	7.04
313.498	7.59
313.71	7.78
313.922	7.72
314.134	7.71
314.346	7.53
314.558	7.65
314.77	8.31
314.982	8.7
315.193	8.7
315.405	8.6
315.617	8.51
315.829	8.34
316.041	7.93
316.253	8.05
316.465	8.72
316.677	8.75
316.888	8.85
317.1	8.73
317.312	8.69
317.524	8.7
317.736	8.88
317.947	8.92
318.159	9.23
318.371	9.87
318.583	9.93
318.794	9.29
319.006	9.16
319.218	8.87
319.43	8.44
319.641	8.73
319.853	8.61
320.064	8.87
320.276	8.97
320.488	8.66
320.699	8.57
320.911	8.8
321.123	8.92
321.334	9.45
321.546	9.46
321.757	9.97
321.969	9.63
322.18	9.83
322.392	9.71
322.603	9.86
322.815	9.98
323.026	9.59
323.238	9.55
323.449	9.53
323.661	9.27
323.872	9.15
324.083	9.4
324.295	9.01
324.506	8.87
324.718	8.79
324.929	8.83
325.14	9.08
325.352	9.11
325.563	8.41
325.774	8.38
325.986	8.3
326.197	8.39
326.408	8.23
326.62	8.3
326.831	8.8
327.042	9.09
327.253	8.85
327.464	8.41
327.676	8.32
327.887	8.77
328.098	8.76
328.309	9.02
328.52	9.27
328.732	9.2
328.943	9.35
329.154	9.18
329.365	8.8
329.576	8.77
329.787	8.98
329.998	9.48
330.209	9.89
330.42	10.22
330.631	10.03
330.842	9.82
331.053	9.74
331.264	9.66
331.475	9.57
331.686	9.47
331.897	9.85
332.108	10.22
332.319	9.89
332.53	9.69
332.741	9.59
332.952	9.7
333.163	9.59
333.374	9.56
333.585	9.77
333.795	9.48
334.006	10.24
334.217	10.11
334.428	9.84
334.639	10.27
334.849	9.93
335.06	9.86
335.271	9.65
335.482	10.18
335.692	10.28
335.903	10.41
336.114	10.38
336.325	9.65
336.535	10.07
336.746	10.12
336.957	10.03
337.167	10.35
337.378	10.28
337.589	10.67
337.799	10.51
338.01	10.8
338.22	10.5
338.431	10.31
338.642	10.58
338.852	10.07
339.063	9.93
339.273	9.37
339.484	9.17
339.694	9.24
339.905	9.19
340.115	8.72
340.326	8.27
340.536	8.76
340.746	9.13
340.957	9.23
341.167	9.2
341.378	8.96
341.588	9.2
341.799	9.56
342.009	9.64
342.219	9.49
342.43	9.47
342.64	9.54
342.85	9.13
343.061	9.09
343.271	9.11
343.481	8.95
343.691	9.22
343.902	9.36
344.112	8.88
344.322	8.72
344.532	8.66
344.743	8.8
344.953	8.73
345.163	8.61
345.373	8.43
345.583	8.33
345.793	8.52
346.004	8.21
346.214	8
346.424	8.21
346.634	8.23
346.844	8.54
347.054	8.43
347.264	8.49
347.474	8.4
347.684	8.51
347.894	8.44
348.104	8.41
348.314	8.64
348.524	8.54
348.734	8.53
348.944	8.4
349.154	8.51
349.364	8.86
349.574	8.47
349.784	8.71
349.994	8.82
350.204	8.65
350.413	8.45
350.623	8.42
350.833	8.57
351.043	8.53
351.253	8.77
351.463	8.13
351.672	7.97
351.882	8.02
352.092	8.12
352.302	8.04
352.511	8.29
352.721	8.32
352.931	8.17
353.141	8.44
353.35	8.72
353.56	8.45
353.77	8.74
353.979	8.59
354.189	8.78
354.399	8.61
354.608	8.46
354.818	8.43
355.027	8.57
355.237	8.71
355.447	8.23
355.656	7.98
355.866	8
356.075	7.92
356.285	7.81
356.494	7.72
356.704	7.66
356.913	7.81
357.123	7.61
357.332	7.34
357.542	7.21
357.751	7.17
357.96	7.1
358.17	7.08
358.379	7.03
358.589	6.94
358.798	6.94
359.007	6.95
359.217	6.82
359.426	6.74
359.635	7.1
359.845	7.04
360.054	7.27
360.263	7.27
360.472	7.18
360.682	7.23
360.891	7.37
361.1	7.25
361.309	7.37
361.519	7.6
361.728	7.81
361.937	7.7
362.146	7.96
362.355	8.15
362.564	8.43
362.774	8.38
362.983	8.13
363.192	8.05
363.401	8.14
363.61	7.88
363.819	7.67
364.028	7.36
364.237	7.2
364.446	6.87
364.655	6.59
364.864	6.45
365.073	6.71
365.282	7.09
365.491	7.09
365.7	7.05
365.909	7.39
366.118	7.48
366.327	7.48
366.536	7.55
366.745	7.66
366.954	7.78
367.162	7.72
367.371	7.82
367.58	7.71
367.789	7.54
367.998	7.54
368.207	7.39
368.415	7.25
368.624	7.48
368.833	7.28
369.042	7.29
369.25	7.26
369.459	7.41
369.668	7.26
369.877	7.12
370.085	7.37
370.294	7.52
370.503	7.49
370.711	7.62
370.92	7.71
371.129	7.93
371.337	7.95
371.546	7.89
371.754	7.87
371.963	7.67
372.171	7.56
372.38	7.4
372.589	7.26
372.797	7.36
373.006	7.31
373.214	7.11
373.423	7.07
373.631	7.03
373.84	6.9
374.048	6.66
374.256	6.79
374.465	7.24
374.673	7.34
374.882	7.22
375.09	7.16
375.298	7.23
375.507	7.25
375.715	7.26
375.923	7.04
376.132	6.98
376.34	6.82
376.548	6.86
376.757	6.67
376.965	6.78
377.173	6.99
377.381	6.94
377.59	6.77
377.798	6.66
378.006	6.72
378.214	7.01
378.423	7.15
378.631	7.43
378.839	7.52
379.047	7.66
379.255	7.43
379.463	7.4
379.671	7.12
379.879	7.03
380.088	7.09
380.296	6.95
380.504	6.8
380.712	6.81
380.92	6.56
381.128	6.38
381.336	6.02
381.544	6.13
381.752	6.17
381.96	6.46
382.168	6.39
382.376	6.5
382.584	6.54
382.791	6.5
382.999	6.4
383.207	6.5
383.415	6.64
383.623	6.78
383.831	6.76
384.039	6.66
384.247	6.56
384.454	6.75
384.662	6.61
384.87	6.56
385.078	6.8
385.285	6.94
385.493	6.86
385.701	6.69
385.909	6.7
386.116	6.62
386.324	6.87
386.532	6.85
386.739	6.75
386.947	6.85
387.155	6.94
387.362	6.79
387.57	6.77
387.778	6.85
387.985	6.93
388.193	6.86
388.4	6.88
388.608	6.77
388.816	7.01
389.023	7
389.231	6.94
389.438	6.71
389.646	6.71
389.853	6.77
390.061	6.81
390.268	6.94
390.475	6.96
390.683	7.12
390.89	7.06
391.098	6.86
391.305	6.81
391.512	6.72
391.72	6.75
391.927	6.62
392.135	6.58
392.342	6.67
392.549	6.47
392.756	6.34
392.964	6.26
393.171	6.21
393.378	6.3
393.586	6.27
393.793	6.32
394	6.28
394.207	6.42
394.414	6.46
394.622	6.29
394.829	6.36
395.036	6.43
395.243	6.33
395.45	6.41
395.657	6.27
395.864	6.34
396.072	6.45
396.279	6.42
396.486	6.48
396.693	6.3
396.9	6.31
397.107	6.23
397.314	6.22
397.521	6.27
397.728	6.12
397.935	6.15
398.142	6.16
398.349	6.09
398.556	6.23
398.763	6.05
398.97	6.16
399.177	6.13
399.383	6.2
399.59	6.16
399.797	6.06
400.004	6.13
400.211	6.1
400.418	6.14
400.625	6.03
400.831	5.97
401.038	5.96
401.245	5.76
401.452	5.6
401.658	5.57
401.865	5.78
402.072	5.87
402.279	5.94
402.485	5.86
402.692	5.72
402.899	5.7
403.105	5.64
403.312	5.71
403.519	5.72
403.725	5.85
403.932	5.93
404.138	5.74
404.345	5.6
404.552	5.44
404.758	5.56
404.965	5.52
405.171	5.53
405.378	5.5
405.584	5.36
405.791	5.37
405.997	5.24
406.204	5.32
406.41	5.34
406.617	5.48
406.823	5.41
407.029	5.4
407.236	5.44
407.442	5.67
407.649	5.78
407.855	5.78
408.061	5.91
408.268	6.06
408.474	5.8
408.68	5.71
408.887	5.65
409.093	5.73
409.299	5.71
409.505	5.52
409.712	5.25
409.918	5.09
410.124	5.05
410.33	4.85
410.537	4.74
410.743	4.8
410.949	4.97
411.155	4.92
411.361	4.94
411.567	4.85
411.773	5.02
411.98	5.07
412.186	5.1
412.392	5.08
412.598	5.12
412.804	5.21
413.01	5.16
413.216	5.09
413.422	5.14
413.628	5.15
413.834	5.18
414.04	5.16
414.246	5.2
414.452	5.37
414.658	5.52
414.864	5.48
415.07	5.45
415.275	5.53
415.481	5.44
415.687	5.38
415.893	5.22
416.099	5.12
416.305	5.24
416.511	5.24
416.716	5.18
416.922	5.16
417.128	5.24
417.334	5.16
417.539	5.1
417.745	5.05
417.951	5.07
418.157	5.14
418.362	5.14
418.568	5.11
418.774	5.05
418.979	5.02
419.185	4.88
419.391	4.76
419.596	4.7
419.802	4.65
420.008	4.67
420.213	4.04
420.419	4
420.624	4.11
420.83	3.98
421.035	3.97
421.241	3.96
421.446	4.01
421.652	4.01
421.857	4.04
422.063	3.96
422.268	3.95
422.474	4.5
422.679	4.51
422.885	4.34
423.09	4.34
423.295	4.31
423.501	4.29
423.706	4.32
423.911	4.35
424.117	4.36
424.322	4.52
424.527	4.47
424.733	4.53
424.938	4.56
425.143	4.63
425.349	4.63
425.554	4.66
425.759	4.72
425.964	4.69
426.169	4.66
426.375	4.71
426.58	4.67
426.785	4.83
426.99	4.9
427.195	4.85
427.4	4.85
427.605	5.08
427.811	5.07
428.016	5.1
428.221	5.17
428.426	5.18
428.631	5.06
428.836	5.04
429.041	4.99
429.246	4.94
429.451	4.9
429.656	4.87
429.861	4.82
430.066	4.85
430.271	4.78
430.476	4.62
430.681	4.65
430.886	4.74
431.09	4.68
431.295	4.62
431.5	4.58
431.705	4.6
431.91	4.56
432.115	4.47
432.32	4.5
432.524	4.41
432.729	4.51
432.934	4.5
433.139	4.52
433.343	4.55
433.548	4.6
433.753	4.59
433.958	4.63
434.162	4.8
434.367	4.84
434.572	4.8
434.776	4.83
434.981	4.76
435.186	4.79
435.39	4.85
435.595	4.94
435.799	4.82
436.004	4.8
436.209	4.64
436.413	4.49
436.618	4.45
436.822	4.4
437.027	4.4
437.231	4.4
437.436	4.34
437.64	4.23
437.845	4.08
438.049	4.09
438.253	4.17
438.458	4.32
438.662	4.33
438.867	4.37
439.071	4.48
439.275	4.42
439.48	4.41
439.684	4.45
439.888	4.47
440.093	4.51
440.297	4.52
440.501	4.52
440.706	4.4
440.91	4.41
441.114	4.28
441.318	4.15
441.523	4.24
441.727	4.17
441.931	4.2
442.135	4.23
442.339	4.24
442.543	4.28
442.748	4.25
442.952	4.33
443.156	4.28
443.36	4.35
443.564	4.48
443.768	4.43
443.972	4.47
444.176	4.36
444.38	4.31
444.584	4.39
444.788	4.28
444.992	4.24
445.196	4.18
445.4	4.14
445.604	4.08
445.808	4
446.012	3.98
446.216	4.03
446.42	4.08
446.624	4.1
446.828	4.04
447.032	4.09
447.235	4.06
447.439	4.14
447.643	4.25
447.847	4.25
448.051	4.4
448.254	4.43
448.458	4.52
448.662	4.53
448.866	4.51
449.069	4.54
449.273	4.65
449.477	4.67
449.681	4.63
449.884	4.56
450.088	4.71
450.292	4.59
450.495	4.53
450.699	4.46
450.902	4.44
451.106	4.36
451.31	4.31
451.513	4.25
451.717	4.25
451.92	4.33
452.124	4.45
452.327	4.46
452.531	4.3
452.734	4.4
452.938	4.4
453.141	4.26
453.345	4.23
453.548	4.26
453.752	4.36
453.955	4.31
454.158	4.23
454.362	4.06
454.565	4
454.769	4.18
454.972	4.15
455.175	4.13
455.379	4.24
455.582	4.32
455.785	4.14
455.988	4
456.192	4.01
456.395	3.97
456.598	3.95
456.801	3.94
457.005	3.95
457.208	3.94
457.411	3.91
457.614	3.87
457.817	3.82
458.021	3.84
458.224	3.9
458.427	3.93
458.63	3.96
458.833	3.94
459.036	3.96
459.239	3.87
459.442	3.81
459.645	3.76
459.848	3.78
460.051	3.81
460.254	3.84
460.457	3.78
460.66	3.79
460.863	3.9
461.066	3.98
461.269	3.99
461.472	4.05
461.675	4.16
461.878	4.24
462.081	4.29
462.284	4.28
462.486	4.37
462.689	4.37
462.892	4.4
463.095	4.29
463.298	4.35
463.5	4.31
463.703	4.28
463.906	4.27
464.109	4.31
464.311	4.29
464.514	4.34
464.717	4.41
464.92	4.44
465.122	4.36
465.325	4.39
465.528	4.39
465.73	4.42
465.933	4.4
466.135	4.5
466.338	4.42
466.541	4.44
466.743	4.41
466.946	4.3
467.148	4.32
467.351	4.33
467.553	4.36
467.756	4.27
467.958	4.27
468.161	4.39
468.363	4.26
468.566	4.31
468.768	4.35
468.971	4.36
469.173	4.34
469.375	4.26
469.578	4.09
469.78	3.99
469.983	3.98
470.185	3.9
470.387	3.84
470.59	3.92
470.792	3.93
470.994	3.9
471.196	3.84
471.399	3.89
471.601	3.95
471.803	4.18
472.005	4.26
472.208	4.27
472.41	4.38
472.612	4.37
472.814	4.31
473.016	4.32
473.218	4.33
473.421	4.27
473.623	4.23
473.825	4.17
474.027	4.02
474.229	3.98
474.431	3.99
474.633	3.94
474.835	3.93
475.037	3.87
475.239	3.86
475.441	3.89
475.643	3.97
475.845	3.97
476.047	3.92
476.249	4.02
476.451	4
476.653	3.99
476.855	3.91
477.057	3.92
477.258	3.97
477.46	3.94
477.662	3.91
477.864	3.93
478.066	3.99
478.268	4.1
478.469	4.07
478.671	4.08
478.873	4.11
479.075	4.16
479.276	4.17
479.478	4.11
479.68	4.04
479.882	4.05
480.083	4.11
480.285	4.04
480.487	3.96
480.688	3.96
480.89	3.97
481.091	3.94
481.293	3.83
481.495	3.83
481.696	3.79
481.898	3.77
482.099	3.75
482.301	3.74
482.502	3.72
482.704	3.71
482.905	3.69
483.107	3.67
483.308	3.69
483.51	3.74
483.711	3.72
483.913	3.75
484.114	3.81
484.315	3.81
484.517	3.79
484.718	3.79
484.92	3.84
485.121	3.83
485.322	3.83
485.524	3.82
485.725	3.81
485.926	3.8
486.127	3.79
486.329	3.77
486.53	3.76
486.731	3.74
486.932	3.78
487.134	3.8
487.335	3.8
487.536	3.84
487.737	3.8
487.938	3.82
488.139	3.81
488.341	3.8
488.542	3.79
488.743	3.8
488.944	3.79
489.145	3.78
489.346	3.7
489.547	3.73
489.748	3.69
489.949	3.74
490.15	3.77
490.351	3.8
490.552	3.83
490.753	3.83
490.954	3.87
491.155	3.92
491.356	3.9
491.557	3.95
491.758	3.97
491.959	4.04
492.159	4.05
492.36	4.05
492.561	4.08
492.762	4.1
492.963	4.1
493.164	4.09
493.364	4.13
493.565	4.16
493.766	4.19
493.967	4.14
494.167	4.09
494.368	4.09
494.569	4.08
494.769	4.01
494.97	4.07
495.171	4.16
495.371	4.07
495.572	4.04
495.773	4.07
495.973	4.03
496.174	4.06
496.375	4.1
496.575	4.12
496.776	4.1
496.976	4.23
497.177	4.24
497.377	4.24
497.578	4.33
497.778	4.35
497.979	4.31
498.179	4.4
498.38	4.43
498.58	4.39
498.78	4.5
498.981	4.57
499.181	4.56
499.382	4.57
499.582	4.52
499.782	4.55
499.983	4.56
500.183	4.63
500.383	4.66
500.584	4.62
500.784	4.7
500.984	4.57
501.184	4.53
501.385	4.57
501.585	4.51
501.785	4.53
501.985	4.55
502.185	4.5
502.386	4.51
502.586	4.48
502.786	4.48
502.986	4.5
503.186	4.57
503.386	4.52
503.586	4.48
503.786	4.55
503.987	4.59
504.187	4.58
504.387	4.63
504.587	4.65
504.787	4.64
504.987	4.71
505.187	4.78
505.387	4.65
505.587	4.75
505.786	4.7
505.986	4.66
506.186	4.66
506.386	4.74
506.586	4.78
506.786	4.73
506.986	4.74
507.186	4.7
507.386	4.62
507.585	4.62
507.785	4.63
507.985	4.64
508.185	4.62
508.384	4.64
508.584	4.51
508.784	4.47
508.984	4.53
509.183	4.48
509.383	4.47
509.583	4.44
509.782	4.54
509.982	4.55
510.182	4.57
510.381	4.59
510.581	4.61
510.781	4.73
510.98	4.7
511.18	4.73
511.379	4.84
511.579	4.97
511.778	5.02
511.978	5.02
512.177	4.93
512.377	4.95
512.576	5.01
512.776	4.99
512.975	4.99
513.175	5.03
513.374	5.02
513.573	4.99
513.773	4.9
513.972	4.88
514.172	4.86
514.371	5
514.57	5.02
514.77	4.98
514.969	5.02
515.168	4.98
515.367	4.97
515.567	4.97
515.766	4.99
515.965	4.97
516.164	5
516.364	5.06
516.563	5.03
516.762	5
516.961	5.06
517.16	5.03
517.359	5.05
517.559	5.1
517.758	5.11
517.957	5.07
518.156	5.07
518.355	5.05
518.554	5.09
518.753	5.17
518.952	5.28
519.151	5.2
519.35	5.24
519.549	5.23
519.748	5.24
519.947	5.3
520.146	5.37
520.345	5.44
520.544	5.45
520.743	5.41
520.942	5.27
521.141	5.24
521.339	5.34
521.538	5.31
521.737	5.31
521.936	5.29
522.135	5.25
522.333	5.26
522.532	5.17
522.731	5.15
522.93	5.1
523.129	5.14
523.327	5.09
523.526	5.09
523.725	5.11
523.923	5.15
524.122	5.13
524.321	5.13
524.519	5.14
524.718	5.21
524.917	5.3
525.115	5.33
525.314	5.34
525.512	5.34
525.711	5.3
525.909	5.28
526.108	5.26
526.306	5.29
526.505	5.26
526.703	5.28
526.902	5.26
527.1	5.22
527.299	5.24
527.497	5.25
527.696	5.28
527.894	5.34
528.092	5.37
528.291	5.39
528.489	5.45
528.688	5.52
528.886	5.54
529.084	5.63
529.283	5.71
529.481	5.79
529.679	5.83
529.877	5.89
530.076	5.85
530.274	5.9
530.472	5.9
530.67	5.88
530.869	5.82
531.067	5.82
531.265	5.73
531.463	5.7
531.661	5.69
531.859	5.7
532.057	5.67
532.255	5.72
532.454	5.75
532.652	5.76
532.85	5.82
533.048	5.88
533.246	5.94
533.444	5.99
533.642	6.01
533.84	6.02
534.038	6.05
534.236	6.08
534.434	6.13
534.632	6.07
534.83	6.11
535.027	6.07
535.225	6.06
535.423	6.04
535.621	6.09
535.819	6.15
536.017	6.17
536.215	6.16
536.412	6.21
536.61	6.25
536.808	6.38
537.006	6.44
537.203	6.51
537.401	6.52
537.599	6.52
537.797	6.54
537.994	6.57
538.192	6.62
538.39	6.7
538.587	6.68
538.785	6.61
538.983	6.53
539.18	6.49
539.378	6.45
539.575	6.45
539.773	6.46
539.97	6.39
540.168	6.39
540.366	6.39
540.563	6.4
540.761	6.44
540.958	6.48
541.155	6.53
541.353	6.55
541.55	6.56
541.748	6.59
541.945	6.62
542.143	6.75
542.34	6.8
542.537	6.85
542.735	6.82
542.932	6.85
543.129	6.87
543.327	6.87
543.524	6.96
543.721	7.04
543.919	7.13
544.116	7.25
544.313	7.2
544.51	7.2
544.708	7.22
544.905	7.26
545.102	7.3
545.299	7.3
545.496	7.37
545.693	7.34
545.891	7.38
546.088	7.44
546.285	7.45
546.482	7.57
546.679	7.63
546.876	7.63
547.073	7.74
547.27	7.79
547.467	7.87
547.664	7.82
547.861	7.93
548.058	7.97
548.255	8.02
548.452	8.07
548.649	8.1
548.846	8.11
549.043	8.15
549.24	8.15
549.437	8.18
549.633	8.17
549.83	8.25
550.027	8.25
550.224	8.34
550.421	8.28
550.618	8.21
550.814	8.22
551.011	8.31
551.208	8.38
551.405	8.39
551.601	8.42
551.798	8.57
551.995	8.59
552.191	8.66
552.388	8.62
552.585	8.63
552.781	8.74
552.978	8.88
553.175	8.95
553.371	9.08
553.568	9.11
553.764	9.2
553.961	9.14
554.157	9.24
554.354	9.29
554.55	9.42
554.747	9.61
554.943	9.67
555.14	9.54
555.336	9.52
555.533	9.46
555.729	9.66
555.926	9.67
556.122	9.9
556.318	10.01
556.515	10.2
556.711	10.16
556.907	10.09
557.104	10.14
557.3	10.21
557.496	10.18
557.693	10.21
557.889	10.22
558.085	10.18
558.281	10.24
558.478	10.3
558.674	10.08
558.87	10.2
559.066	10.37
559.262	10.37
559.459	10.38
559.655	10.44
559.851	10.61
560.047	10.65
560.243	10.74
560.439	10.71
560.635	10.75
560.831	10.9
561.027	10.88
561.223	10.82
561.419	10.97
561.615	11.14
561.811	11.24
562.007	11.24
562.203	11.33
562.399	11.33
562.595	11.33
562.791	11.47
562.987	11.63
563.183	11.71
563.379	11.83
563.575	11.87
563.771	11.92
563.966	11.97
564.162	12.03
564.358	12.04
564.554	12.12
564.75	12.24
564.945	12.15
565.141	12.13
565.337	12.19
565.533	12.21
565.728	12.25
565.924	12.26
566.12	12.44
566.315	12.52
566.511	12.61
566.707	12.62
566.902	12.59
567.098	12.73
567.293	12.75
567.489	12.68
567.684	12.81
567.88	12.83
568.076	12.88
568.271	12.78
568.467	12.72
568.662	12.73
568.858	12.89
569.053	12.9
569.248	12.95
569.444	13.03
569.639	13.14
569.835	13.2
570.03	13.25
570.225	13.31
570.421	13.43
570.616	13.53
570.812	13.53
571.007	13.54
571.202	13.71
571.397	13.83
571.593	13.83
571.788	13.91
571.983	13.97
572.178	14.1
572.374	14.08
572.569	14.17
572.764	14.3
572.959	14.4
573.154	14.42
573.35	14.36
573.545	14.28
573.74	14.34
573.935	14.43
574.13	14.42
574.325	14.36
574.52	14.5
574.715	14.51
574.91	14.43
575.105	14.58
575.3	14.75
575.495	14.93
575.69	14.99
575.885	15.19
576.08	15.2
576.275	15.28
576.47	15.4
576.665	15.54
576.86	15.67
577.055	15.76
577.25	15.82
577.444	15.87
577.639	15.92
577.834	16.03
578.029	15.97
578.224	16.04
578.418	16.2
578.613	16.33
578.808	16.31
579.003	16.19
579.197	16.27
579.392	16.23
579.587	16.43
579.781	16.5
579.976	16.53
580.171	16.55
580.365	16.7
580.56	16.63
580.755	16.65
580.949	16.75
581.144	16.9
581.338	16.9
581.533	16.93
581.727	16.91
581.922	16.81
582.116	16.96
582.311	17.02
582.505	16.94
582.7	16.86
582.894	16.94
583.089	16.89
583.283	16.87
583.478	17.14
583.672	17.17
583.866	17.1
584.061	17.13
584.255	17.03
584.449	17.1
584.644	17.28
584.838	17.37
585.032	17.34
585.226	17.54
585.421	17.69
585.615	17.46
585.809	17.5
586.003	17.58
586.198	17.74
586.392	17.88
586.586	17.89
586.78	17.79
586.974	17.9
587.168	17.78
587.363	17.6
587.557	17.5
587.751	17.51
587.945	17.52
588.139	17.47
588.333	17.47
588.527	17.52
588.721	17.59
588.915	17.63
589.109	17.75
589.303	17.95
589.497	17.98
589.691	18.09
589.885	18.2
590.079	18.18
590.273	18.19
590.466	18.19
590.66	18.08
590.854	18.13
591.048	18.13
591.242	17.99
591.436	17.87
591.629	18.05
591.823	17.97
592.017	18.11
592.211	18.26
592.404	18.31
592.598	18.26
592.792	18.32
592.986	18.21
593.179	18.17
593.373	18.25
593.567	18.34
593.76	18.14
593.954	18.29
594.147	18.36
594.341	18.25
594.535	18.17
594.728	18.14
594.922	18.21
595.115	18.2
595.309	18.25
595.502	18.22
595.696	18.22
595.889	18.41
596.083	18.38
596.276	18.16
596.47	18.28
596.663	18.45
596.856	18.52
597.05	18.62
597.243	18.79
597.437	18.98
597.63	19.08
597.823	19.27
598.017	19.26
598.21	19.46
598.403	19.6
598.596	19.54
598.79	19.48
598.983	19.53
599.176	19.36
599.369	19.4
599.563	19.24
599.756	19.24
599.949	19.06
600.142	19.02
600.335	19
600.528	19.15
600.722	19.37
600.915	19.47
601.108	19.59
601.301	19.7
601.494	19.61
601.687	19.59
601.88	19.71
602.073	19.7
602.266	19.83
602.459	19.7
602.652	19.62
602.845	19.53
603.038	19.47
603.231	19.42
603.424	19.4
603.617	19.45
603.809	19.48
604.002	19.35
604.195	19.45
604.388	19.4
604.581	19.41
604.774	19.43
604.966	19.3
605.159	19.32
605.352	19.22
605.545	19.26
605.737	19.25
605.93	19.33
606.123	19.4
606.316	19.38
606.508	19.39
606.701	19.44
606.894	19.52
607.086	19.69
607.279	19.73
607.471	19.86
607.664	19.87
607.857	19.87
608.049	19.96
608.242	20.02
608.434	19.93
608.627	19.97
608.819	19.82
609.012	19.91
609.204	19.97
609.397	19.94
609.589	20.05
609.782	20.05
609.974	20.05
610.166	20.01
610.359	19.95
610.551	19.98
610.743	19.99
610.936	20.26
611.128	20.2
611.32	20.17
611.513	20.3
611.705	20.05
611.897	19.96
612.09	20.07
612.282	20.16
612.474	20.19
612.666	20.27
612.858	20.47
613.051	20.51
613.243	20.53
613.435	20.55
613.627	20.48
613.819	20.53
614.011	21.03
614.203	21.13
614.395	21.1
614.588	21.2
614.78	21.25
614.972	21.1
615.164	21.01
615.356	20.92
615.548	20.87
615.74	20.87
615.932	21.08
616.124	20.68
616.315	20.9
616.507	20.91
616.699	20.79
616.891	20.83
617.083	20.88
617.275	21.02
617.467	21.17
617.659	21.33
617.85	21.35
618.042	21.36
618.234	21.33
618.426	21
618.618	21.03
618.809	21.05
619.001	21
619.193	20.89
619.384	20.84
619.576	20.93
619.768	20.82
619.959	20.73
620.151	20.79
620.343	20.91
620.534	20.86
620.726	20.89
620.917	21.01
621.109	20.97
621.301	21.18
621.492	21.11
621.684	20.78
621.875	20.71
622.067	20.86
622.258	20.7
622.45	20.63
622.641	20.65
622.832	20.67
623.024	20.44
623.215	20.55
623.407	20.49
623.598	20.55
623.789	20.76
623.981	20.72
624.172	20.62
624.363	20.6
624.555	20.67
624.746	20.59
624.937	20.53
625.129	20.83
625.32	20.78
625.511	20.9
625.702	20.78
625.893	20.81
626.085	21
626.276	21.11
626.467	21.12
626.658	21.01
626.849	21.19
627.04	21.3
627.231	21.28
627.422	21.27
627.614	21.09
627.805	21.19
627.996	21.22
628.187	21.08
628.378	20.94
628.569	21.01
628.76	21.2
628.951	21.2
629.142	21.08
629.332	21.14
629.523	21.02
629.714	21
629.905	20.94
630.096	20.9
630.287	21.04
630.478	21.21
630.669	21.14
630.859	21.15
631.05	21.19
631.241	21.13
631.432	21.03
631.623	21.27
631.813	21.35
632.004	21.26
632.195	21.17
632.385	21.09
632.576	21.07
632.767	21.25
632.957	21.25
633.148	21.21
633.339	21.21
633.529	21.3
633.72	21.27
633.91	21.31
634.101	21.53
634.292	21.66
634.482	21.79
634.673	21.82
634.863	21.6
635.054	21.71
635.244	21.7
635.435	21.68
635.625	21.61
635.815	21.5
636.006	21.32
636.196	21.18
636.387	21.01
636.577	20.97
636.767	20.93
636.958	20.96
637.148	20.79
637.338	20.87
637.529	21.12
637.719	21.17
637.909	21.47
638.099	21.65
638.29	21.87
638.48	22.18
638.67	22.1
638.86	22.25
639.05	22.26
639.241	22.4
639.431	22.43
639.621	22.15
639.811	22.07
640.001	21.7
640.191	21.66
640.381	21.41
640.571	21.12
640.761	21.06
640.951	21.03
641.141	21.32
641.331	21.2
641.521	21.06
641.711	21.08
641.901	20.94
642.091	21.18
642.281	20.96
642.471	20.97
642.661	21.08
642.851	21.34
643.041	20.97
643.231	20.82
643.42	20.75
643.61	20.87
643.8	21.06
643.99	21.22
644.18	21.27
644.369	21.7
644.559	21.97
644.749	22.07
644.939	21.95
645.128	22.21
645.318	22.28
645.508	22.29
645.697	22.3
645.887	22.35
646.076	22.18
646.266	22.04
646.456	21.84
646.645	21.96
646.835	21.94
647.024	22
647.214	21.99
647.403	21.91
647.593	21.83
647.782	21.75
647.972	21.58
648.161	21.77
648.351	21.79
648.54	21.91
648.73	21.91
648.919	21.95
649.108	21.87
649.298	22.01
649.487	22.04
649.677	22
649.866	21.94
650.055	21.97
650.244	22.22
650.434	22.34
650.623	22.22
650.812	22.1
651.002	21.94
651.191	22.04
651.38	21.81
651.569	21.83
651.758	21.86
651.947	22.03
652.137	21.9
652.326	21.68
652.515	21.53
652.704	21.45
652.893	21.45
653.082	21.6
653.271	21.63
653.46	21.67
653.649	21.77
653.838	21.99
654.027	22.02
654.216	22
654.405	21.99
654.594	21.9
654.783	22.11
654.972	21.82
655.161	21.62
655.35	21.45
655.539	21.56
655.728	21.18
655.916	21.15
656.105	20.99
656.294	21.19
656.483	21.21
656.672	21.41
656.86	21.35
657.049	21.45
657.238	21.63
657.427	21.69
657.615	21.65
657.804	21.76
657.993	21.71
658.181	21.73
658.37	21.76
658.559	21.76
658.747	21.75
658.936	21.81
659.125	21.68
659.313	21.71
659.502	21.72
659.69	21.77
659.879	22.03
660.067	22.12
660.256	22.17
660.444	22.35
660.633	22.24
660.821	22.4
661.01	22.18
661.198	22.45
661.387	22.15
661.575	22.22
661.763	22.44
661.952	22.37
662.14	22.23
662.328	22.07
662.517	21.96
662.705	22
662.893	21.85
663.082	22
663.27	22.14
663.458	22.43
663.646	22.49
663.834	22.33
664.023	22.14
664.211	22.42
664.399	22.64
664.587	22.35
664.775	22.35
664.963	22.32
665.152	22.37
665.34	22.57
665.528	22.62
665.716	22.52
665.904	22.39
666.092	22.47
666.28	22.33
666.468	22.23
666.656	22.38
666.844	22.68
667.032	22.76
667.22	23.02
667.408	22.82
667.596	22.91
667.784	22.89
667.971	23.15
668.159	23.26
668.347	23.25
668.535	23.22
668.723	23.44
668.911	23.46
669.098	23.43
669.286	23.14
669.474	23
669.662	22.85
669.849	22.95
670.037	22.79
670.225	22.66
670.413	22.57
670.6	22.72
670.788	22.62
670.976	22.26
671.163	22.24
671.351	22.44
671.538	22.73
671.726	22.85
671.913	22.92
672.101	22.83
672.289	22.61
672.476	22.68
672.664	22.72
672.851	22.55
673.039	22.71
673.226	22.77
673.413	22.53
673.601	22.44
673.788	22.22
673.976	22.1
674.163	22.12
674.35	22.33
674.538	22.34
674.725	22.25
674.912	22.39
675.1	22.4
675.287	22.44
675.474	22.59
675.662	22.86
675.849	23.08
676.036	23.02
676.223	23.31
676.411	23.39
676.598	23.23
676.785	23.52
676.972	23.43
677.159	23.82
677.346	23.48
677.533	23.51
677.721	23.27
677.908	23.2
678.095	23.37
678.282	23.17
678.469	23.15
678.656	23.25
678.843	23.06
679.03	22.97
679.217	22.95
679.404	23.15
679.591	23.14
679.778	23.07
679.964	23.14
680.151	23.08
680.338	23.1
680.525	23.13
680.712	23.2
680.899	23.09
681.086	23.35
681.272	23.1
681.459	23.26
681.646	23.21
681.833	23.27
682.02	23.15
682.206	23.19
682.393	23.25
682.58	23.35
682.766	23.36
682.953	23.54
683.14	23.55
683.326	23.75
683.513	23.59
683.7	23.6
683.886	23.47
684.073	23.62
684.259	23.45
684.446	23.19
684.632	22.99
684.819	23
685.005	22.92
685.192	22.74
685.378	22.44
685.565	22.66
685.751	22.53
685.938	22.7
686.124	22.57
686.31	22.6
686.497	22.92
686.683	22.87
686.87	22.84
687.056	22.91
687.242	22.91
687.429	22.66
687.615	22.62
687.801	22.68
687.987	22.39
688.174	22.54
688.36	22.64
688.546	22.8
688.732	22.94
688.918	22.87
689.105	22.77
689.291	22.97
689.477	23.3
689.663	23.35
689.849	23.35
690.035	23.57
690.221	23.49
690.407	23.57
690.593	23.49
690.779	23.42
690.965	23.72
691.151	23.68
691.337	23.62
691.523	23.53
691.709	23.36
691.895	23.56
692.081	23.48
692.267	23.43
692.453	23.54
692.639	23.13
692.825	23.32
693.011	22.73
693.196	22.8
693.382	22.76
693.568	22.79
693.754	22.59
693.94	22.53
694.125	22.64
694.311	22.69
694.497	22.51
694.682	22.81
694.868	22.84
695.054	23.2
695.239	23.27
695.425	23.28
695.611	23.29
695.796	23.52
695.982	23.58
696.168	23.24
696.353	22.93
696.539	22.78
696.724	22.97
696.91	22.9
697.095	22.99
697.281	22.96
697.466	23.06
697.652	23.14
697.837	23.17
698.023	23.11
698.208	23.4
698.393	23.56
698.579	23.62
698.764	23.26
698.949	23.42
699.135	23.27
699.32	23.21
699.505	22.99
699.691	23.06
699.876	23.01
700.061	23.07
700.246	22.95
700.432	22.93
700.617	23.07
700.802	23.56
700.987	23.22
701.172	24
701.358	24.11
701.543	24.18
701.728	24.35
701.913	24.32
702.098	24.4
702.283	24.47
702.468	24.57
702.653	24.31
702.838	24.34
703.023	24.54
703.208	23.84
703.393	23.9
703.578	24.22
703.763	23.86
703.948	23.55
704.133	23.49
704.318	23.74
704.503	23.76
704.688	24.04
704.873	23.82
705.057	23.81
705.242	24.04
705.427	24
705.612	24.09
705.797	24.12
705.981	24.85
706.166	24.7
706.351	24.38
706.536	24.48
706.72	24.32
706.905	24.28
707.09	24.26
707.274	24.27
707.459	24.23
707.644	24.09
707.828	24.07
708.013	23.84
708.197	23.7
708.382	23.86
708.567	24.05
708.751	23.81
708.936	23.67
709.12	23.67
709.305	23.46
709.489	23.67
709.673	23.58
709.858	23.76
710.042	23.7
710.227	23.93
710.411	23.73
710.596	23.66
710.78	23.89
710.964	24.16
711.149	24.42
711.333	24.62
711.517	24.59
711.702	24.62
711.886	24.35
712.07	24.46
712.254	24.65
712.438	25.14
712.623	24.9
712.807	25
712.991	25.03
713.175	24.76
713.359	24.69
713.544	24.87
713.728	24.52
713.912	24.88
714.096	24.74
714.28	24.29
714.464	23.82
714.648	23.72
714.832	23.77
715.016	23.99
715.2	23.93
715.384	23.74
715.568	23.59
715.752	23.78
715.936	23.73
716.12	23.72
716.304	23.97
716.488	23.91
716.671	24.29
716.855	24.26
717.039	24.02
717.223	24.04
717.407	24.23
717.59	23.97
717.774	24.06
717.958	23.89
718.142	23.74
718.325	23.76
718.509	23.84
718.693	23.67
718.877	23.74
719.06	23.64
719.244	23.94
719.428	23.79
719.611	24.1
719.795	24.32
719.978	25.08
720.162	25.44
720.345	25.98
720.529	26.06
720.713	26.11
720.896	26.2
721.08	26.19
721.263	26.37
721.446	26.89
721.63	26.72
721.813	26.64
721.997	26.16
722.18	25.78
722.364	25
722.547	25.08
722.73	24.96
722.914	24.99
723.097	25.15
723.28	25.15
723.464	24.45
723.647	24.52
723.83	24.37
724.013	23.58
724.197	23.45
724.38	24.11
724.563	24.22
724.746	24.51
724.929	24.44
725.112	24.41
725.296	24.11
725.479	23.96
725.662	24
725.845	24.21
726.028	24.49
726.211	24.83
726.394	24.11
726.577	24.05
726.76	24.01
726.943	24.02
727.126	23.76
727.309	23.66
727.492	24.15
727.675	24.24
727.858	23.85
728.041	24.1
728.224	23.95
728.407	24.31
728.589	24.47
728.772	24.4
728.955	24.62
729.138	24.36
729.321	24.19
729.503	24.36
729.686	24.3
729.869	24.35
730.052	24.24
730.234	24.37
730.417	24.31
730.6	24.26
730.782	24.06
730.965	23.64
731.148	24.28
731.33	24.62
731.513	24.35
731.695	24.79
731.878	25.09
732.061	24.91
732.243	24.82
732.426	25.01
732.608	25.18
732.791	25.48
732.973	25.44
733.156	25.6
733.338	25.91
733.52	26.11
733.703	25.49
733.885	25.56
734.068	25.7
734.25	25.72
734.432	25.51
734.615	25.39
734.797	25.43
734.979	25.63
735.162	25.1
735.344	24.45
735.526	24.12
735.708	24.33
735.891	24.58
736.073	24.69
736.255	24.78
736.437	24.75
736.619	24.41
736.802	24.31
736.984	24.52
737.166	24.69
737.348	24.59
737.53	25.11
737.712	24.61
737.894	24.13
738.076	24.42
738.258	24.72
738.44	24.64
738.622	24.67
738.804	25.07
738.986	24.73
739.168	24.09
739.35	24.39
739.532	24.41
739.714	25.41
739.896	25.33
740.078	25.33
740.259	25.15
740.441	25.49
740.623	25.82
740.805	24.94
740.987	25.61
741.168	26.37
741.35	26.58
741.532	26.34
741.714	26
741.895	26.15
742.077	25.51
742.259	25.19
742.44	25.16
742.622	24.82
742.804	25.15
742.985	24.26
743.167	23.75
743.348	24.06
743.53	24.06
743.711	24.11
743.893	23.78
744.075	23.66
744.256	23.93
744.438	23.9
744.619	24.21
744.8	23.88
744.982	23.96
745.163	24.2
745.345	23.82
745.526	24.17
745.707	23.61
745.889	23.89
746.07	24.03
746.252	24.08
746.433	24.15
746.614	24.1
746.795	24.08
746.977	24.6
747.158	24.36
747.339	24.46
747.52	24.7
747.702	25.09
747.883	25.88
748.064	26.31
748.245	26.32
748.426	25.8
748.607	25.8
748.788	25.65
748.97	25.28
749.151	25.5
749.332	25.75
749.513	25.22
749.694	24.8
749.875	24.17
750.056	23.84
750.237	23.38
750.418	23.83
750.599	23.81
750.78	23.74
750.96	23.74
751.141	24.21
751.322	23.85
751.503	23.94
751.684	24.12
751.865	23.68
752.046	23.8
752.226	24.42
752.407	24.54
752.588	25.21
752.769	25.75
752.949	26.35
753.13	27
753.311	27.13
753.492	26.76
753.672	27.11
753.853	27.58
754.034	27.63
754.214	27.74
754.395	27.48
754.575	26.97
754.756	26.87
754.937	26.35
755.117	25.26
755.298	25.62
755.478	26.3
755.659	26.23
755.839	26.22
756.02	26.03
756.2	25.9
756.381	25.84
756.561	25.75
756.741	26.66
756.922	26.87
757.102	27.24
757.283	26.54
757.463	26.16
757.643	26.02
757.823	26.57
758.004	26.67
758.184	26.67
758.364	27.11
758.545	26.77
758.725	25.77
758.905	25.66
759.085	25.42
759.265	25.21
759.446	25.02
759.626	24.98
759.806	24.68
759.986	24.73
760.166	24.15
760.346	23.75
760.526	24.22
760.706	24.69
760.886	24.99
761.066	25.75
761.246	26.14
761.426	25.66
761.606	25.76
761.786	25.71
761.966	25.47
762.146	25.63
762.326	25.68
762.506	25.34
762.686	25.33
762.866	25.02
763.046	24.67
763.225	24.46
763.405	24.72
763.585	24.96
763.765	24.65
763.945	24.57
764.124	24.84
764.304	24.82
764.484	25.12
764.664	25.1
764.843	25.27
765.023	24.8
765.203	24.53
765.382	24.28
765.562	24.36
765.741	24.61
765.921	25.2
766.101	24.78
766.28	24.68
766.46	24.22
766.639	24.27
766.819	24.02
766.998	24.14
767.178	24.57
767.357	25.15
767.537	25.08
767.716	25.7
767.896	25.42
768.075	26.13
768.254	25.94
768.434	26.43
768.613	26.03
768.792	26.21
768.972	26.69
769.151	26.13
769.33	26.26
769.51	26.36
769.689	25.85
769.868	25.13
770.047	24.98
770.226	25.41
770.406	25.64
770.585	26.19
770.764	26.4
770.943	25.88
771.122	26.01
771.301	25.74
771.48	25.5
771.66	25.06
771.839	25.88
772.018	25.7
772.197	25.63
772.376	25.22
772.555	25.69
772.734	25.94
772.913	26.07
773.092	27
773.271	26.42
773.449	26.29
773.628	26.89
773.807	26.61
773.986	26.94
774.165	27.05
774.344	27.56
774.523	26.29
774.701	26.25
774.88	26.22
775.059	25.39
775.238	26.28
775.417	26.03
775.595	25.99
775.774	25.68
775.953	25.8
776.131	26.17
776.31	26.08
776.489	26.04
776.667	25.85
776.846	25.77
777.025	25.88
777.203	25.44
777.382	25.39
777.56	25.47
777.739	26.67
777.917	26.48
778.096	26.81
778.274	26.41
778.453	26.99
778.631	27
778.81	27.69
778.988	28.24
779.166	28.69
779.345	28.44
779.523	27.88
779.702	26.87
779.88	25.96
780.058	25
780.237	25.27
780.415	25.53
780.593	25.14
780.771	25.13
780.95	25.79
781.128	26.12
781.306	26.95
781.484	26.57
781.662	27.06
781.841	28.02
782.019	28.06
782.197	27.8
782.375	27.4
782.553	27.47
782.731	26.66
782.909	25.93
783.087	25.23
783.265	24.64
783.443	24.69
783.621	25.34
783.799	24.31
783.977	24.89
784.155	24.72
784.333	24.53
784.511	25.23
784.689	25.32
784.867	25.47
785.045	24.69
785.223	25.55
785.4	25.97
785.578	25.52
785.756	26.21
785.934	24.91
786.112	25.11
786.289	26.09
786.467	25.19
786.645	25.7
786.823	26.13
787	27.41
787.178	26.58
787.356	26.06
787.533	25.86
787.711	26.45
787.889	27.65
788.066	27.75
788.244	27.27
788.421	27.67
788.599	27.92
788.776	27.25
788.954	27.07
789.131	27.01
789.309	27.88
789.486	28.11
789.664	27.74
789.841	27.46
790.019	26.96
790.196	27.15
790.373	26.57
790.551	26.95
790.728	27.74
790.906	28.16
791.083	27.4
791.26	27.58
791.437	27.77
791.615	27.4
791.792	26.68
791.969	28.49
792.146	29.06
792.324	29.5
792.501	29.62
792.678	29.02
792.855	28.69
793.032	30.63
793.209	29.65
793.387	29.41
793.564	29.41
793.741	29.55
793.918	28.17
794.095	27.16
794.272	27.51
794.449	26.65
794.626	26.87
794.803	27.22
794.98	26.18
795.157	26.68
795.334	25.98
795.511	26.39
795.688	26.4
795.864	25.77
796.041	25.92
796.218	26.09
796.395	25.96
796.572	25.86
796.749	24.67
796.925	25
797.102	26.69
797.279	26.7
797.456	26.25
797.632	26.75
797.809	26.95
797.986	27.77
798.162	26.61
798.339	26.6
798.516	27.34
798.692	28.84
798.869	28.77
799.046	26.76
799.222	26.95
799.399	26.73
799.575	26.95
799.752	28.07
799.928	27.5
800.105	28.72
800.281	28.81
800.458	27.47
800.634	26.41
800.811	26.49
800.987	27.22
801.163	28.39
801.34	28.61
801.516	29.3
801.692	28.31
801.869	28.09
802.045	28.58
802.221	28.63
802.398	29.47
802.574	29.45
802.75	29.76
802.926	29.91
803.103	29.41
803.279	30.24
803.455	29.49
803.631	30.45
803.807	30.73
803.983	29.39
804.16	30.01
804.336	29.2
804.512	28.49
804.688	29.13
804.864	29.31
805.04	29.43
805.216	28.82
805.392	29.85
805.568	30.09
805.744	30.15
805.92	30.41
806.096	30.47
806.272	30.98
806.448	32.72
806.623	31.79
806.799	31.81
806.975	30.51
807.151	31.43
807.327	29.87
807.503	29.37
807.678	29.44
807.854	29.88
808.03	29.27
808.206	29.78
808.381	29.05
808.557	29.38
808.733	29.31
808.908	30.12
809.084	28.72
809.26	28.2
809.435	28.95
809.611	28.71
809.787	28.35
809.962	28.3
810.138	28.66
810.313	27.92
810.489	28.33
810.664	28.38
810.84	28.37
811.015	29.97
811.191	31.36
811.366	30.9
811.542	31.25
811.717	31.7
811.892	32.13
812.068	31.85
812.243	31.22
812.419	30.99
812.594	31.31
812.769	32.2
812.944	31.2
813.12	31.26
813.295	30.57
813.47	29.72
813.645	30.23
813.821	29.32
813.996	28.49
814.171	29.33
814.346	28.2
814.521	27.15
814.697	26.77
814.872	27.06
815.047	26.99
815.222	27.01
815.397	27.56
815.572	27.39
815.747	28.11
815.922	28.9
816.097	29.91
816.272	29.85
816.447	31.19
816.622	31.52
816.797	32.08
816.972	32.36
817.147	31.35
817.322	31.63
817.496	31.59
817.671	32.4
817.846	31.43
818.021	30.27
818.196	30.33
818.371	28.19
818.545	27.98
818.72	27.78
818.895	27.22
819.069	27.53
819.244	27.45
819.419	26.95
819.594	25.89
819.768	26.03
819.943	26.13
820.117	26
820.292	26.74
820.467	26.13
820.641	25.39
820.816	25.26
820.99	25.3
821.165	24.78
821.339	24.82
821.514	24.73
821.688	24.64
821.863	24.33
822.037	24.23
822.212	24.06
822.386	23.9
822.56	23.98
822.735	23.81
822.909	23.94
823.084	24.28
823.258	23.95
823.432	23.98
823.606	23.94
823.781	24.3
823.955	24.52
824.129	24.35
824.303	24.68
824.478	25.03
824.652	25.44
824.826	25.66
825	25.6
825.174	26.02
825.348	25.92
825.523	26.14
825.697	25.89
825.871	25.6
826.045	26.1
826.219	26.27
826.393	26.02
826.567	25.71
826.741	25.79
826.915	25.6
827.089	26.31
827.263	26.62
827.437	26.64
827.611	26.54
827.784	26.8
827.958	26.62
828.132	26.75
828.306	27.39
828.48	27.76
828.654	26.98
828.827	26.69
829.001	25.84
829.175	25.68
829.349	26.26
829.522	27.12
829.696	28.47
829.87	28.56
830.044	29.02
830.217	27.51
830.391	27.43
830.565	28.32
830.738	29.62
830.912	29.47
831.085	30.04
831.259	29.94
831.432	29.74
831.606	28.83
831.779	28.04
831.953	27.41
832.126	27.46
832.3	26.57
832.473	26.68
832.647	26.24
832.82	26.07
832.994	26.57
833.167	25.87
833.34	26.33
833.514	26.67
833.687	26.67
833.86	26.33
834.034	27.11
834.207	27.82
834.38	27.43
834.553	27.86
834.727	27.98
834.9	27.39
835.073	28.22
835.246	27.33
835.419	26.32
835.593	27.42
835.766	27.99
835.939	28.05
836.112	28.65
836.285	28.71
836.458	28.94
836.631	29.55
836.804	29.93
836.977	28.42
837.15	29.15
837.323	29.36
837.496	29.46
837.669	30.16
837.842	29.29
838.015	29.53
838.188	31
838.361	29.74
838.533	28.41
838.706	27.57
838.879	27.51
839.052	27.79
839.225	27.76
839.398	27.95
839.57	27.11
839.743	28.39
839.916	27.13
840.088	26.59
840.261	26.27
840.434	28.35
840.607	29.53
840.779	32.21
840.952	33.43
841.124	33.77
841.297	33.15
841.47	33.62
841.642	31.57
841.815	33.22
841.987	33.53
842.16	34.95
842.332	33.54
842.505	33.8
842.677	33.46
842.85	34.11
843.022	34.98
843.194	37.35
843.367	40.29
843.539	42.71
843.712	40.31
843.884	42.49
844.056	42.06
844.229	44.41
844.401	45.76
844.573	44.32
844.745	42.5
844.918	38.99
845.09	36.05
845.262	32.54
845.434	33.73
845.606	37
845.779	33.03
845.951	32.5
846.123	31.82
846.295	29.77
846.467	30.24
846.639	32.36
846.811	36.73
846.983	35.74
847.155	36.59
847.327	33.13
847.499	30.41
847.671	31.94
847.843	31.25
848.015	31.97
848.187	32.09
848.359	31.59
848.531	28.46
848.703	25.55
848.875	26.24
849.047	24.61
849.218	26.76
849.39	27.88
849.562	28.93
849.734	31.48
849.905	27.51
850.077	29.6
850.249	28.99
850.421	33.1
850.592	35.48
850.764	37.21
850.936	37.07
851.107	39.9
851.279	40.21
851.451	40.94
851.622	40.65
851.794	43.03
851.965	43.74
852.137	42.43
852.308	39.39
852.48	39.94
852.651	37.65
852.823	39.53
852.994	34.74
853.166	33.19
853.337	33.52
853.509	33.21
853.68	34.95
853.851	31.84
854.023	32.8
854.194	32.26
854.365	33.83
854.537	35.84
854.708	37.43
854.879	40.43
855.05	43.14
855.222	42.3
855.393	40.42
855.564	36.26
855.735	34.41
855.906	35.09
856.078	35.3
856.249	35.96
856.42	38.15
856.591	36.33
856.762	37.05
856.933	35.1
857.104	32.12
857.275	35.58
857.446	39.43
857.617	41.84
857.788	42.35
857.959	44.42
858.13	43.23
858.301	43
858.472	42.03
858.643	41.38
858.814	42.08
858.985	44.83
859.155	43.37
859.326	44.43
859.497	46.57
859.668	48.56
859.839	44.98
860.009	44.96
860.18	40.51
860.351	37.81
860.522	34.83
860.692	35.55
860.863	35.73
861.034	37.14
861.204	36.43
861.375	34.28
861.546	34.95
861.716	38.42
861.887	35.14
862.057	36.92
862.228	40.43
862.398	40.73
862.569	40.13
862.739	40.43
862.91	36.65
863.08	34.45
863.251	37.77
863.421	35.94
863.592	36.71
863.762	40.65
863.932	39.33
864.103	39.96
864.273	38.46
864.443	38.77
864.614	35.77
864.784	41.09
864.954	40.76
865.125	44.57
865.295	42.46
865.465	38.55
865.635	39.56
865.805	43.3
865.976	43.62
866.146	50.13
866.316	50.1
866.486	54.21
866.656	54.16
866.826	54.73
866.996	53.09
867.166	55.79
867.336	58.08
867.506	55.72
867.676	53.35
867.846	52.98
868.016	45.94
868.186	45.01
868.356	43.18
868.526	39.79
868.696	37.3
868.866	33.22
869.036	32.3
869.206	34.15
869.376	31.31
869.545	33.26
869.715	30.2
869.885	33.7
870.055	32.41
870.224	35.8
870.394	39
870.564	43.08
870.734	39.74
870.903	38.25
871.073	36.21
871.243	39.14
871.412	40.43
871.582	45.2
871.751	48.03
871.921	50.35
872.091	47.01
872.26	44.99
872.43	43.06
872.599	45.88
872.769	46.53
872.938	46.74
873.108	49.96
873.277	44.89
873.446	41.55
873.616	40.61
873.785	43.22
873.955	42.6
874.124	44.77
874.293	45.18
874.463	45.43
874.632	44.96
874.801	43.8
874.971	40.6
875.14	44.12
875.309	46.15
875.478	44.7
875.647	38.77
875.817	41.47
875.986	38
876.155	38.5
876.324	36.72
876.493	37.1
876.662	36.86
876.831	36.5
877	36.04
877.17	34.27
877.339	34.94
877.508	38.42
877.677	38.01
877.846	42.87
878.015	40.95
878.184	38.73
878.352	37.6
878.521	36.59
878.69	36.54
878.859	34.46
879.028	31.73
879.197	29.43
879.366	28.84
879.534	28.13
879.703	25.1
879.872	25.84
880.041	28.03
880.21	27.34
880.378	28.06
880.547	27.28
880.716	27.98
880.884	27.91
881.053	28.58
881.222	28.76
881.39	28.94
881.559	28.66
881.727	28.95
881.896	28.55
882.065	28.64
882.233	28.92
882.402	29.02
882.57	28.51
882.739	28.44
882.907	29.02
883.076	28.67
883.244	28.12
883.412	28.5
883.581	27.95
883.749	28.41
883.918	28.88
884.086	29.07
884.254	30.68
884.423	32.15
884.591	32.52
884.759	32.56
884.927	33.5
885.096	34.45
885.264	36.56
885.432	37.98
885.6	37.79
885.769	38.52
885.937	39.07
886.105	37.65
886.273	38.03
886.441	40.54
886.609	39.76
886.777	38.27
886.945	38.4
887.113	37.78
887.281	39.63
887.449	44.53
887.617	43.88
887.785	43.32
887.953	44.08
888.121	42.87
888.289	44.5
888.457	45
888.625	47.15
888.793	49.14
888.961	48.16
889.129	47.22
889.296	42.71
889.464	44.01
889.632	45.78
889.8	47.08
889.967	47.67
890.135	45.54
