Data from 2938436_Reflection_1.txt Node
Date: Fri Jun 19 18:36:18 EDT 2015
User: robert
Spectrometer: USB4E03002
Autoset integration time: false
Trigger mode: 4
Integration Time (sec): 1.000000E-1
Scans to average: 10
Electric dark correction enabled: true
Nonlinearity correction enabled: false
Boxcar width: 5
Stray light correction enabled: false
XAxis mode: Wavelengths
Stop averaging: false
Number of Pixels in Spectrum: 3648
>>>>>Begin Spectral Data<<<<<
177.575	697.79
177.794	440.84
178.014	527.63
178.233	-62400
178.452	216.9
178.672	419.35
178.891	81.44
179.11	-337.04
179.33	-611.4
179.549	-84.2
179.768	-4.79
179.987	3678.72
180.207	-159.99
180.426	-184.29
180.645	-59.42
180.864	-126.08
181.084	-21.16
181.303	-27.33
181.522	13.53
181.741	65.26
181.96	-62.6
182.179	-60.85
182.398	-18.32
182.618	7.3
182.837	106.04
183.056	24.76
183.275	24.17
183.494	464.29
183.713	220.72
183.932	27.1
184.151	-9.06
184.37	308.21
184.589	300.14
184.808	303.31
185.027	60.78
185.246	166.3
185.465	-1202.5
185.684	1529.93
185.903	-125.21
186.122	-210.47
186.341	-178.32
186.56	14414.71
186.779	37375
186.998	280.14
187.216	142.8
187.435	409.74
187.654	153.8
187.873	87.26
188.092	51.86
188.311	7.26
188.53	2.6
188.748	-3.62
188.967	20.74
189.186	-6.96
189.405	-90.74
189.623	-97.19
189.842	-7.31
190.061	36.16
190.28	10.72
190.498	-37.6
190.717	73.47
190.936	130.51
191.154	122.38
191.373	121.3
191.592	149.87
191.81	127.44
192.029	137.25
192.248	123.68
192.466	170.35
192.685	124.5
192.904	150.02
193.122	104.01
193.341	63.3
193.559	27.6
193.778	40.94
193.996	38.2
194.215	31.84
194.433	16.05
194.652	2.75
194.87	69.35
195.089	47.76
195.307	45.26
195.526	69.15
195.744	63.65
195.963	77.43
196.181	162.21
196.399	139.33
196.618	201.89
196.836	102.06
197.055	249.49
197.273	845.38
197.491	-544.49
197.71	287.68
197.928	-1633.58
198.146	365.82
198.365	133.95
198.583	139.69
198.801	159.87
199.019	130.71
199.238	162.89
199.456	138.79
199.674	73.65
199.892	108.39
200.111	86.8
200.329	-8.68
200.547	-56.46
200.765	887.16
200.983	-472.6
201.202	-426.71
201.42	-178.92
201.638	-91.38
201.856	-66.65
202.074	-45.88
202.292	-61.76
202.51	-16.52
202.728	49.93
202.946	17.81
203.165	-74.17
203.383	30.45
203.601	19.55
203.819	64.75
204.037	142.63
204.255	-82.21
204.473	89.31
204.691	-190.1
204.909	-541.88
205.127	-25.61
205.345	265.78
205.562	78.12
205.78	83.63
205.998	226.2
206.216	305.23
206.434	-2122.94
206.652	122.7
206.87	153.6
207.088	91.33
207.306	66.64
207.523	141.31
207.741	161.41
207.959	405.69
208.177	96.06
208.395	242.73
208.612	-117.11
208.83	-25.83
209.048	-23.21
209.266	1431.19
209.483	-118.05
209.701	17.38
209.919	79.49
210.136	46.91
210.354	150.5
210.572	170.83
210.79	170.94
211.007	308.05
211.225	413.99
211.442	-1452.94
211.66	430.73
211.878	228.58
212.095	-53.42
212.313	-10.02
212.53	-38.16
212.748	-13.21
212.966	16.68
213.183	15.49
213.401	40.62
213.618	14.15
213.836	11.8
214.053	18.52
214.271	-23.07
214.488	9.77
214.705	9.65
214.923	-1.58
215.14	-28.71
215.358	-10.03
215.575	22.58
215.793	-24.93
216.01	-36.44
216.227	-37.76
216.445	-16.45
216.662	-78.22
216.879	-41.79
217.097	-8.45
217.314	21.25
217.531	35.16
217.749	28.19
217.966	5.61
218.183	39.61
218.4	55.84
218.618	55.62
218.835	68.6
219.052	62.64
219.269	46.61
219.487	44.53
219.704	34.17
219.921	33.67
220.138	9.36
220.355	23.29
220.572	1.96
220.79	3.4
221.007	10.37
221.224	-1.53
221.441	-24.59
221.658	-35.9
221.875	-36.04
222.092	-34.93
222.309	-42.4
222.526	-38.6
222.743	-60.42
222.96	-24.18
223.177	-18.23
223.394	-12.31
223.611	-7.64
223.828	10.04
224.045	7.71
224.262	10.7
224.479	14.53
224.696	12.87
224.913	21.71
225.13	23.87
225.347	25.03
225.564	23.51
225.781	20.52
225.997	21.08
226.214	20.41
226.431	20.72
226.648	21.08
226.865	19.51
227.082	21.52
227.298	19.61
227.515	19.25
227.732	16.36
227.949	16.62
228.165	16.5
228.382	15.47
228.599	15.13
228.816	14.87
229.032	15.22
229.249	14.13
229.466	12.26
229.682	14.25
229.899	15.44
230.116	16.46
230.332	14.98
230.549	13.77
230.765	15.36
230.982	15
231.199	18.16
231.415	17.29
231.632	17.09
231.848	20.76
232.065	20.45
232.281	21.33
232.498	20.43
232.714	21.02
232.931	23.35
233.147	20.06
233.364	21.98
233.58	23.45
233.797	23.8
234.013	24.73
234.23	24.69
234.446	22.28
234.662	22
234.879	22.48
235.095	22.94
235.312	21.84
235.528	22.05
235.744	19.77
235.961	14.14
236.177	12.98
236.393	16.05
236.61	16.42
236.826	10.97
237.042	8.72
237.258	8.01
237.475	9.51
237.691	7.53
237.907	8.86
238.123	9.53
238.339	10.45
238.556	10.19
238.772	7.66
238.988	5.64
239.204	10.7
239.42	11.21
239.636	10.4
239.853	9.82
240.069	11.66
240.285	12.51
240.501	12.26
240.717	13.66
240.933	13.44
241.149	15
241.365	16.53
241.581	16.33
241.797	17.26
242.013	19.09
242.229	18.79
242.445	18.55
242.661	18.75
242.877	18.98
243.093	17.98
243.309	17.39
243.525	18.02
243.741	16
243.957	15.78
244.173	14.79
244.388	14.33
244.604	15.19
244.82	15.84
245.036	16.12
245.252	15.78
245.468	15.66
245.683	15.84
245.899	15.22
246.115	15.55
246.331	15.35
246.547	15.34
246.762	15.38
246.978	15.02
247.194	14.44
247.409	14.15
247.625	14.42
247.841	14.45
248.057	15.14
248.272	15.28
248.488	14.52
248.703	14.24
248.919	14.2
249.135	12.5
249.35	12.61
249.566	12.01
249.782	10.99
249.997	10.79
250.213	11.3
250.428	9.45
250.644	9.78
250.859	11.16
251.075	11.13
251.29	9.97
251.506	11.52
251.721	11.21
251.937	12.46
252.152	12.27
252.368	12.07
252.583	12.93
252.798	13.74
253.014	13.44
253.229	14.29
253.445	13.59
253.66	15.39
253.875	14.86
254.091	16.43
254.306	15.39
254.521	16.16
254.737	15.45
254.952	13.71
255.167	15.06
255.383	14.3
255.598	13.73
255.813	13.3
256.028	13.58
256.244	12.83
256.459	11.84
256.674	12.93
256.889	13.26
257.104	13.52
257.32	13.11
257.535	12.41
257.75	12.36
257.965	12.18
258.18	12.73
258.395	12.62
258.61	12.32
258.826	11.94
259.041	11.4
259.256	11.09
259.471	10.99
259.686	11.28
259.901	11.06
260.116	10.28
260.331	10.13
260.546	9.77
260.761	9.67
260.976	10.65
261.191	11.91
261.406	12.38
261.621	12.04
261.836	11.09
262.05	11.29
262.265	11.44
262.48	12.67
262.695	13.56
262.91	11.81
263.125	11.16
263.34	10.68
263.555	9.35
263.769	8.58
263.984	8.87
264.199	9.96
264.414	9.13
264.629	9.59
264.843	10.23
265.058	9.86
265.273	11.61
265.488	11.93
265.702	11.55
265.917	11.69
266.132	11.61
266.346	10.8
266.561	10.82
266.776	11.31
266.99	10.63
267.205	9.57
267.42	9.02
267.634	8.6
267.849	8.67
268.063	9.58
268.278	9.89
268.492	10.1
268.707	10.79
268.922	10.69
269.136	10.88
269.351	11.21
269.565	12.53
269.78	12.55
269.994	11.98
270.209	11.33
270.423	11.16
270.637	10.85
270.852	11.03
271.066	10.96
271.281	10.92
271.495	10.98
271.709	10.74
271.924	9.83
272.138	9.4
272.353	10.48
272.567	10.63
272.781	10.71
272.996	11.09
273.21	10.61
273.424	11.65
273.638	12.34
273.853	11.75
274.067	13.04
274.281	13.11
274.495	12.73
274.71	12.47
274.924	12.05
275.138	11.12
275.352	11.46
275.566	12.33
275.781	11.43
275.995	11.36
276.209	11.8
276.423	11.44
276.637	11.43
276.851	12.51
277.065	12.6
277.279	13.41
277.493	13.91
277.707	13.59
277.921	12.83
278.135	12.18
278.349	11.23
278.563	11.74
278.777	11.31
278.991	11.08
279.205	11.01
279.419	11.45
279.633	11.91
279.847	11.56
280.061	11.82
280.275	11.71
280.489	13.06
280.703	14.47
280.917	14.81
281.131	14.43
281.344	15.2
281.558	15.64
281.772	15.17
281.986	14.85
282.2	15.04
282.414	14.45
282.627	15
282.841	14.24
283.055	12.94
283.269	12
283.482	11.92
283.696	11.38
283.91	11.37
284.123	11.93
284.337	11.49
284.551	10.97
284.764	11.32
284.978	10.46
285.192	10.36
285.405	10.7
285.619	10.75
285.833	11.4
286.046	11.59
286.26	10.72
286.473	9.8
286.687	10.03
286.9	10.63
287.114	10.66
287.327	11.4
287.541	11.62
287.754	12.03
287.968	12.34
288.181	12.67
288.395	12.6
288.608	13.21
288.822	14.37
289.035	14.76
289.248	14.69
289.462	14.39
289.675	13.86
289.889	13.93
290.102	13.23
290.315	12.97
290.529	12.58
290.742	12.88
290.955	13.36
291.169	12.04
291.382	12.23
291.595	12.76
291.808	12.87
292.022	13.25
292.235	14.26
292.448	14.55
292.661	14.78
292.875	14.33
293.088	13.3
293.301	12.77
293.514	13.43
293.727	13.69
293.94	14.1
294.153	14.47
294.367	13.48
294.58	12.89
294.793	13.24
295.006	13.29
295.219	13.49
295.432	14
295.645	13.97
295.858	13.59
296.071	13.46
296.284	12.92
296.497	13.08
296.71	14.36
296.923	13.87
297.136	13.67
297.349	13.85
297.562	13.28
297.775	13.88
297.988	14.53
298.201	13.95
298.414	13.76
298.626	13.94
298.839	13.84
299.052	13.2
299.265	13.05
299.478	12.84
299.691	13.04
299.903	14.35
300.116	13
300.329	13.09
300.542	14.07
300.755	13.49
300.967	13.09
301.18	12.55
301.393	13.1
301.605	13.85
301.818	14.55
302.031	14.24
302.243	13.37
302.456	13.96
302.669	13.64
302.881	13.52
303.094	14.33
303.307	14.72
303.519	14.8
303.732	14.76
303.944	14.75
304.157	14.42
304.37	14.44
304.582	14.83
304.795	14.69
305.007	14.64
305.22	14.18
305.432	12.85
305.645	12.68
305.857	12.87
306.069	12.66
306.282	12.52
306.494	11.79
306.707	11.52
306.919	11.24
307.132	12
307.344	11.96
307.556	11.22
307.769	11.62
307.981	11.63
308.193	11
308.406	10.66
308.618	10.45
308.83	11.18
309.043	10.86
309.255	11.33
309.467	11.37
309.679	11.64
309.892	12.5
310.104	12.66
310.316	12.42
310.528	12.99
310.74	12.97
310.953	13.49
311.165	13.25
311.377	13.78
311.589	13.83
311.801	13.25
312.013	12.6
312.225	12.25
312.437	12.99
312.649	12.65
312.862	12.82
313.074	13.24
313.286	13.57
313.498	13.57
313.71	13.57
313.922	13.84
314.134	14.04
314.346	14.49
314.558	14.38
314.77	13.53
314.982	14.65
315.193	13.37
315.405	13.06
315.617	12.51
315.829	12.83
316.041	12.25
316.253	11.91
316.465	12.99
316.677	12.96
316.888	14.09
317.1	14.49
317.312	13.81
317.524	14.75
317.736	14.51
317.947	14.35
318.159	14.03
318.371	14.68
318.583	15.06
318.794	13.31
319.006	12.54
319.218	12.28
319.43	12.18
319.641	12.37
319.853	12.64
320.064	14.12
320.276	14.3
320.488	14.8
320.699	14.72
320.911	14.53
321.123	15.95
321.334	16.88
321.546	17
321.757	17.17
321.969	16.96
322.18	16.32
322.392	15.25
322.603	15.09
322.815	14.45
323.026	14.26
323.238	13.66
323.449	13.51
323.661	13.1
323.872	12.26
324.083	11.91
324.295	11.79
324.506	12.17
324.718	12.2
324.929	11.89
325.14	12.49
325.352	13.33
325.563	12.99
325.774	12.23
325.986	11.91
326.197	12.48
326.408	13.04
326.62	14.1
326.831	14.43
327.042	14.68
327.253	15.06
327.464	14.47
327.676	14.07
327.887	15.15
328.098	15.21
328.309	15.45
328.52	15.99
328.732	15.3
328.943	15.12
329.154	15.06
329.365	15.19
329.576	14.9
329.787	15.61
329.998	15.01
330.209	14.63
330.42	15.28
330.631	15.71
330.842	15.5
331.053	15.13
331.264	14.93
331.475	15.96
331.686	14.95
331.897	15.37
332.108	15.82
332.319	14.85
332.53	14.07
332.741	14.23
332.952	14.17
333.163	13.53
333.374	14.14
333.585	14.07
333.795	12.96
334.006	12.98
334.217	12.36
334.428	11.5
334.639	12.43
334.849	12.59
335.06	12.24
335.271	12.89
335.482	13.51
335.692	13.36
335.903	12.86
336.114	12.76
336.325	13.64
336.535	13.32
336.746	13.46
336.957	13.55
337.167	13.63
337.378	13.64
337.589	13.02
337.799	12.15
338.01	12.03
338.22	11.95
338.431	11.97
338.642	11.94
338.852	13.03
339.063	13.31
339.273	13.26
339.484	13.96
339.694	14.12
339.905	14.11
340.115	14.07
340.326	14.15
340.536	13.95
340.746	14
340.957	13.42
341.167	13
341.378	13.04
341.588	12.93
341.799	12.8
342.009	12.51
342.219	12.64
342.43	13.03
342.64	12.43
342.85	12.48
343.061	12.26
343.271	12.72
343.481	13.17
343.691	12.76
343.902	12.17
344.112	11.48
344.322	11.37
344.532	11.08
344.743	11.28
344.953	11.75
345.163	12.39
345.373	13.45
345.583	13.75
345.793	13.28
346.004	13.44
346.214	14.18
346.424	14.52
346.634	15.22
346.844	15.15
347.054	15.17
347.264	14.98
347.474	15.1
347.684	14.47
347.894	14.85
348.104	14.85
348.314	14.95
348.524	14.77
348.734	14.81
348.944	13.91
349.154	14.24
349.364	13.9
349.574	14.25
349.784	13.44
349.994	12.43
350.204	10.77
350.413	10.76
350.623	10.48
350.833	10.62
351.043	10.94
351.253	10.82
351.463	10.62
351.672	10.45
351.882	10.41
352.092	10.86
352.302	11.44
352.511	12.6
352.721	12.58
352.931	12.09
353.141	12.07
353.35	11.91
353.56	12.5
353.77	11.68
353.979	11.85
354.189	11.58
354.399	11.1
354.608	11.57
354.818	10.85
355.027	10.88
355.237	10.73
355.447	10.25
355.656	10
355.866	9.67
356.075	9.71
356.285	9.99
356.494	10.01
356.704	10.63
356.913	10.03
357.123	10.69
357.332	10.58
357.542	10.73
357.751	11.51
357.96	11.09
358.17	11.27
358.379	11.68
358.589	11.39
358.798	11.26
359.007	10.92
359.217	10.79
359.426	10.65
359.635	10.36
359.845	10.41
360.054	10.05
360.263	9.84
360.472	9.4
360.682	9.39
360.891	9.33
361.1	9.33
361.309	9.41
361.519	9.65
361.728	9.38
361.937	9.54
362.146	9.26
362.355	8.86
362.564	9.76
362.774	10.05
362.983	9.87
363.192	10.15
363.401	9.85
363.61	9.31
363.819	9.31
364.028	9.25
364.237	8.96
364.446	9.52
364.655	10.18
364.864	9.91
365.073	10.11
365.282	10.15
365.491	9.9
365.7	9.93
365.909	10.25
366.118	10.06
366.327	10.19
366.536	10.61
366.745	10.41
366.954	10.03
367.162	10.32
367.371	10.59
367.58	10.67
367.789	11.13
367.998	11.73
368.207	11.73
368.415	11.41
368.624	10.8
368.833	10.39
369.042	10.06
369.25	10.46
369.459	10.11
369.668	9.23
369.877	8.91
370.085	8.04
370.294	7.64
370.503	7.2
370.711	7.83
370.92	8.45
371.129	8.44
371.337	8.41
371.546	7.97
371.754	7.78
371.963	7.86
372.171	7.92
372.38	8.09
372.589	8.11
372.797	8.69
373.006	8.71
373.214	8.64
373.423	8.69
373.631	8.72
373.84	8.65
374.048	8.57
374.256	8.47
374.465	8.59
374.673	8.47
374.882	8.46
375.09	8.08
375.298	7.81
375.507	7.57
375.715	7.71
375.923	7.65
376.132	7.44
376.34	7.34
376.548	7.98
376.757	7.97
376.965	8.04
377.173	8.09
377.381	8.15
377.59	7.94
377.798	7.99
378.006	7.81
378.214	8.14
378.423	8.4
378.631	8.13
378.839	7.62
379.047	7.58
379.255	7.51
379.463	7.22
379.671	7.2
379.879	7.44
380.088	7.93
380.296	7.81
380.504	8.05
380.712	7.83
380.92	8.45
381.128	8.47
381.336	8.08
381.544	8.36
381.752	8.18
381.96	8.1
382.168	7.7
382.376	7.21
382.584	7.22
382.791	6.68
382.999	6.71
383.207	6.54
383.415	6.49
383.623	6.62
383.831	6.17
384.039	5.78
384.247	5.6
384.454	5.83
384.662	5.54
384.87	5.79
385.078	5.57
385.285	5.76
385.493	5.42
385.701	5.2
385.909	5.14
386.116	5.11
386.324	5.74
386.532	5.64
386.739	5.45
386.947	5.38
387.155	5.08
387.362	5.4
387.57	5.19
387.778	5.44
387.985	5.57
388.193	5.31
388.4	5.27
388.608	5.03
388.816	5.03
389.023	5.04
389.231	5.22
389.438	4.95
389.646	4.9
389.853	4.92
390.061	4.79
390.268	4.8
390.475	4.9
390.683	5.2
390.89	5.28
391.098	5.41
391.305	5.19
391.512	5.11
391.72	5.31
391.927	5.1
392.135	4.77
392.342	4.63
392.549	4.52
392.756	4.53
392.964	4.25
393.171	4.14
393.378	4.09
393.586	4.23
393.793	4.21
394	4.25
394.207	4.48
394.414	4.47
394.622	4.42
394.829	4.48
395.036	4.39
395.243	4.39
395.45	4.39
395.657	4.31
395.864	4.12
396.072	3.99
396.279	3.86
396.486	3.76
396.693	3.9
396.9	3.89
397.107	3.79
397.314	3.82
397.521	3.72
397.728	3.77
397.935	3.82
398.142	4.01
398.349	4.03
398.556	3.92
398.763	3.75
398.97	3.68
399.177	3.91
399.383	4.14
399.59	4.11
399.797	3.81
400.004	3.74
400.211	3.48
400.418	3.52
400.625	3.62
400.831	3.83
401.038	3.95
401.245	4.07
401.452	3.69
401.658	3.38
401.865	3.48
402.072	3.82
402.279	3.84
402.485	4
402.692	3.8
402.899	3.79
403.105	3.63
403.312	3.57
403.519	3.67
403.725	3.92
403.932	4.12
404.138	4.01
404.345	4.07
404.552	3.96
404.758	3.83
404.965	3.85
405.171	3.72
405.378	3.84
405.584	3.85
405.791	3.92
405.997	3.82
406.204	3.68
406.41	3.74
406.617	3.58
406.823	3.57
407.029	3.68
407.236	3.68
407.442	3.71
407.649	3.6
407.855	3.55
408.061	3.36
408.268	3.32
408.474	3.35
408.68	3.24
408.887	3.47
409.093	3.4
409.299	3.23
409.505	3.27
409.712	3.35
409.918	3.42
410.124	3.48
410.33	3.41
410.537	3.45
410.743	3.43
410.949	3.5
411.155	3.36
411.361	3.51
411.567	3.63
411.773	3.68
411.98	3.65
412.186	3.55
412.392	3.44
412.598	3.43
412.804	3.44
413.01	3.46
413.216	3.53
413.422	3.39
413.628	3.38
413.834	3.45
414.04	3.24
414.246	3.05
414.452	3.21
414.658	3.35
414.864	3.27
415.07	3.1
415.275	2.97
415.481	2.99
415.687	3.01
415.893	2.89
416.099	2.89
416.305	2.92
416.511	3.01
416.716	2.97
416.922	2.82
417.128	3
417.334	3.11
417.539	3.22
417.745	3.17
417.951	3.14
418.157	3.21
418.362	3.27
418.568	3.28
418.774	3.31
418.979	3.33
419.185	3.36
419.391	3.3
419.596	3.27
419.802	3.32
420.008	3.39
420.213	3.43
420.419	3.43
420.624	3.32
420.83	3.33
421.035	3.31
421.241	3.14
421.446	3.14
421.652	3.21
421.857	3.18
422.063	3.11
422.268	3.06
422.474	3.03
422.679	2.96
422.885	3.05
423.09	3.05
423.295	2.99
423.501	3.11
423.706	3.12
423.911	3.02
424.117	3.11
424.322	3
424.527	2.93
424.733	2.97
424.938	3.06
425.143	2.94
425.349	2.97
425.554	3.05
425.759	3.03
425.964	3.03
426.169	3.03
426.375	3.05
426.58	3.09
426.785	3.2
426.99	3.12
427.195	3.15
427.4	3.3
427.605	3.38
427.811	3.38
428.016	3.46
428.221	3.47
428.426	3.32
428.631	3.28
428.836	3.33
429.041	3.35
429.246	3.31
429.451	3.31
429.656	3.26
429.861	3.17
430.066	3.16
430.271	3.06
430.476	2.97
430.681	2.98
430.886	3
431.09	2.94
431.295	2.97
431.5	2.96
431.705	2.96
431.91	2.95
432.115	2.98
432.32	3
432.524	3
432.729	3.03
432.934	3.06
433.139	3.02
433.343	3.12
433.548	3.02
433.753	3.09
433.958	2.98
434.162	2.92
434.367	2.95
434.572	2.9
434.776	2.94
434.981	2.95
435.186	2.95
435.39	2.93
435.595	2.85
435.799	2.95
436.004	3.01
436.209	3.09
436.413	3.21
436.618	3.07
436.822	3.07
437.027	2.99
437.231	2.98
437.436	2.96
437.64	3.04
437.845	3.07
438.049	3.01
438.253	2.92
438.458	2.9
438.662	2.9
438.867	2.92
439.071	2.89
439.275	2.94
439.48	2.95
439.684	2.98
439.888	2.89
440.093	2.83
440.297	2.78
440.501	2.79
440.706	2.74
440.91	2.74
441.114	2.8
441.318	2.79
441.523	2.78
441.727	2.82
441.931	2.76
442.135	2.79
442.339	2.85
442.543	2.84
442.748	2.82
442.952	2.8
443.156	2.69
443.36	2.62
443.564	2.7
443.768	2.71
443.972	2.68
444.176	2.74
444.38	2.8
444.584	2.76
444.788	2.84
444.992	2.93
445.196	2.98
445.4	2.96
445.604	2.96
445.808	2.95
446.012	2.98
446.216	3.04
446.42	3.09
446.624	3.03
446.828	3.15
447.032	3.07
447.235	3.01
447.439	2.96
447.643	3.08
447.847	3.14
448.051	3.09
448.254	3
448.458	2.91
448.662	2.81
448.866	2.88
449.069	2.69
449.273	2.68
449.477	2.62
449.681	2.78
449.884	2.8
450.088	2.8
450.292	2.76
450.495	2.81
450.699	2.9
450.902	2.95
451.106	2.93
451.31	3
451.513	3.02
451.717	3.04
451.92	2.9
452.124	2.87
452.327	2.91
452.531	2.98
452.734	2.95
452.938	2.79
453.141	2.8
453.345	2.69
453.548	2.65
453.752	2.71
453.955	2.77
454.158	2.83
454.362	2.81
454.565	2.72
454.769	2.69
454.972	2.67
455.175	2.71
455.379	2.71
455.582	2.76
455.785	2.81
455.988	2.76
456.192	2.84
456.395	2.79
456.598	2.75
456.801	2.85
457.005	2.84
457.208	2.81
457.411	2.89
457.614	2.85
457.817	2.84
458.021	2.82
458.224	2.75
458.427	2.71
458.63	2.74
458.833	2.75
459.036	2.77
459.239	2.73
459.442	2.77
459.645	2.68
459.848	2.63
460.051	2.71
460.254	2.7
460.457	2.77
460.66	2.74
460.863	2.66
461.066	2.58
461.269	2.52
461.472	2.56
461.675	2.61
461.878	2.71
462.081	2.83
462.284	2.67
462.486	2.69
462.689	2.61
462.892	2.56
463.095	2.67
463.298	2.73
463.5	2.68
463.703	2.81
463.906	2.83
464.109	2.87
464.311	2.86
464.514	2.85
464.717	2.81
464.92	2.89
465.122	2.97
465.325	3
465.528	2.91
465.73	2.86
465.933	2.79
466.135	2.7
466.338	2.59
466.541	2.59
466.743	2.64
466.946	2.72
467.148	2.73
467.351	2.55
467.553	2.6
467.756	2.72
467.958	2.92
468.161	2.84
468.363	2.92
468.566	3.08
468.768	3.06
468.971	3.08
469.173	3
469.375	2.99
469.578	3.11
469.78	2.99
469.983	2.96
470.185	2.75
470.387	2.87
470.59	2.74
470.792	2.55
470.994	2.55
471.196	2.45
471.399	2.5
471.601	2.52
471.803	2.47
472.005	2.44
472.208	2.43
472.41	2.54
472.612	2.47
472.814	2.5
473.016	2.67
473.218	2.63
473.421	2.71
473.623	2.7
473.825	2.59
474.027	2.64
474.229	2.74
474.431	2.73
474.633	2.68
474.835	2.82
475.037	2.88
475.239	2.75
475.441	2.77
475.643	2.79
475.845	2.79
476.047	2.83
476.249	2.84
476.451	2.89
476.653	2.79
476.855	2.79
477.057	2.67
477.258	2.63
477.46	2.61
477.662	2.72
477.864	2.65
478.066	2.68
478.268	2.67
478.469	2.63
478.671	2.52
478.873	2.61
479.075	2.6
479.276	2.6
479.478	2.58
479.68	2.59
479.882	2.49
480.083	2.46
480.285	2.45
480.487	2.5
480.688	2.48
480.89	2.51
481.091	2.48
481.293	2.49
481.495	2.5
481.696	2.51
481.898	2.49
482.099	2.52
482.301	2.57
482.502	2.58
482.704	2.57
482.905	2.61
483.107	2.61
483.308	2.64
483.51	2.66
483.711	2.65
483.913	2.67
484.114	2.72
484.315	2.71
484.517	2.68
484.718	2.65
484.92	2.67
485.121	2.65
485.322	2.64
485.524	2.63
485.725	2.6
485.926	2.61
486.127	2.61
486.329	2.6
486.53	2.62
486.731	2.61
486.932	2.67
487.134	2.66
487.335	2.67
487.536	2.66
487.737	2.65
487.938	2.67
488.139	2.72
488.341	2.71
488.542	2.75
488.743	2.76
488.944	2.78
489.145	2.69
489.346	2.7
489.547	2.7
489.748	2.71
489.949	2.71
490.15	2.7
490.351	2.68
490.552	2.64
490.753	2.62
490.954	2.59
491.155	2.63
491.356	2.66
491.557	2.66
491.758	2.63
491.959	2.63
492.159	2.66
492.36	2.72
492.561	2.71
492.762	2.79
492.963	2.77
493.164	2.76
493.364	2.7
493.565	2.77
493.766	2.77
493.967	2.79
494.167	2.85
494.368	2.87
494.569	2.77
494.769	2.8
494.97	2.8
495.171	2.91
495.371	2.92
495.572	2.97
495.773	2.93
495.973	2.93
496.174	2.92
496.375	2.87
496.575	2.85
496.776	2.88
496.976	2.85
497.177	2.83
497.377	2.76
497.578	2.77
497.778	2.71
497.979	2.68
498.179	2.72
498.38	2.7
498.58	2.67
498.78	2.71
498.981	2.68
499.181	2.69
499.382	2.71
499.582	2.76
499.782	2.79
499.983	2.82
500.183	2.86
500.383	2.86
500.584	2.88
500.784	2.94
500.984	2.86
501.184	2.91
501.385	2.94
501.585	2.94
501.785	2.86
501.985	2.91
502.185	2.87
502.386	2.84
502.586	2.76
502.786	2.78
502.986	2.76
503.186	2.86
503.386	2.86
503.586	2.92
503.786	2.97
503.987	3.07
504.187	3
504.387	3.11
504.587	3.11
504.787	3.24
504.987	3.26
505.187	3.32
505.387	3.27
505.587	3.3
505.786	3.21
505.986	3.15
506.186	3.07
506.386	3.11
506.586	3.08
506.786	3.18
506.986	3.13
507.186	3.15
507.386	3.25
507.585	3.26
507.785	3.32
507.985	3.4
508.185	3.41
508.384	3.4
508.584	3.4
508.784	3.39
508.984	3.32
509.183	3.35
509.383	3.33
509.583	3.3
509.782	3.27
509.982	3.24
510.182	3.22
510.381	3.26
510.581	3.22
510.781	3.27
510.98	3.29
511.18	3.39
511.379	3.43
511.579	3.42
511.778	3.37
511.978	3.36
512.177	3.34
512.377	3.37
512.576	3.33
512.776	3.45
512.975	3.44
513.175	3.47
513.374	3.4
513.573	3.29
513.773	3.31
513.972	3.36
514.172	3.38
514.371	3.46
514.57	3.31
514.77	3.41
514.969	3.41
515.168	3.37
515.367	3.33
515.567	3.35
515.766	3.44
515.965	3.43
516.164	3.4
516.364	3.45
516.563	3.41
516.762	3.47
516.961	3.46
517.16	3.48
517.359	3.46
517.559	3.47
517.758	3.46
517.957	3.49
518.156	3.55
518.355	3.56
518.554	3.53
518.753	3.51
518.952	3.54
519.151	3.58
519.35	3.55
519.549	3.62
519.748	3.62
519.947	3.63
520.146	3.58
520.345	3.67
520.544	3.66
520.743	3.7
520.942	3.82
521.141	3.88
521.339	3.85
521.538	3.83
521.737	3.8
521.936	3.86
522.135	3.93
522.333	3.97
522.532	3.86
522.731	3.94
522.93	3.95
523.129	3.9
523.327	3.87
523.526	3.86
523.725	3.85
523.923	3.9
524.122	3.86
524.321	3.8
524.519	3.82
524.718	3.86
524.917	3.85
525.115	3.84
525.314	3.86
525.512	3.86
525.711	3.87
525.909	3.89
526.108	3.89
526.306	3.91
526.505	3.94
526.703	3.94
526.902	3.92
527.1	3.9
527.299	3.93
527.497	3.94
527.696	3.94
527.894	3.96
528.092	3.97
528.291	4.01
528.489	4.02
528.688	4.05
528.886	4.08
529.084	4.13
529.283	4.22
529.481	4.22
529.679	4.23
529.877	4.29
530.076	4.31
530.274	4.31
530.472	4.29
530.67	4.32
530.869	4.35
531.067	4.36
531.265	4.35
531.463	4.3
531.661	4.25
531.859	4.29
532.057	4.36
532.255	4.36
532.454	4.41
532.652	4.44
532.85	4.46
533.048	4.46
533.246	4.47
533.444	4.54
533.642	4.58
533.84	4.69
534.038	4.7
534.236	4.67
534.434	4.72
534.632	4.71
534.83	4.66
535.027	4.66
535.225	4.66
535.423	4.65
535.621	4.62
535.819	4.62
536.017	4.62
536.215	4.64
536.412	4.72
536.61	4.73
536.808	4.78
537.006	4.79
537.203	4.85
537.401	4.82
537.599	4.83
537.797	4.89
537.994	4.97
538.192	5.01
538.39	4.98
538.587	4.95
538.785	4.9
538.983	4.9
539.18	4.93
539.378	4.93
539.575	5.02
539.773	5.03
539.97	5.06
540.168	5.05
540.366	5.04
540.563	5.05
540.761	5.07
540.958	5.09
541.155	5.1
541.353	5.13
541.55	5.14
541.748	5.12
541.945	5.19
542.143	5.21
542.34	5.21
542.537	5.23
542.735	5.26
542.932	5.23
543.129	5.28
543.327	5.35
543.524	5.37
543.721	5.41
543.919	5.47
544.116	5.38
544.313	5.35
544.51	5.42
544.708	5.41
544.905	5.53
545.102	5.61
545.299	5.63
545.496	5.68
545.693	5.74
545.891	5.8
546.088	5.78
546.285	5.81
546.482	5.89
546.679	5.94
546.876	6.03
547.073	5.98
547.27	6.01
547.467	6.14
547.664	6.1
547.861	6.13
548.058	6.18
548.255	6.28
548.452	6.42
548.649	6.43
548.846	6.41
549.043	6.54
549.24	6.56
549.437	6.61
549.633	6.52
549.83	6.7
550.027	6.56
550.224	6.54
550.421	6.6
550.618	6.64
550.814	6.67
551.011	6.75
551.208	6.6
551.405	6.71
551.601	6.66
551.798	6.72
551.995	6.76
552.191	6.96
552.388	7
552.585	7
552.781	6.95
552.978	6.97
553.175	7.06
553.371	7.2
553.568	7.25
553.764	7.28
553.961	7.38
554.157	7.34
554.354	7.36
554.55	7.41
554.747	7.48
554.943	7.7
555.14	7.82
555.336	7.75
555.533	7.76
555.729	7.83
555.926	7.92
556.122	7.9
556.318	7.83
556.515	7.8
556.711	7.88
556.907	7.94
557.104	7.81
557.3	7.74
557.496	7.84
557.693	7.86
557.889	7.72
558.085	7.74
558.281	7.79
558.478	7.93
558.674	8.01
558.87	8.06
559.066	8.11
559.262	8.23
559.459	8.29
559.655	8.31
559.851	8.39
560.047	8.59
560.243	8.72
560.439	8.8
560.635	8.76
560.831	8.8
561.027	8.89
561.223	8.96
561.419	9.09
561.615	9.13
561.811	9.26
562.007	9.29
562.203	9.33
562.399	9.4
562.595	9.37
562.791	9.42
562.987	9.49
563.183	9.48
563.379	9.51
563.575	9.47
563.771	9.57
563.966	9.58
564.162	9.62
564.358	9.63
564.554	9.65
564.75	9.76
564.945	9.89
565.141	9.96
565.337	10.03
565.533	10.01
565.728	10.06
565.924	10.04
566.12	10.12
566.315	10.19
566.511	10.22
566.707	10.27
566.902	10.31
567.098	10.34
567.293	10.37
567.489	10.39
567.684	10.48
567.88	10.58
568.076	10.63
568.271	10.52
568.467	10.67
568.662	10.79
568.858	10.76
569.053	10.86
569.248	10.91
569.444	10.95
569.639	10.94
569.835	11
570.03	11.01
570.225	11.09
570.421	11.25
570.616	11.25
570.812	11.24
571.007	11.38
571.202	11.36
571.397	11.42
571.593	11.47
571.788	11.56
571.983	11.64
572.178	11.69
572.374	11.79
572.569	11.79
572.764	11.81
572.959	11.93
573.154	11.89
573.35	11.98
573.545	11.96
573.74	11.98
573.935	11.94
574.13	11.97
574.325	11.94
574.52	11.89
574.715	11.94
574.91	12.04
575.105	11.91
575.3	11.93
575.495	11.91
575.69	11.96
575.885	11.96
576.08	11.96
576.275	11.95
576.47	12.09
576.665	12.21
576.86	12.22
577.055	12.17
577.25	12.18
577.444	12.16
577.639	12.23
577.834	12.27
578.029	12.27
578.224	12.44
578.418	12.41
578.613	12.32
578.808	12.41
579.003	12.54
579.197	12.58
579.392	12.67
579.587	12.85
579.781	12.84
579.976	12.84
580.171	12.94
580.365	12.99
580.56	13.09
580.755	13.21
580.949	13.18
581.144	13.14
581.338	13.24
581.533	13.37
581.727	13.31
581.922	13.4
582.116	13.48
582.311	13.43
582.505	13.47
582.7	13.55
582.894	13.66
583.089	13.7
583.283	13.68
583.478	13.7
583.672	13.75
583.866	13.78
584.061	13.69
584.255	13.78
584.449	13.9
584.644	13.9
584.838	13.79
585.032	13.88
585.226	13.91
585.421	13.98
585.615	13.85
585.809	13.83
586.003	13.91
586.198	14.01
586.392	14.04
586.586	14.07
586.78	14.16
586.974	14.31
587.168	14.28
587.363	14.25
587.557	14.33
587.751	14.5
587.945	14.55
588.139	14.55
588.333	14.62
588.527	14.57
588.721	14.64
588.915	14.66
589.109	14.59
589.303	14.55
589.497	14.6
589.691	14.7
589.885	14.67
590.079	14.7
590.273	14.63
590.466	14.61
590.66	14.57
590.854	14.56
591.048	14.46
591.242	14.39
591.436	14.5
591.629	14.42
591.823	14.17
592.017	14.26
592.211	14.24
592.404	14.44
592.598	14.62
592.792	14.78
592.986	14.74
593.179	14.88
593.373	15
593.567	14.96
593.76	15.05
593.954	15.28
594.147	15.3
594.341	15.31
594.535	15.27
594.728	15.09
594.922	15.14
595.115	15.11
595.309	15.06
595.502	15.19
595.696	15.26
595.889	15.24
596.083	15.08
596.276	15.09
596.47	15.11
596.663	15.22
596.856	15.35
597.05	15.32
597.243	15.44
597.437	15.51
597.63	15.52
597.823	15.45
598.017	15.59
598.21	15.57
598.403	15.65
598.596	15.66
598.79	15.59
598.983	15.45
599.176	15.45
599.369	15.47
599.563	15.54
599.756	15.46
599.949	15.49
600.142	15.37
600.335	15.54
600.528	15.49
600.722	15.49
600.915	15.54
601.108	15.61
601.301	15.78
601.494	15.86
601.687	15.81
601.88	15.85
602.073	15.87
602.266	15.92
602.459	15.89
602.652	15.94
602.845	16.07
603.038	16.04
603.231	16.09
603.424	15.98
603.617	16
603.809	16
604.002	16.02
604.195	16.09
604.388	16.18
604.581	16.25
604.774	16.24
604.966	16.23
605.159	16.26
605.352	16.27
605.545	16.27
605.737	16.29
605.93	16.38
606.123	16.39
606.316	16.35
606.508	16.36
606.701	16.41
606.894	16.44
607.086	16.45
607.279	16.45
607.471	16.43
607.664	16.61
607.857	16.55
608.049	16.39
608.242	16.47
608.434	16.5
608.627	16.35
608.819	16.37
609.012	16.39
609.204	16.46
609.397	16.59
609.589	16.62
609.782	16.54
609.974	16.47
610.166	16.57
610.359	16.47
610.551	16.42
610.743	16.69
610.936	16.74
611.128	16.74
611.32	16.54
611.513	16.33
611.705	16.38
611.897	16.4
612.09	16.53
612.282	16.76
612.474	16.93
612.666	17.1
612.858	16.96
613.051	16.7
613.243	16.64
613.435	16.72
613.627	16.66
613.819	16.79
614.011	16.78
614.203	16.79
614.395	16.53
614.588	16.42
614.78	16.38
614.972	16.52
615.164	16.77
615.356	16.93
615.548	16.99
615.74	17.11
615.932	16.88
616.124	17
616.315	17.04
616.507	17.27
616.699	17.23
616.891	17.08
617.083	17.12
617.275	17.04
617.467	17.05
617.659	17.19
617.85	17.29
618.042	17.33
618.234	17.21
618.426	17.19
618.618	17.08
618.809	17.15
619.001	17.3
619.193	17.23
619.384	17.33
619.576	17.19
619.768	17.05
619.959	17.01
620.151	16.99
620.343	17.05
620.534	16.87
620.726	16.78
620.917	16.73
621.109	16.77
621.301	16.76
621.492	16.73
621.684	16.89
621.875	16.84
622.067	17.01
622.258	16.93
622.45	16.87
622.641	17.14
622.832	17.14
623.024	17.32
623.215	17.19
623.407	17.15
623.598	17.18
623.789	17.17
623.981	17.4
624.172	17.25
624.363	17.49
624.555	17.38
624.746	17.45
624.937	17.47
625.129	17.35
625.32	17.42
625.511	17.52
625.702	17.6
625.893	17.57
626.085	17.6
626.276	17.71
626.467	17.73
626.658	17.9
626.849	17.86
627.04	17.95
627.231	18
627.422	18.03
627.614	17.94
627.805	18.05
627.996	18.14
628.187	18.04
628.378	17.96
628.569	17.95
628.76	18.03
628.951	17.96
629.142	18.06
629.332	18.02
629.523	18.11
629.714	18.15
629.905	18
630.096	18.05
630.287	17.98
630.478	17.98
630.669	17.89
630.859	18.01
631.05	17.95
631.241	17.98
631.432	18.09
631.623	18
631.813	17.92
632.004	17.74
632.195	17.58
632.385	17.68
632.576	17.76
632.767	17.74
632.957	17.59
633.148	17.59
633.339	17.52
633.529	17.68
633.72	17.8
633.91	17.99
634.101	18.2
634.292	18.26
634.482	18.4
634.673	18.41
634.863	18.55
635.054	18.46
635.244	18.56
635.435	18.77
635.625	18.66
635.815	18.45
636.006	18.33
636.196	18.2
636.387	18.27
636.577	18.1
636.767	18.14
636.958	18.06
637.148	18.16
637.338	18.26
637.529	17.99
637.719	17.91
637.909	18.12
638.099	18.28
638.29	18.62
638.48	18.59
638.67	18.68
638.86	18.59
639.05	18.47
639.241	18.42
639.431	18.4
639.621	18.44
639.811	18.52
640.001	18.33
640.191	18.16
640.381	17.94
640.571	17.9
640.761	17.95
640.951	17.97
641.141	18.08
641.331	18.24
641.521	18.44
641.711	18.56
641.901	18.64
642.091	18.76
642.281	18.74
642.471	18.81
642.661	18.63
642.851	18.74
643.041	18.78
643.231	18.75
643.42	18.86
643.61	18.66
643.8	18.57
643.99	18.53
644.18	18.38
644.369	18.48
644.559	18.46
644.749	18.51
644.939	18.34
645.128	18.33
645.318	18.55
645.508	18.58
645.697	18.57
645.887	18.62
646.076	18.59
646.266	18.84
646.456	18.84
646.645	19.03
646.835	19.14
647.024	19.41
647.214	19.36
647.403	19.27
647.593	19.2
647.782	19.31
647.972	19.28
648.161	19.35
648.351	19.2
648.54	19.24
648.73	19.27
648.919	19.44
649.108	19.32
649.298	19.63
649.487	19.73
649.677	19.53
649.866	19.52
650.055	19.5
650.244	19.34
650.434	19.49
650.623	19.37
650.812	19.28
651.002	19.23
651.191	19.28
651.38	19.07
651.569	19.02
651.758	19.09
651.947	19
652.137	18.95
652.326	19.3
652.515	19.3
652.704	19.36
652.893	19.33
653.082	19.15
653.271	19.03
653.46	18.97
653.649	18.91
653.838	18.95
654.027	18.84
654.216	18.91
654.405	18.55
654.594	18.57
654.783	18.78
654.972	18.66
655.161	18.9
655.35	18.77
655.539	18.87
655.728	18.93
655.916	18.9
656.105	18.8
656.294	18.89
656.483	19.01
656.672	18.78
656.86	18.88
657.049	18.96
657.238	18.85
657.427	18.86
657.615	18.84
657.804	18.82
657.993	18.92
658.181	19.31
658.37	19.16
658.559	19.16
658.747	19.23
658.936	19.22
659.125	19.13
659.313	19.22
659.502	19.34
659.69	19.32
659.879	19.32
660.067	19.32
660.256	19.1
660.444	19.23
660.633	19.37
660.821	19.51
661.01	19.43
661.198	19.49
661.387	19.63
661.575	19.64
661.763	19.68
661.952	19.91
662.14	19.89
662.328	19.88
662.517	19.96
662.705	19.69
662.893	19.73
663.082	19.66
663.27	19.66
663.458	19.51
663.646	19.58
663.834	19.33
664.023	19.06
664.211	18.97
664.399	19.17
664.587	18.88
664.775	19
664.963	18.87
665.152	18.77
665.34	18.82
665.528	18.71
665.716	18.56
665.904	19.07
666.092	19.14
666.28	19.53
666.468	19.33
666.656	19.78
666.844	19.63
667.032	19.76
667.22	19.92
667.408	19.59
667.596	19.76
667.784	19.99
667.971	19.97
668.159	20.07
668.347	20.13
668.535	20.15
668.723	19.76
668.911	20.07
669.098	20.11
669.286	19.97
669.474	20.32
669.662	20.17
669.849	20.31
670.037	20.22
670.225	20.14
670.413	19.56
670.6	19.73
670.788	19.98
670.976	19.82
671.163	20.03
671.351	19.97
671.538	20.2
671.726	20.27
671.913	19.85
672.101	19.82
672.289	20.11
672.476	20.36
672.664	20.21
672.851	20.27
673.039	20.5
673.226	20.21
673.413	20.53
673.601	20.16
673.788	20.31
673.976	20.35
674.163	20.3
674.35	20.07
674.538	20.28
674.725	20.44
674.912	20.28
675.1	20.2
675.287	20.14
675.474	19.87
675.662	20.09
675.849	20.17
676.036	20.12
676.223	20.25
676.411	20.38
676.598	20.2
676.785	20.23
676.972	20.32
677.159	20.28
677.346	20.45
677.533	20.54
677.721	20.4
677.908	20.12
678.095	20.12
678.282	20.13
678.469	20.08
678.656	20.12
678.843	20.18
679.03	20.15
679.217	20.04
679.404	19.92
679.591	19.98
679.778	20.17
679.964	20.39
680.151	20.63
680.338	20.63
680.525	20.8
680.712	20.65
680.899	20.34
681.086	20.53
681.272	20.56
681.459	20.68
681.646	20.65
681.833	20.61
682.02	20.28
682.206	20.2
682.393	20.31
682.58	20.12
682.766	20.37
682.953	20.57
683.14	20.75
683.326	20.72
683.513	20.69
683.7	20.77
683.886	20.83
684.073	21
684.259	21.05
684.446	20.9
684.632	21.07
684.819	21.09
685.005	21.02
685.192	20.58
685.378	20.85
685.565	20.91
685.751	20.85
685.938	20.94
686.124	20.98
686.31	20.94
686.497	20.9
686.683	20.82
686.87	20.81
687.056	20.98
687.242	21.09
687.429	20.86
687.615	20.85
687.801	20.68
687.987	20.43
688.174	20.45
688.36	20.47
688.546	20.42
688.732	20.48
688.918	20.69
689.105	20.69
689.291	20.64
689.477	20.72
689.663	20.48
689.849	20.76
690.035	20.94
690.221	21.02
690.407	21.09
690.593	21.16
690.779	21.01
690.965	20.89
691.151	20.95
691.337	21.3
691.523	21.45
691.709	21.72
691.895	21.72
692.081	21.62
692.267	21.79
692.453	21.75
692.639	21.86
692.825	21.89
693.011	21.98
693.196	21.69
693.382	21.37
693.568	21.25
693.754	21.27
693.94	21.14
694.125	21.2
694.311	21.15
694.497	20.87
694.682	20.95
694.868	21.09
695.054	20.45
695.239	20.72
695.425	21.04
695.611	20.97
695.796	20.99
695.982	21.09
696.168	21.17
696.353	21.18
696.539	21.28
696.724	21.24
696.91	21.07
697.095	21.41
697.281	21.33
697.466	21.14
697.652	21.42
697.837	21.43
698.023	21.38
698.208	21.57
698.393	21.4
698.579	21.59
698.764	21.5
698.949	21.59
699.135	21.55
699.32	21.57
699.505	21.76
699.691	21.49
699.876	21.53
700.061	21.65
700.246	21.28
700.432	21.26
700.617	21.29
700.802	21.36
700.987	21.17
701.172	21.27
701.358	21.37
701.543	21.27
701.728	21.48
701.913	21.04
702.098	21.17
702.283	21.24
702.468	21.46
702.653	21.27
702.838	21.4
703.023	21.33
703.208	21.24
703.393	21.27
703.578	20.8
703.763	20.71
703.948	21.41
704.133	21.02
704.318	21.01
704.503	20.8
704.688	20.87
704.873	20.63
705.057	21.02
705.242	20.78
705.427	21.02
705.612	21.4
705.797	21.22
705.981	21.26
706.166	21.29
706.351	21.56
706.536	21.95
706.72	22.01
706.905	22.01
707.09	21.95
707.274	22.37
707.459	22.14
707.644	22.21
707.828	22.18
708.013	21.78
708.197	22.28
708.382	22.11
708.567	21.74
708.751	21.67
708.936	21.7
709.12	21.64
709.305	21.58
709.489	21.38
709.673	21.79
709.858	22.14
710.042	22.18
710.227	21.82
710.411	21.77
710.596	21.71
710.78	21.81
710.964	21.83
711.149	22.07
711.333	21.86
711.517	21.8
711.702	21.66
711.886	21.65
712.07	21.95
712.254	21.72
712.438	21.73
712.623	21.63
712.807	21.44
712.991	21.54
713.175	21.52
713.359	21.5
713.544	21.7
713.728	21.51
713.912	21.06
714.096	20.83
714.28	21.1
714.464	21.31
714.648	21.55
714.832	21.86
715.016	21.78
715.2	21.74
715.384	21.64
715.568	21.89
715.752	21.71
715.936	22.03
716.12	21.83
716.304	21.77
716.488	21.7
716.671	21.56
716.855	21.56
717.039	21.47
717.223	21.45
717.407	21.65
717.59	21.62
717.774	22.19
717.958	22.06
718.142	22.31
718.325	22.27
718.509	22.66
718.693	22.83
718.877	22.12
719.06	22.78
719.244	22.96
719.428	23.16
719.611	23.04
719.795	22.6
719.978	22.96
720.162	23.22
720.345	23.01
720.529	22.42
720.713	22.56
720.896	23.28
721.08	22.59
721.263	22.46
721.446	22.52
721.63	22.48
721.813	22.33
721.997	22.37
722.18	22.03
722.364	22.1
722.547	22.16
722.73	22.53
722.914	22.43
723.097	22.57
723.28	21.94
723.464	21.69
723.647	21.87
723.83	21.8
724.013	21.63
724.197	21.83
724.38	22.46
724.563	22.5
724.746	22.14
724.929	21.96
725.112	22.23
725.296	23.29
725.479	23.56
725.662	23.57
725.845	23.77
726.028	23.23
726.211	23.36
726.394	23.42
726.577	23.41
726.76	23.07
726.943	22.9
727.126	22.75
727.309	22.68
727.492	22.68
727.675	22.49
727.858	22.41
728.041	23.13
728.224	23.11
728.407	22.73
728.589	22.89
728.772	23.58
728.955	23.83
729.138	23.47
729.321	23.1
729.503	22.79
729.686	22.77
729.869	22.54
730.052	22.2
730.234	21.99
730.417	22.23
730.6	21.81
730.782	21.33
730.965	21.6
731.148	21.7
731.33	21.78
731.513	22.01
731.695	21.93
731.878	22.31
732.061	22.51
732.243	22.45
732.426	22.18
732.608	22.49
732.791	22.65
732.973	22.46
733.156	22.45
733.338	22.44
733.52	22.4
733.703	22.44
733.885	22.22
734.068	22.33
734.25	22.7
734.432	23.07
734.615	22.69
734.797	22.96
734.979	22.38
735.162	23
735.344	22.73
735.526	22.65
735.708	22.8
735.891	23.16
736.073	22.96
736.255	22.81
736.437	22.53
736.619	22.76
736.802	22.3
736.984	22.8
737.166	21.89
737.348	21.62
737.53	21.08
737.712	20.74
737.894	20.91
738.076	21
738.258	21.12
738.44	20.98
738.622	21.02
738.804	20.75
738.986	21.23
739.168	21.38
739.35	21.72
739.532	21.96
739.714	22.14
739.896	21.76
740.078	21.78
740.259	21.54
740.441	21.84
740.623	21.65
740.805	22
740.987	21.65
741.168	22.07
741.35	21.85
741.532	22.01
741.714	22.78
741.895	22.34
742.077	21.73
742.259	21.89
742.44	21.76
742.622	21.69
742.804	22.2
742.985	21.82
743.167	21.9
743.348	21.85
743.53	22
743.711	21.24
743.893	21.55
744.075	22.36
744.256	22.26
744.438	22.12
744.619	22.52
744.8	21.65
744.982	22.04
745.163	22.3
745.345	22.84
745.526	22.62
745.707	22.63
745.889	22.33
746.07	21.89
746.252	21.81
746.433	21.67
746.614	22.1
746.795	22.62
746.977	21.76
747.158	20.69
747.339	21.18
747.52	21.67
747.702	21.93
747.883	22.4
748.064	22.44
748.245	22.74
748.426	22.99
748.607	23.07
748.788	23.1
748.97	24.1
749.151	25.46
749.332	24.96
749.513	24.62
749.694	23.97
749.875	23.73
750.056	23.16
750.237	22.05
750.418	21.86
750.599	21.51
750.78	21.1
750.96	20.7
751.141	20.43
751.322	20.47
751.503	21.04
751.684	21.88
751.865	22.62
752.046	23.08
752.226	24.42
752.407	24.92
752.588	24.7
752.769	24.87
752.949	25.29
753.13	25.12
753.311	25.34
753.492	25.42
753.672	24.94
753.853	24.43
754.034	24.91
754.214	24.57
754.395	24.29
754.575	24.16
754.756	24.75
754.937	24.89
755.117	25.07
755.298	24.67
755.478	24.05
755.659	24.45
755.839	24.85
756.02	24.45
756.2	24.48
756.381	24.99
756.561	25.33
756.741	25.15
756.922	24.75
757.102	24.31
757.283	24.31
757.463	24.53
757.643	24.11
757.823	23.93
758.004	24.06
758.184	23.72
758.364	23.68
758.545	23.4
758.725	23.18
758.905	23
759.085	23.22
759.265	22.55
759.446	22.49
759.626	23.43
759.806	23.59
759.986	23.53
760.166	24.04
760.346	23.07
760.526	23.53
760.706	23.71
760.886	23.22
761.066	23.52
761.246	24.28
761.426	24.14
761.606	23.35
761.786	23.11
761.966	22.81
762.146	22.73
762.326	22.83
762.506	22.88
762.686	22.71
762.866	23.02
763.046	22.71
763.225	22.6
763.405	22.66
763.585	23.1
763.765	23.18
763.945	23.88
764.124	23.82
764.304	24.24
764.484	24.31
764.664	24.37
764.843	24.55
765.023	24.34
765.203	24.55
765.382	24.82
765.562	24.5
765.741	24.25
765.921	23.32
766.101	23.42
766.28	23.89
766.46	23.28
766.639	23.96
766.819	23.5
766.998	23.71
767.178	23.49
767.357	23.35
767.537	23.18
767.716	23.81
767.896	23.97
768.075	23.7
768.254	23.68
768.434	24.56
768.613	23.72
768.792	23.79
768.972	23.81
769.151	24.04
769.33	23.85
769.51	24.52
769.689	24.06
769.868	24.22
770.047	24.46
770.226	23.61
770.406	23.18
770.585	23.71
770.764	23.56
770.943	24.43
771.122	24.1
771.301	24.55
771.48	24.45
771.66	24.21
771.839	24.23
772.018	24.34
772.197	23.92
772.376	23.69
772.555	23.27
772.734	23.87
772.913	23.25
773.092	24
773.271	23.44
773.449	22.44
773.628	23.03
773.807	23.35
773.986	22.92
774.165	24.25
774.344	25.03
774.523	24.62
774.701	24.65
774.88	24.17
775.059	23.56
775.238	22.69
775.417	23.37
775.595	22.67
775.774	22.66
775.953	23.17
776.131	22.31
776.31	21.66
776.489	22.09
776.667	21.78
776.846	22.13
777.025	21.94
777.203	22.9
777.382	22.39
777.56	22.46
777.739	22.15
777.917	21.73
778.096	22.07
778.274	21.8
778.453	21.67
778.631	21.68
778.81	22.19
778.988	22.1
779.166	21.93
779.345	22.35
779.523	22.03
779.702	22.85
779.88	22.49
780.058	21.98
780.237	22.34
780.415	23.03
780.593	23.75
780.771	23.04
780.95	23.29
781.128	23.83
781.306	23.76
781.484	23.55
781.662	22.79
781.841	23.83
782.019	23.52
782.197	23.23
782.375	22.95
782.553	22.45
782.731	22.92
782.909	22.46
783.087	22.08
783.265	22.35
783.443	22.8
783.621	23.04
783.799	22.03
783.977	22.69
784.155	23.9
784.333	23.87
784.511	24.07
784.689	23.71
784.867	24.2
785.045	24.41
785.223	24.74
785.4	25.23
785.578	24.95
785.756	25.23
785.934	25.04
786.112	24.38
786.289	23.72
786.467	24.63
786.645	24.91
786.823	25.08
787	24.71
787.178	24.25
787.356	24.6
787.533	25.48
787.711	25.73
787.889	25.7
788.066	25.43
788.244	26.07
788.421	25.4
788.599	25.36
788.776	25.51
788.954	26.08
789.131	26.61
789.309	26.8
789.486	27.71
789.664	27.74
789.841	28.43
790.019	28.34
790.196	27.74
790.373	27.89
790.551	27.27
790.728	26.47
790.906	25.86
791.083	24.17
791.26	23.18
791.437	21.07
791.615	21.33
791.792	20.34
791.969	21.73
792.146	22.63
792.324	22.46
792.501	23.67
792.678	23.76
792.855	23.92
793.032	26.1
793.209	26.1
793.387	26.1
793.564	26.02
793.741	26.45
793.918	25.07
794.095	24.81
794.272	24.88
794.449	24.29
794.626	24.44
794.803	25.06
794.98	24.48
795.157	23.79
795.334	23.84
795.511	23.5
795.688	22.51
795.864	22.51
796.041	23.18
796.218	22.58
796.395	23.43
796.572	23.85
796.749	23.95
796.925	23.45
797.102	24.73
797.279	24.86
797.456	24.77
797.632	25.98
797.809	26.26
797.986	25.47
798.162	26.31
798.339	25.43
798.516	25.38
798.692	23.95
798.869	24.07
799.046	24.53
799.222	24.37
799.399	24.63
799.575	24.32
799.752	24.01
799.928	23.41
800.105	22.38
800.281	22.85
800.458	22.78
800.634	23.57
800.811	23.97
800.987	24.64
801.163	25.32
801.34	23.91
801.516	23.58
801.692	24.58
801.869	24.89
802.045	25.77
802.221	24.72
802.398	24.37
802.574	24.19
802.75	24.76
802.926	23.65
803.103	22.85
803.279	24.42
803.455	24.38
803.631	23.36
803.807	23.12
803.983	22.33
804.16	22.77
804.336	23.23
804.512	23.06
804.688	22.33
804.864	21.1
805.04	21.12
805.216	21.05
805.392	21.45
805.568	22.51
805.744	22.17
805.92	22.64
806.096	23.17
806.272	23.94
806.448	24.18
806.623	24.3
806.799	24.07
806.975	25.09
807.151	25.36
807.327	25.05
807.503	24.27
807.678	25.85
807.854	26.01
808.03	25.65
808.206	24.3
808.381	24.4
808.557	25.14
808.733	25.93
808.908	25.73
809.084	25.7
809.26	26.26
809.435	26.95
809.611	26.93
809.787	27.06
809.962	27.27
810.138	27.74
810.313	27.69
810.489	26.11
810.664	26.8
810.84	26.41
811.015	26.27
811.191	25.18
811.366	24.59
811.542	23.05
811.717	23.25
811.892	23.44
812.068	23.27
812.243	23.45
812.419	23.49
812.594	22.12
812.769	22.07
812.944	22.05
813.12	22.71
813.295	23.02
813.47	24.08
813.645	23.65
813.821	21.88
813.996	21.32
814.171	21.52
814.346	21.32
814.521	22.27
814.697	21.23
814.872	21.91
815.047	22.42
815.222	22.25
815.397	20.54
815.572	20.17
815.747	21.02
815.922	21.08
816.097	20.97
816.272	20.78
816.447	22.26
816.622	23.52
816.797	23.67
816.972	23.55
817.147	23.65
817.322	24.96
817.496	24.11
817.671	25.23
817.846	25.06
818.021	25.43
818.196	25.54
818.371	24.35
818.545	24.51
818.72	23.82
818.895	24.94
819.069	25.31
819.244	25.35
819.419	26.5
819.594	25.57
819.768	26.83
819.943	26.55
820.117	26.68
820.292	26.74
820.467	26.37
820.641	26.27
820.816	25.68
820.99	25.19
821.165	25.35
821.339	25.31
821.514	25.53
821.688	25.22
821.863	25.09
822.037	25.29
822.212	25.32
822.386	25.48
822.56	25.24
822.735	25.48
822.909	25.48
823.084	25.19
823.258	25.11
823.432	25
823.606	24.84
823.781	24.94
823.955	24.88
824.129	24.81
824.303	24.74
824.478	25.1
824.652	24.69
824.826	25.33
825	25.76
825.174	26.06
825.348	26.05
825.523	26.47
825.697	26.63
825.871	26.59
826.045	26.17
826.219	26.13
826.393	26.11
826.567	26.05
826.741	25.61
826.915	25.48
827.089	25.34
827.263	25.49
827.437	25.57
827.611	25.71
827.784	25.44
827.958	25.75
828.132	25.58
828.306	25.75
828.48	26.17
828.654	25.97
828.827	25.6
829.001	26.06
829.175	26.11
829.349	26.26
829.522	25.08
829.696	25.55
829.87	25.67
830.044	26.5
830.217	26.12
830.391	25.27
830.565	26.44
830.738	26.66
830.912	25.88
831.085	25.6
831.259	25.42
831.432	26.46
831.606	26.59
831.779	26.6
831.953	26.16
832.126	25.43
832.3	26.01
832.473	25.37
832.647	25.9
832.82	25.81
832.994	25.94
833.167	25.7
833.34	25.66
833.514	25.22
833.687	25.49
833.86	25.08
834.034	25.34
834.207	24.99
834.38	25.03
834.553	24.65
834.727	24.24
834.9	24.64
835.073	24.75
835.246	25.03
835.419	24.72
835.593	24
835.766	24.89
835.939	25.86
836.112	27.09
836.285	27.57
836.458	27.77
836.631	28.79
836.804	28.52
836.977	27.94
837.15	26.95
837.323	28.04
837.496	27.58
837.669	26.92
837.842	25
838.015	23.79
838.188	24.92
838.361	25.45
838.533	26.14
838.706	26.5
838.879	26.85
839.052	27.98
839.225	28.81
839.398	29.84
839.57	31.18
839.743	31.86
839.916	32.14
840.088	28.73
840.261	28.36
840.434	25.94
840.607	26.75
840.779	27.42
840.952	27.43
841.124	25.66
841.297	24.09
841.47	22.05
841.642	21.16
841.815	19.68
841.987	21
842.16	22.03
842.332	24.81
842.505	22.83
842.677	23.81
842.85	26.17
843.022	28.25
843.194	29.04
843.367	29.42
843.539	32.38
843.712	31.6
843.884	28.55
844.056	26.85
844.229	26.31
844.401	25.79
844.573	23.24
844.745	21.65
844.918	20.54
845.09	22.6
845.262	25.25
845.434	26.08
845.606	24.98
845.779	31.42
845.951	33.3
846.123	33.58
846.295	35.44
846.467	34.39
846.639	31.1
846.811	31.44
846.983	29.44
847.155	26.32
847.327	24.41
847.499	26.72
847.671	23.84
847.843	20.12
848.015	19.84
848.187	16.93
848.359	20.72
848.531	23.48
848.703	19.94
848.875	24.85
849.047	25.65
849.218	23.96
849.39	23.63
849.562	25.47
849.734	24.92
849.905	20.9
850.077	21.58
850.249	16.68
850.421	14.62
850.592	18.08
850.764	13.9
850.936	14.68
851.107	18.26
851.279	19.16
851.451	21.32
851.622	26.13
851.794	26.85
851.965	27.47
852.137	30.95
852.308	31.86
852.48	30.67
852.651	31.07
852.823	29.52
852.994	25.22
853.166	27.03
853.337	21.39
853.509	20.62
853.68	20.23
853.851	21.52
854.023	20.99
854.194	23.61
854.365	24.79
854.537	24.95
854.708	25.15
854.879	27.33
855.05	28.76
855.222	33.83
855.393	29.89
855.564	31.17
855.735	30.8
855.906	33.36
856.078	32.16
856.249	31.17
856.42	32.64
856.591	36.88
856.762	36.14
856.933	35.32
857.104	32.68
857.275	37.18
857.446	38.29
857.617	34.95
857.788	33.27
857.959	31.82
858.13	33.53
858.301	33.35
858.472	29.17
858.643	32.42
858.814	30.68
858.985	30.34
859.155	28.71
859.326	24.71
859.497	30.23
859.668	27.49
859.839	28.09
860.009	29.83
860.18	32.36
860.351	31.68
860.522	31.11
860.692	32.99
860.863	32.36
861.034	32.55
861.204	36.5
861.375	33.93
861.546	35.69
861.716	35.67
861.887	37.27
862.057	37.05
862.228	35.99
862.398	32.96
862.569	34.27
862.739	33.39
862.91	31.58
863.08	33.39
863.251	34.1
863.421	33.51
863.592	32
863.762	28.87
863.932	27.33
864.103	27.5
864.273	28.65
864.443	27.07
864.614	30.76
864.784	29.06
864.954	24.25
865.125	22.07
865.295	21.66
865.465	21.58
865.635	21.72
865.805	21.1
865.976	23.53
866.146	27.31
866.316	24.85
866.486	22.2
866.656	23.88
866.826	22.99
866.996	21.72
867.166	25.33
867.336	25.94
867.506	23.88
867.676	23.88
867.846	24.9
868.016	21.83
868.186	23.29
868.356	24.95
868.526	24.68
868.696	28.76
868.866	31.17
869.036	27.2
869.206	26.34
869.376	26.75
869.545	30.6
869.715	30.23
869.885	32.95
870.055	35.24
870.224	33.5
870.394	34.43
870.564	36.29
870.734	38.85
870.903	38.69
871.073	34.19
871.243	32.85
871.412	27.48
871.582	26.55
871.751	22.41
871.921	24.16
872.091	24.76
872.26	22.5
872.43	21.46
872.599	21
872.769	22.91
872.938	28.14
873.108	30.75
873.277	34.84
873.446	34.4
873.616	37.65
873.785	31.24
873.955	30.25
874.124	31.37
874.293	29.87
874.463	29.56
874.632	26.19
874.801	26.17
874.971	25.26
875.14	22
875.309	21.07
875.478	18.01
875.647	22.8
875.817	24.39
875.986	26.22
876.155	28.42
876.324	28.82
876.493	32.67
876.662	35.34
876.831	34.75
877	36.06
877.17	39.41
877.339	41.76
877.508	37.15
877.677	34.47
877.846	35.83
878.015	32.86
878.184	30.76
878.352	31.73
878.521	25.84
878.69	26.11
878.859	27.26
879.028	26.87
879.197	24.95
879.366	24.86
879.534	27.03
879.703	25.67
879.872	27.5
880.041	28.98
880.21	26.91
880.378	27.54
880.547	26.55
880.716	24.88
880.884	25.57
881.053	26.35
881.222	27.02
881.39	26.54
881.559	26.78
881.727	26.29
881.896	26.61
882.065	26.61
882.233	27.7
882.402	27.9
882.57	28.68
882.739	28.71
882.907	28.02
883.076	27.52
883.244	27.78
883.412	27.92
883.581	27.7
883.749	27.3
883.918	27.59
884.086	27.19
884.254	27.68
884.423	27.43
884.591	26.5
884.759	27.72
884.927	28.11
885.096	27.69
885.264	27.19
885.432	26.6
885.6	24.1
885.769	24.07
885.937	23.46
886.105	22.53
886.273	22.25
886.441	22.22
886.609	19.85
886.777	18.5
886.945	18.01
887.113	19.43
887.281	20.43
887.449	25.09
887.617	26.72
887.785	28.47
887.953	27.71
888.121	26.75
888.289	26.6
888.457	29.78
888.625	30.18
888.793	31.92
888.961	29.79
889.129	31.34
889.296	29.6
889.464	28.46
889.632	25.87
889.8	28.11
889.967	30.81
890.135	31.85
