Data from 2938479_Reflection_1.txt Node
Date: Wed Jun 17 01:18:36 EDT 2015
User: robert
Spectrometer: USB4E03002
Autoset integration time: false
Trigger mode: 4
Integration Time (sec): 1.000000E-1
Scans to average: 10
Electric dark correction enabled: true
Nonlinearity correction enabled: false
Boxcar width: 5
Stray light correction enabled: false
XAxis mode: Wavelengths
Stop averaging: false
Number of Pixels in Spectrum: 3648
>>>>>Begin Spectral Data<<<<<
177.575	-135.48
177.794	-161.29
178.014	-114.13
178.233	-134.54
178.452	-25.51
178.672	12.74
178.891	95.11
179.11	-74.31
179.33	-57.65
179.549	-114.47
179.768	-86.43
179.987	-98.78
180.207	-93.28
180.426	-26.66
180.645	2.84
180.864	13.9
181.084	31.59
181.303	48.61
181.522	36.11
181.741	18.23
181.96	29.08
182.179	59.89
182.398	105.24
182.618	125.94
182.837	1412.92
183.056	-24500
183.275	-126.22
183.494	-34.11
183.713	7.97
183.932	3.6
184.151	18.39
184.37	24.83
184.589	45.97
184.808	40.33
185.027	72.83
185.246	94.58
185.465	167.65
185.684	482.8
185.903	-1807.66
186.122	457.95
186.341	478.79
186.56	-259.64
186.779	-1828.79
186.998	12.64
187.216	-172.21
187.435	-132.1
187.654	29.23
187.873	101.89
188.092	174.35
188.311	211.06
188.53	53.75
188.748	-205.38
188.967	-287.5
189.186	219.07
189.405	490.18
189.623	266.02
189.842	198.91
190.061	185.64
190.28	222.61
190.498	257.17
190.717	-717.28
190.936	146.32
191.154	-26.15
191.373	21.43
191.592	-338.22
191.81	298.91
192.029	-33.53
192.248	1364.48
192.466	609.18
192.685	223.67
192.904	216.67
193.122	133.81
193.341	148.03
193.559	300.74
193.778	193.78
193.996	170.03
194.215	159.58
194.433	115.88
194.652	98.75
194.87	78.99
195.089	94.24
195.307	91.56
195.526	98.35
195.744	114.02
195.963	95.38
196.181	94.4
196.399	69.17
196.618	59.76
196.836	84
197.055	114.35
197.273	409.38
197.491	250.49
197.71	97.37
197.928	110.91
198.146	166.64
198.365	5023.68
198.583	61.13
198.801	-27.32
199.019	191.29
199.238	-126.65
199.456	-47.88
199.674	-39.72
199.892	-21.74
200.111	41.27
200.329	-103.07
200.547	-140.78
200.765	-73.77
200.983	25.04
201.202	-42.12
201.42	-372.36
201.638	-179.54
201.856	-47.38
202.074	-28.04
202.292	-18.63
202.51	23.08
202.728	66.18
202.946	51.53
203.165	34.63
203.383	47.75
203.601	58.55
203.819	127
204.037	131.39
204.255	242.51
204.473	796.39
204.691	148.46
204.909	114.51
205.127	93.38
205.345	86.13
205.562	96.14
205.78	117.04
205.998	124.34
206.216	195.19
206.434	62.97
206.652	14.16
206.87	22.78
207.088	17.86
207.306	-54.03
207.523	35.38
207.741	23.09
207.959	-74.12
208.177	-167.88
208.395	-195.37
208.612	-430.02
208.83	-4877.36
209.048	-28.94
209.266	71.96
209.483	130.33
209.701	152.48
209.919	153.73
210.136	129.39
210.354	-1462.3
210.572	580.88
210.79	-259.55
211.007	-168.37
211.225	-313.85
211.442	-261.09
211.66	-335.16
211.878	-348.18
212.095	976.83
212.313	-270.21
212.53	-501.83
212.748	-303.24
212.966	-618.59
213.183	-903.5
213.401	-2279.79
213.618	-975.43
213.836	-506.89
214.053	-677.63
214.271	-1638.61
214.488	-252.23
214.705	-124.05
214.923	-37.2
215.14	6.66
215.358	-24.97
215.575	-31.1
215.793	13.37
216.01	-3.13
216.227	-20.26
216.445	-54.44
216.662	11.68
216.879	-3.08
217.097	-32.12
217.314	11.57
217.531	13.4
217.749	56.65
217.966	47.23
218.183	27.68
218.4	34.31
218.618	29.21
218.835	68.48
219.052	55.67
219.269	83.32
219.487	77.78
219.704	70.78
219.921	58.48
220.138	44.43
220.355	49.03
220.572	42.43
220.79	40.54
221.007	43.07
221.224	35.44
221.441	38.01
221.658	22.23
221.875	14.12
222.092	8.96
222.309	12.92
222.526	12.54
222.743	21.76
222.96	25.18
223.177	25.41
223.394	28.87
223.611	24.7
223.828	25.47
224.045	29.71
224.262	30.06
224.479	26.14
224.696	20.49
224.913	19
225.13	15.38
225.347	16.15
225.564	14.53
225.781	11.16
225.997	10.27
226.214	9.8
226.431	7.51
226.648	6.4
226.865	6.55
227.082	8.37
227.298	8.75
227.515	7.69
227.732	7.2
227.949	7.28
228.165	6.04
228.382	5.08
228.599	3.45
228.816	4.37
229.032	4.83
229.249	5.75
229.466	5.25
229.682	4.35
229.899	5.46
230.116	6.21
230.332	6.86
230.549	10.43
230.765	13.64
230.982	16.54
231.199	17.22
231.415	19.56
231.632	19.34
231.848	20.02
232.065	21.35
232.281	20.2
232.498	17.8
232.714	17.06
232.931	16.82
233.147	14.85
233.364	12.83
233.58	10.99
233.797	12.41
234.013	12.26
234.23	11.92
234.446	12.03
234.662	12.07
234.879	12.97
235.095	11.31
235.312	9.57
235.528	12.92
235.744	13.09
235.961	14.42
236.177	14.04
236.393	12.43
236.61	13.97
236.826	12.13
237.042	13.35
237.258	13.55
237.475	15.5
237.691	14.85
237.907	10.26
238.123	9.82
238.339	8.32
238.556	5.42
238.772	6.49
238.988	5.1
239.204	6.02
239.42	6.1
239.636	6.06
239.853	6.79
240.069	7.64
240.285	8.25
240.501	8.53
240.717	9.19
240.933	9.36
241.149	9.31
241.365	9.65
241.581	9.85
241.797	9.87
242.013	9.94
242.229	9.51
242.445	9.31
242.661	8.96
242.877	9.11
243.093	9.17
243.309	8.74
243.525	9.15
243.741	9.26
243.957	8.49
244.173	8.85
244.388	8.41
244.604	8.08
244.82	7.9
245.036	8.05
245.252	7.84
245.468	7.68
245.683	7.19
245.899	7.06
246.115	6.79
246.331	6.86
246.547	6.44
246.762	6.46
246.978	6.63
247.194	6.56
247.409	6.77
247.625	6.25
247.841	5.79
248.057	6.3
248.272	6.13
248.488	5.7
248.703	5.88
248.919	6.76
249.135	8.22
249.35	7.64
249.566	7.76
249.782	8.21
249.997	8.41
250.213	8.36
250.428	8.13
250.644	7.46
250.859	7.25
251.075	6.71
251.29	6.04
251.506	4.66
251.721	5.72
251.937	6.03
252.152	5.33
252.368	6.12
252.583	6.72
252.798	7.16
253.014	8.87
253.229	9.97
253.445	9.81
253.66	8.81
253.875	9.77
254.091	7.68
254.306	6.7
254.521	6.15
254.737	6.01
254.952	5.29
255.167	5.5
255.383	5.12
255.598	5.11
255.813	5.56
256.028	5.91
256.244	4.69
256.459	5.42
256.674	5.22
256.889	5.43
257.104	5.43
257.32	5.66
257.535	5.63
257.75	5.36
257.965	5.37
258.18	5.51
258.395	5.6
258.61	6.21
258.826	6.02
259.041	6.28
259.256	6.23
259.471	6.16
259.686	6.2
259.901	5.98
260.116	5.32
260.331	4.74
260.546	4.56
260.761	4.56
260.976	3.82
261.191	3.88
261.406	3.33
261.621	3.19
261.836	2.51
262.05	1.87
262.265	2.47
262.48	3.85
262.695	4.43
262.91	4.26
263.125	3.68
263.34	4.09
263.555	3.76
263.769	4.31
263.984	4.77
264.199	4.85
264.414	5.53
264.629	4.92
264.843	5.03
265.058	5.35
265.273	5.35
265.488	5.22
265.702	5.25
265.917	5.24
266.132	4.89
266.346	5.45
266.561	5.74
266.776	5.3
266.99	5.92
267.205	6.14
267.42	6.33
267.634	6.61
267.849	7
268.063	6.6
268.278	6.51
268.492	6.87
268.707	6.17
268.922	5.93
269.136	5.68
269.351	5.51
269.565	5.77
269.78	5.28
269.994	4.56
270.209	4.15
270.423	4.16
270.637	4.27
270.852	4.09
271.066	3.88
271.281	4
271.495	4.47
271.709	4.2
271.924	3.72
272.138	3.81
272.353	4.77
272.567	5.44
272.781	5.57
272.996	5.42
273.21	6.02
273.424	5.96
273.638	6.53
273.853	5.86
274.067	6.02
274.281	5.8
274.495	5.66
274.71	4.73
274.924	4.17
275.138	4.32
275.352	5.29
275.566	4.51
275.781	4.77
275.995	4.49
276.209	4.92
276.423	5.18
276.637	5.47
276.851	5.9
277.065	6.42
277.279	6.57
277.493	6.99
277.707	6.44
277.921	6.03
278.135	5.99
278.349	5.71
278.563	6.06
278.777	5.51
278.991	5.31
279.205	4.37
279.419	4.36
279.633	4.59
279.847	4.1
280.061	3.83
280.275	4.28
280.489	4.21
280.703	4.24
280.917	4.35
281.131	4.25
281.344	3.93
281.558	4.65
281.772	4.69
281.986	5.05
282.2	4.52
282.414	4.68
282.627	4.75
282.841	4.92
283.055	4.84
283.269	4.53
283.482	5.2
283.696	5.31
283.91	5.32
284.123	5.14
284.337	4.64
284.551	4.85
284.764	4.87
284.978	4.83
285.192	4.81
285.405	4.38
285.619	4.33
285.833	3.89
286.046	4.17
286.26	4.13
286.473	4.04
286.687	4.11
286.9	4.39
287.114	4.72
287.327	4.47
287.541	4.59
287.754	5.39
287.968	4.99
288.181	5.26
288.395	5.26
288.608	5.19
288.822	5.43
289.035	5.5
289.248	5.23
289.462	4.79
289.675	4.86
289.889	4.99
290.102	4.62
290.315	5.48
290.529	5.29
290.742	4.83
290.955	4.54
291.169	4.69
291.382	4.51
291.595	5.04
291.808	5
292.022	5.61
292.235	5.24
292.448	5.86
292.661	5.25
292.875	5.27
293.088	5.78
293.301	6.1
293.514	5.93
293.727	6.29
293.94	6.48
294.153	6.63
294.367	6.2
294.58	6.47
294.793	6.13
295.006	6.25
295.219	6.41
295.432	6.49
295.645	6.55
295.858	6.5
296.071	6.21
296.284	5.84
296.497	6.01
296.71	5.89
296.923	5.9
297.136	5.82
297.349	5.68
297.562	5.57
297.775	5.22
297.988	5.46
298.201	5.15
298.414	5.07
298.626	5.3
298.839	4.88
299.052	5.15
299.265	5.17
299.478	6.01
299.691	6.47
299.903	6.23
300.116	5.92
300.329	5.57
300.542	6.19
300.755	6.19
300.967	5.99
301.18	6.32
301.393	6.32
301.605	5.95
301.818	5
302.031	4.99
302.243	5.11
302.456	5.94
302.669	5.72
302.881	5.14
303.094	5.97
303.307	6.16
303.519	5.9
303.732	5.56
303.944	5.38
304.157	5.73
304.37	5.55
304.582	5.61
304.795	5.48
305.007	5.86
305.22	6.22
305.432	5.37
305.645	5.21
305.857	5.5
306.069	5.88
306.282	6.88
306.494	6.78
306.707	6.92
306.919	7.18
307.132	6.99
307.344	6.25
307.556	6.28
307.769	6.27
307.981	6.56
308.193	6.5
308.406	6.42
308.618	5.65
308.83	5.58
309.043	5.37
309.255	5.27
309.467	5.48
309.679	5.99
309.892	6.03
310.104	6.07
310.316	6.11
310.528	5.88
310.74	6.29
310.953	6.48
311.165	6.61
311.377	6.41
311.589	6.17
311.801	6.07
312.013	6.17
312.225	6.23
312.437	6.06
312.649	5.4
312.862	5.52
313.074	5.42
313.286	5.82
313.498	5.68
313.71	5.91
313.922	6.65
314.134	6.44
314.346	6.71
314.558	7.28
314.77	8.17
314.982	8.82
315.193	9.3
315.405	8.95
315.617	8.94
315.829	9.38
316.041	9.36
316.253	8.67
316.465	8.4
316.677	7.94
316.888	7.72
317.1	7.12
317.312	7.31
317.524	6.95
317.736	7.09
317.947	6.85
318.159	6.73
318.371	6.94
318.583	7.87
318.794	8.16
319.006	8.67
319.218	8.2
319.43	8.57
319.641	8.28
319.853	8.49
320.064	8.59
320.276	8.6
320.488	8.42
320.699	8.8
320.911	7.99
321.123	7.88
321.334	7.31
321.546	7.25
321.757	6.88
321.969	6.61
322.18	6.35
322.392	6.65
322.603	6.42
322.815	6.37
323.026	6.38
323.238	6.67
323.449	7.17
323.661	7.58
323.872	7.81
324.083	8.08
324.295	8.26
324.506	8.33
324.718	7.9
324.929	8.14
325.14	8.2
325.352	8.15
325.563	8.13
325.774	7.96
325.986	7.68
326.197	8.13
326.408	8.01
326.62	8.17
326.831	8.63
327.042	8.85
327.253	9.08
327.464	9.27
327.676	9.75
327.887	9.71
328.098	9.67
328.309	10.08
328.52	10.02
328.732	10.04
328.943	9.89
329.154	9.42
329.365	9.06
329.576	9.42
329.787	9.63
329.998	9.37
330.209	9.47
330.42	10.01
330.631	10.13
330.842	9.47
331.053	10.1
331.264	10.21
331.475	10.37
331.686	11.19
331.897	10.4
332.108	10.45
332.319	10.6
332.53	11.02
332.741	10.68
332.952	10.57
333.163	10.86
333.374	10.18
333.585	10.33
333.795	10.55
334.006	9.98
334.217	10.46
334.428	10.54
334.639	10.18
334.849	9.92
335.06	10.04
335.271	10.01
335.482	10.25
335.692	10.59
335.903	10.29
336.114	10.27
336.325	10.46
336.535	10.6
336.746	10.35
336.957	10.41
337.167	10.44
337.378	10.37
337.589	10.37
337.799	9.93
338.01	9.63
338.22	10.05
338.431	10.11
338.642	10.24
338.852	10.34
339.063	10.37
339.273	10.69
339.484	10.99
339.694	10.7
339.905	10.86
340.115	11.33
340.326	11.59
340.536	11.39
340.746	11.5
340.957	11.19
341.167	10.77
341.378	11.13
341.588	10.62
341.799	10.27
342.009	10.21
342.219	10.15
342.43	9.98
342.64	9.8
342.85	9.66
343.061	9.2
343.271	9.47
343.481	9.35
343.691	9.05
343.902	9.15
344.112	9.15
344.322	9.24
344.532	8.96
344.743	8.95
344.953	8.82
345.163	8.86
345.373	9.18
345.583	8.86
345.793	9.01
346.004	8.97
346.214	9.28
346.424	9.26
346.634	9.17
346.844	9.25
347.054	9.6
347.264	9.83
347.474	9.67
347.684	10.09
347.894	10.35
348.104	10.51
348.314	10.5
348.524	9.93
348.734	9.91
348.944	10.01
349.154	10.01
349.364	9.44
349.574	9.66
349.784	9.69
349.994	9.21
350.204	9.13
350.413	8.91
350.623	8.79
350.833	8.98
351.043	8.75
351.253	8.78
351.463	8.82
351.672	8.84
351.882	8.87
352.092	9.14
352.302	9.12
352.511	8.76
352.721	8.94
352.931	8.97
353.141	8.91
353.35	9.22
353.56	9.06
353.77	9.15
353.979	9.28
354.189	9.03
354.399	8.86
354.608	8.7
354.818	9.04
355.027	8.85
355.237	8.83
355.447	8.98
355.656	8.96
355.866	9.1
356.075	8.98
356.285	8.94
356.494	8.91
356.704	8.79
356.913	9.16
357.123	8.81
357.332	8.98
357.542	8.98
357.751	8.81
357.96	8.67
358.17	8.7
358.379	8.43
358.589	8.4
358.798	8.56
359.007	8.63
359.217	8.3
359.426	8.41
359.635	8.41
359.845	8.22
360.054	8.26
360.263	8.34
360.472	8.18
360.682	8.4
360.891	8.49
361.1	8.48
361.309	8.4
361.519	8.78
361.728	8.73
361.937	8.52
362.146	8.73
362.355	8.92
362.564	8.76
362.774	8.98
362.983	9.03
363.192	8.78
363.401	8.6
363.61	8.69
363.819	8.14
364.028	8.2
364.237	8.27
364.446	8.1
364.655	7.91
364.864	8.05
365.073	8.05
365.282	8
365.491	8.24
365.7	8.07
365.909	8.09
366.118	8.31
366.327	8.15
366.536	7.79
366.745	7.93
366.954	8.03
367.162	7.73
367.371	7.74
367.58	7.71
367.789	7.71
367.998	8.04
368.207	7.93
368.415	7.71
368.624	8.05
368.833	8.59
369.042	8.54
369.25	8.38
369.459	8.83
369.668	8.67
369.877	8.71
370.085	8.63
370.294	8.49
370.503	8.49
370.711	8.51
370.92	8.37
371.129	8.34
371.337	8.16
371.546	8.25
371.754	8.02
371.963	8.02
372.171	7.86
372.38	7.66
372.589	7.71
372.797	7.59
373.006	7.62
373.214	7.54
373.423	7.27
373.631	7.62
373.84	7.53
374.048	7.73
374.256	7.65
374.465	7.8
374.673	8.13
374.882	8.18
375.09	8.13
375.298	8.21
375.507	8.15
375.715	8.1
375.923	7.88
376.132	7.88
376.34	7.69
376.548	7.71
376.757	7.56
376.965	7.39
377.173	7.33
377.381	7.43
377.59	7.42
377.798	7.48
378.006	7.46
378.214	7.52
378.423	7.4
378.631	7.31
378.839	7.43
379.047	7.56
379.255	7.41
379.463	7.15
379.671	7.46
379.879	7.37
380.088	7.36
380.296	7.43
380.504	7.27
380.712	7.17
380.92	7.17
381.128	6.98
381.336	6.93
381.544	6.85
381.752	6.94
381.96	6.57
382.168	6.73
382.376	6.86
382.584	6.91
382.791	7.12
382.999	7.52
383.207	7.56
383.415	7.51
383.623	7.52
383.831	7.46
384.039	7.45
384.247	7.42
384.454	7.45
384.662	7.4
384.87	7.23
385.078	7.08
385.285	6.94
385.493	6.88
385.701	7.02
385.909	6.99
386.116	7.13
386.324	7.29
386.532	7.38
386.739	7.17
386.947	7.26
387.155	7.31
387.362	7.53
387.57	7.22
387.778	7.26
387.985	7.26
388.193	7.2
388.4	7.01
388.608	6.59
388.816	6.6
389.023	6.6
389.231	6.45
389.438	6.45
389.646	6.32
389.853	6.65
390.061	6.47
390.268	6.48
390.475	6.56
390.683	6.77
390.89	6.93
391.098	7.01
391.305	7.09
391.512	7.12
391.72	7.21
391.927	7.15
392.135	6.98
392.342	7.12
392.549	6.99
392.756	6.86
392.964	6.73
393.171	6.75
393.378	6.61
393.586	6.4
393.793	6.23
394	6.09
394.207	6.07
394.414	6.23
394.622	6.29
394.829	6.29
395.036	6.42
395.243	6.36
395.45	6.49
395.657	6.71
395.864	6.73
396.072	6.71
396.279	6.88
396.486	6.78
396.693	6.69
396.9	6.58
397.107	6.63
397.314	6.52
397.521	6.73
397.728	6.76
397.935	6.63
398.142	6.64
398.349	6.77
398.556	6.69
398.763	6.85
398.97	6.67
399.177	6.64
399.383	6.82
399.59	6.81
399.797	6.73
400.004	6.55
400.211	6.66
400.418	6.81
400.625	6.77
400.831	6.81
401.038	6.9
401.245	7
401.452	6.93
401.658	6.74
401.865	6.91
402.072	7.04
402.279	7.16
402.485	7.12
402.692	7.1
402.899	7.26
403.105	7.4
403.312	7.27
403.519	7.32
403.725	7.48
403.932	7.62
404.138	7.47
404.345	7.44
404.552	7.35
404.758	7.34
404.965	7.35
405.171	7.31
405.378	7.15
405.584	7.19
405.791	7.26
405.997	7.28
406.204	7.14
406.41	7.19
406.617	7.11
406.823	7.13
407.029	7.16
407.236	7.17
407.442	7.1
407.649	7.25
407.855	7.26
408.061	7.14
408.268	7.01
408.474	7.07
408.68	6.97
408.887	6.9
409.093	7.01
409.299	6.91
409.505	7.02
409.712	7.02
409.918	6.9
410.124	6.96
410.33	6.99
410.537	7.04
410.743	6.98
410.949	7.07
411.155	7.18
411.361	7.16
411.567	6.97
411.773	6.78
411.98	6.77
412.186	6.74
412.392	6.68
412.598	6.52
412.804	6.58
413.01	6.8
413.216	6.78
413.422	6.81
413.628	6.8
413.834	6.9
414.04	6.9
414.246	7.02
414.452	7.04
414.658	7.14
414.864	7.28
415.07	7.33
415.275	7.19
415.481	7.26
415.687	7.25
415.893	7.28
416.099	7.35
416.305	7.42
416.511	7.52
416.716	7.51
416.922	7.56
417.128	7.58
417.334	7.61
417.539	7.58
417.745	7.55
417.951	7.55
418.157	7.51
418.362	7.58
418.568	7.54
418.774	7.49
418.979	7.49
419.185	7.38
419.391	7.33
419.596	7.3
419.802	7.4
420.008	7.46
420.213	8.09
420.419	8.05
420.624	7.99
420.83	7.98
421.035	7.93
421.241	8.06
421.446	8.14
421.652	8.23
421.857	8.27
422.063	8.3
422.268	8.34
422.474	7.7
422.679	7.73
422.885	7.77
423.09	7.81
423.295	7.86
423.501	7.76
423.706	7.74
423.911	7.63
424.117	7.66
424.322	7.65
424.527	7.57
424.733	7.54
424.938	7.48
425.143	7.63
425.349	7.61
425.554	7.5
425.759	7.52
425.964	7.53
426.169	7.66
426.375	7.63
426.58	7.55
426.785	7.52
426.99	7.52
427.195	7.61
427.4	7.43
427.605	7.42
427.811	7.61
428.016	7.63
428.221	7.65
428.426	7.57
428.631	7.55
428.836	7.65
429.041	7.71
429.246	7.78
429.451	7.85
429.656	7.79
429.861	7.95
430.066	7.9
430.271	7.95
430.476	7.99
430.681	8.09
430.886	8.01
431.09	8.01
431.295	8.01
431.5	8.07
431.705	8.11
431.91	8.15
432.115	8.1
432.32	8.07
432.524	8.02
432.729	7.97
432.934	7.88
433.139	7.95
433.343	7.86
433.548	7.84
433.753	7.8
433.958	7.76
434.162	7.9
434.367	7.97
434.572	8.05
434.776	8.09
434.981	8.14
435.186	8.17
435.39	8.18
435.595	8.23
435.799	8.35
436.004	8.42
436.209	8.54
436.413	8.45
436.618	8.41
436.822	8.4
437.027	8.43
437.231	8.41
437.436	8.48
437.64	8.43
437.845	8.33
438.049	8.33
438.253	8.27
438.458	8.22
438.662	8.19
438.867	8.2
439.071	8.23
439.275	8.33
439.48	8.29
439.684	8.27
439.888	8.29
440.093	8.33
440.297	8.37
440.501	8.52
440.706	8.54
440.91	8.59
441.114	8.62
441.318	8.61
441.523	8.49
441.727	8.56
441.931	8.54
442.135	8.6
442.339	8.65
442.543	8.6
442.748	8.5
442.952	8.48
443.156	8.55
443.36	8.5
443.564	8.56
443.768	8.58
443.972	8.65
444.176	8.75
444.38	8.77
444.584	8.88
444.788	8.8
444.992	8.84
445.196	8.93
445.4	8.98
445.604	8.97
445.808	8.91
446.012	8.98
446.216	8.93
446.42	8.94
446.624	8.96
446.828	8.93
447.032	8.98
447.235	8.99
447.439	8.88
447.643	8.76
447.847	8.77
448.051	8.76
448.254	8.67
448.458	8.63
448.662	8.58
448.866	8.6
449.069	8.63
449.273	8.67
449.477	8.59
449.681	8.59
449.884	8.54
450.088	8.52
450.292	8.53
450.495	8.51
450.699	8.55
450.902	8.5
451.106	8.43
451.31	8.27
451.513	8.23
451.717	8.22
451.92	8.14
452.124	8.16
452.327	8.17
452.531	8.27
452.734	8.35
452.938	8.39
453.141	8.42
453.345	8.47
453.548	8.54
453.752	8.55
453.955	8.56
454.158	8.62
454.362	8.6
454.565	8.63
454.769	8.49
454.972	8.41
455.175	8.42
455.379	8.41
455.582	8.43
455.785	8.6
455.988	8.6
456.192	8.62
456.395	8.67
456.598	8.81
456.801	8.87
457.005	9.02
457.208	9.06
457.411	9.09
457.614	9.08
457.817	9.05
458.021	8.92
458.224	8.93
458.427	8.92
458.63	8.88
458.833	8.86
459.036	8.81
459.239	8.79
459.442	8.77
459.645	8.78
459.848	8.78
460.051	8.72
460.254	8.76
460.457	8.82
460.66	8.86
460.863	8.89
461.066	8.82
461.269	8.77
461.472	8.66
461.675	8.66
461.878	8.67
462.081	8.68
462.284	8.68
462.486	8.67
462.689	8.63
462.892	8.5
463.095	8.46
463.298	8.63
463.5	8.78
463.703	8.86
463.906	8.81
464.109	8.68
464.311	8.61
464.514	8.69
464.717	8.73
464.92	8.74
465.122	8.84
465.325	8.89
465.528	8.75
465.73	8.64
465.933	8.62
466.135	8.71
466.338	8.75
466.541	8.81
466.743	8.88
466.946	8.83
467.148	8.72
467.351	8.8
467.553	8.78
467.756	8.93
467.958	8.93
468.161	8.95
468.363	8.87
468.566	8.91
468.768	8.96
468.971	8.83
469.173	8.88
469.375	8.93
469.578	8.83
469.78	8.85
469.983	8.76
470.185	8.85
470.387	8.76
470.59	8.79
470.792	8.73
470.994	8.73
471.196	8.78
471.399	8.78
471.601	8.75
471.803	8.68
472.005	8.75
472.208	8.84
472.41	8.86
472.612	9.03
472.814	9.01
473.016	9.08
473.218	9.13
473.421	9.14
473.623	9.09
473.825	9.17
474.027	9.26
474.229	9.25
474.431	9.19
474.633	9.07
474.835	8.99
475.037	9.03
475.239	8.95
475.441	8.9
475.643	8.89
475.845	9.02
476.047	9.04
476.249	9.13
476.451	9.04
476.653	8.99
476.855	9.07
477.057	9
477.258	9.01
477.46	9
477.662	8.9
477.864	8.82
478.066	8.74
478.268	8.7
478.469	8.64
478.671	8.7
478.873	8.78
479.075	8.73
479.276	8.76
479.478	8.77
479.68	8.85
479.882	8.94
480.083	9.04
480.285	9.07
480.487	9.11
480.688	9.15
480.89	9.19
481.091	9.2
481.293	9.25
481.495	9.28
481.696	9.26
481.898	9.23
482.099	9.23
482.301	9.2
482.502	9.15
482.704	9.11
482.905	9.05
483.107	9.03
483.308	8.97
483.51	8.92
483.711	8.89
483.913	8.91
484.114	8.89
484.315	8.85
484.517	8.81
484.718	8.81
484.92	8.82
485.121	8.89
485.322	8.89
485.524	8.93
485.725	8.97
485.926	8.95
486.127	8.92
486.329	8.94
486.53	8.98
486.731	8.99
486.932	8.99
487.134	8.97
487.335	8.93
487.536	8.86
487.737	8.83
487.938	8.83
488.139	8.85
488.341	8.85
488.542	8.84
488.743	8.83
488.944	8.91
489.145	8.95
489.346	9.02
489.547	9.08
489.748	9.13
489.949	9.15
490.15	9.14
490.351	9.15
490.552	9.12
490.753	9.08
490.954	9.05
491.155	9.04
491.356	9.08
491.557	9.05
491.758	9.05
491.959	9.04
492.159	9.05
492.36	9.03
492.561	9.01
492.762	9.08
492.963	9.19
493.164	9.23
493.364	9.12
493.565	9.07
493.766	9.04
493.967	9.02
494.167	9
494.368	9.05
494.569	9.11
494.769	9.1
494.97	9.13
495.171	9.14
495.371	9.18
495.572	9.28
495.773	9.27
495.973	9.3
496.174	9.33
496.375	9.43
496.575	9.42
496.776	9.38
496.976	9.43
497.177	9.45
497.377	9.44
497.578	9.46
497.778	9.48
497.979	9.55
498.179	9.51
498.38	9.54
498.58	9.54
498.78	9.56
498.981	9.61
499.181	9.71
499.382	9.72
499.582	9.66
499.782	9.56
499.983	9.54
500.183	9.48
500.383	9.64
500.584	9.6
500.784	9.56
500.984	9.53
501.184	9.51
501.385	9.45
501.585	9.44
501.785	9.55
501.985	9.68
502.185	9.75
502.386	9.79
502.586	9.74
502.786	9.69
502.986	9.78
503.186	9.86
503.386	9.81
503.586	9.83
503.786	9.8
503.987	9.78
504.187	9.81
504.387	9.76
504.587	9.78
504.787	9.79
504.987	9.82
505.187	9.87
505.387	9.83
505.587	10
505.786	10.04
505.986	10.12
506.186	10.21
506.386	10.19
506.586	10.29
506.786	10.37
506.986	10.35
507.186	10.43
507.386	10.4
507.585	10.48
507.785	10.48
507.985	10.55
508.185	10.54
508.384	10.55
508.584	10.58
508.784	10.61
508.984	10.6
509.183	10.65
509.383	10.66
509.583	10.74
509.782	10.76
509.982	10.81
510.182	10.85
510.381	10.88
510.581	10.84
510.781	10.83
510.98	10.82
511.18	10.88
511.379	10.85
511.579	10.93
511.778	10.86
511.978	10.82
512.177	10.77
512.377	10.73
512.576	10.79
512.776	10.84
512.975	10.88
513.175	10.86
513.374	10.89
513.573	10.97
513.773	10.88
513.972	10.91
514.172	10.98
514.371	10.93
514.57	10.94
514.77	10.97
514.969	11.05
515.168	11.1
515.367	11.19
515.567	11.22
515.766	11.24
515.965	11.41
516.164	11.53
516.364	11.52
516.563	11.62
516.762	11.6
516.961	11.55
517.16	11.56
517.359	11.55
517.559	11.48
517.758	11.42
517.957	11.42
518.156	11.37
518.355	11.32
518.554	11.34
518.753	11.32
518.952	11.34
519.151	11.3
519.35	11.23
519.549	11.28
519.748	11.38
519.947	11.37
520.146	11.34
520.345	11.38
520.544	11.38
520.743	11.4
520.942	11.45
521.141	11.46
521.339	11.61
521.538	11.65
521.737	11.69
521.936	11.67
522.135	11.73
522.333	11.78
522.532	11.8
522.731	11.91
522.93	11.9
523.129	11.91
523.327	11.96
523.526	11.98
523.725	12.09
523.923	12.08
524.122	12.12
524.321	12.15
524.519	12.12
524.718	12.14
524.917	12.08
525.115	12.15
525.314	12.18
525.512	12.22
525.711	12.23
525.909	12.26
526.108	12.3
526.306	12.32
526.505	12.33
526.703	12.37
526.902	12.39
527.1	12.42
527.299	12.42
527.497	12.4
527.696	12.39
527.894	12.38
528.092	12.33
528.291	12.3
528.489	12.25
528.688	12.27
528.886	12.24
529.084	12.21
529.283	12.21
529.481	12.19
529.679	12.23
529.877	12.27
530.076	12.33
530.274	12.42
530.472	12.53
530.67	12.6
530.869	12.63
531.067	12.7
531.265	12.76
531.463	12.81
531.661	12.85
531.859	12.9
532.057	12.88
532.255	12.85
532.454	12.8
532.652	12.78
532.85	12.81
533.048	12.8
533.246	12.82
533.444	12.8
533.642	12.78
533.84	12.8
534.038	12.76
534.236	12.86
534.434	12.93
534.632	13.05
534.83	13.04
535.027	13.04
535.225	13.08
535.423	13.15
535.621	13.19
535.819	13.24
536.017	13.23
536.215	13.24
536.412	13.21
536.61	13.18
536.808	13.17
537.006	13.12
537.203	13.14
537.401	13.17
537.599	13.19
537.797	13.25
537.994	13.28
538.192	13.34
538.39	13.45
538.587	13.49
538.785	13.57
538.983	13.62
539.18	13.72
539.378	13.74
539.575	13.74
539.773	13.73
539.97	13.75
540.168	13.72
540.366	13.69
540.563	13.65
540.761	13.67
540.958	13.68
541.155	13.63
541.353	13.64
541.55	13.68
541.748	13.7
541.945	13.71
542.143	13.68
542.34	13.73
542.537	13.8
542.735	13.84
542.932	13.85
543.129	13.92
543.327	14.05
543.524	14.13
543.721	14.16
543.919	14.24
544.116	14.32
544.313	14.4
544.51	14.47
544.708	14.55
544.905	14.58
545.102	14.56
545.299	14.54
545.496	14.55
545.693	14.51
545.891	14.52
546.088	14.56
546.285	14.48
546.482	14.51
546.679	14.49
546.876	14.38
547.073	14.4
547.27	14.48
547.467	14.44
547.664	14.41
547.861	14.53
548.058	14.5
548.255	14.52
548.452	14.65
548.649	14.73
548.846	14.78
549.043	15.03
549.24	15.16
549.437	15.23
549.633	15.37
549.83	15.49
550.027	15.53
550.224	15.73
550.421	15.77
550.618	15.89
550.814	15.91
551.011	16.01
551.208	16.03
551.405	16.13
551.601	16.08
551.798	16.04
551.995	16.03
552.191	16.09
552.388	16.11
552.585	16.05
552.781	15.98
552.978	16.05
553.175	16
553.371	16.03
553.568	16.01
553.764	16.16
553.961	16.19
554.157	16.34
554.354	16.37
554.55	16.36
554.747	16.56
554.943	16.65
555.14	16.67
555.336	16.72
555.533	16.67
555.729	16.65
555.926	16.6
556.122	16.66
556.318	16.56
556.515	16.56
556.711	16.72
556.907	16.76
557.104	16.89
557.3	17.08
557.496	17.15
557.693	17.35
557.889	17.4
558.085	17.65
558.281	17.77
558.478	17.83
558.674	17.91
558.87	17.98
559.066	17.95
559.262	17.89
559.459	17.85
559.655	18.06
559.851	18.05
560.047	18.15
560.243	18.03
560.439	18.05
560.635	18.22
560.831	18.22
561.027	18.19
561.223	18.28
561.419	18.39
561.615	18.38
561.811	18.32
562.007	18.45
562.203	18.58
562.399	18.72
562.595	18.92
562.791	18.9
562.987	19
563.183	18.99
563.379	19.11
563.575	19.11
563.771	19.24
563.966	19.37
564.162	19.39
564.358	19.37
564.554	19.5
564.75	19.51
564.945	19.69
565.141	19.78
565.337	19.94
565.533	19.95
565.728	20.02
565.924	20.04
566.12	20.03
566.315	20.05
566.511	20.11
566.707	20.18
566.902	20.21
567.098	20.18
567.293	20.16
567.489	20.24
567.684	20.29
567.88	20.34
568.076	20.39
568.271	20.62
568.467	20.77
568.662	20.86
568.858	20.92
569.053	20.98
569.248	21.04
569.444	21.14
569.639	21.2
569.835	21.26
570.03	21.28
570.225	21.31
570.421	21.32
570.616	21.29
570.812	21.37
571.007	21.34
571.202	21.37
571.397	21.4
571.593	21.54
571.788	21.47
571.983	21.57
572.178	21.73
572.374	21.86
572.569	21.94
572.764	22.09
572.959	22.12
573.154	22.18
573.35	22.3
573.545	22.45
573.74	22.48
573.935	22.7
574.13	22.7
574.325	22.64
574.52	22.62
574.715	22.55
574.91	22.56
575.105	22.55
575.3	22.62
575.495	22.56
575.69	22.5
575.885	22.56
576.08	22.58
576.275	22.69
576.47	22.91
576.665	23.12
576.86	23.27
577.055	23.29
577.25	23.51
577.444	23.61
577.639	23.82
577.834	23.93
578.029	23.82
578.224	23.72
578.418	23.78
578.613	23.71
578.808	23.51
579.003	23.51
579.197	23.64
579.392	23.68
579.587	23.67
579.781	23.65
579.976	23.7
580.171	23.82
580.365	23.89
580.56	23.86
580.755	24.01
580.949	24.23
581.144	24.33
581.338	24.44
581.533	24.46
581.727	24.57
581.922	24.61
582.116	24.63
582.311	24.69
582.505	24.84
582.7	24.96
582.894	25.11
583.089	25.04
583.283	24.97
583.478	24.89
583.672	24.87
583.866	24.88
584.061	24.91
584.255	25.08
584.449	25.17
584.644	25.14
584.838	25.27
585.032	25.28
585.226	25.45
585.421	25.65
585.615	25.83
585.809	25.89
586.003	25.91
586.198	25.95
586.392	25.91
586.586	25.97
586.78	26.17
586.974	26.11
587.168	26.13
587.363	26.16
587.557	26.15
587.751	26.14
587.945	26.18
588.139	26.19
588.333	26.42
588.527	26.58
588.721	26.69
588.915	26.72
589.109	26.7
589.303	26.76
589.497	26.9
589.691	26.9
589.885	27.01
590.079	27.1
590.273	27.16
590.466	27.02
590.66	27.03
590.854	27.01
591.048	27.01
591.242	27.18
591.436	27.16
591.629	27.15
591.823	27.3
592.017	27.2
592.211	27.17
592.404	27.33
592.598	27.46
592.792	27.47
592.986	27.52
593.179	27.55
593.373	27.58
593.567	27.52
593.76	27.5
593.954	27.55
594.147	27.65
594.341	27.74
594.535	27.81
594.728	27.9
594.922	27.88
595.115	27.82
595.309	27.74
595.502	27.76
595.696	27.83
595.889	27.92
596.083	27.91
596.276	27.97
596.47	28.08
596.663	27.98
596.856	27.96
597.05	27.98
597.243	28.07
597.437	28.19
597.63	28.25
597.823	28.25
598.017	28.23
598.21	28.33
598.403	28.25
598.596	28.24
598.79	28.19
598.983	28.2
599.176	28.16
599.369	28.14
599.563	28.19
599.756	28.29
599.949	28.26
600.142	28.14
600.335	28.14
600.528	28.19
600.722	28.12
600.915	28.17
601.108	28.31
601.301	28.48
601.494	28.65
601.687	28.59
601.88	28.6
602.073	28.76
602.266	28.92
602.459	28.87
602.652	28.95
602.845	28.99
603.038	29.04
603.231	29.12
603.424	29.14
603.617	29.1
603.809	29.16
604.002	29.14
604.195	29.09
604.388	29.14
604.581	29.13
604.774	29.12
604.966	29.14
605.159	29.12
605.352	28.99
605.545	29.03
605.737	29.05
605.93	29.16
606.123	29.19
606.316	29.34
606.508	29.34
606.701	29.57
606.894	29.52
607.086	29.57
607.279	29.62
607.471	29.81
607.664	29.78
607.857	29.81
608.049	29.68
608.242	29.65
608.434	29.58
608.627	29.65
608.819	29.55
609.012	29.63
609.204	29.57
609.397	29.73
609.589	29.55
609.782	29.59
609.974	29.6
610.166	29.65
610.359	29.75
610.551	29.73
610.743	29.74
610.936	29.89
611.128	29.95
611.32	30.11
611.513	30.2
611.705	30.31
611.897	30.33
612.09	30.37
612.282	30.48
612.474	30.55
612.666	30.6
612.858	30.61
613.051	30.44
613.243	30.44
613.435	30.3
613.627	30.24
613.819	30.31
614.011	30.34
614.203	30.28
614.395	30.19
614.588	30.09
614.78	30.27
614.972	30.3
615.164	30.34
615.356	30.33
615.548	30.42
615.74	30.48
615.932	30.46
616.124	30.52
616.315	30.51
616.507	30.5
616.699	30.71
616.891	30.76
617.083	30.71
617.275	30.79
617.467	30.76
617.659	30.84
617.85	30.82
618.042	30.67
618.234	30.82
618.426	30.95
618.618	30.9
618.809	30.78
619.001	30.61
619.193	30.57
619.384	30.64
619.576	30.7
619.768	30.51
619.959	30.62
620.151	30.67
620.343	30.45
620.534	30.36
620.726	30.74
620.917	30.77
621.109	30.85
621.301	30.92
621.492	30.83
621.684	31.02
621.875	31.29
622.067	31.14
622.258	31.17
622.45	31.23
622.641	31.32
622.832	31.25
623.024	31.28
623.215	31.2
623.407	31.28
623.598	31.49
623.789	31.52
623.981	31.49
624.172	31.65
624.363	31.66
624.555	31.72
624.746	31.75
624.937	31.81
625.129	31.74
625.32	31.89
625.511	31.84
625.702	31.68
625.893	31.59
626.085	31.57
626.276	31.47
626.467	31.5
626.658	31.5
626.849	31.48
627.04	31.44
627.231	31.48
627.422	31.39
627.614	31.43
627.805	31.46
627.996	31.5
628.187	31.46
628.378	31.55
628.569	31.64
628.76	31.77
628.951	31.74
629.142	31.63
629.332	31.71
629.523	31.75
629.714	31.84
629.905	31.74
630.096	31.65
630.287	31.74
630.478	31.76
630.669	31.7
630.859	31.69
631.05	31.77
631.241	31.82
631.432	31.85
631.623	31.75
631.813	31.7
632.004	31.91
632.195	32.12
632.385	32.25
632.576	32.19
632.767	32.2
632.957	32.1
633.148	32.16
633.339	32.26
633.529	32.09
633.72	32.44
633.91	32.48
634.101	32.6
634.292	32.61
634.482	32.53
634.673	32.65
634.863	32.66
635.054	32.73
635.244	32.83
635.435	32.8
635.625	32.99
635.815	32.69
636.006	32.72
636.196	32.53
636.387	32.5
636.577	32.66
636.767	32.62
636.958	32.64
637.148	32.49
637.338	32.44
637.529	32.43
637.719	32.35
637.909	32.6
638.099	32.66
638.29	32.58
638.48	32.44
638.67	32.31
638.86	32.2
639.05	32.36
639.241	32.63
639.431	32.75
639.621	32.73
639.811	32.88
640.001	32.99
640.191	33.16
640.381	33.28
640.571	33.37
640.761	33.31
640.951	33.31
641.141	33.26
641.331	33.15
641.521	33.03
641.711	32.98
641.901	32.85
642.091	32.54
642.281	32.19
642.471	32.12
642.661	31.99
642.851	31.98
643.041	32.23
643.231	32.12
643.42	32.24
643.61	32.2
643.8	32.36
643.99	32.53
644.18	32.76
644.369	32.89
644.559	32.8
644.749	32.88
644.939	32.87
645.128	32.79
645.318	32.89
645.508	32.81
645.697	32.76
645.887	32.74
646.076	32.57
646.266	32.4
646.456	32.39
646.645	32.82
646.835	33.04
647.024	33.31
647.214	33.49
647.403	33.58
647.593	33.54
647.782	33.52
647.972	33.45
648.161	33.81
648.351	33.79
648.54	33.96
648.73	33.65
648.919	33.69
649.108	33.66
649.298	33.4
649.487	33.52
649.677	33.74
649.866	33.85
650.055	34.06
650.244	33.89
650.434	33.98
650.623	33.76
650.812	33.82
651.002	33.69
651.191	33.7
651.38	33.93
651.569	33.77
651.758	33.74
651.947	33.87
652.137	33.86
652.326	33.67
652.515	33.7
652.704	33.99
652.893	34.27
653.082	34.31
653.271	34.22
653.46	34.14
653.649	34.17
653.838	34.2
654.027	34.13
654.216	34
654.405	34.25
654.594	34.29
654.783	34.11
654.972	33.89
655.161	34.03
655.35	34.07
655.539	34.1
655.728	34.07
655.916	34
656.105	34.21
656.294	34.05
656.483	33.95
656.672	34.07
656.86	34.2
657.049	34.44
657.238	34.56
657.427	34.71
657.615	34.62
657.804	34.76
657.993	34.79
658.181	34.62
658.37	34.82
658.559	34.98
658.747	34.78
658.936	34.66
659.125	33.93
659.313	33.66
659.502	33.5
659.69	33.59
659.879	33.52
660.067	33.43
660.256	33.46
660.444	33.27
660.633	33.03
660.821	33.1
661.01	33.24
661.198	33.95
661.387	33.91
661.575	33.9
661.763	33.93
661.952	33.85
662.14	33.74
662.328	33.77
662.517	34.05
662.705	34.05
662.893	34.15
663.082	34.24
663.27	34.32
663.458	34.52
663.646	34.43
663.834	34.67
664.023	34.97
664.211	35.12
664.399	35.13
664.587	34.96
664.775	35.12
664.963	35.31
665.152	35.18
665.34	35.19
665.528	35.25
665.716	35.45
665.904	35.19
666.092	35.15
666.28	35.11
666.468	35.41
666.656	35.53
666.844	35.69
667.032	35.62
667.22	35.66
667.408	35.37
667.596	35.13
667.784	35
667.971	35.02
668.159	34.82
668.347	34.85
668.535	34.44
668.723	34.29
668.911	34.21
669.098	33.82
669.286	33.74
669.474	33.79
669.662	34.08
669.849	34.3
670.037	34.13
670.225	33.94
670.413	33.81
670.6	34.06
670.788	34.5
670.976	34.15
671.163	34.63
671.351	34.52
671.538	34.75
671.726	34.63
671.913	34.6
672.101	34.77
672.289	34.81
672.476	35.11
672.664	35.2
672.851	34.88
673.039	34.88
673.226	34.64
673.413	34.73
673.601	34.56
673.788	34.73
673.976	34.65
674.163	34.77
674.35	35.14
674.538	35.21
674.725	35.06
674.912	35.02
675.1	35.58
675.287	35.78
675.474	35.97
675.662	36.17
675.849	36.08
676.036	35.89
676.223	36.12
676.411	35.87
676.598	35.88
676.785	35.88
676.972	35.95
677.159	35.85
677.346	35.94
677.533	35.93
677.721	35.9
677.908	36.04
678.095	36.1
678.282	36.08
678.469	36.15
678.656	35.85
678.843	35.87
679.03	35.95
679.217	35.78
679.404	35.47
679.591	35.43
679.778	35.57
679.964	35.63
680.151	35.64
680.338	35.36
680.525	35.37
680.712	35.47
680.899	35.58
681.086	35.68
681.272	35.75
681.459	35.85
681.646	35.64
681.833	35.69
682.02	35.38
682.206	35.38
682.393	35.32
682.58	35.33
682.766	35.44
682.953	35.32
683.14	35.01
683.326	35.21
683.513	35.34
683.7	35.7
683.886	35.46
684.073	35.62
684.259	35.61
684.446	35.67
684.632	35.77
684.819	35.64
685.005	35.64
685.192	35.84
685.378	35.68
685.565	35.81
685.751	35.73
685.938	35.64
686.124	35.77
686.31	35.77
686.497	35.83
686.683	35.72
686.87	35.85
687.056	35.58
687.242	35.4
687.429	35.56
687.615	35.42
687.801	35.35
687.987	35.6
688.174	35.41
688.36	35.58
688.546	35.56
688.732	35.73
688.918	35.42
689.105	35.51
689.291	35.68
689.477	35.41
689.663	35.56
689.849	35.93
690.035	35.99
690.221	36.22
690.407	36.19
690.593	36.18
690.779	36.09
690.965	36.37
691.151	36.69
691.337	36.7
691.523	36.79
691.709	36.54
691.895	36.32
692.081	36.17
692.267	36.02
692.453	35.95
692.639	35.7
692.825	35.69
693.011	35.77
693.196	35.65
693.382	35.78
693.568	35.98
693.754	36.17
693.94	35.91
694.125	35.76
694.311	35.85
694.497	36.01
694.682	36.27
694.868	36.49
695.054	36.39
695.239	36.26
695.425	36.07
695.611	35.96
695.796	35.79
695.982	35.72
696.168	35.95
696.353	35.89
696.539	36.1
696.724	36.07
696.91	35.76
697.095	35.75
697.281	35.84
697.466	35.95
697.652	35.89
697.837	36.11
698.023	36.19
698.208	36.03
698.393	36.05
698.579	35.72
698.764	35.67
698.949	35.7
699.135	35.77
699.32	35.94
699.505	35.81
699.691	35.68
699.876	35.51
700.061	35.6
700.246	35.79
700.432	35.62
700.617	35.54
700.802	35.51
700.987	35.39
701.172	35.33
701.358	35.23
701.543	35.32
701.728	35.61
701.913	35.62
702.098	35.59
702.283	34.95
702.468	35.28
702.653	35.15
702.838	35.2
703.023	35.3
703.208	35.16
703.393	34.9
703.578	35.14
703.763	34.91
703.948	35.1
704.133	34.81
704.318	35.21
704.503	34.87
704.688	35.49
704.873	35.67
705.057	35.82
705.242	36
705.427	36.21
705.612	36.1
705.797	36.27
705.981	35.94
706.166	36.3
706.351	36.3
706.536	36.67
706.72	36.48
706.905	36.39
707.09	36.49
707.274	36.61
707.459	36.58
707.644	36.23
707.828	36.53
708.013	36.44
708.197	36.46
708.382	36.61
708.567	36.43
708.751	36.32
708.936	36.31
709.12	36.04
709.305	35.88
709.489	35.76
709.673	36.13
709.858	35.68
710.042	35.85
710.227	36.12
710.411	36.51
710.596	36.72
710.78	36.63
710.964	36.75
711.149	36.77
711.333	37.15
711.517	37.15
711.702	37.01
711.886	37.05
712.07	37.13
712.254	36.71
712.438	36.2
712.623	36.01
712.807	36.43
712.991	36.05
713.175	36.4
713.359	36.16
713.544	36.19
713.728	36.1
713.912	36.24
714.096	36.13
714.28	36.24
714.464	36.55
714.648	36.58
714.832	36.52
715.016	37.24
715.2	36.88
715.384	36.87
715.568	36.85
715.752	36.99
715.936	37.19
716.12	37.07
716.304	36.9
716.488	36.38
716.671	36.26
716.855	36.36
717.039	35.85
717.223	35.89
717.407	35.8
717.59	35.72
717.774	35.64
717.958	35.68
718.142	35.69
718.325	35.88
718.509	36.2
718.693	36.05
718.877	35.58
719.06	35.87
719.244	35.9
719.428	36.05
719.611	36.11
719.795	36.47
719.978	36.06
720.162	36.12
720.345	36.26
720.529	36.44
720.713	36.44
720.896	36.71
721.08	36.26
721.263	36.11
721.446	35.89
721.63	35.85
721.813	35.41
721.997	35.31
722.18	35.74
722.364	35.89
722.547	35.66
722.73	35.79
722.914	35.25
723.097	35.39
723.28	35.71
723.464	35.64
723.647	35.75
723.83	35.68
724.013	36.03
724.197	35.93
724.38	35.34
724.563	35.63
724.746	35.45
724.929	36.01
725.112	35.78
725.296	35.73
725.479	35.72
725.662	36
725.845	35.88
726.028	35.92
726.211	35.67
726.394	35.94
726.577	36.08
726.76	36.33
726.943	36.34
727.126	36.29
727.309	36.53
727.492	36.54
727.675	36.73
727.858	36.68
728.041	36.46
728.224	36.95
728.407	36.83
728.589	36.93
728.772	36.92
728.955	36.96
729.138	37.29
729.321	37.05
729.503	37.34
729.686	37.15
729.869	37.57
730.052	37.67
730.234	37.56
730.417	37.71
730.6	37.11
730.782	37.3
730.965	37.18
731.148	36.84
731.33	36.89
731.513	36.7
731.695	36.41
731.878	36.44
732.061	36.37
732.243	35.88
732.426	36
732.608	36.36
732.791	36.24
732.973	36.39
733.156	36.68
733.338	36.66
733.52	37.11
733.703	37.05
733.885	36.89
734.068	37.31
734.25	37.59
734.432	37.22
734.615	37.09
734.797	37.07
734.979	36.92
735.162	36.8
735.344	36.85
735.526	36.81
735.708	37.12
735.891	36.49
736.073	35.78
736.255	35.26
736.437	35.48
736.619	36.01
736.802	35.79
736.984	35.72
737.166	35.77
737.348	35.72
737.53	35.4
737.712	35.41
737.894	36.01
738.076	36.2
738.258	36.72
738.44	36.1
738.622	35.35
738.804	35.59
738.986	35.34
739.168	35.4
739.35	35.15
739.532	34.46
739.714	34.73
739.896	34.56
740.078	34.64
740.259	34.41
740.441	35.13
740.623	35.38
740.805	34.72
740.987	35.1
741.168	35.28
741.35	35.88
741.532	36.53
741.714	35.77
741.895	35.59
742.077	35.76
742.259	35.95
742.44	36.01
742.622	36.43
742.804	37.22
742.985	37
743.167	36.7
743.348	36.82
743.53	36.59
743.711	36.29
743.893	36.21
744.075	35.64
744.256	35.7
744.438	35.68
744.619	34.66
744.8	34.67
744.982	34.87
745.163	35.34
745.345	34.75
745.526	35.18
745.707	35.44
745.889	36.03
746.07	35.77
746.252	35.99
746.433	36.31
746.614	36.83
746.795	36.02
746.977	35.73
747.158	34.76
747.339	34.78
747.52	34.75
747.702	35.31
747.883	35.33
748.064	36.44
748.245	36.28
748.426	36.25
748.607	36.14
748.788	35.68
748.97	35.37
749.151	36.03
749.332	35.8
749.513	35.65
749.694	35.74
749.875	35.43
750.056	35.09
750.237	34.85
750.418	34.42
750.599	33.8
750.78	34.92
750.96	35.65
751.141	35.38
751.322	34.95
751.503	34.88
751.684	34.53
751.865	34.69
752.046	34.22
752.226	34.61
752.407	33.96
752.588	34.83
752.769	34.77
752.949	34.84
753.13	34.98
753.311	35.47
753.492	35.39
753.672	35.04
753.853	35
754.034	34.99
754.214	35.01
754.395	35.32
754.575	35.26
754.756	35.09
754.937	34.63
755.117	34.56
755.298	34.83
755.478	34.42
755.659	34.24
755.839	34.3
756.02	34.29
756.2	34.25
756.381	34.29
756.561	33.73
756.741	33.73
756.922	33.78
757.102	33.99
757.283	33.71
757.463	34.14
757.643	35.05
757.823	35.21
758.004	35.43
758.184	35.05
758.364	35.28
758.545	34.67
758.725	34.97
758.905	35.68
759.085	35.78
759.265	35.88
759.446	35.48
759.626	34.5
759.806	34.49
759.986	34.99
760.166	34.78
760.346	35.49
760.526	36.51
760.706	35.79
760.886	34.94
761.066	34.57
761.246	34.78
761.426	34.95
761.606	35.55
761.786	35.52
761.966	35.38
762.146	35.68
762.326	35.01
762.506	35.2
762.686	35.92
762.866	36.42
763.046	36.64
763.225	36.64
763.405	36.53
763.585	36.69
763.765	36.58
763.945	36.67
764.124	36.84
764.304	36.94
764.484	37
764.664	36.78
764.843	36.28
765.023	35.81
765.203	35.55
765.382	35.59
765.562	35.15
765.741	35.33
765.921	34.93
766.101	34.52
766.28	34.41
766.46	34
766.639	33.81
766.819	34.1
766.998	34.71
767.178	34.68
767.357	35.36
767.537	35.42
767.716	35
767.896	35.05
768.075	35.29
768.254	35.26
768.434	34.89
768.613	34.73
768.792	34.81
768.972	34.62
769.151	34.58
769.33	33.8
769.51	33.86
769.689	33.71
769.868	33.73
770.047	33.68
770.226	33.72
770.406	33.4
770.585	33.83
770.764	33.58
770.943	33.68
771.122	34.18
771.301	34.48
771.48	33.89
771.66	34.72
771.839	35.18
772.018	35.05
772.197	35.13
772.376	36.44
772.555	36.33
772.734	35.82
772.913	34.86
773.092	35.06
773.271	34.96
773.449	36.13
773.628	36.01
773.807	34.86
773.986	35
774.165	35.08
774.344	34.79
774.523	34.23
774.701	34.52
774.88	36.28
775.059	36.14
775.238	36.09
775.417	35.96
775.595	36.1
775.774	37.26
775.953	37.05
776.131	37.02
776.31	36.54
776.489	37.21
776.667	37.63
776.846	36.87
777.025	35.94
777.203	35.96
777.382	36.53
777.56	36.58
777.739	36.46
777.917	36.64
778.096	36.5
778.274	37.07
778.453	36.32
778.631	35.73
778.81	35.21
778.988	36.14
779.166	36.13
779.345	35.81
779.523	35.41
779.702	35.25
779.88	35.03
780.058	35.09
780.237	33.77
780.415	34.42
780.593	35.01
780.771	36.15
780.95	36.8
781.128	36.87
781.306	36.41
781.484	36.55
781.662	36.34
781.841	36.45
782.019	36.58
782.197	37.61
782.375	37.2
782.553	36.87
782.731	35.97
782.909	35.47
783.087	35.83
783.265	36.12
783.443	36.5
783.621	36.63
783.799	36.35
783.977	35.46
784.155	34.81
784.333	35.2
784.511	36.34
784.689	36.59
784.867	35.37
785.045	35.83
785.223	34.69
785.4	34.63
785.578	34.21
785.756	34.53
785.934	35
786.112	35.65
786.289	34.97
786.467	34.02
786.645	34.6
786.823	34.78
787	34.1
787.178	34.86
787.356	34.23
787.533	34.58
787.711	34.9
787.889	34.7
788.066	34.39
788.244	34.37
788.421	33.73
788.599	33.62
788.776	34.11
788.954	33.55
789.131	33.99
789.309	34.11
789.486	34.58
789.664	34.36
789.841	34.34
790.019	35.43
790.196	36.06
790.373	36.07
790.551	35.76
790.728	36.07
790.906	37.57
791.083	37.74
791.26	38.6
791.437	37.16
791.615	37.06
791.792	37.08
791.969	35.95
792.146	35.41
792.324	36.34
792.501	36.52
792.678	36.37
792.855	35.61
793.032	35.25
793.209	34.04
793.387	34.76
793.564	34.75
793.741	35.08
793.918	36.03
794.095	36.46
794.272	36.16
794.449	35.77
794.626	35.4
794.803	36.02
794.98	35.83
795.157	35.96
795.334	35.86
795.511	35.41
795.688	35.86
795.864	34.97
796.041	34.82
796.218	34.94
796.395	34.61
796.572	33.97
796.749	33.15
796.925	32.61
797.102	32.94
797.279	33.01
797.456	32.42
797.632	32.77
797.809	32.97
797.986	32.17
798.162	31.81
798.339	32.38
798.516	32.87
798.692	32.63
798.869	33.41
799.046	33.86
799.222	33.77
799.399	33.9
799.575	33.29
799.752	33.25
799.928	34.34
800.105	34.15
800.281	33.63
800.458	34.11
800.634	33.95
800.811	34.14
800.987	33.28
801.163	33.85
801.34	35.24
801.516	35.6
801.692	35.6
801.869	34.76
802.045	36.03
802.221	36.82
802.398	36.97
802.574	36.82
802.75	36.25
802.926	36.22
803.103	34.7
803.279	34.69
803.455	35.73
803.631	36.02
803.807	36.36
803.983	36.19
804.16	35.05
804.336	33.66
804.512	33.58
804.688	34.38
804.864	34.7
805.04	36.41
805.216	36.53
805.392	36.34
805.568	36.19
805.744	36.49
805.92	36.18
806.096	37.73
806.272	38.71
806.448	39.35
806.623	39.04
806.799	39.52
806.975	39.22
807.151	38.1
807.327	34.96
807.503	34.96
807.678	35.86
807.854	34.14
808.03	32.53
808.206	31.99
808.381	32.84
808.557	31.14
808.733	30.98
808.908	30.84
809.084	31.25
809.26	33.64
809.435	33.1
809.611	31.64
809.787	33.9
809.962	33.8
810.138	34.29
810.313	33.69
810.489	35.75
810.664	36.37
810.84	35.87
811.015	36.6
811.191	36.57
811.366	36.74
811.542	37.46
811.717	37.47
811.892	39.03
812.068	39.77
812.243	39.15
812.419	37.29
812.594	36.39
812.769	37.13
812.944	37.18
813.12	36.72
813.295	37.45
813.47	36.58
813.645	35.49
813.821	34.97
813.996	34.42
814.171	35.19
814.346	35.69
814.521	35.48
814.697	34.67
814.872	34.02
815.047	32.74
815.222	30.48
815.397	31.48
815.572	32.76
815.747	32.45
815.922	33.01
816.097	32.24
816.272	34.08
816.447	34.64
816.622	36.1
816.797	35.86
816.972	36.67
817.147	38.39
817.322	37.14
817.496	35.6
817.671	36.04
817.846	35.79
818.021	36.54
818.196	35.01
818.371	35.16
818.545	35.01
818.72	35.27
818.895	34.63
819.069	34.69
819.244	35.35
819.419	36.09
819.594	34.84
819.768	34.8
819.943	35.05
820.117	35.16
820.292	34.67
820.467	34
820.641	34.58
820.816	34.79
820.99	34.54
821.165	34.55
821.339	34.64
821.514	34.59
821.688	34.56
821.863	34.25
822.037	34.24
822.212	34.35
822.386	34.34
822.56	33.99
822.735	34
822.909	34.02
823.084	34.03
823.258	33.78
823.432	34.06
823.606	33.86
823.781	34.11
823.955	33.84
824.129	33.86
824.303	34.23
824.478	34.21
824.652	34.36
824.826	34.2
825	34.03
825.174	34.11
825.348	33.8
825.523	33.81
825.697	33.22
825.871	33.49
826.045	33.23
826.219	32.83
826.393	33.2
826.567	33.22
826.741	33.55
826.915	33.58
827.089	33.33
827.263	33.49
827.437	34.2
827.611	34.41
827.784	34.48
827.958	34.98
828.132	35.34
828.306	35.52
828.48	35.3
828.654	35.09
828.827	35.39
829.001	36.12
829.175	36.31
829.349	34.96
829.522	35.6
829.696	36.33
829.87	35.09
830.044	34.07
830.217	33.27
830.391	33.43
830.565	34.2
830.738	34.53
830.912	34.29
831.085	33.9
831.259	34.03
831.432	33.93
831.606	33.17
831.779	34.28
831.953	34.87
832.126	35.21
832.3	35.04
832.473	34.83
832.647	34
832.82	33.74
832.994	34.29
833.167	35.33
833.34	34.66
833.514	33.98
833.687	33.32
833.86	32.93
834.034	33.06
834.207	32.74
834.38	32.82
834.553	32.81
834.727	32.74
834.9	32.91
835.073	32.12
835.246	32.36
835.419	32.59
835.593	32.82
835.766	33.75
835.939	33.38
836.112	34.04
836.285	33.98
836.458	34.6
836.631	35.07
836.804	34.27
836.977	35.77
837.15	34.46
837.323	34.44
837.496	33.95
837.669	32.44
837.842	32.98
838.015	34.05
838.188	32.91
838.361	32.72
838.533	32.85
838.706	31.23
838.879	30.15
839.052	32.2
839.225	31.98
839.398	32.04
839.57	34
839.743	33.44
839.916	31.52
840.088	32.9
840.261	32.59
840.434	31.75
840.607	33.16
840.779	33.56
840.952	32.86
841.124	33.67
841.297	34.62
841.47	34.23
841.642	35.77
841.815	36.62
841.987	36.9
842.16	35.33
842.332	35.94
842.505	38.26
842.677	38.06
842.85	39.49
843.022	39.14
843.194	39.98
843.367	38.42
843.539	35.36
843.712	36.77
843.884	36.43
844.056	37.82
844.229	39.02
844.401	39.7
844.573	37.98
844.745	38.18
844.918	37.57
845.09	36.33
845.262	39.53
845.434	40.8
845.606	39.82
845.779	39.49
845.951	40.69
846.123	37.18
846.295	34.39
846.467	34.13
846.639	33.28
846.811	37.26
846.983	35.55
847.155	34.98
847.327	36.72
847.499	36.85
847.671	36.54
847.843	37.36
848.015	38.32
848.187	38.26
848.359	37.4
848.531	38.04
848.703	34.02
848.875	36.85
849.047	34.56
849.218	34.74
849.39	33.29
849.562	30.54
849.734	29.63
849.905	28.61
850.077	28.53
850.249	29.62
850.421	29.81
850.592	30.49
850.764	32.7
850.936	33.03
851.107	28.21
851.279	27.79
851.451	27.78
851.622	26.89
851.794	29.36
851.965	30.54
852.137	29.35
852.308	26.68
852.48	30.2
852.651	28.06
852.823	28.6
852.994	31.43
853.166	30.44
853.337	35.83
853.509	36.63
853.68	36.28
853.851	35.94
854.023	36.94
854.194	35.77
854.365	35.86
854.537	34.17
854.708	35.54
854.879	33.26
855.05	34.58
855.222	31.74
855.393	32.3
855.564	35.87
855.735	34.34
855.906	36.7
856.078	37.01
856.249	33.27
856.42	34.06
856.591	34.75
856.762	37.14
856.933	35.09
857.104	33.15
857.275	33.91
857.446	27.67
857.617	26.82
857.788	29.73
857.959	32.4
858.13	33.4
858.301	37.77
858.472	36.87
858.643	37.2
858.814	38.09
858.985	38.63
859.155	38.4
859.326	39.58
859.497	43.13
859.668	42.51
859.839	40.88
860.009	40.95
860.18	36.69
860.351	35.11
860.522	31.34
860.692	28.63
860.863	30.26
861.034	27.69
861.204	29.49
861.375	26.43
861.546	24.57
861.716	26.61
861.887	28.22
862.057	30.78
862.228	31.67
862.398	34.66
862.569	38.08
862.739	35.41
862.91	40.68
863.08	41.12
863.251	42.82
863.421	39.66
863.592	36.72
863.762	36.38
863.932	33.49
864.103	35.08
864.273	31.91
864.443	32.16
864.614	35.3
864.784	32.56
864.954	32.59
865.125	32.75
865.295	33.75
865.465	34.48
865.635	32.98
865.805	33.86
865.976	36.01
866.146	38.32
866.316	35.85
866.486	31.97
866.656	31.81
866.826	31.89
866.996	30.01
867.166	31.45
867.336	37.51
867.506	34.79
867.676	33.68
867.846	33.19
868.016	33.46
868.186	33.79
868.356	37.12
868.526	34.78
868.696	31.23
868.866	36.44
869.036	33.93
869.206	30.98
869.376	33.17
869.545	35.7
869.715	30.19
869.885	34.51
870.055	35.55
870.224	35.44
870.394	33.56
870.564	38.77
870.734	35.42
870.903	39.11
871.073	35.05
871.243	38.56
871.412	37.84
871.582	38.97
871.751	36.92
871.921	36.46
872.091	32.25
872.26	28.22
872.43	24.62
872.599	23.88
872.769	20.13
872.938	23.73
873.108	25.52
873.277	25.02
873.446	23.92
873.616	21.35
873.785	24.26
873.955	28.59
874.124	36.01
874.293	38.67
874.463	38.44
874.632	40.65
874.801	34.26
874.971	32.54
875.14	34.05
875.309	35.8
875.478	41.08
875.647	40.38
875.817	39.82
875.986	37.85
876.155	38.73
876.324	38.34
876.493	38.45
876.662	40.3
876.831	41.3
877	41.29
877.17	42.44
877.339	38.21
877.508	38.13
877.677	35.74
877.846	39.16
878.015	38.47
878.184	40.05
878.352	36.85
878.521	41.86
878.69	41.18
878.859	38.09
879.028	37.56
879.197	37.71
879.366	37.18
879.534	36.4
879.703	34.85
879.872	33.31
880.041	32.79
880.21	34.77
880.378	32.68
880.547	33.19
880.716	33.71
880.884	33.21
881.053	33.29
881.222	33.89
881.39	34.59
881.559	35
881.727	36.04
881.896	35.78
882.065	36.48
882.233	36.7
882.402	36.65
882.57	36.79
882.739	37.4
882.907	37.66
883.076	37.01
883.244	37.25
883.412	36.57
883.581	36.64
883.749	37.36
883.918	36.44
884.086	36.73
884.254	36.46
884.423	34.93
884.591	34.86
884.759	33.63
884.927	33.77
885.096	32.95
885.264	34.38
885.432	32.92
885.6	31.99
885.769	30.83
885.937	30.78
886.105	30.89
886.273	31.52
886.441	31.52
886.609	30.25
886.777	30.96
886.945	31.89
887.113	30.53
887.281	32.13
887.449	29.38
887.617	31.3
887.785	31.89
887.953	30.85
888.121	35.07
888.289	33.61
888.457	38.81
888.625	40.68
888.793	38.58
888.961	39.21
889.129	39.89
889.296	43.66
889.464	44.81
889.632	42.57
889.8	42.48
889.967	41.4
890.135	41
