Data from 2938475_Reflection_1.txt Node
Date: Wed Jun 17 13:20:33 EDT 2015
User: robert
Spectrometer: USB4E03002
Autoset integration time: false
Trigger mode: 4
Integration Time (sec): 1.000000E-1
Scans to average: 10
Electric dark correction enabled: true
Nonlinearity correction enabled: false
Boxcar width: 5
Stray light correction enabled: false
XAxis mode: Wavelengths
Stop averaging: false
Number of Pixels in Spectrum: 3648
>>>>>Begin Spectral Data<<<<<
177.575	-18.26
177.794	-50.74
178.014	-31.55
178.233	-2.04
178.452	34.22
178.672	-9.71
178.891	35.08
179.11	-65.66
179.33	-54.41
179.549	-157.78
179.768	-421.75
179.987	-274.41
180.207	-100
180.426	-140.4
180.645	-365.5
180.864	-114.39
181.084	-62.13
181.303	-67.42
181.522	-53.23
181.741	-90.01
181.96	-96.44
182.179	-121.27
182.398	-195.05
182.618	328.6
182.837	453.74
183.056	149.78
183.275	87.95
183.494	70.38
183.713	61.23
183.932	61.76
184.151	66.57
184.37	91.84
184.589	91.27
184.808	107.69
185.027	114.14
185.246	68.64
185.465	31.2
185.684	19.11
185.903	275.08
186.122	139.84
186.341	77.59
186.56	69.8
186.779	15.29
186.998	-7.05
187.216	12.24
187.435	14.5
187.654	32.88
187.873	146.6
188.092	828.57
188.311	267.54
188.53	-50.7
188.748	-14.52
188.967	1.47
189.186	-19.83
189.405	44.05
189.623	40.49
189.842	-1.03
190.061	-15.67
190.28	14.49
190.498	75.58
190.717	19.42
190.936	-82.31
191.154	266.63
191.373	-1218
191.592	-665.48
191.81	235.81
192.029	151.61
192.248	98.77
192.466	120.41
192.685	84.18
192.904	94.43
193.122	449.9
193.341	1232.62
193.559	-36.48
193.778	-43.99
193.996	-76.39
194.215	-14.97
194.433	-37.37
194.652	3.02
194.87	49.27
195.089	130.25
195.307	168.76
195.526	82.74
195.744	8.29
195.963	22.74
196.181	102.44
196.399	66.58
196.618	75.18
196.836	53.55
197.055	44.44
197.273	71.85
197.491	101.56
197.71	65.72
197.928	49.95
198.146	47.94
198.365	79.89
198.583	8.98
198.801	-23.17
199.019	-14.52
199.238	-25.89
199.456	-0.18
199.674	29.13
199.892	41.27
200.111	70.68
200.329	106.12
200.547	42.53
200.765	59.23
200.983	88.63
201.202	140.18
201.42	77.72
201.638	128.86
201.856	141.18
202.074	81.51
202.292	101.74
202.51	88.9
202.728	56.11
202.946	85.21
203.165	54.3
203.383	72.11
203.601	59.04
203.819	40.25
204.037	32.93
204.255	0.33
204.473	21.93
204.691	37.87
204.909	27.23
205.127	1.69
205.345	54.64
205.562	66.17
205.78	128.88
205.998	134.17
206.216	216.12
206.434	561.58
206.652	147.61
206.87	200.96
207.088	137.51
207.306	78.99
207.523	81.49
207.741	59.15
207.959	55.62
208.177	28.39
208.395	13.43
208.612	19.09
208.83	35.12
209.048	26.83
209.266	45.42
209.483	21.28
209.701	86.31
209.919	69.96
210.136	133.77
210.354	114.48
210.572	330.4
210.79	348.68
211.007	152.4
211.225	77.11
211.442	55.54
211.66	50.51
211.878	49.97
212.095	44.68
212.313	36.1
212.53	35.86
212.748	20.46
212.966	12.48
213.183	22.69
213.401	26.4
213.618	29.84
213.836	23.18
214.053	32.67
214.271	25.07
214.488	18.14
214.705	17.11
214.923	24.51
215.14	33.38
215.358	31.31
215.575	18.77
215.793	27.67
216.01	20.41
216.227	27.8
216.445	11.33
216.662	23.01
216.879	25.73
217.097	31.11
217.314	20.55
217.531	27.59
217.749	21.97
217.966	31.65
218.183	30.7
218.4	38.56
218.618	33.26
218.835	30.64
219.052	28.79
219.269	44.41
219.487	49.8
219.704	51.22
219.921	42.23
220.138	44.71
220.355	29.23
220.572	27.42
220.79	17.07
221.007	15.31
221.224	29.58
221.441	25.28
221.658	7.7
221.875	7.57
222.092	14.26
222.309	15.58
222.526	17.29
222.743	29.29
222.96	31.71
223.177	41.3
223.394	44.34
223.611	33.57
223.828	35.81
224.045	37.38
224.262	32.25
224.479	26.87
224.696	25.61
224.913	22.93
225.13	23.58
225.347	24.2
225.564	20.58
225.781	17.16
225.997	17.16
226.214	15.95
226.431	12.17
226.648	13.16
226.865	12.69
227.082	12.73
227.298	12.6
227.515	11.47
227.732	10.17
227.949	9.84
228.165	9.17
228.382	9.8
228.599	9.48
228.816	9.65
229.032	7.96
229.249	8.92
229.466	8.06
229.682	9.42
229.899	8.37
230.116	8.85
230.332	11.64
230.549	11.99
230.765	11.46
230.982	13.75
231.199	16.66
231.415	17.04
231.632	15.93
231.848	17.32
232.065	14.32
232.281	15.4
232.498	15
232.714	12.2
232.931	13.07
233.147	13.35
233.364	9.88
233.58	8.29
233.797	9.15
234.013	10.03
234.23	9.12
234.446	9.61
234.662	10.11
234.879	10.87
235.095	11.94
235.312	11.67
235.528	10.13
235.744	13.73
235.961	12.97
236.177	13.13
236.393	12.4
236.61	13.07
236.826	12.22
237.042	10.28
237.258	9.35
237.475	8.1
237.691	8.37
237.907	9.16
238.123	8.03
238.339	10.01
238.556	8.56
238.772	7.81
238.988	8.23
239.204	9.7
239.42	10.04
239.636	10.12
239.853	10.98
240.069	10.07
240.285	9.43
240.501	8.8
240.717	9.02
240.933	9.84
241.149	10.4
241.365	10.36
241.581	10.11
241.797	10.66
242.013	10.54
242.229	9
242.445	9.48
242.661	9.33
242.877	9.69
243.093	8.71
243.309	8.38
243.525	8.39
243.741	8.47
243.957	7.83
244.173	7.42
244.388	7.84
244.604	8.82
244.82	8.93
245.036	9.01
245.252	8.48
245.468	8.64
245.683	8.3
245.899	7.97
246.115	7.78
246.331	8.06
246.547	7.91
246.762	7.82
246.978	7.59
247.194	7.46
247.409	7.05
247.625	7.51
247.841	7.51
248.057	8.07
248.272	7.6
248.488	7.51
248.703	7.13
248.919	6.95
249.135	6.56
249.35	7.68
249.566	7.44
249.782	7.52
249.997	8.28
250.213	7.28
250.428	7.15
250.644	8.09
250.859	7.65
251.075	7.56
251.29	8.36
251.506	8.64
251.721	7.95
251.937	7.57
252.152	8.5
252.368	7.34
252.583	7.88
252.798	8.47
253.014	8.29
253.229	8.89
253.445	8.12
253.66	7.44
253.875	6.39
254.091	6.01
254.306	7.15
254.521	7.07
254.737	6.93
254.952	7.59
255.167	7.19
255.383	6.7
255.598	6.57
255.813	7.39
256.028	7.19
256.244	6.84
256.459	7.08
256.674	6.15
256.889	5.52
257.104	5.43
257.32	5.51
257.535	5.57
257.75	5.39
257.965	5.53
258.18	5.32
258.395	5.42
258.61	5.97
258.826	5.87
259.041	6.17
259.256	6.41
259.471	6.49
259.686	6.25
259.901	6.11
260.116	6.57
260.331	6.13
260.546	6.37
260.761	6.53
260.976	5.94
261.191	5.89
261.406	5.76
261.621	5.26
261.836	5.48
262.05	5.41
262.265	4.73
262.48	4.4
262.695	5.23
262.91	5.48
263.125	5.39
263.34	5.82
263.555	5.63
263.769	5.68
263.984	6.24
264.199	5.51
264.414	5.3
264.629	6.01
264.843	5.85
265.058	5.73
265.273	5.04
265.488	4.41
265.702	4.44
265.917	4.25
266.132	3.9
266.346	3.74
266.561	4.31
266.776	4.64
266.99	4.6
267.205	4.66
267.42	4.43
267.634	5.23
267.849	5.64
268.063	5.56
268.278	5.85
268.492	6.23
268.707	5.76
268.922	5.61
269.136	5.27
269.351	4.82
269.565	5.27
269.78	5.54
269.994	5.31
270.209	5.21
270.423	4.84
270.637	5.18
270.852	5.11
271.066	5.33
271.281	5.84
271.495	5.87
271.709	6.32
271.924	6.19
272.138	5.99
272.353	5.71
272.567	5.89
272.781	6.27
272.996	6.11
273.21	6.23
273.424	6.65
273.638	5.87
273.853	6.19
274.067	6.73
274.281	6.69
274.495	6.75
274.71	6.79
274.924	7.03
275.138	6.89
275.352	6.55
275.566	6.95
275.781	6.67
275.995	7.18
276.209	7.49
276.423	7.09
276.637	6.95
276.851	7.6
277.065	8.26
277.279	8.04
277.493	8.43
277.707	8.24
277.921	7.91
278.135	8.01
278.349	8.12
278.563	7.87
278.777	7.16
278.991	6.86
279.205	6.31
279.419	6.06
279.633	6.01
279.847	5.94
280.061	6.45
280.275	6.42
280.489	6.38
280.703	6.01
280.917	6.08
281.131	6.59
281.344	6.92
281.558	6.58
281.772	6.28
281.986	6.12
282.2	6.02
282.414	5.76
282.627	5.6
282.841	5.42
283.055	5.76
283.269	5.81
283.482	5.41
283.696	5.28
283.91	5.7
284.123	6.31
284.337	6.19
284.551	6.47
284.764	6.82
284.978	6.93
285.192	7.24
285.405	6.86
285.619	6.89
285.833	7.38
286.046	7.43
286.26	7.61
286.473	7.27
286.687	7.59
286.9	6.82
287.114	6.83
287.327	6.94
287.541	7.23
287.754	7.7
287.968	7.85
288.181	7.79
288.395	8.07
288.608	7.69
288.822	7.53
289.035	7.7
289.248	8.08
289.462	7.98
289.675	8.17
289.889	8.48
290.102	8.23
290.315	8.08
290.529	7.83
290.742	7.93
290.955	8.66
291.169	9.23
291.382	9.8
291.595	10.63
291.808	11.19
292.022	11.05
292.235	11.3
292.448	11.99
292.661	12.49
292.875	12.91
293.088	12.97
293.301	12.98
293.514	13.23
293.727	12.77
293.94	12.41
294.153	12.15
294.367	12.57
294.58	12.6
294.793	12.56
295.006	12.72
295.219	12.95
295.432	13.16
295.645	13.23
295.858	13.41
296.071	13.72
296.284	13.94
296.497	14.03
296.71	14.07
296.923	14.12
297.136	14.57
297.349	14.52
297.562	15.09
297.775	15.4
297.988	15.76
298.201	15.9
298.414	16.2
298.626	16.57
298.839	17.23
299.052	17.82
299.265	18.16
299.478	18.27
299.691	18.67
299.903	18.86
300.116	18.82
300.329	19.66
300.542	20.21
300.755	20.62
300.967	20.83
301.18	20.71
301.393	20.41
301.605	20.26
301.818	20.5
302.031	20.5
302.243	20.64
302.456	21.23
302.669	20.64
302.881	21.26
303.094	21.74
303.307	22.37
303.519	23
303.732	23.29
303.944	23.71
304.157	24.12
304.37	24.75
304.582	24.69
304.795	24.94
305.007	25.05
305.22	24.84
305.432	24.72
305.645	24.93
305.857	25
306.069	25.5
306.282	25.59
306.494	25.29
306.707	25.14
306.919	25.11
307.132	24.89
307.344	25.3
307.556	25.11
307.769	25.3
307.981	25.95
308.193	26.5
308.406	26.54
308.618	26.64
308.83	27.27
309.043	27.09
309.255	27.3
309.467	27.62
309.679	27.78
309.892	27.87
310.104	27.99
310.316	27.39
310.528	26.86
310.74	26.97
310.953	27.5
311.165	26.82
311.377	27.21
311.589	27.53
311.801	28.03
312.013	28.36
312.225	28.6
312.437	28.67
312.649	28.61
312.862	28.81
313.074	29.44
313.286	29.34
313.498	30.39
313.71	30.48
313.922	30.59
314.134	30.27
314.346	29.94
314.558	30.06
314.77	30.39
314.982	30.92
315.193	30.84
315.405	30.95
315.617	30.9
315.829	30.3
316.041	30.83
316.253	31.22
316.465	31.02
316.677	31.54
316.888	31.6
317.1	31.51
317.312	31.63
317.524	32.52
317.736	32.05
317.947	32.22
318.159	32.57
318.371	32.06
318.583	31.77
318.794	32.22
319.006	32.3
319.218	32.1
319.43	32.54
319.641	32.27
319.853	31.99
320.064	32.29
320.276	32.04
320.488	32.1
320.699	32.59
320.911	32.55
321.123	32.99
321.334	32.37
321.546	32.6
321.757	32.55
321.969	32.59
322.18	32.86
322.392	32.66
322.603	33.25
322.815	32.9
323.026	32.61
323.238	32.38
323.449	31.74
323.661	32.32
323.872	32.53
324.083	32.46
324.295	33.03
324.506	33.16
324.718	33.36
324.929	32.88
325.14	33.47
325.352	34.01
325.563	34.84
325.774	35.23
325.986	35.47
326.197	36.16
326.408	36.83
326.62	36.49
326.831	36.32
327.042	36.76
327.253	37.09
327.464	37.41
327.676	37.56
327.887	37.31
328.098	37.49
328.309	37.55
328.52	37.43
328.732	36.71
328.943	37.42
329.154	37.91
329.365	38.74
329.576	39.6
329.787	39.96
329.998	40.23
330.209	40.78
330.42	41.21
330.631	40.99
330.842	41.04
331.053	41.54
331.264	41.87
331.475	41.89
331.686	41.48
331.897	41.44
332.108	40.96
332.319	41.16
332.53	41.27
332.741	41.29
332.952	41.69
333.163	41.56
333.374	41.58
333.585	41.07
333.795	41.09
334.006	40.63
334.217	40.51
334.428	40.71
334.639	40.92
334.849	40.5
335.06	40.23
335.271	40.34
335.482	39.89
335.692	39.72
335.903	40
336.114	40.24
336.325	40.82
336.535	40.61
336.746	41.02
336.957	41.25
337.167	41.66
337.378	42.1
337.589	42.16
337.799	42.88
338.01	43.28
338.22	43.18
338.431	43.31
338.642	43.31
338.852	43.35
339.063	43.22
339.273	42.76
339.484	42.53
339.694	42.27
339.905	42.52
340.115	42.19
340.326	42.23
340.536	42.48
340.746	41.9
340.957	41.65
341.167	41.39
341.378	41.32
341.588	41.27
341.799	41.42
342.009	40.96
342.219	40.46
342.43	41.04
342.64	40.72
342.85	39.99
343.061	40.23
343.271	40.36
343.481	40.4
343.691	40.27
343.902	40.12
344.112	40.12
344.322	40.48
344.532	40.3
344.743	39.95
344.953	39.77
345.163	40.17
345.373	40.37
345.583	40.21
345.793	40.21
346.004	40.2
346.214	40.28
346.424	39.89
346.634	39.67
346.844	40.1
347.054	39.84
347.264	40.19
347.474	40.27
347.684	40.09
347.894	40.11
348.104	40.21
348.314	40.42
348.524	40.12
348.734	40.3
348.944	40.56
349.154	40.51
349.364	40.56
349.574	40.81
349.784	40.64
349.994	40.6
350.204	40.48
350.413	40.78
350.623	40.42
350.833	40.58
351.043	40.52
351.253	40.52
351.463	40.52
351.672	40.49
351.882	39.99
352.092	39.98
352.302	39.86
352.511	40.13
352.721	40.03
352.931	40.1
353.141	40.12
353.35	39.98
353.56	39.83
353.77	39.9
353.979	39.83
354.189	39.87
354.399	39.83
354.608	39.76
354.818	39.35
355.027	39.23
355.237	39.43
355.447	39.36
355.656	39.41
355.866	38.79
356.075	38.46
356.285	38.37
356.494	38.27
356.704	38.36
356.913	38.56
357.123	38.42
357.332	38.41
357.542	38.2
357.751	38.03
357.96	38.06
358.17	38.5
358.379	38.77
358.589	38.66
358.798	38.56
359.007	38.66
359.217	38.13
359.426	38.2
359.635	37.9
359.845	37.77
360.054	37.79
360.263	37.29
360.472	37.33
360.682	37.24
360.891	37.28
361.1	37.51
361.309	37.38
361.519	37.38
361.728	37.13
361.937	37.15
362.146	36.98
362.355	36.82
362.564	37.33
362.774	37.13
362.983	36.83
363.192	36.59
363.401	36.55
363.61	36.33
363.819	36.65
364.028	37.08
364.237	36.92
364.446	36.91
364.655	36.89
364.864	36.98
365.073	36.95
365.282	37.04
365.491	37.13
365.7	36.64
365.909	36.47
366.118	36.41
366.327	36.1
366.536	36.3
366.745	36.29
366.954	36.43
367.162	35.83
367.371	35.74
367.58	35.35
367.789	34.98
367.998	35.1
368.207	35.15
368.415	34.94
368.624	34.76
368.833	34.52
369.042	34.59
369.25	34.56
369.459	34.65
369.668	34.53
369.877	34.3
370.085	34.33
370.294	34.27
370.503	34.02
370.711	34.14
370.92	33.83
371.129	33.71
371.337	33.23
371.546	32.45
371.754	32.25
371.963	32.2
372.171	32.5
372.38	32.36
372.589	32.04
372.797	32.17
373.006	31.6
373.214	31.76
373.423	31.69
373.631	31.91
373.84	32.27
374.048	32.22
374.256	32.11
374.465	31.98
374.673	32.06
374.882	32.12
375.09	31.85
375.298	31.83
375.507	31.71
375.715	31.66
375.923	31.58
376.132	31.63
376.34	31.67
376.548	31.59
376.757	31.43
376.965	31.14
377.173	31
377.381	31.01
377.59	31.1
377.798	31.21
378.006	31.19
378.214	30.87
378.423	30.71
378.631	30.61
378.839	30.5
379.047	30.36
379.255	30.4
379.463	30.33
379.671	30.41
379.879	30.14
380.088	30.07
380.296	30.13
380.504	29.96
380.712	29.8
380.92	29.35
381.128	29.44
381.336	29.39
381.544	29.15
381.752	28.79
381.96	28.48
382.168	28.38
382.376	27.8
382.584	27.45
382.791	27.53
382.999	27.32
383.207	27.39
383.415	27
383.623	26.94
383.831	26.74
384.039	26.75
384.247	26.67
384.454	26.52
384.662	26.64
384.87	26.43
385.078	26.32
385.285	26.17
385.493	26.4
385.701	26.46
385.909	26.29
386.116	26.4
386.324	26.32
386.532	26.08
386.739	26.11
386.947	26.21
387.155	26.22
387.362	26.07
387.57	26.19
387.778	25.88
387.985	25.74
388.193	25.84
388.4	25.74
388.608	25.83
388.816	25.77
389.023	25.72
389.231	25.51
389.438	25.37
389.646	25.35
389.853	25.23
390.061	24.96
390.268	24.93
390.475	24.73
390.683	24.58
390.89	24.57
391.098	24.45
391.305	24.52
391.512	24.39
391.72	24.41
391.927	24.13
392.135	23.97
392.342	24.02
392.549	24.09
392.756	23.85
392.964	23.86
393.171	23.57
393.378	23.59
393.586	23.34
393.793	23.3
394	23.32
394.207	23.39
394.414	23.5
394.622	23.44
394.829	23.32
395.036	23.36
395.243	23.19
395.45	23.12
395.657	23.13
395.864	23.14
396.072	23.03
396.279	23.02
396.486	22.76
396.693	22.54
396.9	22.58
397.107	22.53
397.314	22.66
397.521	22.85
397.728	22.8
397.935	22.81
398.142	22.58
398.349	22.56
398.556	22.3
398.763	22.45
398.97	22.34
399.177	22.28
399.383	22.12
399.59	21.85
399.797	21.77
400.004	21.74
400.211	21.61
400.418	21.61
400.625	21.54
400.831	21.37
401.038	21.42
401.245	21.47
401.452	21.34
401.658	21.33
401.865	21.42
402.072	21.33
402.279	21.41
402.485	21.38
402.692	21.48
402.899	21.5
403.105	21.69
403.312	21.66
403.519	21.71
403.725	21.77
403.932	21.73
404.138	21.77
404.345	21.75
404.552	21.77
404.758	21.59
404.965	21.48
405.171	21.39
405.378	21.2
405.584	21.15
405.791	21.04
405.997	20.89
406.204	20.99
406.41	20.91
406.617	20.86
406.823	20.7
407.029	20.79
407.236	20.85
407.442	20.86
407.649	21.09
407.855	21.02
408.061	21.13
408.268	21.09
408.474	20.84
408.68	20.93
408.887	21
409.093	21.15
409.299	21.18
409.505	21.01
409.712	20.91
409.918	20.69
410.124	20.7
410.33	20.57
410.537	20.59
410.743	20.62
410.949	20.4
411.155	20.34
411.361	19.98
411.567	19.9
411.773	19.99
411.98	20.16
412.186	20.25
412.392	20.35
412.598	20.39
412.804	20.52
413.01	20.43
413.216	20.57
413.422	20.64
413.628	20.71
413.834	20.75
414.04	20.68
414.246	20.6
414.452	20.42
414.658	20.4
414.864	20.32
415.07	20.2
415.275	20.18
415.481	20.02
415.687	19.83
415.893	19.88
416.099	19.86
416.305	19.86
416.511	19.76
416.716	19.88
416.922	19.75
417.128	19.73
417.334	19.7
417.539	19.8
417.745	19.71
417.951	19.69
418.157	19.61
418.362	19.54
418.568	19.53
418.774	19.5
418.979	19.43
419.185	19.43
419.391	19.31
419.596	19.26
419.802	19.14
420.008	19.18
420.213	19.18
420.419	19.17
420.624	19.17
420.83	19.14
421.035	19.13
421.241	19.03
421.446	18.98
421.652	19.04
421.857	18.99
422.063	18.95
422.268	18.9
422.474	18.81
422.679	18.72
422.885	18.61
423.09	18.48
423.295	18.46
423.501	18.44
423.706	18.46
423.911	18.38
424.117	18.42
424.322	18.41
424.527	18.4
424.733	18.36
424.938	18.46
425.143	18.47
425.349	18.48
425.554	18.45
425.759	18.44
425.964	18.43
426.169	18.37
426.375	18.3
426.58	18.27
426.785	18.35
426.99	18.44
427.195	18.39
427.4	18.38
427.605	18.43
427.811	18.4
428.016	18.36
428.221	18.26
428.426	18.32
428.631	18.39
428.836	18.36
429.041	18.25
429.246	18.12
429.451	18.02
429.656	18.18
429.861	18.15
430.066	18.19
430.271	18.22
430.476	18.21
430.681	18.22
430.886	18.18
431.09	18.19
431.295	18.2
431.5	18.25
431.705	18.33
431.91	18.26
432.115	18.36
432.32	18.33
432.524	18.34
432.729	18.41
432.934	18.43
433.139	18.37
433.343	18.39
433.548	18.4
433.753	18.45
433.958	18.44
434.162	18.44
434.367	18.4
434.572	18.45
434.776	18.5
434.981	18.5
435.186	18.55
435.39	18.53
435.595	18.57
435.799	18.54
436.004	18.47
436.209	18.48
436.413	18.41
436.618	18.42
436.822	18.45
437.027	18.39
437.231	18.34
437.436	18.24
437.64	18.33
437.845	18.37
438.049	18.38
438.253	18.47
438.458	18.46
438.662	18.48
438.867	18.39
439.071	18.38
439.275	18.36
439.48	18.3
439.684	18.35
439.888	18.3
440.093	18.21
440.297	18.17
440.501	18.11
440.706	18.09
440.91	18.12
441.114	18.21
441.318	18.19
441.523	18.26
441.727	18.47
441.931	18.43
442.135	18.45
442.339	18.48
442.543	18.58
442.748	18.56
442.952	18.56
443.156	18.63
443.36	18.57
443.564	18.57
443.768	18.47
443.972	18.38
444.176	18.35
444.38	18.34
444.584	18.3
444.788	18.21
444.992	18.26
445.196	18.21
445.4	18.14
445.604	18.12
445.808	18.11
446.012	18.1
446.216	18.09
446.42	18.07
446.624	18.01
446.828	18.11
447.032	18.14
447.235	18.11
447.439	18.12
447.643	18.02
447.847	17.98
448.051	17.93
448.254	17.93
448.458	17.89
448.662	17.96
448.866	18.07
449.069	18.01
449.273	17.98
449.477	18.02
449.681	18
449.884	18.19
450.088	18.25
450.292	18.27
450.495	18.39
450.699	18.28
450.902	18.27
451.106	18.3
451.31	18.28
451.513	18.34
451.717	18.21
451.92	18.28
452.124	18.28
452.327	18.38
452.531	18.39
452.734	18.3
452.938	18.33
453.141	18.41
453.345	18.32
453.548	18.29
453.752	18.28
453.955	18.38
454.158	18.43
454.362	18.35
454.565	18.24
454.769	18.3
454.972	18.25
455.175	18.43
455.379	18.36
455.582	18.38
455.785	18.34
455.988	18.26
456.192	18.12
456.395	18.09
456.598	18.11
456.801	18.19
457.005	18.17
457.208	18.28
457.411	18.25
457.614	18.19
457.817	18.17
458.021	18.19
458.224	18.18
458.427	18.22
458.63	18.19
458.833	18.14
459.036	18.06
459.239	17.99
459.442	17.91
459.645	17.89
459.848	17.92
460.051	17.95
460.254	17.97
460.457	18.02
460.66	18.01
460.863	17.92
461.066	17.93
461.269	18
461.472	17.95
461.675	17.94
461.878	17.9
462.081	17.89
462.284	17.9
462.486	17.85
462.689	17.77
462.892	17.82
463.095	17.91
463.298	17.96
463.5	17.98
463.703	18.06
463.906	18.28
464.109	18.29
464.311	18.35
464.514	18.24
464.717	18.44
464.92	18.52
465.122	18.56
465.325	18.61
465.528	18.69
465.73	18.67
465.933	18.82
466.135	18.6
466.338	18.55
466.541	18.45
466.743	18.49
466.946	18.33
467.148	18.36
467.351	18.34
467.553	18.36
467.756	18.29
467.958	18.23
468.161	18.12
468.363	18.2
468.566	18.3
468.768	18.35
468.971	18.29
469.173	18.13
469.375	18.03
469.578	18.01
469.78	18.02
469.983	18.04
470.185	18.12
470.387	18.22
470.59	18.23
470.792	18.23
470.994	18.23
471.196	18.38
471.399	18.52
471.601	18.66
471.803	18.65
472.005	18.58
472.208	18.45
472.41	18.45
472.612	18.34
472.814	18.35
473.016	18.22
473.218	18.31
473.421	18.31
473.623	18.37
473.825	18.24
474.027	18.24
474.229	18.29
474.431	18.32
474.633	18.28
474.835	18.32
475.037	18.23
475.239	18.25
475.441	18.17
475.643	18.1
475.845	18.1
476.047	18.24
476.249	18.2
476.451	18.12
476.653	18.13
476.855	18.12
477.057	18.07
477.258	18.14
477.46	18.18
477.662	18.2
477.864	18.13
478.066	18.11
478.268	18.02
478.469	18.08
478.671	18.05
478.873	18.1
479.075	18.08
479.276	18.01
479.478	17.91
479.68	17.88
479.882	17.89
480.083	17.92
480.285	17.95
480.487	17.96
480.688	17.97
480.89	18.02
481.091	17.97
481.293	17.92
481.495	17.92
481.696	17.91
481.898	17.84
482.099	17.79
482.301	17.73
482.502	17.65
482.704	17.58
482.905	17.51
483.107	17.43
483.308	17.35
483.51	17.28
483.711	17.25
483.913	17.21
484.114	17.21
484.315	17.22
484.517	17.22
484.718	17.31
484.92	17.34
485.121	17.33
485.322	17.41
485.524	17.49
485.725	17.6
485.926	17.62
486.127	17.6
486.329	17.6
486.53	17.55
486.731	17.51
486.932	17.41
487.134	17.38
487.335	17.39
487.536	17.32
487.737	17.31
487.938	17.27
488.139	17.29
488.341	17.36
488.542	17.44
488.743	17.52
488.944	17.6
489.145	17.68
489.346	17.71
489.547	17.72
489.748	17.73
489.949	17.73
490.15	17.75
490.351	17.69
490.552	17.64
490.753	17.57
490.954	17.51
491.155	17.49
491.356	17.48
491.557	17.48
491.758	17.49
491.959	17.51
492.159	17.51
492.36	17.49
492.561	17.51
492.762	17.59
492.963	17.65
493.164	17.77
493.364	17.84
493.565	17.95
493.766	18.03
493.967	18.09
494.167	18.16
494.368	18.18
494.569	18.24
494.769	18.35
494.97	18.35
495.171	18.4
495.371	18.38
495.572	18.38
495.773	18.38
495.973	18.4
496.174	18.34
496.375	18.37
496.575	18.42
496.776	18.44
496.976	18.45
497.177	18.56
497.377	18.5
497.578	18.52
497.778	18.58
497.979	18.56
498.179	18.56
498.38	18.62
498.58	18.63
498.78	18.69
498.981	18.73
499.181	18.74
499.382	18.73
499.582	18.73
499.782	18.78
499.983	18.78
500.183	18.8
500.383	18.82
500.584	18.89
500.784	19.01
500.984	18.93
501.184	18.93
501.385	18.98
501.585	19.06
501.785	19.22
501.985	19.23
502.185	19.26
502.386	19.26
502.586	19.32
502.786	19.34
502.986	19.3
503.186	19.39
503.386	19.44
503.586	19.49
503.786	19.4
503.987	19.47
504.187	19.52
504.387	19.55
504.587	19.58
504.787	19.65
504.987	19.68
505.187	19.71
505.387	19.74
505.587	19.87
505.786	19.89
505.986	19.96
506.186	19.83
506.386	19.79
506.586	19.89
506.786	20.03
506.986	20.01
507.186	19.96
507.386	20.09
507.585	20.11
507.785	20.08
507.985	20.11
508.185	20.19
508.384	20.35
508.584	20.45
508.784	20.52
508.984	20.52
509.183	20.63
509.383	20.84
509.583	20.83
509.782	20.95
509.982	21.05
510.182	21.03
510.381	21.02
510.581	21.02
510.781	21.11
510.98	21.1
511.18	21.17
511.379	21.16
511.579	21.13
511.778	21.17
511.978	21.18
512.177	21.13
512.377	21.09
512.576	21.15
512.776	21.18
512.975	21.13
513.175	21.16
513.374	21.13
513.573	21.19
513.773	21.19
513.972	21.2
514.172	21.21
514.371	21.32
514.57	21.45
514.77	21.51
514.969	21.6
515.168	21.69
515.367	21.71
515.567	21.87
515.766	21.92
515.965	21.96
516.164	21.96
516.364	22.04
516.563	22.05
516.762	22.17
516.961	22.13
517.16	22.05
517.359	22.06
517.559	22.1
517.758	22
517.957	22.02
518.156	22.07
518.355	22.02
518.554	22.04
518.753	22.04
518.952	21.93
519.151	21.97
519.35	22.12
519.549	22.13
519.748	22.14
519.947	22.25
520.146	22.31
520.345	22.32
520.544	22.44
520.743	22.51
520.942	22.57
521.141	22.72
521.339	22.77
521.538	22.74
521.737	22.83
521.936	22.86
522.135	22.82
522.333	22.88
522.532	22.93
522.731	23.02
522.93	22.94
523.129	22.98
523.327	22.94
523.526	23
523.725	23.02
523.923	22.98
524.122	23.02
524.321	23.08
524.519	23.07
524.718	23.08
524.917	23.05
525.115	23.15
525.314	23.21
525.512	23.24
525.711	23.32
525.909	23.35
526.108	23.43
526.306	23.41
526.505	23.4
526.703	23.43
526.902	23.42
527.1	23.46
527.299	23.4
527.497	23.34
527.696	23.32
527.894	23.24
528.092	23.21
528.291	23.18
528.489	23.17
528.688	23.18
528.886	23.19
529.084	23.18
529.283	23.16
529.481	23.23
529.679	23.28
529.877	23.34
530.076	23.47
530.274	23.58
530.472	23.68
530.67	23.76
530.869	23.8
531.067	23.82
531.265	23.89
531.463	23.91
531.661	23.89
531.859	23.88
532.057	23.88
532.255	23.81
532.454	23.78
532.652	23.72
532.85	23.71
533.048	23.73
533.246	23.75
533.444	23.75
533.642	23.79
533.84	23.83
534.038	23.89
534.236	23.91
534.434	24.01
534.632	24.03
534.83	24.1
535.027	24.07
535.225	24.08
535.423	24.02
535.621	24.05
535.819	23.97
536.017	23.97
536.215	24.01
536.412	24.05
536.61	24.04
536.808	24.08
537.006	24.08
537.203	24.19
537.401	24.25
537.599	24.38
537.797	24.44
537.994	24.6
538.192	24.71
538.39	24.77
538.587	24.79
538.785	24.82
538.983	24.87
539.18	24.89
539.378	24.87
539.575	24.81
539.773	24.75
539.97	24.69
540.168	24.61
540.366	24.56
540.563	24.53
540.761	24.51
540.958	24.52
541.155	24.48
541.353	24.46
541.55	24.46
541.748	24.5
541.945	24.52
542.143	24.59
542.34	24.63
542.537	24.65
542.735	24.72
542.932	24.76
543.129	24.8
543.327	24.82
543.524	24.83
543.721	24.86
543.919	24.94
544.116	25
544.313	25
544.51	24.99
544.708	25.03
544.905	25.04
545.102	25.03
545.299	25.03
545.496	25.08
545.693	25.12
545.891	25.17
546.088	25.14
546.285	25.09
546.482	25.09
546.679	25.15
546.876	25.21
547.073	25.2
547.27	25.23
547.467	25.23
547.664	25.28
547.861	25.33
548.058	25.27
548.255	25.22
548.452	25.25
548.649	25.3
548.846	25.4
549.043	25.3
549.24	25.3
549.437	25.45
549.633	25.43
549.83	25.45
550.027	25.49
550.224	25.54
550.421	25.66
550.618	25.67
550.814	25.69
551.011	25.74
551.208	25.87
551.405	25.82
551.601	25.7
551.798	25.8
551.995	25.74
552.191	25.75
552.388	25.79
552.585	25.78
552.781	25.9
552.978	25.87
553.175	25.85
553.371	25.8
553.568	25.81
553.764	25.86
553.961	25.76
554.157	25.78
554.354	25.84
554.55	25.88
554.747	25.99
554.943	25.93
555.14	25.95
555.336	26
555.533	26.09
555.729	26.24
555.926	26.37
556.122	26.43
556.318	26.48
556.515	26.46
556.711	26.43
556.907	26.35
557.104	26.4
557.3	26.35
557.496	26.37
557.693	26.3
557.889	26.3
558.085	26.25
558.281	26.3
558.478	26.28
558.674	26.25
558.87	26.36
559.066	26.28
559.262	26.32
559.459	26.51
559.655	26.51
559.851	26.48
560.047	26.46
560.243	26.39
560.439	26.37
560.635	26.37
560.831	26.4
561.027	26.28
561.223	26.33
561.419	26.31
561.615	26.19
561.811	26.14
562.007	26.23
562.203	26.26
562.399	26.35
562.595	26.43
562.791	26.46
562.987	26.56
563.183	26.75
563.379	26.85
563.575	26.81
563.771	26.88
563.966	26.93
564.162	26.87
564.358	26.85
564.554	26.86
564.75	26.89
564.945	26.9
565.141	26.88
565.337	26.87
565.533	26.88
565.728	26.8
565.924	26.75
566.12	26.76
566.315	26.85
566.511	26.91
566.707	26.96
566.902	26.87
567.098	26.84
567.293	26.91
567.489	26.9
567.684	26.9
567.88	27.06
568.076	27.11
568.271	27.17
568.467	27.22
568.662	27.2
568.858	27.2
569.053	27.25
569.248	27.26
569.444	27.19
569.639	27.22
569.835	27.24
570.03	27.22
570.225	27.28
570.421	27.19
570.616	27.11
570.812	27.12
571.007	27.11
571.202	27.22
571.397	27.31
571.593	27.34
571.788	27.28
571.983	27.29
572.178	27.31
572.374	27.38
572.569	27.39
572.764	27.43
572.959	27.5
573.154	27.51
573.35	27.43
573.545	27.34
573.74	27.44
573.935	27.44
574.13	27.39
574.325	27.54
574.52	27.46
574.715	27.48
574.91	27.45
575.105	27.5
575.3	27.47
575.495	27.43
575.69	27.55
575.885	27.47
576.08	27.55
576.275	27.61
576.47	27.52
576.665	27.57
576.86	27.66
577.055	27.73
577.25	27.59
577.444	27.63
577.639	27.77
577.834	27.75
578.029	27.83
578.224	27.8
578.418	27.86
578.613	27.9
578.808	27.85
579.003	27.87
579.197	27.85
579.392	27.99
579.587	28.13
579.781	28.14
579.976	28.2
580.171	28.14
580.365	28.19
580.56	28.22
580.755	28.19
580.949	28.18
581.144	28.18
581.338	28.27
581.533	28.28
581.727	28.14
581.922	28.29
582.116	28.32
582.311	28.38
582.505	28.42
582.7	28.5
582.894	28.64
583.089	28.74
583.283	28.8
583.478	28.9
583.672	28.9
583.866	29.08
584.061	28.9
584.255	28.78
584.449	28.71
584.644	28.66
584.838	28.53
585.032	28.34
585.226	28.54
585.421	28.47
585.615	28.52
585.809	28.45
586.003	28.39
586.198	28.52
586.392	28.64
586.586	28.7
586.78	28.68
586.974	28.72
587.168	28.88
587.363	28.66
587.557	28.78
587.751	28.73
587.945	28.87
588.139	28.91
588.333	28.87
588.527	28.92
588.721	28.96
588.915	29.08
589.109	29.08
589.303	29.03
589.497	29.16
589.691	29.05
589.885	29.1
590.079	29.01
590.273	29.1
590.466	29.14
590.66	29.09
590.854	29.18
591.048	29.12
591.242	29.07
591.436	29.15
591.629	29.17
591.823	29.24
592.017	29.21
592.211	29.2
592.404	29.16
592.598	28.97
592.792	28.99
592.986	29.06
593.179	29.08
593.373	29.1
593.567	29.02
593.76	29.05
593.954	28.98
594.147	29.02
594.341	29.01
594.535	28.93
594.728	29.05
594.922	29.04
595.115	28.87
595.309	28.9
595.502	29.01
595.696	29.05
595.889	28.94
596.083	28.94
596.276	28.83
596.47	28.9
596.663	28.95
596.856	28.93
597.05	28.91
597.243	28.87
597.437	28.88
597.63	28.91
597.823	28.98
598.017	29.22
598.21	29.39
598.403	29.54
598.596	29.62
598.79	29.54
598.983	29.67
599.176	29.8
599.369	29.95
599.563	29.82
599.756	29.77
599.949	29.63
600.142	29.34
600.335	29.36
600.528	29.22
600.722	29.26
600.915	29.5
601.108	29.4
601.301	29.37
601.494	29.52
601.687	29.73
601.88	29.68
602.073	29.73
602.266	29.81
602.459	29.75
602.652	29.82
602.845	29.77
603.038	29.69
603.231	29.77
603.424	29.79
603.617	29.57
603.809	29.5
604.002	29.44
604.195	29.38
604.388	29.38
604.581	29.36
604.774	29.31
604.966	29.28
605.159	29.24
605.352	29.25
605.545	29.2
605.737	29.36
605.93	29.47
606.123	29.77
606.316	29.97
606.508	29.87
606.701	29.95
606.894	30.06
607.086	30.15
607.279	30.21
607.471	30.22
607.664	30.27
607.857	30.14
608.049	30.14
608.242	30.03
608.434	29.93
608.627	30.15
608.819	30.05
609.012	29.94
609.204	29.96
609.397	29.82
609.589	29.75
609.782	29.84
609.974	30
610.166	29.92
610.359	29.81
610.551	29.84
610.743	29.62
610.936	29.82
611.128	29.84
611.32	29.91
611.513	30.12
611.705	30.21
611.897	30.2
612.09	30.25
612.282	30.32
612.474	30.45
612.666	30.4
612.858	30.46
613.051	30.19
613.243	30.22
613.435	30.11
613.627	30.01
613.819	30.04
614.011	29.96
614.203	29.83
614.395	29.77
614.588	29.76
614.78	29.83
614.972	29.86
615.164	29.93
615.356	29.94
615.548	29.93
615.74	29.98
615.932	29.99
616.124	29.97
616.315	30.04
616.507	30.15
616.699	30.17
616.891	29.97
617.083	30.07
617.275	30.05
617.467	30
617.659	29.99
617.85	30.08
618.042	30.02
618.234	30.01
618.426	29.85
618.618	29.69
618.809	29.67
619.001	29.82
619.193	29.76
619.384	30.09
619.576	30.13
619.768	30.22
619.959	30.25
620.151	30.4
620.343	30.39
620.534	30.61
620.726	30.52
620.917	30.74
621.109	30.83
621.301	30.98
621.492	30.88
621.684	31.03
621.875	31.04
622.067	30.98
622.258	30.99
622.45	31.03
622.641	30.92
622.832	31.06
623.024	30.76
623.215	30.7
623.407	30.64
623.598	30.56
623.789	30.63
623.981	30.56
624.172	30.46
624.363	30.37
624.555	30.33
624.746	30.3
624.937	30.34
625.129	30.52
625.32	30.54
625.511	30.47
625.702	30.42
625.893	30.29
626.085	30.2
626.276	30.1
626.467	30.05
626.658	29.92
626.849	29.71
627.04	29.58
627.231	29.37
627.422	29.38
627.614	29.46
627.805	29.54
627.996	29.55
628.187	29.66
628.378	29.89
628.569	29.95
628.76	30.16
628.951	30.55
629.142	30.62
629.332	30.79
629.523	30.76
629.714	30.8
629.905	30.7
630.096	30.7
630.287	30.65
630.478	30.39
630.669	30.33
630.859	30.43
631.05	30.54
631.241	30.6
631.432	30.48
631.623	30.62
631.813	30.6
632.004	30.46
632.195	30.43
632.385	30.42
632.576	30.66
632.767	30.55
632.957	30.48
633.148	30.35
633.339	30.38
633.529	30.52
633.72	30.37
633.91	30.3
634.101	30.45
634.292	30.43
634.482	30.51
634.673	30.48
634.863	30.58
635.054	30.44
635.244	30.35
635.435	30.34
635.625	30.12
635.815	30.27
636.006	30.22
636.196	30.18
636.387	30.3
636.577	30.37
636.767	30.35
636.958	30.39
637.148	30.5
637.338	30.49
637.529	30.41
637.719	30.45
637.909	30.48
638.099	30.5
638.29	30.45
638.48	30.46
638.67	30.22
638.86	30.16
639.05	30.09
639.241	30.03
639.431	30.28
639.621	30.47
639.811	30.71
640.001	30.59
640.191	30.58
640.381	30.72
640.571	30.62
640.761	30.64
640.951	30.67
641.141	30.73
641.331	30.87
641.521	30.78
641.711	30.78
641.901	30.68
642.091	30.54
642.281	30.53
642.471	30.53
642.661	30.51
642.851	30.56
643.041	30.6
643.231	30.75
643.42	30.77
643.61	30.81
643.8	30.82
643.99	30.8
644.18	30.95
644.369	30.99
644.559	31.15
644.749	31.36
644.939	31.49
645.128	31.4
645.318	31.44
645.508	31.3
645.697	31.1
645.887	30.94
646.076	31.11
646.266	31.09
646.456	31.15
646.645	31.16
646.835	31.22
647.024	31.13
647.214	31.23
647.403	31.24
647.593	31.46
647.782	31.65
647.972	31.84
648.161	31.68
648.351	31.72
648.54	31.8
648.73	31.7
648.919	31.28
649.108	31.33
649.298	31.43
649.487	31.31
649.677	31.07
649.866	30.82
650.055	30.82
650.244	30.75
650.434	30.68
650.623	30.68
650.812	30.63
651.002	30.93
651.191	30.9
651.38	30.85
651.569	30.73
651.758	30.89
651.947	31.02
652.137	30.99
652.326	31.26
652.515	31.26
652.704	31.29
652.893	31.36
653.082	31.22
653.271	31.35
653.46	31.15
653.649	31.41
653.838	31.24
654.027	31.08
654.216	30.95
654.405	30.75
654.594	30.89
654.783	30.74
654.972	30.59
655.161	30.59
655.35	30.51
655.539	30.6
655.728	30.35
655.916	30.63
656.105	30.6
656.294	30.56
656.483	30.61
656.672	30.5
656.86	30.28
657.049	30.3
657.238	30.33
657.427	30.33
657.615	30.44
657.804	30.58
657.993	30.36
658.181	30.52
658.37	30.54
658.559	30.67
658.747	30.71
658.936	30.9
659.125	30.69
659.313	30.71
659.502	30.72
659.69	30.6
659.879	30.66
660.067	30.63
660.256	30.5
660.444	30.44
660.633	30.21
660.821	30.23
661.01	30.41
661.198	30.88
661.387	30.97
661.575	31
661.763	31.14
661.952	31.08
662.14	31.41
662.328	31.57
662.517	31.89
662.705	31.71
662.893	31.87
663.082	31.55
663.27	31.39
663.458	31.23
663.646	31.06
663.834	30.91
664.023	30.78
664.211	30.29
664.399	30.2
664.587	29.99
664.775	30.11
664.963	29.74
665.152	29.86
665.34	30.09
665.528	30.02
665.716	30.16
665.904	30.37
666.092	30.41
666.28	30.6
666.468	30.68
666.656	30.82
666.844	31.2
667.032	31.3
667.22	31.33
667.408	31.19
667.596	31.19
667.784	31.18
667.971	30.95
668.159	31.1
668.347	30.97
668.535	31.01
668.723	30.92
668.911	30.5
669.098	30.46
669.286	30.36
669.474	30.12
669.662	30.32
669.849	30.34
670.037	30.35
670.225	30.22
670.413	30.73
670.6	30.5
670.788	30.5
670.976	30.67
671.163	30.57
671.351	30.5
671.538	30.76
671.726	30.81
671.913	30.61
672.101	30.77
672.289	30.75
672.476	30.4
672.664	30.67
672.851	30.82
673.039	30.72
673.226	30.64
673.413	30.8
673.601	30.81
673.788	30.8
673.976	31.01
674.163	31.05
674.35	30.88
674.538	30.76
674.725	30.68
674.912	30.59
675.1	30.56
675.287	30.54
675.474	30.64
675.662	30.7
675.849	30.33
676.036	30.26
676.223	30.25
676.411	30.51
676.598	30.71
676.785	30.74
676.972	30.67
677.159	30.73
677.346	30.87
677.533	30.9
677.721	30.81
677.908	30.69
678.095	30.86
678.282	30.88
678.469	30.69
678.656	30.68
678.843	30.75
679.03	30.62
679.217	30.87
679.404	31.11
679.591	30.89
679.778	30.89
679.964	31.24
680.151	31.15
680.338	31.26
680.525	31.49
680.712	31.37
680.899	31.37
681.086	31.56
681.272	31.44
681.459	31.29
681.646	31.7
681.833	31.67
682.02	31.65
682.206	31.65
682.393	31.61
682.58	31.24
682.766	31.26
682.953	31.11
683.14	30.98
683.326	30.98
683.513	30.97
683.7	30.74
683.886	30.58
684.073	30.66
684.259	30.86
684.446	30.74
684.632	30.9
684.819	30.8
685.005	31.05
685.192	31.27
685.378	31.28
685.565	31.2
685.751	31.14
685.938	31.16
686.124	30.87
686.31	30.76
686.497	30.76
686.683	30.87
686.87	31.08
687.056	30.97
687.242	30.54
687.429	30.59
687.615	30.68
687.801	30.73
687.987	30.97
688.174	31.25
688.36	31.2
688.546	31.35
688.732	31.23
688.918	31.35
689.105	31.09
689.291	31.3
689.477	31.25
689.663	31.1
689.849	31.16
690.035	30.96
690.221	31.04
690.407	31.19
690.593	31.01
690.779	31.01
690.965	31.12
691.151	31.15
691.337	31.07
691.523	30.94
691.709	31.25
691.895	31.31
692.081	31.47
692.267	31.43
692.453	31.36
692.639	31.42
692.825	31.73
693.011	31.63
693.196	31.9
693.382	31.95
693.568	32.03
693.754	32.03
693.94	31.72
694.125	31.7
694.311	31.51
694.497	31.59
694.682	31.46
694.868	31.4
695.054	31.19
695.239	31.05
695.425	31.02
695.611	30.86
695.796	30.75
695.982	30.85
696.168	30.94
696.353	30.91
696.539	30.88
696.724	31.32
696.91	31.27
697.095	31.25
697.281	31.22
697.466	31.07
697.652	31.24
697.837	31.23
698.023	31.29
698.208	31.23
698.393	31.19
698.579	31.15
698.764	30.96
698.949	31.02
699.135	30.99
699.32	31.26
699.505	31.29
699.691	31.3
699.876	31.3
700.061	31.31
700.246	31.15
700.432	31.16
700.617	31.05
700.802	30.73
700.987	30.55
701.172	30.79
701.358	30.56
701.543	31.09
701.728	31.25
701.913	31.21
702.098	30.95
702.283	31.23
702.468	31.53
702.653	31.59
702.838	31.99
703.023	32.24
703.208	32.48
703.393	32.42
703.578	32.56
703.763	32.11
703.948	32.15
704.133	32.6
704.318	32.58
704.503	32.43
704.688	32.7
704.873	32.37
705.057	32.42
705.242	32.02
705.427	32.25
705.612	32.2
705.797	32.38
705.981	32.46
706.166	32.57
706.351	32.29
706.536	32.51
706.72	32.26
706.905	32.26
707.09	31.8
707.274	31.79
707.459	31.32
707.644	30.93
707.828	30.83
708.013	30.75
708.197	30.46
708.382	30.51
708.567	30.17
708.751	29.82
708.936	30.14
709.12	30.41
709.305	30.44
709.489	31.01
709.673	31.09
709.858	31.15
710.042	31.37
710.227	31.74
710.411	31.65
710.596	31.45
710.78	31.83
710.964	31.65
711.149	31.73
711.333	31.28
711.517	31.51
711.702	31.69
711.886	31.85
712.07	31.64
712.254	31.32
712.438	31.65
712.623	31.99
712.807	32.24
712.991	32.08
713.175	31.9
713.359	31.93
713.544	31.3
713.728	31.23
713.912	31.01
714.096	30.94
714.28	30.92
714.464	30.86
714.648	30.8
714.832	30.62
715.016	30.83
715.2	30.85
715.384	31.21
715.568	31.28
715.752	31.07
715.936	31.11
716.12	31.43
716.304	31.59
716.488	31.24
716.671	31.2
716.855	30.99
717.039	31.04
717.223	31.05
717.407	31.12
717.59	31.14
717.774	31.52
717.958	31.87
718.142	31.5
718.325	31.4
718.509	31.68
718.693	31.81
718.877	32.21
719.06	32.15
719.244	32.09
719.428	31.77
719.611	31.93
719.795	32.01
719.978	31.58
720.162	31.89
720.345	31.66
720.529	31.63
720.713	31.62
720.896	31.26
721.08	30.94
721.263	30.96
721.446	31.39
721.63	31.23
721.813	30.79
721.997	30.79
722.18	30.93
722.364	31.43
722.547	31.71
722.73	31.91
722.914	32.27
723.097	32.37
723.28	32.68
723.464	32.75
723.647	32.76
723.83	33.04
724.013	33.38
724.197	33.12
724.38	33.29
724.563	33.39
724.746	33.27
724.929	33.46
725.112	33.71
725.296	33.66
725.479	33.55
725.662	33.79
725.845	33.71
726.028	33.66
726.211	33.22
726.394	33.11
726.577	32.87
726.76	32.85
726.943	32.33
727.126	32.28
727.309	32.02
727.492	31.84
727.675	31.46
727.858	31.37
728.041	31.39
728.224	31.97
728.407	31.55
728.589	31.42
728.772	31.43
728.955	31.63
729.138	31.39
729.321	31.25
729.503	31.16
729.686	31.4
729.869	31.66
730.052	31.53
730.234	31.42
730.417	31.79
730.6	32.3
730.782	32.39
730.965	32.27
731.148	32.7
731.33	33.08
731.513	33.7
731.695	33.3
731.878	33.05
732.061	32.98
732.243	33.33
732.426	33.19
732.608	32.82
732.791	32.83
732.973	32.53
733.156	32.35
733.338	32.13
733.52	31.84
733.703	32.96
733.885	33.22
734.068	33.29
734.25	32.73
734.432	32.38
734.615	32.27
734.797	31.91
734.979	32.27
735.162	32.29
735.344	32.07
735.526	31.93
735.708	30.93
735.891	30.45
736.073	30.46
736.255	30.25
736.437	30.72
736.619	30.88
736.802	30.55
736.984	31
737.166	31.46
737.348	31.95
737.53	31.84
737.712	31.75
737.894	31.71
738.076	31.96
738.258	32.73
738.44	31.92
738.622	31.57
738.804	32.19
738.986	31.66
739.168	31.11
739.35	31.02
739.532	31.1
739.714	31.78
739.896	31.85
740.078	31.5
740.259	30.76
740.441	31.62
740.623	32.08
740.805	32.01
740.987	32.23
741.168	32.29
741.35	32.2
741.532	32.55
741.714	32.04
741.895	32.78
742.077	33.06
742.259	32.95
742.44	32.78
742.622	33.08
742.804	32.83
742.985	32.47
743.167	32.74
743.348	32.54
743.53	32.29
743.711	31.75
743.893	31.92
744.075	31.74
744.256	31.64
744.438	32.09
744.619	31.82
744.8	31.83
744.982	32
745.163	31.68
745.345	31.84
745.526	31.88
745.707	33.01
745.889	32.69
746.07	32.43
746.252	33.47
746.433	33.22
746.614	33.06
746.795	33.38
746.977	33.82
747.158	34.04
747.339	33.88
747.52	33.2
747.702	32.83
747.883	32.05
748.064	32.33
748.245	31.73
748.426	31.72
748.607	31.49
748.788	31.68
748.97	31.56
749.151	30.81
749.332	31.02
749.513	31.42
749.694	31.22
749.875	31.18
750.056	30.89
750.237	30.2
750.418	30.12
750.599	30.15
750.78	29.99
750.96	30.12
751.141	30.38
751.322	30.96
751.503	31.32
751.684	31.06
751.865	31.87
752.046	31.98
752.226	32.72
752.407	32.34
752.588	32.48
752.769	32.7
752.949	32.06
753.13	32.24
753.311	31.13
753.492	31.06
753.672	31.45
753.853	30.56
754.034	30.8
754.214	30.91
754.395	31.2
754.575	31.83
754.756	32.23
754.937	32.32
755.117	32.38
755.298	32.85
755.478	32.5
755.659	32.21
755.839	32.46
756.02	32.15
756.2	32.36
756.381	32.51
756.561	31.65
756.741	30.92
756.922	30.99
757.102	31.43
757.283	31.69
757.463	31.93
757.643	32.52
757.823	32.7
758.004	32.67
758.184	32.29
758.364	32.5
758.545	32.83
758.725	32.76
758.905	32.6
759.085	32.53
759.265	32.46
759.446	32.22
759.626	32.1
759.806	32.03
759.986	32.53
760.166	32.89
760.346	32.83
760.526	33.15
760.706	32.75
760.886	32.67
761.066	32.39
761.246	32.61
761.426	32.5
761.606	32.77
761.786	32.27
761.966	32.05
762.146	31.58
762.326	31.59
762.506	31.52
762.686	31.63
762.866	32.25
763.046	32.12
763.225	32.03
763.405	32.56
763.585	32.3
763.765	32.61
763.945	32.6
764.124	33.01
764.304	32.75
764.484	32.86
764.664	33.01
764.843	32.74
765.023	32.9
765.203	32.83
765.382	32.61
765.562	32.6
765.741	32.43
765.921	32.74
766.101	32.32
766.28	32.21
766.46	32.14
766.639	32.24
766.819	31.89
766.998	31.93
767.178	31.54
767.357	31.18
767.537	31.19
767.716	31.79
767.896	31.39
768.075	31.38
768.254	31.77
768.434	32.23
768.613	32.63
768.792	32.58
768.972	32.49
769.151	33.25
769.33	33.52
769.51	33.45
769.689	33.3
769.868	33.04
770.047	33.6
770.226	33.11
770.406	32.3
770.585	31.51
770.764	31.79
770.943	31.78
771.122	32.18
771.301	32.34
771.48	32.34
771.66	31.88
771.839	32.45
772.018	31.85
772.197	32.14
772.376	32.13
772.555	33.27
772.734	33.16
772.913	32.82
773.092	31.91
773.271	32.32
773.449	32.49
773.628	31.89
773.807	32.29
773.986	31.44
774.165	31.13
774.344	30.91
774.523	30.1
774.701	29.98
774.88	29.78
775.059	30.18
775.238	28.4
775.417	28.45
775.595	29.84
775.774	29.52
775.953	30.3
776.131	30.99
776.31	31.26
776.489	30.78
776.667	30.52
776.846	31.27
777.025	31.25
777.203	31.77
777.382	31.29
777.56	31.34
777.739	30.42
777.917	30.85
778.096	31.12
778.274	31.07
778.453	31.31
778.631	32.19
778.81	32.15
778.988	31.81
779.166	32.51
779.345	33.41
779.523	32.78
779.702	33.35
779.88	32.97
780.058	31.92
780.237	31.84
780.415	32.34
780.593	32.09
780.771	31.94
780.95	32.32
781.128	32.14
781.306	31.69
781.484	32.44
781.662	33.43
781.841	33.74
782.019	33.82
782.197	33.52
782.375	32.93
782.553	32.94
782.731	32.5
782.909	31.7
783.087	31.89
783.265	31.59
783.443	30.81
783.621	28.84
783.799	28.59
783.977	29.05
784.155	30.09
784.333	30.48
784.511	30.64
784.689	29.98
784.867	30.68
785.045	29.83
785.223	29.74
785.4	29.39
785.578	29.54
785.756	30.6
785.934	30.72
786.112	30.65
786.289	31.07
786.467	31.31
786.645	31.77
786.823	31.35
787	32.33
787.178	32.22
787.356	32.99
787.533	33.85
787.711	33.01
787.889	31.93
788.066	31.56
788.244	30.97
788.421	30.98
788.599	31.44
788.776	31.62
788.954	31.54
789.131	31.58
789.309	31.9
789.486	31.43
789.664	31.61
789.841	32.11
790.019	32.59
790.196	32.41
790.373	31.83
790.551	32.05
790.728	32.03
790.906	32.27
791.083	31.53
791.26	31.32
791.437	31.12
791.615	31.27
791.792	32.36
791.969	32.68
792.146	33.71
792.324	32.99
792.501	33.71
792.678	33.65
792.855	32.81
793.032	33.78
793.209	33.96
793.387	34.72
793.564	34.6
793.741	34.2
793.918	32.84
794.095	32.78
794.272	33.06
794.449	32.2
794.626	31.38
794.803	31.56
794.98	32.03
795.157	30.81
795.334	30.49
795.511	30.41
795.688	29.94
795.864	30.5
796.041	29.75
796.218	30.55
796.395	29.96
796.572	30.44
796.749	30.21
796.925	30.15
797.102	30.23
797.279	31.04
797.456	30.93
797.632	31.1
797.809	31.27
797.986	32.36
798.162	31.56
798.339	31.6
798.516	31.2
798.692	31.52
798.869	30.93
799.046	31.2
799.222	30.68
799.399	31.07
799.575	31.02
799.752	30.73
799.928	29.8
800.105	29.58
800.281	30.44
800.458	31.44
800.634	31.01
800.811	31.72
800.987	31.33
801.163	31.26
801.34	31.07
801.516	30.81
801.692	31.48
801.869	31.36
802.045	32.13
802.221	32.76
802.398	32.36
802.574	31.85
802.75	30.65
802.926	32.21
803.103	31.54
803.279	30.68
803.455	31.24
803.631	30.6
803.807	30.75
803.983	30.56
804.16	29.88
804.336	31.24
804.512	31.82
804.688	32.48
804.864	30.8
805.04	31.38
805.216	32.53
805.392	32.57
805.568	33.71
805.744	33.6
805.92	34.09
806.096	34.37
806.272	33.27
806.448	32.65
806.623	32.95
806.799	33.86
806.975	33.76
807.151	34.11
807.327	33.42
807.503	31.77
807.678	32.47
807.854	32.46
808.03	31.97
808.206	31.73
808.381	32.49
808.557	31.89
808.733	31.74
808.908	32.2
809.084	31.82
809.26	32.53
809.435	32.98
809.611	33.17
809.787	33.23
809.962	32.69
810.138	33.75
810.313	33.26
810.489	33.4
810.664	33.29
810.84	32.98
811.015	32.91
811.191	33.25
811.366	33.4
811.542	32.83
811.717	33.79
811.892	34.57
812.068	33.76
812.243	34.45
812.419	34.3
812.594	33.12
812.769	33.01
812.944	32.22
813.12	31.27
813.295	31.73
813.47	32.52
813.645	31.04
813.821	29.61
813.996	29.25
814.171	30.67
814.346	30.9
814.521	33.11
814.697	34.03
814.872	34.77
815.047	34.99
815.222	34.19
815.397	34.09
815.572	34.67
815.747	35.68
815.922	36.34
816.097	35.12
816.272	35.29
816.447	34.93
816.622	33.27
816.797	34.21
816.972	34.2
817.147	35.47
817.322	36.25
817.496	37.12
817.671	37.43
817.846	36.43
818.021	36.5
818.196	36.09
818.371	35.72
818.545	36.88
818.72	36.19
818.895	35.63
819.069	34.76
819.244	33.81
819.419	32.11
819.594	31.97
819.768	32.41
819.943	32.59
820.117	33.04
820.292	33.62
820.467	33.27
820.641	32.85
820.816	33.11
820.99	32.81
821.165	32.38
821.339	32.49
821.514	32.08
821.688	31.96
821.863	31.79
822.037	31.66
822.212	31.63
822.386	31.62
822.56	31.77
822.735	31.61
822.909	31.76
823.084	31.98
823.258	31.94
823.432	32.02
823.606	32.08
823.781	32.01
823.955	32.17
824.129	32.08
824.303	32
824.478	31.93
824.652	31.8
824.826	31.15
825	30.88
825.174	30.66
825.348	30.84
825.523	30.62
825.697	30.77
825.871	30.63
826.045	30.37
826.219	30.31
826.393	30.12
826.567	30.64
826.741	31.34
826.915	31.31
827.089	31.82
827.263	32.18
827.437	32.44
827.611	32.33
827.784	31.58
827.958	31.44
828.132	31.67
828.306	31.92
828.48	31.93
828.654	31.62
828.827	31.42
829.001	31.33
829.175	30.87
829.349	31.12
829.522	31.29
829.696	31.71
829.87	32.32
830.044	32.45
830.217	32.31
830.391	32.87
830.565	33.4
830.738	34.16
830.912	33.67
831.085	32.41
831.259	32.66
831.432	33.07
831.606	33.65
831.779	33.24
831.953	32.19
832.126	32.42
832.3	31.43
832.473	31.51
832.647	31.09
832.82	30.6
832.994	31.22
833.167	30.75
833.34	30.69
833.514	30.58
833.687	30.49
833.86	31.31
834.034	30.65
834.207	30.24
834.38	30.08
834.553	31.05
834.727	31.61
834.9	31.04
835.073	30.5
835.246	30.64
835.419	31.72
835.593	31.81
835.766	31.83
835.939	32.23
836.112	32.99
836.285	32.78
836.458	30.76
836.631	30.44
836.804	29.54
836.977	30.07
837.15	30.37
837.323	28.67
837.496	29.48
837.669	27.97
837.842	28.25
838.015	27.47
838.188	26.59
838.361	27.7
838.533	27.34
838.706	30.06
838.879	31.3
839.052	29.43
839.225	30.3
839.398	29.32
839.57	31.3
839.743	30.57
839.916	30.34
840.088	27.93
840.261	28.59
840.434	29.07
840.607	28.33
840.779	29.09
840.952	29.96
841.124	29
841.297	30.58
841.47	29.2
841.642	29.91
841.815	29.4
841.987	33.26
842.16	32.81
842.332	34.64
842.505	36.3
842.677	35.12
842.85	32.98
843.022	33.49
843.194	31.03
843.367	31.24
843.539	31.33
843.712	33.22
843.884	31.67
844.056	31.77
844.229	28.19
844.401	28.63
844.573	27.23
844.745	27.36
844.918	28.36
845.09	27.6
845.262	26.2
845.434	26.05
845.606	25.23
845.779	25.09
845.951	26.22
846.123	27.66
846.295	26.38
846.467	28.88
846.639	30.14
846.811	27.7
846.983	29.4
847.155	29.57
847.327	33.93
847.499	35.22
847.671	38.33
847.843	36.33
848.015	38.83
848.187	37.65
848.359	35.6
848.531	36.37
848.703	37.64
848.875	39.31
849.047	41.71
849.218	36.69
849.39	37.62
849.562	37.35
849.734	40.31
849.905	38.88
850.077	41.19
850.249	41.1
850.421	43.13
850.592	43.99
850.764	42.21
850.936	36.91
851.107	39.28
851.279	36.3
851.451	37.54
851.622	33.7
851.794	32.48
851.965	30.24
852.137	29.79
852.308	27.57
852.48	31.19
852.651	27.39
852.823	29.74
852.994	27.91
853.166	27.17
853.337	26.23
853.509	27.13
853.68	24.69
853.851	25.03
854.023	24.69
854.194	26.33
854.365	21.81
854.537	28.64
854.708	32.37
854.879	29.02
855.05	33.43
855.222	32.93
855.393	35.86
855.564	36.47
855.735	38.42
855.906	38.09
856.078	38.66
856.249	38.96
856.42	36.97
856.591	37.82
856.762	40.77
856.933	36.55
857.104	36.7
857.275	39.09
857.446	43.31
857.617	43.06
857.788	44.93
857.959	44.39
858.13	46.12
858.301	43.53
858.472	41.46
858.643	42.2
858.814	41.68
858.985	36.53
859.155	36.66
859.326	36.57
859.497	37.46
859.668	33.78
859.839	31.32
860.009	26.93
860.18	30.13
860.351	30.79
860.522	26.96
860.692	32.39
860.863	39.88
861.034	36.41
861.204	34.67
861.375	36.97
861.546	42.83
861.716	41.78
861.887	47.04
862.057	47.53
862.228	45.88
862.398	50.44
862.569	48.79
862.739	48.75
862.91	46
863.08	47.08
863.251	41.2
863.421	36.53
863.592	42.09
863.762	36.75
863.932	37.93
864.103	37.89
864.273	35.18
864.443	35.03
864.614	34.09
864.784	32.05
864.954	30.5
865.125	34.57
865.295	38.12
865.465	38.15
865.635	35.06
865.805	33.02
865.976	36.83
866.146	39.57
866.316	40.72
866.486	41.35
866.656	43.55
866.826	38.5
866.996	40.08
867.166	36.55
867.336	33.94
867.506	40.76
867.676	42.97
867.846	38.18
868.016	36.93
868.186	36.27
868.356	34.38
868.526	32.68
868.696	39.04
868.866	39.32
869.036	44.44
869.206	42.94
869.376	39.01
869.545	35.81
869.715	37.5
869.885	37.35
870.055	37.01
870.224	44.64
870.394	50.08
870.564	49.75
870.734	44.95
870.903	38.31
871.073	40.41
871.243	42.03
871.412	44.05
871.582	43.32
871.751	40.95
871.921	41.52
872.091	37.41
872.26	35.75
872.43	31.31
872.599	34.82
872.769	37.49
872.938	37.66
873.108	40.25
873.277	35.26
873.446	33.71
873.616	37.03
873.785	39.66
873.955	32.86
874.124	31.86
874.293	35.12
874.463	34.17
874.632	32.74
874.801	31.9
874.971	33.48
875.14	34.48
875.309	33.51
875.478	31.51
875.647	32.68
875.817	34.02
875.986	36.19
876.155	35.91
876.324	33.67
876.493	35.28
876.662	33.03
876.831	28.4
877	31.65
877.17	34.54
877.339	33.37
877.508	28.95
877.677	28.86
877.846	26.82
878.015	30.62
878.184	30.4
878.352	32.44
878.521	34.74
878.69	39.27
878.859	36.16
879.028	36.6
879.197	37.03
879.366	36.99
879.534	39.56
879.703	38.22
879.872	34.84
880.041	34.88
880.21	32
880.378	32.16
880.547	30.31
880.716	31.47
880.884	31.9
881.053	32.4
881.222	32.65
881.39	32.69
881.559	32.17
881.727	32.73
881.896	33.14
882.065	33.65
882.233	33.5
882.402	33.04
882.57	32.5
882.739	32.23
882.907	32.16
883.076	32.19
883.244	31.49
883.412	32.29
883.581	31.84
883.749	30.7
883.918	30.55
884.086	29.66
884.254	31.07
884.423	32.37
884.591	32.42
884.759	32.31
884.927	32.69
885.096	34.2
885.264	35.07
885.432	35.84
885.6	36.07
885.769	35
885.937	36.7
886.105	36.64
886.273	36.92
886.441	35.72
886.609	38.5
886.777	37.49
886.945	35.06
887.113	33.95
887.281	34.58
887.449	37.74
887.617	40.98
887.785	42.11
887.953	42.68
888.121	41.29
888.289	45.78
888.457	42.58
888.625	42.42
888.793	48.74
888.961	48.99
889.129	54.03
889.296	54.51
889.464	56.29
889.632	57.57
889.8	56.7
889.967	58.77
890.135	57.08
