Data from 2938448_Reflection_3.txt Node
Date: Fri Jun 19 18:04:57 EDT 2015
User: robert
Spectrometer: USB4E03002
Autoset integration time: false
Trigger mode: 4
Integration Time (sec): 1.000000E-1
Scans to average: 10
Electric dark correction enabled: true
Nonlinearity correction enabled: false
Boxcar width: 5
Stray light correction enabled: false
XAxis mode: Wavelengths
Stop averaging: false
Number of Pixels in Spectrum: 3648
>>>>>Begin Spectral Data<<<<<
177.575	-535.67
177.794	-163.77
178.014	-320.41
178.233	-139.84
178.452	-59.69
178.672	-146.4
178.891	149.88
179.11	-588.8
179.33	-877.01
179.549	-400.74
179.768	-275.12
179.987	-282.72
180.207	-305.23
180.426	-743.71
180.645	-626.14
180.864	-1163.1
181.084	1766.97
181.303	824.91
181.522	468.77
181.741	495.33
181.96	312.84
182.179	264.71
182.398	211.57
182.618	234.62
182.837	269.45
183.056	240.07
183.275	231.08
183.494	209.36
183.713	239.38
183.932	281.45
184.151	301.79
184.37	478.53
184.589	836.05
184.808	787.84
185.027	847.55
185.246	688.38
185.465	1503.55
185.684	961750
185.903	-488.62
186.122	-455.47
186.341	-453.07
186.56	-395.22
186.779	-374.09
186.998	-339.64
187.216	-202.08
187.435	-128.84
187.654	-126.75
187.873	-180.76
188.092	-246.76
188.311	-206.95
188.53	-184.86
188.748	-225.97
188.967	-83.17
189.186	-174.75
189.405	-481.17
189.623	-10206.35
189.842	-1446.75
190.061	-293.12
190.28	-548.63
190.498	-499
190.717	746.25
190.936	649.1
191.154	608.27
191.373	383.75
191.592	395.06
191.81	1058.81
192.029	1965.58
192.248	533.74
192.466	475.96
192.685	582.16
192.904	396.89
193.122	764.48
193.341	-2321.27
193.559	6737.5
193.778	-14536.17
193.996	-3381.4
194.215	1975.1
194.433	874.38
194.652	-1809.47
194.87	-354.78
195.089	-771.89
195.307	-476.5
195.526	-1828.86
195.744	783.14
195.963	617250
196.181	2024.55
196.399	669.55
196.618	489.12
196.836	522.82
197.055	402.8
197.273	367.24
197.491	365.75
197.71	295.89
197.928	374.25
198.146	344.67
198.365	233.32
198.583	232.64
198.801	329.61
199.019	661.7
199.238	540.99
199.456	614.37
199.674	720.62
199.892	-4643.8
200.111	-499.14
200.329	-417.63
200.547	-279.9
200.765	-172.49
200.983	-214.44
201.202	-226.19
201.42	-282.41
201.638	-371.04
201.856	-325.04
202.074	-356.47
202.292	-417.99
202.51	-396.77
202.728	-397.03
202.946	-1949.26
203.165	-19134.21
203.383	1986.94
203.601	550.58
203.819	1457.97
204.037	-1219.87
204.255	-742.49
204.473	-512.99
204.691	-821.08
204.909	-486.31
205.127	-284
205.345	-244.96
205.562	-233.99
205.78	-204.9
205.998	-266
206.216	-640.15
206.434	-2619.6
206.652	1066.03
206.87	491.97
207.088	3528.23
207.306	716.5
207.523	263.73
207.741	213.87
207.959	202.86
208.177	196.62
208.395	180.67
208.612	199.26
208.83	202.58
209.048	219.33
209.266	220.13
209.483	185.95
209.701	168.37
209.919	212.38
210.136	282.6
210.354	382.72
210.572	319.58
210.79	392.49
211.007	349.47
211.225	380.44
211.442	401.17
211.66	262.38
211.878	186
212.095	136.35
212.313	117.47
212.53	84.91
212.748	75.06
212.966	70.3
213.183	51.39
213.401	73.65
213.618	75.69
213.836	72.48
214.053	89.42
214.271	147.42
214.488	277.69
214.705	256.66
214.923	203.53
215.14	222.06
215.358	245.29
215.575	499.89
215.793	337.01
216.01	216.84
216.227	195.86
216.445	258.19
216.662	198.19
216.879	192.62
217.097	204.65
217.314	189.99
217.531	206.88
217.749	183.92
217.966	186.12
218.183	191.38
218.4	177.34
218.618	169.33
218.835	133.72
219.052	160.46
219.269	149.21
219.487	144.34
219.704	137.31
219.921	119.93
220.138	128.99
220.355	129.54
220.572	110.48
220.79	108.18
221.007	110.58
221.224	114.54
221.441	86.13
221.658	86.76
221.875	81.62
222.092	66.94
222.309	70.29
222.526	61.79
222.743	66.37
222.96	66.74
223.177	61.37
223.394	48.11
223.611	47.5
223.828	47.62
224.045	46.94
224.262	47.74
224.479	53.18
224.696	46.73
224.913	48.52
225.13	43.74
225.347	44.88
225.564	41.56
225.781	37.87
225.997	33.52
226.214	32.09
226.431	29.13
226.648	24.8
226.865	22.71
227.082	20.9
227.298	20.51
227.515	20.07
227.732	19.45
227.949	19.1
228.165	20.2
228.382	20.61
228.599	19.79
228.816	19.91
229.032	20.4
229.249	21.56
229.466	22.98
229.682	22.16
229.899	21.71
230.116	20.43
230.332	21.93
230.549	23.1
230.765	25.43
230.982	26.52
231.199	26.75
231.415	29.63
231.632	28
231.848	29.05
232.065	28.89
232.281	30.83
232.498	30.68
232.714	29.04
232.931	30.68
233.147	30.39
233.364	31.64
233.58	30.59
233.797	31.46
234.013	32.96
234.23	30.12
234.446	32.13
234.662	29.89
234.879	30.2
235.095	27.73
235.312	25.08
235.528	24.53
235.744	23.76
235.961	24.67
236.177	23.83
236.393	24.84
236.61	26.37
236.826	25.57
237.042	25.88
237.258	26.01
237.475	27.28
237.691	27.11
237.907	27.13
238.123	25.35
238.339	24.04
238.556	22.92
238.772	21.69
238.988	20.97
239.204	19.73
239.42	19.31
239.636	18.9
239.853	18.77
240.069	17.92
240.285	16.56
240.501	16.24
240.717	16.62
240.933	15.92
241.149	15.26
241.365	15.17
241.581	15.22
241.797	15.46
242.013	15.16
242.229	14.51
242.445	14.83
242.661	14.88
242.877	15.19
243.093	14.59
243.309	14.71
243.525	14.84
243.741	14.7
243.957	14.76
244.173	12.96
244.388	12.7
244.604	12.65
244.82	12.91
245.036	12.24
245.252	11.41
245.468	10.6
245.683	10.37
245.899	10.24
246.115	10.24
246.331	9.74
246.547	10.39
246.762	10.24
246.978	10.31
247.194	9.97
247.409	10.24
247.625	11.29
247.841	12.19
248.057	12.6
248.272	12.39
248.488	11.88
248.703	11.17
248.919	12.09
249.135	12.19
249.35	11.9
249.566	11.32
249.782	12.41
249.997	11.52
250.213	11.74
250.428	10.92
250.644	11.49
250.859	12.45
251.075	13.85
251.29	13.19
251.506	12.99
251.721	13.99
251.937	14.87
252.152	14.24
252.368	13.88
252.583	14.34
252.798	15.19
253.014	15.95
253.229	16.16
253.445	15.46
253.66	14.13
253.875	13.63
254.091	12.45
254.306	12.18
254.521	11.68
254.737	12.73
254.952	11.18
255.167	10.97
255.383	10.9
255.598	10.34
255.813	9.84
256.028	10.24
256.244	11.47
256.459	11.58
256.674	10.89
256.889	10.33
257.104	9.85
257.32	9.76
257.535	9.89
257.75	9.13
257.965	8.72
258.18	8.77
258.395	8.82
258.61	8.34
258.826	8.04
259.041	7.81
259.256	8.28
259.471	8.47
259.686	8.74
259.901	8.59
260.116	9.08
260.331	9.53
260.546	9.96
260.761	9.84
260.976	10.21
261.191	10.6
261.406	11.92
261.621	12.31
261.836	11.59
262.05	11.34
262.265	11.78
262.48	11.85
262.695	11.78
262.91	11.97
263.125	12.14
263.34	11.92
263.555	11.22
263.769	10.53
263.984	10.43
264.199	11.04
264.414	11.35
264.629	10.7
264.843	10.16
265.058	9.93
265.273	9.74
265.488	9.88
265.702	9.62
265.917	10.91
266.132	10.5
266.346	10.25
266.561	10.69
266.776	10.63
266.99	10.37
267.205	10.99
267.42	11.17
267.634	10.65
267.849	9.77
268.063	9.89
268.278	9.02
268.492	8.96
268.707	8.67
268.922	8.41
269.136	7.94
269.351	8.17
269.565	7.94
269.78	7.58
269.994	7.52
270.209	8.44
270.423	8.7
270.637	8.92
270.852	9.34
271.066	9.59
271.281	9.71
271.495	9.79
271.709	9.82
271.924	9.83
272.138	10.34
272.353	10.91
272.567	10.63
272.781	10.86
272.996	10.45
273.21	10.3
273.424	9.63
273.638	9.15
273.853	9.55
274.067	9.41
274.281	9.57
274.495	8.8
274.71	8.53
274.924	8.07
275.138	7.73
275.352	8.54
275.566	8.89
275.781	8.98
275.995	9.7
276.209	10.23
276.423	10.56
276.637	10.32
276.851	10.74
277.065	10.86
277.279	11.48
277.493	11.36
277.707	10.54
277.921	10.14
278.135	10.4
278.349	9.53
278.563	8.38
278.777	8.44
278.991	8.27
279.205	8.36
279.419	8.1
279.633	8.84
279.847	9.09
280.061	8.64
280.275	8.63
280.489	8.42
280.703	8.76
280.917	8.91
281.131	8.4
281.344	8.28
281.558	7.88
281.772	8.34
281.986	7.84
282.2	7.96
282.414	7.88
282.627	7.63
282.841	7.65
283.055	7.87
283.269	8.17
283.482	8.69
283.696	8.66
283.91	9.13
284.123	8.74
284.337	8.82
284.551	8.42
284.764	9.01
284.978	9.29
285.192	9.38
285.405	9.42
285.619	9.37
285.833	9.13
286.046	9.64
286.26	9.6
286.473	10.08
286.687	9.91
286.9	10.23
287.114	10.17
287.327	10.35
287.541	9.88
287.754	9.58
287.968	9.51
288.181	9.73
288.395	9.61
288.608	9.89
288.822	10.03
289.035	10.41
289.248	10.31
289.462	10.43
289.675	10.32
289.889	11.01
290.102	10.91
290.315	11.2
290.529	11.42
290.742	11.35
290.955	11.35
291.169	11.25
291.382	11.26
291.595	11.7
291.808	12.05
292.022	11.69
292.235	11.61
292.448	11.29
292.661	10.75
292.875	10.27
293.088	10.47
293.301	10.68
293.514	10.35
293.727	9.81
293.94	9.74
294.153	9.4
294.367	9.65
294.58	9.3
294.793	9.3
295.006	10.08
295.219	10.58
295.432	10.74
295.645	10.52
295.858	10.68
296.071	10.57
296.284	10.64
296.497	10.87
296.71	11.03
296.923	11.41
297.136	11.82
297.349	11.35
297.562	11.12
297.775	10.77
297.988	10.92
298.201	10.8
298.414	10.78
298.626	11.16
298.839	11.28
299.052	11.04
299.265	11.15
299.478	10.85
299.691	11.18
299.903	11.23
300.116	11.33
300.329	11.11
300.542	11.46
300.755	11.93
300.967	11.44
301.18	11.18
301.393	11.45
301.605	11.27
301.818	11.81
302.031	11.35
302.243	11.5
302.456	11.25
302.669	11.1
302.881	11.48
303.094	11.53
303.307	11.42
303.519	10.99
303.732	11.22
303.944	11.65
304.157	12.12
304.37	12.27
304.582	12.11
304.795	12.92
305.007	13.55
305.22	13.07
305.432	13.34
305.645	13.27
305.857	13.71
306.069	13.83
306.282	13.9
306.494	13.77
306.707	14.05
306.919	14.5
307.132	13.75
307.344	13.3
307.556	13.3
307.769	13.71
307.981	14.05
308.193	13.61
308.406	12.71
308.618	12.19
308.83	11.76
309.043	11.75
309.255	11.48
309.467	12.14
309.679	12.37
309.892	11.82
310.104	11.23
310.316	11.49
310.528	11.91
310.74	12.58
310.953	12.81
311.165	13.1
311.377	13.01
311.589	13.3
311.801	13.06
312.013	13.35
312.225	14.25
312.437	15.04
312.649	14.78
312.862	14.73
313.074	14.66
313.286	15.38
313.498	15.37
313.71	15.67
313.922	15.44
314.134	15.39
314.346	14.53
314.558	14.99
314.77	14.52
314.982	14.35
315.193	14.89
315.405	14.59
315.617	13.88
315.829	14.06
316.041	14.38
316.253	14.61
316.465	14.96
316.677	15.64
316.888	15.55
317.1	14.98
317.312	15.05
317.524	14.62
317.736	15.47
317.947	16.19
318.159	16.05
318.371	15.24
318.583	14.92
318.794	14.56
319.006	14.66
319.218	14.8
319.43	15.12
319.641	15.65
319.853	15.64
320.064	15.98
320.276	15.78
320.488	15.8
320.699	15.68
320.911	15.83
321.123	16
321.334	16.11
321.546	15.68
321.757	16.04
321.969	16.21
322.18	16.51
322.392	16.02
322.603	15.48
322.815	15.73
323.026	15.98
323.238	16.05
323.449	16.01
323.661	15.79
323.872	15.51
324.083	15.53
324.295	14.87
324.506	15
324.718	15.22
324.929	15.81
325.14	15.62
325.352	15.84
325.563	16.59
325.774	17.42
325.986	17.9
326.197	18.36
326.408	18.71
326.62	19.3
326.831	19.46
327.042	19.01
327.253	19.19
327.464	19.74
327.676	19.99
327.887	19.44
328.098	18.73
328.309	18.63
328.52	19.17
328.732	19.01
328.943	19.3
329.154	19.14
329.365	20.02
329.576	20.26
329.787	20.2
329.998	20.66
330.209	21.04
330.42	21.92
330.631	21.66
330.842	21.76
331.053	21.71
331.264	21.79
331.475	22.07
331.686	21.48
331.897	21.58
332.108	21.38
332.319	21.65
332.53	21.7
332.741	21.1
332.952	21.86
333.163	22.44
333.374	23.15
333.585	22.89
333.795	23.38
334.006	24.21
334.217	24.3
334.428	24.71
334.639	24.4
334.849	24.63
335.06	24.92
335.271	24.71
335.482	23.52
335.692	22.99
335.903	23.29
336.114	22.69
336.325	22.36
336.535	22.29
336.746	22.15
336.957	22.53
337.167	22.19
337.378	22.5
337.589	22.69
337.799	22.53
338.01	23.17
338.22	23.29
338.431	23.36
338.642	24.14
338.852	23.76
339.063	23.82
339.273	23.1
339.484	23.36
339.694	23.21
339.905	23.54
340.115	24.33
340.326	23.78
340.536	23.67
340.746	23.9
340.957	23.21
341.167	24.02
341.378	24.01
341.588	24.52
341.799	24.33
342.009	23.51
342.219	22.6
342.43	22.32
342.64	22.38
342.85	22.11
343.061	21.7
343.271	21.65
343.481	21.17
343.691	20.97
343.902	21.01
344.112	21.31
344.322	22.15
344.532	22.56
344.743	22.71
344.953	22.68
345.163	22.41
345.373	22.92
345.583	23.08
345.793	22.79
346.004	23.4
346.214	23.29
346.424	23.25
346.634	22.98
346.844	22.63
347.054	21.97
347.264	22.6
347.474	23.01
347.684	22.81
347.894	22.43
348.104	22.8
348.314	22.51
348.524	22.11
348.734	22.09
348.944	21.8
349.154	21.76
349.364	22.33
349.574	21.43
349.784	21.48
349.994	21.56
350.204	21.83
350.413	21.38
350.623	20.92
350.833	21.13
351.043	20.67
351.253	20.52
351.463	21.16
351.672	21.2
351.882	21.51
352.092	21.4
352.302	21.53
352.511	21.48
352.721	21.63
352.931	22.54
353.141	22.28
353.35	22.33
353.56	22.68
353.77	22.82
353.979	22.73
354.189	22.5
354.399	22.62
354.608	22.24
354.818	22.37
355.027	22.4
355.237	21.55
355.447	21.77
355.656	21.84
355.866	21.38
356.075	21
356.285	20.84
356.494	21.09
356.704	20.94
356.913	21.11
357.123	20.65
357.332	20.36
357.542	20.83
357.751	20.84
357.96	21.24
358.17	21.62
358.379	21.59
358.589	21.67
358.798	21.43
359.007	21.17
359.217	20.93
359.426	20.93
359.635	21.06
359.845	20.84
360.054	20.76
360.263	20.17
360.472	20.01
360.682	19.92
360.891	19.65
361.1	19.48
361.309	19.62
361.519	19.54
361.728	19.55
361.937	19.61
362.146	19.5
362.355	19.53
362.564	19.65
362.774	19.96
362.983	19.88
363.192	19.67
363.401	20
363.61	19.93
363.819	20.3
364.028	20.09
364.237	19.5
364.446	19.53
364.655	19.02
364.864	18.94
365.073	19.08
365.282	18.91
365.491	19.42
365.7	19.46
365.909	19.19
366.118	18.83
366.327	19.04
366.536	19.57
366.745	19.46
366.954	19.55
367.162	19.66
367.371	18.87
367.58	18.92
367.789	18.61
367.998	17.75
368.207	17.84
368.415	17.94
368.624	17.86
368.833	17.6
369.042	17.54
369.25	18.02
369.459	17.85
369.668	17.74
369.877	18.12
370.085	18.09
370.294	18.39
370.503	18.04
370.711	17.46
370.92	17.47
371.129	17.57
371.337	16.93
371.546	16.47
371.754	16.39
371.963	16.22
372.171	15.4
372.38	15.41
372.589	15.53
372.797	15.58
373.006	16.05
373.214	15.66
373.423	15.42
373.631	15.93
373.84	15.9
374.048	15.76
374.256	15.77
374.465	16.16
374.673	15.97
374.882	15.62
375.09	15.7
375.298	15.24
375.507	15.48
375.715	15.58
375.923	15.28
376.132	15.03
376.34	14.91
376.548	14.76
376.757	14.63
376.965	14.57
377.173	14.72
377.381	14.69
377.59	14.98
377.798	14.96
378.006	14.57
378.214	15
378.423	15.2
378.631	15.34
378.839	15.64
379.047	15.48
379.255	15.35
379.463	15.17
379.671	15.04
379.879	14.95
380.088	14.63
380.296	14.8
380.504	14.34
380.712	14.54
380.92	14.5
381.128	14.29
381.336	13.97
381.544	13.68
381.752	13.33
381.96	13.24
382.168	13.32
382.376	13.44
382.584	13.1
382.791	13.33
382.999	12.91
383.207	12.57
383.415	12.33
383.623	12.35
383.831	12.53
384.039	12.83
384.247	12.64
384.454	12.17
384.662	11.77
384.87	11.84
385.078	11.3
385.285	11.1
385.493	11.2
385.701	11.23
385.909	11.23
386.116	11.21
386.324	10.97
386.532	11.13
386.739	11.23
386.947	11.12
387.155	11.34
387.362	11.54
387.57	11.83
387.778	11.71
387.985	11.49
388.193	11.32
388.4	10.97
388.608	10.96
388.816	10.66
389.023	10.3
389.231	10.24
389.438	9.74
389.646	9.68
389.853	9.22
390.061	9.09
390.268	9.07
390.475	9.07
390.683	9.33
390.89	9.31
391.098	9.39
391.305	9.64
391.512	9.73
391.72	9.84
391.927	9.57
392.135	9.61
392.342	9.74
392.549	9.74
392.756	9.97
392.964	9.66
393.171	9.73
393.378	9.66
393.586	9.58
393.793	9.44
394	9.32
394.207	9.4
394.414	9.48
394.622	9.34
394.829	9.37
395.036	9.05
395.243	9.07
395.45	8.81
395.657	8.66
395.864	8.73
396.072	8.91
396.279	8.98
396.486	8.82
396.693	8.85
396.9	8.72
397.107	8.51
397.314	8.5
397.521	8.54
397.728	8.39
397.935	8.46
398.142	8.14
398.349	8.1
398.556	7.96
398.763	8.01
398.97	7.79
399.177	7.94
399.383	8.06
399.59	7.98
399.797	7.86
400.004	8
400.211	7.9
400.418	8
400.625	7.63
400.831	7.55
401.038	7.45
401.245	7.49
401.452	7.15
401.658	7.14
401.865	7.18
402.072	7.17
402.279	7.17
402.485	7.13
402.692	6.99
402.899	7.09
403.105	7.13
403.312	7.1
403.519	7.15
403.725	7.2
403.932	7.16
404.138	7.02
404.345	7.01
404.552	6.85
404.758	6.99
404.965	7.16
405.171	7.01
405.378	6.98
405.584	6.96
405.791	6.96
405.997	6.89
406.204	6.89
406.41	7.06
406.617	7.01
406.823	6.96
407.029	6.85
407.236	6.87
407.442	7.18
407.649	7.27
407.855	7.37
408.061	7.36
408.268	7.41
408.474	7.39
408.68	7.15
408.887	7.19
409.093	7.23
409.299	7.23
409.505	7.12
409.712	6.81
409.918	6.77
410.124	6.65
410.33	6.53
410.537	6.47
410.743	6.44
410.949	6.62
411.155	6.55
411.361	6.5
411.567	6.6
411.773	6.4
411.98	6.42
412.186	6.4
412.392	6.18
412.598	6.17
412.804	6.21
413.01	6.09
413.216	6.12
413.422	6.05
413.628	6.16
413.834	5.99
414.04	6.07
414.246	6.07
414.452	6.06
414.658	6.25
414.864	6.2
415.07	6.07
415.275	6.24
415.481	6.14
415.687	6.03
415.893	5.79
416.099	5.73
416.305	5.76
416.511	5.69
416.716	5.63
416.922	5.57
417.128	5.54
417.334	5.58
417.539	5.39
417.745	5.24
417.951	5.33
418.157	5.33
418.362	5.37
418.568	5.28
418.774	5.3
418.979	5.19
419.185	5.23
419.391	5.21
419.596	5.25
419.802	5.24
420.008	5.28
420.213	4.82
420.419	4.94
420.624	4.94
420.83	4.91
421.035	4.99
421.241	4.99
421.446	4.95
421.652	4.91
421.857	4.83
422.063	4.84
422.268	4.86
422.474	5.23
422.679	5.15
422.885	5.1
423.09	5.1
423.295	5.07
423.501	5.11
423.706	5.05
423.911	5.05
424.117	5.06
424.322	5.06
424.527	5.04
424.733	5.06
424.938	5.04
425.143	5.08
425.349	5.18
425.554	5.1
425.759	5.16
425.964	5.2
426.169	5.24
426.375	5.32
426.58	5.33
426.785	5.42
426.99	5.51
427.195	5.51
427.4	5.46
427.605	5.4
427.811	5.49
428.016	5.23
428.221	5.29
428.426	5.27
428.631	5.22
428.836	5.17
429.041	5.04
429.246	4.88
429.451	4.91
429.656	4.94
429.861	4.99
430.066	4.92
430.271	5.08
430.476	5.03
430.681	5.03
430.886	4.91
431.09	4.94
431.295	5.04
431.5	5.15
431.705	5.07
431.91	5.08
432.115	4.93
432.32	5
432.524	5.02
432.729	5.07
432.934	5.1
433.139	5.18
433.343	5.16
433.548	5.12
433.753	5.1
433.958	5.16
434.162	5.15
434.367	5.22
434.572	5.07
434.776	5.06
434.981	4.98
435.186	4.94
435.39	5.01
435.595	5.08
435.799	5.02
436.004	5.07
436.209	5.07
436.413	5.1
436.618	5.04
436.822	5.11
437.027	4.98
437.231	5
437.436	4.98
437.64	4.81
437.845	4.77
438.049	4.8
438.253	4.78
438.458	4.82
438.662	4.73
438.867	4.74
439.071	4.76
439.275	4.78
439.48	4.76
439.684	4.72
439.888	4.72
440.093	4.66
440.297	4.62
440.501	4.56
440.706	4.49
440.91	4.55
441.114	4.52
441.318	4.52
441.523	4.5
441.727	4.46
441.931	4.46
442.135	4.64
442.339	4.7
442.543	4.79
442.748	4.71
442.952	4.67
443.156	4.54
443.36	4.55
443.564	4.49
443.768	4.54
443.972	4.57
444.176	4.64
444.38	4.52
444.584	4.44
444.788	4.37
444.992	4.33
445.196	4.36
445.4	4.35
445.604	4.32
445.808	4.43
446.012	4.43
446.216	4.4
446.42	4.32
446.624	4.4
446.828	4.54
447.032	4.61
447.235	4.64
447.439	4.62
447.643	4.62
447.847	4.73
448.051	4.56
448.254	4.6
448.458	4.67
448.662	4.62
448.866	4.52
449.069	4.31
449.273	4.17
449.477	4.21
449.681	4.31
449.884	4.36
450.088	4.29
450.292	4.33
450.495	4.26
450.699	4.18
450.902	4.24
451.106	4.26
451.31	4.37
451.513	4.35
451.717	4.39
451.92	4.36
452.124	4.35
452.327	4.36
452.531	4.42
452.734	4.36
452.938	4.28
453.141	4.3
453.345	4.34
453.548	4.33
453.752	4.51
453.955	4.59
454.158	4.59
454.362	4.54
454.565	4.53
454.769	4.42
454.972	4.56
455.175	4.69
455.379	4.75
455.582	4.66
455.785	4.61
455.988	4.48
456.192	4.36
456.395	4.29
456.598	4.3
456.801	4.28
457.005	4.41
457.208	4.42
457.411	4.38
457.614	4.31
457.817	4.29
458.021	4.26
458.224	4.23
458.427	4.31
458.63	4.27
458.833	4.33
459.036	4.28
459.239	4.17
459.442	4.06
459.645	4.13
459.848	4.13
460.051	4.19
460.254	4.24
460.457	4.31
460.66	4.32
460.863	4.45
461.066	4.35
461.269	4.43
461.472	4.52
461.675	4.57
461.878	4.49
462.081	4.53
462.284	4.46
462.486	4.41
462.689	4.39
462.892	4.39
463.095	4.32
463.298	4.39
463.5	4.47
463.703	4.42
463.906	4.56
464.109	4.55
464.311	4.52
464.514	4.61
464.717	4.74
464.92	4.62
465.122	4.41
465.325	4.56
465.528	4.55
465.73	4.51
465.933	4.61
466.135	4.48
466.338	4.49
466.541	4.66
466.743	4.63
466.946	4.51
467.148	4.72
467.351	4.86
467.553	4.79
467.756	4.88
467.958	4.86
468.161	4.81
468.363	4.93
468.566	4.91
468.768	4.66
468.971	4.64
469.173	4.76
469.375	4.65
469.578	4.66
469.78	4.63
469.983	4.6
470.185	4.62
470.387	4.73
470.59	4.67
470.792	4.71
470.994	4.88
471.196	5.03
471.399	4.97
471.601	4.97
471.803	4.96
472.005	4.94
472.208	4.92
472.41	4.98
472.612	4.99
472.814	4.96
473.016	5.01
473.218	4.98
473.421	4.91
473.623	4.87
473.825	5.01
474.027	4.87
474.229	4.95
474.431	4.94
474.633	4.85
474.835	4.84
475.037	4.85
475.239	4.83
475.441	4.84
475.643	4.8
475.845	4.78
476.047	4.64
476.249	4.77
476.451	4.71
476.653	4.73
476.855	4.7
477.057	4.65
477.258	4.61
477.46	4.6
477.662	4.53
477.864	4.58
478.066	4.63
478.268	4.61
478.469	4.7
478.671	4.64
478.873	4.52
479.075	4.48
479.276	4.47
479.478	4.48
479.68	4.46
479.882	4.44
480.083	4.36
480.285	4.35
480.487	4.3
480.688	4.27
480.89	4.25
481.091	4.25
481.293	4.27
481.495	4.21
481.696	4.22
481.898	4.16
482.099	4.15
482.301	4.11
482.502	4.1
482.704	4.1
482.905	4.05
483.107	4.07
483.308	4.09
483.51	4.07
483.711	4.09
483.913	4.07
484.114	4.08
484.315	4.11
484.517	4.17
484.718	4.18
484.92	4.22
485.121	4.23
485.322	4.23
485.524	4.24
485.725	4.28
485.926	4.3
486.127	4.3
486.329	4.35
486.53	4.29
486.731	4.29
486.932	4.27
487.134	4.27
487.335	4.31
487.536	4.32
487.737	4.31
487.938	4.28
488.139	4.26
488.341	4.33
488.542	4.34
488.743	4.38
488.944	4.35
489.145	4.41
489.346	4.41
489.547	4.38
489.748	4.39
489.949	4.38
490.15	4.42
490.351	4.4
490.552	4.36
490.753	4.33
490.954	4.3
491.155	4.34
491.356	4.35
491.557	4.37
491.758	4.43
491.959	4.41
492.159	4.46
492.36	4.51
492.561	4.55
492.762	4.62
492.963	4.7
493.164	4.82
493.364	4.89
493.565	4.79
493.766	4.76
493.967	4.82
494.167	4.85
494.368	4.9
494.569	4.86
494.769	4.91
494.97	5
495.171	5.02
495.371	4.97
495.572	4.96
495.773	5.05
495.973	5.07
496.174	5.02
496.375	5.04
496.575	4.96
496.776	4.98
496.976	4.94
497.177	4.82
497.377	4.85
497.578	4.87
497.778	4.95
497.979	4.97
498.179	5.05
498.38	5.13
498.58	5.25
498.78	5.45
498.981	5.5
499.181	5.62
499.382	5.72
499.582	5.68
499.782	5.77
499.983	5.81
500.183	5.9
500.383	5.92
500.584	5.93
500.784	5.88
500.984	5.83
501.184	5.82
501.385	5.92
501.585	5.94
501.785	6.02
501.985	6.12
502.185	6.13
502.386	6.12
502.586	6.2
502.786	6.22
502.986	6.26
503.186	6.29
503.386	6.31
503.586	6.22
503.786	6.29
503.987	6.35
504.187	6.32
504.387	6.33
504.587	6.39
504.787	6.35
504.987	6.41
505.187	6.4
505.387	6.46
505.587	6.61
505.786	6.65
505.986	6.72
506.186	6.7
506.386	6.74
506.586	6.76
506.786	6.78
506.986	6.8
507.186	6.81
507.386	6.86
507.585	6.93
507.785	6.95
507.985	7.01
508.185	7.04
508.384	7.08
508.584	7.12
508.784	7.13
508.984	7.16
509.183	7.17
509.383	7.19
509.583	7.33
509.782	7.34
509.982	7.38
510.182	7.45
510.381	7.44
510.581	7.52
510.781	7.68
510.98	7.79
511.18	7.88
511.379	8.07
511.579	8.2
511.778	8.21
511.978	8.22
512.177	8.3
512.377	8.37
512.576	8.37
512.776	8.47
512.975	8.51
513.175	8.55
513.374	8.59
513.573	8.64
513.773	8.68
513.972	8.73
514.172	8.89
514.371	8.93
514.57	8.95
514.77	9.16
514.969	9.14
515.168	9.13
515.367	9.19
515.567	9.2
515.766	9.17
515.965	9.13
516.164	9.17
516.364	9.14
516.563	9.13
516.762	9.09
516.961	9.1
517.16	9.17
517.359	9.23
517.559	9.27
517.758	9.31
517.957	9.39
518.156	9.51
518.355	9.59
518.554	9.64
518.753	9.72
518.952	9.88
519.151	9.99
519.35	10.02
519.549	10.1
519.748	10.21
519.947	10.36
520.146	10.38
520.345	10.46
520.544	10.46
520.743	10.58
520.942	10.64
521.141	10.64
521.339	10.67
521.538	10.77
521.737	10.75
521.936	10.77
522.135	10.79
522.333	10.85
522.532	10.82
522.731	10.84
522.93	10.9
523.129	10.92
523.327	10.93
523.526	10.86
523.725	10.8
523.923	10.74
524.122	10.67
524.321	10.65
524.519	10.64
524.718	10.75
524.917	10.78
525.115	10.79
525.314	10.85
525.512	10.87
525.711	10.89
525.909	10.95
526.108	10.97
526.306	10.99
526.505	11.02
526.703	11.02
526.902	11.01
527.1	11.01
527.299	10.97
527.497	10.97
527.696	11.02
527.894	11.05
528.092	11.06
528.291	11.15
528.489	11.22
528.688	11.28
528.886	11.36
529.084	11.42
529.283	11.49
529.481	11.6
529.679	11.67
529.877	11.73
530.076	11.79
530.274	11.82
530.472	11.81
530.67	11.83
530.869	11.82
531.067	11.8
531.265	11.75
531.463	11.75
531.661	11.74
531.859	11.68
532.057	11.68
532.255	11.71
532.454	11.75
532.652	11.82
532.85	11.88
533.048	11.96
533.246	12.03
533.444	12.17
533.642	12.24
533.84	12.34
534.038	12.53
534.236	12.61
534.434	12.64
534.632	12.72
534.83	12.76
535.027	12.76
535.225	12.74
535.423	12.77
535.621	12.76
535.819	12.8
536.017	12.81
536.215	12.81
536.412	12.89
536.61	12.97
536.808	13.01
537.006	13.03
537.203	13.09
537.401	13.12
537.599	13.18
537.797	13.21
537.994	13.29
538.192	13.34
538.39	13.28
538.587	13.21
538.785	13.17
538.983	13.16
539.18	13.12
539.378	13.09
539.575	13.08
539.773	13.03
539.97	13.05
540.168	13.02
540.366	13.05
540.563	13.14
540.761	13.17
540.958	13.26
541.155	13.33
541.353	13.4
541.55	13.45
541.748	13.52
541.945	13.66
542.143	13.7
542.34	13.81
542.537	13.86
542.735	13.9
542.932	14
543.129	14.01
543.327	14.06
543.524	14.16
543.721	14.28
543.919	14.39
544.116	14.42
544.313	14.57
544.51	14.5
544.708	14.54
544.905	14.58
545.102	14.61
545.299	14.7
545.496	14.69
545.693	14.71
545.891	14.68
546.088	14.64
546.285	14.58
546.482	14.58
546.679	14.71
546.876	14.79
547.073	14.8
547.27	14.83
547.467	14.82
547.664	14.88
547.861	14.87
548.058	15.03
548.255	15.23
548.452	15.41
548.649	15.54
548.846	15.69
549.043	15.6
549.24	15.72
549.437	15.83
549.633	15.89
549.83	15.99
550.027	16.21
550.224	16.21
550.421	16.22
550.618	16.24
550.814	16.24
551.011	16.24
551.208	16.36
551.405	16.4
551.601	16.39
551.798	16.46
551.995	16.52
552.191	16.55
552.388	16.64
552.585	16.74
552.781	16.74
552.978	16.83
553.175	16.93
553.371	17.05
553.568	17.12
553.764	17.18
553.961	17.13
554.157	17.16
554.354	17.17
554.55	17.14
554.747	17.2
554.943	17.28
555.14	17.18
555.336	17.23
555.533	17.19
555.729	17.38
555.926	17.46
556.122	17.64
556.318	17.68
556.515	17.78
556.711	17.82
556.907	17.82
557.104	17.9
557.3	18.04
557.496	17.92
557.693	18.01
557.889	17.96
558.085	17.96
558.281	18.09
558.478	18.18
558.674	18.11
558.87	18.19
559.066	18.29
559.262	18.31
559.459	18.35
559.655	18.46
559.851	18.58
560.047	18.56
560.243	18.6
560.439	18.65
560.635	18.64
560.831	18.69
561.027	18.72
561.223	18.68
561.419	18.8
561.615	18.8
561.811	18.82
562.007	18.82
562.203	18.95
562.399	19.08
562.595	19.01
562.791	19.23
562.987	19.32
563.183	19.41
563.379	19.44
563.575	19.41
563.771	19.48
563.966	19.5
564.162	19.54
564.358	19.56
564.554	19.55
564.75	19.58
564.945	19.37
565.141	19.35
565.337	19.46
565.533	19.52
565.728	19.61
565.924	19.56
566.12	19.63
566.315	19.74
566.511	19.78
566.707	19.77
566.902	19.93
567.098	20.13
567.293	20.23
567.489	20.22
567.684	20.28
567.88	20.29
568.076	20.45
568.271	20.5
568.467	20.54
568.662	20.56
568.858	20.61
569.053	20.55
569.248	20.52
569.444	20.52
569.639	20.52
569.835	20.63
570.03	20.66
570.225	20.69
570.421	20.77
570.616	20.7
570.812	20.73
571.007	20.77
571.202	20.8
571.397	20.83
571.593	20.95
571.788	21.04
571.983	21.06
572.178	21.1
572.374	21.16
572.569	21.17
572.764	21.2
572.959	21.27
573.154	21.35
573.35	21.41
573.545	21.63
573.74	21.56
573.935	21.57
574.13	21.57
574.325	21.59
574.52	21.68
574.715	21.67
574.91	21.79
575.105	21.86
575.3	21.9
575.495	21.97
575.69	21.87
575.885	22.01
576.08	22.07
576.275	22.12
576.47	22.18
576.665	22.18
576.86	22.28
577.055	22.28
577.25	22.32
577.444	22.4
577.639	22.58
577.834	22.56
578.029	22.7
578.224	22.78
578.418	22.87
578.613	22.98
578.808	23.07
579.003	23.18
579.197	23.32
579.392	23.38
579.587	23.42
579.781	23.35
579.976	23.57
580.171	23.48
580.365	23.41
580.56	23.5
580.755	23.61
580.949	23.63
581.144	23.58
581.338	23.35
581.533	23.32
581.727	23.44
581.922	23.28
582.116	23.18
582.311	23.34
582.505	23.53
582.7	23.48
582.894	23.46
583.089	23.43
583.283	23.59
583.478	23.86
583.672	23.96
583.866	23.88
584.061	23.99
584.255	23.96
584.449	23.87
584.644	23.87
584.838	23.89
585.032	23.8
585.226	23.78
585.421	23.87
585.615	23.95
585.809	23.81
586.003	23.92
586.198	24.04
586.392	24.22
586.586	24.22
586.78	24.16
586.974	24.18
587.168	24.21
587.363	24.12
587.557	23.97
587.751	23.82
587.945	24.03
588.139	24.07
588.333	24.04
588.527	23.84
588.721	23.86
588.915	23.83
589.109	23.94
589.303	23.93
589.497	24.03
589.691	24.2
589.885	24.38
590.079	24.41
590.273	24.35
590.466	24.38
590.66	24.42
590.854	24.41
591.048	24.4
591.242	24.4
591.436	24.52
591.629	24.49
591.823	24.37
592.017	24.34
592.211	24.37
592.404	24.38
592.598	24.44
592.792	24.54
592.986	24.63
593.179	24.68
593.373	24.64
593.567	24.69
593.76	24.74
593.954	24.68
594.147	24.56
594.341	24.52
594.535	24.56
594.728	24.51
594.922	24.62
595.115	24.47
595.309	24.41
595.502	24.43
595.696	24.39
595.889	24.5
596.083	24.59
596.276	24.61
596.47	24.64
596.663	24.57
596.856	24.57
597.05	24.48
597.243	24.57
597.437	24.77
597.63	24.77
597.823	24.81
598.017	24.76
598.21	24.82
598.403	25.01
598.596	25.06
598.79	25.16
598.983	25.29
599.176	25.37
599.369	25.37
599.563	25.28
599.756	25.24
599.949	25.17
600.142	25.23
600.335	25.28
600.528	25.19
600.722	25.14
600.915	25.19
601.108	25.15
601.301	25.26
601.494	25.34
601.687	25.37
601.88	25.32
602.073	25.37
602.266	25.28
602.459	25.11
602.652	24.98
602.845	24.98
603.038	24.89
603.231	24.82
603.424	24.73
603.617	24.72
603.809	24.6
604.002	24.67
604.195	24.61
604.388	24.73
604.581	24.8
604.774	24.95
604.966	24.87
605.159	24.83
605.352	24.83
605.545	24.91
605.737	25.02
605.93	25.18
606.123	25.14
606.316	25.24
606.508	25.11
606.701	25.24
606.894	25.05
607.086	25.25
607.279	25.29
607.471	25.39
607.664	25.31
607.857	25.33
608.049	25.28
608.242	25.21
608.434	25.17
608.627	25.09
608.819	24.88
609.012	25.12
609.204	25.03
609.397	25.06
609.589	25.13
609.782	25.22
609.974	25.21
610.166	25.28
610.359	25.5
610.551	25.64
610.743	25.7
610.936	25.99
611.128	25.95
611.32	26.09
611.513	26.15
611.705	26.1
611.897	26.03
612.09	26.02
612.282	25.95
612.474	25.85
612.666	25.89
612.858	26.02
613.051	25.88
613.243	25.97
613.435	25.95
613.627	26.07
613.819	26.01
614.011	26.43
614.203	26.48
614.395	26.56
614.588	26.59
614.78	26.49
614.972	26.47
615.164	26.41
615.356	26.39
615.548	26.34
615.74	26.46
615.932	26.39
616.124	25.93
616.315	26.02
616.507	26.14
616.699	26.07
616.891	25.96
617.083	26.02
617.275	26.36
617.467	26.26
617.659	26.22
617.85	26.09
618.042	26.18
618.234	26.46
618.426	26.23
618.618	26.18
618.809	26.17
619.001	26.19
619.193	26.34
619.384	25.99
619.576	25.99
619.768	25.97
619.959	25.75
620.151	25.94
620.343	25.94
620.534	25.93
620.726	26.02
620.917	26.18
621.109	26.27
621.301	26.16
621.492	26.36
621.684	26.28
621.875	26.36
622.067	26.44
622.258	26.3
622.45	26.14
622.641	26.31
622.832	26.29
623.024	26.18
623.215	26.32
623.407	26.14
623.598	26.08
623.789	26.22
623.981	26.09
624.172	26.34
624.363	26.32
624.555	26.27
624.746	26.12
624.937	26.04
625.129	26.08
625.32	25.94
625.511	26.11
625.702	26.06
625.893	25.94
626.085	25.99
626.276	25.76
626.467	25.77
626.658	25.72
626.849	25.71
627.04	25.79
627.231	25.77
627.422	25.8
627.614	25.71
627.805	25.8
627.996	25.85
628.187	25.87
628.378	25.97
628.569	26.08
628.76	26.25
628.951	26.28
629.142	26.16
629.332	26.08
629.523	26.04
629.714	26.02
629.905	25.95
630.096	26.03
630.287	26.16
630.478	26.16
630.669	26.08
630.859	26.14
631.05	26.1
631.241	26.11
631.432	26.17
631.623	26.25
631.813	26.38
632.004	26.37
632.195	26.27
632.385	26.22
632.576	26.21
632.767	26.19
632.957	26.18
633.148	26.4
633.339	26.51
633.529	26.63
633.72	26.53
633.91	26.4
634.101	26.35
634.292	26.5
634.482	26.41
634.673	26.45
634.863	26.44
635.054	26.2
635.244	26.07
635.435	26.02
635.625	25.94
635.815	26.03
636.006	25.97
636.196	25.98
636.387	25.91
636.577	26.06
636.767	25.99
636.958	26.2
637.148	26.23
637.338	26.13
637.529	26.04
637.719	26.18
637.909	26.26
638.099	26.43
638.29	26.71
638.48	26.79
638.67	26.86
638.86	27.02
639.05	26.71
639.241	27.11
639.431	27.24
639.621	27.26
639.811	27.08
640.001	27.11
640.191	27.15
640.381	26.94
640.571	27
640.761	26.83
640.951	26.52
641.141	26.59
641.331	26.05
641.521	26.05
641.711	26.27
641.901	26.31
642.091	26.21
642.281	26.21
642.471	26.1
642.661	25.98
642.851	26.15
643.041	26.51
643.231	26.48
643.42	26.62
643.61	26.85
643.8	26.67
643.99	26.91
644.18	26.83
644.369	26.7
644.559	26.89
644.749	26.95
644.939	26.88
645.128	26.78
645.318	26.92
645.508	27.15
645.697	26.86
645.887	26.95
646.076	26.7
646.266	26.6
646.456	26.82
646.645	26.9
646.835	26.63
647.024	26.56
647.214	26.59
647.403	26.41
647.593	26.36
647.782	26.47
647.972	26.37
648.161	26.62
648.351	27
648.54	26.62
648.73	26.46
648.919	26.74
649.108	26.67
649.298	26.78
649.487	26.93
649.677	26.94
649.866	26.94
650.055	26.9
650.244	26.8
650.434	26.59
650.623	26.94
650.812	26.93
651.002	26.96
651.191	27.08
651.38	27.04
651.569	27.17
651.758	26.99
651.947	27
652.137	27.11
652.326	27.17
652.515	27.2
652.704	27.15
652.893	27.35
653.082	27.43
653.271	27.52
653.46	27.32
653.649	27.27
653.838	27.31
654.027	27.11
654.216	27.06
654.405	26.84
654.594	26.93
654.783	26.87
654.972	26.73
655.161	26.56
655.35	26.53
655.539	26.79
655.728	26.55
655.916	26.79
656.105	26.88
656.294	26.99
656.483	26.95
656.672	26.83
656.86	26.64
657.049	26.54
657.238	26.52
657.427	26.38
657.615	26.17
657.804	26.23
657.993	26.05
658.181	25.98
658.37	26.03
658.559	26.14
658.747	26.21
658.936	26.37
659.125	26.76
659.313	26.71
659.502	26.97
659.69	26.97
659.879	26.93
660.067	27
660.256	26.92
660.444	26.85
660.633	27.02
660.821	26.9
661.01	26.83
661.198	26.27
661.387	26.42
661.575	26.17
661.763	26.43
661.952	26.54
662.14	26.46
662.328	26.72
662.517	26.76
662.705	26.47
662.893	26.47
663.082	26.7
663.27	26.7
663.458	26.73
663.646	27.01
663.834	26.88
664.023	26.95
664.211	27.24
664.399	27.39
664.587	27.43
664.775	27.52
664.963	27.99
665.152	27.87
665.34	28.13
665.528	28.13
665.716	27.86
665.904	27.94
666.092	27.89
666.28	27.99
666.468	27.59
666.656	27.39
666.844	27.61
667.032	27.28
667.22	27.34
667.408	27.25
667.596	27.29
667.784	27.16
667.971	27.28
668.159	27.31
668.347	27.02
668.535	27.27
668.723	27.42
668.911	27.35
669.098	27.31
669.286	27.33
669.474	27.31
669.662	27.21
669.849	27.55
670.037	27.52
670.225	27.52
670.413	27.58
670.6	27.46
670.788	27.53
670.976	27.49
671.163	27.49
671.351	27.3
671.538	27.56
671.726	27.54
671.913	27.27
672.101	26.89
672.289	26.97
672.476	26.95
672.664	27.09
672.851	27.18
673.039	27
673.226	27.13
673.413	27.26
673.601	26.92
673.788	27.21
673.976	27.27
674.163	27.55
674.35	27.56
674.538	27.51
674.725	27.61
674.912	27.39
675.1	27.6
675.287	27.62
675.474	27.43
675.662	27.63
675.849	27.61
676.036	27.76
676.223	27.57
676.411	27.47
676.598	27.53
676.785	27.6
676.972	27.55
677.159	27.54
677.346	27.21
677.533	27.43
677.721	27.18
677.908	26.91
678.095	26.85
678.282	26.97
678.469	27.02
678.656	27.07
678.843	26.98
679.03	27.01
679.217	27.09
679.404	27.3
679.591	27.2
679.778	27.53
679.964	27.74
680.151	27.62
680.338	27.7
680.525	27.66
680.712	27.79
680.899	27.57
681.086	27.82
681.272	27.64
681.459	27.59
681.646	27.45
681.833	27.42
682.02	27.4
682.206	28
682.393	28.16
682.58	28.17
682.766	27.77
682.953	28.12
683.14	27.94
683.326	28.41
683.513	28.81
683.7	29.05
683.886	29.16
684.073	29.03
684.259	28.37
684.446	27.98
684.632	27.85
684.819	28.04
685.005	27.95
685.192	27.89
685.378	27.13
685.565	27.11
685.751	26.97
685.938	26.89
686.124	27.06
686.31	27.24
686.497	27.59
686.683	28.02
686.87	28.03
687.056	27.93
687.242	27.83
687.429	28.17
687.615	27.84
687.801	27.8
687.987	27.43
688.174	27.36
688.36	27.2
688.546	26.95
688.732	26.69
688.918	26.84
689.105	26.56
689.291	26.6
689.477	26.46
689.663	26.51
689.849	26.66
690.035	26.97
690.221	27.02
690.407	27.36
690.593	27.19
690.779	27.29
690.965	27.15
691.151	27.41
691.337	27.55
691.523	28.05
691.709	27.79
691.895	28.14
692.081	28.23
692.267	28.02
692.453	27.92
692.639	28.15
692.825	28.15
693.011	28.2
693.196	28.28
693.382	28.07
693.568	27.71
693.754	28.06
693.94	27.82
694.125	27.48
694.311	27.87
694.497	27.46
694.682	27.52
694.868	27.32
695.054	27.06
695.239	27.03
695.425	27.01
695.611	27.15
695.796	27.11
695.982	26.77
696.168	27.01
696.353	26.75
696.539	26.87
696.724	26.84
696.91	26.82
697.095	26.9
697.281	26.81
697.466	26.87
697.652	26.78
697.837	26.74
698.023	26.98
698.208	26.78
698.393	26.71
698.579	26.91
698.764	26.89
698.949	26.87
699.135	26.99
699.32	27
699.505	26.81
699.691	26.55
699.876	26.52
700.061	26.63
700.246	26.78
700.432	27.01
700.617	26.91
700.802	26.89
700.987	27.21
701.172	27.37
701.358	27.49
701.543	27.94
701.728	28.1
701.913	28.08
702.098	28.02
702.283	28.32
702.468	28.39
702.653	28.42
702.838	28.8
703.023	28.59
703.208	28.45
703.393	28.59
703.578	28.49
703.763	28.99
703.948	29.2
704.133	29.15
704.318	28.94
704.503	28.84
704.688	28.53
704.873	28.12
705.057	27.92
705.242	27.99
705.427	27.86
705.612	28.03
705.797	27.79
705.981	27.8
706.166	28.1
706.351	27.94
706.536	27.66
706.72	28.04
706.905	28.14
707.09	28.44
707.274	28.36
707.459	28.57
707.644	28.33
707.828	28
708.013	27.91
708.197	27.39
708.382	27.81
708.567	28.22
708.751	28.04
708.936	28.32
709.12	28.42
709.305	28.38
709.489	28.18
709.673	28.26
709.858	28.75
710.042	28.77
710.227	28.98
710.411	28.7
710.596	28.25
710.78	28.14
710.964	27.87
711.149	27.99
711.333	28.2
711.517	28.17
711.702	28.13
711.886	27.98
712.07	27.98
712.254	27.94
712.438	27.98
712.623	28.33
712.807	28.34
712.991	28.35
713.175	28.42
713.359	28.23
713.544	28.29
713.728	28.25
713.912	27.98
714.096	27.85
714.28	27.54
714.464	27.53
714.648	27.4
714.832	27.45
715.016	27.19
715.2	26.76
715.384	26.89
715.568	26.81
715.752	27.03
715.936	27.36
716.12	27.4
716.304	28.12
716.488	27.76
716.671	27.65
716.855	27.9
717.039	28.16
717.223	27.82
717.407	27.83
717.59	28.03
717.774	28.15
717.958	27.96
718.142	27.94
718.325	27.6
718.509	28.02
718.693	28.11
718.877	27.6
719.06	27.68
719.244	28.2
719.428	27.92
719.611	27.79
719.795	27.35
719.978	27.45
720.162	27.58
720.345	27.39
720.529	27.73
720.713	28.07
720.896	28.21
721.08	27.84
721.263	27.74
721.446	27.95
721.63	28.39
721.813	28.51
721.997	28.88
722.18	29.36
722.364	29.11
722.547	28.74
722.73	28.1
722.914	28.55
723.097	29.2
723.28	29.35
723.464	29.35
723.647	29.03
723.83	29.14
724.013	28.64
724.197	28.09
724.38	28.71
724.563	28.59
724.746	29.42
724.929	29.29
725.112	29.23
725.296	29.4
725.479	29.43
725.662	29.41
725.845	29.16
726.028	29.06
726.211	29.05
726.394	28.95
726.577	28.9
726.76	28
726.943	28.01
727.126	27.25
727.309	26.73
727.492	26.6
727.675	26.07
727.858	25.86
728.041	26.57
728.224	26.68
728.407	27
728.589	27.26
728.772	27.86
728.955	27.96
729.138	28.63
729.321	28.91
729.503	29.1
729.686	29.9
729.869	30.14
730.052	29.82
730.234	29.81
730.417	29.35
730.6	29.18
730.782	29.33
730.965	29.13
731.148	28.94
731.33	29.24
731.513	28.62
731.695	28.3
731.878	28.51
732.061	28.18
732.243	28.38
732.426	28.72
732.608	29.11
732.791	28.5
732.973	28.65
733.156	28.85
733.338	28.45
733.52	28.97
733.703	29.03
733.885	28.77
734.068	29.29
734.25	29.05
734.432	28.58
734.615	28.22
734.797	28.29
734.979	27.71
735.162	27.49
735.344	27.22
735.526	27.25
735.708	27.07
735.891	27.22
736.073	26.63
736.255	26.51
736.437	26.32
736.619	25.9
736.802	26.05
736.984	26.58
737.166	26.9
737.348	27.52
737.53	27.24
737.712	27.11
737.894	27.31
738.076	27.78
738.258	28.76
738.44	29.27
738.622	29.96
738.804	30.06
738.986	30.15
739.168	29.81
739.35	30.14
739.532	29.97
739.714	30.84
739.896	30.79
740.078	30.98
740.259	30.23
740.441	30.21
740.623	29.77
740.805	30.03
740.987	30.14
741.168	30.25
741.35	30.21
741.532	31.03
741.714	30.43
741.895	30.17
742.077	30.12
742.259	30.17
742.44	30.17
742.622	30.26
742.804	29.97
742.985	29.23
743.167	29.2
743.348	28.98
743.53	28.53
743.711	28.83
743.893	28.8
744.075	27.83
744.256	27.37
744.438	27.36
744.619	27.21
744.8	27.39
744.982	27.67
745.163	28.24
745.345	28.36
745.526	28.74
745.707	28.69
745.889	28.41
746.07	29.19
746.252	29.38
746.433	29.17
746.614	29.29
746.795	29.43
746.977	29.91
747.158	29.18
747.339	28.61
747.52	29.03
747.702	28.1
747.883	28.93
748.064	28.87
748.245	29.2
748.426	28.95
748.607	28.83
748.788	28.31
748.97	28.56
749.151	28.61
749.332	29.54
749.513	28.81
749.694	29.65
749.875	29.49
750.056	29.61
750.237	29.45
750.418	30.33
750.599	30.12
750.78	31.18
750.96	30.36
751.141	31
751.322	29.91
751.503	30.34
751.684	30.88
751.865	30.21
752.046	30.31
752.226	30.3
752.407	29.61
752.588	30.41
752.769	29.66
752.949	29.59
753.13	30
753.311	30.42
753.492	30.31
753.672	29.42
753.853	29.82
754.034	29.71
754.214	30.06
754.395	30.22
754.575	30.24
754.756	29.92
754.937	30.87
755.117	30.02
755.298	30.47
755.478	30.07
755.659	30.37
755.839	30.5
756.02	30.61
756.2	31.03
756.381	30.72
756.561	30.64
756.741	31.22
756.922	30.65
757.102	30.64
757.283	30.19
757.463	30.55
757.643	30.65
757.823	30.4
758.004	29.97
758.184	29.84
758.364	30.07
758.545	30.28
758.725	30.16
758.905	30.03
759.085	30.29
759.265	30.21
759.446	29.44
759.626	28.91
759.806	29.5
759.986	29.52
760.166	28.64
760.346	28.29
760.526	27.84
760.706	27.99
760.886	28.43
761.066	28.05
761.246	27.91
761.426	28.86
761.606	29.05
761.786	28.93
761.966	28.82
762.146	28.83
762.326	28.94
762.506	28.9
762.686	28.95
762.866	28.87
763.046	28.96
763.225	28.84
763.405	28.45
763.585	28.35
763.765	28.12
763.945	27.98
764.124	28.1
764.304	28.6
764.484	29.21
764.664	28.45
764.843	27.96
765.023	27.97
765.203	28.25
765.382	27.96
765.562	28.29
765.741	28.22
765.921	28.66
766.101	28.59
766.28	28.04
766.46	27.04
766.639	27.95
766.819	27.55
766.998	27.61
767.178	27.21
767.357	27.36
767.537	27.55
767.716	27.9
767.896	27.9
768.075	28.45
768.254	27.88
768.434	28.35
768.613	27.92
768.792	28.45
768.972	28.93
769.151	29.49
769.33	29.82
769.51	29.55
769.689	29.37
769.868	29.17
770.047	29.02
770.226	29.42
770.406	29.09
770.585	29.78
770.764	30.16
770.943	30.23
771.122	30.2
771.301	30.43
771.48	30.71
771.66	30.5
771.839	30.4
772.018	29.99
772.197	30.4
772.376	30.78
772.555	29.95
772.734	29.64
772.913	29.55
773.092	29.2
773.271	28.52
773.449	28.66
773.628	29.09
773.807	29.4
773.986	29.41
774.165	29.82
774.344	30.37
774.523	30.81
774.701	31.8
774.88	31.67
775.059	32.37
775.238	33.06
775.417	33.67
775.595	33.1
775.774	32.85
775.953	32.55
776.131	31.9
776.31	31.31
776.489	30.88
776.667	29.51
776.846	28.96
777.025	28.38
777.203	27.43
777.382	27.37
777.56	27.23
777.739	27.4
777.917	27.95
778.096	28.35
778.274	27.7
778.453	27.73
778.631	28.72
778.81	28.14
778.988	27.95
779.166	28.85
779.345	27.82
779.523	27.32
779.702	26.78
779.88	27.23
780.058	27.37
780.237	27.96
780.415	28.17
780.593	27.94
780.771	28.73
780.95	29.5
781.128	29.49
781.306	29.59
781.484	31.32
781.662	32.04
781.841	31.36
782.019	31.13
782.197	30.85
782.375	31.66
782.553	31.88
782.731	32.17
782.909	31.7
783.087	32.06
783.265	31.85
783.443	31.27
783.621	31.03
783.799	31.43
783.977	31.65
784.155	31.56
784.333	31.83
784.511	31.34
784.689	30.61
784.867	30.43
785.045	30.03
785.223	30.3
785.4	29.67
785.578	30.26
785.756	30.81
785.934	31.57
786.112	32.33
786.289	30.1
786.467	29.88
786.645	29.09
786.823	30.01
787	30.07
787.178	29.27
787.356	30.16
787.533	29.65
787.711	28.94
787.889	28.69
788.066	27.92
788.244	29.95
788.421	30.26
788.599	30.47
788.776	30.54
788.954	31.09
789.131	32.11
789.309	31.66
789.486	31.54
789.664	30.88
789.841	30.37
790.019	30.49
790.196	29.72
790.373	29.53
790.551	30.63
790.728	28.92
790.906	28.95
791.083	29.89
791.26	30.69
791.437	30.64
791.615	31.17
791.792	31.46
791.969	31.84
792.146	32.02
792.324	32.51
792.501	33.08
792.678	34.9
792.855	33.73
793.032	32.2
793.209	31.35
793.387	32.08
793.564	32.5
793.741	32
793.918	32.38
794.095	32.67
794.272	32.38
794.449	31.03
794.626	30.85
794.803	30.84
794.98	30.3
795.157	30.91
795.334	31.29
795.511	32.08
795.688	32.33
795.864	31
796.041	30.22
796.218	30.63
796.395	31.18
796.572	30.95
796.749	31.58
796.925	32.66
797.102	32.92
797.279	31.56
797.456	30.32
797.632	30.35
797.809	31.17
797.986	31.43
798.162	31.2
798.339	30.63
798.516	29.73
798.692	28.99
798.869	27.84
799.046	27.61
799.222	28.71
799.399	29.51
799.575	29.57
799.752	29.74
799.928	29.15
800.105	29.17
800.281	30.21
800.458	31.82
800.634	32.53
800.811	33.14
800.987	32.78
801.163	31.57
801.34	31.17
801.516	31.61
801.692	32.75
801.869	33.18
802.045	32.55
802.221	31.38
802.398	30.45
802.574	30.79
802.75	31.78
802.926	33.11
803.103	33.36
803.279	33.13
803.455	32.25
803.631	31.36
803.807	32.53
803.983	33.5
804.16	34.24
804.336	34.25
804.512	33.89
804.688	33.87
804.864	33.15
805.04	33.57
805.216	33.4
805.392	33.97
805.568	33.96
805.744	32.07
805.92	31.34
806.096	31.72
806.272	32.47
806.448	34.03
806.623	33.68
806.799	33.71
806.975	33.63
807.151	34.77
807.327	34.75
807.503	34.24
807.678	34.96
807.854	36.13
808.03	36.44
808.206	35.14
808.381	33.83
808.557	33.8
808.733	33.03
808.908	34.09
809.084	33.31
809.26	33.58
809.435	34.82
809.611	34.56
809.787	33.37
809.962	32.31
810.138	33.21
810.313	32.38
810.489	31.98
810.664	32.46
810.84	31.39
811.015	32.69
811.191	33.46
811.366	33.71
811.542	34.79
811.717	35.65
811.892	36.12
812.068	35.92
812.243	35.99
812.419	35.97
812.594	35.43
812.769	35.19
812.944	34.8
813.12	33.5
813.295	32.06
813.47	30.74
813.645	31.86
813.821	31.72
813.996	32.57
814.171	33.25
814.346	33.49
814.521	34.03
814.697	34.08
814.872	33.61
815.047	32.76
815.222	32.82
815.397	33.62
815.572	33.14
815.747	32.87
815.922	32.72
816.097	31.85
816.272	31.94
816.447	31.95
816.622	32.87
816.797	33.38
816.972	33.72
817.147	33.8
817.322	34.4
817.496	33.61
817.671	34.45
817.846	34.19
818.021	33.94
818.196	33.14
818.371	32.54
818.545	32.93
818.72	32.68
818.895	33.8
819.069	32.77
819.244	32.63
819.419	32.37
819.594	31.52
819.768	29.3
819.943	29.67
820.117	29.2
820.292	29.72
820.467	29.07
820.641	28.54
820.816	27.92
820.99	27.87
821.165	27.47
821.339	27.12
821.514	27.04
821.688	27.3
821.863	27.16
822.037	27.17
822.212	26.84
822.386	26.33
822.56	26.12
822.735	26.03
822.909	26
823.084	25.86
823.258	25.93
823.432	25.91
823.606	26.11
823.781	26.01
823.955	26.15
824.129	26.33
824.303	27.03
824.478	27.11
824.652	26.95
824.826	27.24
825	27.61
825.174	28.03
825.348	28.13
825.523	28.31
825.697	28.77
825.871	28.65
826.045	28.37
826.219	28.07
826.393	27.77
826.567	28.32
826.741	28.45
826.915	28.46
827.089	28.12
827.263	28.09
827.437	27.92
827.611	27.46
827.784	27.47
827.958	27.43
828.132	27.33
828.306	28.48
828.48	28.33
828.654	28.89
828.827	28.85
829.001	29.31
829.175	29.79
829.349	30.4
829.522	31.08
829.696	31.56
829.87	32.17
830.044	33.21
830.217	33.57
830.391	34.04
830.565	33.05
830.738	33.21
830.912	32.39
831.085	31.52
831.259	32.1
831.432	32.17
831.606	32.62
831.779	32.2
831.953	31.24
832.126	29.72
832.3	29.55
832.473	29.52
832.647	29.96
832.82	29.57
832.994	29.85
833.167	29.27
833.34	28.78
833.514	28.12
833.687	27.64
833.86	27.72
834.034	28.71
834.207	28.23
834.38	28.4
834.553	28.22
834.727	28.33
834.9	28.09
835.073	27.64
835.246	28.1
835.419	28.82
835.593	29.66
835.766	30.13
835.939	29.09
836.112	29.69
836.285	30.38
836.458	30.21
836.631	31.12
836.804	32.37
836.977	33.32
837.15	34.21
837.323	34.34
837.496	34.06
837.669	33.33
837.842	34.58
838.015	35.38
838.188	34.36
838.361	34.38
838.533	34.06
838.706	33.32
838.879	32.51
839.052	31.9
839.225	31.29
839.398	31.84
839.57	34.42
839.743	34.2
839.916	32.96
840.088	33.94
840.261	34.25
840.434	35.56
840.607	36.36
840.779	36.92
840.952	37.2
841.124	37.83
841.297	37.41
841.47	35.53
841.642	35.57
841.815	37.89
841.987	38.13
842.16	36.93
842.332	38.52
842.505	39.96
842.677	40.56
842.85	39.92
843.022	41.74
843.194	45.56
843.367	48.52
843.539	49.34
843.712	48.58
843.884	47.79
844.056	50.85
844.229	49.13
844.401	50.65
844.573	50.14
844.745	51.02
844.918	46.86
845.09	43.17
845.262	39.75
845.434	41.41
845.606	41.34
845.779	42.71
845.951	42.73
846.123	41.42
846.295	39.15
846.467	40.18
846.639	40.6
846.811	43.87
846.983	44.75
847.155	48.86
847.327	46.83
847.499	48.75
847.671	47.82
847.843	48.2
848.015	50.1
848.187	50.59
848.359	48.56
848.531	51.38
848.703	47.31
848.875	48.7
849.047	46.95
849.218	49.76
849.39	50.21
849.562	46.48
849.734	45.64
849.905	45.32
850.077	45.78
850.249	45.93
850.421	47.09
850.592	48.38
850.764	48.25
850.936	46.61
851.107	45.11
851.279	46.36
851.451	49.4
851.622	50.83
851.794	51.47
851.965	51.53
852.137	51.18
852.308	47.62
852.48	49.84
852.651	48.43
852.823	50.22
852.994	50.47
853.166	45.11
853.337	48.62
853.509	47.42
853.68	48.56
853.851	49.44
854.023	53.08
854.194	51.02
854.365	51.07
854.537	55.78
854.708	58.61
854.879	58.1
855.05	61.78
855.222	57.57
855.393	57.63
855.564	55.65
855.735	51.1
855.906	51.95
856.078	50.37
856.249	51.91
856.42	45.45
856.591	42.86
856.762	38.91
856.933	36.48
857.104	34.8
857.275	38.08
857.446	43.29
857.617	43.56
857.788	42.59
857.959	44.98
858.13	45.31
858.301	48.1
858.472	45.2
858.643	53.01
858.814	59.18
858.985	65.58
859.155	63.39
859.326	64.06
859.497	66.52
859.668	63.24
859.839	65.4
860.009	60.86
860.18	58.66
860.351	60.66
860.522	58.13
860.692	52.02
860.863	45.88
861.034	49.22
861.204	43.7
861.375	42.79
861.546	48.26
861.716	48.27
861.887	49.04
862.057	51.78
862.228	49.97
862.398	47.94
862.569	51.99
862.739	56.49
862.91	51.54
863.08	53.3
863.251	50.32
863.421	48.26
863.592	47.27
863.762	51.86
863.932	49.5
864.103	55.72
864.273	62.23
864.443	61.54
864.614	61.46
864.784	64.07
864.954	67.24
865.125	72.14
865.295	70.1
865.465	73.14
865.635	69.7
865.805	72.1
865.976	71.45
866.146	64.21
866.316	64.82
866.486	65.43
866.656	65.08
866.826	62.86
866.996	67.21
867.166	68.23
867.336	66.15
867.506	66.21
867.676	65.75
867.846	60.07
868.016	61.15
868.186	62.26
868.356	62.07
868.526	57.28
868.696	56.01
868.866	52.21
869.036	49.9
869.206	48.97
869.376	49.62
869.545	49.06
869.715	48.57
869.885	48.49
870.055	48.53
870.224	52.3
870.394	57.18
870.564	61.06
870.734	57.57
870.903	54.6
871.073	51.55
871.243	51.39
871.412	55.7
871.582	58.61
871.751	56.52
871.921	57.92
872.091	54.18
872.26	51.11
872.43	48.14
872.599	48.11
872.769	53.18
872.938	54.22
873.108	52.77
873.277	51.32
873.446	50.33
873.616	54.45
873.785	50.13
873.955	47.7
874.124	49.87
874.293	48.41
874.463	47.93
874.632	47.37
874.801	48.58
874.971	49.33
875.14	48.93
875.309	46.53
875.478	45.82
875.647	50.43
875.817	50.13
875.986	50.14
876.155	48.75
876.324	47.38
876.493	47.04
876.662	49.7
876.831	46.31
877	44.66
877.17	49.08
877.339	49.04
877.508	42.75
877.677	46.43
877.846	45.03
878.015	46.26
878.184	48.75
878.352	48.94
878.521	46.57
878.69	47.26
878.859	46.43
879.028	46.73
879.197	45.88
879.366	47.72
879.534	46.06
879.703	43.58
879.872	41.36
880.041	39.49
880.21	37.29
880.378	37.47
880.547	35.93
880.716	35.94
880.884	34.03
881.053	32.06
881.222	31.33
881.39	29.56
881.559	29.8
881.727	29.27
881.896	28.21
882.065	28.09
882.233	27.69
882.402	27.64
882.57	26.9
882.739	27.05
882.907	27.86
883.076	27.9
883.244	28.78
883.412	29.28
883.581	30.2
883.749	31.39
883.918	32.11
884.086	33.02
884.254	35.13
884.423	37.07
884.591	37.19
884.759	38.02
884.927	38.07
885.096	39.11
885.264	40.39
885.432	41.57
885.6	42.39
885.769	42.43
885.937	40.84
886.105	38.69
886.273	37.37
886.441	37.23
886.609	36.07
886.777	37.34
886.945	36.04
887.113	34.53
887.281	33.63
887.449	32.62
887.617	33.77
887.785	33.82
887.953	38.69
888.121	36.44
888.289	40.86
888.457	42.31
888.625	43.42
888.793	45.3
888.961	46.39
889.129	52.01
889.296	55.07
889.464	56.88
889.632	61.95
889.8	59.5
889.967	67.01
890.135	63.88
