Data from 2938455_Reflection_1.txt Node
Date: Fri Jun 19 17:47:45 EDT 2015
User: robert
Spectrometer: USB4E03002
Autoset integration time: false
Trigger mode: 4
Integration Time (sec): 1.000000E-1
Scans to average: 10
Electric dark correction enabled: true
Nonlinearity correction enabled: false
Boxcar width: 5
Stray light correction enabled: false
XAxis mode: Wavelengths
Stop averaging: false
Number of Pixels in Spectrum: 3648
>>>>>Begin Spectral Data<<<<<
177.575	-193.06
177.794	-976.04
178.014	-49.14
178.233	45.65
178.452	35.92
178.672	-431.67
178.891	281.79
179.11	109.11
179.33	42.03
179.549	-38.1
179.768	140.12
179.987	-95.11
180.207	234.58
180.426	-192.68
180.645	-21.26
180.864	371.68
181.084	-2729.03
181.303	-280.6
181.522	-129.71
181.741	-30.61
181.96	-30.25
182.179	-91.86
182.398	-105.98
182.618	-92.15
182.837	-67.27
183.056	19.32
183.275	39.53
183.494	33.3
183.713	87.19
183.932	135.46
184.151	177.02
184.37	59.86
184.589	42.14
184.808	59.33
185.027	-66.13
185.246	1806.07
185.465	551.63
185.684	344.69
185.903	212.59
186.122	295.91
186.341	340.39
186.56	318.97
186.779	233.3
186.998	218.39
187.216	216.08
187.435	191
187.654	377.94
187.873	339.38
188.092	-6650
188.311	-712.42
188.53	986.88
188.748	361.78
188.967	419.39
189.186	1075.71
189.405	-330.56
189.623	-990.78
189.842	312.68
190.061	295.53
190.28	170.11
190.498	75.24
190.717	60.84
190.936	5.07
191.154	14.85
191.373	-6.52
191.592	18.2
191.81	32.39
192.029	41.59
192.248	29.69
192.466	25.86
192.685	37.89
192.904	38.17
193.122	46.16
193.341	51.39
193.559	44.81
193.778	49.7
193.996	17.38
194.215	14.42
194.433	21.48
194.652	19.86
194.87	38.36
195.089	21.51
195.307	47.22
195.526	35.57
195.744	65.57
195.963	78.52
196.181	59.71
196.399	81.65
196.618	110.2
196.836	113.91
197.055	105.98
197.273	106.22
197.491	119.82
197.71	117.26
197.928	132.07
198.146	115.2
198.365	103.04
198.583	103.75
198.801	100.84
199.019	104.14
199.238	82
199.456	76.54
199.674	79.18
199.892	96.44
200.111	71.67
200.329	80.06
200.547	67.6
200.765	72.96
200.983	90.91
201.202	101.98
201.42	124.3
201.638	230.82
201.856	291.86
202.074	196.09
202.292	322.61
202.51	410.7
202.728	533.03
202.946	457.04
203.165	384.38
203.383	111.44
203.601	66.39
203.819	-19.24
204.037	-40.84
204.255	-15.52
204.473	20.9
204.691	35.07
204.909	-1.41
205.127	7.35
205.345	-32.29
205.562	-127.08
205.78	-40.39
205.998	-33.03
206.216	19.96
206.434	55.39
206.652	62.44
206.87	28.86
207.088	18.53
207.306	-688.57
207.523	570.16
207.741	170.88
207.959	367.28
208.177	3152
208.395	-1654.29
208.612	-257.05
208.83	339.09
209.048	125.86
209.266	111.25
209.483	75.58
209.701	51.43
209.919	41.57
210.136	29.37
210.354	32.58
210.572	29.4
210.79	54.23
211.007	76
211.225	58.28
211.442	78.09
211.66	89.49
211.878	105.82
212.095	-340.92
212.313	-256.07
212.53	-293.04
212.748	-209.94
212.966	-178.89
213.183	-754.51
213.401	-811.19
213.618	-3618.25
213.836	1754.65
214.053	489.07
214.271	-593.72
214.488	47.28
214.705	54.02
214.923	30.57
215.14	27.22
215.358	37.15
215.575	35.14
215.793	41.81
216.01	59.17
216.227	62.82
216.445	79.74
216.662	85.66
216.879	109.07
217.097	66.83
217.314	60.38
217.531	91.25
217.749	81.61
217.966	99.97
218.183	83.74
218.4	89.57
218.618	83.42
218.835	75.09
219.052	82.24
219.269	79.45
219.487	92.81
219.704	97.8
219.921	66.2
220.138	70.97
220.355	39.83
220.572	48.17
220.79	46.1
221.007	16.29
221.224	16.92
221.441	7.41
221.658	-1.65
221.875	-3.35
222.092	-4.86
222.309	0.64
222.526	12.14
222.743	21.36
222.96	10.95
223.177	11.95
223.394	27.33
223.611	33.21
223.828	30.15
224.045	24.47
224.262	26.25
224.479	43.06
224.696	44.99
224.913	31.46
225.13	28.94
225.347	29.03
225.564	24.63
225.781	20.38
225.997	17.97
226.214	17.65
226.431	18.65
226.648	17.46
226.865	13.4
227.082	13.5
227.298	16.38
227.515	15.86
227.732	14.48
227.949	14.89
228.165	16.42
228.382	15.57
228.599	16.19
228.816	14.73
229.032	14.11
229.249	12.87
229.466	10.99
229.682	7.52
229.899	6.89
230.116	4.6
230.332	3.37
230.549	-1.57
230.765	1.42
230.982	0.1
231.199	4.06
231.415	6.09
231.632	7.27
231.848	8.41
232.065	9.41
232.281	7.12
232.498	13.41
232.714	13.64
232.931	14.43
233.147	10.61
233.364	9.95
233.58	6.53
233.797	7.65
234.013	5.32
234.23	2.14
234.446	4.8
234.662	8.07
234.879	7.88
235.095	8.39
235.312	8.93
235.528	12.69
235.744	15.33
235.961	18.92
236.177	16.17
236.393	18.86
236.61	23.19
236.826	22.5
237.042	22.23
237.258	17.49
237.475	17.21
237.691	17.19
237.907	12.25
238.123	11.83
238.339	12.66
238.556	15.34
238.772	15.15
238.988	14.59
239.204	14.04
239.42	13.11
239.636	16.22
239.853	15.97
240.069	15.64
240.285	16.72
240.501	15.9
240.717	14.61
240.933	14.18
241.149	14.74
241.365	15.02
241.581	15.78
241.797	15.76
242.013	14.62
242.229	14.98
242.445	14.86
242.661	16.3
242.877	16.9
243.093	16.74
243.309	15.19
243.525	13.78
243.741	13.34
243.957	13.48
244.173	13.4
244.388	14.17
244.604	13.21
244.82	13.73
245.036	12.56
245.252	12
245.468	12.41
245.683	12.72
245.899	13
246.115	12.88
246.331	12.32
246.547	12.3
246.762	11.61
246.978	12.25
247.194	11.52
247.409	12.2
247.625	12.44
247.841	12.27
248.057	12.52
248.272	11.76
248.488	10.31
248.703	10.06
248.919	9.93
249.135	9.99
249.35	9.51
249.566	11.07
249.782	10.66
249.997	10.67
250.213	9.95
250.428	9.94
250.644	11.79
250.859	12.89
251.075	12.79
251.29	12.5
251.506	12.67
251.721	12.48
251.937	11.92
252.152	11.93
252.368	11.79
252.583	12.8
252.798	12.95
253.014	9.87
253.229	10.7
253.445	10.66
253.66	10.63
253.875	9.51
254.091	7.69
254.306	7.03
254.521	5.75
254.737	5.75
254.952	5.6
255.167	5.41
255.383	8.15
255.598	8.81
255.813	9.78
256.028	9.03
256.244	9.81
256.459	10.2
256.674	9.75
256.889	10.03
257.104	9.71
257.32	9.95
257.535	9.5
257.75	8.96
257.965	8.85
258.18	8.28
258.395	8.88
258.61	8.48
258.826	9.02
259.041	9.02
259.256	8.97
259.471	9
259.686	9.04
259.901	9.21
260.116	8.91
260.331	7.89
260.546	8.17
260.761	7.76
260.976	8.31
261.191	7.36
261.406	7.25
261.621	7.8
261.836	7.89
262.05	6.69
262.265	6.44
262.48	7.88
262.695	8.75
262.91	8.4
263.125	8.66
263.34	7.77
263.555	8.38
263.769	8.44
263.984	7.64
264.199	8.06
264.414	9.13
264.629	9.89
264.843	8.21
265.058	7.59
265.273	7.58
265.488	8.2
265.702	9.09
265.917	9.18
266.132	9.25
266.346	10.16
266.561	10.13
266.776	9.96
266.99	9.59
267.205	10.25
267.42	10.18
267.634	10.61
267.849	9.19
268.063	8.94
268.278	7.96
268.492	8.72
268.707	7.91
268.922	7.53
269.136	7.05
269.351	6.6
269.565	7.16
269.78	8.08
269.994	7.61
270.209	8.3
270.423	8.23
270.637	8.85
270.852	8.03
271.066	8.27
271.281	9.11
271.495	9.09
271.709	9.92
271.924	9.19
272.138	8.86
272.353	8.65
272.567	9.14
272.781	9.88
272.996	9.67
273.21	10.59
273.424	10.91
273.638	10.54
273.853	10.8
274.067	10.37
274.281	11.26
274.495	11.31
274.71	12.04
274.924	11.38
275.138	10.51
275.352	10.78
275.566	10.87
275.781	10.1
275.995	9.58
276.209	9.91
276.423	9.65
276.637	8.54
276.851	7.76
277.065	7.02
277.279	6.69
277.493	6.28
277.707	6.44
277.921	6.13
278.135	6
278.349	5.92
278.563	6.05
278.777	6.2
278.991	7.01
279.205	7.54
279.419	8.08
279.633	8.53
279.847	8.98
280.061	9.03
280.275	8.74
280.489	8.34
280.703	8.47
280.917	8.26
281.131	8.18
281.344	8.44
281.558	9.03
281.772	8.84
281.986	9.04
282.2	9.3
282.414	9.15
282.627	8.48
282.841	9.74
283.055	9.24
283.269	9.85
283.482	9.4
283.696	8.88
283.91	8.5
284.123	8.25
284.337	7.99
284.551	7.64
284.764	7.98
284.978	8.7
285.192	7.81
285.405	8.39
285.619	7.15
285.833	7.89
286.046	8.25
286.26	8.73
286.473	8.79
286.687	8.85
286.9	8.86
287.114	8.7
287.327	9
287.541	9.59
287.754	9.41
287.968	10.43
288.181	9.31
288.395	8.8
288.608	8.46
288.822	9.04
289.035	9.63
289.248	9.81
289.462	10.28
289.675	10.06
289.889	9.65
290.102	10.03
290.315	9.64
290.529	10.51
290.742	11.41
290.955	11.22
291.169	11.3
291.382	10.94
291.595	11.14
291.808	10.76
292.022	11.35
292.235	11.42
292.448	10.71
292.661	10.29
292.875	10.86
293.088	10.45
293.301	11.08
293.514	11.21
293.727	10.2
293.94	9.96
294.153	9.89
294.367	8.74
294.58	8.71
294.793	8.66
295.006	9.56
295.219	9.85
295.432	9.97
295.645	9.8
295.858	9.91
296.071	10.62
296.284	10.88
296.497	11.15
296.71	11.57
296.923	12.02
297.136	12.66
297.349	12.66
297.562	11.95
297.775	12.01
297.988	11.88
298.201	11.82
298.414	12.1
298.626	12.24
298.839	11.87
299.052	11.36
299.265	11.5
299.478	11.52
299.691	11.76
299.903	11.69
300.116	11.51
300.329	12.14
300.542	11.99
300.755	12.13
300.967	12.15
301.18	11.9
301.393	12.59
301.605	12.72
301.818	12.58
302.031	11.93
302.243	12.42
302.456	12.28
302.669	12.3
302.881	12.46
303.094	12.28
303.307	11.73
303.519	11.32
303.732	11.45
303.944	11.41
304.157	11.11
304.37	11.78
304.582	12.69
304.795	12.98
305.007	12.31
305.22	12
305.432	11.29
305.645	11.89
305.857	12.47
306.069	12.23
306.282	11.68
306.494	11.82
306.707	11.35
306.919	10.32
307.132	10.42
307.344	11.28
307.556	11.46
307.769	11.41
307.981	11.39
308.193	11.21
308.406	11.33
308.618	11.92
308.83	12.42
309.043	12.54
309.255	12.24
309.467	12.29
309.679	11.88
309.892	11.78
310.104	12.4
310.316	11.98
310.528	12.4
310.74	12.79
310.953	12.27
311.165	12.49
311.377	12.72
311.589	13.02
311.801	13.49
312.013	13.9
312.225	13.83
312.437	14.2
312.649	14.66
312.862	14.41
313.074	14.01
313.286	14.94
313.498	13.77
313.71	13.18
313.922	13.36
314.134	13.38
314.346	12.02
314.558	12
314.77	11
314.982	11.18
315.193	11.88
315.405	12.18
315.617	12.19
315.829	14.03
316.041	14.93
316.253	14.84
316.465	14.74
316.677	15.33
316.888	16.79
317.1	17.84
317.312	17.72
317.524	17.09
317.736	17.89
317.947	17.02
318.159	16.21
318.371	15.02
318.583	15.94
318.794	14.43
319.006	15.27
319.218	14.26
319.43	14.3
319.641	13.88
319.853	14.64
320.064	14.54
320.276	14.7
320.488	14.98
320.699	15.96
320.911	15.1
321.123	16.39
321.334	14.99
321.546	15.07
321.757	15.04
321.969	15.37
322.18	13.73
322.392	13.48
322.603	13.44
322.815	12.88
323.026	13.68
323.238	14.15
323.449	14.45
323.661	15.87
323.872	16.27
324.083	16.01
324.295	16.55
324.506	17.63
324.718	17.22
324.929	17.4
325.14	17.39
325.352	16.77
325.563	16.18
325.774	15.68
325.986	15.73
326.197	15.52
326.408	15.41
326.62	15.05
326.831	14.1
327.042	14.24
327.253	14.42
327.464	14.9
327.676	14.44
327.887	15.07
328.098	15.6
328.309	15.25
328.52	15.29
328.732	15.96
328.943	15.73
329.154	16.74
329.365	17.02
329.576	16.79
329.787	15.95
329.998	16.29
330.209	16.07
330.42	15.54
330.631	15.76
330.842	15.66
331.053	15.26
331.264	14.44
331.475	14.3
331.686	13.76
331.897	14.15
332.108	15.12
332.319	15.12
332.53	15.58
332.741	14.7
332.952	14.62
333.163	14.1
333.374	13.25
333.585	14.19
333.795	13.97
334.006	15.09
334.217	14.73
334.428	14.25
334.639	14.96
334.849	15.11
335.06	16.66
335.271	16.39
335.482	16.1
335.692	16.1
335.903	16.1
336.114	16.08
336.325	15.91
336.535	15.93
336.746	15.57
336.957	14.84
337.167	14.77
337.378	13.85
337.589	13.96
337.799	13.81
338.01	13.57
338.22	14.09
338.431	14.86
338.642	13.86
338.852	14.03
339.063	13.96
339.273	13.71
339.484	12.46
339.694	13.4
339.905	13.52
340.115	13.84
340.326	14.41
340.536	13.97
340.746	13.06
340.957	13.31
341.167	12.39
341.378	12.28
341.588	12.58
341.799	13.61
342.009	12.59
342.219	12.63
342.43	12.71
342.64	12.93
342.85	13.05
343.061	13.31
343.271	12.8
343.481	13.34
343.691	13.8
343.902	13.77
344.112	13.77
344.322	13.51
344.532	13.08
344.743	13.29
344.953	12.75
345.163	12.26
345.373	11.85
345.583	12.12
345.793	12.17
346.004	12.5
346.214	11.42
346.424	11.54
346.634	11.77
346.844	11.8
347.054	11.69
347.264	12.02
347.474	12.58
347.684	12.98
347.894	13.61
348.104	13.48
348.314	12.91
348.524	12.92
348.734	12.43
348.944	12.46
349.154	12.4
349.364	12.05
349.574	12.19
349.784	12.09
349.994	12.47
350.204	11.71
350.413	11.67
350.623	12.02
350.833	12.77
351.043	12.56
351.253	13.03
351.463	13.13
351.672	13.31
351.882	13.74
352.092	13.18
352.302	13.53
352.511	13.55
352.721	13.66
352.931	12.49
353.141	12.14
353.35	12.32
353.56	11.91
353.77	11.39
353.979	11.08
354.189	10.23
354.399	10.4
354.608	9.92
354.818	9.92
355.027	9.7
355.237	10.01
355.447	10.16
355.656	10.19
355.866	10.7
356.075	11.22
356.285	11.84
356.494	12.19
356.704	11.75
356.913	11.78
357.123	11.56
357.332	11.31
357.542	11.59
357.751	11.66
357.96	11.81
358.17	11.3
358.379	10.82
358.589	10.71
358.798	10.41
359.007	10.63
359.217	10.3
359.426	10.28
359.635	10.71
359.845	10.71
360.054	10.68
360.263	10.17
360.472	10.39
360.682	10.55
360.891	10.26
361.1	10.31
361.309	10.42
361.519	10.46
361.728	10.46
361.937	10.24
362.146	10.27
362.355	10.34
362.564	10.83
362.774	10.12
362.983	9.88
363.192	9.99
363.401	9.87
363.61	9.88
363.819	9.55
364.028	9.75
364.237	9.66
364.446	9.37
364.655	9.38
364.864	8.79
365.073	9.42
365.282	9.31
365.491	9.43
365.7	10.26
365.909	10.27
366.118	10.22
366.327	10.03
366.536	9.93
366.745	10.44
366.954	9.73
367.162	9.92
367.371	9.65
367.58	9.73
367.789	9.44
367.998	8.47
368.207	8.36
368.415	8.49
368.624	8.49
368.833	8.51
369.042	7.9
369.25	8.41
369.459	8.92
369.668	8.97
369.877	9.21
370.085	8.96
370.294	9.26
370.503	9.29
370.711	9.38
370.92	9.56
371.129	9.42
371.337	9.41
371.546	9.25
371.754	8.81
371.963	8.72
372.171	8.53
372.38	8.6
372.589	8.26
372.797	8.09
373.006	8.02
373.214	8.17
373.423	7.84
373.631	7.98
373.84	7.45
374.048	7.35
374.256	7.21
374.465	7.22
374.673	7.4
374.882	7.17
375.09	7.27
375.298	7.22
375.507	6.82
375.715	7.46
375.923	7.12
376.132	7.42
376.34	7.26
376.548	7.32
376.757	7.03
376.965	6.66
377.173	6.77
377.381	6.62
377.59	6.75
377.798	6.92
378.006	6.5
378.214	6.53
378.423	6.61
378.631	6.82
378.839	6.41
379.047	6.7
379.255	6.97
379.463	6.99
379.671	7.06
379.879	6.96
380.088	6.67
380.296	6.84
380.504	7.23
380.712	7.35
380.92	7.08
381.128	7.74
381.336	7.72
381.544	7.97
381.752	8.05
381.96	7.65
382.168	7.66
382.376	7.84
382.584	7.57
382.791	7.37
382.999	7.02
383.207	6.98
383.415	6.54
383.623	6.71
383.831	6.4
384.039	6.35
384.247	6.44
384.454	6.59
384.662	6.5
384.87	6.48
385.078	6.65
385.285	6.48
385.493	6.79
385.701	6.8
385.909	6.66
386.116	6.43
386.324	6.19
386.532	5.98
386.739	5.76
386.947	5.65
387.155	5.87
387.362	5.59
387.57	5.84
387.778	5.69
387.985	5.68
388.193	5.57
388.4	5.65
388.608	5.88
388.816	6.17
389.023	6.23
389.231	6.27
389.438	6.1
389.646	6.1
389.853	5.93
390.061	5.81
390.268	5.73
390.475	5.63
390.683	5.47
390.89	5.13
391.098	4.91
391.305	4.72
391.512	4.61
391.72	4.45
391.927	4.35
392.135	4.38
392.342	4.49
392.549	4.51
392.756	4.24
392.964	4.31
393.171	4.55
393.378	4.65
393.586	4.32
393.793	4.28
394	4.38
394.207	4.51
394.414	4.66
394.622	4.47
394.829	4.55
395.036	4.75
395.243	4.65
395.45	4.6
395.657	4.77
395.864	5.25
396.072	5.29
396.279	5.33
396.486	5.19
396.693	4.85
396.9	4.62
397.107	4.59
397.314	4.61
397.521	4.74
397.728	4.6
397.935	4.4
398.142	4.27
398.349	4.2
398.556	4.26
398.763	4.21
398.97	4.27
399.177	4.57
399.383	4.43
399.59	4.43
399.797	4.21
400.004	4.2
400.211	4.29
400.418	4.17
400.625	4.23
400.831	3.9
401.038	3.98
401.245	4.27
401.452	4.08
401.658	4.11
401.865	4.2
402.072	4.35
402.279	4.46
402.485	4.23
402.692	4.21
402.899	4.15
403.105	4.36
403.312	4.38
403.519	4.07
403.725	4.16
403.932	4.21
404.138	4.13
404.345	3.99
404.552	3.83
404.758	4.02
404.965	4.07
405.171	4.01
405.378	4.05
405.584	3.94
405.791	4.05
405.997	4.18
406.204	4.15
406.41	4.19
406.617	4.25
406.823	4.15
407.029	4.03
407.236	4.08
407.442	4.16
407.649	4.02
407.855	4.06
408.061	4.09
408.268	3.82
408.474	3.69
408.68	3.61
408.887	3.65
409.093	3.84
409.299	3.86
409.505	3.73
409.712	3.6
409.918	3.59
410.124	3.53
410.33	3.61
410.537	3.62
410.743	3.72
410.949	3.67
411.155	3.65
411.361	3.6
411.567	3.4
411.773	3.38
411.98	3.38
412.186	3.51
412.392	3.79
412.598	3.64
412.804	3.65
413.01	3.61
413.216	3.7
413.422	3.86
413.628	3.85
413.834	3.97
414.04	4.06
414.246	4.07
414.452	4.02
414.658	3.87
414.864	3.83
415.07	3.81
415.275	3.84
415.481	3.81
415.687	3.59
415.893	3.64
416.099	3.56
416.305	3.55
416.511	3.62
416.716	3.56
416.922	3.54
417.128	3.56
417.334	3.61
417.539	3.53
417.745	3.59
417.951	3.64
418.157	3.52
418.362	3.63
418.568	3.57
418.774	3.47
418.979	3.5
419.185	3.52
419.391	3.45
419.596	3.39
419.802	3.4
420.008	3.32
420.213	2.9
420.419	2.98
420.624	2.95
420.83	3.01
421.035	3.05
421.241	3.09
421.446	3.01
421.652	3.07
421.857	3.13
422.063	3.22
422.268	3.23
422.474	3.63
422.679	3.53
422.885	3.53
423.09	3.55
423.295	3.64
423.501	3.62
423.706	3.68
423.911	3.65
424.117	3.59
424.322	3.49
424.527	3.45
424.733	3.48
424.938	3.52
425.143	3.52
425.349	3.45
425.554	3.37
425.759	3.3
425.964	3.2
426.169	3.18
426.375	3.08
426.58	3.09
426.785	3.21
426.99	3.12
427.195	3.27
427.4	3.28
427.605	3.22
427.811	3.27
428.016	3.35
428.221	3.32
428.426	3.25
428.631	3.45
428.836	3.43
429.041	3.43
429.246	3.46
429.451	3.37
429.656	3.24
429.861	3.38
430.066	3.28
430.271	3.18
430.476	3.29
430.681	3.44
430.886	3.38
431.09	3.3
431.295	3.31
431.5	3.3
431.705	3.27
431.91	3.27
432.115	3.27
432.32	3.25
432.524	3.24
432.729	3.24
432.934	3.15
433.139	3.08
433.343	3.16
433.548	3.15
433.753	3.26
433.958	3.32
434.162	3.44
434.367	3.28
434.572	3.39
434.776	3.44
434.981	3.32
435.186	3.35
435.39	3.46
435.595	3.5
435.799	3.35
436.004	3.32
436.209	3.32
436.413	3.38
436.618	3.41
436.822	3.38
437.027	3.44
437.231	3.51
437.436	3.51
437.64	3.44
437.845	3.38
438.049	3.42
438.253	3.4
438.458	3.39
438.662	3.27
438.867	3.32
439.071	3.37
439.275	3.26
439.48	3.32
439.684	3.28
439.888	3.33
440.093	3.28
440.297	3.32
440.501	3.31
440.706	3.24
440.91	3.27
441.114	3.25
441.318	3.19
441.523	3.3
441.727	3.21
441.931	3.3
442.135	3.34
442.339	3.46
442.543	3.41
442.748	3.38
442.952	3.41
443.156	3.38
443.36	3.38
443.564	3.44
443.768	3.32
443.972	3.28
444.176	3.31
444.38	3.3
444.584	3.21
444.788	3.21
444.992	3.21
445.196	3.24
445.4	3.19
445.604	3.19
445.808	3.18
446.012	3.16
446.216	3.15
446.42	3.16
446.624	3.08
446.828	3.13
447.032	3.11
447.235	3.06
447.439	3.03
447.643	3.04
447.847	3.09
448.051	3.02
448.254	3.06
448.458	3.2
448.662	3.08
448.866	3.13
449.069	3.11
449.273	3.18
449.477	3.29
449.681	3.29
449.884	3.38
450.088	3.3
450.292	3.16
450.495	3.09
450.699	3.04
450.902	3.02
451.106	3.02
451.31	2.96
451.513	2.91
451.717	2.88
451.92	2.94
452.124	2.91
452.327	3
452.531	3.27
452.734	3.38
452.938	3.31
453.141	3.4
453.345	3.38
453.548	3.46
453.752	3.56
453.955	3.53
454.158	3.44
454.362	3.44
454.565	3.37
454.769	3.29
454.972	3.18
455.175	3.16
455.379	2.98
455.582	3.01
455.785	2.98
455.988	3
456.192	2.99
456.395	3
456.598	3.02
456.801	3.06
457.005	3.12
457.208	3.2
457.411	3.2
457.614	3.34
457.817	3.36
458.021	3.34
458.224	3.2
458.427	3.22
458.63	3.23
458.833	3.25
459.036	3.2
459.239	3.25
459.442	3.19
459.645	3.22
459.848	3.18
460.051	3.1
460.254	3.05
460.457	3.06
460.66	3.08
460.863	3.05
461.066	3.09
461.269	3.08
461.472	2.97
461.675	3.02
461.878	3.03
462.081	2.94
462.284	2.95
462.486	3.12
462.689	3.15
462.892	3.06
463.095	3.2
463.298	3.06
463.5	3.19
463.703	3.1
463.906	3.15
464.109	3.13
464.311	3.19
464.514	3.31
464.717	3.31
464.92	3.37
465.122	3.42
465.325	3.31
465.528	3.43
465.73	3.37
465.933	3.42
466.135	3.41
466.338	3.46
466.541	3.51
466.743	3.46
466.946	3.42
467.148	3.41
467.351	3.42
467.553	3.43
467.756	3.39
467.958	3.32
468.161	3.38
468.363	3.32
468.566	3.24
468.768	3.1
468.971	3.11
469.173	3.07
469.375	2.98
469.578	2.9
469.78	2.85
469.983	2.82
470.185	2.71
470.387	2.66
470.59	2.71
470.792	2.71
470.994	2.82
471.196	2.75
471.399	2.72
471.601	2.73
471.803	2.77
472.005	2.88
472.208	2.87
472.41	2.94
472.612	2.92
472.814	2.89
473.016	2.92
473.218	2.93
473.421	2.99
473.623	3.06
473.825	3.25
474.027	3.25
474.229	3.28
474.431	3.3
474.633	3.36
474.835	3.3
475.037	3.37
475.239	3.35
475.441	3.31
475.643	3.22
475.845	3.12
476.047	3.04
476.249	3.1
476.451	3
476.653	3.05
476.855	3.02
477.057	3.08
477.258	3.05
477.46	3.1
477.662	3.07
477.864	3.12
478.066	3.19
478.268	3.21
478.469	3.18
478.671	3.16
478.873	3
479.075	2.98
479.276	2.96
479.478	2.89
479.68	2.92
479.882	2.96
480.083	2.93
480.285	2.93
480.487	2.93
480.688	2.97
480.89	3.03
481.091	3.1
481.293	3.08
481.495	3.09
481.696	3.12
481.898	3.09
482.099	3.13
482.301	3.16
482.502	3.14
482.704	3.12
482.905	3.09
483.107	3.07
483.308	3.08
483.51	3.09
483.711	3.1
483.913	3.11
484.114	3.11
484.315	3.03
484.517	3
484.718	3.02
484.92	3.01
485.121	3.02
485.322	3.02
485.524	3.01
485.725	3.01
485.926	2.98
486.127	2.91
486.329	2.91
486.53	2.95
486.731	2.93
486.932	2.92
487.134	2.94
487.335	2.95
487.536	2.95
487.737	2.96
487.938	2.92
488.139	2.96
488.341	3.02
488.542	3.06
488.743	3.11
488.944	3.14
489.145	3.13
489.346	3.15
489.547	3.13
489.748	3.13
489.949	3.13
490.15	3.18
490.351	3.16
490.552	3.16
490.753	3.07
490.954	3.06
491.155	3.08
491.356	3.12
491.557	3.09
491.758	3.08
491.959	3.13
492.159	3.14
492.36	3.12
492.561	3.09
492.762	3.1
492.963	3.15
493.164	3.07
493.364	3.09
493.565	3.06
493.766	3.07
493.967	3.09
494.167	3.04
494.368	3.01
494.569	3.08
494.769	3.12
494.97	3.05
495.171	3.1
495.371	3.22
495.572	3.21
495.773	3.22
495.973	3.26
496.174	3.28
496.375	3.27
496.575	3.36
496.776	3.3
496.976	3.28
497.177	3.36
497.377	3.36
497.578	3.26
497.778	3.25
497.979	3.32
498.179	3.23
498.38	3.2
498.58	3.13
498.78	3.06
498.981	3.11
499.181	3.17
499.382	3.13
499.582	3.07
499.782	3.18
499.983	3.21
500.183	3.2
500.383	3.25
500.584	3.31
500.784	3.34
500.984	3.36
501.184	3.32
501.385	3.33
501.585	3.32
501.785	3.38
501.985	3.23
502.185	3.16
502.386	3.15
502.586	3.14
502.786	3.14
502.986	3.21
503.186	3.24
503.386	3.26
503.586	3.2
503.786	3.27
503.987	3.22
504.187	3.27
504.387	3.34
504.587	3.32
504.787	3.41
504.987	3.41
505.187	3.38
505.387	3.36
505.587	3.26
505.786	3.35
505.986	3.32
506.186	3.31
506.386	3.39
506.586	3.34
506.786	3.27
506.986	3.17
507.186	3.19
507.386	3.27
507.585	3.29
507.785	3.35
507.985	3.32
508.185	3.36
508.384	3.42
508.584	3.38
508.784	3.4
508.984	3.45
509.183	3.53
509.383	3.58
509.583	3.5
509.782	3.51
509.982	3.55
510.182	3.47
510.381	3.39
510.581	3.34
510.781	3.4
510.98	3.41
511.18	3.51
511.379	3.49
511.579	3.39
511.778	3.37
511.978	3.37
512.177	3.38
512.377	3.49
512.576	3.49
512.776	3.51
512.975	3.49
513.175	3.51
513.374	3.46
513.573	3.55
513.773	3.68
513.972	3.65
514.172	3.68
514.371	3.66
514.57	3.61
514.77	3.55
514.969	3.59
515.168	3.55
515.367	3.58
515.567	3.51
515.766	3.5
515.965	3.46
516.164	3.51
516.364	3.5
516.563	3.46
516.762	3.46
516.961	3.57
517.16	3.6
517.359	3.62
517.559	3.6
517.758	3.66
517.957	3.64
518.156	3.57
518.355	3.57
518.554	3.52
518.753	3.56
518.952	3.6
519.151	3.55
519.35	3.52
519.549	3.54
519.748	3.47
519.947	3.51
520.146	3.51
520.345	3.53
520.544	3.59
520.743	3.59
520.942	3.62
521.141	3.63
521.339	3.68
521.538	3.7
521.737	3.7
521.936	3.74
522.135	3.6
522.333	3.53
522.532	3.6
522.731	3.59
522.93	3.59
523.129	3.62
523.327	3.61
523.526	3.65
523.725	3.62
523.923	3.66
524.122	3.68
524.321	3.78
524.519	3.85
524.718	3.83
524.917	3.87
525.115	3.89
525.314	3.89
525.512	3.91
525.711	3.9
525.909	3.91
526.108	3.85
526.306	3.85
526.505	3.82
526.703	3.83
526.902	3.83
527.1	3.82
527.299	3.82
527.497	3.81
527.696	3.8
527.894	3.82
528.092	3.83
528.291	3.88
528.489	3.9
528.688	3.93
528.886	3.89
529.084	3.95
529.283	3.91
529.481	3.96
529.679	3.96
529.877	3.96
530.076	3.96
530.274	3.96
530.472	3.95
530.67	3.97
530.869	3.95
531.067	4
531.265	3.96
531.463	4.02
531.661	4.04
531.859	4.05
532.057	4.09
532.255	4.08
532.454	4.1
532.652	4.08
532.85	4.13
533.048	4.16
533.246	4.16
533.444	4.19
533.642	4.24
533.84	4.25
534.038	4.31
534.236	4.34
534.434	4.37
534.632	4.36
534.83	4.38
535.027	4.34
535.225	4.4
535.423	4.45
535.621	4.48
535.819	4.47
536.017	4.43
536.215	4.43
536.412	4.39
536.61	4.41
536.808	4.44
537.006	4.4
537.203	4.44
537.401	4.36
537.599	4.41
537.797	4.42
537.994	4.41
538.192	4.43
538.39	4.48
538.587	4.51
538.785	4.52
538.983	4.57
539.18	4.7
539.378	4.63
539.575	4.67
539.773	4.59
539.97	4.61
540.168	4.65
540.366	4.7
540.563	4.7
540.761	4.72
540.958	4.76
541.155	4.72
541.353	4.74
541.55	4.82
541.748	4.85
541.945	4.95
542.143	4.97
542.34	4.99
542.537	4.97
542.735	5.01
542.932	5.03
543.129	5.03
543.327	5.12
543.524	5.14
543.721	5.12
543.919	5.17
544.116	5.12
544.313	5.14
544.51	5.17
544.708	5.23
544.905	5.24
545.102	5.33
545.299	5.39
545.496	5.41
545.693	5.44
545.891	5.53
546.088	5.59
546.285	5.63
546.482	5.65
546.679	5.65
546.876	5.68
547.073	5.75
547.27	5.71
547.467	5.72
547.664	5.77
547.861	5.79
548.058	5.8
548.255	5.8
548.452	5.9
548.649	6.04
548.846	6.06
549.043	6.05
549.24	6.07
549.437	6.11
549.633	6.11
549.83	6.14
550.027	6.22
550.224	6.23
550.421	6.2
550.618	6.19
550.814	6.22
551.011	6.19
551.208	6.18
551.405	6.16
551.601	6.19
551.798	6.2
551.995	6.23
552.191	6.13
552.388	6.09
552.585	6.05
552.781	6.02
552.978	5.98
553.175	6.13
553.371	6.24
553.568	6.27
553.764	6.3
553.961	6.31
554.157	6.38
554.354	6.42
554.55	6.59
554.747	6.74
554.943	6.88
555.14	6.96
555.336	6.99
555.533	7.02
555.729	7.07
555.926	7.16
556.122	7.26
556.318	7.32
556.515	7.44
556.711	7.38
556.907	7.39
557.104	7.34
557.3	7.43
557.496	7.42
557.693	7.43
557.889	7.5
558.085	7.48
558.281	7.49
558.478	7.49
558.674	7.43
558.87	7.52
559.066	7.53
559.262	7.58
559.459	7.52
559.655	7.6
559.851	7.58
560.047	7.57
560.243	7.62
560.439	7.6
560.635	7.48
560.831	7.55
561.027	7.59
561.223	7.57
561.419	7.65
561.615	7.72
561.811	7.67
562.007	7.78
562.203	7.79
562.399	7.87
562.595	7.95
562.791	8.22
562.987	8.42
563.183	8.47
563.379	8.6
563.575	8.7
563.771	8.6
563.966	8.68
564.162	8.83
564.358	8.88
564.554	8.85
564.75	8.94
564.945	8.87
565.141	8.81
565.337	8.86
565.533	8.86
565.728	8.84
565.924	8.96
566.12	9.01
566.315	9.02
566.511	9.22
566.707	9.29
566.902	9.25
567.098	9.25
567.293	9.28
567.489	9.32
567.684	9.45
567.88	9.48
568.076	9.59
568.271	9.69
568.467	9.72
568.662	9.68
568.858	9.72
569.053	9.89
569.248	9.93
569.444	10
569.639	9.93
569.835	9.9
570.03	10.03
570.225	10.04
570.421	10.07
570.616	9.99
570.812	9.92
571.007	9.95
571.202	9.89
571.397	10
571.593	10.05
571.788	10.22
571.983	10.22
572.178	10.16
572.374	10.27
572.569	10.24
572.764	10.24
572.959	10.4
573.154	10.45
573.35	10.42
573.545	10.42
573.74	10.38
573.935	10.37
574.13	10.42
574.325	10.53
574.52	10.47
574.715	10.58
574.91	10.66
575.105	10.71
575.3	10.71
575.495	10.72
575.69	10.8
575.885	10.93
576.08	10.96
576.275	11.11
576.47	11.14
576.665	11.23
576.86	11.27
577.055	11.32
577.25	11.22
577.444	11.43
577.639	11.62
577.834	11.63
578.029	11.69
578.224	11.66
578.418	11.67
578.613	11.66
578.808	11.66
579.003	11.61
579.197	11.75
579.392	11.82
579.587	11.75
579.781	11.71
579.976	11.8
580.171	11.72
580.365	11.87
580.56	12
580.755	12.04
580.949	12.11
581.144	12.13
581.338	12.08
581.533	12.16
581.727	12.16
581.922	12.21
582.116	12.11
582.311	12.1
582.505	12
582.7	12.09
582.894	12.13
583.089	12.1
583.283	12.13
583.478	12.3
583.672	12.47
583.866	12.53
584.061	12.58
584.255	12.6
584.449	12.71
584.644	12.82
584.838	12.62
585.032	12.59
585.226	12.56
585.421	12.39
585.615	12.34
585.809	12.14
586.003	12.29
586.198	12.4
586.392	12.54
586.586	12.63
586.78	12.63
586.974	12.66
587.168	12.71
587.363	12.76
587.557	13.01
587.751	12.89
587.945	12.98
588.139	12.96
588.333	12.77
588.527	12.7
588.721	12.78
588.915	12.92
589.109	13.08
589.303	12.93
589.497	13.02
589.691	13.06
589.885	13.15
590.079	13.11
590.273	12.94
590.466	13.15
590.66	13.06
590.854	12.94
591.048	12.94
591.242	12.79
591.436	12.69
591.629	12.67
591.823	12.69
592.017	12.7
592.211	12.78
592.404	12.89
592.598	12.89
592.792	13.02
592.986	13.05
593.179	12.98
593.373	12.97
593.567	13.34
593.76	13.32
593.954	13.25
594.147	13.35
594.341	13.43
594.535	13.45
594.728	13.45
594.922	13.45
595.115	13.44
595.309	13.43
595.502	13.56
595.696	13.6
595.889	13.64
596.083	13.74
596.276	13.62
596.47	13.52
596.663	13.45
596.856	13.35
597.05	13.32
597.243	13.29
597.437	13.32
597.63	13.32
597.823	13.21
598.017	13.22
598.21	13.06
598.403	13.1
598.596	13.14
598.79	13.23
598.983	13.3
599.176	13.39
599.369	13.55
599.563	13.47
599.756	13.47
599.949	13.56
600.142	13.5
600.335	13.59
600.528	13.73
600.722	13.85
600.915	13.93
601.108	13.83
601.301	13.83
601.494	13.77
601.687	13.87
601.88	13.75
602.073	13.69
602.266	13.81
602.459	13.8
602.652	13.63
602.845	13.63
603.038	13.61
603.231	13.88
603.424	13.87
603.617	13.87
603.809	13.78
604.002	13.79
604.195	13.86
604.388	13.68
604.581	13.61
604.774	13.76
604.966	13.56
605.159	13.63
605.352	13.49
605.545	13.5
605.737	13.42
605.93	13.63
606.123	13.68
606.316	13.68
606.508	13.92
606.701	14.11
606.894	14.05
607.086	14.2
607.279	14.13
607.471	14.19
607.664	14.13
607.857	14.22
608.049	14.13
608.242	14.05
608.434	13.9
608.627	13.84
608.819	13.68
609.012	13.66
609.204	13.59
609.397	13.59
609.589	13.49
609.782	13.57
609.974	13.53
610.166	13.53
610.359	13.62
610.551	13.71
610.743	13.78
610.936	14.03
611.128	14.08
611.32	14.18
611.513	14.13
611.705	14.24
611.897	14.36
612.09	14.51
612.282	14.52
612.474	14.64
612.666	14.73
612.858	14.75
613.051	14.64
613.243	14.84
613.435	14.8
613.627	14.88
613.819	14.69
614.011	14.69
614.203	14.67
614.395	14.35
614.588	14.32
614.78	14.25
614.972	14.27
615.164	14.25
615.356	14.13
615.548	14.08
615.74	14.02
615.932	14.02
616.124	13.81
616.315	13.95
616.507	14.41
616.699	14.33
616.891	14.3
617.083	14.33
617.275	14.34
617.467	14.28
617.659	14.55
617.85	14.86
618.042	15.1
618.234	15.31
618.426	15.01
618.618	14.84
618.809	14.87
619.001	14.92
619.193	14.91
619.384	15.05
619.576	14.97
619.768	14.89
619.959	14.59
620.151	14.45
620.343	14.39
620.534	14.46
620.726	14.53
620.917	14.57
621.109	14.39
621.301	14.32
621.492	14.13
621.684	14.3
621.875	14.1
622.067	14.22
622.258	14.27
622.45	14.36
622.641	14.28
622.832	14.2
623.024	14.16
623.215	14.38
623.407	14.4
623.598	14.43
623.789	14.41
623.981	14.52
624.172	14.46
624.363	14.49
624.555	14.46
624.746	14.58
624.937	14.72
625.129	14.66
625.32	14.69
625.511	14.67
625.702	14.59
625.893	14.57
626.085	14.65
626.276	14.54
626.467	14.56
626.658	14.44
626.849	14.55
627.04	14.45
627.231	14.59
627.422	14.53
627.614	14.41
627.805	14.35
627.996	14.24
628.187	14.1
628.378	14.33
628.569	14.36
628.76	14.42
628.951	14.17
629.142	14.01
629.332	13.96
629.523	13.97
629.714	14.22
629.905	14.49
630.096	14.72
630.287	14.75
630.478	14.64
630.669	14.59
630.859	14.62
631.05	14.66
631.241	14.84
631.432	14.84
631.623	14.8
631.813	14.75
632.004	14.6
632.195	14.49
632.385	14.54
632.576	14.48
632.767	14.52
632.957	14.58
633.148	14.7
633.339	14.76
633.529	14.86
633.72	14.97
633.91	14.89
634.101	15
634.292	15.19
634.482	15.11
634.673	15.32
634.863	15.22
635.054	15.12
635.244	15.12
635.435	14.94
635.625	14.84
635.815	14.91
636.006	14.94
636.196	15.09
636.387	14.73
636.577	14.85
636.767	14.81
636.958	14.88
637.148	14.9
637.338	14.78
637.529	14.75
637.719	14.69
637.909	14.55
638.099	14.76
638.29	14.52
638.48	14.86
638.67	14.67
638.86	14.58
639.05	14.49
639.241	14.54
639.431	14.55
639.621	14.69
639.811	14.72
640.001	14.69
640.191	14.45
640.381	14.37
640.571	14.3
640.761	14.53
640.951	14.53
641.141	14.67
641.331	14.76
641.521	14.88
641.711	14.95
641.901	14.88
642.091	14.91
642.281	15.02
642.471	15.11
642.661	15.22
642.851	15.23
643.041	15.28
643.231	15.18
643.42	14.92
643.61	15.11
643.8	14.99
643.99	15.01
644.18	14.91
644.369	14.83
644.559	14.92
644.749	14.71
644.939	14.47
645.128	14.37
645.318	14.41
645.508	14.47
645.697	14.33
645.887	14.44
646.076	14.49
646.266	14.46
646.456	14.58
646.645	14.65
646.835	14.58
647.024	14.88
647.214	14.82
647.403	14.76
647.593	14.81
647.782	14.54
647.972	14.4
648.161	14.5
648.351	14.59
648.54	14.48
648.73	14.31
648.919	14.29
649.108	14.11
649.298	14.34
649.487	14.32
649.677	14.35
649.866	14.45
650.055	14.63
650.244	14.64
650.434	14.68
650.623	14.73
650.812	14.83
651.002	14.91
651.191	15
651.38	14.94
651.569	15.03
651.758	15.16
651.947	15.37
652.137	15.42
652.326	15.28
652.515	15.35
652.704	15.46
652.893	15.52
653.082	15.49
653.271	15.9
653.46	16.02
653.649	16.11
653.838	16.21
654.027	16.14
654.216	16.28
654.405	16.7
654.594	16.61
654.783	16.5
654.972	16.62
655.161	16.91
655.35	16.5
655.539	16.41
655.728	16.45
655.916	16.15
656.105	15.94
656.294	15.64
656.483	15.26
656.672	15.46
656.86	15.6
657.049	15.46
657.238	15.39
657.427	15.39
657.615	15.49
657.804	15.39
657.993	15.63
658.181	15.75
658.37	15.74
658.559	15.72
658.747	15.67
658.936	15.56
659.125	15.27
659.313	15.36
659.502	15.29
659.69	14.97
659.879	15.1
660.067	14.98
660.256	14.98
660.444	15.03
660.633	15.13
660.821	14.88
661.01	15
661.198	15.23
661.387	15.02
661.575	15.07
661.763	15.32
661.952	15.3
662.14	15.45
662.328	15.51
662.517	15.76
662.705	15.67
662.893	15.95
663.082	15.7
663.27	15.75
663.458	15.76
663.646	16.06
663.834	16.19
664.023	15.97
664.211	15.86
664.399	15.83
664.587	15.6
664.775	15.96
664.963	15.84
665.152	15.92
665.34	16.1
665.528	16.03
665.716	15.89
665.904	15.61
666.092	15.74
666.28	15.61
666.468	15.48
666.656	15.69
666.844	15.49
667.032	15.67
667.22	15.59
667.408	15.31
667.596	15.45
667.784	15.29
667.971	15.54
668.159	15.62
668.347	15.79
668.535	15.73
668.723	15.53
668.911	15.49
669.098	15.19
669.286	15.31
669.474	15.21
669.662	15.15
669.849	15.23
670.037	14.86
670.225	14.92
670.413	14.68
670.6	14.98
670.788	15.01
670.976	15.05
671.163	15.08
671.351	15.04
671.538	15.24
671.726	15.09
671.913	14.97
672.101	15.12
672.289	15.17
672.476	15.13
672.664	15.08
672.851	15.03
673.039	14.95
673.226	15.12
673.413	14.87
673.601	15
673.788	15.29
673.976	15.25
674.163	15.29
674.35	14.98
674.538	15.24
674.725	15.32
674.912	15.17
675.1	15.06
675.287	14.92
675.474	15.23
675.662	15.27
675.849	15.1
676.036	15.41
676.223	15.54
676.411	15.93
676.598	15.94
676.785	15.76
676.972	15.57
677.159	15.76
677.346	15.57
677.533	15.59
677.721	15.62
677.908	15.8
678.095	15.67
678.282	15.67
678.469	15.33
678.656	15.13
678.843	15.22
679.03	15.67
679.217	15.81
679.404	16.23
679.591	16.16
679.778	15.93
679.964	15.86
680.151	15.92
680.338	15.82
680.525	15.82
680.712	15.76
680.899	15.94
681.086	16.01
681.272	15.72
681.459	15.5
681.646	15.78
681.833	15.91
682.02	15.89
682.206	15.81
682.393	15.94
682.58	16.23
682.766	16.57
682.953	16.55
683.14	16.11
683.326	16.53
683.513	16.61
683.7	16.42
683.886	16.62
684.073	16.59
684.259	16.73
684.446	16.7
684.632	16.61
684.819	16.34
685.005	16.22
685.192	16.54
685.378	16.33
685.565	16.26
685.751	16.22
685.938	16.04
686.124	15.96
686.31	15.64
686.497	15.42
686.683	15.51
686.87	15.73
687.056	15.53
687.242	15.38
687.429	15.36
687.615	15.68
687.801	15.68
687.987	15.74
688.174	16.07
688.36	16.55
688.546	16.74
688.732	16.62
688.918	16.37
689.105	16.32
689.291	16.34
689.477	16.31
689.663	15.87
689.849	16.01
690.035	15.98
690.221	15.68
690.407	15.88
690.593	16
690.779	15.96
690.965	16.26
691.151	16.57
691.337	16.74
691.523	16.57
691.709	16.9
691.895	16.83
692.081	16.58
692.267	16.87
692.453	16.8
692.639	16.74
692.825	16.77
693.011	16.68
693.196	16.62
693.382	16.61
693.568	16.94
693.754	16.94
693.94	16.64
694.125	17.07
694.311	16.67
694.497	16.32
694.682	16.26
694.868	16.28
695.054	16.36
695.239	16.53
695.425	16.28
695.611	16.5
695.796	16.38
695.982	16.79
696.168	16.68
696.353	16.59
696.539	16.37
696.724	16.28
696.91	16.39
697.095	16.48
697.281	16.37
697.466	16.57
697.652	16.39
697.837	16.58
698.023	16.41
698.208	16.29
698.393	16.6
698.579	16.75
698.764	16.83
698.949	16.61
699.135	16.59
699.32	16.38
699.505	16.28
699.691	16.08
699.876	15.79
700.061	15.83
700.246	15.76
700.432	15.59
700.617	15.67
700.802	15.78
700.987	16.05
701.172	16.02
701.358	16.02
701.543	16.35
701.728	16.7
701.913	16.66
702.098	16.43
702.283	16.78
702.468	16.74
702.653	16.71
702.838	16.63
703.023	16.32
703.208	16.21
703.393	16.47
703.578	16.17
703.763	16.24
703.948	16.4
704.133	16.66
704.318	16.58
704.503	16.63
704.688	16.56
704.873	16.54
705.057	17.05
705.242	16.93
705.427	17.03
705.612	17.22
705.797	17.08
705.981	17.35
706.166	17.57
706.351	17.76
706.536	17.63
706.72	17.55
706.905	17.65
707.09	16.96
707.274	17.11
707.459	17.24
707.644	17.04
707.828	17.29
708.013	17.07
708.197	16.82
708.382	16.94
708.567	16.83
708.751	16.98
708.936	16.85
709.12	17.22
709.305	17.01
709.489	16.7
709.673	16.62
709.858	16.52
710.042	16.5
710.227	16.75
710.411	16.58
710.596	16.67
710.78	16.56
710.964	16.68
711.149	17.25
711.333	17.56
711.517	17.18
711.702	17.52
711.886	17.06
712.07	16.8
712.254	16.65
712.438	16.65
712.623	16.83
712.807	16.78
712.991	16.65
713.175	15.88
713.359	15.89
713.544	16.2
713.728	16.18
713.912	16.29
714.096	16.91
714.28	16.91
714.464	16.58
714.648	16.52
714.832	16.51
715.016	16.58
715.2	16.78
715.384	16.78
715.568	16.69
715.752	16.35
715.936	16.35
716.12	15.9
716.304	15.74
716.488	15.98
716.671	15.75
716.855	15.86
717.039	15.61
717.223	15.31
717.407	15.12
717.59	15.58
717.774	15.51
717.958	15.58
718.142	16.12
718.325	16.31
718.509	16.13
718.693	16.32
718.877	16.01
719.06	16.49
719.244	17.22
719.428	17.19
719.611	17.28
719.795	17.83
719.978	18.06
720.162	17.51
720.345	17.48
720.529	17.64
720.713	17.7
720.896	17.97
721.08	17.7
721.263	16.95
721.446	17.06
721.63	16.72
721.813	15.72
721.997	15.47
722.18	15.36
722.364	15.12
722.547	14.91
722.73	14.74
722.914	15.26
723.097	15.31
723.28	16.06
723.464	15.86
723.647	15.84
723.83	16.56
724.013	16.96
724.197	17.05
724.38	16.9
724.563	16.62
724.746	17.29
724.929	17.01
725.112	17
725.296	16.58
725.479	16.74
725.662	16.73
725.845	16.82
726.028	16.13
726.211	16.04
726.394	16.34
726.577	16.91
726.76	16.12
726.943	16.32
727.126	16.53
727.309	16.75
727.492	16.42
727.675	16.45
727.858	16.65
728.041	17
728.224	17.05
728.407	16.74
728.589	16.92
728.772	16.87
728.955	16.9
729.138	16.37
729.321	16.21
729.503	16.29
729.686	16.48
729.869	16.06
730.052	16.12
730.234	16.25
730.417	16.69
730.6	16.46
730.782	16.62
730.965	16.33
731.148	16.73
731.33	16.8
731.513	16.71
731.695	16.01
731.878	16.14
732.061	16.29
732.243	16.28
732.426	16.33
732.608	16.29
732.791	16.19
732.973	16.13
733.156	15.75
733.338	15.61
733.52	16.02
733.703	16.64
733.885	16.55
734.068	16.4
734.25	16.37
734.432	16.12
734.615	15.87
734.797	16.06
734.979	15.72
735.162	15.81
735.344	15.82
735.526	15.37
735.708	15.55
735.891	15.53
736.073	15.47
736.255	15.37
736.437	15.24
736.619	15.74
736.802	15.92
736.984	16.21
737.166	16.27
737.348	17.23
737.53	17.91
737.712	17.85
737.894	18.19
738.076	18.17
738.258	18.85
738.44	19.17
738.622	19.21
738.804	18.89
738.986	18.91
739.168	19.18
739.35	18.48
739.532	17.88
739.714	18.02
739.896	17.63
740.078	17.9
740.259	16.79
740.441	16.85
740.623	16.89
740.805	17.16
740.987	17.09
741.168	16.45
741.35	16.11
741.532	16.4
741.714	16.26
741.895	16.9
742.077	16.67
742.259	17.7
742.44	18.23
742.622	17.94
742.804	18.06
742.985	18.32
743.167	18.55
743.348	19.04
743.53	18.81
743.711	18.77
743.893	18.39
744.075	18.56
744.256	18.17
744.438	17.48
744.619	17.54
744.8	17.72
744.982	17.59
745.163	17.65
745.345	17.5
745.526	17.96
745.707	18.25
745.889	18.24
746.07	17.91
746.252	17.87
746.433	17.57
746.614	17.44
746.795	16.79
746.977	16.69
747.158	17.73
747.339	17.55
747.52	17.47
747.702	17.24
747.883	16.83
748.064	17.27
748.245	17.07
748.426	17.16
748.607	17.16
748.788	17.34
748.97	17.05
749.151	16.73
749.332	16.8
749.513	16.39
749.694	15.6
749.875	15.99
750.056	16.16
750.237	16.51
750.418	16.69
750.599	16.81
750.78	16.89
750.96	16.76
751.141	16.67
751.322	16.25
751.503	16.72
751.684	17.95
751.865	17.2
752.046	16.9
752.226	16.39
752.407	16.44
752.588	16.05
752.769	16.29
752.949	16.74
753.13	16.26
753.311	15.7
753.492	15.39
753.672	15.07
753.853	15.6
754.034	16.1
754.214	16.94
754.395	16.83
754.575	17.85
754.756	17.93
754.937	18.04
755.117	17.3
755.298	17.88
755.478	17.86
755.659	16.88
755.839	17.38
756.02	16.81
756.2	15.91
756.381	15.21
756.561	14.54
756.741	13.77
756.922	13.78
757.102	14.52
757.283	15.47
757.463	15.64
757.643	16.32
757.823	16.07
758.004	15.73
758.184	16.08
758.364	16.73
758.545	16.87
758.725	17.71
758.905	17.95
759.085	17.93
759.265	17.2
759.446	16.89
759.626	17.24
759.806	17.12
759.986	17.41
760.166	16.56
760.346	16.67
760.526	16.75
760.706	17.02
760.886	17.21
761.066	17.93
761.246	18.52
761.426	18.5
761.606	17.61
761.786	17.79
761.966	18.01
762.146	18.89
762.326	19.2
762.506	18.68
762.686	18.61
762.866	18.09
763.046	18.1
763.225	18.07
763.405	18.65
763.585	19.18
763.765	19.26
763.945	18.93
764.124	18.48
764.304	18.3
764.484	19.06
764.664	18.49
764.843	18.93
765.023	18.61
765.203	17.91
765.382	17.98
765.562	18.04
765.741	17.9
765.921	18.29
766.101	19.01
766.28	18.8
766.46	18.37
766.639	18.42
766.819	18.94
766.998	19.29
767.178	19.41
767.357	18.66
767.537	19.27
767.716	18.83
767.896	19.11
768.075	19
768.254	18.2
768.434	18.17
768.613	19.46
768.792	18.99
768.972	18.22
769.151	18.51
769.33	19.02
769.51	18.79
769.689	19.53
769.868	18.95
770.047	18.4
770.226	18.72
770.406	18.77
770.585	17.98
770.764	17.77
770.943	18.33
771.122	18.47
771.301	18.15
771.48	17.77
771.66	17.55
771.839	17.32
772.018	17.18
772.197	17.76
772.376	17.34
772.555	16.95
772.734	16.92
772.913	16.65
773.092	16.94
773.271	16.8
773.449	16.13
773.628	15.8
773.807	16.14
773.986	16.05
774.165	16.1
774.344	17.24
774.523	18.11
774.701	18.46
774.88	18.19
775.059	18.26
775.238	18.49
775.417	19.42
775.595	19.41
775.774	20
775.953	20.28
776.131	20.85
776.31	20.18
776.489	19.24
776.667	18.41
776.846	18.94
777.025	18.71
777.203	17.55
777.382	16.98
777.56	17.58
777.739	16.65
777.917	17.06
778.096	17.01
778.274	16.42
778.453	16.22
778.631	17.09
778.81	16.89
778.988	17.04
779.166	17.48
779.345	17.22
779.523	17.25
779.702	17.71
779.88	18.21
780.058	17.81
780.237	18.94
780.415	19.42
780.593	18.38
780.771	18.08
780.95	18.35
781.128	18.56
781.306	18.13
781.484	17.49
781.662	16.43
781.841	14.85
782.019	14.3
782.197	13.5
782.375	13.95
782.553	14.26
782.731	14.29
782.909	13.29
783.087	14.3
783.265	14.86
783.443	15.21
783.621	15.81
783.799	16.62
783.977	17.92
784.155	17.35
784.333	16.63
784.511	17.37
784.689	17.46
784.867	17.99
785.045	17.3
785.223	17.09
785.4	17.38
785.578	17.74
785.756	17.94
785.934	16.98
786.112	17.9
786.289	18.56
786.467	18.65
786.645	18.97
786.823	18.97
787	20.07
787.178	20.16
787.356	19.82
787.533	19.7
787.711	19.94
787.889	20.44
788.066	20.44
788.244	20.52
788.421	20.37
788.599	19.83
788.776	19.96
788.954	18.12
789.131	18.97
789.309	19.63
789.486	19.47
789.664	19.22
789.841	19.11
790.019	19.23
790.196	18.73
790.373	18.51
790.551	19.01
790.728	19.21
790.906	21.63
791.083	22.35
791.26	20.61
791.437	21.12
791.615	21.43
791.792	20.95
791.969	20.6
792.146	20.27
792.324	20.04
792.501	19.64
792.678	19.99
792.855	18.77
793.032	17.32
793.209	18.3
793.387	18.35
793.564	17.69
793.741	17.13
793.918	18.6
794.095	18.91
794.272	19.08
794.449	19.9
794.626	19.3
794.803	18.43
794.98	18.64
795.157	19.03
795.334	18.72
795.511	19.51
795.688	19.64
795.864	18.72
796.041	19
796.218	19.49
796.395	19.28
796.572	18.68
796.749	19.79
796.925	18.54
797.102	19.28
797.279	18.68
797.456	19.87
797.632	21.65
797.809	20.78
797.986	21.7
798.162	20.92
798.339	20.61
798.516	21.88
798.692	21.69
798.869	23
799.046	21.33
799.222	20.25
799.399	19.06
799.575	17.95
799.752	18.86
799.928	17.52
800.105	18.17
800.281	17.46
800.458	17
800.634	16.17
800.811	15.33
800.987	16.6
801.163	18.4
801.34	17.3
801.516	17.65
801.692	17.58
801.869	17.29
802.045	18
802.221	19.17
802.398	18.58
802.574	18.28
802.75	18.87
802.926	18.83
803.103	19.1
803.279	19.63
803.455	19.06
803.631	18.88
803.807	20.58
803.983	20.51
804.16	20.36
804.336	21.54
804.512	21.81
804.688	22.49
804.864	21.31
805.04	22.04
805.216	22.57
805.392	23.72
805.568	23.98
805.744	23.43
805.92	22.4
806.096	22.83
806.272	22.55
806.448	23.65
806.623	22.43
806.799	23.43
806.975	22.94
807.151	22.08
807.327	19.6
807.503	19.31
807.678	19.71
807.854	19.89
808.03	19.8
808.206	19.68
808.381	18.18
808.557	19.27
808.733	18.82
808.908	18.72
809.084	19.3
809.26	20.42
809.435	19.54
809.611	18.68
809.787	18.8
809.962	19.16
810.138	18.31
810.313	18.12
810.489	17.26
810.664	16.88
810.84	16.29
811.015	16.98
811.191	17.08
811.366	17.3
811.542	17.15
811.717	15.87
811.892	16.75
812.068	17.38
812.243	19.13
812.419	19.06
812.594	19.67
812.769	20.47
812.944	18.85
813.12	18.75
813.295	20.07
813.47	18.59
813.645	20.69
813.821	18.01
813.996	18.88
814.171	18.27
814.346	18.01
814.521	18.29
814.697	18.43
814.872	19.2
815.047	19.51
815.222	18.89
815.397	20
815.572	18.23
815.747	19.37
815.922	17.76
816.097	17.69
816.272	19.31
816.447	19.66
816.622	18.66
816.797	19.28
816.972	19.55
817.147	20.13
817.322	19.96
817.496	20.9
817.671	21.75
817.846	22.65
818.021	23.45
818.196	22.16
818.371	20.54
818.545	21.04
818.72	21.11
818.895	20.81
819.069	20.49
819.244	21.34
819.419	21.24
819.594	20.05
819.768	20.36
819.943	19.22
820.117	19.36
820.292	19.99
820.467	20.19
820.641	19.26
820.816	19.2
820.99	19.07
821.165	18.95
821.339	19.01
821.514	19.19
821.688	18.95
821.863	19.05
822.037	18.91
822.212	18.91
822.386	18.67
822.56	18.89
822.735	19.1
822.909	19.25
823.084	19.16
823.258	19.06
823.432	18.7
823.606	18.68
823.781	18.84
823.955	18.75
824.129	18.49
824.303	18.78
824.478	18.68
824.652	18.53
824.826	18.4
825	18.4
825.174	18.2
825.348	18.51
825.523	18.32
825.697	17.97
825.871	18.66
826.045	18.74
826.219	18.46
826.393	17.96
826.567	18.02
826.741	17.87
826.915	17.77
827.089	18.03
827.263	18.11
827.437	18.26
827.611	18.48
827.784	18.09
827.958	17.98
828.132	17.84
828.306	18.24
828.48	17.77
828.654	17.29
828.827	17.42
829.001	17.25
829.175	17.76
829.349	17.26
829.522	16.82
829.696	17.44
829.87	18.04
830.044	18.6
830.217	18.99
830.391	19.51
830.565	21.12
830.738	21.47
830.912	20.15
831.085	18.73
831.259	20.62
831.432	21.29
831.606	20.52
831.779	19.98
831.953	19.72
832.126	19.85
832.3	18.59
832.473	17.9
832.647	17.73
832.82	19.08
832.994	19.4
833.167	18.28
833.34	18.47
833.514	17.91
833.687	18.03
833.86	17.11
834.034	16.47
834.207	17.4
834.38	17.25
834.553	16.95
834.727	16.33
834.9	15.92
835.073	16
835.246	15.18
835.419	16.2
835.593	16.39
835.766	16.97
835.939	16.75
836.112	16.29
836.285	17.48
836.458	17.4
836.631	17.37
836.804	18.12
836.977	18.2
837.15	19.2
837.323	18.14
837.496	17.49
837.669	16.98
837.842	18.62
838.015	18.88
838.188	17.45
838.361	15.94
838.533	16.82
838.706	17.2
838.879	18
839.052	18.09
839.225	19.25
839.398	19.38
839.57	21.95
839.743	21.1
839.916	21.46
840.088	21.53
840.261	22.21
840.434	23.12
840.607	24.73
840.779	24.64
840.952	23.37
841.124	21.59
841.297	23.2
841.47	21.2
841.642	20.05
841.815	19.11
841.987	19.69
842.16	21.01
842.332	18.85
842.505	14.01
842.677	12.7
842.85	13.94
843.022	16.35
843.194	16.47
843.367	16.51
843.539	21.27
843.712	21.52
843.884	19.72
844.056	22.27
844.229	22.15
844.401	25.35
844.573	25.66
844.745	24.65
844.918	23.44
845.09	23.07
845.262	26.54
845.434	23.85
845.606	24.43
845.779	25.59
845.951	22.05
846.123	24.78
846.295	23.83
846.467	23.18
846.639	25.17
846.811	25.64
846.983	25.08
847.155	24.48
847.327	24.2
847.499	24.26
847.671	20.12
847.843	22.55
848.015	21.91
848.187	23.86
848.359	24.86
848.531	25.5
848.703	24.86
848.875	22.08
849.047	17.14
849.218	13.43
849.39	14.65
849.562	18.15
849.734	16.62
849.905	21.54
850.077	16.87
850.249	19.77
850.421	20.15
850.592	17.71
850.764	21.32
850.936	22.54
851.107	26.07
851.279	23.68
851.451	24.02
851.622	23.82
851.794	16.95
851.965	23.66
852.137	20.91
852.308	19.28
852.48	22.09
852.651	24.64
852.823	28.18
852.994	30.77
853.166	31.06
853.337	32.56
853.509	37.06
853.68	38.07
853.851	37.31
854.023	36.94
854.194	40.71
854.365	44.11
854.537	39.5
854.708	36.14
854.879	36.5
855.05	39.39
855.222	39.25
855.393	36.08
855.564	34.92
855.735	34.21
855.906	34.99
856.078	31.57
856.249	29.95
856.42	31.53
856.591	34.13
856.762	25.78
856.933	22.41
857.104	21.45
857.275	17.17
857.446	22.08
857.617	21.54
857.788	19.94
857.959	18.73
858.13	17.9
858.301	16.74
858.472	15.7
858.643	21.75
858.814	21.12
858.985	24.95
859.155	29.52
859.326	23.65
859.497	22.87
859.668	23.72
859.839	26.5
860.009	24.24
860.18	23.5
860.351	22.05
860.522	19.79
860.692	25.35
860.863	27.38
861.034	27.68
861.204	29.75
861.375	26.44
861.546	25.17
861.716	23.21
861.887	22.39
862.057	19.74
862.228	21.89
862.398	21.96
862.569	18.57
862.739	13.52
862.91	11.78
863.08	12.31
863.251	12.37
863.421	12.37
863.592	14.73
863.762	16.15
863.932	21.49
864.103	23.06
864.273	26.68
864.443	29.34
864.614	28
864.784	26.29
864.954	28.43
865.125	29.78
865.295	33.75
865.465	29.73
865.635	32.27
865.805	32.03
865.976	30.52
866.146	29.98
866.316	26.88
866.486	27.93
866.656	33.38
866.826	28.27
866.996	28.74
867.166	26.44
867.336	34.69
867.506	29.33
867.676	25.6
867.846	23.12
868.016	22.61
868.186	26.37
868.356	24.42
868.526	23.42
868.696	26.03
868.866	28.2
869.036	26.18
869.206	19.2
869.376	23.35
869.545	23.42
869.715	24.86
869.885	23.05
870.055	25.28
870.224	26.03
870.394	26.5
870.564	27.58
870.734	25.94
870.903	22.19
871.073	26.32
871.243	23.77
871.412	27.72
871.582	27.81
871.751	35.84
871.921	28.86
872.091	25.92
872.26	24.6
872.43	22.5
872.599	18.25
872.769	24.24
872.938	22.92
873.108	23.81
873.277	20.99
873.446	19.72
873.616	13.86
873.785	18.55
873.955	17.5
874.124	19.98
874.293	23.49
874.463	25.15
874.632	23.37
874.801	22.23
874.971	26.54
875.14	27.03
875.309	27.15
875.478	27.08
875.647	20.87
875.817	25.7
875.986	21.61
876.155	18.6
876.324	19.57
876.493	17.65
876.662	18.9
876.831	13.26
877	12.45
877.17	14.13
877.339	15.23
877.508	19.9
877.677	20.12
877.846	20.32
878.015	20.62
878.184	19.5
878.352	22.93
878.521	21.17
878.69	21.12
878.859	19.91
879.028	18.5
879.197	20.42
879.366	20.02
879.534	20.48
879.703	19.27
879.872	18.51
880.041	21.18
880.21	20.99
880.378	21.82
880.547	21.03
880.716	20.04
880.884	20.19
881.053	18.84
881.222	18.82
881.39	18.76
881.559	19.31
881.727	19.28
881.896	18.65
882.065	18.68
882.233	18.96
882.402	19.09
882.57	20.05
882.739	19.88
882.907	20.11
883.076	20.37
883.244	19.43
883.412	19.59
883.581	19.79
883.749	20.21
883.918	20
884.086	19.35
884.254	20.46
884.423	20.77
884.591	20.88
884.759	21.04
884.927	20.81
885.096	22.05
885.264	22.42
885.432	21.72
885.6	21.2
885.769	20.71
885.937	20.73
886.105	17.28
886.273	15.3
886.441	15.94
886.609	17.09
886.777	17.07
886.945	16.97
887.113	15.44
887.281	18.62
887.449	17.99
887.617	20.42
887.785	17.94
887.953	21.77
888.121	19.56
888.289	17.94
888.457	13.97
888.625	16.1
888.793	14.81
888.961	17.49
889.129	13.96
889.296	11.85
889.464	8.13
889.632	11.93
889.8	10.64
889.967	15.28
890.135	17.48
