Data from 2938437_Reflection_3.txt Node
Date: Fri Jun 19 18:33:58 EDT 2015
User: robert
Spectrometer: USB4E03002
Autoset integration time: false
Trigger mode: 4
Integration Time (sec): 1.000000E-1
Scans to average: 10
Electric dark correction enabled: true
Nonlinearity correction enabled: false
Boxcar width: 5
Stray light correction enabled: false
XAxis mode: Wavelengths
Stop averaging: false
Number of Pixels in Spectrum: 3648
>>>>>Begin Spectral Data<<<<<
177.575	60.57
177.794	77.24
178.014	66.51
178.233	52.82
178.452	50.37
178.672	43.67
178.891	-10.76
179.11	70.1
179.33	92.01
179.549	93.57
179.768	95.75
179.987	96.6
180.207	119.95
180.426	96.27
180.645	88.27
180.864	80.54
181.084	89.89
181.303	107.75
181.522	120.41
181.741	106.53
181.96	101.8
182.179	107.76
182.398	107.11
182.618	103.98
182.837	102.51
183.056	119.11
183.275	117.33
183.494	107.69
183.713	97.45
183.932	103.52
184.151	107.58
184.37	101.58
184.589	101.76
184.808	104.79
185.027	98.74
185.246	123.51
185.465	114.1
185.684	119.88
185.903	133.53
186.122	133.74
186.341	107.71
186.56	110.55
186.779	112.24
186.998	108.29
187.216	104.6
187.435	99.41
187.654	92.72
187.873	80.31
188.092	82.02
188.311	75.02
188.53	72.63
188.748	88.86
188.967	94.19
189.186	98.69
189.405	95.97
189.623	96.37
189.842	105.97
190.061	106.89
190.28	133.17
190.498	160.22
190.717	232.85
190.936	201.18
191.154	193.6
191.373	167.44
191.592	192.05
191.81	167.05
192.029	185.46
192.248	248.23
192.466	306.7
192.685	277.88
192.904	220.77
193.122	156.28
193.341	212.45
193.559	210.16
193.778	321.8
193.996	308.11
194.215	369.88
194.433	304
194.652	182.98
194.87	203.46
195.089	213.78
195.307	169.36
195.526	152.7
195.744	134.77
195.963	141.97
196.181	114.91
196.399	123.49
196.618	115.96
196.836	123.81
197.055	162.38
197.273	137.66
197.491	125.4
197.71	158.74
197.928	167.07
198.146	148.7
198.365	137.66
198.583	146.91
198.801	133.27
199.019	160.09
199.238	154.34
199.456	128.54
199.674	114.3
199.892	109.75
200.111	89.18
200.329	92.28
200.547	106.13
200.765	109.66
200.983	98.68
201.202	102.12
201.42	107.31
201.638	90.24
201.856	97.91
202.074	102.44
202.292	111.24
202.51	129.7
202.728	134.66
202.946	135.48
203.165	140.33
203.383	126.48
203.601	121.38
203.819	95.37
204.037	108.6
204.255	101.48
204.473	98.2
204.691	95.24
204.909	91.68
205.127	92.69
205.345	81.22
205.562	89.79
205.78	100.93
205.998	81.31
206.216	101.56
206.434	103.26
206.652	105.34
206.87	123.44
207.088	130.28
207.306	142.81
207.523	142.09
207.741	154.29
207.959	163.23
208.177	152.04
208.395	152.25
208.612	123.97
208.83	123.91
209.048	111.4
209.266	87.73
209.483	85.66
209.701	76.45
209.919	79.81
210.136	82.03
210.354	68.25
210.572	64.31
210.79	66.12
211.007	77.35
211.225	65.22
211.442	64.56
211.66	75.26
211.878	80.48
212.095	141.67
212.313	142.46
212.53	139.38
212.748	171.33
212.966	175.87
213.183	166
213.401	153.92
213.618	185.87
213.836	211.95
214.053	256.61
214.271	249.34
214.488	123.22
214.705	124.16
214.923	125.68
215.14	119.32
215.358	116.44
215.575	116.09
215.793	127.1
216.01	123.2
216.227	116.05
216.445	105.85
216.662	90.86
216.879	100.42
217.097	91.02
217.314	90.84
217.531	94.11
217.749	90.92
217.966	86.98
218.183	70.52
218.4	71.85
218.618	70.47
218.835	72.53
219.052	63.3
219.269	58.08
219.487	61.62
219.704	68.1
219.921	62.49
220.138	72.54
220.355	80.56
220.572	81.59
220.79	81.82
221.007	82.07
221.224	79.81
221.441	94.23
221.658	102.53
221.875	98.51
222.092	96.2
222.309	84.82
222.526	77.97
222.743	71.51
222.96	71.56
223.177	64.73
223.394	65.06
223.611	65.26
223.828	58.61
224.045	56.05
224.262	59.41
224.479	58.12
224.696	64.13
224.913	60.04
225.13	56.22
225.347	51.71
225.564	50.26
225.781	44.87
225.997	43.31
226.214	38.39
226.431	33.54
226.648	30.88
226.865	29.59
227.082	26.1
227.298	26.74
227.515	26
227.732	25.94
227.949	24.99
228.165	24.6
228.382	22.83
228.599	24.66
228.816	24.43
229.032	24.92
229.249	23.71
229.466	25.43
229.682	24.32
229.899	24.29
230.116	24.38
230.332	25.17
230.549	25.36
230.765	27.85
230.982	24.6
231.199	24.26
231.415	22.66
231.632	24.05
231.848	22.59
232.065	22.06
232.281	21.75
232.498	20.31
232.714	20.91
232.931	23.43
233.147	22.63
233.364	24.43
233.58	27
233.797	30.59
234.013	29.16
234.23	27.91
234.446	28.77
234.662	28.7
234.879	29.9
235.095	29.5
235.312	27.91
235.528	29.61
235.744	27.13
235.961	26.11
236.177	23.96
236.393	25.03
236.61	27.09
236.826	28.49
237.042	28.1
237.258	31.08
237.475	30.59
237.691	29.73
237.907	29.18
238.123	30.24
238.339	28.66
238.556	28.72
238.772	28.25
238.988	27.19
239.204	24.92
239.42	24.99
239.636	24.37
239.853	23.4
240.069	22.15
240.285	20.84
240.501	20.24
240.717	20.48
240.933	19.4
241.149	18.83
241.365	18.13
241.581	18.77
241.797	18.26
242.013	18.76
242.229	19.22
242.445	19.57
242.661	20.4
242.877	21.69
243.093	21.98
243.309	22.73
243.525	22.12
243.741	22.68
243.957	21.2
244.173	19.49
244.388	17.42
244.604	16.87
244.82	16.02
245.036	15.22
245.252	14.38
245.468	14.16
245.683	13.2
245.899	13.34
246.115	12.9
246.331	13.49
246.547	14.11
246.762	14.31
246.978	14.05
247.194	14.51
247.409	14.94
247.625	15.4
247.841	14.83
248.057	15.59
248.272	16.27
248.488	16.82
248.703	16.57
248.919	16.97
249.135	16.4
249.35	17.68
249.566	18.4
249.782	17.58
249.997	16.68
250.213	16.53
250.428	16.7
250.644	16.01
250.859	16.13
251.075	16.31
251.29	16.28
251.506	16.79
251.721	16.48
251.937	16.47
252.152	18.08
252.368	18.46
252.583	19.75
252.798	19.59
253.014	19.72
253.229	19.89
253.445	19.07
253.66	18.71
253.875	19.28
254.091	18.31
254.306	19.23
254.521	16.81
254.737	16.98
254.952	15.68
255.167	15.9
255.383	15.65
255.598	15.01
255.813	14.92
256.028	15.26
256.244	14.22
256.459	13.74
256.674	12.69
256.889	13
257.104	12.84
257.32	12.43
257.535	11.83
257.75	11.69
257.965	11.62
258.18	11.3
258.395	11.12
258.61	10.57
258.826	10.3
259.041	9.91
259.256	9.54
259.471	9.71
259.686	9.97
259.901	10.34
260.116	10.25
260.331	10.1
260.546	10.48
260.761	10.38
260.976	11.09
261.191	11.77
261.406	12.48
261.621	12.41
261.836	11.82
262.05	12.09
262.265	12.51
262.48	12.58
262.695	13.1
262.91	14.08
263.125	13.91
263.34	14.24
263.555	13.94
263.769	14.41
263.984	15.22
264.199	15.22
264.414	14.75
264.629	14.28
264.843	14.73
265.058	14.04
265.273	12.89
265.488	12.63
265.702	12.38
265.917	12.58
266.132	12.26
266.346	11.83
266.561	11.92
266.776	12.15
266.99	12.01
267.205	11.64
267.42	12.06
267.634	12.48
267.849	12.1
268.063	12.35
268.278	12.33
268.492	12.06
268.707	12.19
268.922	12.75
269.136	12.91
269.351	12.74
269.565	12.53
269.78	12.62
269.994	12.64
270.209	13.24
270.423	13.05
270.637	12.95
270.852	13.45
271.066	13.57
271.281	13.52
271.495	13.15
271.709	12.98
271.924	13.28
272.138	13.3
272.353	12.82
272.567	12.97
272.781	13.49
272.996	13.64
273.21	13.28
273.424	12.92
273.638	12.86
273.853	13.83
274.067	14.58
274.281	14.51
274.495	13.95
274.71	13.92
274.924	14.07
275.138	13.04
275.352	13.57
275.566	13.45
275.781	13.74
275.995	13.78
276.209	12.95
276.423	13.41
276.637	13.35
276.851	13.57
277.065	14.19
277.279	14.68
277.493	15.19
277.707	15.08
277.921	16.13
278.135	16.24
278.349	15.59
278.563	15.93
278.777	15.52
278.991	15.6
279.205	15.69
279.419	15.63
279.633	14.46
279.847	14.58
280.061	13.88
280.275	13.36
280.489	13.44
280.703	13.97
280.917	13.47
281.131	13.23
281.344	13.14
281.558	13.33
281.772	12.92
281.986	13.61
282.2	13.81
282.414	14.15
282.627	13.46
282.841	13.02
283.055	12.76
283.269	12.89
283.482	12.84
283.696	12.88
283.91	12.77
284.123	13.04
284.337	12.54
284.551	11.74
284.764	11.42
284.978	11.18
285.192	11.7
285.405	11.57
285.619	11.54
285.833	11.52
286.046	11.37
286.26	11.26
286.473	11.1
286.687	11.3
286.9	11.81
287.114	12.61
287.327	13.54
287.541	13.09
287.754	13.25
287.968	13.18
288.181	13.36
288.395	14.03
288.608	14.5
288.822	14.93
289.035	15.5
289.248	16.12
289.462	15.98
289.675	15.95
289.889	17.12
290.102	17.11
290.315	18
290.529	17.84
290.742	17.34
290.955	17.15
291.169	16.93
291.382	16.9
291.595	16.62
291.808	16.32
292.022	16.15
292.235	15.62
292.448	15.85
292.661	14.93
292.875	15.08
293.088	15.15
293.301	15.64
293.514	15.31
293.727	14.69
293.94	14.48
294.153	14.66
294.367	14.7
294.58	14.2
294.793	14.01
295.006	14.46
295.219	14.44
295.432	14.25
295.645	14.06
295.858	14.13
296.071	14
296.284	14.01
296.497	13.4
296.71	13.38
296.923	14.17
297.136	14.55
297.349	15.27
297.562	15.23
297.775	15.48
297.988	15.69
298.201	15.59
298.414	15.58
298.626	15.64
298.839	16.09
299.052	16.55
299.265	15.29
299.478	14.37
299.691	13.58
299.903	14.01
300.116	13.95
300.329	14.21
300.542	15.4
300.755	16
300.967	16.03
301.18	16.3
301.393	16.12
301.605	17.04
301.818	17.2
302.031	16.77
302.243	16.76
302.456	16.94
302.669	17.02
302.881	17.32
303.094	17.85
303.307	17.93
303.519	17.69
303.732	17.67
303.944	17.44
304.157	18.45
304.37	19.38
304.582	20.17
304.795	19.7
305.007	19.47
305.22	18.56
305.432	17.11
305.645	17.98
305.857	18.71
306.069	18.71
306.282	19.09
306.494	18.86
306.707	18.04
306.919	17.17
307.132	17.95
307.344	18.24
307.556	18.27
307.769	19.32
307.981	18.77
308.193	18.37
308.406	18.7
308.618	18.55
308.83	18.64
309.043	19.29
309.255	19.6
309.467	19.32
309.679	19.08
309.892	18.75
310.104	18.65
310.316	18.62
310.528	18.46
310.74	18.46
310.953	18.49
311.165	17.83
311.377	18
311.589	18.39
311.801	18.2
312.013	17.46
312.225	17.95
312.437	17.72
312.649	17.54
312.862	17.97
313.074	18.08
313.286	17.74
313.498	18.15
313.71	17.66
313.922	17.35
314.134	17.05
314.346	18.35
314.558	19.05
314.77	18.96
314.982	19.77
315.193	19.86
315.405	19.03
315.617	18.83
315.829	20.12
316.041	20.17
316.253	19.59
316.465	21.61
316.677	20.9
316.888	20.35
317.1	20.92
317.312	20.67
317.524	20.69
317.736	20.81
317.947	21.46
318.159	20.82
318.371	21.01
318.583	20.86
318.794	20.39
319.006	20.09
319.218	20.31
319.43	20.45
319.641	20
319.853	20.85
320.064	21.6
320.276	21.83
320.488	21.96
320.699	21.39
320.911	21.7
321.123	21.63
321.334	22.1
321.546	21.77
321.757	21.92
321.969	22.81
322.18	22.54
322.392	22.08
322.603	21.83
322.815	22.11
323.026	22.44
323.238	22.37
323.449	21.75
323.661	21.44
323.872	21.83
324.083	21.68
324.295	21.65
324.506	21.7
324.718	21.85
324.929	22.82
325.14	23.11
325.352	23.58
325.563	24.14
325.774	25.11
325.986	26.05
326.197	26.37
326.408	26.87
326.62	26.24
326.831	27.04
327.042	28
327.253	28.01
327.464	27.58
327.676	27.69
327.887	28.03
328.098	27.91
328.309	27.94
328.52	28.11
328.732	29.01
328.943	30.05
329.154	29.81
329.365	29.27
329.576	29.27
329.787	30.31
329.998	30.31
330.209	30.59
330.42	30.94
330.631	31.8
330.842	32.07
331.053	31.71
331.264	31.75
331.475	32.44
331.686	33.08
331.897	32.96
332.108	32.38
332.319	33.37
332.53	33.47
332.741	33.62
332.952	33.68
333.163	33.69
333.374	33.84
333.585	34.74
333.795	34.28
334.006	34.69
334.217	35.01
334.428	35.33
334.639	34.82
334.849	35.22
335.06	34.96
335.271	34.77
335.482	34.96
335.692	34.83
335.903	34.73
336.114	34.98
336.325	35.31
336.535	35.68
336.746	35.59
336.957	35.84
337.167	35.48
337.378	36.47
337.589	36.67
337.799	37.04
338.01	37.88
338.22	37.78
338.431	38.5
338.642	38
338.852	37.85
339.063	38.43
339.273	38.69
339.484	38.99
339.694	39.2
339.905	39.04
340.115	39.39
340.326	38.74
340.536	38.46
340.746	37.74
340.957	38.03
341.167	38.11
341.378	37.74
341.588	37.6
341.799	37.75
342.009	37.2
342.219	37.11
342.43	36.79
342.64	37.32
342.85	38.23
343.061	38.47
343.271	38.19
343.481	38.21
343.691	37.94
343.902	37.91
344.112	37.85
344.322	37.89
344.532	38.06
344.743	38.34
344.953	37.35
345.163	36.51
345.373	36.29
345.583	36.19
345.793	36.28
346.004	36.72
346.214	36.33
346.424	36.76
346.634	36.54
346.844	36.27
347.054	36.17
347.264	36.54
347.474	37.25
347.684	37.53
347.894	37.45
348.104	37.57
348.314	37.55
348.524	38.23
348.734	37.7
348.944	37.95
349.154	37.76
349.364	37.62
349.574	37.89
349.784	37.81
349.994	37.7
350.204	37.39
350.413	37.71
350.623	37.58
350.833	37.51
351.043	37.74
351.253	37.23
351.463	37.21
351.672	37.14
351.882	37.31
352.092	36.95
352.302	36.51
352.511	37.26
352.721	36.41
352.931	36.68
353.141	36.47
353.35	36.64
353.56	36.62
353.77	37.08
353.979	37.43
354.189	37.14
354.399	37.01
354.608	37.56
354.818	37.27
355.027	38.04
355.237	37.97
355.447	38.18
355.656	38.36
355.866	38.55
356.075	38.32
356.285	37.98
356.494	38.02
356.704	37.8
356.913	37.61
357.123	37.62
357.332	37.28
357.542	37.11
357.751	37.52
357.96	37.36
358.17	37.01
358.379	37.48
358.589	37.21
358.798	37.29
359.007	37.79
359.217	37.81
359.426	37.8
359.635	37.8
359.845	38.06
360.054	37.35
360.263	36.94
360.472	36.72
360.682	36.45
360.891	36.35
361.1	36.09
361.309	35.63
361.519	35.53
361.728	35.73
361.937	35.29
362.146	35.19
362.355	35.76
362.564	35.73
362.774	36.26
362.983	35.88
363.192	36.08
363.401	36.53
363.61	36.48
363.819	36.46
364.028	36.12
364.237	36.2
364.446	36.09
364.655	35.66
364.864	35.27
365.073	34.72
365.282	34.78
365.491	34.67
365.7	34.28
365.909	34.59
366.118	34.79
366.327	34.61
366.536	34.9
366.745	34.92
366.954	35.25
367.162	35.83
367.371	36.29
367.58	36.52
367.789	36.55
367.998	36.52
368.207	36.14
368.415	35.97
368.624	35.88
368.833	35.44
369.042	34.96
369.25	34.48
369.459	34.13
369.668	33.6
369.877	33.16
370.085	33.05
370.294	32.86
370.503	32.53
370.711	32.26
370.92	32.31
371.129	32.39
371.337	32.33
371.546	32.17
371.754	32.22
371.963	32.79
372.171	33.23
372.38	33.25
372.589	33.21
372.797	33.54
373.006	33.05
373.214	33.09
373.423	32.63
373.631	32.34
373.84	31.82
374.048	31.57
374.256	30.72
374.465	30.32
374.673	29.85
374.882	29.84
375.09	29.86
375.298	29.82
375.507	29.63
375.715	29.41
375.923	29.56
376.132	29.77
376.34	29.6
376.548	29.8
376.757	29.57
376.965	30
377.173	29.9
377.381	29.38
377.59	29.53
377.798	29.57
378.006	29.83
378.214	29.56
378.423	29.58
378.631	29.6
378.839	29.43
379.047	29.68
379.255	29.28
379.463	29.18
379.671	29.46
379.879	29.48
380.088	29.02
380.296	29.05
380.504	29.06
380.712	28.8
380.92	28.9
381.128	28.87
381.336	28.52
381.544	28.34
381.752	28.12
381.96	27.88
382.168	28.06
382.376	28.11
382.584	27.84
382.791	27.68
382.999	27.93
383.207	27.6
383.415	27.51
383.623	27.39
383.831	27.16
384.039	26.9
384.247	26.8
384.454	26.41
384.662	26.13
384.87	25.89
385.078	25.7
385.285	25.14
385.493	25.05
385.701	24.77
385.909	24.77
386.116	24.72
386.324	24.82
386.532	24.75
386.739	24.6
386.947	24.84
387.155	24.92
387.362	24.79
387.57	24.63
387.778	24.27
387.985	24.26
388.193	24.16
388.4	24.21
388.608	24.11
388.816	23.87
389.023	23.79
389.231	23.48
389.438	23.15
389.646	23.23
389.853	23.2
390.061	23.28
390.268	23.18
390.475	23
390.683	22.72
390.89	22.67
391.098	22.63
391.305	22.42
391.512	22.42
391.72	22.42
391.927	22.26
392.135	22.28
392.342	22.13
392.549	22.15
392.756	22.21
392.964	22.23
393.171	22.19
393.378	22.21
393.586	22.31
393.793	22.38
394	22.52
394.207	22.36
394.414	22.44
394.622	22.61
394.829	22.6
395.036	22.39
395.243	22.42
395.45	22.27
395.657	22.11
395.864	21.99
396.072	21.73
396.279	21.79
396.486	21.86
396.693	21.83
396.9	21.78
397.107	21.61
397.314	21.85
397.521	21.88
397.728	21.97
397.935	22.11
398.142	22.3
398.349	22.35
398.556	22.44
398.763	22.61
398.97	22.59
399.177	22.57
399.383	22.71
399.59	22.68
399.797	22.69
400.004	22.49
400.211	22.62
400.418	22.6
400.625	22.55
400.831	22.39
401.038	22.5
401.245	22.33
401.452	22.28
401.658	22.34
401.865	22.19
402.072	22.31
402.279	22.41
402.485	22.33
402.692	22.25
402.899	22.28
403.105	22.24
403.312	22.01
403.519	22.05
403.725	21.97
403.932	21.87
404.138	21.92
404.345	21.76
404.552	21.68
404.758	21.59
404.965	21.46
405.171	21.33
405.378	21.22
405.584	21.33
405.791	21.23
405.997	21.35
406.204	21.34
406.41	21.39
406.617	21.37
406.823	21.71
407.029	21.69
407.236	21.94
407.442	22.29
407.649	22.41
407.855	22.4
408.061	22.56
408.268	22.47
408.474	22.51
408.68	22.24
408.887	22.14
409.093	21.83
409.299	21.75
409.505	21.67
409.712	21.33
409.918	21.19
410.124	21.02
410.33	20.82
410.537	20.79
410.743	20.77
410.949	20.86
411.155	20.88
411.361	20.84
411.567	20.71
411.773	20.59
411.98	20.57
412.186	20.78
412.392	20.91
412.598	21.04
412.804	21.13
413.01	21.12
413.216	21.26
413.422	21.34
413.628	21.41
413.834	21.54
414.04	21.47
414.246	21.63
414.452	21.43
414.658	21.34
414.864	21.08
415.07	20.93
415.275	20.95
415.481	20.93
415.687	20.91
415.893	20.79
416.099	20.67
416.305	20.72
416.511	20.61
416.716	20.57
416.922	20.49
417.128	20.68
417.334	20.63
417.539	20.52
417.745	20.3
417.951	20.16
418.157	20.15
418.362	20.12
418.568	20.04
418.774	20.01
418.979	19.96
419.185	20
419.391	19.9
419.596	19.89
419.802	19.94
420.008	20
420.213	20.02
420.419	19.98
420.624	19.98
420.83	19.96
421.035	19.81
421.241	19.79
421.446	19.73
421.652	19.66
421.857	19.65
422.063	19.56
422.268	19.46
422.474	19.4
422.679	19.41
422.885	19.42
423.09	19.34
423.295	19.37
423.501	19.38
423.706	19.29
423.911	19.23
424.117	19.15
424.322	19.08
424.527	19.07
424.733	19.02
424.938	19
425.143	18.97
425.349	19.03
425.554	19.04
425.759	19.06
425.964	19.18
426.169	19.16
426.375	19.22
426.58	19.39
426.785	19.36
426.99	19.4
427.195	19.43
427.4	19.49
427.605	19.55
427.811	19.52
428.016	19.43
428.221	19.38
428.426	19.44
428.631	19.46
428.836	19.29
429.041	19.39
429.246	19.45
429.451	19.37
429.656	19.33
429.861	19.19
430.066	19.23
430.271	19.26
430.476	19.35
430.681	19.29
430.886	19.31
431.09	19.25
431.295	19.21
431.5	19.19
431.705	19.2
431.91	19.22
432.115	19.26
432.32	19.22
432.524	19.14
432.729	19.08
432.934	19.13
433.139	19
433.343	18.96
433.548	18.9
433.753	18.91
433.958	18.89
434.162	18.83
434.367	18.76
434.572	18.77
434.776	18.78
434.981	18.7
435.186	18.69
435.39	18.81
435.595	18.93
435.799	19.04
436.004	19.02
436.209	19.07
436.413	19.08
436.618	19.08
436.822	19.12
437.027	18.97
437.231	19.01
437.436	19.02
437.64	18.96
437.845	18.88
438.049	18.87
438.253	18.79
438.458	18.77
438.662	18.74
438.867	18.77
439.071	18.67
439.275	18.77
439.48	18.82
439.684	18.84
439.888	18.85
440.093	18.81
440.297	18.77
440.501	18.82
440.706	18.84
440.91	18.83
441.114	18.81
441.318	18.85
441.523	18.88
441.727	18.81
441.931	18.72
442.135	18.73
442.339	18.72
442.543	18.74
442.748	18.65
442.952	18.69
443.156	18.58
443.36	18.64
443.564	18.6
443.768	18.5
443.972	18.43
444.176	18.47
444.38	18.36
444.584	18.44
444.788	18.37
444.992	18.38
445.196	18.28
445.4	18.31
445.604	18.2
445.808	18.18
446.012	18.24
446.216	18.18
446.42	18.12
446.624	18.16
446.828	18.11
447.032	18.07
447.235	18.11
447.439	18.15
447.643	18.15
447.847	18.19
448.051	18.27
448.254	18.18
448.458	18.35
448.662	18.38
448.866	18.39
449.069	18.32
449.273	18.4
449.477	18.32
449.681	18.2
449.884	18.15
450.088	18.09
450.292	18
450.495	18.07
450.699	17.99
450.902	18.07
451.106	17.99
451.31	18
451.513	17.96
451.717	17.93
451.92	17.97
452.124	18.02
452.327	18.13
452.531	18.19
452.734	18.23
452.938	18.19
453.141	18.07
453.345	17.96
453.548	18.07
453.752	18.14
453.955	18.21
454.158	18.22
454.362	18.2
454.565	18.3
454.769	18.21
454.972	18.16
455.175	18.13
455.379	18.14
455.582	18.24
455.785	18.13
455.988	18.17
456.192	18.14
456.395	18.17
456.598	18.2
456.801	18.03
457.005	18.09
457.208	18.04
457.411	18.02
457.614	18.08
457.817	18.09
458.021	18.12
458.224	18.06
458.427	18.02
458.63	17.95
458.833	17.89
459.036	17.87
459.239	17.9
459.442	17.92
459.645	17.97
459.848	17.92
460.051	18.02
460.254	18.04
460.457	18.1
460.66	18.15
460.863	18.28
461.066	18.47
461.269	18.57
461.472	18.56
461.675	18.58
461.878	18.61
462.081	18.66
462.284	18.58
462.486	18.62
462.689	18.65
462.892	18.55
463.095	18.53
463.298	18.36
463.5	18.4
463.703	18.39
463.906	18.47
464.109	18.51
464.311	18.59
464.514	18.59
464.717	18.57
464.92	18.51
465.122	18.69
465.325	18.62
465.528	18.8
465.73	18.76
465.933	18.71
466.135	18.71
466.338	18.69
466.541	18.68
466.743	18.71
466.946	18.81
467.148	18.86
467.351	18.93
467.553	19.03
467.756	19
467.958	19.04
468.161	19.11
468.363	19.06
468.566	19.06
468.768	19.04
468.971	19.05
469.173	19.04
469.375	18.97
469.578	18.86
469.78	18.88
469.983	18.79
470.185	18.86
470.387	18.91
470.59	18.89
470.792	18.85
470.994	18.79
471.196	18.85
471.399	18.79
471.601	18.82
471.803	18.81
472.005	18.85
472.208	18.93
472.41	18.83
472.612	18.82
472.814	18.77
473.016	18.87
473.218	18.95
473.421	18.88
473.623	18.94
473.825	18.95
474.027	19.02
474.229	19.04
474.431	19.03
474.633	19.07
474.835	19.15
475.037	19.28
475.239	19.17
475.441	19.24
475.643	19.27
475.845	19.21
476.047	19.17
476.249	19.21
476.451	19.17
476.653	19.22
476.855	19.34
477.057	19.21
477.258	19.12
477.46	19.14
477.662	19.08
477.864	19.1
478.066	19.11
478.268	19.1
478.469	19.07
478.671	19.1
478.873	19.02
479.075	18.87
479.276	18.93
479.478	19.02
479.68	19.07
479.882	18.97
480.083	18.83
480.285	18.85
480.487	18.84
480.688	18.81
480.89	18.75
481.091	18.69
481.293	18.64
481.495	18.57
481.696	18.45
481.898	18.39
482.099	18.33
482.301	18.33
482.502	18.28
482.704	18.23
482.905	18.15
483.107	18.08
483.308	18.06
483.51	18.03
483.711	18.01
483.913	18.04
484.114	18.02
484.315	18.04
484.517	18.05
484.718	18.07
484.92	18.09
485.121	18.14
485.322	18.19
485.524	18.25
485.725	18.28
485.926	18.31
486.127	18.28
486.329	18.24
486.53	18.24
486.731	18.23
486.932	18.24
487.134	18.27
487.335	18.31
487.536	18.3
487.737	18.24
487.938	18.26
488.139	18.29
488.341	18.36
488.542	18.45
488.743	18.54
488.944	18.6
489.145	18.61
489.346	18.63
489.547	18.59
489.748	18.63
489.949	18.64
490.15	18.62
490.351	18.57
490.552	18.52
490.753	18.51
490.954	18.47
491.155	18.44
491.356	18.44
491.557	18.43
491.758	18.47
491.959	18.51
492.159	18.63
492.36	18.68
492.561	18.78
492.762	18.9
492.963	18.97
493.164	19.12
493.364	19.21
493.565	19.39
493.766	19.36
493.967	19.45
494.167	19.44
494.368	19.31
494.569	19.31
494.769	19.32
494.97	19.35
495.171	19.38
495.371	19.31
495.572	19.33
495.773	19.24
495.973	19.3
496.174	19.27
496.375	19.32
496.575	19.37
496.776	19.41
496.976	19.47
497.177	19.56
497.377	19.61
497.578	19.7
497.778	19.7
497.979	19.73
498.179	19.78
498.38	19.84
498.58	19.87
498.78	19.97
498.981	20.01
499.181	20.04
499.382	19.98
499.582	19.9
499.782	19.96
499.983	20.08
500.183	20.1
500.383	20.14
500.584	20.13
500.784	20.18
500.984	20.22
501.184	20.3
501.385	20.33
501.585	20.35
501.785	20.48
501.985	20.55
502.185	20.56
502.386	20.68
502.586	20.73
502.786	20.82
502.986	20.94
503.186	20.99
503.386	21.02
503.586	21.04
503.786	21.18
503.987	21.32
504.187	21.26
504.387	21.39
504.587	21.42
504.787	21.54
504.987	21.56
505.187	21.57
505.387	21.67
505.587	21.63
505.786	21.73
505.986	21.73
506.186	21.77
506.386	21.89
506.586	21.88
506.786	21.91
506.986	21.93
507.186	22.05
507.386	22.03
507.585	22.01
507.785	22.1
507.985	22.12
508.185	22.21
508.384	22.23
508.584	22.29
508.784	22.38
508.984	22.46
509.183	22.55
509.383	22.61
509.583	22.77
509.782	22.87
509.982	23.01
510.182	23.11
510.381	23.22
510.581	23.32
510.781	23.37
510.98	23.47
511.18	23.54
511.379	23.58
511.579	23.72
511.778	23.79
511.978	23.92
512.177	23.91
512.377	23.98
512.576	24.11
512.776	24.23
512.975	24.4
513.175	24.53
513.374	24.6
513.573	24.83
513.773	24.8
513.972	24.87
514.172	25
514.371	25.23
514.57	25.44
514.77	25.52
514.969	25.66
515.168	25.66
515.367	25.71
515.567	25.88
515.766	25.85
515.965	26
516.164	26.03
516.364	26.03
516.563	26.02
516.762	26.01
516.961	26.06
517.16	26.06
517.359	26.17
517.559	26.23
517.758	26.27
517.957	26.4
518.156	26.46
518.355	26.54
518.554	26.65
518.753	26.75
518.952	26.89
519.151	26.99
519.35	27.07
519.549	27.12
519.748	27.2
519.947	27.24
520.146	27.31
520.345	27.33
520.544	27.51
520.743	27.63
520.942	27.76
521.141	27.77
521.339	27.88
521.538	27.96
521.737	28.06
521.936	28.16
522.135	28.25
522.333	28.37
522.532	28.51
522.731	28.6
522.93	28.63
523.129	28.75
523.327	28.83
523.526	28.91
523.725	29.03
523.923	29.12
524.122	29.19
524.321	29.32
524.519	29.34
524.718	29.45
524.917	29.49
525.115	29.57
525.314	29.68
525.512	29.76
525.711	29.86
525.909	29.93
526.108	30.02
526.306	30.08
526.505	30.12
526.703	30.18
526.902	30.19
527.1	30.21
527.299	30.21
527.497	30.16
527.696	30.13
527.894	30.1
528.092	30.02
528.291	29.98
528.489	29.99
528.688	29.94
528.886	29.89
529.084	29.91
529.283	29.94
529.481	30.02
529.679	30.16
529.877	30.27
530.076	30.37
530.274	30.59
530.472	30.78
530.67	30.97
530.869	31.16
531.067	31.39
531.265	31.47
531.463	31.51
531.661	31.54
531.859	31.53
532.057	31.56
532.255	31.59
532.454	31.57
532.652	31.52
532.85	31.46
533.048	31.49
533.246	31.43
533.444	31.45
533.642	31.48
533.84	31.51
534.038	31.55
534.236	31.63
534.434	31.7
534.632	31.78
534.83	31.88
535.027	31.9
535.225	31.88
535.423	31.92
535.621	31.91
535.819	31.99
536.017	32.06
536.215	32.08
536.412	32.06
536.61	32.04
536.808	32.11
537.006	32.15
537.203	32.29
537.401	32.34
537.599	32.41
537.797	32.56
537.994	32.61
538.192	32.64
538.39	32.74
538.587	32.93
538.785	33.03
538.983	33.11
539.18	33.15
539.378	33.13
539.575	33.22
539.773	33.21
539.97	33.13
540.168	33.15
540.366	33.13
540.563	33.08
540.761	33
540.958	32.94
541.155	32.86
541.353	32.79
541.55	32.76
541.748	32.64
541.945	32.56
542.143	32.58
542.34	32.54
542.537	32.53
542.735	32.57
542.932	32.59
543.129	32.64
543.327	32.73
543.524	32.91
543.721	32.99
543.919	33.14
544.116	33.25
544.313	33.29
544.51	33.38
544.708	33.41
544.905	33.42
545.102	33.51
545.299	33.51
545.496	33.49
545.693	33.4
545.891	33.37
546.088	33.3
546.285	33.32
546.482	33.35
546.679	33.25
546.876	33.25
547.073	33.21
547.27	33.16
547.467	33.08
547.664	32.99
547.861	33.07
548.058	33.18
548.255	33.34
548.452	33.4
548.649	33.42
548.846	33.45
549.043	33.64
549.24	33.69
549.437	33.72
549.633	33.93
549.83	34.08
550.027	34.06
550.224	34.05
550.421	33.98
550.618	34.05
550.814	34.04
551.011	34.15
551.208	34.13
551.405	34.23
551.601	34.31
551.798	34.21
551.995	34.26
552.191	34.24
552.388	34.24
552.585	34.18
552.781	34.08
552.978	34.2
553.175	34.23
553.371	34.27
553.568	34.26
553.764	34.28
553.961	34.34
554.157	34.25
554.354	34.32
554.55	34.41
554.747	34.5
554.943	34.66
555.14	34.7
555.336	34.69
555.533	34.68
555.729	34.73
555.926	34.73
556.122	34.88
556.318	34.88
556.515	34.94
556.711	34.85
556.907	34.94
557.104	34.92
557.3	34.91
557.496	35.05
557.693	35.03
557.889	34.99
558.085	35.08
558.281	35.07
558.478	35.14
558.674	35.17
558.87	35.21
559.066	35.17
559.262	35.2
559.459	35.16
559.655	35.16
559.851	35.14
560.047	35.27
560.243	35.17
560.439	35.16
560.635	35.17
560.831	35.17
561.027	35.22
561.223	35.24
561.419	35.13
561.615	35.18
561.811	35.28
562.007	35.4
562.203	35.36
562.399	35.38
562.595	35.46
562.791	35.71
562.987	35.77
563.183	35.87
563.379	35.95
563.575	36.11
563.771	36.09
563.966	36.08
564.162	36.09
564.358	36.2
564.554	36.37
564.75	36.39
564.945	36.32
565.141	36.33
565.337	36.33
565.533	36.35
565.728	36.4
565.924	36.42
566.12	36.35
566.315	36.27
566.511	36.21
566.707	36.14
566.902	36.25
567.098	36.3
567.293	36.34
567.489	36.4
567.684	36.48
567.88	36.49
568.076	36.58
568.271	36.67
568.467	36.73
568.662	36.9
568.858	36.88
569.053	36.8
569.248	36.88
569.444	37
569.639	37
569.835	37.05
570.03	37.18
570.225	37.1
570.421	37.18
570.616	37.26
570.812	37.23
571.007	37.29
571.202	37.33
571.397	37.22
571.593	37.12
571.788	37.12
571.983	37.09
572.178	37
572.374	37.11
572.569	37.11
572.764	37.17
572.959	37.14
573.154	37.26
573.35	37.38
573.545	37.45
573.74	37.53
573.935	37.65
574.13	37.71
574.325	37.65
574.52	37.71
574.715	37.75
574.91	37.72
575.105	37.72
575.3	37.6
575.495	37.52
575.69	37.45
575.885	37.46
576.08	37.35
576.275	37.3
576.47	37.49
576.665	37.43
576.86	37.46
577.055	37.52
577.25	37.55
577.444	37.73
577.639	37.79
577.834	37.85
578.029	37.9
578.224	37.91
578.418	37.91
578.613	37.92
578.808	37.89
579.003	37.66
579.197	37.72
579.392	37.69
579.587	37.59
579.781	37.6
579.976	37.65
580.171	37.53
580.365	37.62
580.56	37.51
580.755	37.53
580.949	37.64
581.144	37.89
581.338	37.98
581.533	38
581.727	38.05
581.922	38.07
582.116	38.13
582.311	38.27
582.505	38.36
582.7	38.49
582.894	38.51
583.089	38.36
583.283	38.31
583.478	38.1
583.672	38.28
583.866	38.33
584.061	38.42
584.255	38.42
584.449	38.34
584.644	38.32
584.838	38.52
585.032	38.46
585.226	38.64
585.421	38.82
585.615	39.08
585.809	38.94
586.003	38.95
586.198	38.96
586.392	39.05
586.586	39.11
586.78	39.1
586.974	39.09
587.168	39.15
587.363	39.14
587.557	39.08
587.751	39.01
587.945	39.01
588.139	39.04
588.333	39.06
588.527	39.1
588.721	39.11
588.915	39.14
589.109	39.11
589.303	39.15
589.497	39.28
589.691	39.34
589.885	39.29
590.079	39.45
590.273	39.35
590.466	39.27
590.66	39.18
590.854	39.16
591.048	39.12
591.242	39.04
591.436	39.08
591.629	38.96
591.823	39
592.017	39.07
592.211	39.14
592.404	39.24
592.598	39.28
592.792	39.37
592.986	39.46
593.179	39.38
593.373	39.48
593.567	39.53
593.76	39.71
593.954	39.7
594.147	39.8
594.341	39.94
594.535	40.01
594.728	40.05
594.922	39.98
595.115	40.16
595.309	40.27
595.502	40.2
595.696	40.15
595.889	40.06
596.083	40.02
596.276	40.04
596.47	39.89
596.663	39.94
596.856	39.9
597.05	39.87
597.243	39.6
597.437	39.58
597.63	39.58
597.823	39.62
598.017	39.57
598.21	39.45
598.403	39.35
598.596	39.34
598.79	39.19
598.983	39.17
599.176	39.42
599.369	39.56
599.563	39.62
599.756	39.89
599.949	39.96
600.142	40.07
600.335	40.14
600.528	40.11
600.722	40.13
600.915	40.3
601.108	40.46
601.301	40.44
601.494	40.53
601.687	40.64
601.88	40.57
602.073	40.54
602.266	40.51
602.459	40.66
602.652	40.72
602.845	40.72
603.038	40.67
603.231	40.66
603.424	40.68
603.617	40.71
603.809	40.67
604.002	40.65
604.195	40.54
604.388	40.59
604.581	40.47
604.774	40.48
604.966	40.47
605.159	40.58
605.352	40.67
605.545	40.53
605.737	40.44
605.93	40.48
606.123	40.52
606.316	40.75
606.508	40.78
606.701	40.93
606.894	40.83
607.086	40.96
607.279	40.87
607.471	40.84
607.664	40.91
607.857	41.05
608.049	41.09
608.242	41.18
608.434	41.17
608.627	41.11
608.819	41.05
609.012	41.21
609.204	41.34
609.397	41.36
609.589	41.36
609.782	41.41
609.974	41.32
610.166	41.34
610.359	41.27
610.551	41.23
610.743	41.19
610.936	41.32
611.128	41.43
611.32	41.32
611.513	41.31
611.705	41.21
611.897	41.27
612.09	41.36
612.282	41.4
612.474	41.36
612.666	41.36
612.858	41.68
613.051	41.58
613.243	41.43
613.435	41.39
613.627	41.19
613.819	41.17
614.011	41.31
614.203	41.26
614.395	41.15
614.588	41.15
614.78	41.08
614.972	40.93
615.164	40.94
615.356	40.99
615.548	40.89
615.74	41.21
615.932	41.25
616.124	41.02
616.315	40.9
616.507	41.05
616.699	41.04
616.891	41.14
617.083	41.08
617.275	41.07
617.467	41.04
617.659	41.21
617.85	41.11
618.042	41.1
618.234	41.1
618.426	41.22
618.618	41.04
618.809	41.11
619.001	41.13
619.193	41.22
619.384	41.23
619.576	41.25
619.768	40.98
619.959	40.94
620.151	41.1
620.343	41.21
620.534	41.21
620.726	41.07
620.917	40.88
621.109	40.87
621.301	40.67
621.492	40.8
621.684	40.8
621.875	40.94
622.067	41.11
622.258	41.1
622.45	41.32
622.641	41.39
622.832	41.69
623.024	41.95
623.215	42.24
623.407	42.38
623.598	42.13
623.789	42.13
623.981	42.3
624.172	42.08
624.363	41.96
624.555	41.65
624.746	41.41
624.937	41.33
625.129	41.29
625.32	41.09
625.511	41.24
625.702	41.29
625.893	41.29
626.085	41.1
626.276	41.19
626.467	41.3
626.658	41.45
626.849	41.59
627.04	41.56
627.231	41.47
627.422	41.47
627.614	41.43
627.805	41.46
627.996	41.43
628.187	41.47
628.378	41.53
628.569	41.45
628.76	41.41
628.951	41.54
629.142	41.59
629.332	41.72
629.523	41.8
629.714	41.66
629.905	41.48
630.096	41.48
630.287	41.51
630.478	41.46
630.669	41.45
630.859	41.54
631.05	41.43
631.241	41.29
631.432	41.25
631.623	41.15
631.813	41.12
632.004	41.35
632.195	41.42
632.385	41.42
632.576	41.43
632.767	41.51
632.957	41.34
633.148	41.46
633.339	41.53
633.529	41.43
633.72	41.45
633.91	41.41
634.101	41.33
634.292	41.32
634.482	41.3
634.673	41.26
634.863	41.16
635.054	41.23
635.244	41.18
635.435	41.26
635.625	41.29
635.815	41.43
636.006	41.59
636.196	41.77
636.387	41.75
636.577	41.73
636.767	41.97
636.958	42
637.148	42.12
637.338	42.04
637.529	42.02
637.719	42.22
637.909	42.22
638.099	42.28
638.29	42.12
638.48	42.24
638.67	42.35
638.86	42.28
639.05	42.2
639.241	42.21
639.431	42.22
639.621	42.24
639.811	42.23
640.001	42.27
640.191	42.25
640.381	42.14
640.571	42.04
640.761	41.94
640.951	41.97
641.141	42.16
641.331	42.13
641.521	42.22
641.711	42.49
641.901	42.41
642.091	42.38
642.281	42.2
642.471	42.39
642.661	42.45
642.851	42.6
643.041	42.34
643.231	42.37
643.42	42.17
643.61	42.19
643.8	41.98
643.99	42.02
644.18	41.92
644.369	42.09
644.559	41.84
644.749	41.68
644.939	41.76
645.128	41.91
645.318	41.82
645.508	41.93
645.697	41.59
645.887	41.59
646.076	41.57
646.266	41.37
646.456	41.4
646.645	41.67
646.835	41.78
647.024	41.73
647.214	41.81
647.403	41.9
647.593	41.79
647.782	42.06
647.972	41.91
648.161	41.87
648.351	42.18
648.54	42
648.73	42.09
648.919	42.09
649.108	41.92
649.298	41.84
649.487	41.83
649.677	41.83
649.866	41.88
650.055	41.98
650.244	41.92
650.434	41.93
650.623	42.11
650.812	42.13
651.002	42.11
651.191	42.2
651.38	42.18
651.569	42.09
651.758	42.13
651.947	42.18
652.137	42.27
652.326	42.33
652.515	42.33
652.704	42.19
652.893	42.25
653.082	42.23
653.271	42.18
653.46	41.95
653.649	41.99
653.838	42.16
654.027	42
654.216	42.07
654.405	42.04
654.594	41.93
654.783	42.01
654.972	41.95
655.161	42.13
655.35	42.18
655.539	42.42
655.728	42.43
655.916	42.49
656.105	42.58
656.294	42.39
656.483	42.39
656.672	42.38
656.86	42.24
657.049	42.12
657.238	42.08
657.427	42.16
657.615	42.08
657.804	42.14
657.993	42.08
658.181	41.85
658.37	41.93
658.559	41.9
658.747	42.03
658.936	42
659.125	42.24
659.313	42.24
659.502	42.26
659.69	42.25
659.879	42.08
660.067	42.02
660.256	42.14
660.444	42.16
660.633	42.31
660.821	42.22
661.01	42.26
661.198	41.96
661.387	41.8
661.575	41.62
661.763	41.83
661.952	41.95
662.14	41.92
662.328	41.96
662.517	41.9
662.705	41.75
662.893	41.75
663.082	41.87
663.27	41.87
663.458	41.87
663.646	41.93
663.834	41.73
664.023	41.57
664.211	41.76
664.399	41.73
664.587	41.47
664.775	41.79
664.963	41.47
665.152	41.69
665.34	41.83
665.528	41.71
665.716	41.78
665.904	41.81
666.092	42.04
666.28	41.87
666.468	41.77
666.656	41.67
666.844	41.28
667.032	41.73
667.22	41.41
667.408	41.06
667.596	41.12
667.784	41.1
667.971	41.12
668.159	41.13
668.347	41.14
668.535	41.33
668.723	41.76
668.911	41.94
669.098	41.63
669.286	41.8
669.474	41.9
669.662	42.03
669.849	42.09
670.037	42.19
670.225	42.27
670.413	42.38
670.6	42.59
670.788	42.41
670.976	42.44
671.163	42.63
671.351	42.64
671.538	42.69
671.726	42.64
671.913	42.56
672.101	42.63
672.289	42.43
672.476	42.27
672.664	41.97
672.851	42.02
673.039	42.04
673.226	42.14
673.413	41.94
673.601	42.3
673.788	42.51
673.976	42.64
674.163	42.41
674.35	42.22
674.538	42.51
674.725	42.85
674.912	42.88
675.1	42.77
675.287	42.85
675.474	43.18
675.662	42.9
675.849	42.83
676.036	42.82
676.223	42.84
676.411	43.13
676.598	42.88
676.785	42.75
676.972	42.87
677.159	42.89
677.346	42.48
677.533	42.3
677.721	42.27
677.908	42.17
678.095	42.37
678.282	42.35
678.469	42.02
678.656	42.2
678.843	42.18
679.03	41.91
679.217	42.12
679.404	42.29
679.591	42.23
679.778	42.18
679.964	42.06
680.151	41.58
680.338	41.59
680.525	41.9
680.712	41.82
680.899	41.55
681.086	41.48
681.272	41.13
681.459	41.14
681.646	41.24
681.833	41.29
682.02	41.42
682.206	41.68
682.393	42.08
682.58	42.04
682.766	41.83
682.953	42.18
683.14	42.56
683.326	42.66
683.513	42.58
683.7	42.73
683.886	42.71
684.073	43.06
684.259	43.03
684.446	42.68
684.632	42.51
684.819	42.77
685.005	42.7
685.192	42.73
685.378	42.81
685.565	42.53
685.751	42.17
685.938	42.02
686.124	41.8
686.31	41.9
686.497	41.86
686.683	41.89
686.87	41.78
687.056	41.64
687.242	41.28
687.429	41.34
687.615	41.46
687.801	41.68
687.987	41.97
688.174	42.12
688.36	42.23
688.546	42.28
688.732	42.45
688.918	42.51
689.105	42.7
689.291	43.02
689.477	42.94
689.663	43.38
689.849	43.4
690.035	43.44
690.221	43.43
690.407	43.48
690.593	43.46
690.779	43.44
690.965	43.35
691.151	43.23
691.337	43.31
691.523	43.34
691.709	43.22
691.895	42.96
692.081	42.67
692.267	42.42
692.453	42.01
692.639	42.01
692.825	41.97
693.011	41.94
693.196	42.08
693.382	41.94
693.568	41.86
693.754	41.99
693.94	42.07
694.125	42.34
694.311	42.58
694.497	42.48
694.682	42.62
694.868	42.72
695.054	42.68
695.239	42.62
695.425	42.73
695.611	42.62
695.796	42.51
695.982	42.77
696.168	42.82
696.353	42.67
696.539	42.83
696.724	42.63
696.91	42.49
697.095	42.37
697.281	42.3
697.466	42.29
697.652	42.18
697.837	42.15
698.023	41.96
698.208	42.12
698.393	42.04
698.579	42.27
698.764	42.18
698.949	42.22
699.135	42.37
699.32	42.32
699.505	42.03
699.691	41.9
699.876	41.94
700.061	42.1
700.246	41.57
700.432	41.41
700.617	41.06
700.802	41.32
700.987	41.29
701.172	41.49
701.358	41.66
701.543	41.63
701.728	42.11
701.913	42.05
702.098	41.93
702.283	42.19
702.468	42.6
702.653	42.55
702.838	42.62
703.023	42.81
703.208	42.52
703.393	42.05
703.578	42.31
703.763	42.41
703.948	42.36
704.133	42.36
704.318	42.28
704.503	42.06
704.688	42.54
704.873	42.55
705.057	42.82
705.242	42.96
705.427	43.38
705.612	43.4
705.797	43.34
705.981	43.45
706.166	43.8
706.351	44.35
706.536	44.25
706.72	44.01
706.905	43.87
707.09	43.36
707.274	43.25
707.459	43.18
707.644	43.35
707.828	43.25
708.013	43.13
708.197	42.76
708.382	42.11
708.567	42.24
708.751	42.12
708.936	41.94
709.12	41.95
709.305	41.96
709.489	41.82
709.673	41.59
709.858	41.51
710.042	41.75
710.227	41.85
710.411	41.94
710.596	42.16
710.78	42.14
710.964	42.62
711.149	42.53
711.333	42.61
711.517	42.64
711.702	42.4
711.886	42.4
712.07	42.37
712.254	42.02
712.438	41.88
712.623	41.65
712.807	41.58
712.991	41.51
713.175	41.77
713.359	41.39
713.544	41.09
713.728	41.44
713.912	41.26
714.096	41.3
714.28	41.77
714.464	42.23
714.648	41.98
714.832	41.91
715.016	41.56
715.2	41.5
715.384	41.73
715.568	42.3
715.752	42.18
715.936	42.4
716.12	41.96
716.304	41.82
716.488	41.43
716.671	41.48
716.855	41.78
717.039	42
717.223	41.88
717.407	41.86
717.59	41.81
717.774	41.96
717.958	41.8
718.142	41.95
718.325	42.16
718.509	42.32
718.693	42.49
718.877	42.21
719.06	41.7
719.244	42.14
719.428	42.41
719.611	42.3
719.795	42.16
719.978	42.33
720.162	42.1
720.345	41.75
720.529	41.83
720.713	41.89
720.896	41.75
721.08	41.65
721.263	41.24
721.446	40.88
721.63	40.68
721.813	40.6
721.997	40.75
722.18	41.18
722.364	41.39
722.547	41.54
722.73	41.84
722.914	42.56
723.097	42.81
723.28	42.83
723.464	43.1
723.647	42.95
723.83	43.08
724.013	43.55
724.197	43.6
724.38	43.39
724.563	42.85
724.746	42.88
724.929	42.58
725.112	42.94
725.296	43.26
725.479	43.27
725.662	43.26
725.845	43.35
726.028	43.2
726.211	43.26
726.394	43.5
726.577	43.63
726.76	43.46
726.943	43.37
727.126	43.38
727.309	43.19
727.492	43.04
727.675	43.01
727.858	42.78
728.041	42.55
728.224	42.56
728.407	42.42
728.589	43.13
728.772	42.82
728.955	42.77
729.138	42.79
729.321	42.61
729.503	42.72
729.686	43.06
729.869	43.46
730.052	43.73
730.234	43.07
730.417	43.09
730.6	42.44
730.782	42.62
730.965	42.47
731.148	42.42
731.33	42.43
731.513	42.67
731.695	42.58
731.878	42.37
732.061	42.15
732.243	42.61
732.426	42.24
732.608	42.51
732.791	42.81
732.973	43.17
733.156	42.97
733.338	43.46
733.52	43.32
733.703	43.48
733.885	43.77
734.068	43.91
734.25	43.81
734.432	44.49
734.615	44.42
734.797	44.01
734.979	43.98
735.162	43.95
735.344	43.65
735.526	43.55
735.708	43.23
735.891	43.21
736.073	42.55
736.255	42.45
736.437	42.07
736.619	42.03
736.802	42.22
736.984	42.05
737.166	41.76
737.348	42.05
737.53	41.63
737.712	42.02
737.894	41.23
738.076	41.5
738.258	41.48
738.44	41.71
738.622	41.38
738.804	41.26
738.986	41.1
739.168	41.83
739.35	41.51
739.532	42.01
739.714	41.74
739.896	42.25
740.078	42.44
740.259	42.69
740.441	42.41
740.623	42.6
740.805	43.25
740.987	43.6
741.168	43.25
741.35	43.33
741.532	43.06
741.714	43.27
741.895	43.27
742.077	43.24
742.259	43.43
742.44	43.66
742.622	44.01
742.804	43.42
742.985	42.83
743.167	42.68
743.348	42.52
743.53	42.82
743.711	42.95
743.893	43.44
744.075	43.94
744.256	43.46
744.438	44.07
744.619	43.85
744.8	43.45
744.982	44.39
745.163	44.16
745.345	44.24
745.526	44.11
745.707	43.7
745.889	43.23
746.07	42.68
746.252	43.28
746.433	43.47
746.614	43.62
746.795	44.24
746.977	44.45
747.158	44.87
747.339	44.71
747.52	44.38
747.702	45.14
747.883	44.89
748.064	44.84
748.245	44.18
748.426	43.41
748.607	43.65
748.788	43.57
748.97	43
749.151	42.7
749.332	43.01
749.513	43.12
749.694	42.18
749.875	42.38
750.056	42.42
750.237	42.65
750.418	42.66
750.599	41.91
750.78	41.84
750.96	41.29
751.141	41.51
751.322	40.99
751.503	41.1
751.684	41.78
751.865	41.48
752.046	41.3
752.226	40.87
752.407	40.79
752.588	41.81
752.769	41.52
752.949	41.77
753.13	41.63
753.311	41.37
753.492	41.64
753.672	41.13
753.853	41.86
754.034	42.35
754.214	43.2
754.395	43.51
754.575	42.7
754.756	42.99
754.937	43.49
755.117	43.57
755.298	44.31
755.478	44.33
755.659	44.63
755.839	44.52
756.02	44.05
756.2	43.94
756.381	44.38
756.561	43.99
756.741	44.51
756.922	44.23
757.102	44.49
757.283	45.45
757.463	45.01
757.643	45.52
757.823	45.8
758.004	45.59
758.184	45.49
758.364	44.8
758.545	45.34
758.725	44.41
758.905	43.93
759.085	43.37
759.265	42.25
759.446	42.14
759.626	41.47
759.806	40.68
759.986	41.36
760.166	40.92
760.346	41.16
760.526	41.4
760.706	41.67
760.886	42.42
761.066	42.45
761.246	42.51
761.426	43.29
761.606	43.27
761.786	42.97
761.966	42.82
762.146	43.03
762.326	42.67
762.506	42.19
762.686	42.14
762.866	41.88
763.046	42.22
763.225	42.56
763.405	42.46
763.585	42.55
763.765	42.63
763.945	42.4
764.124	42.33
764.304	42.4
764.484	42.39
764.664	42.4
764.843	42.37
765.023	42.1
765.203	41.84
765.382	41.62
765.562	42.17
765.741	42.31
765.921	42.59
766.101	43.22
766.28	42.95
766.46	43
766.639	42.65
766.819	43.31
766.998	44.26
767.178	43.76
767.357	43.85
767.537	43.22
767.716	43.59
767.896	43.57
768.075	42.99
768.254	43.07
768.434	43.44
768.613	44.77
768.792	44.41
768.972	43.42
769.151	43.88
769.33	43.97
769.51	43.7
769.689	43.14
769.868	42.92
770.047	43.14
770.226	43.88
770.406	43.28
770.585	43.23
770.764	43.09
770.943	42.85
771.122	42.62
771.301	42.81
771.48	42.83
771.66	43.65
771.839	44.36
772.018	43.99
772.197	43.76
772.376	44.21
772.555	43.36
772.734	43.27
772.913	43.76
773.092	44.31
773.271	43.7
773.449	43.77
773.628	44.21
773.807	43.49
773.986	43.75
774.165	43.68
774.344	43.92
774.523	43.98
774.701	44.04
774.88	43.58
775.059	44
775.238	44
775.417	44.29
775.595	44.25
775.774	44.67
775.953	44.81
776.131	45.57
776.31	45.4
776.489	44.72
776.667	44.68
776.846	44.94
777.025	43.92
777.203	43.76
777.382	44.13
777.56	42.93
777.739	43.41
777.917	43.2
778.096	42.68
778.274	41.89
778.453	42.24
778.631	42.6
778.81	42.16
778.988	42.3
779.166	42.56
779.345	42.18
779.523	43.51
779.702	42.13
779.88	42.66
780.058	41.65
780.237	42.13
780.415	43.53
780.593	43.62
780.771	43.87
780.95	44.15
781.128	44.39
781.306	44.27
781.484	42.69
781.662	43.55
781.841	42.81
782.019	43.83
782.197	44.89
782.375	43.89
782.553	43.78
782.731	44.55
782.909	44.6
783.087	45.21
783.265	45.71
783.443	46.13
783.621	45.8
783.799	46.51
783.977	46.86
784.155	46.23
784.333	46.71
784.511	46.25
784.689	45.77
784.867	46.15
785.045	44.93
785.223	44.51
785.4	45.14
785.578	45.16
785.756	45.56
785.934	44.93
786.112	45.89
786.289	46.38
786.467	45.93
786.645	46.36
786.823	45.77
787	46.22
787.178	45.62
787.356	46.12
787.533	46.1
787.711	45.4
787.889	46.08
788.066	45.29
788.244	44.29
788.421	44.77
788.599	44.59
788.776	44.02
788.954	43.08
789.131	44.53
789.309	43.73
789.486	44.18
789.664	44.51
789.841	43.73
790.019	43.59
790.196	43.9
790.373	44.03
790.551	43.64
790.728	44.4
790.906	45.96
791.083	45.03
791.26	44.56
791.437	44.03
791.615	44.2
791.792	44.36
791.969	44.32
792.146	45.04
792.324	44.53
792.501	45.15
792.678	45.23
792.855	45.44
793.032	45.2
793.209	46.24
793.387	47.56
793.564	47.22
793.741	47.4
793.918	48.25
794.095	47.36
794.272	47.1
794.449	46.96
794.626	47.38
794.803	46.5
794.98	45.6
795.157	45.22
795.334	43.75
795.511	43.29
795.688	43.38
795.864	42.74
796.041	42.99
796.218	43.65
796.395	43.66
796.572	43.69
796.749	44.43
796.925	45.13
797.102	45.05
797.279	45.45
797.456	46.33
797.632	45.27
797.809	44.4
797.986	44.41
798.162	44.99
798.339	44.82
798.516	45.32
798.692	45.28
798.869	45.38
799.046	44.7
799.222	44.81
799.399	44.93
799.575	46.01
799.752	46.95
799.928	46.58
800.105	45.92
800.281	46.18
800.458	44.65
800.634	44.09
800.811	44.11
800.987	45.14
801.163	45.08
801.34	44.16
801.516	44.37
801.692	44.77
801.869	45.05
802.045	44.94
802.221	45.61
802.398	44.62
802.574	44.38
802.75	44.39
802.926	43.9
803.103	43.44
803.279	42.94
803.455	42.23
803.631	42.21
803.807	43.2
803.983	44.01
804.16	43.71
804.336	44.91
804.512	45.97
804.688	47.15
804.864	47.47
805.04	47.58
805.216	48.44
805.392	49.08
805.568	48.72
805.744	47.96
805.92	47.17
806.096	46.43
806.272	47.13
806.448	46.32
806.623	45.83
806.799	45.76
806.975	46.39
807.151	46.53
807.327	45.64
807.503	45.59
807.678	45.46
807.854	45.9
808.03	46.66
808.206	47.34
808.381	47.61
808.557	48.15
808.733	48.39
808.908	48.5
809.084	48.32
809.26	49.45
809.435	49.15
809.611	50.1
809.787	49.01
809.962	48.19
810.138	46.56
810.313	47.53
810.489	46.44
810.664	46.61
810.84	47.05
811.015	47.81
811.191	48.1
811.366	49.31
811.542	48.36
811.717	49.09
811.892	49.51
812.068	50.39
812.243	49.27
812.419	48.52
812.594	47.97
812.769	46.66
812.944	45.48
813.12	45.71
813.295	44.64
813.47	44.32
813.645	44.39
813.821	45.4
813.996	45.31
814.171	44.62
814.346	45.66
814.521	46.62
814.697	47.38
814.872	48.01
815.047	47.45
815.222	48.02
815.397	49.03
815.572	48.9
815.747	48.26
815.922	48.46
816.097	48.75
816.272	48.26
816.447	46.38
816.622	45.94
816.797	45.6
816.972	45.11
817.147	44.91
817.322	43.46
817.496	43.34
817.671	42.84
817.846	42.36
818.021	42.4
818.196	42.6
818.371	43.81
818.545	43.59
818.72	44.17
818.895	44.73
819.069	44.14
819.244	45.02
819.419	45.54
819.594	45.41
819.768	45.5
819.943	45.28
820.117	45.02
820.292	44.45
820.467	44.23
820.641	43.65
820.816	42.86
820.99	42.71
821.165	42.29
821.339	42.08
821.514	41.93
821.688	41.55
821.863	41.14
822.037	41
822.212	40.79
822.386	40.63
822.56	40.54
822.735	40.46
822.909	40.42
823.084	40.33
823.258	39.96
823.432	39.88
823.606	39.89
823.781	40.21
823.955	40.23
824.129	40.08
824.303	40.18
824.478	40.17
824.652	40.47
824.826	40.55
825	40.95
825.174	40.96
825.348	40.94
825.523	40.84
825.697	41.09
825.871	41.38
826.045	42.14
826.219	42.35
826.393	41.98
826.567	41.78
826.741	41.53
826.915	41.4
827.089	42.02
827.263	42.11
827.437	42.04
827.611	41.76
827.784	41.39
827.958	41.31
828.132	40.94
828.306	41.49
828.48	41.35
828.654	41.22
828.827	40.93
829.001	40.36
829.175	40.36
829.349	40.89
829.522	40.23
829.696	40.46
829.87	39.44
830.044	39.9
830.217	40.45
830.391	41.02
830.565	42.29
830.738	42.35
830.912	42.47
831.085	43.29
831.259	43.6
831.432	44.89
831.606	45.14
831.779	45.37
831.953	46.06
832.126	45.89
832.3	45.46
832.473	45.06
832.647	45.38
832.82	45.56
832.994	45.42
833.167	45.47
833.34	44.81
833.514	43.91
833.687	43.93
833.86	43.21
834.034	42.32
834.207	42.48
834.38	42.18
834.553	41.81
834.727	41.78
834.9	41.94
835.073	41.93
835.246	41.43
835.419	41.84
835.593	42.65
835.766	42.66
835.939	44.28
836.112	44.65
836.285	45.05
836.458	45.06
836.631	44.81
836.804	44.13
836.977	42.97
837.15	44.33
837.323	44.89
837.496	43.96
837.669	43.93
837.842	43.04
838.015	42.63
838.188	42.01
838.361	41.05
838.533	42
838.706	41.94
838.879	43.71
839.052	44.52
839.225	43.93
839.398	45.96
839.57	47.17
839.743	46.34
839.916	47.24
840.088	49.25
840.261	50.18
840.434	50.66
840.607	51.01
840.779	50.73
840.952	49.77
841.124	49.35
841.297	47.2
841.47	46.16
841.642	46.75
841.815	47.54
841.987	46.68
842.16	48.96
842.332	48.37
842.505	47.37
842.677	45.87
842.85	46.59
843.022	49.9
843.194	52.86
843.367	53.48
843.539	54.11
843.712	53.47
843.884	54.02
844.056	54.41
844.229	53.25
844.401	54.2
844.573	56.77
844.745	54.78
844.918	53.3
845.09	50.64
845.262	50.93
845.434	52.03
845.606	51.93
845.779	51.39
845.951	49.28
846.123	47.55
846.295	46.85
846.467	44.52
846.639	47.8
846.811	47.98
846.983	49.91
847.155	48.75
847.327	48.66
847.499	47.28
847.671	49.18
847.843	47.17
848.015	50.28
848.187	50.5
848.359	53.1
848.531	52.05
848.703	48.9
848.875	48.61
849.047	48.18
849.218	46.36
849.39	47.01
849.562	44.18
849.734	48.51
849.905	48.09
850.077	50.01
850.249	44.91
850.421	46.23
850.592	49.35
850.764	48.37
850.936	53.1
851.107	56.88
851.279	56.72
851.451	57.78
851.622	57.04
851.794	59.88
851.965	60.07
852.137	65.47
852.308	68.65
852.48	71.41
852.651	71.22
852.823	67.88
852.994	64.49
853.166	62.8
853.337	63.58
853.509	62.61
853.68	61.3
853.851	57.73
854.023	58.46
854.194	55.71
854.365	55.17
854.537	55.26
854.708	54.74
854.879	56.75
855.05	58.93
855.222	56.86
855.393	54.41
855.564	53.91
855.735	56.15
855.906	54.8
856.078	53.99
856.249	50.79
856.42	48.75
856.591	48.79
856.762	47.83
856.933	47.04
857.104	47.63
857.275	51.67
857.446	50.31
857.617	49.98
857.788	51.15
857.959	52.1
858.13	52.46
858.301	55.55
858.472	57.14
858.643	54.68
858.814	57.55
858.985	55.29
859.155	53.86
859.326	54.51
859.497	54.13
859.668	50.9
859.839	49.85
860.009	51.39
860.18	49.2
860.351	48.86
860.522	49.76
860.692	46.43
860.863	49.31
861.034	48.07
861.204	46.58
861.375	49.92
861.546	54.7
861.716	53.52
861.887	55.49
862.057	57.04
862.228	53.89
862.398	55.5
862.569	55.31
862.739	55.46
862.91	57.07
863.08	59.5
863.251	56.43
863.421	51.37
863.592	54.85
863.762	53.98
863.932	53.84
864.103	55.86
864.273	58.59
864.443	59.46
864.614	61.16
864.784	61.22
864.954	60.61
865.125	61.56
865.295	60.75
865.465	59.67
865.635	59.08
865.805	57.03
865.976	57.29
866.146	51.54
866.316	50.34
866.486	48.69
866.656	46.46
866.826	48
866.996	49.05
867.166	52.28
867.336	54.44
867.506	55.1
867.676	55.63
867.846	57.73
868.016	63.44
868.186	70.26
868.356	67.78
868.526	68.21
868.696	66.39
868.866	62.47
869.036	61.05
869.206	61.31
869.376	61.43
869.545	62.81
869.715	62.09
869.885	60.87
870.055	58.78
870.224	62.68
870.394	65.47
870.564	67.52
870.734	67.45
870.903	65.39
871.073	63.52
871.243	62.34
871.412	62.65
871.582	61.71
871.751	58.73
871.921	56.71
872.091	54.56
872.26	53.11
872.43	49.86
872.599	53.2
872.769	51.82
872.938	56.91
873.108	56.47
873.277	57.29
873.446	56.5
873.616	56.28
873.785	57.5
873.955	55.17
874.124	55.49
874.293	60.2
874.463	59.26
874.632	65.15
874.801	58.3
874.971	57.71
875.14	54.69
875.309	55.12
875.478	56.94
875.647	56.72
875.817	57.28
875.986	59.84
876.155	54.58
876.324	55.94
876.493	55.2
876.662	57.14
876.831	57.68
877	60.79
877.17	59.19
877.339	60.2
877.508	58.24
877.677	56.07
877.846	53.56
878.015	55
878.184	51.8
878.352	51.4
878.521	51.16
878.69	53.46
878.859	52.85
879.028	53.75
879.197	50.65
879.366	50.55
879.534	52.19
879.703	52.22
879.872	50.79
880.041	48.6
880.21	47.02
880.378	45.27
880.547	43.34
880.716	42.56
880.884	42.43
881.053	42.21
881.222	41.58
881.39	40.33
881.559	40.14
881.727	40.01
881.896	40.25
882.065	39.61
882.233	40.17
882.402	40.14
882.57	40.21
882.739	39.63
882.907	39.97
883.076	40.45
883.244	40.41
883.412	39.93
883.581	40.23
883.749	40.62
883.918	41.04
884.086	41.55
884.254	42.42
884.423	42.01
884.591	42.59
884.759	42.94
884.927	42.76
885.096	42.9
885.264	43.19
885.432	42.86
885.6	43.43
885.769	43.63
885.937	43.21
886.105	42.88
886.273	44.69
886.441	46.05
886.609	46.73
886.777	45.65
886.945	46.57
887.113	47.01
887.281	47.32
887.449	47.66
887.617	46.18
887.785	44.83
887.953	44.27
888.121	42.68
888.289	39.65
888.457	36.77
888.625	39.97
888.793	38.73
888.961	39.5
889.129	42.46
889.296	40.61
889.464	43.21
889.632	45.29
889.8	43.26
889.967	42.84
890.135	44.97
