Data from 2938445_Reflection_1.txt Node
Date: Fri Jun 19 18:10:26 EDT 2015
User: robert
Spectrometer: USB4E03002
Autoset integration time: false
Trigger mode: 4
Integration Time (sec): 1.000000E-1
Scans to average: 10
Electric dark correction enabled: true
Nonlinearity correction enabled: false
Boxcar width: 5
Stray light correction enabled: false
XAxis mode: Wavelengths
Stop averaging: false
Number of Pixels in Spectrum: 3648
>>>>>Begin Spectral Data<<<<<
177.575	121.26
177.794	238.57
178.014	416.33
178.233	-230.97
178.452	117.43
178.672	90.59
178.891	-8.07
179.11	-90.32
179.33	100.96
179.549	-32.97
179.768	129.39
179.987	86.58
180.207	-339.22
180.426	894.76
180.645	206.22
180.864	140.07
181.084	100.39
181.303	59.54
181.522	100.48
181.741	59.71
181.96	76.76
182.179	85.36
182.398	26.19
182.618	45.51
182.837	3.29
183.056	31.25
183.275	246
183.494	107.95
183.713	370.4
183.932	780.23
184.151	175.81
184.37	886.08
184.589	173.37
184.808	118.93
185.027	140.59
185.246	156.7
185.465	227.62
185.684	629.19
185.903	538.62
186.122	222.4
186.341	136.03
186.56	306.56
186.779	106.36
186.998	8
187.216	124.85
187.435	60.37
187.654	88.49
187.873	-135.63
188.092	426.47
188.311	528.99
188.53	-277.53
188.748	-34.16
188.967	-11.71
189.186	-84.49
189.405	-215.84
189.623	-1060.13
189.842	406.19
190.061	1281.73
190.28	-26.9
190.498	-111.59
190.717	-12086.67
190.936	-382.11
191.154	-381.94
191.373	-735.62
191.592	-0.59
191.81	-13.14
192.029	-34.45
192.248	-41.97
192.466	-14.03
192.685	-37.15
192.904	-68.81
193.122	-26.19
193.341	-14.32
193.559	-54.11
193.778	9.23
193.996	-15.93
194.215	53.15
194.433	68.55
194.652	100.58
194.87	70.68
195.089	67.42
195.307	77.5
195.526	82.06
195.744	83.93
195.963	85.95
196.181	67.67
196.399	62.96
196.618	100.64
196.836	42.5
197.055	-70.1
197.273	13.79
197.491	72.05
197.71	102.92
197.928	98.28
198.146	123.39
198.365	267.89
198.583	22.47
198.801	-17.44
199.019	-425.4
199.238	-310.2
199.456	-422.78
199.674	-273.39
199.892	156.55
200.111	44.92
200.329	97.81
200.547	87.21
200.765	-30.88
200.983	129.72
201.202	33.93
201.42	-4.59
201.638	-13.57
201.856	-13.53
202.074	-71.84
202.292	-92.98
202.51	23.35
202.728	-47.39
202.946	29.32
203.165	42.56
203.383	-162.7
203.601	-69.66
203.819	-398.61
204.037	-116.49
204.255	-249.56
204.473	968.29
204.691	894.25
204.909	-3010.76
205.127	-366.09
205.345	-323.14
205.562	-176.26
205.78	-410.59
205.998	-251.19
206.216	-73.6
206.434	-320.62
206.652	-160.25
206.87	-30.72
207.088	29.54
207.306	59.59
207.523	114.84
207.741	158.87
207.959	277.23
208.177	160.99
208.395	-33.56
208.612	81.57
208.83	-18.44
209.048	-10.72
209.266	-62.58
209.483	8.68
209.701	-128.73
209.919	-80.3
210.136	-118.87
210.354	-8.32
210.572	62.09
210.79	84.92
211.007	63.67
211.225	64.01
211.442	56.4
211.66	75.89
211.878	53.4
212.095	76.12
212.313	97.17
212.53	87.94
212.748	69.65
212.966	45.13
213.183	37.86
213.401	50.74
213.618	50.89
213.836	66.06
214.053	72.86
214.271	75.13
214.488	67.78
214.705	61.08
214.923	54.73
215.14	46.9
215.358	53.68
215.575	47.32
215.793	42.11
216.01	32.33
216.227	31.18
216.445	20.6
216.662	3.6
216.879	-16.6
217.097	9.12
217.314	33.72
217.531	12.59
217.749	-225.37
217.966	-191.67
218.183	-438.42
218.4	-132.64
218.618	-96.49
218.835	-172.29
219.052	-177.51
219.269	-20.5
219.487	-11.16
219.704	-22.1
219.921	7.45
220.138	65.03
220.355	69.23
220.572	77.73
220.79	71.63
221.007	54.57
221.224	59.94
221.441	51.15
221.658	35.39
221.875	38.28
222.092	33.45
222.309	33.83
222.526	15.92
222.743	28.46
222.96	35.16
223.177	41.23
223.394	43.04
223.611	36.54
223.828	39.68
224.045	37.94
224.262	39.63
224.479	41.26
224.696	36.84
224.913	28.51
225.13	24.64
225.347	27.69
225.564	27.83
225.781	30.76
225.997	28.66
226.214	22.73
226.431	22.95
226.648	19.16
226.865	17.26
227.082	17.79
227.298	20.53
227.515	18.14
227.732	17.69
227.949	19.03
228.165	16.01
228.382	16.15
228.599	16.92
228.816	16.18
229.032	16.74
229.249	17
229.466	16.75
229.682	17.69
229.899	19.33
230.116	15.98
230.332	14.06
230.549	15.09
230.765	17.06
230.982	19.39
231.199	21.24
231.415	24.27
231.632	30.12
231.848	27.99
232.065	24.86
232.281	27.24
232.498	28.74
232.714	27.74
232.931	27.46
233.147	25.96
233.364	25.68
233.58	25.78
233.797	23.67
234.013	19.46
234.23	18.94
234.446	22.27
234.662	22.5
234.879	21.39
235.095	20.76
235.312	23.52
235.528	24.09
235.744	25.09
235.961	24.34
236.177	23.19
236.393	22.15
236.61	25.05
236.826	23.31
237.042	19.62
237.258	22.18
237.475	21.41
237.691	18.35
237.907	16.76
238.123	16.59
238.339	18.18
238.556	19.03
238.772	19.17
238.988	17.02
239.204	18.17
239.42	20.27
239.636	19.64
239.853	19.8
240.069	21.06
240.285	21.09
240.501	20.2
240.717	19.79
240.933	18.06
241.149	16.69
241.365	16.47
241.581	15.31
241.797	13.61
242.013	13.04
242.229	13.35
242.445	11.52
242.661	10.7
242.877	10.61
243.093	10.41
243.309	11.44
243.525	12.48
243.741	13.43
243.957	12.97
244.173	14.58
244.388	15
244.604	14.72
244.82	15.03
245.036	15.34
245.252	15.15
245.468	14.67
245.683	14.97
245.899	14.96
246.115	15.06
246.331	15.36
246.547	14.67
246.762	13.81
246.978	13.09
247.194	13.1
247.409	12.28
247.625	12.27
247.841	12.01
248.057	12.3
248.272	12.68
248.488	12.25
248.703	12.81
248.919	13.5
249.135	13.61
249.35	15.18
249.566	14.51
249.782	14.89
249.997	14.9
250.213	14.93
250.428	13.76
250.644	13.47
250.859	12.91
251.075	12.13
251.29	11.69
251.506	12.21
251.721	11.32
251.937	11.2
252.152	11.27
252.368	10.93
252.583	11.26
252.798	11.58
253.014	11.15
253.229	11.21
253.445	10.87
253.66	10.64
253.875	8.99
254.091	8.38
254.306	8.13
254.521	8.9
254.737	7.81
254.952	8.23
255.167	7.46
255.383	8.14
255.598	10.05
255.813	9.69
256.028	10.24
256.244	10.02
256.459	10.08
256.674	10.52
256.889	9.53
257.104	10.15
257.32	9.93
257.535	10.08
257.75	9.51
257.965	8.75
258.18	9.23
258.395	8.93
258.61	9.32
258.826	8.71
259.041	8.2
259.256	8.14
259.471	7.59
259.686	7.15
259.901	7.29
260.116	7.64
260.331	7.94
260.546	7.61
260.761	7.36
260.976	7.36
261.191	7.9
261.406	7.21
261.621	8.19
261.836	8.99
262.05	9.6
262.265	9.34
262.48	7.92
262.695	6.69
262.91	6.24
263.125	7.25
263.34	7.91
263.555	8.26
263.769	9.55
263.984	9.51
264.199	9.76
264.414	8.96
264.629	7.93
264.843	9.37
265.058	9.64
265.273	9.33
265.488	8.38
265.702	7.65
265.917	8.05
266.132	8.34
266.346	7.59
266.561	7.28
266.776	8.29
266.99	8.72
267.205	8.06
267.42	8.52
267.634	9.54
267.849	9.78
268.063	10.22
268.278	9.81
268.492	9.42
268.707	9.49
268.922	9.67
269.136	8.63
269.351	9.45
269.565	9.85
269.78	9.3
269.994	8.82
270.209	9.04
270.423	8.5
270.637	8.87
270.852	8.76
271.066	9.04
271.281	9.01
271.495	9.71
271.709	9.11
271.924	8.54
272.138	8.92
272.353	8.91
272.567	8.11
272.781	8.55
272.996	8.58
273.21	8.83
273.424	8.76
273.638	8.21
273.853	7.44
274.067	7.51
274.281	7.35
274.495	8.2
274.71	7.54
274.924	8.08
275.138	7.63
275.352	7.73
275.566	7.96
275.781	8.05
275.995	7.78
276.209	9.38
276.423	9.72
276.637	10.05
276.851	9.44
277.065	10.07
277.279	10.11
277.493	10.92
277.707	10.64
277.921	10.79
278.135	10.76
278.349	11.26
278.563	9.78
278.777	9.26
278.991	9.05
279.205	8.19
279.419	7.46
279.633	7.31
279.847	7.13
280.061	7.23
280.275	7.65
280.489	7.77
280.703	8.26
280.917	8.63
281.131	9.02
281.344	9.68
281.558	10.41
281.772	10.55
281.986	10.74
282.2	10.75
282.414	10.56
282.627	9.94
282.841	10.01
283.055	9.87
283.269	9.61
283.482	10.13
283.696	9.93
283.91	9.68
284.123	10.01
284.337	9.43
284.551	9.06
284.764	8.94
284.978	8.62
285.192	8.57
285.405	8.2
285.619	7.91
285.833	6.74
286.046	6.52
286.26	6.51
286.473	7.4
286.687	8.4
286.9	9.04
287.114	9.42
287.327	9.39
287.541	9.33
287.754	9.75
287.968	10.32
288.181	11.28
288.395	11.35
288.608	11.7
288.822	10.55
289.035	10.01
289.248	9.72
289.462	10.31
289.675	11.16
289.889	11.65
290.102	11.85
290.315	12.06
290.529	11.87
290.742	12.13
290.955	11.74
291.169	12.14
291.382	12.24
291.595	12.59
291.808	12.54
292.022	11.66
292.235	10.45
292.448	10.89
292.661	10.75
292.875	9.89
293.088	10.21
293.301	10.29
293.514	10.03
293.727	10.71
293.94	10.45
294.153	9.25
294.367	9.97
294.58	10.11
294.793	9.95
295.006	9.71
295.219	10.21
295.432	10.08
295.645	10.46
295.858	10.18
296.071	9.94
296.284	10.37
296.497	11.5
296.71	11.34
296.923	11.71
297.136	11.95
297.349	12.38
297.562	12.06
297.775	12.38
297.988	12.15
298.201	12.67
298.414	12.29
298.626	12.26
298.839	12.07
299.052	12.47
299.265	12.98
299.478	12.26
299.691	12.04
299.903	12.69
300.116	12.28
300.329	12.42
300.542	12.85
300.755	13.26
300.967	13.05
301.18	13.45
301.393	13.26
301.605	11.83
301.818	12.9
302.031	13
302.243	13.09
302.456	12.7
302.669	13.3
302.881	13.1
303.094	13.85
303.307	13.86
303.519	12.5
303.732	12.3
303.944	13.33
304.157	12.87
304.37	12.54
304.582	12.5
304.795	12.99
305.007	12.48
305.22	12.91
305.432	12.41
305.645	12.34
305.857	13.62
306.069	14.21
306.282	14.61
306.494	14.16
306.707	15.01
306.919	15.62
307.132	14.76
307.344	14.48
307.556	14.37
307.769	14.87
307.981	15.45
308.193	15.21
308.406	14.58
308.618	14.25
308.83	13.82
309.043	12.79
309.255	12.08
309.467	13.26
309.679	12.91
309.892	13.1
310.104	12.35
310.316	11.87
310.528	11.13
310.74	11.46
310.953	11.64
311.165	12.49
311.377	12.74
311.589	13.38
311.801	12.78
312.013	13.77
312.225	13.43
312.437	13.56
312.649	13.56
312.862	13.39
313.074	13.06
313.286	12.96
313.498	12.16
313.71	12.57
313.922	11.89
314.134	11.98
314.346	10.74
314.558	10.67
314.77	11.41
314.982	11.27
315.193	11.66
315.405	12.11
315.617	11.94
315.829	12.44
316.041	12.4
316.253	12.75
316.465	14.31
316.677	15.09
316.888	15.31
317.1	14.94
317.312	14.56
317.524	14.26
317.736	14.48
317.947	14.93
318.159	15.43
318.371	16.14
318.583	16.02
318.794	14.54
319.006	14.56
319.218	14.45
319.43	14.09
319.641	14.63
319.853	15.54
320.064	15.28
320.276	15.12
320.488	14.69
320.699	13.7
320.911	13.98
321.123	14.21
321.334	15.08
321.546	14.79
321.757	15.22
321.969	14.91
322.18	14.37
322.392	15.03
322.603	14.68
322.815	14.94
323.026	14.82
323.238	14.95
323.449	14.65
323.661	14.16
323.872	14.74
324.083	15.53
324.295	16.33
324.506	15.77
324.718	15.37
324.929	16.34
325.14	16.1
325.352	17.35
325.563	17.6
325.774	17.63
325.986	17.89
326.197	17.59
326.408	16.68
326.62	16.46
326.831	17.84
327.042	17.29
327.253	16.36
327.464	16.79
327.676	16.69
327.887	16.85
328.098	17.45
328.309	17.25
328.52	17.7
328.732	18.62
328.943	18.83
329.154	18.87
329.365	20.25
329.576	21.82
329.787	21.84
329.998	21.25
330.209	20.18
330.42	20.77
330.631	20.72
330.842	20.83
331.053	20.15
331.264	20.37
331.475	21.04
331.686	20.67
331.897	19.63
332.108	19.22
332.319	18.99
332.53	20.09
332.741	20.42
332.952	20.37
333.163	20.34
333.374	21.11
333.585	20.6
333.795	19.75
334.006	19.96
334.217	20.69
334.428	21.31
334.639	22.04
334.849	22.12
335.06	20.96
335.271	21.69
335.482	21.42
335.692	21.18
335.903	22.33
336.114	23.13
336.325	22.98
336.535	23.15
336.746	22.66
336.957	21.85
337.167	21.46
337.378	22.49
337.589	22.68
337.799	23.33
338.01	23.46
338.22	23.06
338.431	22.92
338.642	22.86
338.852	22.13
339.063	22.29
339.273	22.91
339.484	23.86
339.694	22.91
339.905	22.52
340.115	22.5
340.326	22.21
340.536	22.52
340.746	22.27
340.957	23.46
341.167	23.59
341.378	23.66
341.588	23.8
341.799	23.23
342.009	23.75
342.219	23.24
342.43	23.57
342.64	23.25
342.85	22.9
343.061	22.61
343.271	21.45
343.481	20.99
343.691	20.97
343.902	20.61
344.112	20.32
344.322	20.42
344.532	21.23
344.743	20.63
344.953	20.31
345.163	19.94
345.373	20.4
345.583	20.5
345.793	20.57
346.004	20.35
346.214	20.4
346.424	20.51
346.634	20.6
346.844	20.65
347.054	20.5
347.264	21.24
347.474	21.87
347.684	21.32
347.894	20.59
348.104	20.99
348.314	21.18
348.524	21.12
348.734	21.31
348.944	20.49
349.154	19.58
349.364	19.82
349.574	20.16
349.784	20.12
349.994	20.49
350.204	21.18
350.413	20.9
350.623	21.49
350.833	21.05
351.043	21.12
351.253	21.15
351.463	22.11
351.672	21.85
351.882	21.67
352.092	21.05
352.302	20.63
352.511	20.81
352.721	20.89
352.931	20.36
353.141	21.66
353.35	20.96
353.56	21.65
353.77	20.8
353.979	21.02
354.189	20.8
354.399	20.9
354.608	21.39
354.818	21.15
355.027	21.45
355.237	21.06
355.447	20.37
355.656	20.95
355.866	20.43
356.075	20.96
356.285	21.02
356.494	21.06
356.704	20.57
356.913	20.68
357.123	20.81
357.332	20.85
357.542	21.6
357.751	21.54
357.96	21.29
358.17	20.75
358.379	20.45
358.589	20.11
358.798	19.97
359.007	20.26
359.217	19.76
359.426	20
359.635	20.09
359.845	19.94
360.054	19.88
360.263	19.87
360.472	20.41
360.682	20.28
360.891	20.19
361.1	20.69
361.309	20.93
361.519	20.81
361.728	20.38
361.937	20.44
362.146	20.24
362.355	20.16
362.564	20.11
362.774	19.96
362.983	20.21
363.192	20.23
363.401	19.62
363.61	19.37
363.819	19.95
364.028	20.02
364.237	19.55
364.446	19.11
364.655	19.64
364.864	19.68
365.073	19.63
365.282	19.12
365.491	19.27
365.7	19.5
365.909	19.27
366.118	18.28
366.327	18.48
366.536	18.25
366.745	18.55
366.954	17.96
367.162	18.01
367.371	17.96
367.58	17.63
367.789	17.47
367.998	17
368.207	17.04
368.415	17.48
368.624	16.8
368.833	16.67
369.042	16.38
369.25	16.27
369.459	16.22
369.668	15.97
369.877	16.49
370.085	16.77
370.294	16.67
370.503	16.51
370.711	16.43
370.92	16.65
371.129	16.51
371.337	16.51
371.546	16.31
371.754	16.2
371.963	16.41
372.171	16.4
372.38	16.08
372.589	16.03
372.797	15.74
373.006	16.08
373.214	16.05
373.423	16.35
373.631	15.92
373.84	15.58
374.048	15.61
374.256	15.42
374.465	15.25
374.673	14.92
374.882	15.14
375.09	15.58
375.298	15.09
375.507	15.04
375.715	14.9
375.923	14.74
376.132	14.94
376.34	14.65
376.548	14.57
376.757	14.49
376.965	14.3
377.173	13.85
377.381	13.35
377.59	13.14
377.798	13.16
378.006	12.95
378.214	13.32
378.423	13.4
378.631	13.28
378.839	13.04
379.047	12.9
379.255	13.04
379.463	13.32
379.671	13.29
379.879	13.36
380.088	13.35
380.296	13.24
380.504	13.09
380.712	13.04
380.92	12.8
381.128	12.98
381.336	12.93
381.544	13.08
381.752	12.72
381.96	13.02
382.168	13.06
382.376	12.88
382.584	12.77
382.791	12.83
382.999	12.83
383.207	12.69
383.415	12.33
383.623	12.1
383.831	11.99
384.039	12.09
384.247	11.82
384.454	11.61
384.662	11.13
384.87	11.12
385.078	10.83
385.285	10.6
385.493	10.89
385.701	11.05
385.909	10.93
386.116	10.41
386.324	10.49
386.532	10.34
386.739	10.23
386.947	10.38
387.155	10.03
387.362	10.27
387.57	10.14
387.778	9.73
387.985	9.57
388.193	9.71
388.4	9.94
388.608	9.68
388.816	9.56
389.023	9.65
389.231	9.47
389.438	9.69
389.646	9.7
389.853	9.76
390.061	9.91
390.268	9.74
390.475	9.52
390.683	9.38
390.89	9.24
391.098	9.32
391.305	9.14
391.512	9.23
391.72	9.15
391.927	8.92
392.135	8.91
392.342	8.87
392.549	8.88
392.756	8.97
392.964	8.96
393.171	8.94
393.378	8.95
393.586	8.94
393.793	9.08
394	8.91
394.207	8.84
394.414	8.66
394.622	8.55
394.829	8.48
395.036	8.28
395.243	8.18
395.45	8.38
395.657	8.2
395.864	8.27
396.072	8.09
396.279	8.24
396.486	8.26
396.693	8.26
396.9	8.43
397.107	8.39
397.314	8.54
397.521	8.53
397.728	8.41
397.935	8.51
398.142	8.38
398.349	8.19
398.556	8.17
398.763	7.91
398.97	7.73
399.177	7.56
399.383	7.56
399.59	7.3
399.797	7.3
400.004	7.31
400.211	7.12
400.418	7.29
400.625	7.51
400.831	7.52
401.038	7.64
401.245	7.83
401.452	7.71
401.658	7.73
401.865	7.86
402.072	7.9
402.279	7.88
402.485	7.93
402.692	7.81
402.899	7.74
403.105	7.74
403.312	7.75
403.519	7.67
403.725	7.77
403.932	7.78
404.138	7.82
404.345	7.74
404.552	7.72
404.758	7.79
404.965	7.82
405.171	7.77
405.378	7.69
405.584	7.71
405.791	7.68
405.997	7.71
406.204	7.71
406.41	7.57
406.617	7.59
406.823	7.56
407.029	7.4
407.236	7.17
407.442	7.16
407.649	7.14
407.855	7.12
408.061	7.14
408.268	7.05
408.474	6.99
408.68	7.09
408.887	7.2
409.093	7.1
409.299	7.08
409.505	7.08
409.712	7.01
409.918	7.18
410.124	7.13
410.33	7.03
410.537	7.04
410.743	7.06
410.949	7.06
411.155	7.02
411.361	6.92
411.567	6.92
411.773	7.03
411.98	7.08
412.186	6.75
412.392	6.62
412.598	6.73
412.804	6.61
413.01	6.66
413.216	6.59
413.422	6.57
413.628	6.7
413.834	6.6
414.04	6.65
414.246	6.46
414.452	6.62
414.658	6.72
414.864	6.73
415.07	6.72
415.275	6.68
415.481	6.57
415.687	6.69
415.893	6.75
416.099	6.92
416.305	6.83
416.511	6.95
416.716	6.87
416.922	6.89
417.128	6.86
417.334	6.97
417.539	7
417.745	7.11
417.951	6.91
418.157	6.9
418.362	6.91
418.568	6.88
418.774	6.83
418.979	6.95
419.185	6.96
419.391	6.95
419.596	6.85
419.802	6.84
420.008	6.85
420.213	6.87
420.419	6.82
420.624	6.86
420.83	6.87
421.035	6.97
421.241	6.84
421.446	6.76
421.652	6.7
421.857	6.72
422.063	6.69
422.268	6.65
422.474	6.61
422.679	6.65
422.885	6.53
423.09	6.64
423.295	6.48
423.501	6.5
423.706	6.52
423.911	6.6
424.117	6.63
424.322	6.63
424.527	6.63
424.733	6.71
424.938	6.71
425.143	6.71
425.349	6.57
425.554	6.72
425.759	6.72
425.964	6.7
426.169	6.62
426.375	6.56
426.58	6.62
426.785	6.6
426.99	6.53
427.195	6.52
427.4	6.47
427.605	6.45
427.811	6.42
428.016	6.38
428.221	6.52
428.426	6.6
428.631	6.61
428.836	6.51
429.041	6.47
429.246	6.48
429.451	6.49
429.656	6.52
429.861	6.58
430.066	6.6
430.271	6.64
430.476	6.47
430.681	6.39
430.886	6.31
431.09	6.28
431.295	6.37
431.5	6.39
431.705	6.26
431.91	6.31
432.115	6.32
432.32	6.26
432.524	6.24
432.729	6.32
432.934	6.45
433.139	6.47
433.343	6.46
433.548	6.37
433.753	6.35
433.958	6.47
434.162	6.47
434.367	6.45
434.572	6.51
434.776	6.52
434.981	6.44
435.186	6.35
435.39	6.31
435.595	6.33
435.799	6.4
436.004	6.41
436.209	6.24
436.413	6.29
436.618	6.33
436.822	6.29
437.027	6.26
437.231	6.32
437.436	6.37
437.64	6.38
437.845	6.37
438.049	6.37
438.253	6.38
438.458	6.48
438.662	6.44
438.867	6.4
439.071	6.4
439.275	6.46
439.48	6.44
439.684	6.34
439.888	6.42
440.093	6.51
440.297	6.49
440.501	6.51
440.706	6.54
440.91	6.52
441.114	6.51
441.318	6.54
441.523	6.48
441.727	6.48
441.931	6.56
442.135	6.63
442.339	6.53
442.543	6.55
442.748	6.55
442.952	6.48
443.156	6.46
443.36	6.48
443.564	6.46
443.768	6.46
443.972	6.42
444.176	6.41
444.38	6.34
444.584	6.34
444.788	6.37
444.992	6.33
445.196	6.3
445.4	6.31
445.604	6.24
445.808	6.19
446.012	6.24
446.216	6.28
446.42	6.28
446.624	6.24
446.828	6.23
447.032	6.18
447.235	6.15
447.439	6.13
447.643	6.1
447.847	6.19
448.051	6.23
448.254	6.22
448.458	6.24
448.662	6.21
448.866	6.22
449.069	6.26
449.273	6.22
449.477	6.13
449.681	6.24
449.884	6.19
450.088	6.15
450.292	6.14
450.495	6.02
450.699	6.02
450.902	5.98
451.106	5.97
451.31	5.94
451.513	5.99
451.717	6.04
451.92	6.02
452.124	6.06
452.327	6.05
452.531	6.09
452.734	6.21
452.938	6.1
453.141	6.03
453.345	6.06
453.548	6.08
453.752	6.08
453.955	6.22
454.158	6.14
454.362	6.26
454.565	6.24
454.769	6.21
454.972	6.24
455.175	6.35
455.379	6.55
455.582	6.46
455.785	6.43
455.988	6.3
456.192	6.34
456.395	6.39
456.598	6.28
456.801	6.27
457.005	6.2
457.208	6.08
457.411	6.06
457.614	5.97
457.817	6.02
458.021	6.06
458.224	6.1
458.427	6.09
458.63	6.08
458.833	6.04
459.036	6.03
459.239	5.99
459.442	6.01
459.645	6
459.848	6.12
460.051	6.14
460.254	6.12
460.457	6.18
460.66	6.14
460.863	6.18
461.066	6.25
461.269	6.27
461.472	6.48
461.675	6.54
461.878	6.58
462.081	6.45
462.284	6.42
462.486	6.34
462.689	6.27
462.892	6.34
463.095	6.33
463.298	6.27
463.5	6.3
463.703	6.15
463.906	6.11
464.109	6.04
464.311	6.07
464.514	6.13
464.717	6.09
464.92	6.11
465.122	6.07
465.325	6.06
465.528	6.11
465.73	6.07
465.933	6.16
466.135	6.21
466.338	6.29
466.541	6.22
466.743	6.16
466.946	6.34
467.148	6.35
467.351	6.33
467.553	6.37
467.756	6.35
467.958	6.45
468.161	6.44
468.363	6.39
468.566	6.31
468.768	6.37
468.971	6.35
469.173	6.15
469.375	6.15
469.578	6.16
469.78	6.11
469.983	6.16
470.185	6.06
470.387	6.12
470.59	6.16
470.792	6.32
470.994	6.31
471.196	6.28
471.399	6.41
471.601	6.4
471.803	6.38
472.005	6.46
472.208	6.44
472.41	6.45
472.612	6.43
472.814	6.26
473.016	6.15
473.218	6.11
473.421	6.21
473.623	6.22
473.825	6.2
474.027	6.21
474.229	6.14
474.431	6.16
474.633	6.14
474.835	6.07
475.037	6.15
475.239	6.12
475.441	6.25
475.643	6.21
475.845	6.18
476.047	6.18
476.249	6.29
476.451	6.3
476.653	6.3
476.855	6.33
477.057	6.44
477.258	6.59
477.46	6.6
477.662	6.46
477.864	6.5
478.066	6.43
478.268	6.48
478.469	6.28
478.671	6.28
478.873	6.26
479.075	6.3
479.276	6.24
479.478	6.15
479.68	6.18
479.882	6.22
480.083	6.26
480.285	6.36
480.487	6.34
480.688	6.4
480.89	6.41
481.091	6.42
481.293	6.39
481.495	6.4
481.696	6.37
481.898	6.35
482.099	6.36
482.301	6.35
482.502	6.31
482.704	6.27
482.905	6.25
483.107	6.22
483.308	6.22
483.51	6.23
483.711	6.2
483.913	6.2
484.114	6.18
484.315	6.15
484.517	6.13
484.718	6.16
484.92	6.2
485.121	6.27
485.322	6.29
485.524	6.27
485.725	6.23
485.926	6.24
486.127	6.27
486.329	6.33
486.53	6.3
486.731	6.29
486.932	6.27
487.134	6.24
487.335	6.19
487.536	6.22
487.737	6.22
487.938	6.25
488.139	6.25
488.341	6.24
488.542	6.22
488.743	6.31
488.944	6.35
489.145	6.37
489.346	6.45
489.547	6.4
489.748	6.36
489.949	6.36
490.15	6.37
490.351	6.41
490.552	6.4
490.753	6.39
490.954	6.35
491.155	6.33
491.356	6.3
491.557	6.27
491.758	6.35
491.959	6.33
492.159	6.35
492.36	6.32
492.561	6.31
492.762	6.31
492.963	6.28
493.164	6.32
493.364	6.28
493.565	6.33
493.766	6.35
493.967	6.32
494.167	6.37
494.368	6.29
494.569	6.35
494.769	6.26
494.97	6.33
495.171	6.36
495.371	6.35
495.572	6.48
495.773	6.5
495.973	6.43
496.174	6.45
496.375	6.52
496.575	6.5
496.776	6.5
496.976	6.54
497.177	6.56
497.377	6.55
497.578	6.54
497.778	6.47
497.979	6.46
498.179	6.57
498.38	6.55
498.58	6.51
498.78	6.64
498.981	6.61
499.181	6.69
499.382	6.67
499.582	6.72
499.782	6.8
499.983	6.83
500.183	6.8
500.383	6.85
500.584	6.78
500.784	6.77
500.984	6.74
501.184	6.8
501.385	6.8
501.585	6.83
501.785	6.76
501.985	6.73
502.185	6.7
502.386	6.79
502.586	6.73
502.786	6.86
502.986	6.89
503.186	6.99
503.386	7.06
503.586	7.06
503.786	7.09
503.987	7.2
504.187	7.19
504.387	7.32
504.587	7.36
504.787	7.44
504.987	7.39
505.187	7.4
505.387	7.44
505.587	7.39
505.786	7.45
505.986	7.46
506.186	7.5
506.386	7.57
506.586	7.57
506.786	7.5
506.986	7.49
507.186	7.56
507.386	7.57
507.585	7.53
507.785	7.51
507.985	7.42
508.185	7.39
508.384	7.39
508.584	7.37
508.784	7.33
508.984	7.39
509.183	7.41
509.383	7.41
509.583	7.46
509.782	7.56
509.982	7.67
510.182	7.8
510.381	7.83
510.581	7.81
510.781	7.86
510.98	7.92
511.18	7.91
511.379	7.94
511.579	7.98
511.778	8
511.978	7.93
512.177	7.9
512.377	7.95
512.576	8.06
512.776	8.12
512.975	8.12
513.175	8.19
513.374	8.25
513.573	8.26
513.773	8.26
513.972	8.22
514.172	8.27
514.371	8.34
514.57	8.31
514.77	8.27
514.969	8.33
515.168	8.43
515.367	8.44
515.567	8.56
515.766	8.64
515.965	8.68
516.164	8.76
516.364	8.82
516.563	8.82
516.762	8.75
516.961	8.81
517.16	8.77
517.359	8.74
517.559	8.71
517.758	8.71
517.957	8.69
518.156	8.72
518.355	8.69
518.554	8.67
518.753	8.67
518.952	8.79
519.151	8.81
519.35	8.88
519.549	8.89
519.748	8.88
519.947	8.89
520.146	8.92
520.345	8.91
520.544	9
520.743	9.07
520.942	9.13
521.141	9.17
521.339	9.2
521.538	9.17
521.737	9.16
521.936	9.3
522.135	9.32
522.333	9.26
522.532	9.34
522.731	9.34
522.93	9.3
523.129	9.24
523.327	9.33
523.526	9.35
523.725	9.39
523.923	9.51
524.122	9.48
524.321	9.49
524.519	9.58
524.718	9.59
524.917	9.64
525.115	9.74
525.314	9.83
525.512	9.77
525.711	9.79
525.909	9.81
526.108	9.8
526.306	9.83
526.505	9.86
526.703	9.87
526.902	9.88
527.1	9.87
527.299	9.88
527.497	9.88
527.696	9.94
527.894	9.97
528.092	9.98
528.291	10.02
528.489	10.02
528.688	10.03
528.886	10.09
529.084	10.1
529.283	10.16
529.481	10.15
529.679	10.2
529.877	10.19
530.076	10.16
530.274	10.19
530.472	10.21
530.67	10.25
530.869	10.26
531.067	10.22
531.265	10.28
531.463	10.29
531.661	10.32
531.859	10.33
532.057	10.36
532.255	10.41
532.454	10.43
532.652	10.4
532.85	10.44
533.048	10.5
533.246	10.56
533.444	10.58
533.642	10.65
533.84	10.68
534.038	10.71
534.236	10.77
534.434	10.74
534.632	10.81
534.83	10.89
535.027	10.94
535.225	10.95
535.423	10.87
535.621	10.91
535.819	10.86
536.017	10.92
536.215	10.94
536.412	10.91
536.61	11
536.808	11.04
537.006	11.07
537.203	11.04
537.401	11.12
537.599	11.19
537.797	11.24
537.994	11.33
538.192	11.36
538.39	11.41
538.587	11.5
538.785	11.5
538.983	11.51
539.18	11.51
539.378	11.57
539.575	11.56
539.773	11.66
539.97	11.64
540.168	11.61
540.366	11.67
540.563	11.65
540.761	11.66
540.958	11.68
541.155	11.75
541.353	11.8
541.55	11.81
541.748	11.86
541.945	11.83
542.143	11.92
542.34	11.99
542.537	11.95
542.735	12.06
542.932	12.09
543.129	12.11
543.327	12.05
543.524	12.03
543.721	12.08
543.919	12.09
544.116	12.19
544.313	12.22
544.51	12.23
544.708	12.28
544.905	12.32
545.102	12.36
545.299	12.39
545.496	12.41
545.693	12.47
545.891	12.43
546.088	12.45
546.285	12.38
546.482	12.38
546.679	12.38
546.876	12.41
547.073	12.39
547.27	12.42
547.467	12.45
547.664	12.57
547.861	12.65
548.058	12.73
548.255	12.76
548.452	12.85
548.649	12.93
548.846	13.08
549.043	13.12
549.24	13.21
549.437	13.25
549.633	13.19
549.83	13.18
550.027	13.18
550.224	13.22
550.421	13.3
550.618	13.33
550.814	13.31
551.011	13.27
551.208	13.29
551.405	13.37
551.601	13.4
551.798	13.52
551.995	13.68
552.191	13.76
552.388	13.86
552.585	13.91
552.781	13.99
552.978	13.98
553.175	14.04
553.371	14.05
553.568	14.01
553.764	14.01
553.961	14.09
554.157	14.11
554.354	14.2
554.55	14.26
554.747	14.31
554.943	14.25
555.14	14.44
555.336	14.52
555.533	14.71
555.729	14.77
555.926	14.89
556.122	14.91
556.318	14.99
556.515	15.01
556.711	14.93
556.907	14.96
557.104	15.1
557.3	15.11
557.496	15.15
557.693	15.15
557.889	15.17
558.085	15.11
558.281	15.19
558.478	15.33
558.674	15.38
558.87	15.44
559.066	15.42
559.262	15.5
559.459	15.59
559.655	15.66
559.851	15.57
560.047	15.67
560.243	15.69
560.439	15.72
560.635	15.6
560.831	15.59
561.027	15.67
561.223	15.8
561.419	15.77
561.615	15.72
561.811	15.68
562.007	15.89
562.203	15.84
562.399	16.03
562.595	16.03
562.791	16.14
562.987	16.26
563.183	16.31
563.379	16.39
563.575	16.52
563.771	16.61
563.966	16.72
564.162	16.75
564.358	16.84
564.554	16.88
564.75	17.02
564.945	17.04
565.141	17.03
565.337	17.13
565.533	17.1
565.728	17.15
565.924	17.13
566.12	17.19
566.315	17.23
566.511	17.27
566.707	17.28
566.902	17.31
567.098	17.23
567.293	17.33
567.489	17.39
567.684	17.43
567.88	17.45
568.076	17.5
568.271	17.58
568.467	17.61
568.662	17.69
568.858	17.8
569.053	17.9
569.248	18.07
569.444	18.11
569.639	18.09
569.835	18.17
570.03	18.13
570.225	18.23
570.421	18.22
570.616	18.24
570.812	18.33
571.007	18.36
571.202	18.36
571.397	18.47
571.593	18.41
571.788	18.53
571.983	18.53
572.178	18.59
572.374	18.71
572.569	18.76
572.764	18.93
572.959	18.97
573.154	19.08
573.35	19.11
573.545	19.04
573.74	19.14
573.935	19.15
574.13	19.24
574.325	19.38
574.52	19.38
574.715	19.47
574.91	19.44
575.105	19.52
575.3	19.5
575.495	19.58
575.69	19.67
575.885	19.72
576.08	19.77
576.275	19.89
576.47	19.85
576.665	19.92
576.86	19.93
577.055	20
577.25	19.99
577.444	20.1
577.639	20.22
577.834	20.21
578.029	20.32
578.224	20.31
578.418	20.46
578.613	20.52
578.808	20.48
579.003	20.42
579.197	20.31
579.392	20.39
579.587	20.24
579.781	20.23
579.976	20.22
580.171	20.3
580.365	20.41
580.56	20.23
580.755	20.44
580.949	20.49
581.144	20.56
581.338	20.61
581.533	20.63
581.727	20.73
581.922	20.73
582.116	20.86
582.311	20.82
582.505	20.74
582.7	20.88
582.894	20.75
583.089	20.71
583.283	20.77
583.478	20.94
583.672	20.85
583.866	20.86
584.061	20.88
584.255	20.99
584.449	21.05
584.644	21.21
584.838	21.16
585.032	21.27
585.226	21.51
585.421	21.67
585.615	21.63
585.809	21.76
586.003	21.86
586.198	21.81
586.392	21.71
586.586	21.76
586.78	21.84
586.974	21.88
587.168	21.86
587.363	21.81
587.557	21.65
587.751	21.73
587.945	21.81
588.139	21.87
588.333	21.9
588.527	22.05
588.721	22.12
588.915	22.07
589.109	22.06
589.303	22.14
589.497	22.02
589.691	22.07
589.885	22.15
590.079	22.08
590.273	22
590.466	22.04
590.66	21.95
590.854	21.95
591.048	22
591.242	21.99
591.436	21.89
591.629	21.97
591.823	22.15
592.017	22.14
592.211	22.28
592.404	22.34
592.598	22.33
592.792	22.39
592.986	22.36
593.179	22.34
593.373	22.31
593.567	22.46
593.76	22.63
593.954	22.58
594.147	22.53
594.341	22.41
594.535	22.46
594.728	22.66
594.922	22.78
595.115	22.88
595.309	22.94
595.502	23.02
595.696	23.04
595.889	23.06
596.083	23.13
596.276	23.21
596.47	23.25
596.663	23.31
596.856	23.28
597.05	23.16
597.243	23.1
597.437	23.07
597.63	22.98
597.823	22.89
598.017	23.02
598.21	22.95
598.403	23.03
598.596	23.07
598.79	23.01
598.983	22.98
599.176	23.01
599.369	22.91
599.563	22.86
599.756	23.05
599.949	23.02
600.142	22.9
600.335	23
600.528	23.06
600.722	23.17
600.915	23.22
601.108	23.38
601.301	23.35
601.494	23.46
601.687	23.45
601.88	23.46
602.073	23.45
602.266	23.44
602.459	23.48
602.652	23.44
602.845	23.41
603.038	23.43
603.231	23.31
603.424	23.39
603.617	23.52
603.809	23.62
604.002	23.64
604.195	23.75
604.388	23.71
604.581	23.67
604.774	23.69
604.966	23.68
605.159	23.65
605.352	23.64
605.545	23.77
605.737	23.67
605.93	23.73
606.123	23.8
606.316	23.81
606.508	23.87
606.701	23.93
606.894	23.97
607.086	23.96
607.279	24
607.471	24.12
607.664	23.94
607.857	23.99
608.049	23.86
608.242	23.86
608.434	23.97
608.627	24.03
608.819	24.01
609.012	24.02
609.204	24.19
609.397	24.29
609.589	24.24
609.782	24.28
609.974	24.18
610.166	24.25
610.359	24.23
610.551	24.15
610.743	24.05
610.936	24.04
611.128	23.93
611.32	24.03
611.513	23.99
611.705	24.03
611.897	24.08
612.09	24.24
612.282	24.35
612.474	24.32
612.666	24.12
612.858	24.42
613.051	24.51
613.243	24.58
613.435	24.37
613.627	24.49
613.819	24.48
614.011	24.54
614.203	24.61
614.395	24.81
614.588	24.85
614.78	25.08
614.972	24.95
615.164	24.89
615.356	24.84
615.548	24.99
615.74	24.93
615.932	25.16
616.124	25.06
616.315	25.02
616.507	24.77
616.699	24.6
616.891	24.55
617.083	24.39
617.275	24.34
617.467	24.46
617.659	24.51
617.85	24.4
618.042	24.1
618.234	24.28
618.426	24.25
618.618	24.32
618.809	24.55
619.001	24.65
619.193	24.52
619.384	24.75
619.576	24.5
619.768	24.29
619.959	24.38
620.151	24.55
620.343	24.5
620.534	24.66
620.726	24.79
620.917	24.57
621.109	24.51
621.301	24.81
621.492	24.54
621.684	24.76
621.875	24.85
622.067	25.15
622.258	25.11
622.45	25.23
622.641	25.28
622.832	25.12
623.024	25.37
623.215	25.38
623.407	25.51
623.598	25.83
623.789	25.83
623.981	25.83
624.172	25.54
624.363	25.63
624.555	25.45
624.746	25.49
624.937	25.48
625.129	25.77
625.32	25.91
625.511	25.89
625.702	25.89
625.893	25.83
626.085	25.74
626.276	25.88
626.467	25.88
626.658	26.01
626.849	25.96
627.04	26.09
627.231	25.81
627.422	25.84
627.614	25.76
627.805	25.62
627.996	25.68
628.187	25.84
628.378	25.75
628.569	25.7
628.76	25.66
628.951	25.55
629.142	25.56
629.332	25.62
629.523	25.56
629.714	25.55
629.905	25.51
630.096	25.62
630.287	25.43
630.478	25.41
630.669	25.4
630.859	25.54
631.05	25.65
631.241	25.7
631.432	25.72
631.623	25.64
631.813	25.66
632.004	25.64
632.195	25.55
632.385	25.62
632.576	25.76
632.767	25.7
632.957	25.62
633.148	25.65
633.339	25.51
633.529	25.51
633.72	25.55
633.91	25.58
634.101	25.62
634.292	25.81
634.482	25.98
634.673	25.89
634.863	26.02
635.054	25.95
635.244	25.89
635.435	25.84
635.625	26.01
635.815	26.14
636.006	26.14
636.196	26.3
636.387	26.2
636.577	26.14
636.767	26.06
636.958	26
637.148	26.05
637.338	26.18
637.529	26.19
637.719	26.01
637.909	25.83
638.099	25.97
638.29	25.81
638.48	25.83
638.67	25.78
638.86	25.8
639.05	26.11
639.241	26.11
639.431	26.02
639.621	26.18
639.811	26.31
640.001	26.5
640.191	26.39
640.381	26.5
640.571	26.43
640.761	26.48
640.951	26.43
641.141	26.2
641.331	26.26
641.521	26.32
641.711	26.22
641.901	26.02
642.091	25.98
642.281	26.07
642.471	25.82
642.661	25.8
642.851	25.82
643.041	25.88
643.231	26.08
643.42	26.1
643.61	26.03
643.8	26.14
643.99	26.3
644.18	26.45
644.369	26.52
644.559	26.79
644.749	26.94
644.939	26.84
645.128	27.05
645.318	26.88
645.508	26.96
645.697	26.7
645.887	26.76
646.076	26.74
646.266	26.53
646.456	26.64
646.645	26.69
646.835	26.65
647.024	26.75
647.214	26.54
647.403	26.6
647.593	26.58
647.782	26.83
647.972	26.76
648.161	26.79
648.351	27.03
648.54	26.86
648.73	26.93
648.919	26.81
649.108	26.86
649.298	27
649.487	27.15
649.677	27.14
649.866	27.09
650.055	27.21
650.244	27.23
650.434	27.08
650.623	27.04
650.812	26.94
651.002	27
651.191	27.03
651.38	27.11
651.569	26.95
651.758	26.99
651.947	27.24
652.137	27.4
652.326	27.62
652.515	27.67
652.704	27.61
652.893	27.65
653.082	27.68
653.271	27.67
653.46	27.51
653.649	27.48
653.838	27.29
654.027	26.98
654.216	26.73
654.405	26.3
654.594	26.35
654.783	26.24
654.972	26.32
655.161	26.44
655.35	26.41
655.539	26.64
655.728	26.71
655.916	26.77
656.105	26.68
656.294	26.93
656.483	27.16
656.672	27.3
656.86	27.5
657.049	27.49
657.238	27.34
657.427	27.34
657.615	27.29
657.804	27.43
657.993	27.65
658.181	27.99
658.37	27.84
658.559	27.87
658.747	27.73
658.936	27.88
659.125	28.26
659.313	28.44
659.502	28.48
659.69	28.59
659.879	28.37
660.067	28.21
660.256	28
660.444	28.01
660.633	27.83
660.821	27.95
661.01	27.72
661.198	27.15
661.387	27.01
661.575	26.76
661.763	26.6
661.952	26.57
662.14	26.58
662.328	26.61
662.517	26.68
662.705	26.76
662.893	26.72
663.082	26.65
663.27	26.77
663.458	26.84
663.646	26.99
663.834	27.12
664.023	27.29
664.211	27.65
664.399	27.87
664.587	27.77
664.775	27.76
664.963	27.55
665.152	27.7
665.34	27.86
665.528	27.84
665.716	28.24
665.904	28.05
666.092	27.96
666.28	27.54
666.468	27.56
666.656	27.76
666.844	27.81
667.032	27.99
667.22	27.99
667.408	27.67
667.596	27.77
667.784	27.44
667.971	27.44
668.159	27.45
668.347	27.6
668.535	27.41
668.723	27.44
668.911	27.64
669.098	27.53
669.286	27.81
669.474	28.07
669.662	28
669.849	27.8
670.037	28.13
670.225	28.45
670.413	28.52
670.6	28.69
670.788	28.49
670.976	28.16
671.163	28.32
671.351	28.01
671.538	27.82
671.726	27.62
671.913	28.02
672.101	27.77
672.289	27.34
672.476	27.13
672.664	27.09
672.851	27.28
673.039	27.35
673.226	27.41
673.413	27.41
673.601	27.37
673.788	27.52
673.976	27.46
674.163	27.65
674.35	27.79
674.538	28.02
674.725	28.06
674.912	27.92
675.1	28.11
675.287	27.97
675.474	28.08
675.662	28.09
675.849	28.24
676.036	28.19
676.223	28.1
676.411	28.14
676.598	28.02
676.785	28.12
676.972	28.49
677.159	28.7
677.346	28.84
677.533	28.82
677.721	28.93
677.908	28.81
678.095	28.86
678.282	28.96
678.469	29.16
678.656	29.19
678.843	29.1
679.03	28.85
679.217	28.69
679.404	28.76
679.591	29.03
679.778	29.13
679.964	29.06
680.151	29.18
680.338	29.09
680.525	28.71
680.712	28.64
680.899	28.62
681.086	28.72
681.272	28.6
681.459	28.55
681.646	28.14
681.833	28.14
682.02	28.34
682.206	27.96
682.393	27.94
682.58	28.32
682.766	28.65
682.953	28.7
683.14	28.48
683.326	28.41
683.513	28.51
683.7	28.67
683.886	28.36
684.073	28.41
684.259	28.61
684.446	28.54
684.632	28.34
684.819	28.07
685.005	27.94
685.192	28.21
685.378	28.09
685.565	27.99
685.751	27.76
685.938	28.02
686.124	27.87
686.31	28.04
686.497	28.15
686.683	28.3
686.87	28.3
687.056	28.31
687.242	28.11
687.429	28.33
687.615	28.31
687.801	28.49
687.987	28.42
688.174	28.67
688.36	28.61
688.546	28.41
688.732	28.49
688.918	28.66
689.105	28.73
689.291	28.91
689.477	28.87
689.663	28.94
689.849	29.09
690.035	29.33
690.221	29.19
690.407	29.5
690.593	29.78
690.779	30.05
690.965	29.74
691.151	29.61
691.337	29.3
691.523	29.47
691.709	29.64
691.895	29.7
692.081	29.55
692.267	29.75
692.453	29.42
692.639	29.52
692.825	28.85
693.011	28.97
693.196	28.98
693.382	28.9
693.568	28.97
693.754	28.52
693.94	28.7
694.125	28.46
694.311	28.14
694.497	27.97
694.682	27.45
694.868	27.77
695.054	27.73
695.239	27.74
695.425	27.98
695.611	27.87
695.796	28.2
695.982	27.72
696.168	27.69
696.353	27.63
696.539	27.83
696.724	27.97
696.91	27.87
697.095	28.07
697.281	28.26
697.466	28.25
697.652	28.23
697.837	28.04
698.023	28.26
698.208	28.42
698.393	28.67
698.579	28.85
698.764	29.08
698.949	29.21
699.135	29.26
699.32	29.49
699.505	29.53
699.691	29.71
699.876	30.08
700.061	29.96
700.246	30.06
700.432	30.11
700.617	29.77
700.802	29.73
700.987	29.84
701.172	29.83
701.358	29.6
701.543	29.51
701.728	29.13
701.913	28.95
702.098	28.96
702.283	28.73
702.468	28.81
702.653	29.06
702.838	28.9
703.023	29
703.208	29.09
703.393	29.16
703.578	29.45
703.763	29.62
703.948	29.74
704.133	29.81
704.318	29.96
704.503	29.88
704.688	29.55
704.873	29.59
705.057	29.45
705.242	29.15
705.427	29.04
705.612	28.93
705.797	29.07
705.981	28.94
706.166	28.78
706.351	28.93
706.536	28.91
706.72	29.04
706.905	29.23
707.09	29.18
707.274	29.27
707.459	29.15
707.644	29.06
707.828	29.11
708.013	28.7
708.197	29.05
708.382	29.18
708.567	29.16
708.751	29.14
708.936	29.51
709.12	29.68
709.305	29.62
709.489	29.59
709.673	29.61
709.858	29.46
710.042	29.92
710.227	29.82
710.411	29.58
710.596	29.64
710.78	29.62
710.964	29.17
711.149	29.12
711.333	28.81
711.517	28.91
711.702	28.97
711.886	29.1
712.07	29.2
712.254	29.47
712.438	29.61
712.623	29.2
712.807	29.31
712.991	29.47
713.175	29.35
713.359	29.57
713.544	29.68
713.728	30.07
713.912	30.3
714.096	29.61
714.28	29.44
714.464	29.42
714.648	29.79
714.832	29.61
715.016	29.71
715.2	29.8
715.384	30.05
715.568	29.95
715.752	29.75
715.936	29.63
716.12	30.04
716.304	30.11
716.488	30.02
716.671	29.98
716.855	29.78
717.039	29.71
717.223	29.82
717.407	29.7
717.59	29.97
717.774	29.65
717.958	29.5
718.142	29.42
718.325	29.07
718.509	29.3
718.693	29.31
718.877	29.87
719.06	30.05
719.244	29.77
719.428	30.07
719.611	29.53
719.795	29.8
719.978	29.93
720.162	30.11
720.345	30.25
720.529	30.15
720.713	30.26
720.896	30.56
721.08	29.82
721.263	30.21
721.446	30.06
721.63	30.1
721.813	29.89
721.997	29.88
722.18	29.56
722.364	29.38
722.547	29.37
722.73	29.34
722.914	29.34
723.097	29.42
723.28	28.98
723.464	28.63
723.647	29.07
723.83	28.92
724.013	28.99
724.197	28.88
724.38	28.4
724.563	28.06
724.746	27.72
724.929	27.45
725.112	27.56
725.296	27.4
725.479	27.67
725.662	27.76
725.845	28.24
726.028	28.31
726.211	28.69
726.394	29.09
726.577	29.14
726.76	29.1
726.943	29.51
727.126	29.64
727.309	30.15
727.492	30.26
727.675	30.19
727.858	30.08
728.041	30.27
728.224	30.15
728.407	30.23
728.589	30.6
728.772	31.04
728.955	30.66
729.138	30.8
729.321	30.57
729.503	30.3
729.686	29.96
729.869	29.87
730.052	29.73
730.234	29.73
730.417	30
730.6	30.08
730.782	29.42
730.965	29.7
731.148	29.79
731.33	29.98
731.513	30.35
731.695	30.37
731.878	30.35
732.061	29.99
732.243	30.21
732.426	30.05
732.608	30.02
732.791	30.22
732.973	29.68
733.156	29.07
733.338	29.02
733.52	28.89
733.703	28.54
733.885	28.32
734.068	28.1
734.25	27.82
734.432	27.6
734.615	27.51
734.797	28.24
734.979	28.24
735.162	28.45
735.344	28.11
735.526	28.3
735.708	29.1
735.891	29.24
736.073	29.98
736.255	29.83
736.437	29.85
736.619	29.45
736.802	29.01
736.984	29.11
737.166	29.6
737.348	29.22
737.53	29.26
737.712	28.96
737.894	28.95
738.076	28.93
738.258	29.02
738.44	29.41
738.622	29.84
738.804	29.82
738.986	29.47
739.168	29.4
739.35	29.68
739.532	29.35
739.714	29.47
739.896	29.72
740.078	29.14
740.259	29.58
740.441	28.87
740.623	28.77
740.805	28.73
740.987	29.26
741.168	29.12
741.35	29.54
741.532	29.67
741.714	29.12
741.895	28.94
742.077	29.38
742.259	29.13
742.44	29.65
742.622	29.46
742.804	29.07
742.985	29.37
743.167	29.07
743.348	28.8
743.53	28.43
743.711	28.83
743.893	28.69
744.075	28.63
744.256	28.94
744.438	29
744.619	29.02
744.8	29.27
744.982	28.91
745.163	29.5
745.345	28.8
745.526	28.52
745.707	28.8
745.889	29.32
746.07	29.79
746.252	29.75
746.433	29.3
746.614	29.27
746.795	29.31
746.977	29.45
747.158	28.98
747.339	29.51
747.52	30.23
747.702	30.08
747.883	29.49
748.064	29.39
748.245	29.22
748.426	29.58
748.607	29.99
748.788	29.74
748.97	30
749.151	29.93
749.332	30.89
749.513	31.06
749.694	30.66
749.875	30.63
750.056	30.1
750.237	30.5
750.418	30.01
750.599	29.09
750.78	29.57
750.96	29.4
751.141	29.76
751.322	28.85
751.503	28.48
751.684	29.03
751.865	28.95
752.046	28.97
752.226	28.41
752.407	29.19
752.588	29.88
752.769	29.3
752.949	29.66
753.13	29.31
753.311	29.49
753.492	29.73
753.672	29.24
753.853	29.8
754.034	29.73
754.214	29.71
754.395	29.77
754.575	30.08
754.756	30.21
754.937	29.8
755.117	29.84
755.298	29.9
755.478	29.7
755.659	29.69
755.839	29.7
756.02	29.52
756.2	29.14
756.381	28.49
756.561	28.42
756.741	29.09
756.922	29.33
757.102	29.17
757.283	29.17
757.463	29.28
757.643	29.48
757.823	29.52
758.004	28.79
758.184	29.29
758.364	29.91
758.545	29.97
758.725	29.23
758.905	28.62
759.085	28.71
759.265	28.89
759.446	28.59
759.626	29.14
759.806	29.03
759.986	30.29
760.166	30.19
760.346	29.67
760.526	29.35
760.706	29.63
760.886	29.41
761.066	29.48
761.246	29.36
761.426	29.61
761.606	29.2
761.786	29.23
761.966	29.42
762.146	29.58
762.326	29.4
762.506	29.24
762.686	29.41
762.866	30.05
763.046	29.8
763.225	29.47
763.405	29
763.585	29.14
763.765	28.86
763.945	28.22
764.124	28.65
764.304	29.13
764.484	29.6
764.664	29.85
764.843	29.78
765.023	30.56
765.203	30.71
765.382	31.27
765.562	30.64
765.741	30.5
765.921	30.94
766.101	30.68
766.28	30.68
766.46	30.06
766.639	29.05
766.819	28.54
766.998	28.3
767.178	28.76
767.357	28.59
767.537	29.43
767.716	30.25
767.896	30.37
768.075	29.72
768.254	29.16
768.434	29.04
768.613	29.99
768.792	30.12
768.972	29.76
769.151	29.39
769.33	29.13
769.51	28.67
769.689	28.32
769.868	28.59
770.047	29.06
770.226	29.62
770.406	29.63
770.585	29.21
770.764	29.2
770.943	29.27
771.122	29.42
771.301	29.55
771.48	29.73
771.66	29.59
771.839	28.5
772.018	28.01
772.197	28.02
772.376	29.63
772.555	30
772.734	29.66
772.913	29.6
773.092	29.84
773.271	30
773.449	29.29
773.628	29.62
773.807	30.97
773.986	30.56
774.165	30.1
774.344	28.98
774.523	29.06
774.701	30.09
774.88	30.43
775.059	30.13
775.238	30.51
775.417	31.29
775.595	31.24
775.774	29.92
775.953	30.15
776.131	30.53
776.31	30.5
776.489	29.69
776.667	28.8
776.846	29.03
777.025	28.77
777.203	27.9
777.382	27.25
777.56	27.61
777.739	27.57
777.917	28.58
778.096	28.44
778.274	28.31
778.453	28.56
778.631	28.52
778.81	27.44
778.988	27.72
779.166	27.74
779.345	28.11
779.523	27.87
779.702	28.68
779.88	27.37
780.058	27.32
780.237	27.24
780.415	27.07
780.593	27.43
780.771	28.68
780.95	28.68
781.128	29.19
781.306	29.91
781.484	29.18
781.662	29.13
781.841	29.98
782.019	30.04
782.197	29.83
782.375	30.75
782.553	30.71
782.731	29.94
782.909	30.74
783.087	30.66
783.265	30.9
783.443	31.99
783.621	32.13
783.799	32.56
783.977	32.46
784.155	33.4
784.333	33.41
784.511	33.69
784.689	33.47
784.867	32.65
785.045	32.59
785.223	32.01
785.4	30.87
785.578	31.24
785.756	30.12
785.934	30.69
786.112	30.76
786.289	30.48
786.467	29.36
786.645	29.29
786.823	29.76
787	30.38
787.178	30.05
787.356	30.35
787.533	28.96
787.711	28.87
787.889	28.1
788.066	27.77
788.244	27.76
788.421	28.09
788.599	28.18
788.776	28.2
788.954	28.17
789.131	28.86
789.309	29.06
789.486	29.67
789.664	28.74
789.841	28.81
790.019	28.92
790.196	28.48
790.373	28.23
790.551	29.06
790.728	27.92
790.906	27.78
791.083	27.04
791.26	27.37
791.437	27.04
791.615	28.93
791.792	29.39
791.969	28.31
792.146	27.42
792.324	28.32
792.501	28.01
792.678	28.38
792.855	27.85
793.032	27.34
793.209	26.91
793.387	27.14
793.564	27.18
793.741	27.61
793.918	28.12
794.095	28.83
794.272	29.47
794.449	28.27
794.626	29.01
794.803	29.67
794.98	30.44
795.157	30.32
795.334	29.94
795.511	29.11
795.688	27.87
795.864	27.63
796.041	28.17
796.218	26.97
796.395	27.74
796.572	26.96
796.749	27.2
796.925	27
797.102	26.76
797.279	27.83
797.456	27.74
797.632	29.16
797.809	30.05
797.986	30.19
798.162	30.85
798.339	31.29
798.516	30.87
798.692	30.2
798.869	30.07
799.046	30.4
799.222	30.17
799.399	30.76
799.575	30.37
799.752	30.37
799.928	30.89
800.105	30.94
800.281	30.7
800.458	31.3
800.634	31.15
800.811	30.92
800.987	31.74
801.163	32.01
801.34	31.98
801.516	31.32
801.692	31.26
801.869	30.53
802.045	30.48
802.221	29.7
802.398	30.22
802.574	29.36
802.75	29.71
802.926	28.81
803.103	27.71
803.279	28.21
803.455	28.19
803.631	27.93
803.807	27.44
803.983	27.6
804.16	29.17
804.336	29.31
804.512	31.42
804.688	30.99
804.864	30.76
805.04	31.06
805.216	30.7
805.392	31.07
805.568	31.3
805.744	31.97
805.92	31.28
806.096	30.64
806.272	30.31
806.448	29.38
806.623	29.93
806.799	30.88
806.975	31.31
807.151	31.62
807.327	32.19
807.503	31.35
807.678	31.96
807.854	33.02
808.03	32.43
808.206	32.24
808.381	31.82
808.557	32.02
808.733	31.96
808.908	30.63
809.084	30.09
809.26	29.3
809.435	28.4
809.611	27.11
809.787	26.63
809.962	26.85
810.138	28
810.313	27.73
810.489	27.63
810.664	26.79
810.84	28.22
811.015	28.53
811.191	27.94
811.366	29.48
811.542	29.84
811.717	29.72
811.892	30.59
812.068	28.99
812.243	29.45
812.419	29.75
812.594	29.81
812.769	29.58
812.944	29.45
813.12	29.42
813.295	29.5
813.47	30.2
813.645	31.02
813.821	30.97
813.996	31.72
814.171	31.89
814.346	31.1
814.521	31.4
814.697	30.47
814.872	29.4
815.047	30.16
815.222	31.48
815.397	30.85
815.572	29.34
815.747	28.51
815.922	28.37
816.097	27.98
816.272	27.62
816.447	28.05
816.622	29.19
816.797	31.52
816.972	31.6
817.147	30.28
817.322	30.12
817.496	31.35
817.671	32.58
817.846	32.78
818.021	32.26
818.196	32.4
818.371	31.04
818.545	31.5
818.72	30.77
818.895	30.65
819.069	29.62
819.244	28.61
819.419	28.38
819.594	27.83
819.768	27.69
819.943	27.8
820.117	28.54
820.292	28.96
820.467	28.88
820.641	28.87
820.816	28.49
820.99	29.26
821.165	29.09
821.339	28.92
821.514	28.75
821.688	29.03
821.863	28.85
822.037	28.8
822.212	28.71
822.386	28.39
822.56	28.31
822.735	28.47
822.909	28.48
823.084	28.74
823.258	28.61
823.432	28.7
823.606	28.23
823.781	28.59
823.955	28.46
824.129	28.39
824.303	28.73
824.478	28.89
824.652	29.17
824.826	28.43
825	28.34
825.174	28.62
825.348	28.77
825.523	28.87
825.697	28.54
825.871	28.75
826.045	28.99
826.219	28.9
826.393	28.68
826.567	28.31
826.741	28.78
826.915	28.78
827.089	29.24
827.263	29.2
827.437	29.41
827.611	30.16
827.784	30.08
827.958	30.51
828.132	30.29
828.306	30.83
828.48	31.22
828.654	31.38
828.827	32.23
829.001	31.72
829.175	31.74
829.349	31.13
829.522	30.57
829.696	30.29
829.87	29.81
830.044	30.99
830.217	30.17
830.391	30.35
830.565	29.82
830.738	29.52
830.912	29.56
831.085	28.37
831.259	28.58
831.432	28.08
831.606	28.92
831.779	28.3
831.953	27.42
832.126	27.81
832.3	27.62
832.473	29.32
832.647	29.15
832.82	29.06
832.994	30.21
833.167	30.58
833.34	30.73
833.514	30.46
833.687	31.03
833.86	31.41
834.034	31.45
834.207	31.13
834.38	30.54
834.553	30.27
834.727	30.76
834.9	30.32
835.073	30.67
835.246	31.91
835.419	31.56
835.593	31.23
835.766	31.32
835.939	30.68
836.112	30.03
836.285	29.56
836.458	29.58
836.631	29.03
836.804	29.25
836.977	29.8
837.15	27.38
837.323	27.64
837.496	28.04
837.669	26.29
837.842	27.17
838.015	29.47
838.188	29.17
838.361	30.76
838.533	29.68
838.706	30.12
838.879	29.62
839.052	30.78
839.225	30.58
839.398	29.44
839.57	30.79
839.743	29.91
839.916	30.41
840.088	32.43
840.261	30.64
840.434	32.1
840.607	32.38
840.779	32.03
840.952	31.23
841.124	32.11
841.297	33.17
841.47	33.37
841.642	34.14
841.815	31.44
841.987	29.08
842.16	30.06
842.332	28.03
842.505	28.16
842.677	26.51
842.85	26.79
843.022	25.12
843.194	24.36
843.367	24.63
843.539	25.23
843.712	25.47
843.884	27.26
844.056	27.95
844.229	29.99
844.401	27.85
844.573	29.49
844.745	29.91
844.918	29.59
845.09	29.9
845.262	28.41
845.434	26.62
845.606	27.16
845.779	26.23
845.951	26.44
846.123	26.4
846.295	28.08
846.467	27.13
846.639	25.03
846.811	26.46
846.983	26.28
847.155	24.7
847.327	25.69
847.499	28.14
847.671	26.17
847.843	23.01
848.015	21.09
848.187	20.61
848.359	22.45
848.531	25.64
848.703	27.75
848.875	25.82
849.047	27.14
849.218	25.64
849.39	23.6
849.562	25.55
849.734	25.95
849.905	28.18
850.077	28.83
850.249	29.2
850.421	25.86
850.592	21.89
850.764	24.95
850.936	23.69
851.107	24.96
851.279	23.88
851.451	21.55
851.622	23.49
851.794	23.16
851.965	22.13
852.137	19.06
852.308	18.9
852.48	22.71
852.651	23.43
852.823	26.67
852.994	27.09
853.166	24.79
853.337	24.27
853.509	20.61
853.68	16.62
853.851	16.59
854.023	17.94
854.194	19
854.365	20.32
854.537	17.09
854.708	14.29
854.879	14.54
855.05	19.35
855.222	21.81
855.393	29.63
855.564	33.84
855.735	33.53
855.906	33.99
856.078	31.5
856.249	30.01
856.42	32.7
856.591	37.81
856.762	37.18
856.933	36.24
857.104	36.05
857.275	29.74
857.446	28.43
857.617	30.8
857.788	30.52
857.959	34.46
858.13	32.51
858.301	32.33
858.472	29.45
858.643	27.57
858.814	24.65
858.985	22.01
859.155	23.59
859.326	21.07
859.497	20.3
859.668	23.01
859.839	21.04
860.009	21.87
860.18	19.1
860.351	21.27
860.522	25.76
860.692	26.67
860.863	28.88
861.034	25.23
861.204	29.7
861.375	29.37
861.546	27.13
861.716	25.54
861.887	21.96
862.057	23.37
862.228	23.37
862.398	20.03
862.569	24.59
862.739	22.79
862.91	25.2
863.08	23.88
863.251	17.15
863.421	15.29
863.592	20.77
863.762	24.88
863.932	24.58
864.103	20.62
864.273	20.93
864.443	16.18
864.614	17.22
864.784	15.87
864.954	11.68
865.125	16.05
865.295	18.63
865.465	17.24
865.635	14.5
865.805	14.7
865.976	16
866.146	14.97
866.316	18.58
866.486	19.67
866.656	21.99
866.826	26.6
866.996	28.33
867.166	27.01
867.336	21.78
867.506	21.3
867.676	19.31
867.846	21.35
868.016	21.75
868.186	19.29
868.356	21.36
868.526	22.44
868.696	22.59
868.866	23.87
869.036	24.42
869.206	32.79
869.376	34.66
869.545	36.75
869.715	34.26
869.885	35.26
870.055	40.52
870.224	38.91
870.394	39.85
870.564	38.55
870.734	38.83
870.903	37.8
871.073	33.58
871.243	33.38
871.412	33.32
871.582	35.12
871.751	39.48
871.921	40.55
872.091	40.86
872.26	37.98
872.43	39.99
872.599	35.7
872.769	39.59
872.938	41.32
873.108	42.45
873.277	42.12
873.446	40.19
873.616	35.81
873.785	31.65
873.955	36.83
874.124	38.91
874.293	38.39
874.463	41
874.632	40.09
874.801	42.91
874.971	45.27
875.14	43.47
875.309	43.12
875.478	43.42
875.647	44.49
875.817	37.7
875.986	35.55
876.155	36.35
876.324	35.18
876.493	38.6
876.662	31.06
876.831	31.35
877	33.28
877.17	36.66
877.339	35.9
877.508	34.29
877.677	31.95
877.846	32.35
878.015	31.76
878.184	29.78
878.352	29.09
878.521	33.53
878.69	31.14
878.859	29.26
879.028	28.43
879.197	31.37
879.366	30.66
879.534	29.17
879.703	31.31
879.872	32.47
880.041	33.93
880.21	32.42
880.378	33.83
880.547	33.36
880.716	33.19
880.884	32.85
881.053	31.8
881.222	32.09
881.39	32.66
881.559	30.84
881.727	30.64
881.896	30.46
882.065	30
882.233	28.71
882.402	28.9
882.57	29.56
882.739	30.32
882.907	29.7
883.076	29.01
883.244	29.46
883.412	30.63
883.581	30.52
883.749	30.65
883.918	30.01
884.086	30.66
884.254	30.88
884.423	30.03
884.591	29.42
884.759	28.9
884.927	29.77
885.096	28.29
885.264	27.21
885.432	26.58
885.6	26.21
885.769	27.13
885.937	26.38
886.105	26.03
886.273	26.64
886.441	23.49
886.609	24.64
886.777	24.25
886.945	26.39
887.113	27.61
887.281	27.67
887.449	28.12
887.617	30.4
887.785	29.72
887.953	31.02
888.121	30.62
888.289	32.34
888.457	33.55
888.625	34.56
888.793	33.27
888.961	29.52
889.129	29.59
889.296	28.36
889.464	25.94
889.632	26.32
889.8	21.33
889.967	20.61
890.135	20.63
