Data from 2938534_Reflection_2.txt Node
Date: Mon Jun 15 23:59:06 EDT 2015
User: robert
Spectrometer: USB4E03002
Autoset integration time: false
Trigger mode: 4
Integration Time (sec): 1.000000E-1
Scans to average: 10
Electric dark correction enabled: true
Nonlinearity correction enabled: false
Boxcar width: 6
Stray light correction enabled: false
XAxis mode: Wavelengths
Stop averaging: false
Number of Pixels in Spectrum: 3648
>>>>>Begin Spectral Data<<<<<
177.575	-121.86
177.794	-37.07
178.014	14.2
178.233	29.34
178.452	16.52
178.672	-1.04
178.891	-85.71
179.11	-3.7
179.33	2.53
179.549	-26.27
179.768	-8.62
179.987	-24.25
180.207	-30.09
180.426	-36.73
180.645	-9.04
180.864	4.18
181.084	3.89
181.303	-29.17
181.522	-19.11
181.741	-6.21
181.96	37.12
182.179	33.48
182.398	128.91
182.618	171.88
182.837	464.2
183.056	-1971.43
183.275	-22.12
183.494	58.75
183.713	83.53
183.932	45.37
184.151	211.48
184.37	139.09
184.589	237.21
184.808	214.52
185.027	194.29
185.246	158.59
185.465	178.96
185.684	215.14
185.903	181.58
186.122	231.77
186.341	198.56
186.56	183.36
186.779	217.42
186.998	288.16
187.216	309.58
187.435	300
187.654	301.59
187.873	283.33
188.092	413.11
188.311	316.75
188.53	310.74
188.748	488.24
188.967	404.53
189.186	877.27
189.405	514.04
189.623	477.5
189.842	248.26
190.061	261.6
190.28	204.47
190.498	233.15
190.717	276.77
190.936	280.15
191.154	250
191.373	282.62
191.592	323.24
191.81	422.12
192.029	232.54
192.248	355.05
192.466	-2835
192.685	-1410.26
192.904	374.17
193.122	647.27
193.341	257.72
193.559	368.6
193.778	197.44
193.996	564.52
194.215	163.95
194.433	156.99
194.652	158.16
194.87	157.06
195.089	154.31
195.307	105.79
195.526	112.94
195.744	302.03
195.963	181.68
196.181	178.71
196.399	147.62
196.618	200
196.836	175.11
197.055	272.12
197.273	553.95
197.491	312.3
197.71	366.67
197.928	305.65
198.146	350.67
198.365	-320.65
198.583	-300
198.801	-101.28
199.019	-43
199.238	-38.46
199.456	-83.04
199.674	-204.65
199.892	-88.95
200.111	-706.45
200.329	818.75
200.547	319.38
200.765	323.81
200.983	301.09
201.202	236.29
201.42	176.53
201.638	231.75
201.856	156.2
202.074	138.04
202.292	178.5
202.51	222.22
202.728	276.39
202.946	477.27
203.165	215.16
203.383	430.65
203.601	307.69
203.819	1961.11
204.037	268.32
204.255	296.94
204.473	145.59
204.691	-585
204.909	-231.03
205.127	35.22
205.345	-58.43
205.562	-88.89
205.78	-12.28
205.998	4.98
206.216	-11
206.434	18.52
206.652	-40.3
206.87	20.39
207.088	32.03
207.306	58.21
207.523	46.06
207.741	-122.86
207.959	230.07
208.177	251.52
208.395	181.4
208.612	90.05
208.83	87.37
209.048	68.62
209.266	64.93
209.483	56.41
209.701	102.2
209.919	95.63
210.136	140.52
210.354	115.95
210.572	106.2
210.79	117.04
211.007	90.97
211.225	113.1
211.442	151.21
211.66	148.64
211.878	118.38
212.095	111.88
212.313	89.88
212.53	81.24
212.748	84.34
212.966	82.08
213.183	81.6
213.401	82.66
213.618	59.96
213.836	78.06
214.053	68.05
214.271	53.43
214.488	71.59
214.705	79.27
214.923	88.58
215.14	117.21
215.358	113.94
215.575	89.55
215.793	92.91
216.01	83.8
216.227	83.03
216.445	76.25
216.662	71.07
216.879	70.9
217.097	54.85
217.314	38.17
217.531	36.75
217.749	26.94
217.966	29.4
218.183	27.85
218.4	42.24
218.618	20.43
218.835	21.68
219.052	38.03
219.269	50.58
219.487	51.69
219.704	46.62
219.921	47.72
220.138	43.88
220.355	40.39
220.572	37.25
220.79	32.59
221.007	32.89
221.224	21.56
221.441	18.82
221.658	26.33
221.875	18.4
222.092	7.55
222.309	10.36
222.526	22.06
222.743	23.71
222.96	23.57
223.177	21.53
223.394	22.21
223.611	14.19
223.828	3.81
224.045	9.8
224.262	12.9
224.479	6.77
224.696	6.68
224.913	9.55
225.13	7.02
225.347	3.29
225.564	7.39
225.781	9.1
225.997	10.78
226.214	9.8
226.431	11.53
226.648	12.25
226.865	10.29
227.082	10.11
227.298	10.95
227.515	11.16
227.732	11.04
227.949	11.51
228.165	12.18
228.382	10.72
228.599	11.77
228.816	10.88
229.032	11.03
229.249	10.49
229.466	10.95
229.682	12.22
229.899	12.04
230.116	11.2
230.332	10.51
230.549	11.1
230.765	10.3
230.982	9.75
231.199	9.76
231.415	8.3
231.632	7.83
231.848	8.38
232.065	9.34
232.281	9.14
232.498	9.32
232.714	12.65
232.931	14.7
233.147	13.42
233.364	12.1
233.58	15
233.797	13.94
234.013	13.91
234.23	11.9
234.446	13.15
234.662	11.29
234.879	11.19
235.095	10.36
235.312	9.84
235.528	9.56
235.744	8.42
235.961	8.78
236.177	9.33
236.393	10.22
236.61	10.68
236.826	13.02
237.042	13.01
237.258	13.95
237.475	16.53
237.691	14.76
237.907	15.33
238.123	14.68
238.339	11.24
238.556	11.28
238.772	13.1
238.988	12.73
239.204	10.88
239.42	10.5
239.636	10.1
239.853	11.82
240.069	11.47
240.285	11.55
240.501	11.94
240.717	11.39
240.933	11.8
241.149	12.97
241.365	13.09
241.581	12.76
241.797	12.96
242.013	13.08
242.229	13.45
242.445	13.22
242.661	12.47
242.877	11.98
243.093	11.7
243.309	12.01
243.525	12.23
243.741	12.04
243.957	10.75
244.173	9.21
244.388	9.03
244.604	9.07
244.82	8.56
245.036	8.15
245.252	8.13
245.468	8.5
245.683	8.5
245.899	8.66
246.115	8.42
246.331	8.66
246.547	8.48
246.762	8.75
246.978	9.55
247.194	9.33
247.409	9.12
247.625	9.09
247.841	9.29
248.057	9.42
248.272	8.96
248.488	8.69
248.703	7.33
248.919	6.95
249.135	6.57
249.35	6.22
249.566	6.26
249.782	5.33
249.997	5.7
250.213	5.81
250.428	5.94
250.644	6.54
250.859	6.73
251.075	7
251.29	7.22
251.506	7.84
251.721	8.32
251.937	7.97
252.152	7.95
252.368	8.63
252.583	9.19
252.798	8.9
253.014	9.81
253.229	10.35
253.445	10.01
253.66	9.54
253.875	8.82
254.091	9.5
254.306	10.14
254.521	9.55
254.737	9.62
254.952	10.57
255.167	9.48
255.383	8.9
255.598	8.41
255.813	8.39
256.028	7.97
256.244	7.79
256.459	8.08
256.674	8.97
256.889	8.37
257.104	8.05
257.32	7.86
257.535	7.44
257.75	7.16
257.965	7.13
258.18	7.48
258.395	7.54
258.61	7.25
258.826	7.54
259.041	7.55
259.256	7.2
259.471	7.1
259.686	7.18
259.901	7.34
260.116	7.72
260.331	8.03
260.546	7.77
260.761	7.92
260.976	7.84
261.191	8.19
261.406	7.95
261.621	8.02
261.836	7.69
262.05	7.78
262.265	7.43
262.48	7.19
262.695	6.77
262.91	5.92
263.125	6.4
263.34	7.06
263.555	6.87
263.769	6.4
263.984	6.42
264.199	6.87
264.414	6.55
264.629	6.61
264.843	7
265.058	6.71
265.273	6.92
265.488	6.45
265.702	6.95
265.917	6.59
266.132	6.57
266.346	6.22
266.561	6.1
266.776	6.37
266.99	6.14
267.205	5.79
267.42	5.97
267.634	6.19
267.849	6.32
268.063	6.49
268.278	6.71
268.492	7.11
268.707	7.61
268.922	7.03
269.136	6.97
269.351	7.19
269.565	6.37
269.78	6.54
269.994	6.97
270.209	6.62
270.423	6.3
270.637	6.04
270.852	5.75
271.066	6.03
271.281	5.94
271.495	5.84
271.709	5.93
271.924	6.34
272.138	6.37
272.353	6.8
272.567	6.45
272.781	5.88
272.996	6.46
273.21	6.42
273.424	7.1
273.638	7.52
273.853	7.54
274.067	6.73
274.281	6.78
274.495	7.26
274.71	7.23
274.924	7.08
275.138	7.41
275.352	7.61
275.566	8.1
275.781	8.26
275.995	8.62
276.209	8.11
276.423	6.92
276.637	7.01
276.851	7.56
277.065	7.49
277.279	7.39
277.493	7.29
277.707	7.19
277.921	6.7
278.135	7.08
278.349	6.88
278.563	6.28
278.777	5.95
278.991	5.6
279.205	6.43
279.419	5.86
279.633	5.89
279.847	5.81
280.061	5.59
280.275	5.98
280.489	5.62
280.703	5.59
280.917	5.44
281.131	5.48
281.344	5.69
281.558	5.48
281.772	5.63
281.986	5.46
282.2	5.65
282.414	5.88
282.627	5.74
282.841	5.59
283.055	5.24
283.269	5.82
283.482	5.63
283.696	5.67
283.91	5.44
284.123	5.3
284.337	5.87
284.551	6.15
284.764	6.25
284.978	6.54
285.192	6.38
285.405	6.38
285.619	6.28
285.833	6.34
286.046	6.22
286.26	6.53
286.473	6.18
286.687	6.28
286.9	6.1
287.114	5.54
287.327	5.11
287.541	5.07
287.754	4.93
287.968	4.7
288.181	4.76
288.395	4.88
288.608	4.35
288.822	4.2
289.035	4.56
289.248	4.88
289.462	4.91
289.675	4.95
289.889	5.37
290.102	5.64
290.315	5.73
290.529	5.71
290.742	5.77
290.955	6.07
291.169	6.59
291.382	7
291.595	6.99
291.808	6.29
292.022	6.23
292.235	6.68
292.448	7.01
292.661	6.7
292.875	7.06
293.088	6.99
293.301	6.92
293.514	6.89
293.727	6.43
293.94	6.3
294.153	6.57
294.367	6.42
294.58	6.69
294.793	6.64
295.006	6.53
295.219	6.81
295.432	7.05
295.645	6.82
295.858	6.92
296.071	6.9
296.284	6.84
296.497	6.97
296.71	6.81
296.923	6.6
297.136	7.01
297.349	7.02
297.562	7.1
297.775	7.2
297.988	6.78
298.201	6.56
298.414	6.63
298.626	6.64
298.839	6.82
299.052	6.86
299.265	6.76
299.478	6.98
299.691	6.97
299.903	6.62
300.116	6.88
300.329	6.54
300.542	6.11
300.755	6.25
300.967	6.29
301.18	6.19
301.393	6.13
301.605	6.18
301.818	6.69
302.031	6.89
302.243	6.43
302.456	6.24
302.669	6.63
302.881	6.82
303.094	7.11
303.307	7.46
303.519	7.7
303.732	7.49
303.944	7.42
304.157	7.44
304.37	6.98
304.582	6.86
304.795	6.55
305.007	6.99
305.22	7.5
305.432	7.49
305.645	6.91
305.857	7.04
306.069	6.7
306.282	6.37
306.494	6.68
306.707	6.4
306.919	6.19
307.132	6.03
307.344	5.7
307.556	6.03
307.769	5.98
307.981	5.72
308.193	5.6
308.406	5.98
308.618	5.81
308.83	5.86
309.043	6.01
309.255	5.79
309.467	6.15
309.679	6.33
309.892	6.6
310.104	6.62
310.316	6.62
310.528	6.82
310.74	7
310.953	6.83
311.165	6.72
311.377	6.8
311.589	6.96
311.801	7.1
312.013	7.14
312.225	7.07
312.437	6.99
312.649	7.11
312.862	6.75
313.074	6.6
313.286	6.38
313.498	6.26
313.71	6.44
313.922	6.4
314.134	6.46
314.346	6.41
314.558	6.2
314.77	6.17
314.982	6.14
315.193	6.3
315.405	6
315.617	6.33
315.829	6.09
316.041	6.29
316.253	6.23
316.465	6.36
316.677	6.19
316.888	6.05
317.1	5.59
317.312	5.81
317.524	5.94
317.736	6.17
317.947	5.99
318.159	6.21
318.371	6.78
318.583	7.29
318.794	7.22
319.006	7.41
319.218	7.19
319.43	7.03
319.641	7.33
319.853	7.86
320.064	7.61
320.276	7.53
320.488	7.15
320.699	7.18
320.911	7.45
321.123	6.81
321.334	6.99
321.546	6.98
321.757	7.1
321.969	7.12
322.18	7.39
322.392	7.45
322.603	7.04
322.815	7.02
323.026	7.16
323.238	7.32
323.449	7.45
323.661	7.34
323.872	7.16
324.083	6.92
324.295	6.93
324.506	6.57
324.718	6.76
324.929	6.76
325.14	6.68
325.352	6.91
325.563	6.84
325.774	6.54
325.986	6.48
326.197	6.56
326.408	6.12
326.62	6.56
326.831	6.32
327.042	6.28
327.253	6.46
327.464	6.18
327.676	6.1
327.887	6.09
328.098	6.1
328.309	6.16
328.52	6.35
328.732	6.36
328.943	5.97
329.154	6.48
329.365	6.54
329.576	6.49
329.787	6.85
329.998	6.78
330.209	6.94
330.42	6.82
330.631	6.63
330.842	6.86
331.053	6.73
331.264	6.69
331.475	6.78
331.686	7.47
331.897	7.55
332.108	7.62
332.319	7.62
332.53	7.6
332.741	7.22
332.952	7.44
333.163	7.55
333.374	7.71
333.585	7.53
333.795	7.44
334.006	7.6
334.217	7.3
334.428	6.68
334.639	6.35
334.849	6.28
335.06	6.3
335.271	6
335.482	6.36
335.692	6.25
335.903	5.88
336.114	5.96
336.325	5.82
336.535	6.05
336.746	6.02
336.957	6.21
337.167	6.18
337.378	6.64
337.589	6.66
337.799	6.6
338.01	6.39
338.22	6.49
338.431	6.34
338.642	6.25
338.852	5.93
339.063	5.82
339.273	5.9
339.484	5.89
339.694	5.7
339.905	5.77
340.115	5.4
340.326	5.37
340.536	5.53
340.746	5.54
340.957	5.15
341.167	5.26
341.378	5.66
341.588	5.68
341.799	5.5
342.009	5.3
342.219	4.97
342.43	5.1
342.64	5.25
342.85	5.4
343.061	5.57
343.271	5.42
343.481	5.71
343.691	5.83
343.902	5.63
344.112	5.61
344.322	5.95
344.532	6.18
344.743	6.28
344.953	6.43
345.163	6.62
345.373	6.64
345.583	6.66
345.793	6.12
346.004	6.22
346.214	5.84
346.424	5.86
346.634	5.89
346.844	5.71
347.054	5.36
347.264	5.28
347.474	5.16
347.684	5.25
347.894	5.16
348.104	5.17
348.314	5.13
348.524	5.03
348.734	5.06
348.944	5.19
349.154	5.36
349.364	5.5
349.574	5.7
349.784	5.78
349.994	6.2
350.204	6.16
350.413	6.1
350.623	6
350.833	6.12
351.043	5.81
351.253	6.31
351.463	6.31
351.672	6.38
351.882	6.24
352.092	6.1
352.302	6.07
352.511	6.08
352.721	5.37
352.931	5.2
353.141	5.2
353.35	5.17
353.56	4.77
353.77	5
353.979	5.05
354.189	5.03
354.399	5.18
354.608	5.51
354.818	5.54
355.027	5.25
355.237	5.28
355.447	5.49
355.656	5.8
355.866	6
356.075	6.04
356.285	6.23
356.494	6.09
356.704	5.77
356.913	5.7
357.123	5.71
357.332	5.32
357.542	5.32
357.751	5.64
357.96	5.57
358.17	5.55
358.379	5.36
358.589	5
358.798	5.01
359.007	4.86
359.217	4.88
359.426	4.89
359.635	4.9
359.845	4.81
360.054	5.02
360.263	4.95
360.472	4.92
360.682	4.9
360.891	4.85
361.1	4.93
361.309	5.05
361.519	4.87
361.728	5.16
361.937	5.05
362.146	5.03
362.355	4.98
362.564	4.97
362.774	4.88
362.983	4.99
363.192	4.89
363.401	4.78
363.61	4.88
363.819	4.85
364.028	4.75
364.237	4.87
364.446	4.54
364.655	4.65
364.864	4.62
365.073	4.54
365.282	4.44
365.491	4.33
365.7	4.18
365.909	4.21
366.118	4.38
366.327	4.11
366.536	3.94
366.745	4.15
366.954	4
367.162	4.11
367.371	3.97
367.58	4.35
367.789	4.43
367.998	4.52
368.207	4.57
368.415	4.53
368.624	4.45
368.833	4.54
369.042	5.2
369.25	5.3
369.459	5.17
369.668	5.24
369.877	5.24
370.085	5.34
370.294	5.03
370.503	5.05
370.711	4.95
370.92	4.61
371.129	4.69
371.337	4.7
371.546	4.57
371.754	4.18
371.963	4.23
372.171	4.14
372.38	4.09
372.589	3.97
372.797	4.19
373.006	4.27
373.214	4.17
373.423	4.16
373.631	4.46
373.84	4.56
374.048	4.47
374.256	4.5
374.465	4.23
374.673	4.26
374.882	4.23
375.09	4.36
375.298	4.45
375.507	4.18
375.715	4.24
375.923	4.29
376.132	4.3
376.34	4.3
376.548	4.35
376.757	4.52
376.965	4.38
377.173	4.55
377.381	4.38
377.59	4.52
377.798	4.45
378.006	4.46
378.214	4.45
378.423	4.49
378.631	4.41
378.839	4.5
379.047	4.45
379.255	4.29
379.463	4.01
379.671	4.07
379.879	4.3
380.088	4.41
380.296	4.21
380.504	3.91
380.712	3.73
380.92	3.67
381.128	3.5
381.336	3.62
381.544	3.66
381.752	3.73
381.96	3.65
382.168	3.79
382.376	3.73
382.584	3.6
382.791	3.58
382.999	3.73
383.207	4.02
383.415	4.12
383.623	4.12
383.831	4.03
384.039	3.89
384.247	3.82
384.454	3.75
384.662	3.9
384.87	3.76
385.078	3.9
385.285	3.72
385.493	3.73
385.701	3.73
385.909	3.55
386.116	3.54
386.324	3.47
386.532	3.4
386.739	3.46
386.947	3.25
387.155	3.3
387.362	3.28
387.57	3.52
387.778	3.36
387.985	3.36
388.193	3.41
388.4	3.45
388.608	3.49
388.816	3.7
389.023	3.96
389.231	3.96
389.438	4.04
389.646	4.06
389.853	3.9
390.061	3.92
390.268	3.73
390.475	3.84
390.683	3.8
390.89	3.71
391.098	3.73
391.305	3.71
391.512	3.57
391.72	3.5
391.927	3.43
392.135	3.31
392.342	3.31
392.549	3.38
392.756	3.31
392.964	3.28
393.171	3.12
393.378	3.19
393.586	3.23
393.793	3.04
394	2.97
394.207	2.91
394.414	2.84
394.622	2.93
394.829	2.95
395.036	3.05
395.243	3.14
395.45	3.07
395.657	3.08
395.864	2.93
396.072	2.93
396.279	2.99
396.486	3.11
396.693	3.22
396.9	3.35
397.107	3.29
397.314	3.36
397.521	3.4
397.728	3.37
397.935	3.32
398.142	3.4
398.349	3.39
398.556	3.69
398.763	3.86
398.97	3.71
399.177	3.68
399.383	3.68
399.59	3.61
399.797	3.63
400.004	3.71
400.211	3.6
400.418	3.55
400.625	3.38
400.831	3.28
401.038	3.4
401.245	3.26
401.452	3.06
401.658	3.18
401.865	3.06
402.072	2.91
402.279	2.92
402.485	2.87
402.692	2.83
402.899	2.95
403.105	2.93
403.312	3.09
403.519	3.03
403.725	2.88
403.932	2.92
404.138	2.99
404.345	2.93
404.552	3.14
404.758	3.22
404.965	3.09
405.171	3.18
405.378	3.17
405.584	2.97
405.791	3.15
405.997	3.17
406.204	3.2
406.41	3.08
406.617	3.29
406.823	3.24
407.029	3.3
407.236	3.25
407.442	3.38
407.649	3.35
407.855	3.33
408.061	3.24
408.268	3.4
408.474	3.18
408.68	3.09
408.887	3.24
409.093	3.47
409.299	3.31
409.505	3.26
409.712	3.19
409.918	3.22
410.124	3.19
410.33	3.23
410.537	3.21
410.743	3.12
410.949	3.07
411.155	3.23
411.361	3.13
411.567	3
411.773	2.98
411.98	2.92
412.186	2.98
412.392	3.13
412.598	2.87
412.804	2.75
413.01	2.77
413.216	2.76
413.422	2.95
413.628	2.89
413.834	2.75
414.04	2.74
414.246	2.82
414.452	2.74
414.658	2.77
414.864	2.71
415.07	2.62
415.275	2.75
415.481	2.76
415.687	2.67
415.893	2.73
416.099	2.63
416.305	2.69
416.511	2.69
416.716	2.74
416.922	2.67
417.128	2.69
417.334	2.7
417.539	2.69
417.745	2.67
417.951	2.69
418.157	2.67
418.362	2.72
418.568	2.7
418.774	2.67
418.979	2.65
419.185	2.58
419.391	2.55
419.596	2.6
419.802	2.67
420.008	3.26
420.213	3.23
420.419	3.24
420.624	3.21
420.83	3.23
421.035	3.17
421.241	3.08
421.446	3.08
421.652	3.07
421.857	3.16
422.063	3.13
422.268	3.04
422.474	2.98
422.679	2.34
422.885	2.38
423.09	2.32
423.295	2.36
423.501	2.36
423.706	2.46
423.911	2.49
424.117	2.57
424.322	2.47
424.527	2.45
424.733	2.46
424.938	2.5
425.143	2.43
425.349	2.46
425.554	2.42
425.759	2.45
425.964	2.34
426.169	2.34
426.375	2.2
426.58	2.24
426.785	2.11
426.99	2.26
427.195	2.14
427.4	2.17
427.605	2.1
427.811	2.18
428.016	2.25
428.221	2.27
428.426	2.29
428.631	2.46
428.836	2.38
429.041	2.44
429.246	2.35
429.451	2.44
429.656	2.46
429.861	2.59
430.066	2.54
430.271	2.56
430.476	2.6
430.681	2.52
430.886	2.56
431.09	2.56
431.295	2.49
431.5	2.52
431.705	2.46
431.91	2.54
432.115	2.49
432.32	2.45
432.524	2.39
432.729	2.45
432.934	2.51
433.139	2.39
433.343	2.34
433.548	2.29
433.753	2.21
433.958	2.2
434.162	2.2
434.367	2.1
434.572	2.08
434.776	2.16
434.981	2.13
435.186	2.11
435.39	2.01
435.595	1.96
435.799	1.97
436.004	2.02
436.209	1.99
436.413	2.06
436.618	2.05
436.822	2.11
437.027	2.28
437.231	2.25
437.436	2.2
437.64	2.21
437.845	2.16
438.049	2.21
438.253	2.13
438.458	2.18
438.662	2.16
438.867	2.13
439.071	1.98
439.275	1.9
439.48	1.87
439.684	1.8
439.888	1.83
440.093	1.85
440.297	1.86
440.501	1.9
440.706	1.87
440.91	1.95
441.114	1.9
441.318	1.9
441.523	1.96
441.727	2.07
441.931	2.15
442.135	2.09
442.339	2.12
442.543	2.08
442.748	2.03
442.952	2
443.156	2.07
443.36	2.09
443.564	2.07
443.768	2.13
443.972	2.16
444.176	2.16
444.38	2.13
444.584	2.13
444.788	2.18
444.992	2.1
445.196	2.08
445.4	2.08
445.604	2.06
445.808	2.02
446.012	2.01
446.216	1.99
446.42	2.01
446.624	2.01
446.828	1.95
447.032	1.98
447.235	1.91
447.439	1.84
447.643	1.94
447.847	1.96
448.051	1.94
448.254	2.04
448.458	2.03
448.662	2.06
448.866	2.09
449.069	1.99
449.273	1.98
449.477	2.07
449.681	2.02
449.884	2.11
450.088	2.2
450.292	2.14
450.495	2.12
450.699	2.08
450.902	1.96
451.106	1.91
451.31	1.91
451.513	1.87
451.717	1.83
451.92	1.82
452.124	1.88
452.327	1.9
452.531	1.89
452.734	1.92
452.938	1.86
453.141	1.92
453.345	1.96
453.548	1.93
453.752	1.97
453.955	1.95
454.158	1.94
454.362	1.97
454.565	1.99
454.769	1.89
454.972	1.88
455.175	1.78
455.379	1.8
455.582	1.89
455.785	1.77
455.988	1.76
456.192	1.86
456.395	1.77
456.598	1.73
456.801	1.82
457.005	1.86
457.208	1.86
457.411	1.84
457.614	1.88
457.817	1.9
458.021	1.81
458.224	1.77
458.427	1.76
458.63	1.73
458.833	1.72
459.036	1.77
459.239	1.82
459.442	1.79
459.645	1.78
459.848	1.84
460.051	1.77
460.254	1.8
460.457	1.87
460.66	1.86
460.863	1.84
461.066	1.94
461.269	1.95
461.472	1.93
461.675	1.96
461.878	1.92
462.081	1.85
462.284	1.76
462.486	1.62
462.689	1.75
462.892	1.74
463.095	1.68
463.298	1.67
463.5	1.74
463.703	1.7
463.906	1.71
464.109	1.71
464.311	1.64
464.514	1.63
464.717	1.73
464.92	1.81
465.122	1.8
465.325	1.86
465.528	1.88
465.73	1.94
465.933	2.03
466.135	2.07
466.338	2.03
466.541	2.04
466.743	2.06
466.946	2.12
467.148	2.2
467.351	2.2
467.553	2.21
467.756	2.24
467.958	2.18
468.161	2.09
468.363	1.99
468.566	1.89
468.768	1.87
468.971	1.93
469.173	1.94
469.375	1.96
469.578	2.06
469.78	2.08
469.983	1.91
470.185	1.9
470.387	1.9
470.59	1.9
470.792	1.93
470.994	1.97
471.196	2
471.399	1.95
471.601	1.97
471.803	1.98
472.005	1.91
472.208	1.86
472.41	1.85
472.612	1.95
472.814	1.95
473.016	1.91
473.218	1.88
473.421	1.79
473.623	1.8
473.825	1.81
474.027	1.76
474.229	1.8
474.431	1.77
474.633	1.87
474.835	1.8
475.037	1.84
475.239	1.83
475.441	1.81
475.643	1.84
475.845	1.87
476.047	1.9
476.249	1.79
476.451	1.77
476.653	1.77
476.855	1.7
477.057	1.68
477.258	1.51
477.46	1.5
477.662	1.35
477.864	1.35
478.066	1.4
478.268	1.46
478.469	1.47
478.671	1.49
478.873	1.58
479.075	1.66
479.276	1.68
479.478	1.68
479.68	1.69
479.882	1.76
480.083	1.72
480.285	1.74
480.487	1.71
480.688	1.67
480.89	1.63
481.091	1.65
481.293	1.63
481.495	1.63
481.696	1.62
481.898	1.64
482.099	1.67
482.301	1.69
482.502	1.71
482.704	1.74
482.905	1.78
483.107	1.78
483.308	1.77
483.51	1.76
483.711	1.74
483.913	1.77
484.114	1.77
484.315	1.76
484.517	1.74
484.718	1.75
484.92	1.75
485.121	1.74
485.322	1.74
485.524	1.72
485.725	1.76
485.926	1.76
486.127	1.79
486.329	1.81
486.53	1.8
486.731	1.82
486.932	1.8
487.134	1.81
487.335	1.77
487.536	1.76
487.737	1.77
487.938	1.76
488.139	1.78
488.341	1.75
488.542	1.76
488.743	1.75
488.944	1.75
489.145	1.76
489.346	1.73
489.547	1.75
489.748	1.79
489.949	1.81
490.15	1.84
490.351	1.83
490.552	1.85
490.753	1.86
490.954	1.89
491.155	1.87
491.356	1.89
491.557	1.9
491.758	1.87
491.959	1.92
492.159	1.94
492.36	1.92
492.561	1.96
492.762	1.94
492.963	1.99
493.164	2
493.364	1.98
493.565	1.91
493.766	1.96
493.967	2.02
494.167	2.07
494.368	2.09
494.569	2.02
494.769	2.07
494.97	2.02
495.171	2
495.371	2.03
495.572	1.99
495.773	2.01
495.973	1.97
496.174	2.06
496.375	2.08
496.575	2.07
496.776	2.05
496.976	2.05
497.177	2.13
497.377	2.11
497.578	2.2
497.778	2.19
497.979	2.18
498.179	2.22
498.38	2.24
498.58	2.26
498.78	2.26
498.981	2.31
499.181	2.24
499.382	2.24
499.582	2.25
499.782	2.18
499.983	2.23
500.183	2.2
500.383	2.24
500.584	2.22
500.784	2.18
500.984	2.15
501.184	2.21
501.385	2.2
501.585	2.13
501.785	2.21
501.985	2.14
502.185	2.18
502.386	2.17
502.586	2.19
502.786	2.21
502.986	2.22
503.186	2.27
503.386	2.3
503.586	2.29
503.786	2.3
503.987	2.31
504.187	2.35
504.387	2.31
504.587	2.39
504.787	2.32
504.987	2.35
505.187	2.31
505.387	2.3
505.587	2.35
505.786	2.36
505.986	2.37
506.186	2.37
506.386	2.39
506.586	2.41
506.786	2.47
506.986	2.49
507.186	2.51
507.386	2.63
507.585	2.67
507.785	2.69
507.985	2.76
508.185	2.72
508.384	2.74
508.584	2.78
508.784	2.84
508.984	2.82
509.183	2.85
509.383	2.89
509.583	2.9
509.782	2.96
509.982	2.96
510.182	2.95
510.381	2.97
510.581	2.94
510.781	2.92
510.98	2.89
511.18	2.85
511.379	2.82
511.579	2.83
511.778	2.8
511.978	2.68
512.177	2.71
512.377	2.64
512.576	2.63
512.776	2.72
512.975	2.7
513.175	2.75
513.374	2.82
513.573	2.88
513.773	2.97
513.972	3.04
514.172	3.09
514.371	3.14
514.57	3.15
514.77	3.11
514.969	3.18
515.168	3.16
515.367	3.12
515.567	3.12
515.766	3.1
515.965	3.06
516.164	3.03
516.364	3
516.563	2.92
516.762	2.95
516.961	2.97
517.16	3.02
517.359	3.04
517.559	2.99
517.758	2.98
517.957	2.99
518.156	3.03
518.355	3.03
518.554	3.03
518.753	3.03
518.952	3.12
519.151	3.18
519.35	3.24
519.549	3.28
519.748	3.36
519.947	3.41
520.146	3.5
520.345	3.46
520.544	3.46
520.743	3.51
520.942	3.57
521.141	3.64
521.339	3.67
521.538	3.59
521.737	3.7
521.936	3.64
522.135	3.58
522.333	3.59
522.532	3.56
522.731	3.61
522.93	3.67
523.129	3.72
523.327	3.72
523.526	3.73
523.725	3.76
523.923	3.8
524.122	3.83
524.321	3.78
524.519	3.77
524.718	3.84
524.917	3.84
525.115	3.9
525.314	3.9
525.512	3.93
525.711	3.94
525.909	3.97
526.108	3.98
526.306	3.97
526.505	3.97
526.703	3.95
526.902	3.94
527.1	3.91
527.299	3.86
527.497	3.89
527.696	3.85
527.894	3.84
528.092	3.87
528.291	3.85
528.489	3.83
528.688	3.83
528.886	3.8
529.084	3.81
529.283	3.83
529.481	3.84
529.679	3.92
529.877	3.97
530.076	3.96
530.274	4.01
530.472	4.05
530.67	4.1
530.869	4.17
531.067	4.2
531.265	4.19
531.463	4.24
531.661	4.27
531.859	4.3
532.057	4.34
532.255	4.28
532.454	4.29
532.652	4.32
532.85	4.31
533.048	4.33
533.246	4.3
533.444	4.27
533.642	4.28
533.84	4.37
534.038	4.4
534.236	4.41
534.434	4.43
534.632	4.41
534.83	4.52
535.027	4.55
535.225	4.52
535.423	4.55
535.621	4.55
535.819	4.65
536.017	4.68
536.215	4.79
536.412	4.78
536.61	4.83
536.808	4.86
537.006	4.92
537.203	5
537.401	5.03
537.599	5.08
537.797	5.2
537.994	5.31
538.192	5.34
538.39	5.29
538.587	5.36
538.785	5.34
538.983	5.33
539.18	5.31
539.378	5.33
539.575	5.32
539.773	5.33
539.97	5.31
540.168	5.29
540.366	5.26
540.563	5.24
540.761	5.26
540.958	5.27
541.155	5.28
541.353	5.26
541.55	5.24
541.748	5.26
541.945	5.3
542.143	5.34
542.34	5.36
542.537	5.41
542.735	5.46
542.932	5.52
543.129	5.6
543.327	5.62
543.524	5.72
543.721	5.7
543.919	5.83
544.116	5.94
544.313	6.01
544.51	6.07
544.708	6.11
544.905	6.07
545.102	6.12
545.299	6.18
545.496	6.18
545.693	6.19
545.891	6.24
546.088	6.21
546.285	6.25
546.482	6.25
546.679	6.25
546.876	6.26
547.073	6.18
547.27	6.14
547.467	6.27
547.664	6.27
547.861	6.36
548.058	6.47
548.255	6.51
548.452	6.64
548.649	6.7
548.846	6.73
549.043	6.78
549.24	6.9
549.437	6.92
549.633	7.08
549.83	7.09
550.027	7.18
550.224	7.23
550.421	7.25
550.618	7.38
550.814	7.48
551.011	7.47
551.208	7.59
551.405	7.62
551.601	7.63
551.798	7.66
551.995	7.72
552.191	7.69
552.388	7.78
552.585	7.71
552.781	7.81
552.978	7.88
553.175	7.83
553.371	7.81
553.568	7.82
553.764	7.74
553.961	7.91
554.157	8.07
554.354	8.04
554.55	8.12
554.747	8.28
554.943	8.48
555.14	8.61
555.336	8.67
555.533	8.81
555.729	8.89
555.926	8.93
556.122	9.1
556.318	9.29
556.515	9.26
556.711	9.24
556.907	9.3
557.104	9.34
557.3	9.4
557.496	9.34
557.693	9.5
557.889	9.64
558.085	9.6
558.281	9.75
558.478	9.85
558.674	9.75
558.87	9.86
559.066	9.97
559.262	10
559.459	10.08
559.655	10.26
559.851	10.3
560.047	10.45
560.243	10.52
560.439	10.51
560.635	10.64
560.831	10.72
561.027	10.79
561.223	10.89
561.419	10.87
561.615	11.02
561.811	11.1
562.007	11.16
562.203	11.21
562.399	11.22
562.595	11.25
562.791	11.22
562.987	11.24
563.183	11.27
563.379	11.3
563.575	11.35
563.771	11.51
563.966	11.56
564.162	11.55
564.358	11.62
564.554	11.77
564.75	11.81
564.945	11.93
565.141	12.01
565.337	12.07
565.533	12.19
565.728	12.26
565.924	12.24
566.12	12.29
566.315	12.28
566.511	12.47
566.707	12.5
566.902	12.59
567.098	12.61
567.293	12.68
567.489	12.76
567.684	12.85
567.88	12.97
568.076	12.97
568.271	13.03
568.467	13.18
568.662	13.32
568.858	13.35
569.053	13.34
569.248	13.55
569.444	13.59
569.639	13.76
569.835	13.66
570.03	13.74
570.225	13.77
570.421	13.85
570.616	13.98
570.812	14.1
571.007	14.07
571.202	14.12
571.397	14.24
571.593	14.3
571.788	14.27
571.983	14.29
572.178	14.25
572.374	14.44
572.569	14.48
572.764	14.51
572.959	14.58
573.154	14.64
573.35	14.62
573.545	14.66
573.74	14.72
573.935	14.77
574.13	14.79
574.325	14.82
574.52	14.84
574.715	14.92
574.91	14.88
575.105	14.95
575.3	15.05
575.495	15.06
575.69	15.1
575.885	15.2
576.08	15.26
576.275	15.23
576.47	15.4
576.665	15.51
576.86	15.55
577.055	15.72
577.25	15.84
577.444	15.97
577.639	15.91
577.834	15.95
578.029	16.05
578.224	16.15
578.418	16.23
578.613	16.31
578.808	16.42
579.003	16.39
579.197	16.49
579.392	16.53
579.587	16.62
579.781	16.55
579.976	16.7
580.171	16.84
580.365	16.89
580.56	16.84
580.755	16.86
580.949	16.92
581.144	17
581.338	17.01
581.533	17.01
581.727	16.94
581.922	16.97
582.116	16.97
582.311	17.03
582.505	17.06
582.7	17.01
582.894	16.98
583.089	17
583.283	16.99
583.478	17.02
583.672	16.96
583.866	17
584.061	17.11
584.255	17.11
584.449	17.18
584.644	17.13
584.838	17.16
585.032	17.12
585.226	17.27
585.421	17.31
585.615	17.43
585.809	17.44
586.003	17.4
586.198	17.48
586.392	17.41
586.586	17.39
586.78	17.53
586.974	17.54
587.168	17.63
587.363	17.68
587.557	17.74
587.751	17.79
587.945	17.71
588.139	17.87
588.333	17.87
588.527	17.95
588.721	18.08
588.915	18.24
589.109	18.22
589.303	18.28
589.497	18.3
589.691	18.41
589.885	18.5
590.079	18.62
590.273	18.67
590.466	18.88
590.66	18.82
590.854	19.07
591.048	19.05
591.242	18.96
591.436	19.06
591.629	19.18
591.823	19.04
592.017	19.17
592.211	19.28
592.404	19.24
592.598	19.16
592.792	19.11
592.986	19.24
593.179	19.18
593.373	18.94
593.567	19.07
593.76	19.23
593.954	19.16
594.147	19.12
594.341	19.21
594.535	19.2
594.728	19.16
594.922	19.12
595.115	19.11
595.309	19.11
595.502	18.98
595.696	19.01
595.889	19.04
596.083	19.02
596.276	18.98
596.47	18.98
596.663	18.91
596.856	18.9
597.05	18.88
597.243	18.8
597.437	18.9
597.63	18.92
597.823	19.01
598.017	19.09
598.21	19.04
598.403	19.18
598.596	19.16
598.79	19.16
598.983	19.33
599.176	19.42
599.369	19.5
599.563	19.74
599.756	19.76
599.949	19.8
600.142	19.79
600.335	19.73
600.528	19.77
600.722	19.8
600.915	19.67
601.108	19.66
601.301	19.65
601.494	19.6
601.687	19.71
601.88	19.72
602.073	19.61
602.266	19.69
602.459	19.69
602.652	19.75
602.845	19.76
603.038	19.72
603.231	19.81
603.424	19.86
603.617	19.84
603.809	19.86
604.002	19.89
604.195	19.82
604.388	19.83
604.581	19.83
604.774	19.86
604.966	19.81
605.159	19.89
605.352	19.84
605.545	19.86
605.737	19.86
605.93	19.89
606.123	20
606.316	20.16
606.508	20.13
606.701	20.18
606.894	20.21
607.086	20.1
607.279	20.14
607.471	20.14
607.664	20.05
607.857	20.18
608.049	20.15
608.242	20.12
608.434	20.23
608.627	20.32
608.819	20.17
609.012	20.26
609.204	20.32
609.397	20.32
609.589	20.42
609.782	20.28
609.974	20.36
610.166	20.44
610.359	20.37
610.551	20.41
610.743	20.45
610.936	20.34
611.128	20.15
611.32	20.23
611.513	20.09
611.705	20.08
611.897	20.02
612.09	20.03
612.282	20.26
612.474	20.01
612.666	20.06
612.858	20.14
613.051	20.16
613.243	20.16
613.435	20.14
613.627	20.24
613.819	20.3
614.011	20.51
614.203	20.57
614.395	20.53
614.588	20.45
614.78	20.4
614.972	20.64
615.164	20.69
615.356	20.7
615.548	20.84
615.74	20.91
615.932	20.98
616.124	21.01
616.315	21.01
616.507	21
616.699	20.89
616.891	20.95
617.083	21.05
617.275	21.01
617.467	21.04
617.659	21.01
617.85	20.93
618.042	20.96
618.234	20.99
618.426	21.08
618.618	20.95
618.809	20.86
619.001	20.8
619.193	20.89
619.384	20.9
619.576	20.93
619.768	21.07
619.959	21.1
620.151	21.09
620.343	21.15
620.534	21.06
620.726	21.22
620.917	21.06
621.109	21.33
621.301	21.41
621.492	21.35
621.684	21.37
621.875	21.4
622.067	21.29
622.258	21.24
622.45	21.14
622.641	21.25
622.832	21.25
623.024	21.26
623.215	21.01
623.407	21.11
623.598	21.08
623.789	21.18
623.981	21.24
624.172	21.39
624.363	21.35
624.555	21.4
624.746	21.37
624.937	21.37
625.129	21.3
625.32	21.4
625.511	21.54
625.702	21.69
625.893	21.79
626.085	21.71
626.276	21.71
626.467	21.73
626.658	21.58
626.849	21.66
627.04	21.78
627.231	21.74
627.422	21.73
627.614	21.85
627.805	21.89
627.996	21.76
628.187	21.65
628.378	21.5
628.569	21.53
628.76	21.57
628.951	21.56
629.142	21.72
629.332	21.77
629.523	21.71
629.714	21.82
629.905	22
630.096	22.08
630.287	21.93
630.478	22.02
630.669	22.23
630.859	22.36
631.05	22.34
631.241	22.32
631.432	22.18
631.623	21.99
631.813	21.83
632.004	21.88
632.195	21.89
632.385	21.72
632.576	21.59
632.767	21.52
632.957	21.54
633.148	21.4
633.339	21.45
633.529	21.53
633.72	21.52
633.91	21.64
634.101	21.63
634.292	21.8
634.482	21.75
634.673	21.73
634.863	21.76
635.054	21.9
635.244	22.03
635.435	22.01
635.625	21.93
635.815	21.97
636.006	22.03
636.196	22.08
636.387	22.36
636.577	22.53
636.767	22.56
636.958	22.56
637.148	22.67
637.338	22.8
637.529	22.75
637.719	22.82
637.909	22.84
638.099	23.13
638.29	22.91
638.48	22.8
638.67	22.91
638.86	22.7
639.05	22.53
639.241	22.3
639.431	22.5
639.621	22.25
639.811	22.24
640.001	22.19
640.191	22.22
640.381	22.03
640.571	21.94
640.761	22.23
640.951	22.09
641.141	21.81
641.331	21.81
641.521	21.94
641.711	22.1
641.901	22.09
642.091	22.24
642.281	22.4
642.471	22.14
642.661	22.08
642.851	22.17
643.041	22.2
643.231	22.18
643.42	22.56
643.61	22.78
643.8	22.87
643.99	22.82
644.18	22.97
644.369	22.94
644.559	23.01
644.749	22.98
644.939	23.25
645.128	23.46
645.318	23.61
645.508	23.6
645.697	23.56
645.887	23.32
646.076	23.26
646.266	23.3
646.456	23.47
646.645	23.41
646.835	23.26
647.024	23.3
647.214	23.1
647.403	23.01
647.593	22.86
647.782	22.75
647.972	22.85
648.161	22.77
648.351	22.96
648.54	22.97
648.73	22.9
648.919	22.89
649.108	22.68
649.298	22.82
649.487	22.72
649.677	22.81
649.866	22.99
650.055	23.22
650.244	23.23
650.434	23
650.623	23.12
650.812	23.01
651.002	22.97
651.191	22.9
651.38	22.85
651.569	23.11
651.758	23.04
651.947	23.07
652.137	23.2
652.326	23.14
652.515	23.13
652.704	23.2
652.893	23.19
653.082	23.15
653.271	23.27
653.46	23.31
653.649	23.5
653.838	23.61
654.027	23.68
654.216	23.76
654.405	23.98
654.594	23.9
654.783	24.08
654.972	24.14
655.161	24.17
655.35	24.41
655.539	24.51
655.728	24.57
655.916	24.57
656.105	24.29
656.294	24.14
656.483	24.11
656.672	24.3
656.86	24.3
657.049	24.23
657.238	24.09
657.427	24
657.615	24.09
657.804	24.11
657.993	24.07
658.181	24.1
658.37	24.07
658.559	24.27
658.747	24.27
658.936	24.02
659.125	23.94
659.313	23.86
659.502	23.77
659.69	23.67
659.879	23.56
660.067	23.57
660.256	23.61
660.444	23.48
660.633	23.21
660.821	23.46
661.01	23.46
661.198	23.43
661.387	23.87
661.575	23.94
661.763	23.94
661.952	24.24
662.14	24.31
662.328	24.48
662.517	24.33
662.705	24.19
662.893	24.52
663.082	24.49
663.27	24.43
663.458	24.38
663.646	24.34
663.834	24.23
664.023	24.27
664.211	24.27
664.399	24.09
664.587	24.17
664.775	24.13
664.963	24.4
665.152	24.52
665.34	24.31
665.528	24.53
665.716	24.47
665.904	24.55
666.092	24.52
666.28	24.37
666.468	24.26
666.656	24.24
666.844	24.48
667.032	24.47
667.22	24.53
667.408	24.29
667.596	24.35
667.784	24.21
667.971	24.39
668.159	24.37
668.347	24.36
668.535	24.62
668.723	24.73
668.911	24.76
669.098	24.91
669.286	24.85
669.474	24.77
669.662	24.88
669.849	25.03
670.037	24.85
670.225	25.06
670.413	24.76
670.6	24.84
670.788	24.75
670.976	24.72
671.163	24.69
671.351	24.73
671.538	24.6
671.726	24.58
671.913	24.55
672.101	24.53
672.289	24.41
672.476	24.44
672.664	24.47
672.851	24.56
673.039	24.42
673.226	24.63
673.413	24.65
673.601	24.6
673.788	24.58
673.976	24.58
674.163	24.83
674.35	24.98
674.538	24.59
674.725	24.66
674.912	24.86
675.1	24.81
675.287	24.87
675.474	24.78
675.662	24.82
675.849	24.73
676.036	24.99
676.223	25.06
676.411	25.03
676.598	24.97
676.785	24.97
676.972	25.27
677.159	25.28
677.346	25.03
677.533	25.1
677.721	25.11
677.908	25.47
678.095	25.51
678.282	25.61
678.469	25.53
678.656	25.5
678.843	25.42
679.03	25.28
679.217	25.36
679.404	25.36
679.591	25.21
679.778	25.25
679.964	25.19
680.151	25.19
680.338	24.89
680.525	25.05
680.712	24.95
680.899	24.85
681.086	24.86
681.272	25.08
681.459	25.06
681.646	25.14
681.833	24.92
682.02	25.14
682.206	25.28
682.393	25.34
682.58	25.35
682.766	25.5
682.953	25.16
683.14	25.38
683.326	25.38
683.513	25.39
683.7	25.65
683.886	25.68
684.073	25.4
684.259	25.46
684.446	25.58
684.632	25.52
684.819	25.69
685.005	25.88
685.192	25.91
685.378	25.67
685.565	25.49
685.751	25.72
685.938	25.84
686.124	25.68
686.31	25.79
686.497	25.96
686.683	26.15
686.87	25.73
687.056	25.81
687.242	25.6
687.429	25.47
687.615	25.48
687.801	25.76
687.987	25.82
688.174	25.78
688.36	25.65
688.546	25.66
688.732	25.6
688.918	25.66
689.105	25.69
689.291	26.06
689.477	26.02
689.663	26.25
689.849	26.22
690.035	26.42
690.221	26.17
690.407	26.23
690.593	26.12
690.779	26.26
690.965	25.98
691.151	25.91
691.337	25.9
691.523	25.87
691.709	25.53
691.895	25.74
692.081	25.39
692.267	25.5
692.453	25.4
692.639	25.95
692.825	25.88
693.011	26.09
693.196	25.78
693.382	26.16
693.568	26.22
693.754	26.04
693.94	26.02
694.125	26.34
694.311	26.26
694.497	26.51
694.682	26.25
694.868	26.25
695.054	26.12
695.239	26.25
695.425	26.28
695.611	26.33
695.796	26.15
695.982	26.18
696.168	26.39
696.353	26.52
696.539	26.53
696.724	26.4
696.91	26.51
697.095	26.64
697.281	26.76
697.466	26.71
697.652	26.78
697.837	26.66
698.023	26.64
698.208	26.4
698.393	26.6
698.579	26.43
698.764	26.5
698.949	26.59
699.135	26.75
699.32	26.65
699.505	26.78
699.691	26.62
699.876	26.42
700.061	26.06
700.246	26.14
700.432	26.23
700.617	26.39
700.802	26.22
700.987	26.72
701.172	26.58
701.358	26.42
701.543	26.09
701.728	26.15
701.913	26.1
702.098	26.2
702.283	26.36
702.468	26.46
702.653	26.37
702.838	26.69
703.023	26.71
703.208	26.74
703.393	26.4
703.578	26.36
703.763	26.36
703.948	26.83
704.133	26.94
704.318	26.87
704.503	26.83
704.688	27.09
704.873	27.39
705.057	27.86
705.242	27.49
705.427	27.92
705.612	27.92
705.797	27.78
705.981	27.79
706.166	27.44
706.351	27.45
706.536	27.27
706.72	27.66
706.905	27.59
707.09	27.53
707.274	27.31
707.459	26.95
707.644	27.03
707.828	27.14
708.013	27.25
708.197	27.28
708.382	27.31
708.567	27.54
708.751	27.24
708.936	27.33
709.12	26.92
709.305	27.25
709.489	27.17
709.673	27.3
709.858	27.1
710.042	27.23
710.227	27.01
710.411	26.57
710.596	26.7
710.78	26.75
710.964	26.42
711.149	26.7
711.333	26.78
711.517	26.88
711.702	26.75
711.886	26.83
712.07	26.75
712.254	26.86
712.438	26.81
712.623	26.92
712.807	27.17
712.991	27.11
713.175	27.21
713.359	27.98
713.544	27.85
713.728	27.72
713.912	27.78
714.096	27.76
714.28	27.94
714.464	28.22
714.648	28.26
714.832	28.39
715.016	28.08
715.2	27.83
715.384	27.89
715.568	27.65
715.752	27.39
715.936	27.25
716.12	27.33
716.304	27.17
716.488	27.09
716.671	26.68
716.855	26.87
717.039	26.89
717.223	26.75
717.407	27.23
717.59	27.32
717.774	27.43
717.958	27.63
718.142	27.98
718.325	28.04
718.509	28.06
718.693	28.11
718.877	27.93
719.06	27.95
719.244	27.55
719.428	27.75
719.611	27.63
719.795	27.15
719.978	27.57
720.162	27.39
720.345	27.41
720.529	27.26
720.713	27.54
720.896	27.28
721.08	27.06
721.263	27.19
721.446	27.4
721.63	27.34
721.813	27.25
721.997	27.18
722.18	27.53
722.364	27.35
722.547	27.37
722.73	27.38
722.914	27.26
723.097	27.25
723.28	27.76
723.464	27.78
723.647	28.12
723.83	27.63
724.013	27.63
724.197	27.7
724.38	28.09
724.563	27.79
724.746	27.92
724.929	27.89
725.112	27.4
725.296	27.65
725.479	27.28
725.662	26.77
725.845	27.01
726.028	26.55
726.211	26.78
726.394	26.82
726.577	26.59
726.76	26.87
726.943	26.97
727.126	26.8
727.309	26.78
727.492	27.09
727.675	26.57
727.858	26.5
728.041	27.03
728.224	26.91
728.407	26.92
728.589	26.8
728.772	26.54
728.955	26.7
729.138	26.34
729.321	26.66
729.503	26.71
729.686	26.72
729.869	26.53
730.052	27.15
730.234	27.19
730.417	26.7
730.6	26.67
730.782	27.05
730.965	27.31
731.148	27.61
731.33	27.93
731.513	27.79
731.695	27.46
731.878	27.43
732.061	27.33
732.243	27.48
732.426	26.92
732.608	27.55
732.791	27.45
732.973	27.49
733.156	27.19
733.338	27.49
733.52	27.05
733.703	26.8
733.885	27.03
734.068	27.12
734.25	27.33
734.432	27.7
734.615	27.84
734.797	28.21
734.979	27.91
735.162	28.35
735.344	28.69
735.526	28.84
735.708	28.71
735.891	29.25
736.073	28.8
736.255	28.71
736.437	28.48
736.619	28.56
736.802	28.85
736.984	28.82
737.166	28.66
737.348	28.3
737.53	27.67
737.712	27.46
737.894	27.69
738.076	27.88
738.258	27.68
738.44	27.92
738.622	28.19
738.804	28.21
738.986	28.09
739.168	27.96
739.35	27.4
739.532	26.96
739.714	27.34
739.896	28.05
740.078	28.02
740.259	27.4
740.441	27.01
740.623	27.45
740.805	28.13
740.987	28.27
741.168	28.57
741.35	28.75
741.532	28.49
741.714	29.35
741.895	29.58
742.077	29.86
742.259	29.57
742.44	30
742.622	30.35
742.804	30.5
742.985	29.88
743.167	29.57
743.348	29.09
743.53	28.95
743.711	29.02
743.893	29.25
744.075	28.6
744.256	28.98
744.438	28.65
744.619	29.08
744.8	29.15
744.982	29.04
745.163	28.67
745.345	28.84
745.526	28.97
745.707	28.78
745.889	29.22
746.07	29.2
746.252	29.07
746.433	29.29
746.614	29.46
746.795	29.26
746.977	28.62
747.158	28.82
747.339	29.7
747.52	29.9
747.702	30.2
747.883	29.61
748.064	29.71
748.245	29.48
748.426	29.29
748.607	29.1
748.788	29.49
748.97	29.18
749.151	29.39
749.332	29.14
749.513	28.68
749.694	27.92
749.875	28.48
750.056	28.41
750.237	28.83
750.418	29.35
750.599	28.66
750.78	28.47
750.96	28.68
751.141	28.56
751.322	29.13
751.503	29.05
751.684	29.97
751.865	29.88
752.046	29.45
752.226	29.33
752.407	28.93
752.588	28.79
752.769	28.89
752.949	29.38
753.13	29.78
753.311	29.76
753.492	29.72
753.672	29.68
753.853	29.77
754.034	29.45
754.214	29.36
754.395	30.25
754.575	30.04
754.756	30.26
754.937	30.63
755.117	30.76
755.298	31.06
755.478	30.34
755.659	29.93
755.839	29.46
756.02	28.92
756.2	28.76
756.381	29.22
756.561	29.27
756.741	28.76
756.922	28.51
757.102	28.68
757.283	28.7
757.463	28.28
757.643	28.95
757.823	29.05
758.004	29.38
758.184	30.38
758.364	30.87
758.545	31.29
758.725	30.56
758.905	30.92
759.085	31.11
759.265	31.66
759.446	31.57
759.626	31.2
759.806	31.46
759.986	30.55
760.166	30.77
760.346	30.73
760.526	29.82
760.706	29.2
760.886	28.96
761.066	29.24
761.246	28.96
761.426	28.65
761.606	28.52
761.786	28.59
761.966	28.34
762.146	28.22
762.326	28.49
762.506	28.96
762.686	29.1
762.866	28.99
763.046	29.41
763.225	29.52
763.405	29.44
763.585	29.6
763.765	29.88
763.945	29.81
764.124	29.81
764.304	30.19
764.484	30.05
764.664	30.01
764.843	29.47
765.023	29.23
765.203	29.93
765.382	30.2
765.562	29.41
765.741	29.66
765.921	29.6
766.101	29.91
766.28	29.97
766.46	29.9
766.639	29.69
766.819	29.86
766.998	29.8
767.178	30.32
767.357	30.8
767.537	30.9
767.716	30.17
767.896	31.09
768.075	31.5
768.254	31.65
768.434	31.58
768.613	31.39
768.792	31.97
768.972	32.21
769.151	31.94
769.33	32.23
769.51	31.61
769.689	31.06
769.868	30.65
770.047	31.12
770.226	30.84
770.406	30.09
770.585	29.31
770.764	29.19
770.943	28.87
771.122	28.3
771.301	28.12
771.48	28.31
771.66	27.59
771.839	28.15
772.018	28.08
772.197	27.87
772.376	28.29
772.555	28.2
772.734	28.62
772.913	28.85
773.092	28.17
773.271	28.77
773.449	29.41
773.628	29.48
773.807	29.62
773.986	30.17
774.165	30.17
774.344	31.07
774.523	31.77
774.701	31.44
774.88	31.2
775.059	31.03
775.238	30.91
775.417	31.59
775.595	30.47
775.774	29.63
775.953	29.6
776.131	29.92
776.31	30.36
776.489	30.5
776.667	30.02
776.846	29.18
777.025	29.03
777.203	29.05
777.382	28.84
777.56	29.72
777.739	29.41
777.917	31
778.096	30.71
778.274	30.22
778.453	29.83
778.631	29.15
778.81	28.91
778.988	29.07
779.166	30.24
779.345	28.64
779.523	29.11
779.702	29.61
779.88	28.89
780.058	28.87
780.237	27.92
780.415	29.55
780.593	30.76
780.771	31.12
780.95	30.9
781.128	31.1
781.306	30.88
781.484	30.31
781.662	31.17
781.841	30.97
782.019	30.39
782.197	30.26
782.375	30.35
782.553	30.26
782.731	29.51
782.909	28.52
783.087	28.29
783.265	28.35
783.443	27.71
783.621	27.7
783.799	26.82
783.977	26.51
784.155	27.02
784.333	26.66
784.511	26.65
784.689	27.77
784.867	28.71
785.045	28.64
785.223	28.79
785.4	29.2
785.578	29.95
785.756	29.66
785.934	29.63
786.112	30.13
786.289	31.46
786.467	31.03
786.645	31.9
786.823	32.9
787	31.94
787.178	32.28
787.356	32.98
787.533	34.11
787.711	33.95
787.889	33.61
788.066	33.92
788.244	34.14
788.421	34.13
788.599	34.02
788.776	34.08
788.954	33.74
789.131	33.46
789.309	33.38
789.486	32.77
789.664	32.71
789.841	31.5
790.019	31.45
790.196	31.62
790.373	32.22
790.551	32.12
790.728	32.56
790.906	32.34
791.083	32.41
791.26	32.79
791.437	33.15
791.615	33.5
791.792	34.01
791.969	33.38
792.146	33.72
792.324	33.48
792.501	33.82
792.678	33.77
792.855	33.46
793.032	32
793.209	32.05
793.387	32.23
793.564	31.93
793.741	30.92
793.918	30.88
794.095	30.36
794.272	30.43
794.449	29.61
794.626	29.48
794.803	29.92
794.98	29.36
795.157	29.05
795.334	29.47
795.511	29.73
795.688	29.46
795.864	29.51
796.041	29.76
796.218	29.52
796.395	29.66
796.572	29.58
796.749	29.52
796.925	29.01
797.102	28.5
797.279	28.55
797.456	30.38
797.632	31.54
797.809	31.34
797.986	31.12
798.162	31.46
798.339	31.65
798.516	31.85
798.692	31.97
798.869	31.41
799.046	32.21
799.222	32.55
799.399	32.48
799.575	31.93
799.752	30.61
799.928	30.05
800.105	29.22
800.281	30.35
800.458	30.39
800.634	30.26
800.811	30.59
800.987	30.67
801.163	31.2
801.34	30.99
801.516	31.85
801.692	31.61
801.869	33.59
802.045	34
802.221	33.73
802.398	34.08
802.574	34.24
802.75	33.95
802.926	34.67
803.103	34.24
803.279	33.82
803.455	33.55
803.631	33.85
803.807	33.47
803.983	33.32
804.16	32.34
804.336	31.93
804.512	32.32
804.688	32.38
804.864	32.05
805.04	31.5
805.216	30.31
805.392	30.67
805.568	30.96
805.744	31.05
805.92	31.05
806.096	30.94
806.272	32.13
806.448	31.09
806.623	30.33
806.799	29.97
806.975	30.78
807.151	30.46
807.327	30.56
807.503	30.9
807.678	30.32
807.854	29.69
808.03	29.62
808.206	30.12
808.381	29.88
808.557	28.76
808.733	29.4
808.908	29.82
809.084	30.13
809.26	29.01
809.435	28.17
809.611	28.03
809.787	28.28
809.962	28.83
810.138	28.77
810.313	29.55
810.489	29.39
810.664	29.87
810.84	29.67
811.015	29.97
811.191	30.63
811.366	31.01
811.542	31.18
811.717	32.26
811.892	32.9
812.068	32.86
812.243	33.27
812.419	33.24
812.594	33.01
812.769	32.45
812.944	33.22
813.12	34.39
813.295	34.25
813.47	33.79
813.645	33.69
813.821	34.1
813.996	33.7
814.171	33.53
814.346	33.35
814.521	31.82
814.697	33.31
814.872	32.79
815.047	32.3
815.222	33.52
815.397	33.05
815.572	32.32
815.747	31.64
815.922	29.86
816.097	30.54
816.272	30.93
816.447	31.2
816.622	32.2
816.797	34.35
816.972	33.35
817.147	33.78
817.322	33.41
817.496	31.59
817.671	31.52
817.846	31.87
818.021	32.36
818.196	32.96
818.371	32.28
818.545	32.49
818.72	32.51
818.895	31.91
819.069	30.26
819.244	30.56
819.419	30.21
819.594	30.81
819.768	30.8
819.943	30.85
820.117	31.47
820.292	31.28
820.467	31.41
820.641	31.73
820.816	31.37
820.99	31.2
821.165	31.48
821.339	31.49
821.514	31.34
821.688	31.63
821.863	31.53
822.037	31.36
822.212	31.41
822.386	31.32
822.56	31.32
822.735	31.34
822.909	31.19
823.084	31.15
823.258	31.06
823.432	30.9
823.606	31.19
823.781	31.18
823.955	30.89
824.129	31.03
824.303	31.1
824.478	31.23
824.652	31.09
824.826	30.95
825	31.03
825.174	30.69
825.348	31.14
825.523	31.67
825.697	31.8
825.871	31.15
826.045	31.11
826.219	31.16
826.393	31.37
826.567	31.48
826.741	30.94
826.915	31.25
827.089	32.12
827.263	32.05
827.437	32.57
827.611	32.42
827.784	32.39
827.958	32.11
828.132	32.92
828.306	33.25
828.48	33.72
828.654	33.64
828.827	34
829.001	34.68
829.175	35.1
829.349	34.67
829.522	35.28
829.696	35.31
829.87	35.06
830.044	35.07
830.217	35.34
830.391	35.03
830.565	35.35
830.738	34.94
830.912	34.18
831.085	34.73
831.259	34.62
831.432	34
831.606	34.3
831.779	33.19
831.953	33.19
832.126	33.68
832.3	33.76
832.473	34.43
832.647	33.67
832.82	33.56
832.994	33.74
833.167	33.95
833.34	33.2
833.514	32.84
833.687	32.64
833.86	32.1
834.034	32.78
834.207	32.78
834.38	32.15
834.553	31.78
834.727	30.9
834.9	31.97
835.073	32.34
835.246	31.57
835.419	32.03
835.593	32.34
835.766	33.23
835.939	33.67
836.112	33.87
836.285	32.72
836.458	33.02
836.631	33.6
836.804	33.86
836.977	36.34
837.15	35.61
837.323	34.55
837.496	34.5
837.669	33.42
837.842	33.39
838.015	32.12
838.188	31.02
838.361	32.24
838.533	32.72
838.706	32.36
838.879	32.82
839.052	33.01
839.225	31.67
839.398	32.68
839.57	33.07
839.743	34.2
839.916	35.99
840.088	36
840.261	36.58
840.434	37.12
840.607	35.76
840.779	36.41
840.952	34.82
841.124	34.39
841.297	34.5
841.47	34.5
841.642	33.8
841.815	34.06
841.987	34.07
842.16	31.62
842.332	32.3
842.505	32.77
842.677	32.43
842.85	32.16
843.022	34.47
843.194	37.48
843.367	38.13
843.539	39.15
843.712	38.18
843.884	36.3
844.056	37.78
844.229	39.21
844.401	40.79
844.573	40.87
844.745	40.8
844.918	39.71
845.09	41.39
845.262	38.68
845.434	38.33
845.606	39.35
845.779	35.91
845.951	35.79
846.123	36.58
846.295	37.87
846.467	37.99
846.639	35.66
846.811	37.09
846.983	35.32
847.155	34.83
847.327	36.27
847.499	37.65
847.671	35.06
847.843	36.55
848.015	38.04
848.187	39.61
848.359	41.29
848.531	37.22
848.703	34.86
848.875	34.14
849.047	30.67
849.218	34.07
849.39	38.64
849.562	37.96
849.734	39.69
849.905	42.23
850.077	38.51
850.249	38.29
850.421	37.69
850.592	38.08
850.764	41.89
850.936	44.03
851.107	47.72
851.279	49.76
851.451	45.99
851.622	44.13
851.794	43.48
851.965	40.35
852.137	40.87
852.308	45.81
852.48	47.35
852.651	44.81
852.823	43.98
852.994	41.25
853.166	42.99
853.337	42.65
853.509	40.54
853.68	42.68
853.851	42.08
854.023	40.01
854.194	40.72
854.365	42.39
854.537	36.08
854.708	34.22
854.879	36.93
855.05	37.53
855.222	39.32
855.393	40.34
855.564	44.15
855.735	43.51
855.906	42.41
856.078	43.82
856.249	45.69
856.42	45.26
856.591	43.35
856.762	43.32
856.933	46.47
857.104	45.89
857.275	47.69
857.446	47.46
857.617	44.34
857.788	38.57
857.959	38.75
858.13	37.92
858.301	39.79
858.472	38.95
858.643	40.4
858.814	38.82
858.985	39.49
859.155	36.28
859.326	35.07
859.497	32.58
859.668	31.05
859.839	30.97
860.009	32.12
860.18	31.69
860.351	31.11
860.522	28.14
860.692	28.75
860.863	30.18
861.034	35.11
861.204	34.23
861.375	35.84
861.546	38.44
861.716	40.56
861.887	41.8
862.057	38.51
862.228	38.86
862.398	39.05
862.569	40.01
862.739	39.09
862.91	38.04
863.08	34.26
863.251	31.01
863.421	37.22
863.592	37.44
863.762	33.22
863.932	33.52
864.103	33.38
864.273	35.94
864.443	35.57
864.614	37.39
864.784	40.84
864.954	42.07
865.125	44.85
865.295	49.45
865.465	43.65
865.635	42.53
865.805	39.93
865.976	42.6
866.146	40.75
866.316	39.83
866.486	43.33
866.656	39.93
866.826	38.83
866.996	38.12
867.166	40.89
867.336	40.06
867.506	36.98
867.676	46.03
867.846	39.57
868.016	43.53
868.186	41.33
868.356	40.67
868.526	44.22
868.696	43.03
868.866	44.39
869.036	45.54
869.206	45.18
869.376	46.71
869.545	42.5
869.715	41.69
869.885	38.98
870.055	39.96
870.224	41.53
870.394	43.21
870.564	43.37
870.734	38.92
870.903	39.59
871.073	47.03
871.243	47.33
871.412	48.75
871.582	48.48
871.751	50.28
871.921	49.13
872.091	48.08
872.26	48.06
872.43	44.06
872.599	44.11
872.769	47.55
872.938	47.42
873.108	47.45
873.277	41.71
873.446	40.29
873.616	38.8
873.785	36.67
873.955	39.63
874.124	41.97
874.293	42.67
874.463	44.64
874.632	46.91
874.801	45.83
874.971	42.72
875.14	46.92
875.309	48.84
875.478	48.02
875.647	47.52
875.817	46.57
875.986	43.22
876.155	40.49
876.324	39.87
876.493	37.99
876.662	38.87
876.831	38.69
877	38.6
877.17	37.03
877.339	35.08
877.508	33.84
877.677	34.67
877.846	36.6
878.015	36.01
878.184	37.79
878.352	39.25
878.521	40.31
878.69	39.66
878.859	40.41
879.028	36.33
879.197	36.03
879.366	39.88
879.534	37.33
879.703	36.36
879.872	36.88
880.041	34.39
880.21	34.3
880.378	34.8
880.547	34.32
880.716	32.48
880.884	32.52
881.053	32.17
881.222	33.27
881.39	33.11
881.559	32.02
881.727	33
881.896	32.6
882.065	32.9
882.233	33.32
882.402	33.83
882.57	33.03
882.739	33.12
882.907	34.34
883.076	34.73
883.244	34.76
883.412	34.25
883.581	34.6
883.749	35.09
883.918	34.51
884.086	34.27
884.254	33.8
884.423	34.38
884.591	33.42
884.759	34.22
884.927	34.25
885.096	33.94
885.264	34.29
885.432	34.38
885.6	34.96
885.769	34.82
885.937	34.01
886.105	34.73
886.273	36.19
886.441	37.25
886.609	37.62
886.777	37.61
886.945	38.94
887.113	38.37
887.281	38.75
887.449	39.58
887.617	38.8
887.785	38.48
887.953	40.13
888.121	37.33
888.289	37.41
888.457	35.91
888.625	34.99
888.793	32.97
888.961	33.52
889.129	34.52
889.296	35.33
889.464	33.5
889.632	29.17
889.8	29.72
889.967	32.92
890.135	28.77
