Data from 2938437_Reflection_2.txt Node
Date: Fri Jun 19 18:33:42 EDT 2015
User: robert
Spectrometer: USB4E03002
Autoset integration time: false
Trigger mode: 4
Integration Time (sec): 1.000000E-1
Scans to average: 10
Electric dark correction enabled: true
Nonlinearity correction enabled: false
Boxcar width: 5
Stray light correction enabled: false
XAxis mode: Wavelengths
Stop averaging: false
Number of Pixels in Spectrum: 3648
>>>>>Begin Spectral Data<<<<<
177.575	135.45
177.794	138.59
178.014	100.09
178.233	84.95
178.452	64.41
178.672	66.8
178.891	-96.19
179.11	132.04
179.33	106.86
179.549	87.89
179.768	99.12
179.987	120.31
180.207	136.25
180.426	108.5
180.645	99.63
180.864	94.36
181.084	98.08
181.303	104.26
181.522	117.08
181.741	115.42
181.96	126.17
182.179	119
182.398	105.95
182.618	106.44
182.837	94.98
183.056	107.9
183.275	97.88
183.494	96.15
183.713	83.27
183.932	70.33
184.151	69.22
184.37	41.24
184.589	56.41
184.808	61.54
185.027	54.66
185.246	78.78
185.465	78.01
185.684	84.15
185.903	84.25
186.122	89.95
186.341	96.65
186.56	99.41
186.779	92.38
186.998	85.46
187.216	89.51
187.435	75.31
187.654	74.53
187.873	65.04
188.092	62.58
188.311	61.49
188.53	70.37
188.748	65.49
188.967	64.78
189.186	78.52
189.405	73.35
189.623	74.9
189.842	80.47
190.061	78.46
190.28	70.6
190.498	81.34
190.717	117.9
190.936	95.88
191.154	113.69
191.373	121.89
191.592	138.89
191.81	137.43
192.029	134.86
192.248	177.6
192.466	230.58
192.685	222.1
192.904	213.39
193.122	142.44
193.341	198.3
193.559	202.24
193.778	331.51
193.996	308.26
194.215	351.57
194.433	303.08
194.652	190.74
194.87	205.1
195.089	221.97
195.307	186.26
195.526	176.31
195.744	143.84
195.963	123.79
196.181	78.3
196.399	82.16
196.618	70.99
196.836	68.7
197.055	71.76
197.273	69.47
197.491	82.32
197.71	69.17
197.928	79.25
198.146	71.37
198.365	84.47
198.583	96.22
198.801	86.92
199.019	101.17
199.238	109.01
199.456	103.33
199.674	77.24
199.892	72.59
200.111	68.82
200.329	79.27
200.547	90.85
200.765	98.55
200.983	94.84
201.202	105.26
201.42	106.36
201.638	100.37
201.856	80.28
202.074	87.25
202.292	78.31
202.51	92.03
202.728	86.63
202.946	75.3
203.165	46.52
203.383	27.97
203.601	23.06
203.819	0.93
204.037	-10.37
204.255	5.83
204.473	13.3
204.691	21.26
204.909	34.89
205.127	38.78
205.345	33.83
205.562	46.48
205.78	54.86
205.998	53.5
206.216	72.17
206.434	75.59
206.652	81.71
206.87	96.67
207.088	103.96
207.306	101.72
207.523	105.67
207.741	112.72
207.959	110.33
208.177	113.14
208.395	89.93
208.612	80.62
208.83	75.65
209.048	69.02
209.266	60.72
209.483	53.59
209.701	57.13
209.919	51.3
210.136	60.77
210.354	59.75
210.572	62.81
210.79	82.31
211.007	78.44
211.225	67.66
211.442	59.89
211.66	56.85
211.878	63.04
212.095	116.06
212.313	125.38
212.53	120.03
212.748	139.3
212.966	126.39
213.183	113.78
213.401	117.51
213.618	138.64
213.836	155.23
214.053	206.77
214.271	196.1
214.488	94.72
214.705	100.2
214.923	100.82
215.14	90.05
215.358	82.8
215.575	88.15
215.793	91.53
216.01	95.56
216.227	89.88
216.445	80.79
216.662	64.68
216.879	69.06
217.097	53.17
217.314	60.14
217.531	60.4
217.749	68.04
217.966	66.77
218.183	64.56
218.4	68.52
218.618	69.69
218.835	72.5
219.052	68.66
219.269	63.01
219.487	66.09
219.704	57.14
219.921	57.77
220.138	52.93
220.355	50.44
220.572	51.95
220.79	54.09
221.007	52.83
221.224	51.01
221.441	65.85
221.658	73.69
221.875	71.18
222.092	73.98
222.309	74.87
222.526	78.83
222.743	78.95
222.96	69.53
223.177	60.43
223.394	60.32
223.611	56.21
223.828	51.17
224.045	46.87
224.262	51.53
224.479	51.54
224.696	51.2
224.913	44.31
225.13	40.26
225.347	37.68
225.564	36.91
225.781	33.77
225.997	35.22
226.214	33.58
226.431	30.66
226.648	28.03
226.865	25.55
227.082	22.21
227.298	24.09
227.515	24.74
227.732	25.55
227.949	23.97
228.165	25.67
228.382	22.75
228.599	22.12
228.816	22.17
229.032	23.03
229.249	23.71
229.466	26.15
229.682	25.24
229.899	23.18
230.116	25.43
230.332	27.36
230.549	24.21
230.765	28.02
230.982	26.46
231.199	25.36
231.415	24.92
231.632	25.13
231.848	24.1
232.065	22.71
232.281	23.23
232.498	19.53
232.714	18.45
232.931	21.79
233.147	20.54
233.364	22.06
233.58	24.1
233.797	25.81
234.013	23.29
234.23	22.63
234.446	23.42
234.662	22.17
234.879	21.9
235.095	23.67
235.312	22.34
235.528	23.32
235.744	24.59
235.961	23.19
236.177	22.41
236.393	25.11
236.61	27.02
236.826	29.08
237.042	30.06
237.258	33.17
237.475	34
237.691	32.49
237.907	31.12
238.123	30.05
238.339	29.68
238.556	29.32
238.772	29.68
238.988	27.66
239.204	24.22
239.42	23.39
239.636	21.27
239.853	19.54
240.069	19.2
240.285	19.35
240.501	18.45
240.717	18.33
240.933	17.01
241.149	16.11
241.365	15.34
241.581	16.01
241.797	16.57
242.013	16.92
242.229	17.07
242.445	17.03
242.661	15.87
242.877	15.63
243.093	15.61
243.309	15.56
243.525	15.46
243.741	15.87
243.957	15.39
244.173	14.72
244.388	15.09
244.604	14.74
244.82	14.26
245.036	14.63
245.252	14.4
245.468	14.03
245.683	13.38
245.899	13.04
246.115	12.53
246.331	12.62
246.547	12.47
246.762	12.09
246.978	12.1
247.194	12.17
247.409	12.35
247.625	12.54
247.841	12.36
248.057	13.24
248.272	13.43
248.488	14.98
248.703	14.96
248.919	16.06
249.135	16.07
249.35	15.91
249.566	17.01
249.782	17.23
249.997	17.51
250.213	17.63
250.428	17.75
250.644	17.69
250.859	16.71
251.075	16.5
251.29	16
251.506	14.87
251.721	15.59
251.937	14.44
252.152	14.56
252.368	13.26
252.583	14.16
252.798	13.93
253.014	12.98
253.229	13.06
253.445	13.71
253.66	12.9
253.875	15.69
254.091	15.1
254.306	16.07
254.521	15.08
254.737	15.87
254.952	14.6
255.167	14.13
255.383	14.99
255.598	14.67
255.813	13.9
256.028	13.95
256.244	13.02
256.459	12.32
256.674	11.57
256.889	11.28
257.104	11.63
257.32	11.25
257.535	10.73
257.75	10.4
257.965	10.33
258.18	10.38
258.395	10.5
258.61	10.21
258.826	9.88
259.041	9.94
259.256	9.62
259.471	9.75
259.686	10.03
259.901	10.75
260.116	11.33
260.331	10.83
260.546	11.19
260.761	10.95
260.976	11.5
261.191	12.95
261.406	13.51
261.621	13.59
261.836	12.55
262.05	11.38
262.265	10.47
262.48	9.96
262.695	10.75
262.91	11.33
263.125	11.26
263.34	10.9
263.555	10.29
263.769	10.35
263.984	11.12
264.199	12.57
264.414	12.91
264.629	13.6
264.843	14.02
265.058	14.36
265.273	13.27
265.488	12.46
265.702	12.14
265.917	12.04
266.132	11.95
266.346	12
266.561	11.57
266.776	11.85
266.99	11.59
267.205	11.18
267.42	11.28
267.634	11.73
267.849	12.09
268.063	12.81
268.278	12.68
268.492	12.2
268.707	12.16
268.922	12.54
269.136	12.83
269.351	13.18
269.565	12.59
269.78	11.79
269.994	11.26
270.209	11.69
270.423	11.06
270.637	11.18
270.852	11.7
271.066	11.77
271.281	11.23
271.495	11.08
271.709	10.45
271.924	10.48
272.138	10.68
272.353	10.26
272.567	10.41
272.781	11.29
272.996	11.13
273.21	10.69
273.424	10.54
273.638	11.15
273.853	12.48
274.067	12.6
274.281	12.87
274.495	13.28
274.71	13.82
274.924	13.22
275.138	12.08
275.352	12.66
275.566	12.98
275.781	13.61
275.995	13.11
276.209	11.81
276.423	12.54
276.637	12.36
276.851	11.53
277.065	11.44
277.279	13.15
277.493	14.15
277.707	14.64
277.921	15.28
278.135	14.44
278.349	14.19
278.563	14.38
278.777	14.7
278.991	14.55
279.205	15.2
279.419	14.63
279.633	13.57
279.847	12.57
280.061	11.96
280.275	11.78
280.489	11.95
280.703	12.02
280.917	11.61
281.131	10.74
281.344	11.12
281.558	11.09
281.772	11.52
281.986	11.43
282.2	12.31
282.414	11.64
282.627	10.78
282.841	10.6
283.055	10.74
283.269	10.78
283.482	10.8
283.696	11.22
283.91	11.01
284.123	10.95
284.337	10.7
284.551	10.07
284.764	10.19
284.978	10.43
285.192	10.89
285.405	10.66
285.619	10.6
285.833	10.61
286.046	10.28
286.26	10.55
286.473	10.39
286.687	10.83
286.9	10.87
287.114	11.14
287.327	11.61
287.541	10.59
287.754	10.63
287.968	10.87
288.181	10.97
288.395	11.03
288.608	11.28
288.822	12.07
289.035	11.88
289.248	12.13
289.462	12.38
289.675	12.19
289.889	13.41
290.102	13.84
290.315	13.87
290.529	14.05
290.742	13.68
290.955	13.6
291.169	13.51
291.382	13.87
291.595	14.38
291.808	14.07
292.022	14.07
292.235	13.9
292.448	13.72
292.661	13.24
292.875	12.64
293.088	12.75
293.301	13.13
293.514	12.85
293.727	12.47
293.94	12.25
294.153	12.31
294.367	12.8
294.58	12.27
294.793	11.75
295.006	12.23
295.219	12.6
295.432	12.6
295.645	12.36
295.858	12.36
296.071	11.89
296.284	11.97
296.497	11.71
296.71	11.45
296.923	12.17
297.136	12.96
297.349	13.37
297.562	13.19
297.775	13.41
297.988	12.9
298.201	12.8
298.414	13.79
298.626	13.41
298.839	13.84
299.052	13.88
299.265	12.64
299.478	11.34
299.691	11.02
299.903	11.13
300.116	11.38
300.329	12.05
300.542	12.38
300.755	12.86
300.967	13.33
301.18	13.35
301.393	12.61
301.605	12.97
301.818	13.53
302.031	13.32
302.243	13.8
302.456	14.03
302.669	14.4
302.881	14.79
303.094	14.36
303.307	13.84
303.519	13.25
303.732	13.88
303.944	14.26
304.157	14.51
304.37	14.71
304.582	14.62
304.795	13.77
305.007	13.57
305.22	13.12
305.432	12.52
305.645	13.24
305.857	13.94
306.069	13.88
306.282	14.02
306.494	14.41
306.707	13.84
306.919	13.52
307.132	14.42
307.344	14.5
307.556	14.66
307.769	14.41
307.981	13.86
308.193	13.16
308.406	12.99
308.618	13
308.83	12.75
309.043	13.17
309.255	13.53
309.467	13.01
309.679	12.78
309.892	12.28
310.104	13.05
310.316	13.82
310.528	14.88
310.74	14.99
310.953	14.35
311.165	14.09
311.377	14.27
311.589	14.41
311.801	14.16
312.013	14.07
312.225	14.36
312.437	13.72
312.649	12.55
312.862	11.64
313.074	11.5
313.286	12.21
313.498	12.53
313.71	11.85
313.922	11.99
314.134	12.43
314.346	12.99
314.558	13.38
314.77	13.93
314.982	15.25
315.193	15.8
315.405	15.7
315.617	14.31
315.829	14.37
316.041	14.88
316.253	14.74
316.465	15.34
316.677	14.73
316.888	15.21
317.1	14.75
317.312	14.61
317.524	14.22
317.736	14.71
317.947	16
318.159	17.2
318.371	17.22
318.583	17.4
318.794	17.2
319.006	17.44
319.218	16.56
319.43	17.07
319.641	16.43
319.853	16.81
320.064	16.62
320.276	16.92
320.488	16
320.699	15.62
320.911	15.65
321.123	15.16
321.334	15.43
321.546	16
321.757	16.11
321.969	16.21
322.18	15.52
322.392	14.88
322.603	14.64
322.815	14.82
323.026	15.03
323.238	14.52
323.449	15.07
323.661	14.7
323.872	14.16
324.083	14.44
324.295	15.16
324.506	15.99
324.718	16.73
324.929	17.43
325.14	17.17
325.352	17.75
325.563	17.72
325.774	17.37
325.986	17.13
326.197	17.43
326.408	17.38
326.62	16.88
326.831	16.63
327.042	16.79
327.253	16.34
327.464	15.97
327.676	15.42
327.887	15.05
328.098	14.7
328.309	14.8
328.52	14.86
328.732	14.92
328.943	14.59
329.154	15.25
329.365	14.63
329.576	14.67
329.787	15.05
329.998	15.15
330.209	15.61
330.42	15.66
330.631	15.77
330.842	15.84
331.053	15.75
331.264	15.44
331.475	15.02
331.686	15.47
331.897	15.53
332.108	15.26
332.319	15.47
332.53	15.52
332.741	15.63
332.952	16.43
333.163	15.12
333.374	14.45
333.585	14.9
333.795	14.6
334.006	13.95
334.217	13.68
334.428	13.86
334.639	13.8
334.849	13.49
335.06	13.65
335.271	12.92
335.482	13.68
335.692	13.65
335.903	13.79
336.114	13.73
336.325	14.72
336.535	14.51
336.746	13.76
336.957	14
337.167	14.52
337.378	14.94
337.589	15.21
337.799	15.65
338.01	15.91
338.22	15.78
338.431	16.41
338.642	15.74
338.852	15.53
339.063	16.25
339.273	16.15
339.484	15.81
339.694	15.83
339.905	15.94
340.115	15.96
340.326	15.81
340.536	16.44
340.746	16.34
340.957	16.7
341.167	17.37
341.378	17.27
341.588	16.59
341.799	16.3
342.009	15.72
342.219	14.71
342.43	13.85
342.64	14.44
342.85	13.89
343.061	13.67
343.271	13.34
343.481	13.21
343.691	12.78
343.902	13.27
344.112	13.94
344.322	13.78
344.532	14.31
344.743	15.51
344.953	14.93
345.163	14.69
345.373	13.83
345.583	13.39
345.793	13.19
346.004	13.97
346.214	13.36
346.424	12.91
346.634	12.6
346.844	12.3
347.054	11.4
347.264	11.4
347.474	12.19
347.684	13.04
347.894	13.04
348.104	13.26
348.314	13.04
348.524	13.37
348.734	12.86
348.944	13.48
349.154	13.75
349.364	13.97
349.574	13.65
349.784	13.29
349.994	13.55
350.204	13.74
350.413	13.85
350.623	13.67
350.833	13.04
351.043	13.03
351.253	13.11
351.463	12.78
351.672	12.87
351.882	13.1
352.092	13.4
352.302	12.98
352.511	13.37
352.721	12.59
352.931	12.36
353.141	12.86
353.35	13.53
353.56	13.2
353.77	13.96
353.979	14.09
354.189	14.27
354.399	13.75
354.608	13.41
354.818	12.95
355.027	13.43
355.237	13.89
355.447	13.9
355.656	13.89
355.866	14.07
356.075	13.77
356.285	13.54
356.494	13.13
356.704	12.57
356.913	12.49
357.123	12.98
357.332	12.78
357.542	12.37
357.751	12.3
357.96	12.3
358.17	11.7
358.379	11.85
358.589	11.55
358.798	11.88
359.007	12.61
359.217	12.52
359.426	12.39
359.635	12.69
359.845	12.88
360.054	12.89
360.263	12.36
360.472	12.51
360.682	12.43
360.891	12.75
361.1	12.45
361.309	12.18
361.519	12.2
361.728	12.03
361.937	11.66
362.146	11.7
362.355	11.58
362.564	11.7
362.774	12.03
362.983	11.87
363.192	11.71
363.401	11.85
363.61	11.71
363.819	12.31
364.028	12.29
364.237	12.45
364.446	12.6
364.655	12.82
364.864	12.73
365.073	12.57
365.282	12.12
365.491	12.17
365.7	12.22
365.909	11.91
366.118	12.09
366.327	12.22
366.536	11.98
366.745	11.62
366.954	11.88
367.162	12.07
367.371	12.24
367.58	12.76
367.789	12.25
367.998	12.01
368.207	12.4
368.415	12.11
368.624	11.75
368.833	11.64
369.042	11.55
369.25	10.91
369.459	11.28
369.668	10.58
369.877	10.29
370.085	10.51
370.294	10.47
370.503	10.42
370.711	9.82
370.92	9.98
371.129	9.92
371.337	10.08
371.546	10.3
371.754	9.71
371.963	10.54
372.171	10.89
372.38	11.09
372.589	11.36
372.797	11.07
373.006	11.22
373.214	11.1
373.423	11.35
373.631	11.02
373.84	10.7
374.048	10.74
374.256	9.66
374.465	9.65
374.673	9.39
374.882	9.07
375.09	9.27
375.298	9.42
375.507	9.51
375.715	9.28
375.923	9.44
376.132	9.52
376.34	9.49
376.548	9.73
376.757	9.61
376.965	9.87
377.173	10.2
377.381	9.97
377.59	9.79
377.798	9.73
378.006	9.52
378.214	9.36
378.423	9.4
378.631	9.51
378.839	9.67
379.047	9.51
379.255	9.24
379.463	9.03
379.671	9.15
379.879	9.28
380.088	9.14
380.296	9.59
380.504	9.34
380.712	9.33
380.92	9.28
381.128	9.01
381.336	8.99
381.544	8.86
381.752	8.96
381.96	8.94
382.168	8.96
382.376	8.78
382.584	8.41
382.791	8.66
382.999	8.49
383.207	8.35
383.415	8.69
383.623	8.64
383.831	8.75
384.039	8.16
384.247	8.07
384.454	7.91
384.662	7.8
384.87	7.76
385.078	7.33
385.285	7.22
385.493	7.31
385.701	7.01
385.909	6.86
386.116	6.7
386.324	7.1
386.532	7.01
386.739	6.95
386.947	7.3
387.155	7.32
387.362	7.34
387.57	7.29
387.778	7.02
387.985	6.86
388.193	6.51
388.4	6.51
388.608	6.33
388.816	6.25
389.023	6.12
389.231	5.74
389.438	5.63
389.646	5.49
389.853	5.46
390.061	5.32
390.268	5.47
390.475	5.58
390.683	5.49
390.89	5.28
391.098	5.16
391.305	5.34
391.512	5.35
391.72	5.33
391.927	5.44
392.135	5.45
392.342	5.54
392.549	5.48
392.756	5.58
392.964	5.59
393.171	5.81
393.378	6
393.586	5.86
393.793	6.01
394	5.79
394.207	5.81
394.414	5.77
394.622	5.74
394.829	5.64
395.036	5.54
395.243	5.53
395.45	5.53
395.657	5.22
395.864	4.94
396.072	4.7
396.279	4.88
396.486	4.85
396.693	4.73
396.9	4.72
397.107	4.73
397.314	4.69
397.521	4.59
397.728	4.58
397.935	4.46
398.142	4.64
398.349	4.69
398.556	4.83
398.763	4.93
398.97	5.03
399.177	4.97
399.383	4.92
399.59	5.08
399.797	5.2
400.004	4.96
400.211	5.27
400.418	5.16
400.625	5.22
400.831	5.07
401.038	4.96
401.245	4.91
401.452	4.88
401.658	4.94
401.865	4.84
402.072	4.75
402.279	4.8
402.485	4.88
402.692	4.97
402.899	4.87
403.105	4.83
403.312	4.86
403.519	4.69
403.725	4.7
403.932	4.7
404.138	4.73
404.345	4.65
404.552	4.58
404.758	4.46
404.965	4.51
405.171	4.46
405.378	4.43
405.584	4.43
405.791	4.53
405.997	4.64
406.204	4.68
406.41	4.55
406.617	4.57
406.823	4.65
407.029	4.61
407.236	4.43
407.442	4.57
407.649	4.64
407.855	4.59
408.061	4.7
408.268	4.61
408.474	4.49
408.68	4.47
408.887	4.44
409.093	4.48
409.299	4.48
409.505	4.55
409.712	4.42
409.918	4.33
410.124	4.36
410.33	4.24
410.537	4.12
410.743	4.34
410.949	4.32
411.155	4.37
411.361	4.12
411.567	4.04
411.773	3.96
411.98	4.05
412.186	4.25
412.392	4.23
412.598	4.24
412.804	4.41
413.01	4.33
413.216	4.52
413.422	4.5
413.628	4.66
413.834	4.73
414.04	4.81
414.246	4.76
414.452	4.66
414.658	4.59
414.864	4.52
415.07	4.41
415.275	4.37
415.481	4.26
415.687	4.19
415.893	4.27
416.099	4.2
416.305	4.27
416.511	4.26
416.716	4.23
416.922	4.19
417.128	4.34
417.334	4.36
417.539	4.25
417.745	4.25
417.951	4.19
418.157	4.12
418.362	4.14
418.568	4.05
418.774	4.04
418.979	4.09
419.185	4.15
419.391	4.1
419.596	4.12
419.802	4.17
420.008	4.17
420.213	3.57
420.419	3.6
420.624	3.66
420.83	3.64
421.035	3.61
421.241	3.53
421.446	3.45
421.652	3.4
421.857	3.4
422.063	3.38
422.268	3.35
422.474	4.09
422.679	4.07
422.885	4.02
423.09	3.98
423.295	4.01
423.501	4.03
423.706	4.1
423.911	4.12
424.117	4.11
424.322	4.11
424.527	4.06
424.733	3.98
424.938	3.99
425.143	3.91
425.349	4
425.554	4
425.759	4.04
425.964	4.02
426.169	4.02
426.375	3.98
426.58	4.02
426.785	4.11
426.99	4.1
427.195	4.13
427.4	4.24
427.605	4.27
427.811	4.29
428.016	4.3
428.221	4.29
428.426	4.33
428.631	4.38
428.836	4.33
429.041	4.4
429.246	4.42
429.451	4.41
429.656	4.45
429.861	4.46
430.066	4.5
430.271	4.42
430.476	4.45
430.681	4.42
430.886	4.42
431.09	4.47
431.295	4.46
431.5	4.41
431.705	4.36
431.91	4.36
432.115	4.31
432.32	4.22
432.524	4.28
432.729	4.28
432.934	4.22
433.139	4.1
433.343	3.96
433.548	3.91
433.753	3.85
433.958	3.85
434.162	3.87
434.367	3.83
434.572	3.83
434.776	3.8
434.981	3.71
435.186	3.77
435.39	3.83
435.595	3.87
435.799	3.94
436.004	4.02
436.209	4.15
436.413	4.06
436.618	4.03
436.822	4.05
437.027	3.95
437.231	3.97
437.436	4
437.64	4.03
437.845	4.02
438.049	3.99
438.253	3.94
438.458	3.89
438.662	3.85
438.867	3.91
439.071	3.89
439.275	4
439.48	4.05
439.684	4.06
439.888	4.06
440.093	4.1
440.297	4.08
440.501	4.11
440.706	4.08
440.91	4.16
441.114	4.13
441.318	4.12
441.523	4.09
441.727	3.98
441.931	3.91
442.135	3.91
442.339	3.93
442.543	3.93
442.748	4.04
442.952	4.04
443.156	3.97
443.36	4.02
443.564	4.01
443.768	3.98
443.972	4.03
444.176	4.11
444.38	4.02
444.584	4.01
444.788	4
444.992	3.86
445.196	3.87
445.4	3.83
445.604	3.77
445.808	3.76
446.012	3.77
446.216	3.76
446.42	3.72
446.624	3.72
446.828	3.76
447.032	3.73
447.235	3.79
447.439	3.75
447.643	3.78
447.847	3.88
448.051	3.95
448.254	3.9
448.458	3.93
448.662	3.91
448.866	3.91
449.069	3.85
449.273	3.89
449.477	3.83
449.681	3.87
449.884	3.91
450.088	3.87
450.292	3.78
450.495	3.91
450.699	3.88
450.902	3.91
451.106	4
451.31	3.98
451.513	3.99
451.717	4.02
451.92	4.09
452.124	4.01
452.327	3.95
452.531	3.97
452.734	3.91
452.938	4.01
453.141	3.99
453.345	3.97
453.548	4.05
453.752	4.06
453.955	4.1
454.158	4.08
454.362	4.21
454.565	4.33
454.769	4.36
454.972	4.33
455.175	4.25
455.379	4.23
455.582	4.18
455.785	4.13
455.988	4.03
456.192	4.02
456.395	3.89
456.598	3.84
456.801	3.73
457.005	3.61
457.208	3.63
457.411	3.56
457.614	3.64
457.817	3.67
458.021	3.63
458.224	3.65
458.427	3.62
458.63	3.71
458.833	3.69
459.036	3.74
459.239	3.82
459.442	3.83
459.645	3.93
459.848	3.87
460.051	3.93
460.254	3.96
460.457	4.07
460.66	4.14
460.863	4.15
461.066	4.28
461.269	4.26
461.472	4.38
461.675	4.37
461.878	4.33
462.081	4.33
462.284	4.22
462.486	4.2
462.689	4.09
462.892	4.08
463.095	4.02
463.298	3.83
463.5	3.91
463.703	3.84
463.906	3.86
464.109	3.8
464.311	3.89
464.514	3.91
464.717	3.98
464.92	4.05
465.122	3.99
465.325	4.02
465.528	4.17
465.73	4.1
465.933	4.12
466.135	4.16
466.338	4.24
466.541	4.26
466.743	4.31
466.946	4.26
467.148	4.28
467.351	4.28
467.553	4.26
467.756	4.19
467.958	4.15
468.161	4.22
468.363	4.17
468.566	4.06
468.768	4
468.971	4.04
469.173	4.08
469.375	4.03
469.578	4.03
469.78	3.93
469.983	4
470.185	4.08
470.387	4
470.59	3.98
470.792	3.99
470.994	3.92
471.196	3.84
471.399	3.72
471.601	3.78
471.803	3.68
472.005	3.84
472.208	3.86
472.41	3.83
472.612	3.77
472.814	3.69
473.016	3.76
473.218	3.81
473.421	3.81
473.623	3.89
473.825	3.89
474.027	3.99
474.229	3.95
474.431	3.88
474.633	3.83
474.835	3.86
475.037	3.96
475.239	3.83
475.441	3.81
475.643	3.8
475.845	3.78
476.047	3.69
476.249	3.73
476.451	3.72
476.653	3.72
476.855	3.72
477.057	3.84
477.258	3.8
477.46	3.97
477.662	4.01
477.864	3.99
478.066	3.96
478.268	4.08
478.469	4.09
478.671	4.1
478.873	4.06
479.075	4.03
479.276	3.93
479.478	3.99
479.68	3.92
479.882	3.89
480.083	3.89
480.285	3.87
480.487	3.75
480.688	3.65
480.89	3.6
481.091	3.56
481.293	3.6
481.495	3.59
481.696	3.52
481.898	3.49
482.099	3.47
482.301	3.48
482.502	3.46
482.704	3.48
482.905	3.5
483.107	3.5
483.308	3.51
483.51	3.49
483.711	3.5
483.913	3.54
484.114	3.55
484.315	3.59
484.517	3.6
484.718	3.62
484.92	3.62
485.121	3.64
485.322	3.62
485.524	3.67
485.725	3.68
485.926	3.69
486.127	3.66
486.329	3.67
486.53	3.66
486.731	3.61
486.932	3.65
487.134	3.63
487.335	3.6
487.536	3.64
487.737	3.58
487.938	3.59
488.139	3.57
488.341	3.6
488.542	3.58
488.743	3.55
488.944	3.6
489.145	3.58
489.346	3.64
489.547	3.66
489.748	3.64
489.949	3.68
490.15	3.66
490.351	3.63
490.552	3.59
490.753	3.57
490.954	3.59
491.155	3.63
491.356	3.62
491.557	3.61
491.758	3.63
491.959	3.66
492.159	3.7
492.36	3.77
492.561	3.81
492.762	3.89
492.963	4.02
493.164	4.07
493.364	4.05
493.565	4.13
493.766	4.11
493.967	4.15
494.167	4.13
494.368	4.08
494.569	4.03
494.769	4.01
494.97	3.99
495.171	3.95
495.371	3.9
495.572	3.93
495.773	3.87
495.973	3.91
496.174	3.87
496.375	3.94
496.575	3.96
496.776	3.95
496.976	4.03
497.177	4.04
497.377	4.08
497.578	4.1
497.778	4.09
497.979	4.1
498.179	4.02
498.38	4.07
498.58	3.97
498.78	3.96
498.981	3.99
499.181	3.99
499.382	3.98
499.582	3.91
499.782	3.85
499.983	3.89
500.183	3.91
500.383	4.05
500.584	3.98
500.784	4
500.984	4.01
501.184	4
501.385	3.95
501.585	3.91
501.785	3.9
501.985	3.99
502.185	3.93
502.386	3.92
502.586	3.89
502.786	3.99
502.986	4.04
503.186	4.03
503.386	4
503.586	4.1
503.786	4.22
503.987	4.3
504.187	4.27
504.387	4.3
504.587	4.38
504.787	4.38
504.987	4.32
505.187	4.29
505.387	4.46
505.587	4.52
505.786	4.47
505.986	4.42
506.186	4.44
506.386	4.52
506.586	4.49
506.786	4.45
506.986	4.45
507.186	4.5
507.386	4.46
507.585	4.38
507.785	4.36
507.985	4.42
508.185	4.43
508.384	4.44
508.584	4.45
508.784	4.5
508.984	4.52
509.183	4.54
509.383	4.52
509.583	4.57
509.782	4.54
509.982	4.62
510.182	4.7
510.381	4.76
510.581	4.73
510.781	4.71
510.98	4.72
511.18	4.71
511.379	4.72
511.579	4.69
511.778	4.73
511.978	4.79
512.177	4.73
512.377	4.63
512.576	4.62
512.776	4.72
512.975	4.72
513.175	4.74
513.374	4.8
513.573	4.92
513.773	4.99
513.972	5.02
514.172	5.08
514.371	5.11
514.57	5.1
514.77	5.05
514.969	5
515.168	5.01
515.367	5.01
515.567	4.99
515.766	4.85
515.965	4.86
516.164	4.73
516.364	4.61
516.563	4.59
516.762	4.61
516.961	4.68
517.16	4.68
517.359	4.72
517.559	4.71
517.758	4.79
517.957	4.89
518.156	4.91
518.355	5.04
518.554	5.15
518.753	5.21
518.952	5.26
519.151	5.3
519.35	5.33
519.549	5.28
519.748	5.32
519.947	5.23
520.146	5.2
520.345	5.2
520.544	5.22
520.743	5.26
520.942	5.26
521.141	5.27
521.339	5.27
521.538	5.35
521.737	5.46
521.936	5.5
522.135	5.53
522.333	5.5
522.532	5.55
522.731	5.55
522.93	5.49
523.129	5.55
523.327	5.57
523.526	5.53
523.725	5.54
523.923	5.52
524.122	5.52
524.321	5.58
524.519	5.64
524.718	5.63
524.917	5.67
525.115	5.67
525.314	5.69
525.512	5.67
525.711	5.65
525.909	5.61
526.108	5.62
526.306	5.6
526.505	5.58
526.703	5.55
526.902	5.54
527.1	5.5
527.299	5.52
527.497	5.53
527.696	5.56
527.894	5.62
528.092	5.61
528.291	5.62
528.489	5.67
528.688	5.69
528.886	5.72
529.084	5.73
529.283	5.76
529.481	5.82
529.679	5.83
529.877	5.82
530.076	5.8
530.274	5.89
530.472	5.91
530.67	5.89
530.869	5.91
531.067	5.96
531.265	6
531.463	6.03
531.661	6.03
531.859	5.99
532.057	6.04
532.255	6.1
532.454	6.13
532.652	6.17
532.85	6.21
533.048	6.24
533.246	6.26
533.444	6.31
533.642	6.34
533.84	6.31
534.038	6.39
534.236	6.37
534.434	6.36
534.632	6.34
534.83	6.36
535.027	6.41
535.225	6.38
535.423	6.41
535.621	6.46
535.819	6.6
536.017	6.7
536.215	6.75
536.412	6.8
536.61	6.82
536.808	6.9
537.006	6.88
537.203	6.9
537.401	7.02
537.599	7.04
537.797	7.05
537.994	6.85
538.192	6.81
538.39	6.81
538.587	6.8
538.785	6.88
538.983	6.91
539.18	6.99
539.378	6.99
539.575	7
539.773	7.05
539.97	7.02
540.168	7.08
540.366	7.12
540.563	7.12
540.761	7.15
540.958	7.17
541.155	7.18
541.353	7.17
541.55	7.2
541.748	7.25
541.945	7.24
542.143	7.32
542.34	7.42
542.537	7.48
542.735	7.56
542.932	7.64
543.129	7.62
543.327	7.65
543.524	7.68
543.721	7.67
543.919	7.72
544.116	7.74
544.313	7.69
544.51	7.68
544.708	7.7
544.905	7.66
545.102	7.74
545.299	7.82
545.496	7.87
545.693	7.87
545.891	7.98
546.088	8
546.285	8.13
546.482	8.3
546.679	8.39
546.876	8.37
547.073	8.45
547.27	8.42
547.467	8.42
547.664	8.42
547.861	8.56
548.058	8.61
548.255	8.65
548.452	8.63
548.649	8.64
548.846	8.62
549.043	8.66
549.24	8.75
549.437	8.83
549.633	8.92
549.83	9.07
550.027	9
550.224	8.98
550.421	8.99
550.618	9.11
550.814	8.99
551.011	8.98
551.208	9.04
551.405	9.14
551.601	9.16
551.798	9.14
551.995	9.11
552.191	9.27
552.388	9.3
552.585	9.24
552.781	9.2
552.978	9.38
553.175	9.49
553.371	9.56
553.568	9.63
553.764	9.66
553.961	9.74
554.157	9.73
554.354	9.76
554.55	9.93
554.747	10.15
554.943	10.16
555.14	10.27
555.336	10.42
555.533	10.47
555.729	10.43
555.926	10.53
556.122	10.64
556.318	10.83
556.515	10.87
556.711	10.86
556.907	10.86
557.104	10.92
557.3	10.87
557.496	10.83
557.693	10.82
557.889	10.9
558.085	10.98
558.281	11.03
558.478	11.02
558.674	11.09
558.87	11.08
559.066	11.13
559.262	11.19
559.459	11.32
559.655	11.37
559.851	11.54
560.047	11.7
560.243	11.71
560.439	11.74
560.635	11.76
560.831	11.83
561.027	11.92
561.223	11.95
561.419	11.96
561.615	11.96
561.811	12.1
562.007	12.13
562.203	12.22
562.399	12.22
562.595	12.26
562.791	12.55
562.987	12.58
563.183	12.72
563.379	12.74
563.575	12.82
563.771	12.88
563.966	12.99
564.162	13.05
564.358	13
564.554	13.17
564.75	13.2
564.945	13.1
565.141	13.17
565.337	13.24
565.533	13.38
565.728	13.51
565.924	13.64
566.12	13.59
566.315	13.6
566.511	13.67
566.707	13.73
566.902	13.83
567.098	13.83
567.293	13.85
567.489	13.87
567.684	13.9
567.88	13.95
568.076	13.96
568.271	14.03
568.467	14.05
568.662	14.15
568.858	14.16
569.053	14.19
569.248	14.26
569.444	14.42
569.639	14.45
569.835	14.52
570.03	14.59
570.225	14.57
570.421	14.58
570.616	14.65
570.812	14.64
571.007	14.69
571.202	14.81
571.397	14.88
571.593	14.75
571.788	14.83
571.983	14.94
572.178	14.94
572.374	15.14
572.569	15.29
572.764	15.39
572.959	15.46
573.154	15.52
573.35	15.57
573.545	15.67
573.74	15.84
573.935	15.86
574.13	15.83
574.325	15.81
574.52	15.78
574.715	15.79
574.91	15.77
575.105	15.79
575.3	15.79
575.495	15.83
575.69	15.83
575.885	15.81
576.08	15.84
576.275	15.89
576.47	16
576.665	16.02
576.86	16.12
577.055	16.15
577.25	16.14
577.444	16.23
577.639	16.24
577.834	16.34
578.029	16.51
578.224	16.56
578.418	16.52
578.613	16.64
578.808	16.69
579.003	16.59
579.197	16.76
579.392	16.9
579.587	16.99
579.781	17.03
579.976	17.07
580.171	16.97
580.365	16.95
580.56	17.04
580.755	17.11
580.949	17.15
581.144	17.3
581.338	17.28
581.533	17.31
581.727	17.19
581.922	17.29
582.116	17.25
582.311	17.4
582.505	17.57
582.7	17.59
582.894	17.58
583.089	17.62
583.283	17.52
583.478	17.53
583.672	17.63
583.866	17.67
584.061	17.62
584.255	17.74
584.449	17.76
584.644	17.71
584.838	17.89
585.032	17.98
585.226	17.96
585.421	18.2
585.615	18.3
585.809	18.23
586.003	18.25
586.198	18.29
586.392	18.24
586.586	18.29
586.78	18.3
586.974	18.28
587.168	18.17
587.363	18.26
587.557	18.19
587.751	18.09
587.945	18.07
588.139	18.26
588.333	18.19
588.527	18.32
588.721	18.25
588.915	18.39
589.109	18.45
589.303	18.43
589.497	18.45
589.691	18.5
589.885	18.59
590.079	18.7
590.273	18.66
590.466	18.89
590.66	18.86
590.854	18.92
591.048	18.89
591.242	18.77
591.436	18.95
591.629	19.07
591.823	19.14
592.017	19.12
592.211	19.26
592.404	19.18
592.598	19.12
592.792	19.19
592.986	19.16
593.179	19.15
593.373	19.13
593.567	19.25
593.76	19.14
593.954	19.04
594.147	19.19
594.341	19.15
594.535	19.25
594.728	19.2
594.922	19.16
595.115	19.14
595.309	19.18
595.502	19.23
595.696	19.16
595.889	19.22
596.083	19.26
596.276	19.21
596.47	19.19
596.663	19.22
596.856	19.26
597.05	19.32
597.243	19.36
597.437	19.31
597.63	19.34
597.823	19.24
598.017	19.2
598.21	19.26
598.403	19.35
598.596	19.27
598.79	19.27
598.983	19.3
599.176	19.33
599.369	19.32
599.563	19.42
599.756	19.59
599.949	19.74
600.142	19.68
600.335	19.66
600.528	19.67
600.722	19.67
600.915	19.71
601.108	19.82
601.301	19.89
601.494	19.89
601.687	19.97
601.88	19.88
602.073	19.72
602.266	19.8
602.459	19.8
602.652	19.84
602.845	19.98
603.038	19.98
603.231	19.91
603.424	19.9
603.617	19.99
603.809	19.95
604.002	20.07
604.195	20.16
604.388	20.24
604.581	20.37
604.774	20.35
604.966	20.27
605.159	20.3
605.352	20.34
605.545	20.34
605.737	20.31
605.93	20.36
606.123	20.36
606.316	20.49
606.508	20.46
606.701	20.45
606.894	20.47
607.086	20.57
607.279	20.68
607.471	20.67
607.664	20.64
607.857	20.81
608.049	20.87
608.242	20.86
608.434	20.87
608.627	20.92
608.819	20.97
609.012	21.08
609.204	21.15
609.397	21.1
609.589	21.23
609.782	21.29
609.974	21.18
610.166	21.22
610.359	21.19
610.551	21.15
610.743	21.04
610.936	21
611.128	20.96
611.32	21.02
611.513	21.1
611.705	20.93
611.897	20.91
612.09	21.06
612.282	20.95
612.474	21.03
612.666	21.04
612.858	21.16
613.051	21.06
613.243	20.99
613.435	20.97
613.627	20.97
613.819	21.19
614.011	21.35
614.203	21.32
614.395	21.15
614.588	21.12
614.78	21.12
614.972	21.22
615.164	21.43
615.356	21.54
615.548	21.21
615.74	21.27
615.932	21.26
616.124	21.03
616.315	20.97
616.507	21.2
616.699	21.26
616.891	21.31
617.083	21.08
617.275	20.91
617.467	20.79
617.659	21.04
617.85	20.87
618.042	20.77
618.234	20.92
618.426	20.97
618.618	20.97
618.809	21
619.001	21.01
619.193	21.26
619.384	21.21
619.576	21.3
619.768	21.17
619.959	21.26
620.151	21.37
620.343	21.45
620.534	21.49
620.726	21.54
620.917	21.55
621.109	21.69
621.301	21.57
621.492	21.74
621.684	21.78
621.875	21.94
622.067	21.98
622.258	21.86
622.45	21.87
622.641	21.91
622.832	21.89
623.024	21.75
623.215	21.73
623.407	21.81
623.598	21.81
623.789	21.67
623.981	21.71
624.172	21.64
624.363	21.62
624.555	21.54
624.746	21.32
624.937	21.37
625.129	21.37
625.32	21.24
625.511	21.24
625.702	21.21
625.893	21.45
626.085	21.3
626.276	21.28
626.467	21.29
626.658	21.38
626.849	21.59
627.04	21.62
627.231	21.67
627.422	21.83
627.614	21.85
627.805	21.83
627.996	21.69
628.187	21.8
628.378	21.93
628.569	22.08
628.76	22.01
628.951	21.92
629.142	21.78
629.332	21.67
629.523	21.66
629.714	21.59
629.905	21.54
630.096	21.45
630.287	21.59
630.478	21.47
630.669	21.37
630.859	21.46
631.05	21.58
631.241	21.66
631.432	21.85
631.623	21.82
631.813	21.77
632.004	21.9
632.195	21.95
632.385	21.81
632.576	21.95
632.767	21.96
632.957	21.88
633.148	22.01
633.339	21.91
633.529	21.91
633.72	21.91
633.91	22.04
634.101	22.13
634.292	22.26
634.482	22.38
634.673	22.34
634.863	22.42
635.054	22.41
635.244	22.25
635.435	22.46
635.625	22.48
635.815	22.49
636.006	22.64
636.196	22.49
636.387	22.43
636.577	22.38
636.767	22.48
636.958	22.48
637.148	22.72
637.338	22.7
637.529	22.61
637.719	22.73
637.909	22.66
638.099	22.59
638.29	22.52
638.48	22.6
638.67	22.59
638.86	22.52
639.05	22.57
639.241	22.4
639.431	22.41
639.621	22.35
639.811	22.24
640.001	22.17
640.191	22.3
640.381	22.53
640.571	22.39
640.761	22.26
640.951	22.26
641.141	22.16
641.331	22.08
641.521	22.12
641.711	22.21
641.901	22.31
642.091	22.36
642.281	22.09
642.471	21.97
642.661	22.23
642.851	22.51
643.041	22.54
643.231	22.52
643.42	22.49
643.61	22.55
643.8	22.57
643.99	22.42
644.18	22.67
644.369	22.69
644.559	22.65
644.749	22.49
644.939	22.39
645.128	22.44
645.318	22.63
645.508	22.86
645.697	22.78
645.887	22.85
646.076	22.84
646.266	22.74
646.456	22.85
646.645	22.95
646.835	22.89
647.024	22.99
647.214	22.99
647.403	23
647.593	22.89
647.782	22.89
647.972	22.8
648.161	23.04
648.351	23.02
648.54	23.09
648.73	23.18
648.919	23.23
649.108	23.05
649.298	22.9
649.487	22.72
649.677	22.76
649.866	22.81
650.055	22.76
650.244	22.47
650.434	22.61
650.623	22.53
650.812	22.54
651.002	22.48
651.191	22.72
651.38	22.84
651.569	22.96
651.758	22.98
651.947	22.96
652.137	23.09
652.326	23.4
652.515	23.29
652.704	23.31
652.893	23.28
653.082	23.35
653.271	23.17
653.46	23.13
653.649	23.12
653.838	23.22
654.027	23.19
654.216	23.22
654.405	23.28
654.594	23.13
654.783	23.2
654.972	23.19
655.161	23.47
655.35	23.61
655.539	23.77
655.728	23.79
655.916	23.46
656.105	23.54
656.294	23.52
656.483	23.5
656.672	23.49
656.86	23.39
657.049	23.15
657.238	22.9
657.427	22.89
657.615	22.55
657.804	22.66
657.993	22.85
658.181	22.77
658.37	22.85
658.559	22.67
658.747	23.01
658.936	23.07
659.125	23.64
659.313	23.79
659.502	23.95
659.69	24.17
659.879	24.06
660.067	24.14
660.256	24.19
660.444	24.09
660.633	24.3
660.821	24.2
661.01	24.25
661.198	23.63
661.387	23.59
661.575	23.43
661.763	23.51
661.952	23.57
662.14	23.56
662.328	23.54
662.517	23.67
662.705	23.66
662.893	23.41
663.082	23.34
663.27	23.52
663.458	23.47
663.646	23.56
663.834	23.85
664.023	23.87
664.211	23.94
664.399	24.05
664.587	23.97
664.775	24.09
664.963	24.05
665.152	24.27
665.34	24.45
665.528	24.29
665.716	24.23
665.904	23.84
666.092	23.88
666.28	23.86
666.468	23.7
666.656	23.62
666.844	23.35
667.032	23.58
667.22	23.49
667.408	23.16
667.596	23.37
667.784	23.09
667.971	22.89
668.159	22.74
668.347	22.65
668.535	22.93
668.723	23.05
668.911	22.95
669.098	22.69
669.286	22.63
669.474	23.09
669.662	22.81
669.849	23.01
670.037	23.44
670.225	23.7
670.413	23.57
670.6	23.41
670.788	23.17
670.976	23.27
671.163	23.62
671.351	23.42
671.538	23
671.726	23.22
671.913	23.41
672.101	23.37
672.289	22.9
672.476	23.01
672.664	23.32
672.851	23.45
673.039	23.8
673.226	23.82
673.413	23.89
673.601	24.18
673.788	24.18
673.976	24.22
674.163	24.12
674.35	24.38
674.538	24.62
674.725	24.42
674.912	24.43
675.1	24.15
675.287	24.2
675.474	24.18
675.662	24.03
675.849	24.13
676.036	23.95
676.223	23.94
676.411	23.99
676.598	23.82
676.785	23.76
676.972	23.64
677.159	23.64
677.346	23.39
677.533	23.47
677.721	23.41
677.908	23.53
678.095	23.76
678.282	23.68
678.469	23.48
678.656	23.51
678.843	23.74
679.03	23.95
679.217	24.19
679.404	24.39
679.591	24.4
679.778	24.37
679.964	24.18
680.151	23.74
680.338	23.86
680.525	24.09
680.712	24.35
680.899	24.29
681.086	24.16
681.272	23.99
681.459	23.94
681.646	24.01
681.833	24.23
682.02	24.27
682.206	24.4
682.393	24.59
682.58	24.77
682.766	24.46
682.953	24.38
683.14	24.68
683.326	24.75
683.513	24.82
683.7	24.95
683.886	24.88
684.073	24.97
684.259	25.09
684.446	24.88
684.632	24.86
684.819	24.83
685.005	25.06
685.192	24.79
685.378	24.56
685.565	24.32
685.751	24.26
685.938	24.38
686.124	24.32
686.31	24.6
686.497	24.8
686.683	24.57
686.87	24.59
687.056	24.37
687.242	24.41
687.429	24.63
687.615	24.76
687.801	24.86
687.987	24.79
688.174	24.9
688.36	24.81
688.546	24.56
688.732	24.61
688.918	24.59
689.105	24.54
689.291	24.39
689.477	24.12
689.663	24.16
689.849	24.15
690.035	24.17
690.221	24.34
690.407	24.4
690.593	24.26
690.779	24.32
690.965	24.42
691.151	24.52
691.337	24.88
691.523	24.82
691.709	24.65
691.895	24.5
692.081	24.26
692.267	23.96
692.453	23.91
692.639	24.26
692.825	24.15
693.011	23.93
693.196	23.82
693.382	23.54
693.568	23.83
693.754	24.19
693.94	24.27
694.125	24.48
694.311	24.73
694.497	24.32
694.682	23.92
694.868	24.18
695.054	24.42
695.239	24.58
695.425	24.62
695.611	24.32
695.796	24.15
695.982	24.03
696.168	23.81
696.353	23.75
696.539	23.88
696.724	23.85
696.91	23.78
697.095	23.85
697.281	23.77
697.466	23.74
697.652	23.99
697.837	24.17
698.023	24.26
698.208	24.41
698.393	24.42
698.579	24.61
698.764	24.78
698.949	24.74
699.135	24.84
699.32	25.02
699.505	25.18
699.691	25.18
699.876	24.95
700.061	24.92
700.246	24.7
700.432	24.4
700.617	24.18
700.802	24.14
700.987	23.94
701.172	23.87
701.358	23.47
701.543	23.52
701.728	23.24
701.913	23.25
702.098	23.57
702.283	23.79
702.468	24.09
702.653	24.39
702.838	24.58
703.023	24.72
703.208	24.56
703.393	24.69
703.578	24.6
703.763	24.77
703.948	24.63
704.133	24.55
704.318	24.91
704.503	24.5
704.688	24.64
704.873	24.33
705.057	24.65
705.242	25.01
705.427	25.25
705.612	25.04
705.797	24.95
705.981	25.51
706.166	25.53
706.351	25.44
706.536	25.6
706.72	25.61
706.905	25.91
707.09	25.65
707.274	24.99
707.459	24.84
707.644	24.66
707.828	24.88
708.013	24.67
708.197	24.34
708.382	24.01
708.567	24.14
708.751	24.03
708.936	23.71
709.12	24.08
709.305	24.25
709.489	24.15
709.673	24.56
709.858	24.31
710.042	24.01
710.227	24.11
710.411	24.15
710.596	24.15
710.78	24.16
710.964	24.34
711.149	24.1
711.333	24.18
711.517	24.12
711.702	24.04
711.886	24.38
712.07	24.88
712.254	25.02
712.438	25.22
712.623	25.32
712.807	25
712.991	25.25
713.175	25.24
713.359	25.2
713.544	25.6
713.728	25.91
713.912	25.48
714.096	25.15
714.28	25.11
714.464	25.14
714.648	24.99
714.832	24.88
715.016	24.62
715.2	24.64
715.384	24.92
715.568	24.7
715.752	24.44
715.936	24.72
716.12	24.35
716.304	24.15
716.488	23.99
716.671	23.87
716.855	24.28
717.039	24.89
717.223	24.85
717.407	24.62
717.59	24.77
717.774	25.05
717.958	25
718.142	25.36
718.325	25.84
718.509	25.91
718.693	26.27
718.877	25.88
719.06	25.68
719.244	25.96
719.428	25.94
719.611	25.8
719.795	25.17
719.978	25.35
720.162	25.24
720.345	25.25
720.529	25.61
720.713	25.59
720.896	25.85
721.08	25.05
721.263	25.01
721.446	25.33
721.63	25.08
721.813	25.36
721.997	25.15
722.18	25.24
722.364	25.13
722.547	24.72
722.73	24.82
722.914	25.08
723.097	25.38
723.28	25.5
723.464	25.55
723.647	25.83
723.83	26.08
724.013	26.4
724.197	26.51
724.38	26.29
724.563	26.3
724.746	26.65
724.929	26.36
725.112	26.99
725.296	26.62
725.479	26.28
725.662	26.55
725.845	26.73
726.028	26.65
726.211	26.51
726.394	26.86
726.577	27.02
726.76	26.42
726.943	26.54
727.126	26.32
727.309	26.11
727.492	25.87
727.675	25.33
727.858	24.83
728.041	24.78
728.224	24.98
728.407	24.81
728.589	25.24
728.772	25.53
728.955	25.61
729.138	25.39
729.321	25.73
729.503	26.2
729.686	26.64
729.869	27.06
730.052	27.46
730.234	27.07
730.417	26.73
730.6	26.23
730.782	26.29
730.965	26.47
731.148	26.42
731.33	26.51
731.513	26.56
731.695	26.41
731.878	26.24
732.061	25.81
732.243	26.38
732.426	26.45
732.608	26.38
732.791	26.42
732.973	26.3
733.156	26.46
733.338	26.19
733.52	25.92
733.703	25.94
733.885	26.57
734.068	26.65
734.25	26.52
734.432	26.58
734.615	26.52
734.797	26.34
734.979	26.34
735.162	26.55
735.344	26.41
735.526	26.18
735.708	26.17
735.891	25.55
736.073	25.57
736.255	25.58
736.437	25.88
736.619	26.13
736.802	26.09
736.984	26.42
737.166	26.18
737.348	26.41
737.53	26.25
737.712	26.62
737.894	26.36
738.076	26.54
738.258	26.36
738.44	26.59
738.622	26.28
738.804	26.24
738.986	25.84
739.168	25.74
739.35	25.79
739.532	26.58
739.714	25.99
739.896	25.64
740.078	25.81
740.259	25.81
740.441	25.32
740.623	25.22
740.805	25.31
740.987	25.49
741.168	25.19
741.35	25.13
741.532	24.92
741.714	24.43
741.895	25.28
742.077	24.77
742.259	24.91
742.44	24.91
742.622	25.42
742.804	25.34
742.985	24.95
743.167	24.82
743.348	25.19
743.53	24.62
743.711	25.4
743.893	25.69
744.075	26.08
744.256	25.47
744.438	25.97
744.619	25.85
744.8	25.98
744.982	26.33
745.163	26.5
745.345	26.43
745.526	27.08
745.707	27.1
745.889	27.03
746.07	26.47
746.252	27.42
746.433	27.14
746.614	27.2
746.795	26.85
746.977	26.88
747.158	27.05
747.339	27.19
747.52	26.83
747.702	26.77
747.883	26.45
748.064	26.12
748.245	25.05
748.426	25.44
748.607	25.76
748.788	25.97
748.97	25.67
749.151	26.1
749.332	25.66
749.513	25.96
749.694	25.93
749.875	25.97
750.056	27.25
750.237	28.02
750.418	27.81
750.599	27.78
750.78	27.83
750.96	28.04
751.141	28.36
751.322	28.21
751.503	28.09
751.684	28.42
751.865	28.03
752.046	27.84
752.226	27.41
752.407	27.59
752.588	27.4
752.769	27.34
752.949	27.12
753.13	26.45
753.311	26.39
753.492	26.58
753.672	26.26
753.853	26.4
754.034	26.13
754.214	26.89
754.395	26.15
754.575	26.45
754.756	26.66
754.937	27.24
755.117	27.48
755.298	27.88
755.478	27.9
755.659	28.05
755.839	28.59
756.02	28.3
756.2	27.63
756.381	27.68
756.561	27.28
756.741	27.24
756.922	26.97
757.102	27.05
757.283	27.32
757.463	27.49
757.643	28.26
757.823	27.8
758.004	27.59
758.184	28.35
758.364	28.48
758.545	28.47
758.725	28.16
758.905	27.81
759.085	27.73
759.265	27.43
759.446	26.67
759.626	26.44
759.806	26.28
759.986	26.48
760.166	26.09
760.346	26.16
760.526	25.57
760.706	26.74
760.886	26.81
761.066	27.03
761.246	26.79
761.426	27.59
761.606	27.11
761.786	27.17
761.966	27.57
762.146	27.26
762.326	27.34
762.506	27.85
762.686	26.83
762.866	26.8
763.046	26.49
763.225	26.92
763.405	26.57
763.585	26.6
763.765	26.6
763.945	25.99
764.124	26.2
764.304	25.82
764.484	25.71
764.664	25.99
764.843	25.7
765.023	25.78
765.203	25.33
765.382	25.45
765.562	25.06
765.741	24.6
765.921	25.26
766.101	25.53
766.28	25.56
766.46	25.1
766.639	25.26
766.819	25.63
766.998	25.73
767.178	26.03
767.357	26.06
767.537	26.29
767.716	26.57
767.896	26.14
768.075	25.83
768.254	25.89
768.434	26.76
768.613	26.97
768.792	26.67
768.972	26.79
769.151	26.96
769.33	27.26
769.51	27.07
769.689	27.52
769.868	27.5
770.047	27.69
770.226	28.66
770.406	27.72
770.585	27.84
770.764	28.59
770.943	28.44
771.122	27.97
771.301	27.58
771.48	27.48
771.66	27.4
771.839	27.74
772.018	27.27
772.197	25.99
772.376	26.44
772.555	25.9
772.734	26.05
772.913	25.76
773.092	25.95
773.271	25.98
773.449	25.87
773.628	25.75
773.807	26.13
773.986	26.41
774.165	27.36
774.344	28.07
774.523	27.94
774.701	27.4
774.88	27.61
775.059	27.3
775.238	27.27
775.417	27.7
775.595	28.7
775.774	28.97
775.953	29.81
776.131	29.22
776.31	28.44
776.489	28.51
776.667	28.59
776.846	29.07
777.025	29.4
777.203	29.39
777.382	30.09
777.56	29.07
777.739	28.17
777.917	27.32
778.096	26.67
778.274	26.03
778.453	26.27
778.631	26.55
778.81	26.48
778.988	26.6
779.166	27.16
779.345	26.81
779.523	26.88
779.702	25.81
779.88	26.18
780.058	26.85
780.237	27.64
780.415	27.66
780.593	28.04
780.771	27.36
780.95	27.31
781.128	26.6
781.306	26.05
781.484	25.66
781.662	27.02
781.841	26.71
782.019	27.18
782.197	27.35
782.375	27.02
782.553	26.89
782.731	27.04
782.909	27.14
783.087	28.22
783.265	29.73
783.443	29.7
783.621	29.24
783.799	29.1
783.977	30.47
784.155	30.57
784.333	30.68
784.511	29.62
784.689	29.13
784.867	28.42
785.045	27.8
785.223	26.51
785.4	27.3
785.578	27.56
785.756	27.43
785.934	25.81
786.112	26.09
786.289	26.43
786.467	26.78
786.645	26.69
786.823	26.67
787	25.8
787.178	25.78
787.356	25.75
787.533	25.17
787.711	26.33
787.889	26.65
788.066	26.7
788.244	26.48
788.421	26.91
788.599	27.82
788.776	27.88
788.954	28.48
789.131	28.92
789.309	29.01
789.486	29.1
789.664	28.04
789.841	28.93
790.019	28.73
790.196	29.26
790.373	28.7
790.551	28.36
790.728	29.54
790.906	28.69
791.083	28.96
791.26	28.02
791.437	28.02
791.615	29
791.792	28.01
791.969	27.09
792.146	27.18
792.324	27.19
792.501	27.42
792.678	27.53
792.855	28.74
793.032	28.38
793.209	29.14
793.387	29.82
793.564	29.64
793.741	29.08
793.918	30.12
794.095	29.11
794.272	29.52
794.449	29.34
794.626	29.74
794.803	28.9
794.98	28.74
795.157	29.01
795.334	29.22
795.511	29.15
795.688	29.85
795.864	29.76
796.041	29.69
796.218	30.22
796.395	29.83
796.572	29.64
796.749	30.81
796.925	31.08
797.102	31
797.279	30.18
797.456	31.03
797.632	30.38
797.809	30.06
797.986	30.87
798.162	30.43
798.339	30.48
798.516	30.03
798.692	29.26
798.869	29.39
799.046	28.69
799.222	29.68
799.399	28.63
799.575	29.52
799.752	29.29
799.928	28.79
800.105	28.46
800.281	28.29
800.458	27.27
800.634	27.86
800.811	27.27
800.987	27.83
801.163	27.2
801.34	26.6
801.516	26.98
801.692	27.96
801.869	28.23
802.045	29.08
802.221	29.84
802.398	30.02
802.574	29.23
802.75	30.01
802.926	30.24
803.103	30.15
803.279	30.34
803.455	29.28
803.631	29.54
803.807	29.17
803.983	29.39
804.16	29.93
804.336	29.95
804.512	30.27
804.688	29.79
804.864	29.21
805.04	29.4
805.216	29.72
805.392	29.35
805.568	27.2
805.744	27.71
805.92	26.95
806.096	26.43
806.272	27.57
806.448	27.52
806.623	28.29
806.799	29.37
806.975	29.21
807.151	28.76
807.327	29.34
807.503	30.74
807.678	31.11
807.854	31.15
808.03	31.96
808.206	30.71
808.381	30.63
808.557	30.19
808.733	29.66
808.908	30.13
809.084	30.26
809.26	30.72
809.435	31.44
809.611	32.32
809.787	32.19
809.962	30.56
810.138	30.59
810.313	31.31
810.489	31.4
810.664	30.89
810.84	31.56
811.015	32.94
811.191	32.59
811.366	33.09
811.542	31.18
811.717	30.87
811.892	31.88
812.068	32.31
812.243	31.7
812.419	30.43
812.594	31.18
812.769	29.84
812.944	29.41
813.12	29.39
813.295	27.8
813.47	28.55
813.645	29.88
813.821	29.57
813.996	29.65
814.171	29.1
814.346	29.33
814.521	30.95
814.697	31.39
814.872	30.69
815.047	30.48
815.222	30.97
815.397	30.45
815.572	28.92
815.747	29.51
815.922	29.03
816.097	30.34
816.272	30.4
816.447	28.58
816.622	27.93
816.797	28.36
816.972	29.02
817.147	29.47
817.322	29.74
817.496	30.14
817.671	29.68
817.846	30.66
818.021	30
818.196	30.35
818.371	30.17
818.545	30.9
818.72	30.74
818.895	30.63
819.069	30.13
819.244	30.78
819.419	30.41
819.594	29.95
819.768	29.19
819.943	28.94
820.117	28.41
820.292	28.47
820.467	27.85
820.641	27.3
820.816	26.58
820.99	26.3
821.165	26.23
821.339	25.96
821.514	25.63
821.688	25.5
821.863	25.37
822.037	25.34
822.212	25.33
822.386	25.49
822.56	25.56
822.735	25.67
822.909	26.02
823.084	25.86
823.258	26.09
823.432	26.26
823.606	26.48
823.781	26.63
823.955	26.82
824.129	26.78
824.303	26.46
824.478	26.53
824.652	26.59
824.826	25.79
825	25.72
825.174	25.78
825.348	25.89
825.523	26.39
825.697	26.34
825.871	26.17
826.045	26.38
826.219	26.68
826.393	26.87
826.567	27.34
826.741	27.73
826.915	27.8
827.089	27.8
827.263	28.04
827.437	27.46
827.611	27.58
827.784	27.73
827.958	27.74
828.132	28.34
828.306	27.91
828.48	27.61
828.654	27.51
828.827	27.41
829.001	27.07
829.175	27.03
829.349	26.88
829.522	27.03
829.696	27.25
829.87	26.06
830.044	25.57
830.217	27.32
830.391	27.16
830.565	28.37
830.738	28.66
830.912	29.04
831.085	29.04
831.259	29.96
831.432	29.84
831.606	29.75
831.779	29.64
831.953	29.2
832.126	27.56
832.3	28.11
832.473	27.21
832.647	27.56
832.82	28.06
832.994	28.01
833.167	27.81
833.34	27.6
833.514	27.17
833.687	27.47
833.86	26.82
834.034	26.56
834.207	25.26
834.38	25.46
834.553	24.9
834.727	24.87
834.9	24.18
835.073	24.32
835.246	23.65
835.419	23.27
835.593	23.94
835.766	24.86
835.939	26.07
836.112	27.52
836.285	28.1
836.458	28.91
836.631	28.57
836.804	29.98
836.977	28.62
837.15	29.91
837.323	31.04
837.496	29.8
837.669	29.18
837.842	29.06
838.015	29.07
838.188	27.65
838.361	26.28
838.533	27.71
838.706	27.05
838.879	28.37
839.052	28.17
839.225	27.64
839.398	29.81
839.57	30.15
839.743	29.83
839.916	29.93
840.088	32.46
840.261	33.6
840.434	34.47
840.607	34.6
840.779	34.48
840.952	34.6
841.124	35.63
841.297	34.96
841.47	36.08
841.642	35.94
841.815	38.28
841.987	36.3
842.16	38.64
842.332	36.43
842.505	36.53
842.677	36.46
842.85	35.82
843.022	35.49
843.194	35.48
843.367	35.89
843.539	37.04
843.712	34.21
843.884	34.59
844.056	31.79
844.229	29.92
844.401	31.56
844.573	32.92
844.745	32.4
844.918	31.85
845.09	32.57
845.262	31.65
845.434	29.99
845.606	29.57
845.779	30.7
845.951	30.9
846.123	31.59
846.295	28.7
846.467	28.33
846.639	29.76
846.811	32.1
846.983	33.06
847.155	33.8
847.327	34.43
847.499	34.56
847.671	34.04
847.843	28.34
848.015	29.1
848.187	29.08
848.359	29.04
848.531	29.4
848.703	29.66
848.875	28.98
849.047	30.37
849.218	30.19
849.39	30.66
849.562	29.8
849.734	37.53
849.905	38.36
850.077	40.34
850.249	37.95
850.421	38.45
850.592	39.06
850.764	38.8
850.936	35.31
851.107	37.21
851.279	39.43
851.451	43.1
851.622	40.18
851.794	41.59
851.965	44.85
852.137	47.17
852.308	47.58
852.48	45.26
852.651	44.55
852.823	47.92
852.994	47.07
853.166	45.53
853.337	42.01
853.509	43.92
853.68	39.92
853.851	35.34
854.023	36.35
854.194	34.14
854.365	36.45
854.537	37.39
854.708	34.76
854.879	33.53
855.05	34.75
855.222	33.3
855.393	33.73
855.564	35.92
855.735	42.21
855.906	42.78
856.078	43.6
856.249	42.95
856.42	42.29
856.591	44.42
856.762	46.68
856.933	43.67
857.104	44.84
857.275	41.44
857.446	43.8
857.617	40.22
857.788	39.83
857.959	42.72
858.13	44.37
858.301	46.88
858.472	45.87
858.643	43.09
858.814	45.6
858.985	45.97
859.155	49.94
859.326	51.36
859.497	48.56
859.668	47.12
859.839	43.74
860.009	39.52
860.18	36.18
860.351	35.65
860.522	32.59
860.692	33.37
860.863	33.19
861.034	31.16
861.204	29.69
861.375	35.04
861.546	34.32
861.716	35.14
861.887	37.82
862.057	39.67
862.228	40.83
862.398	45.71
862.569	41.95
862.739	42.32
862.91	42.37
863.08	38.34
863.251	33.44
863.421	32.41
863.592	39.03
863.762	40.3
863.932	40
864.103	40.64
864.273	38.86
864.443	39.4
864.614	39.6
864.784	38.58
864.954	41.34
865.125	41.51
865.295	44.78
865.465	41.92
865.635	40.97
865.805	40.66
865.976	39.47
866.146	40.02
866.316	43.17
866.486	42.92
866.656	43.18
866.826	45.61
866.996	45.83
867.166	44.6
867.336	42.75
867.506	44.71
867.676	42.7
867.846	42.89
868.016	41.85
868.186	41.06
868.356	41.42
868.526	42.99
868.696	36.94
868.866	35.2
869.036	35.61
869.206	37.47
869.376	38.08
869.545	41.05
869.715	41.97
869.885	44.93
870.055	44.09
870.224	46.73
870.394	47.08
870.564	49.68
870.734	49.89
870.903	45.27
871.073	45.83
871.243	44.51
871.412	46.81
871.582	46.47
871.751	46.52
871.921	44.78
872.091	44.88
872.26	44.76
872.43	44.09
872.599	45.25
872.769	48.27
872.938	48.53
873.108	45.67
873.277	42.01
873.446	40.92
873.616	36.6
873.785	36.68
873.955	34.04
874.124	32.69
874.293	34.47
874.463	34.4
874.632	36.38
874.801	35.41
874.971	34.97
875.14	33.32
875.309	33.21
875.478	32.35
875.647	36.44
875.817	36.31
875.986	37.44
876.155	35.9
876.324	34.54
876.493	34.92
876.662	33.27
876.831	36.39
877	40.39
877.17	39.64
877.339	42.51
877.508	37.2
877.677	35.45
877.846	34.45
878.015	35.12
878.184	37.33
878.352	35.43
878.521	37.42
878.69	39.42
878.859	37.25
879.028	37.16
879.197	35.96
879.366	38.6
879.534	37.51
879.703	38.3
879.872	37.18
880.041	34.82
880.21	32.96
880.378	31.84
880.547	29.34
880.716	30.17
880.884	29.79
881.053	29.02
881.222	27.97
881.39	28.19
881.559	28.04
881.727	27.54
881.896	28.33
882.065	28.44
882.233	27.95
882.402	28.23
882.57	27.33
882.739	27.09
882.907	27.98
883.076	27.78
883.244	27.73
883.412	26.83
883.581	27.13
883.749	27.35
883.918	27.13
884.086	28.14
884.254	28.46
884.423	28.87
884.591	30.03
884.759	30.18
884.927	30.86
885.096	31.63
885.264	32.73
885.432	31.93
885.6	31.09
885.769	32.32
885.937	31.04
886.105	31.72
886.273	32.58
886.441	31.01
886.609	31.63
886.777	31.61
886.945	31.06
887.113	29.81
887.281	31.2
887.449	31.78
887.617	30.03
887.785	29.05
887.953	28.07
888.121	26.2
888.289	26.12
888.457	22.35
888.625	23.09
888.793	20.8
888.961	25.8
889.129	25.38
889.296	25.6
889.464	28.24
889.632	30.26
889.8	28.74
889.967	29.95
890.135	32.48
