Data from 2938548_Reflection_2.txt Node
Date: Mon Jun 15 00:12:41 EDT 2015
User: robert
Spectrometer: USB4E03002
Autoset integration time: false
Trigger mode: 4
Integration Time (sec): 1.000000E-1
Scans to average: 10
Electric dark correction enabled: true
Nonlinearity correction enabled: false
Boxcar width: 5
Stray light correction enabled: false
XAxis mode: Wavelengths
Stop averaging: false
Number of Pixels in Spectrum: 3648
>>>>>Begin Spectral Data<<<<<
177.575	-42.99
177.794	-34.81
178.014	-28.31
178.233	-28.02
178.452	-11.39
178.672	-3.33
178.891	37.94
179.11	-33.28
179.33	-55.45
179.549	4.3
179.768	-32.89
179.987	-85.76
180.207	-81.04
180.426	-222.93
180.645	-141.31
180.864	-250.53
181.084	-224.03
181.303	-845.62
181.522	906.74
181.741	-806.9
181.96	3843.75
182.179	229.97
182.398	291.77
182.618	225.12
182.837	-3095.89
183.056	-221.21
183.275	-43.37
183.494	318.36
183.713	46.06
183.932	-43.54
184.151	-4.72
184.37	31.29
184.589	-1.96
184.808	9.37
185.027	72.95
185.246	45.14
185.465	128.48
185.684	82.51
185.903	135.02
186.122	158.65
186.341	425.52
186.56	576.03
186.779	-21.39
186.998	36.11
187.216	58.78
187.435	125.62
187.654	122.98
187.873	152.46
188.092	118.21
188.311	110.33
188.53	99.1
188.748	101.52
188.967	100.17
189.186	77.88
189.405	33.01
189.623	3.98
189.842	-0.88
190.061	-29.94
190.28	-74.06
190.498	-36.18
190.717	-8.94
190.936	209.1
191.154	232.67
191.373	1065
191.592	119.35
191.81	-28.67
192.029	-39.13
192.248	-11.78
192.466	-25.82
192.685	-25.09
192.904	22.4
193.122	46.16
193.341	82.5
193.559	68.24
193.778	-27.72
193.996	-23.57
194.215	-164.21
194.433	-104.72
194.652	-49.39
194.87	-116.63
195.089	1899.72
195.307	212.7
195.526	675.3
195.744	4831.58
195.963	-370.76
196.181	-896.1
196.399	-420.8
196.618	-514.99
196.836	-844.69
197.055	38.4
197.273	150.08
197.491	172.47
197.71	118.9
197.928	92.13
198.146	130.15
198.365	-45.42
198.583	-189.01
198.801	278.63
199.019	426.54
199.238	-5903.45
199.456	64.76
199.674	75.72
199.892	396.17
200.111	121.91
200.329	46.59
200.547	19.02
200.765	-1223.48
200.983	-196.31
201.202	-707.11
201.42	-3.44
201.638	33.23
201.856	161.38
202.074	193.78
202.292	-157.18
202.51	-43.82
202.728	-35.82
202.946	203.42
203.165	183.72
203.383	236.42
203.601	141.55
203.819	305.6
204.037	149.82
204.255	110.37
204.473	114.08
204.691	67.15
204.909	48.39
205.127	23.35
205.345	-60.94
205.562	-98.36
205.78	-136.78
205.998	-246.36
206.216	-400.93
206.434	-5479.53
206.652	616.21
206.87	617.11
207.088	947.07
207.306	198.73
207.523	126.01
207.741	114.7
207.959	117.52
208.177	1143.35
208.395	122.44
208.612	53.76
208.83	191.46
209.048	145.32
209.266	129.14
209.483	105.86
209.701	107.12
209.919	92.55
210.136	93.05
210.354	104.19
210.572	77.51
210.79	65.63
211.007	62.82
211.225	87.27
211.442	93.06
211.66	103.89
211.878	153.12
212.095	471.91
212.313	294.91
212.53	290.67
212.748	238.26
212.966	255.17
213.183	215.61
213.401	190.76
213.618	182.97
213.836	181.51
214.053	225.34
214.271	231.87
214.488	70.36
214.705	64.6
214.923	101.25
215.14	107.92
215.358	119.85
215.575	143.78
215.793	153.53
216.01	117.53
216.227	124.95
216.445	76.73
216.662	74.42
216.879	63.82
217.097	58.7
217.314	35.79
217.531	42.78
217.749	42.35
217.966	39.11
218.183	23.24
218.4	27.89
218.618	8.43
218.835	5.04
219.052	1.69
219.269	7.45
219.487	14.01
219.704	23.62
219.921	18.64
220.138	12.28
220.355	-0.48
220.572	3.95
220.79	16.79
221.007	22.62
221.224	16.93
221.441	34.75
221.658	28.5
221.875	20.85
222.092	17.17
222.309	9.38
222.526	7.8
222.743	6.12
222.96	0.54
223.177	0.64
223.394	3.25
223.611	3.97
223.828	-2.97
224.045	-3.04
224.262	-1.25
224.479	-3.41
224.696	3.99
224.913	3.58
225.13	5.37
225.347	10.96
225.564	8.72
225.781	7.03
225.997	8.99
226.214	9.13
226.431	8.26
226.648	8
226.865	8.01
227.082	6.1
227.298	7.52
227.515	7.57
227.732	6.68
227.949	7.06
228.165	7.69
228.382	8.23
228.599	7.08
228.816	6.99
229.032	8.15
229.249	8.88
229.466	10.96
229.682	11.82
229.899	12.14
230.116	12.2
230.332	13.46
230.549	12.14
230.765	10.64
230.982	13.99
231.199	14.31
231.415	13.39
231.632	10.84
231.848	10.28
232.065	9.71
232.281	10.83
232.498	7.98
232.714	6.35
232.931	7.35
233.147	8.26
233.364	5.94
233.58	4.97
233.797	6.07
234.013	9.69
234.23	9.61
234.446	7.7
234.662	8.9
234.879	11.3
235.095	12.15
235.312	11.61
235.528	14.02
235.744	17.15
235.961	18.19
236.177	17.45
236.393	16.07
236.61	17.34
236.826	18.08
237.042	13.85
237.258	16.27
237.475	15.1
237.691	14.49
237.907	11.9
238.123	9.33
238.339	9.28
238.556	7.84
238.772	7.68
238.988	6.73
239.204	6.75
239.42	8.04
239.636	6.45
239.853	7.49
240.069	8.27
240.285	8.07
240.501	8.98
240.717	8.97
240.933	9.82
241.149	9.11
241.365	9.13
241.581	9.13
241.797	9.17
242.013	9.69
242.229	9.72
242.445	9.42
242.661	9.94
242.877	9.68
243.093	10
243.309	10.11
243.525	11.04
243.741	10.57
243.957	9.98
244.173	9.64
244.388	9.79
244.604	9.4
244.82	10
245.036	9.73
245.252	9.38
245.468	9.43
245.683	9.15
245.899	8.66
246.115	8.66
246.331	8.73
246.547	8.64
246.762	8.29
246.978	8.13
247.194	7.9
247.409	7.66
247.625	7.57
247.841	7.28
248.057	7.42
248.272	7.83
248.488	7.63
248.703	7.48
248.919	8.36
249.135	8.58
249.35	9.2
249.566	9.09
249.782	9.57
249.997	9.36
250.213	9.04
250.428	8.62
250.644	9.11
250.859	8.8
251.075	8.92
251.29	8.32
251.506	8.13
251.721	7.89
251.937	7.07
252.152	6.47
252.368	6.94
252.583	7.2
252.798	7.02
253.014	5.81
253.229	6.65
253.445	5.34
253.66	4.6
253.875	5.43
254.091	5.23
254.306	5.73
254.521	5.36
254.737	6.29
254.952	5.5
255.167	6.86
255.383	6.99
255.598	6.48
255.813	6.94
256.028	7.39
256.244	6.8
256.459	6.87
256.674	6.34
256.889	6.55
257.104	6.11
257.32	6.92
257.535	6.31
257.75	6.21
257.965	5.84
258.18	5.94
258.395	5.88
258.61	6.05
258.826	5.84
259.041	6.15
259.256	6.12
259.471	5.97
259.686	5.43
259.901	5.67
260.116	5.74
260.331	6.4
260.546	6.65
260.761	6.67
260.976	6.7
261.191	6.57
261.406	6.21
261.621	6.49
261.836	7.24
262.05	8.11
262.265	7.86
262.48	8.51
262.695	8.39
262.91	8.13
263.125	7.91
263.34	7.61
263.555	7.66
263.769	8.3
263.984	8.19
264.199	8.02
264.414	7.74
264.629	7.67
264.843	6.88
265.058	6.89
265.273	6.62
265.488	6.51
265.702	6.5
265.917	6.85
266.132	6.63
266.346	6.6
266.561	5.5
266.776	5.3
266.99	5.43
267.205	5.82
267.42	5.8
267.634	5.97
267.849	6.87
268.063	6.6
268.278	6.46
268.492	6.2
268.707	5.8
268.922	6.63
269.136	6.35
269.351	6.13
269.565	6.03
269.78	6.22
269.994	6.09
270.209	5.3
270.423	5.45
270.637	4.95
270.852	5.09
271.066	5.23
271.281	4.82
271.495	4.9
271.709	4.73
271.924	4.65
272.138	3.93
272.353	4.15
272.567	4.73
272.781	4.69
272.996	5.12
273.21	5.13
273.424	5.25
273.638	5.84
273.853	6.04
274.067	5.91
274.281	6.06
274.495	6.52
274.71	6.72
274.924	6.32
275.138	6.22
275.352	5.91
275.566	5.73
275.781	6
275.995	5.86
276.209	5.34
276.423	5.94
276.637	5.84
276.851	5.8
277.065	5.26
277.279	5.02
277.493	5.2
277.707	5.67
277.921	5.74
278.135	5.58
278.349	4.93
278.563	4.9
278.777	4.75
278.991	4.28
279.205	3.97
279.419	4.29
279.633	4.53
279.847	4.52
280.061	4.88
280.275	4.83
280.489	4.8
280.703	5.55
280.917	5.85
281.131	5.71
281.344	6.14
281.558	6.44
281.772	6.12
281.986	6.17
282.2	6.43
282.414	5.89
282.627	6.02
282.841	6.34
283.055	6.02
283.269	5.98
283.482	6.54
283.696	6.49
283.91	6.58
284.123	6.88
284.337	7
284.551	6.8
284.764	7.01
284.978	6.87
285.192	6.24
285.405	6.11
285.619	5.86
285.833	5.26
286.046	4.98
286.26	5.04
286.473	4.64
286.687	4.63
286.9	4.69
287.114	4.67
287.327	4.77
287.541	5.3
287.754	5.5
287.968	5.81
288.181	6.21
288.395	6.29
288.608	6.13
288.822	5.98
289.035	5.35
289.248	5.28
289.462	5.2
289.675	5.41
289.889	5.43
290.102	5.05
290.315	4.98
290.529	4.4
290.742	4.64
290.955	4.38
291.169	4.2
291.382	4.66
291.595	4.84
291.808	4.92
292.022	5.09
292.235	4.38
292.448	4.7
292.661	4.79
292.875	4.95
293.088	4.93
293.301	5.06
293.514	5.8
293.727	5.68
293.94	5.38
294.153	5.31
294.367	4.84
294.58	5.24
294.793	5.1
295.006	5.01
295.219	4.89
295.432	4.87
295.645	5.04
295.858	4.78
296.071	4.75
296.284	4.99
296.497	5.03
296.71	5.09
296.923	5.21
297.136	5.42
297.349	5.52
297.562	5.63
297.775	5.36
297.988	5.47
298.201	5.38
298.414	5.43
298.626	5.41
298.839	5.41
299.052	5.3
299.265	5.19
299.478	5.2
299.691	4.96
299.903	5.26
300.116	5.46
300.329	5.12
300.542	5.58
300.755	5.74
300.967	5.85
301.18	5.67
301.393	5.98
301.605	6.03
301.818	6.06
302.031	6.37
302.243	6.05
302.456	5.99
302.669	6.05
302.881	5.97
303.094	6.11
303.307	5.82
303.519	5.84
303.732	6.13
303.944	6.14
304.157	6.19
304.37	6.43
304.582	6.08
304.795	6.39
305.007	6.63
305.22	6.37
305.432	6.47
305.645	6.35
305.857	6.82
306.069	6.16
306.282	6.34
306.494	6.29
306.707	5.98
306.919	6.45
307.132	5.89
307.344	5.99
307.556	6.34
307.769	6.19
307.981	6.09
308.193	5.74
308.406	5.92
308.618	5.84
308.83	5.96
309.043	5.73
309.255	5.7
309.467	5.97
309.679	5.97
309.892	5.44
310.104	5.38
310.316	5.66
310.528	5.57
310.74	5.87
310.953	5.95
311.165	5.62
311.377	5.97
311.589	6.12
311.801	6.33
312.013	6.05
312.225	6.3
312.437	6.31
312.649	5.95
312.862	6.3
313.074	6.1
313.286	5.87
313.498	6.05
313.71	5.56
313.922	5.67
314.134	5.41
314.346	5.54
314.558	5.72
314.77	5.83
314.982	6.52
315.193	6.23
315.405	6.41
315.617	6.36
315.829	6.61
316.041	6.88
316.253	6.46
316.465	6.63
316.677	6.71
316.888	6.53
317.1	6.34
317.312	6.12
317.524	6.33
317.736	6.3
317.947	6.39
318.159	6.03
318.371	6.28
318.583	6.03
318.794	5.61
319.006	5.3
319.218	5.65
319.43	5.94
319.641	5.59
319.853	5.81
320.064	5.38
320.276	4.95
320.488	5.7
320.699	5.74
320.911	6.26
321.123	7.11
321.334	7.2
321.546	7.33
321.757	6.98
321.969	7.31
322.18	6.7
322.392	6.71
322.603	7.21
322.815	6.57
323.026	6.68
323.238	6.49
323.449	6.04
323.661	6.18
323.872	5.94
324.083	6.63
324.295	6.46
324.506	7.14
324.718	7.25
324.929	7.1
325.14	7.16
325.352	7.37
325.563	7.45
325.774	7.58
325.986	7.55
326.197	7.76
326.408	7.6
326.62	7.77
326.831	7.7
327.042	7.55
327.253	7.9
327.464	7.73
327.676	7.41
327.887	7.33
328.098	7.54
328.309	7.18
328.52	6.66
328.732	6.44
328.943	6.04
329.154	5.7
329.365	6.2
329.576	5.73
329.787	6.39
329.998	6.24
330.209	6.16
330.42	5.91
330.631	6.34
330.842	6.91
331.053	7.01
331.264	7.2
331.475	7.19
331.686	7.16
331.897	6.97
332.108	6.01
332.319	5.95
332.53	6.31
332.741	6.37
332.952	6.16
333.163	6.15
333.374	6.11
333.585	6.05
333.795	6.46
334.006	6.31
334.217	6.63
334.428	7.42
334.639	7.52
334.849	7.27
335.06	7.23
335.271	7.4
335.482	7.23
335.692	7.21
335.903	7
336.114	6.8
336.325	7.21
336.535	7.39
336.746	7.26
336.957	7.45
337.167	7.8
337.378	7.86
337.589	7.83
337.799	7.67
338.01	7.6
338.22	8
338.431	7.83
338.642	7.33
338.852	7.46
339.063	7.51
339.273	7.52
339.484	6.99
339.694	7.09
339.905	7.06
340.115	7.29
340.326	7.52
340.536	7.5
340.746	7.6
340.957	7.78
341.167	7.57
341.378	7.48
341.588	7.37
341.799	7.73
342.009	7.76
342.219	7.96
342.43	8.13
342.64	8
342.85	7.81
343.061	7.65
343.271	7.75
343.481	7.43
343.691	7.55
343.902	7.63
344.112	7.45
344.322	7.24
344.532	6.94
344.743	6.85
344.953	6.96
345.163	7.2
345.373	7.57
345.583	7.17
345.793	7.08
346.004	6.98
346.214	6.88
346.424	7.04
346.634	6.87
346.844	7.03
347.054	6.77
347.264	6.38
347.474	6.3
347.684	6.37
347.894	6.71
348.104	6.93
348.314	7.07
348.524	6.98
348.734	6.66
348.944	6.9
349.154	7.05
349.364	6.87
349.574	6.95
349.784	7.03
349.994	6.73
350.204	6.58
350.413	6.59
350.623	6.29
350.833	6.26
351.043	6.31
351.253	6.15
351.463	5.76
351.672	5.95
351.882	6.17
352.092	6
352.302	5.88
352.511	5.71
352.721	5.7
352.931	5.69
353.141	5.72
353.35	5.62
353.56	5.7
353.77	5.92
353.979	5.78
354.189	5.92
354.399	6.13
354.608	6.28
354.818	6.51
355.027	6.7
355.237	6.63
355.447	6.54
355.656	6.94
355.866	6.97
356.075	6.95
356.285	7.23
356.494	7.06
356.704	6.77
356.913	6.5
357.123	6.48
357.332	6.37
357.542	6.48
357.751	6.69
357.96	6.54
358.17	6.68
358.379	6.33
358.589	6.17
358.798	6.1
359.007	6.11
359.217	6.29
359.426	6.22
359.635	6.32
359.845	6.3
360.054	6.37
360.263	6.44
360.472	6.35
360.682	6.49
360.891	6.68
361.1	6.52
361.309	6.54
361.519	6.51
361.728	6.59
361.937	6.54
362.146	6.57
362.355	6.45
362.564	6.2
362.774	6.12
362.983	6.2
363.192	6.14
363.401	6.23
363.61	6.19
363.819	6.2
364.028	6.14
364.237	5.92
364.446	5.69
364.655	5.74
364.864	5.88
365.073	5.88
365.282	6
365.491	5.93
365.7	5.85
365.909	5.96
366.118	5.91
366.327	5.96
366.536	5.94
366.745	6.12
366.954	6.01
367.162	6.04
367.371	6.26
367.58	5.92
367.789	5.96
367.998	5.93
368.207	5.98
368.415	5.83
368.624	5.81
368.833	5.82
369.042	5.64
369.25	5.6
369.459	5.51
369.668	5.45
369.877	5.69
370.085	5.63
370.294	5.78
370.503	5.45
370.711	5.43
370.92	5.62
371.129	5.77
371.337	5.85
371.546	5.8
371.754	5.91
371.963	5.77
372.171	5.54
372.38	5.24
372.589	5.05
372.797	5.08
373.006	5.19
373.214	5.04
373.423	5.18
373.631	5.12
373.84	5.08
374.048	4.85
374.256	4.68
374.465	4.7
374.673	4.7
374.882	4.9
375.09	4.99
375.298	4.87
375.507	4.78
375.715	4.61
375.923	4.69
376.132	4.88
376.34	4.96
376.548	4.95
376.757	5.03
376.965	5.17
377.173	4.98
377.381	5.01
377.59	4.93
377.798	4.69
378.006	4.73
378.214	4.83
378.423	4.87
378.631	4.81
378.839	4.69
379.047	4.59
379.255	4.65
379.463	4.66
379.671	4.65
379.879	4.9
380.088	4.88
380.296	4.78
380.504	4.59
380.712	4.65
380.92	4.62
381.128	4.66
381.336	4.93
381.544	4.71
381.752	4.72
381.96	4.74
382.168	4.62
382.376	4.87
382.584	5.04
382.791	5.14
382.999	5.07
383.207	5.05
383.415	5.15
383.623	5.08
383.831	5.3
384.039	5.27
384.247	5.43
384.454	5.44
384.662	5.33
384.87	5.17
385.078	5.23
385.285	5.09
385.493	5.24
385.701	5.25
385.909	5.23
386.116	4.95
386.324	5.03
386.532	4.92
386.739	4.96
386.947	4.82
387.155	4.97
387.362	4.91
387.57	4.75
387.778	4.33
387.985	4.39
388.193	4.31
388.4	4.42
388.608	4.39
388.816	4.32
389.023	4.21
389.231	4.24
389.438	4.08
389.646	3.99
389.853	3.81
390.061	4.18
390.268	4.15
390.475	3.96
390.683	3.97
390.89	3.99
391.098	3.93
391.305	4.03
391.512	4.17
391.72	4.07
391.927	3.95
392.135	4.25
392.342	4.15
392.549	4.2
392.756	4.35
392.964	4.44
393.171	4.34
393.378	4.21
393.586	4.24
393.793	4.24
394	4.37
394.207	4.41
394.414	4.26
394.622	4.26
394.829	4.2
395.036	4.14
395.243	3.95
395.45	3.96
395.657	4.02
395.864	3.73
396.072	3.61
396.279	3.53
396.486	3.7
396.693	3.95
396.9	3.81
397.107	3.87
397.314	3.8
397.521	3.87
397.728	3.85
397.935	4
398.142	4.18
398.349	4.21
398.556	4.15
398.763	3.99
398.97	3.97
399.177	3.93
399.383	3.86
399.59	3.93
399.797	3.96
400.004	3.98
400.211	3.9
400.418	3.79
400.625	3.73
400.831	3.77
401.038	3.93
401.245	3.62
401.452	3.73
401.658	3.52
401.865	3.55
402.072	3.35
402.279	3.31
402.485	3.16
402.692	3.24
402.899	3.24
403.105	3.1
403.312	2.91
403.519	3.09
403.725	3.05
403.932	3.23
404.138	3.06
404.345	3.13
404.552	3.19
404.758	3.3
404.965	3.12
405.171	3.12
405.378	3.01
405.584	3.24
405.791	3.12
405.997	3.14
406.204	2.95
406.41	3.08
406.617	3.24
406.823	3.18
407.029	3.13
407.236	3.33
407.442	3.43
407.649	3.4
407.855	3.27
408.061	3.17
408.268	3.13
408.474	3.21
408.68	3.27
408.887	3.22
409.093	3.22
409.299	3.21
409.505	3.13
409.712	3.08
409.918	3.34
410.124	3.32
410.33	3.41
410.537	3.42
410.743	3.38
410.949	3.29
411.155	3.25
411.361	3.16
411.567	3.07
411.773	2.93
411.98	2.94
412.186	2.97
412.392	2.99
412.598	2.92
412.804	2.94
413.01	2.86
413.216	2.94
413.422	2.84
413.628	2.87
413.834	3.05
414.04	3.18
414.246	3.11
414.452	3.09
414.658	3.13
414.864	3.31
415.07	3.46
415.275	3.55
415.481	3.45
415.687	3.6
415.893	3.58
416.099	3.45
416.305	3.54
416.511	3.55
416.716	3.35
416.922	3.26
417.128	3.08
417.334	2.95
417.539	2.87
417.745	2.91
417.951	2.85
418.157	2.9
418.362	2.91
418.568	2.75
418.774	2.68
418.979	2.77
419.185	2.71
419.391	2.8
419.596	2.76
419.802	2.81
420.008	2.9
420.213	2.84
420.419	2.7
420.624	2.77
420.83	2.83
421.035	2.86
421.241	2.81
421.446	2.87
421.652	2.84
421.857	2.85
422.063	2.86
422.268	2.74
422.474	2.74
422.679	2.85
422.885	2.75
423.09	2.79
423.295	2.77
423.501	2.83
423.706	2.77
423.911	2.76
424.117	2.7
424.322	2.62
424.527	2.62
424.733	2.58
424.938	2.55
425.143	2.6
425.349	2.44
425.554	2.35
425.759	2.33
425.964	2.34
426.169	2.33
426.375	2.32
426.58	2.37
426.785	2.38
426.99	2.42
427.195	2.43
427.4	2.31
427.605	2.41
427.811	2.51
428.016	2.47
428.221	2.51
428.426	2.45
428.631	2.57
428.836	2.54
429.041	2.54
429.246	2.48
429.451	2.34
429.656	2.37
429.861	2.39
430.066	2.41
430.271	2.41
430.476	2.25
430.681	2.26
430.886	2.15
431.09	2.18
431.295	2.13
431.5	2.3
431.705	2.39
431.91	2.56
432.115	2.34
432.32	2.42
432.524	2.41
432.729	2.53
432.934	2.53
433.139	2.62
433.343	2.56
433.548	2.6
433.753	2.46
433.958	2.44
434.162	2.27
434.367	2.4
434.572	2.32
434.776	2.23
434.981	2.29
435.186	2.27
435.39	2.21
435.595	2.21
435.799	2.18
436.004	2.14
436.209	2.18
436.413	2.17
436.618	2.19
436.822	2.12
437.027	2.13
437.231	2.04
437.436	2.08
437.64	2.09
437.845	2.1
438.049	2.12
438.253	2.07
438.458	2.03
438.662	2.1
438.867	2.16
439.071	2.17
439.275	2.19
439.48	2.18
439.684	2.17
439.888	2.16
440.093	2.17
440.297	2.21
440.501	2.28
440.706	2.29
440.91	2.18
441.114	2.16
441.318	2.18
441.523	2.18
441.727	2.24
441.931	2.29
442.135	2.31
442.339	2.42
442.543	2.27
442.748	2.36
442.952	2.42
443.156	2.47
443.36	2.38
443.564	2.39
443.768	2.43
443.972	2.48
444.176	2.41
444.38	2.41
444.584	2.32
444.788	2.36
444.992	2.31
445.196	2.33
445.4	2.35
445.604	2.42
445.808	2.31
446.012	2.26
446.216	2.17
446.42	2.17
446.624	2.17
446.828	2.17
447.032	2.2
447.235	2.21
447.439	2.09
447.643	2.08
447.847	2.09
448.051	2.17
448.254	2.24
448.458	2.29
448.662	2.38
448.866	2.42
449.069	2.47
449.273	2.49
449.477	2.43
449.681	2.48
449.884	2.43
450.088	2.43
450.292	2.38
450.495	2.27
450.699	2.27
450.902	2.2
451.106	2.18
451.31	2.17
451.513	2.11
451.717	2.06
451.92	2.06
452.124	2.13
452.327	2.07
452.531	2.07
452.734	2.02
452.938	2
453.141	1.96
453.345	1.96
453.548	1.91
453.752	1.89
453.955	1.89
454.158	1.89
454.362	1.9
454.565	1.88
454.769	1.95
454.972	2
455.175	2.05
455.379	1.98
455.582	1.88
455.785	1.91
455.988	1.98
456.192	2.09
456.395	2.03
456.598	1.98
456.801	2.07
457.005	2.11
457.208	2.16
457.411	2.14
457.614	2.16
457.817	2.22
458.021	2.19
458.224	2.2
458.427	2.22
458.63	2.24
458.833	2.19
459.036	2.21
459.239	2.23
459.442	2.23
459.645	2.18
459.848	2.3
460.051	2.28
460.254	2.31
460.457	2.2
460.66	2.14
460.863	2.17
461.066	2.22
461.269	2.11
461.472	2.09
461.675	2.12
461.878	2.15
462.081	2.02
462.284	1.98
462.486	1.99
462.689	2.05
462.892	2.11
463.095	2.13
463.298	2.14
463.5	2.13
463.703	2.08
463.906	2.08
464.109	1.96
464.311	1.88
464.514	1.96
464.717	1.83
464.92	1.86
465.122	1.83
465.325	1.79
465.528	1.79
465.73	1.9
465.933	1.86
466.135	1.84
466.338	1.95
466.541	2.07
466.743	2.09
466.946	2.15
467.148	2.1
467.351	2.1
467.553	2.06
467.756	2.07
467.958	1.95
468.161	1.95
468.363	1.92
468.566	1.95
468.768	1.89
468.971	1.76
469.173	1.71
469.375	1.72
469.578	1.8
469.78	1.91
469.983	1.89
470.185	1.96
470.387	1.96
470.59	2.06
470.792	2.03
470.994	2.06
471.196	2.14
471.399	2.22
471.601	2.2
471.803	2.15
472.005	2.14
472.208	2.16
472.41	2.08
472.612	2.07
472.814	1.98
473.016	1.91
473.218	1.95
473.421	1.95
473.623	2.01
473.825	2.11
474.027	2.04
474.229	1.97
474.431	1.96
474.633	2.06
474.835	2.05
475.037	2.11
475.239	2.17
475.441	2.07
475.643	2.05
475.845	1.99
476.047	1.95
476.249	1.95
476.451	2.02
476.653	2.15
476.855	2.03
477.057	2.04
477.258	1.99
477.46	2.03
477.662	2.1
477.864	2.12
478.066	2.23
478.268	2.17
478.469	2.15
478.671	2.13
478.873	2.04
479.075	2.19
479.276	2.13
479.478	2.15
479.68	2.06
479.882	2.04
480.083	2.05
480.285	1.96
480.487	2
480.688	2.07
480.89	2.08
481.091	2.07
481.293	2.02
481.495	2.09
481.696	2.09
481.898	2.13
482.099	2.15
482.301	2.13
482.502	2.13
482.704	2.15
482.905	2.13
483.107	2.14
483.308	2.15
483.51	2.16
483.711	2.16
483.913	2.14
484.114	2.14
484.315	2.13
484.517	2.14
484.718	2.15
484.92	2.12
485.121	2.11
485.322	2.1
485.524	2.09
485.725	2.1
485.926	2.09
486.127	2.11
486.329	2.12
486.53	2.14
486.731	2.14
486.932	2.13
487.134	2.16
487.335	2.14
487.536	2.14
487.737	2.13
487.938	2.13
488.139	2.14
488.341	2.11
488.542	2.1
488.743	2.08
488.944	2.04
489.145	2.03
489.346	2.05
489.547	2.12
489.748	2.1
489.949	2.12
490.15	2.1
490.351	2.14
490.552	2.17
490.753	2.21
490.954	2.23
491.155	2.26
491.356	2.28
491.557	2.24
491.758	2.27
491.959	2.33
492.159	2.29
492.36	2.39
492.561	2.31
492.762	2.34
492.963	2.29
493.164	2.3
493.364	2.38
493.565	2.35
493.766	2.33
493.967	2.33
494.167	2.28
494.368	2.35
494.569	2.28
494.769	2.3
494.97	2.22
495.171	2.18
495.371	2.19
495.572	2.1
495.773	2.18
495.973	2.21
496.174	2.17
496.375	2.13
496.575	2.19
496.776	2.16
496.976	2.21
497.177	2.26
497.377	2.3
497.578	2.23
497.778	2.34
497.979	2.28
498.179	2.25
498.38	2.36
498.58	2.31
498.78	2.27
498.981	2.38
499.181	2.35
499.382	2.37
499.582	2.35
499.782	2.48
499.983	2.35
500.183	2.45
500.383	2.51
500.584	2.41
500.784	2.53
500.984	2.6
501.184	2.5
501.385	2.49
501.585	2.48
501.785	2.56
501.985	2.57
502.185	2.57
502.386	2.46
502.586	2.49
502.786	2.57
502.986	2.6
503.186	2.47
503.386	2.48
503.586	2.64
503.786	2.66
503.987	2.66
504.187	2.64
504.387	2.71
504.587	2.75
504.787	2.78
504.987	2.81
505.187	2.75
505.387	2.87
505.587	2.95
505.786	2.88
505.986	2.8
506.186	2.85
506.386	2.86
506.586	2.96
506.786	2.97
506.986	2.98
507.186	2.96
507.386	3.01
507.585	3.01
507.785	2.96
507.985	2.99
508.185	3.11
508.384	3.09
508.584	3.11
508.784	3.06
508.984	3.03
509.183	3
509.383	3.04
509.583	3.09
509.782	3.08
509.982	3.22
510.182	3.17
510.381	3.21
510.581	3.2
510.781	3.26
510.98	3.34
511.18	3.46
511.379	3.5
511.579	3.51
511.778	3.51
511.978	3.57
512.177	3.46
512.377	3.51
512.576	3.49
512.776	3.53
512.975	3.55
513.175	3.56
513.374	3.53
513.573	3.59
513.773	3.61
513.972	3.56
514.172	3.56
514.371	3.67
514.57	3.7
514.77	3.67
514.969	3.71
515.168	3.67
515.367	3.67
515.567	3.69
515.766	3.64
515.965	3.66
516.164	3.78
516.364	3.82
516.563	3.85
516.762	3.87
516.961	3.92
517.16	3.96
517.359	4.02
517.559	4.05
517.758	4.08
517.957	4.17
518.156	4.21
518.355	4.23
518.554	4.26
518.753	4.28
518.952	4.28
519.151	4.33
519.35	4.38
519.549	4.38
519.748	4.45
519.947	4.47
520.146	4.49
520.345	4.51
520.544	4.56
520.743	4.55
520.942	4.56
521.141	4.59
521.339	4.62
521.538	4.56
521.737	4.59
521.936	4.54
522.135	4.58
522.333	4.61
522.532	4.63
522.731	4.71
522.93	4.87
523.129	4.97
523.327	5.02
523.526	5.01
523.725	5.04
523.923	5.04
524.122	5.08
524.321	5.2
524.519	5.24
524.718	5.29
524.917	5.26
525.115	5.2
525.314	5.2
525.512	5.28
525.711	5.34
525.909	5.4
526.108	5.45
526.306	5.48
526.505	5.44
526.703	5.45
526.902	5.43
527.1	5.42
527.299	5.43
527.497	5.43
527.696	5.41
527.894	5.41
528.092	5.39
528.291	5.38
528.489	5.39
528.688	5.39
528.886	5.37
529.084	5.39
529.283	5.43
529.481	5.45
529.679	5.49
529.877	5.5
530.076	5.53
530.274	5.58
530.472	5.62
530.67	5.68
530.869	5.74
531.067	5.79
531.265	5.85
531.463	5.9
531.661	5.91
531.859	5.93
532.057	5.98
532.255	5.95
532.454	6
532.652	6.04
532.85	6.04
533.048	6.04
533.246	6.07
533.444	6.08
533.642	6.05
533.84	6.1
534.038	6.11
534.236	6.11
534.434	6.21
534.632	6.21
534.83	6.19
535.027	6.23
535.225	6.26
535.423	6.26
535.621	6.29
535.819	6.27
536.017	6.32
536.215	6.35
536.412	6.38
536.61	6.43
536.808	6.43
537.006	6.45
537.203	6.5
537.401	6.57
537.599	6.58
537.797	6.69
537.994	6.79
538.192	6.79
538.39	6.85
538.587	6.9
538.785	6.9
538.983	6.99
539.18	7.1
539.378	7.09
539.575	7.09
539.773	7.14
539.97	7.08
540.168	7.1
540.366	7.14
540.563	7.15
540.761	7.13
540.958	7.17
541.155	7.17
541.353	7.17
541.55	7.19
541.748	7.21
541.945	7.23
542.143	7.26
542.34	7.24
542.537	7.2
542.735	7.2
542.932	7.26
543.129	7.27
543.327	7.29
543.524	7.34
543.721	7.43
543.919	7.44
544.116	7.47
544.313	7.53
544.51	7.62
544.708	7.72
544.905	7.83
545.102	7.87
545.299	7.93
545.496	8.04
545.693	8
545.891	7.98
546.088	8.03
546.285	8.02
546.482	8.06
546.679	8.13
546.876	8.17
547.073	8.22
547.27	8.29
547.467	8.35
547.664	8.33
547.861	8.44
548.058	8.47
548.255	8.63
548.452	8.81
548.649	8.84
548.846	8.85
549.043	8.84
549.24	8.84
549.437	8.87
549.633	8.98
549.83	9.02
550.027	9.03
550.224	9.15
550.421	9.05
550.618	9.01
550.814	9.14
551.011	9.2
551.208	9.31
551.405	9.38
551.601	9.48
551.798	9.36
551.995	9.34
552.191	9.44
552.388	9.41
552.585	9.45
552.781	9.56
552.978	9.7
553.175	9.81
553.371	9.92
553.568	9.91
553.764	9.98
553.961	10.21
554.157	10.31
554.354	10.34
554.55	10.56
554.747	10.66
554.943	10.69
555.14	10.64
555.336	10.66
555.533	10.69
555.729	10.87
555.926	10.79
556.122	10.79
556.318	10.9
556.515	10.95
556.711	10.97
556.907	11.05
557.104	11.22
557.3	11.19
557.496	11.23
557.693	11.31
557.889	11.31
558.085	11.46
558.281	11.55
558.478	11.58
558.674	11.75
558.87	11.86
559.066	11.88
559.262	11.92
559.459	12.1
559.655	12.12
559.851	12.14
560.047	12.25
560.243	12.32
560.439	12.39
560.635	12.47
560.831	12.49
561.027	12.4
561.223	12.56
561.419	12.58
561.615	12.72
561.811	12.73
562.007	12.76
562.203	12.7
562.399	12.72
562.595	12.75
562.791	12.77
562.987	12.95
563.183	13.06
563.379	13.07
563.575	13.19
563.771	13.19
563.966	13.28
564.162	13.4
564.358	13.45
564.554	13.53
564.75	13.63
564.945	13.71
565.141	13.76
565.337	13.89
565.533	13.93
565.728	13.93
565.924	13.97
566.12	14.12
566.315	14.2
566.511	14.39
566.707	14.54
566.902	14.59
567.098	14.71
567.293	14.71
567.489	14.71
567.684	14.84
567.88	14.98
568.076	15.05
568.271	15.09
568.467	15.19
568.662	15.36
568.858	15.39
569.053	15.46
569.248	15.66
569.444	15.76
569.639	15.78
569.835	15.82
570.03	15.96
570.225	15.99
570.421	16.04
570.616	16.04
570.812	16.1
571.007	16.13
571.202	16.15
571.397	16.08
571.593	16.06
571.788	16.17
571.983	16.26
572.178	16.23
572.374	16.25
572.569	16.31
572.764	16.43
572.959	16.39
573.154	16.46
573.35	16.52
573.545	16.6
573.74	16.71
573.935	16.77
574.13	16.78
574.325	16.79
574.52	16.98
574.715	17.07
574.91	17.1
575.105	17.15
575.3	17.23
575.495	17.38
575.69	17.43
575.885	17.49
576.08	17.5
576.275	17.67
576.47	17.82
576.665	17.89
576.86	17.9
577.055	17.87
577.25	17.93
577.444	18.09
577.639	18.13
577.834	18.11
578.029	18.1
578.224	18.18
578.418	18.21
578.613	18.21
578.808	18.22
579.003	18.35
579.197	18.54
579.392	18.6
579.587	18.53
579.781	18.55
579.976	18.75
580.171	18.86
580.365	18.82
580.56	18.92
580.755	18.91
580.949	18.89
581.144	18.85
581.338	18.85
581.533	18.86
581.727	18.86
581.922	18.85
582.116	18.82
582.311	18.85
582.505	19.04
582.7	18.99
582.894	19.06
583.089	19.2
583.283	19.23
583.478	19.35
583.672	19.36
583.866	19.49
584.061	19.66
584.255	19.66
584.449	19.76
584.644	19.85
584.838	19.88
585.032	20
585.226	19.92
585.421	19.9
585.615	19.84
585.809	19.9
586.003	19.98
586.198	19.94
586.392	20.05
586.586	19.98
586.78	19.82
586.974	19.76
587.168	19.82
587.363	20.02
587.557	20.2
587.751	20.3
587.945	20.36
588.139	20.26
588.333	20.37
588.527	20.44
588.721	20.63
588.915	20.71
589.109	20.75
589.303	20.73
589.497	20.82
589.691	20.84
589.885	20.78
590.079	20.95
590.273	21.12
590.466	21.13
590.66	20.97
590.854	20.98
591.048	21.06
591.242	21.34
591.436	21.44
591.629	21.35
591.823	21.33
592.017	21.38
592.211	21.38
592.404	21.35
592.598	21.45
592.792	21.63
592.986	21.6
593.179	21.71
593.373	21.53
593.567	21.47
593.76	21.58
593.954	21.63
594.147	21.71
594.341	21.74
594.535	21.85
594.728	21.66
594.922	21.69
595.115	21.85
595.309	21.94
595.502	22.03
595.696	22.1
595.889	22.06
596.083	22.16
596.276	22.22
596.47	22.24
596.663	22.3
596.856	22.45
597.05	22.54
597.243	22.5
597.437	22.58
597.63	22.69
597.823	22.84
598.017	22.92
598.21	23
598.403	23.11
598.596	23.2
598.79	23.07
598.983	23.15
599.176	23.11
599.369	23.1
599.563	23.08
599.756	23.16
599.949	23.11
600.142	23.07
600.335	22.98
600.528	22.98
600.722	22.87
600.915	22.9
601.108	22.88
601.301	22.89
601.494	22.94
601.687	22.87
601.88	22.86
602.073	22.85
602.266	22.91
602.459	22.84
602.652	22.8
602.845	22.89
603.038	22.99
603.231	23.01
603.424	23.03
603.617	23.07
603.809	23.09
604.002	23.01
604.195	23.03
604.388	23.03
604.581	23.11
604.774	23.15
604.966	23.11
605.159	23.13
605.352	23.21
605.545	23.37
605.737	23.38
605.93	23.46
606.123	23.41
606.316	23.46
606.508	23.45
606.701	23.42
606.894	23.53
607.086	23.67
607.279	23.6
607.471	23.6
607.664	23.59
607.857	23.63
608.049	23.53
608.242	23.66
608.434	23.76
608.627	23.9
608.819	23.99
609.012	23.91
609.204	23.79
609.397	23.97
609.589	23.95
609.782	23.81
609.974	23.76
610.166	23.92
610.359	23.89
610.551	23.78
610.743	23.72
610.936	23.8
611.128	23.9
611.32	24.16
611.513	24.22
611.705	24.27
611.897	24.42
612.09	24.66
612.282	24.68
612.474	24.83
612.666	25.05
612.858	24.97
613.051	24.93
613.243	24.9
613.435	24.9
613.627	24.65
613.819	24.76
614.011	24.73
614.203	24.5
614.395	24.46
614.588	24.4
614.78	24.35
614.972	24.45
615.164	24.62
615.356	24.55
615.548	24.39
615.74	24.58
615.932	24.5
616.124	24.49
616.315	24.68
616.507	24.75
616.699	24.79
616.891	24.66
617.083	24.81
617.275	24.67
617.467	24.8
617.659	24.9
617.85	24.9
618.042	24.83
618.234	24.91
618.426	24.81
618.618	24.87
618.809	24.84
619.001	25
619.193	24.98
619.384	24.99
619.576	24.79
619.768	24.84
619.959	24.84
620.151	25.14
620.343	25.11
620.534	25.14
620.726	25.05
620.917	24.94
621.109	25.11
621.301	25.09
621.492	25.05
621.684	25.29
621.875	25.56
622.067	25.62
622.258	25.56
622.45	25.72
622.641	25.6
622.832	25.63
623.024	25.83
623.215	25.72
623.407	25.69
623.598	25.8
623.789	25.84
623.981	25.69
624.172	25.62
624.363	25.61
624.555	25.59
624.746	25.79
624.937	25.93
625.129	25.89
625.32	26.01
625.511	26.05
625.702	25.98
625.893	26.12
626.085	26.21
626.276	26.17
626.467	26.15
626.658	26.18
626.849	26.09
627.04	26.03
627.231	26.16
627.422	26.05
627.614	26.08
627.805	26.13
627.996	26.01
628.187	25.9
628.378	26.06
628.569	26.14
628.76	26.13
628.951	26.39
629.142	26.42
629.332	26.43
629.523	26.5
629.714	26.43
629.905	26.58
630.096	26.58
630.287	26.72
630.478	26.59
630.669	26.62
630.859	26.55
631.05	26.37
631.241	26.23
631.432	26.13
631.623	25.96
631.813	26.25
632.004	26.1
632.195	26.12
632.385	26.15
632.576	26.29
632.767	26.13
632.957	26.31
633.148	26.39
633.339	26.57
633.529	26.65
633.72	26.86
633.91	26.83
634.101	26.99
634.292	27.05
634.482	27.08
634.673	27.3
634.863	27.49
635.054	27.22
635.244	27.41
635.435	27.47
635.625	27.38
635.815	27.19
636.006	27.08
636.196	27.15
636.387	27.29
636.577	27.08
636.767	27.03
636.958	27.13
637.148	27.46
637.338	27.37
637.529	27.54
637.719	27.75
637.909	27.97
638.099	28.03
638.29	27.95
638.48	27.79
638.67	28
638.86	27.92
639.05	27.84
639.241	27.81
639.431	27.68
639.621	27.51
639.811	27.67
640.001	27.54
640.191	27.62
640.381	27.61
640.571	27.64
640.761	27.54
640.951	27.47
641.141	27.44
641.331	27.4
641.521	27.65
641.711	27.72
641.901	27.64
642.091	27.68
642.281	27.62
642.471	27.65
642.661	27.64
642.851	27.7
643.041	27.56
643.231	27.5
643.42	27.49
643.61	27.21
643.8	27.28
643.99	27.17
644.18	27.34
644.369	27.55
644.559	27.67
644.749	27.77
644.939	27.75
645.128	28
645.318	28.02
645.508	27.85
645.697	27.99
645.887	27.71
646.076	27.92
646.266	27.84
646.456	27.59
646.645	27.77
646.835	27.69
647.024	27.49
647.214	27.32
647.403	27.54
647.593	27.94
647.782	27.95
647.972	27.97
648.161	27.89
648.351	27.84
648.54	27.87
648.73	27.62
648.919	27.7
649.108	27.96
649.298	27.86
649.487	27.62
649.677	27.5
649.866	27.36
650.055	27.56
650.244	27.56
650.434	27.52
650.623	27.49
650.812	27.49
651.002	27.59
651.191	27.51
651.38	27.75
651.569	27.86
651.758	27.83
651.947	27.93
652.137	28
652.326	28.1
652.515	28.2
652.704	28.35
652.893	28.47
653.082	28.26
653.271	28.47
653.46	28.45
653.649	28.44
653.838	28.74
654.027	28.89
654.216	28.79
654.405	28.74
654.594	28.87
654.783	28.97
654.972	28.73
655.161	29.01
655.35	28.93
655.539	28.97
655.728	28.95
655.916	28.66
656.105	28.55
656.294	28.68
656.483	28.51
656.672	28.5
656.86	28.43
657.049	28.62
657.238	28.44
657.427	28.36
657.615	28.58
657.804	28.65
657.993	28.73
658.181	28.9
658.37	28.93
658.559	28.88
658.747	28.83
658.936	28.94
659.125	29.24
659.313	29.23
659.502	29.17
659.69	28.93
659.879	28.96
660.067	29.2
660.256	29.13
660.444	29.08
660.633	29.21
660.821	29.5
661.01	29.51
661.198	29.01
661.387	29.22
661.575	29.28
661.763	29.52
661.952	29.52
662.14	29.17
662.328	29.12
662.517	29.05
662.705	29.16
662.893	28.78
663.082	28.71
663.27	28.68
663.458	28.73
663.646	28.65
663.834	28.56
664.023	28.69
664.211	29.03
664.399	29.17
664.587	29.16
664.775	29.15
664.963	29.33
665.152	29.54
665.34	29.76
665.528	29.98
665.716	30.16
665.904	30.08
666.092	30.14
666.28	30.03
666.468	29.97
666.656	30.1
666.844	30.29
667.032	30.5
667.22	30.47
667.408	30.73
667.596	30.12
667.784	30.24
667.971	30.27
668.159	29.86
668.347	29.89
668.535	29.97
668.723	29.86
668.911	29.73
669.098	29.61
669.286	29.5
669.474	29.16
669.662	29.55
669.849	29.44
670.037	29.39
670.225	29.97
670.413	29.86
670.6	30.04
670.788	29.87
670.976	29.85
671.163	29.81
671.351	29.91
671.538	30.14
671.726	29.97
671.913	30.07
672.101	30.13
672.289	29.84
672.476	29.92
672.664	29.63
672.851	29.93
673.039	30.18
673.226	30.23
673.413	30.03
673.601	30.26
673.788	30.47
673.976	30.45
674.163	30.77
674.35	30.8
674.538	30.83
674.725	30.91
674.912	30.88
675.1	30.79
675.287	30.75
675.474	30.83
675.662	30.67
675.849	30.69
676.036	30.82
676.223	30.65
676.411	30.65
676.598	30.43
676.785	30.36
676.972	30.6
677.159	30.48
677.346	30.48
677.533	30.63
677.721	30.64
677.908	30.63
678.095	30.48
678.282	30.55
678.469	30.67
678.656	30.78
678.843	30.84
679.03	30.81
679.217	30.79
679.404	30.82
679.591	30.61
679.778	30.6
679.964	30.71
680.151	30.8
680.338	30.53
680.525	30.44
680.712	30.41
680.899	30.53
681.086	30.48
681.272	30.59
681.459	30.69
681.646	30.78
681.833	30.75
682.02	30.78
682.206	30.9
682.393	30.95
682.58	30.93
682.766	31.08
682.953	31.36
683.14	31.49
683.326	31.64
683.513	31.68
683.7	31.95
683.886	31.96
684.073	31.92
684.259	31.73
684.446	32.04
684.632	32.29
684.819	32.45
685.005	31.96
685.192	31.74
685.378	31.55
685.565	31.31
685.751	31.07
685.938	31.16
686.124	31.09
686.31	31.3
686.497	31.24
686.683	31.18
686.87	30.93
687.056	31.2
687.242	31.31
687.429	31.22
687.615	31.43
687.801	31.7
687.987	31.76
688.174	31.69
688.36	31.71
688.546	31.71
688.732	31.69
688.918	31.73
689.105	31.66
689.291	31.5
689.477	31.76
689.663	31.43
689.849	31.04
690.035	30.95
690.221	31.02
690.407	30.89
690.593	30.86
690.779	30.97
690.965	30.98
691.151	30.86
691.337	31.05
691.523	30.95
691.709	31.37
691.895	31.53
692.081	31.94
692.267	31.95
692.453	31.7
692.639	31.79
692.825	31.76
693.011	31.8
693.196	32.03
693.382	32.25
693.568	32.33
693.754	32.19
693.94	32.14
694.125	32.12
694.311	32.41
694.497	32.64
694.682	32.53
694.868	32.59
695.054	32.45
695.239	32.61
695.425	32.64
695.611	32.84
695.796	32.8
695.982	32.92
696.168	32.66
696.353	32.54
696.539	32.59
696.724	32.74
696.91	32.51
697.095	32.67
697.281	32.39
697.466	32.28
697.652	32.14
697.837	32.14
698.023	32.07
698.208	32.03
698.393	32.01
698.579	32.08
698.764	32.17
698.949	32.47
699.135	32.52
699.32	32.85
699.505	32.88
699.691	33.08
699.876	33.15
700.061	33.33
700.246	33.06
700.432	33.08
700.617	33.18
700.802	33.04
700.987	32.62
701.172	32.31
701.358	31.87
701.543	31.65
701.728	31.55
701.913	31.27
702.098	30.98
702.283	31.23
702.468	31.13
702.653	30.76
702.838	31.1
703.023	31.23
703.208	31.35
703.393	31.12
703.578	31.36
703.763	31.41
703.948	31.83
704.133	31.99
704.318	31.9
704.503	31.43
704.688	31.51
704.873	31.36
705.057	31.53
705.242	31.73
705.427	32.17
705.612	31.9
705.797	31.62
705.981	31.54
706.166	31.44
706.351	31.64
706.536	32.04
706.72	31.75
706.905	31.51
707.09	31.26
707.274	31.17
707.459	31.43
707.644	31.69
707.828	31.77
708.013	31.56
708.197	31.59
708.382	32.11
708.567	32.11
708.751	32.28
708.936	32.45
709.12	32.65
709.305	32.83
709.489	32.57
709.673	32.15
709.858	32.03
710.042	32.36
710.227	32.64
710.411	32.4
710.596	32.62
710.78	33.12
710.964	33.04
711.149	33.14
711.333	33.37
711.517	33.1
711.702	33.48
711.886	33.49
712.07	33.65
712.254	33.41
712.438	33.08
712.623	32.86
712.807	32.5
712.991	32.73
713.175	32.4
713.359	31.86
713.544	32.28
713.728	32.16
713.912	32.22
714.096	32.15
714.28	32.44
714.464	32.75
714.648	32.81
714.832	32.99
715.016	32.85
715.2	33.12
715.384	33.3
715.568	33.28
715.752	33.65
715.936	33.74
716.12	33.61
716.304	33.24
716.488	33.34
716.671	33.27
716.855	33.01
717.039	32.58
717.223	32.37
717.407	32.39
717.59	31.99
717.774	31.51
717.958	31.75
718.142	31.75
718.325	31.97
718.509	31.6
718.693	31.95
718.877	32.53
719.06	32.94
719.244	33.16
719.428	33.08
719.611	33.69
719.795	33.88
719.978	33.77
720.162	33.78
720.345	33.67
720.529	33.52
720.713	33.36
720.896	32.48
721.08	32.04
721.263	31.94
721.446	31.66
721.63	31.34
721.813	31.38
721.997	30.88
722.18	30.54
722.364	30.76
722.547	31.25
722.73	31.45
722.914	31.64
723.097	32.16
723.28	32.46
723.464	32.71
723.647	32.31
723.83	32.32
724.013	32.55
724.197	32.43
724.38	32.35
724.563	31.68
724.746	31.63
724.929	32.22
725.112	32.31
725.296	32.19
725.479	32.38
725.662	33.03
725.845	32.95
726.028	33.11
726.211	33.47
726.394	33.41
726.577	33.52
726.76	33.37
726.943	32.59
727.126	32.38
727.309	32.19
727.492	32.04
727.675	32.14
727.858	32.18
728.041	31.54
728.224	31.69
728.407	31.6
728.589	31.61
728.772	31.63
728.955	32.13
729.138	32.3
729.321	32.38
729.503	32.13
729.686	31.84
729.869	31.82
730.052	32.43
730.234	32.83
730.417	32.93
730.6	33.15
730.782	32.89
730.965	33.09
731.148	32.72
731.33	32.58
731.513	32.91
731.695	33.22
731.878	33.42
732.061	33.36
732.243	33.18
732.426	33.03
732.608	32.99
732.791	33.13
732.973	32.93
733.156	33.22
733.338	33.54
733.52	33.85
733.703	33.42
733.885	33.29
734.068	33.3
734.25	32.88
734.432	33.43
734.615	33.89
734.797	34.26
734.979	34.37
735.162	34.4
735.344	34.24
735.526	33.67
735.708	33.89
735.891	33.78
736.073	33.68
736.255	33.56
736.437	32.78
736.619	32.32
736.802	32.13
736.984	31.76
737.166	31.72
737.348	32.17
737.53	32.29
737.712	32.4
737.894	32.52
738.076	32.71
738.258	32.85
738.44	33.13
738.622	33.4
738.804	33.15
738.986	33.83
739.168	33.98
739.35	33.74
739.532	33.47
739.714	33.19
739.896	33.25
740.078	33.07
740.259	33.63
740.441	33.84
740.623	34
740.805	34.6
740.987	34.2
741.168	33.91
741.35	33.86
741.532	34.36
741.714	34.87
741.895	34.87
742.077	35.19
742.259	34.65
742.44	34.63
742.622	34.81
742.804	33.92
742.985	33.9
743.167	34.73
743.348	33.87
743.53	33.89
743.711	33.29
743.893	33.17
744.075	32.9
744.256	32.72
744.438	33.27
744.619	32.82
744.8	33.68
744.982	33.3
745.163	32.71
745.345	33.64
745.526	33.82
745.707	34.09
745.889	34.44
746.07	34.52
746.252	34.62
746.433	33.75
746.614	33.76
746.795	33.2
746.977	34.68
747.158	34.49
747.339	34.14
747.52	34.43
747.702	34.18
747.883	33.84
748.064	34
748.245	34.73
748.426	34.98
748.607	34.79
748.788	35.28
748.97	35.02
749.151	34.7
749.332	34.96
749.513	34.63
749.694	34.85
749.875	35.56
750.056	35.73
750.237	35.61
750.418	35.09
750.599	35.38
750.78	34.74
750.96	34.02
751.141	34.67
751.322	34.85
751.503	34.5
751.684	34.37
751.865	34.43
752.046	33.97
752.226	33.64
752.407	34.12
752.588	34.1
752.769	34.81
752.949	34.61
753.13	34
753.311	33.52
753.492	33.62
753.672	34.16
753.853	33.52
754.034	33.57
754.214	33.31
754.395	33.62
754.575	33.91
754.756	33.24
754.937	33.47
755.117	34.5
755.298	34.91
755.478	35.11
755.659	34.71
755.839	34.11
756.02	34.66
756.2	34.58
756.381	33.9
756.561	34.72
756.741	34.91
756.922	34.78
757.102	34.09
757.283	33.82
757.463	34.03
757.643	34.38
757.823	34.71
758.004	35.04
758.184	35.1
758.364	35.48
758.545	34.05
758.725	33.35
758.905	33.53
759.085	33.61
759.265	33.64
759.446	33.52
759.626	33.26
759.806	33.26
759.986	33.02
760.166	32.96
760.346	33.3
760.526	33.71
760.706	34.44
760.886	33.97
761.066	34.4
761.246	35.04
761.426	35.4
761.606	35.61
761.786	35.57
761.966	35.23
762.146	36.26
762.326	36.12
762.506	36.6
762.686	36.57
762.866	36.71
763.046	36.7
763.225	36.63
763.405	36.19
763.585	35.67
763.765	35.61
763.945	35.63
764.124	35.26
764.304	34.94
764.484	34.49
764.664	34.46
764.843	34.66
765.023	34.32
765.203	33.96
765.382	34.08
765.562	34.12
765.741	34.43
765.921	34.38
766.101	33.87
766.28	33.83
766.46	33.82
766.639	34.01
766.819	34.27
766.998	34.71
767.178	35.42
767.357	35.23
767.537	35.4
767.716	35.35
767.896	35.31
768.075	35.02
768.254	35.08
768.434	34.61
768.613	34.35
768.792	34.4
768.972	33.63
769.151	33.29
769.33	33.36
769.51	33.99
769.689	34.02
769.868	34.88
770.047	35.47
770.226	36.37
770.406	36.94
770.585	37.27
770.764	36.47
770.943	37.1
771.122	36.76
771.301	37.16
771.48	36.74
771.66	37.5
771.839	36.23
772.018	35.83
772.197	35.29
772.376	35.29
772.555	35.54
772.734	35.71
772.913	35.61
773.092	35.65
773.271	34.94
773.449	35.25
773.628	34.18
773.807	35.29
773.986	35.75
774.165	35.42
774.344	36.26
774.523	35.82
774.701	35.88
774.88	35.43
775.059	34.24
775.238	34.42
775.417	33.67
775.595	34.57
775.774	34.56
775.953	34.49
776.131	35.29
776.31	33.66
776.489	34.07
776.667	34.71
776.846	35.29
777.025	35.78
777.203	36.44
777.382	37.43
777.56	37.05
777.739	36.23
777.917	35.87
778.096	35.52
778.274	37.01
778.453	36.31
778.631	35.53
778.81	34.5
778.988	35.38
779.166	34.22
779.345	34.09
779.523	33.6
779.702	33.8
779.88	33.74
780.058	32.96
780.237	32.46
780.415	32.31
780.593	32.25
780.771	33.54
780.95	33.3
781.128	33.51
781.306	33.02
781.484	33.51
781.662	34.19
781.841	33.96
782.019	34.78
782.197	34.29
782.375	34.75
782.553	35.17
782.731	35.11
782.909	34.28
783.087	34.43
783.265	34.64
783.443	34.05
783.621	33.3
783.799	33.4
783.977	33.47
784.155	33.43
784.333	33.82
784.511	32.37
784.689	31.1
784.867	31.01
785.045	31.05
785.223	30.67
785.4	30.93
785.578	30.61
785.756	31.54
785.934	31.29
786.112	31.96
786.289	31.76
786.467	33.36
786.645	34.14
786.823	35.31
787	34.97
787.178	35.31
787.356	34.84
787.533	35.27
787.711	35.95
787.889	36.16
788.066	35.86
788.244	35.88
788.421	34.77
788.599	33.81
788.776	33.46
788.954	33.9
789.131	33.93
789.309	35.16
789.486	35.31
789.664	34.48
789.841	33.97
790.019	33.43
790.196	33.34
790.373	34.23
790.551	35.37
790.728	35.7
790.906	35.93
791.083	35.15
791.26	34.71
791.437	34.13
791.615	33.49
791.792	33.21
791.969	32.9
792.146	32.95
792.324	32.88
792.501	32.97
792.678	32.54
792.855	33.73
793.032	34.15
793.209	33.79
793.387	34.57
793.564	34.05
793.741	34.72
793.918	35.58
794.095	36.06
794.272	35.81
794.449	35.39
794.626	34.04
794.803	33.33
794.98	33.42
795.157	32.8
795.334	31.87
795.511	31.16
795.688	30.91
795.864	30.72
796.041	30.13
796.218	30.76
796.395	30.7
796.572	32.71
796.749	31.82
796.925	32.41
797.102	33.49
797.279	34.04
797.456	34.33
797.632	35.45
797.809	35.02
797.986	34.36
798.162	33.73
798.339	33.1
798.516	32.19
798.692	31.77
798.869	31.8
799.046	32.39
799.222	33.04
799.399	33.87
799.575	32.99
799.752	33.27
799.928	33.55
800.105	33.92
800.281	34.48
800.458	35.46
800.634	36.51
800.811	36.48
800.987	35.15
801.163	33.71
801.34	34.34
801.516	34.14
801.692	34.78
801.869	35.57
802.045	35.25
802.221	35.51
802.398	35.96
802.574	35.88
802.75	36.1
802.926	37.1
803.103	37.61
803.279	37.22
803.455	38.04
803.631	37.29
803.807	37.69
803.983	37.56
804.16	37.87
804.336	36.47
804.512	36.59
804.688	37
804.864	35.87
805.04	36.52
805.216	36.17
805.392	34.9
805.568	35.64
805.744	35.15
805.92	36.27
806.096	36.17
806.272	36.15
806.448	35.84
806.623	34.39
806.799	34.84
806.975	35.47
807.151	35.79
807.327	36.65
807.503	35.6
807.678	34.94
807.854	34.19
808.03	34.55
808.206	34.68
808.381	34.73
808.557	35.11
808.733	35.84
808.908	35.21
809.084	34.73
809.26	34.29
809.435	34.68
809.611	35.02
809.787	34.94
809.962	34.36
810.138	34.38
810.313	34.83
810.489	34.82
810.664	34.31
810.84	34.46
811.015	33.82
811.191	32.58
811.366	32.72
811.542	31.13
811.717	32
811.892	33.05
812.068	33.62
812.243	33.63
812.419	33.24
812.594	32.66
812.769	30.89
812.944	32.59
813.12	33.59
813.295	33.94
813.47	34.82
813.645	34.72
813.821	34.38
813.996	32.81
814.171	31.11
814.346	30.8
814.521	31.48
814.697	33.45
814.872	32.54
815.047	32.86
815.222	34.13
815.397	35.1
815.572	35.33
815.747	35.46
815.922	36.45
816.097	37.41
816.272	37.84
816.447	36.94
816.622	34.89
816.797	36.16
816.972	35.57
817.147	33.15
817.322	32.37
817.496	31.56
817.671	30.05
817.846	29.82
818.021	30.65
818.196	31.04
818.371	30.88
818.545	32.4
818.72	32.85
818.895	33.21
819.069	34.07
819.244	35.17
819.419	35.25
819.594	35.31
819.768	36.42
819.943	36.45
820.117	36.19
820.292	36.21
820.467	35.81
820.641	35.89
820.816	35.81
820.99	36.04
821.165	35.88
821.339	35.4
821.514	35.71
821.688	35.45
821.863	35.05
822.037	35.04
822.212	35.04
822.386	34.98
822.56	34.77
822.735	35.06
822.909	34.79
823.084	34.66
823.258	34.52
823.432	34.09
823.606	34.04
823.781	34.36
823.955	34.35
824.129	34.61
824.303	34.77
824.478	34.72
824.652	33.97
824.826	34.26
825	34.37
825.174	34.83
825.348	35.58
825.523	35.45
825.697	35.11
825.871	35.15
826.045	34.92
826.219	35.28
826.393	35.01
826.567	35.43
826.741	34.92
826.915	34.8
827.089	34.94
827.263	34.52
827.437	34.68
827.611	34.69
827.784	34.71
827.958	34.62
828.132	34.74
828.306	35.46
828.48	36.06
828.654	36.38
828.827	36.76
829.001	36.2
829.175	37.03
829.349	36.85
829.522	37.28
829.696	37
829.87	37.08
830.044	36.29
830.217	35.82
830.391	35.14
830.565	35.52
830.738	35.43
830.912	36.72
831.085	34.48
831.259	33.83
831.432	34.44
831.606	35.5
831.779	36.05
831.953	35.5
832.126	34.87
832.3	34.04
832.473	34.45
832.647	33.64
832.82	33.5
832.994	34.48
833.167	34.83
833.34	34.13
833.514	33.78
833.687	33.86
833.86	34.5
834.034	34.42
834.207	34.74
834.38	34.35
834.553	35.35
834.727	35.47
834.9	36
835.073	36.33
835.246	37.08
835.419	37.22
835.593	35.93
835.766	34.56
835.939	34.84
836.112	35.23
836.285	34.68
836.458	34.2
836.631	32.59
836.804	31.18
836.977	30.86
837.15	30.77
837.323	31.53
837.496	32.48
837.669	33.25
837.842	33.94
838.015	33.32
838.188	33.7
838.361	32.82
838.533	34
838.706	34.45
838.879	33.95
839.052	33.6
839.225	32.92
839.398	32.53
839.57	32.92
839.743	32.11
839.916	34.1
840.088	34.96
840.261	35.19
840.434	35.97
840.607	36.43
840.779	38.55
840.952	38.92
841.124	38.98
841.297	39.84
841.47	40.21
841.642	39.51
841.815	37.4
841.987	36.09
842.16	35.64
842.332	34.68
842.505	35.55
842.677	33.11
842.85	30.49
843.022	30.05
843.194	29.56
843.367	31.05
843.539	33.24
843.712	32.77
843.884	32.12
844.056	33.36
844.229	39.07
844.401	37.96
844.573	39.06
844.745	40.15
844.918	40.01
845.09	39.52
845.262	38.72
845.434	38.06
845.606	40.26
845.779	44.71
845.951	42.46
846.123	37.66
846.295	37.85
846.467	38.77
846.639	40.66
846.811	41.22
846.983	42.51
847.155	44.95
847.327	46.43
847.499	45.96
847.671	42.28
847.843	45.29
848.015	43.68
848.187	42.79
848.359	42.76
848.531	38.01
848.703	38
848.875	37.65
849.047	34.24
849.218	30.51
849.39	30.53
849.562	30.33
849.734	25.86
849.905	26.66
850.077	30.58
850.249	28.55
850.421	30.85
850.592	32.17
850.764	31.21
850.936	30.81
851.107	30.66
851.279	28.39
851.451	31.54
851.622	37.55
851.794	43.66
851.965	34.73
852.137	34.87
852.308	38.66
852.48	38.09
852.651	39.47
852.823	39.48
852.994	43.74
853.166	41.29
853.337	41.98
853.509	40.37
853.68	35.69
853.851	39.74
854.023	40.51
854.194	36.95
854.365	36.8
854.537	36.54
854.708	39.3
854.879	34.84
855.05	32.25
855.222	32.33
855.393	32.7
855.564	32
855.735	32.31
855.906	30.23
856.078	31.75
856.249	32.4
856.42	31.71
856.591	33.81
856.762	36.44
856.933	41.33
857.104	38.35
857.275	34.96
857.446	35.13
857.617	37.99
857.788	43.78
857.959	45.13
858.13	41.16
858.301	42.97
858.472	39.91
858.643	36.66
858.814	38.11
858.985	36.84
859.155	37.35
859.326	37.21
859.497	30.67
859.668	28.16
859.839	29.96
860.009	31.64
860.18	29.79
860.351	29.25
860.522	33.49
860.692	33.51
860.863	33.78
861.034	31.89
861.204	30.75
861.375	33.63
861.546	31.5
861.716	31.33
861.887	30.6
862.057	29.37
862.228	27.92
862.398	22.3
862.569	22.39
862.739	23.32
862.91	28.81
863.08	27.59
863.251	29.11
863.421	27.29
863.592	23.63
863.762	30.39
863.932	31.45
864.103	32.02
864.273	38.2
864.443	35.79
864.614	34.96
864.784	28.41
864.954	32.02
865.125	32.08
865.295	36.01
865.465	34.19
865.635	31.23
865.805	29.78
865.976	30.22
866.146	26.82
866.316	27.13
866.486	30.43
866.656	32.89
866.826	34.09
866.996	34.32
867.166	34.82
867.336	36.5
867.506	34.51
867.676	37.46
867.846	35.56
868.016	38.6
868.186	37.49
868.356	35.79
868.526	37.38
868.696	32.16
868.866	34.1
869.036	27.25
869.206	26.97
869.376	26.63
869.545	18.93
869.715	21.83
869.885	23.11
870.055	28.03
870.224	24.44
870.394	25.58
870.564	29.86
870.734	26.1
870.903	32.81
871.073	35.22
871.243	29.87
871.412	36.16
871.582	38.54
871.751	34.21
871.921	31.53
872.091	36.49
872.26	32.79
872.43	32.55
872.599	33.64
872.769	34.42
872.938	34.17
873.108	40.92
873.277	43.11
873.446	41.55
873.616	41.32
873.785	44.05
873.955	42.37
874.124	43.25
874.293	42.2
874.463	45.58
874.632	44.26
874.801	44.73
874.971	41.41
875.14	40.43
875.309	40.1
875.478	41.25
875.647	36.44
875.817	38.37
875.986	37.1
876.155	41.44
876.324	39.07
876.493	37.38
876.662	36.98
876.831	36.58
877	32.68
877.17	29.73
877.339	30.7
877.508	38.08
877.677	32.64
877.846	35.85
878.015	32.23
878.184	26.6
878.352	26.23
878.521	27.04
878.69	25.67
878.859	28.23
879.028	30.38
879.197	29.86
879.366	26.25
879.534	28.81
879.703	29.39
879.872	31.63
880.041	35.64
880.21	35.99
880.378	34.75
880.547	34.75
880.716	35.48
880.884	35.65
881.053	36.06
881.222	36.87
881.39	37.33
881.559	37.1
881.727	36.23
881.896	36.02
882.065	36.35
882.233	36.79
882.402	36.63
882.57	36.92
882.739	36.51
882.907	36.72
883.076	36.82
883.244	36.27
883.412	36.33
883.581	36.84
883.749	36.92
883.918	36.9
884.086	37.02
884.254	37.74
884.423	36.72
884.591	37.81
884.759	38.15
884.927	37.52
885.096	38.07
885.264	37.16
885.432	36.93
885.6	36.7
885.769	35.69
885.937	34.63
886.105	35.41
886.273	35.96
886.441	35.12
886.609	35.51
886.777	34.63
886.945	34.3
887.113	36.09
887.281	33.38
887.449	36.8
887.617	37.78
887.785	40.27
887.953	42.37
888.121	43.58
888.289	40.83
888.457	35.89
888.625	34.67
888.793	36.35
888.961	34.64
889.129	42.32
889.296	40.12
889.464	41.33
889.632	40.1
889.8	34.13
889.967	31.38
890.135	37.18
