Data from 2938545_Reflection_1.txt Node
Date: Mon Jun 15 00:24:51 EDT 2015
User: robert
Spectrometer: USB4E03002
Autoset integration time: false
Trigger mode: 4
Integration Time (sec): 1.000000E-1
Scans to average: 10
Electric dark correction enabled: true
Nonlinearity correction enabled: false
Boxcar width: 5
Stray light correction enabled: false
XAxis mode: Wavelengths
Stop averaging: false
Number of Pixels in Spectrum: 3648
>>>>>Begin Spectral Data<<<<<
177.575	46.15
177.794	19.08
178.014	13.27
178.233	40.33
178.452	53.89
178.672	-5.11
178.891	-37.72
179.11	146.5
179.33	214.85
179.549	73.44
179.768	-4.03
179.987	9.96
180.207	-25.66
180.426	-146.88
180.645	-31.96
180.864	-15.08
181.084	-97.4
181.303	-409.12
181.522	484.24
181.741	-241.62
181.96	1318.23
182.179	48.83
182.398	61.4
182.618	67.94
182.837	-273.29
183.056	34.85
183.275	126.77
183.494	-576.11
183.713	340.85
183.932	-273.13
184.151	-90.21
184.37	-59.14
184.589	-172.61
184.808	-61.61
185.027	-27.16
185.246	-32.01
185.465	-2.04
185.684	44.49
185.903	76.6
186.122	61.81
186.341	133.33
186.56	2.26
186.779	26.28
186.998	-11.3
187.216	60.56
187.435	82.96
187.654	66.48
187.873	74.54
188.092	63.87
188.311	60.19
188.53	46.69
188.748	48.1
188.967	33.91
189.186	29.28
189.405	38.88
189.623	13.52
189.842	30.76
190.061	38.85
190.28	28.38
190.498	47.52
190.717	32.33
190.936	68.78
191.154	22.65
191.373	187.5
191.592	255.65
191.81	0.29
192.029	13.57
192.248	24.72
192.466	43.51
192.685	57.72
192.904	63.49
193.122	48.36
193.341	73.29
193.559	97.73
193.778	19.44
193.996	53.91
194.215	83.62
194.433	0.38
194.652	-0.96
194.87	-74.55
195.089	1352.54
195.307	168.09
195.526	261.83
195.744	2153.38
195.963	-150.25
196.181	-154.15
196.399	-469.69
196.618	-914.73
196.836	-2289.94
197.055	-231.53
197.273	-289.95
197.491	1.55
197.71	78.93
197.928	3.98
198.146	42.67
198.365	-97.39
198.583	-312.16
198.801	538.63
199.019	-252.02
199.238	3779.31
199.456	121.75
199.674	383.82
199.892	618.76
200.111	296.23
200.329	264.53
200.547	530.3
200.765	1435.98
200.983	476.67
201.202	1150.53
201.42	723.75
201.638	300.6
201.856	-174.25
202.074	-411.43
202.292	194.37
202.51	143.37
202.728	168.49
202.946	-160.82
203.165	42.18
203.383	123.79
203.601	30.59
203.819	54.41
204.037	-36.27
204.255	-57.33
204.473	-53.6
204.691	-76.59
204.909	-43.06
205.127	-48.64
205.345	-133.7
205.562	-191.45
205.78	-262.45
205.998	-451.46
206.216	-532.98
206.434	-6421.26
206.652	561.24
206.87	463.49
207.088	447.31
207.306	150.29
207.523	100.24
207.741	130.42
207.959	93.42
208.177	-329.66
208.395	-59.1
208.612	-107.57
208.83	557.86
209.048	141.45
209.266	64.74
209.483	24.13
209.701	68.88
209.919	43.86
210.136	21.34
210.354	-48.43
210.572	-88.91
210.79	-56.11
211.007	-45.36
211.225	-61.14
211.442	-80.55
211.66	-110.88
211.878	-151.89
212.095	-173.88
212.313	-90
212.53	-89.4
212.748	-14.09
212.966	-58.1
213.183	-71.1
213.401	-80.33
213.618	-97.58
213.836	-92.81
214.053	-111.46
214.271	-112.73
214.488	-104.94
214.705	-115.85
214.923	-107.09
215.14	-108.05
215.358	-52.77
215.575	-41.42
215.793	-10.91
216.01	-30.48
216.227	-30.53
216.445	-11.17
216.662	-14.82
216.879	-7.99
217.097	-17.67
217.314	-1.45
217.531	7.99
217.749	15.13
217.966	27.51
218.183	13.16
218.4	13.56
218.618	7.71
218.835	6.09
219.052	11.04
219.269	9.97
219.487	6.3
219.704	-4.06
219.921	-19.21
220.138	-13.91
220.355	-32.36
220.572	-36.68
220.79	-28.4
221.007	-21.26
221.224	-29.78
221.441	-10.75
221.658	4.46
221.875	3.21
222.092	7.45
222.309	5.92
222.526	0.04
222.743	-1.37
222.96	1.51
223.177	-0.92
223.394	3.43
223.611	5.9
223.828	-3.13
224.045	-16.89
224.262	-10.82
224.479	-12.8
224.696	-2.51
224.913	-5.1
225.13	-2.36
225.347	2.07
225.564	3.49
225.781	4.16
225.997	3.91
226.214	6.9
226.431	9.08
226.648	8.01
226.865	10.13
227.082	7.49
227.298	10.02
227.515	10.03
227.732	9.98
227.949	10.92
228.165	11.3
228.382	12.93
228.599	12.19
228.816	12.67
229.032	13.12
229.249	11.4
229.466	11.33
229.682	11.1
229.899	10.29
230.116	9.61
230.332	7.87
230.549	3.66
230.765	1.14
230.982	1.81
231.199	-0.57
231.415	-1.09
231.632	0.17
231.848	3.92
232.065	3.65
232.281	5.41
232.498	4.08
232.714	2.91
232.931	5.83
233.147	6.09
233.364	6.11
233.58	6.83
233.797	8.25
234.013	7.16
234.23	6.5
234.446	3.86
234.662	7.46
234.879	9.3
235.095	10.22
235.312	11.08
235.528	13.2
235.744	12.53
235.961	11.91
236.177	11.36
236.393	13.07
236.61	13.2
236.826	14.39
237.042	11.09
237.258	11.86
237.475	11.5
237.691	10.11
237.907	7.83
238.123	8.23
238.339	8.33
238.556	6.97
238.772	5.37
238.988	5.78
239.204	4.37
239.42	4.79
239.636	3.85
239.853	5.1
240.069	5.17
240.285	5.49
240.501	5.22
240.717	5.96
240.933	6.73
241.149	6.94
241.365	6.63
241.581	7.37
241.797	7.84
242.013	8.09
242.229	8.04
242.445	8.18
242.661	7.92
242.877	8.34
243.093	8.88
243.309	9.24
243.525	8.95
243.741	8.76
243.957	8.84
244.173	8.12
244.388	8.82
244.604	8.48
244.82	8.99
245.036	8.86
245.252	8.59
245.468	8.25
245.683	8.01
245.899	7.85
246.115	7.98
246.331	7.86
246.547	7.72
246.762	7.23
246.978	7.07
247.194	6.86
247.409	6.88
247.625	6.72
247.841	6.25
248.057	6.39
248.272	6.77
248.488	5.67
248.703	5.27
248.919	5.73
249.135	5.6
249.35	5.48
249.566	5.01
249.782	5.1
249.997	5.63
250.213	5.64
250.428	4.84
250.644	4.7
250.859	4.97
251.075	5.29
251.29	5.18
251.506	5.31
251.721	4.87
251.937	4.59
252.152	4.94
252.368	4.1
252.583	4.11
252.798	3.39
253.014	3.86
253.229	3.33
253.445	2.38
253.66	1.56
253.875	1.98
254.091	3.13
254.306	4.62
254.521	3.3
254.737	4.55
254.952	4.18
255.167	6
255.383	5.88
255.598	6.6
255.813	6.64
256.028	6.92
256.244	5.79
256.459	5.47
256.674	4.78
256.889	4.68
257.104	4.74
257.32	5.9
257.535	5.58
257.75	5.55
257.965	5.24
258.18	5.31
258.395	5.13
258.61	5.57
258.826	5.55
259.041	5.83
259.256	6.32
259.471	6.31
259.686	5.59
259.901	5.63
260.116	5.47
260.331	5.99
260.546	6.13
260.761	6.32
260.976	6.18
261.191	5.95
261.406	5.23
261.621	4.74
261.836	4.68
262.05	5.07
262.265	5.71
262.48	5.66
262.695	5.42
262.91	5.5
263.125	5.1
263.34	5.09
263.555	5.73
263.769	5.94
263.984	5.51
264.199	5.12
264.414	4.86
264.629	4.26
264.843	4.8
265.058	5.1
265.273	4.85
265.488	5.16
265.702	5.23
265.917	5.3
266.132	4.95
266.346	5.49
266.561	5.27
266.776	5.76
266.99	5.87
267.205	5.76
267.42	5.63
267.634	5.83
267.849	6.28
268.063	6.04
268.278	5.88
268.492	6.33
268.707	5.93
268.922	6.4
269.136	5.98
269.351	5.71
269.565	5.1
269.78	5.02
269.994	5.03
270.209	4.43
270.423	4.75
270.637	4.22
270.852	4.16
271.066	4.14
271.281	3.99
271.495	4.05
271.709	4.38
271.924	5
272.138	4.89
272.353	4.99
272.567	4.98
272.781	4.99
272.996	5.26
273.21	5.32
273.424	5.52
273.638	5.49
273.853	5.83
274.067	5.25
274.281	4.92
274.495	4.78
274.71	4.56
274.924	4.92
275.138	4.41
275.352	4.26
275.566	3.68
275.781	3.37
275.995	3.37
276.209	2.82
276.423	3.47
276.637	3.58
276.851	3.69
277.065	3.52
277.279	3.38
277.493	4.02
277.707	4.42
277.921	5.17
278.135	5.48
278.349	5.16
278.563	4.55
278.777	4.43
278.991	4.17
279.205	3.74
279.419	3.8
279.633	3.95
279.847	3.68
280.061	3.84
280.275	3.73
280.489	3.75
280.703	4.15
280.917	4.57
281.131	4.24
281.344	4.59
281.558	5.2
281.772	5.18
281.986	5.35
282.2	5.56
282.414	5.57
282.627	5.52
282.841	5.47
283.055	5.53
283.269	5.42
283.482	5.63
283.696	5.64
283.91	5.51
284.123	5.78
284.337	5.75
284.551	5.72
284.764	6.03
284.978	6.12
285.192	5.7
285.405	5.3
285.619	5.47
285.833	4.76
286.046	4.56
286.26	4.82
286.473	4.36
286.687	4.3
286.9	3.92
287.114	3.43
287.327	3.29
287.541	3.64
287.754	3.71
287.968	3.63
288.181	4.77
288.395	4.6
288.608	4.05
288.822	4.08
289.035	3.58
289.248	3.79
289.462	3.71
289.675	3.95
289.889	4.31
290.102	4.3
290.315	4.28
290.529	3.52
290.742	3.58
290.955	3.91
291.169	3.67
291.382	4.02
291.595	4.02
291.808	4.06
292.022	4.23
292.235	3.92
292.448	3.9
292.661	4.03
292.875	4.31
293.088	4.24
293.301	4.21
293.514	4.76
293.727	5.05
293.94	4.98
294.153	5.08
294.367	4.9
294.58	4.84
294.793	4.92
295.006	4.78
295.219	4.62
295.432	4.91
295.645	5.17
295.858	4.82
296.071	4.67
296.284	4.56
296.497	4.53
296.71	4.32
296.923	4.57
297.136	4.59
297.349	4.64
297.562	4.34
297.775	4.07
297.988	3.75
298.201	3.87
298.414	3.76
298.626	3.89
298.839	3.89
299.052	3.82
299.265	3.92
299.478	4.06
299.691	4.11
299.903	4.62
300.116	4.71
300.329	4.95
300.542	4.94
300.755	5.26
300.967	5.38
301.18	5.24
301.393	5.59
301.605	5.27
301.818	5.07
302.031	5.35
302.243	5.39
302.456	5.31
302.669	4.8
302.881	5.2
303.094	5.05
303.307	4.61
303.519	4.96
303.732	4.95
303.944	5.17
304.157	5.3
304.37	5.11
304.582	5.04
304.795	5.1
305.007	5.63
305.22	5.45
305.432	5.45
305.645	5.58
305.857	5.43
306.069	5.08
306.282	5.41
306.494	5.15
306.707	5.33
306.919	5.37
307.132	5.28
307.344	4.98
307.556	5.17
307.769	5.26
307.981	5.28
308.193	5.27
308.406	5.4
308.618	4.83
308.83	5.06
309.043	4.79
309.255	4.69
309.467	4.84
309.679	5.26
309.892	5.06
310.104	4.87
310.316	5.15
310.528	5.07
310.74	5.38
310.953	5.62
311.165	5.52
311.377	5.7
311.589	5.84
311.801	5.79
312.013	5.28
312.225	5.1
312.437	5.32
312.649	5.15
312.862	5.07
313.074	5.03
313.286	4.87
313.498	5.24
313.71	5.01
313.922	5.14
314.134	5.2
314.346	4.84
314.558	4.9
314.77	4.85
314.982	4.89
315.193	4.96
315.405	4.68
315.617	4.66
315.829	4.61
316.041	4.6
316.253	4.08
316.465	4.24
316.677	4.27
316.888	4.14
317.1	3.96
317.312	4.02
317.524	4.03
317.736	4.27
317.947	4.62
318.159	4.28
318.371	4.32
318.583	4.31
318.794	3.84
319.006	4.06
319.218	4.27
319.43	4.44
319.641	4.52
319.853	4.82
320.064	4.6
320.276	4.45
320.488	4.75
320.699	4.83
320.911	5.13
321.123	6.07
321.334	6.3
321.546	6.38
321.757	6.4
321.969	6.3
322.18	5.88
322.392	5.62
322.603	5.56
322.815	5.09
323.026	5.06
323.238	4.98
323.449	4.61
323.661	4.54
323.872	4.53
324.083	4.72
324.295	4.75
324.506	5.04
324.718	5.25
324.929	5.56
325.14	5.98
325.352	6.7
325.563	6.91
325.774	6.88
325.986	6.84
326.197	6.86
326.408	7.18
326.62	7.16
326.831	7.32
327.042	7.42
327.253	7
327.464	6.85
327.676	6.42
327.887	6.27
328.098	6.43
328.309	6.48
328.52	6.51
328.732	6.34
328.943	6.14
329.154	5.89
329.365	6.03
329.576	5.94
329.787	6.37
329.998	5.97
330.209	6.29
330.42	6.27
330.631	6.19
330.842	6.48
331.053	6.25
331.264	6.46
331.475	6.75
331.686	6.44
331.897	6.51
332.108	6.07
332.319	6.15
332.53	6.02
332.741	6.28
332.952	6.4
333.163	5.86
333.374	5.51
333.585	5.52
333.795	5.42
334.006	5.74
334.217	6.35
334.428	6.56
334.639	6.54
334.849	6.18
335.06	5.71
335.271	5.82
335.482	5.96
335.692	6
335.903	5.8
336.114	5.76
336.325	5.91
336.535	5.78
336.746	5.67
336.957	5.95
337.167	6.1
337.378	6.02
337.589	5.98
337.799	5.83
338.01	6.2
338.22	6.29
338.431	6.05
338.642	5.69
338.852	5.4
339.063	5.54
339.273	5.36
339.484	5.27
339.694	5.35
339.905	5.56
340.115	5.96
340.326	6.2
340.536	6.19
340.746	5.97
340.957	6.22
341.167	6.22
341.378	6.47
341.588	6.28
341.799	6.59
342.009	6.58
342.219	6.62
342.43	6.79
342.64	6.37
342.85	6.4
343.061	6.64
343.271	6.63
343.481	6.62
343.691	6.35
343.902	6.67
344.112	6.82
344.322	6.81
344.532	6.54
344.743	6.26
344.953	6.29
345.163	6.06
345.373	6.41
345.583	6.06
345.793	6
346.004	5.89
346.214	5.73
346.424	5.53
346.634	5.65
346.844	5.79
347.054	5.86
347.264	5.52
347.474	5.71
347.684	5.58
347.894	6.12
348.104	6.21
348.314	6.1
348.524	5.97
348.734	5.95
348.944	5.57
349.154	5.73
349.364	5.67
349.574	5.95
349.784	6.1
349.994	5.91
350.204	5.45
350.413	5.18
350.623	5.29
350.833	5.34
351.043	5.28
351.253	5.93
351.463	5.56
351.672	5.44
351.882	5.68
352.092	5.77
352.302	5.66
352.511	5.4
352.721	5.59
352.931	5.79
353.141	5.94
353.35	5.84
353.56	5.62
353.77	5.6
353.979	5.44
354.189	5.22
354.399	5.21
354.608	5.47
354.818	5.69
355.027	5.95
355.237	5.88
355.447	5.69
355.656	6.08
355.866	5.87
356.075	5.85
356.285	6.17
356.494	6.15
356.704	5.85
356.913	5.53
357.123	5.76
357.332	5.49
357.542	5.49
357.751	5.54
357.96	5.36
358.17	5.65
358.379	5.75
358.589	5.61
358.798	5.38
359.007	5.35
359.217	5.59
359.426	5.34
359.635	5.53
359.845	5.43
360.054	5.42
360.263	5.6
360.472	5.25
360.682	5.24
360.891	5.49
361.1	5.81
361.309	5.83
361.519	5.8
361.728	5.66
361.937	5.61
362.146	5.87
362.355	6.01
362.564	5.72
362.774	5.99
362.983	5.92
363.192	5.73
363.401	5.61
363.61	5.64
363.819	5.53
364.028	5.83
364.237	5.66
364.446	5.14
364.655	4.99
364.864	4.9
365.073	4.85
365.282	5.01
365.491	4.84
365.7	4.64
365.909	4.64
366.118	4.67
366.327	4.76
366.536	4.85
366.745	4.85
366.954	4.79
367.162	4.62
367.371	4.7
367.58	4.47
367.789	4.53
367.998	4.74
368.207	4.92
368.415	4.91
368.624	4.83
368.833	4.39
369.042	4.71
369.25	4.81
369.459	4.93
369.668	4.77
369.877	5
370.085	5
370.294	4.86
370.503	4.51
370.711	4.41
370.92	4.42
371.129	4.96
371.337	4.75
371.546	4.6
371.754	4.71
371.963	4.75
372.171	4.38
372.38	4.19
372.589	4.12
372.797	4.4
373.006	4.55
373.214	4.79
373.423	4.9
373.631	4.92
373.84	4.96
374.048	4.8
374.256	4.61
374.465	4.82
374.673	4.84
374.882	4.92
375.09	4.97
375.298	4.83
375.507	4.56
375.715	4.3
375.923	4.46
376.132	4.68
376.34	4.87
376.548	5.01
376.757	5.11
376.965	5.26
377.173	5.19
377.381	5.07
377.59	5.16
377.798	5.03
378.006	5.21
378.214	5.34
378.423	5.36
378.631	5.18
378.839	4.87
379.047	4.7
379.255	4.66
379.463	4.93
379.671	5.21
379.879	5.12
380.088	5.19
380.296	4.9
380.504	4.86
380.712	4.98
380.92	5.04
381.128	5.06
381.336	5.21
381.544	5.26
381.752	5.1
381.96	4.89
382.168	4.8
382.376	4.78
382.584	4.91
382.791	4.77
382.999	4.58
383.207	4.68
383.415	5
383.623	4.77
383.831	4.82
384.039	4.67
384.247	4.63
384.454	4.84
384.662	4.87
384.87	4.64
385.078	4.57
385.285	4.43
385.493	4.3
385.701	4.32
385.909	4.41
386.116	4.24
386.324	4.37
386.532	4.21
386.739	4.17
386.947	3.99
387.155	4.39
387.362	4.35
387.57	4.26
387.778	4.12
387.985	4.1
388.193	4.2
388.4	4.27
388.608	4.31
388.816	4.38
389.023	4.58
389.231	4.65
389.438	4.36
389.646	4.39
389.853	4.31
390.061	4.49
390.268	4.46
390.475	4.25
390.683	4.15
390.89	3.96
391.098	3.97
391.305	3.83
391.512	3.89
391.72	3.81
391.927	3.63
392.135	3.87
392.342	3.85
392.549	3.8
392.756	4.05
392.964	4.21
393.171	4.26
393.378	4.25
393.586	4.08
393.793	4.16
394	4.36
394.207	4.47
394.414	4.34
394.622	4.16
394.829	4.31
395.036	4.13
395.243	4
395.45	4.16
395.657	4.18
395.864	4.22
396.072	4.21
396.279	4.26
396.486	4.49
396.693	4.53
396.9	4.53
397.107	4.23
397.314	4.13
397.521	4.08
397.728	4.01
397.935	4.1
398.142	4.13
398.349	4.17
398.556	4.05
398.763	3.75
398.97	3.75
399.177	3.75
399.383	3.76
399.59	3.92
399.797	3.99
400.004	3.9
400.211	3.8
400.418	3.89
400.625	3.86
400.831	3.66
401.038	3.84
401.245	3.62
401.452	3.59
401.658	3.55
401.865	3.35
402.072	3.24
402.279	3.13
402.485	3.09
402.692	2.95
402.899	2.8
403.105	2.69
403.312	2.53
403.519	2.84
403.725	2.75
403.932	2.84
404.138	2.83
404.345	2.88
404.552	3.01
404.758	3.09
404.965	3.09
405.171	3.12
405.378	3.15
405.584	3.17
405.791	2.89
405.997	3.05
406.204	2.97
406.41	3.05
406.617	3.15
406.823	3.02
407.029	3.01
407.236	3.06
407.442	3.17
407.649	3.25
407.855	3.4
408.061	3.46
408.268	3.42
408.474	3.4
408.68	3.57
408.887	3.54
409.093	3.49
409.299	3.41
409.505	3.48
409.712	3.55
409.918	3.58
410.124	3.49
410.33	3.6
410.537	3.7
410.743	3.89
410.949	3.55
411.155	3.34
411.361	3.54
411.567	3.47
411.773	3.3
411.98	3.15
412.186	3.12
412.392	3.06
412.598	2.89
412.804	2.95
413.01	2.7
413.216	2.92
413.422	3.02
413.628	2.89
413.834	2.91
414.04	2.93
414.246	2.88
414.452	2.89
414.658	2.96
414.864	3.16
415.07	3.07
415.275	3.19
415.481	3.16
415.687	3.16
415.893	3.16
416.099	3.15
416.305	3.25
416.511	3.32
416.716	3.25
416.922	3.23
417.128	3.14
417.334	3.16
417.539	3.13
417.745	3.18
417.951	3.2
418.157	3.31
418.362	3.33
418.568	3.24
418.774	3.16
418.979	3.24
419.185	3.19
419.391	3.31
419.596	3.25
419.802	3.27
420.008	3.26
420.213	3.34
420.419	3.17
420.624	3.27
420.83	3.31
421.035	3.36
421.241	3.37
421.446	3.39
421.652	3.25
421.857	3.29
422.063	3.27
422.268	3.28
422.474	3.17
422.679	3.23
422.885	3.18
423.09	3.15
423.295	3.15
423.501	3.1
423.706	3
423.911	3.02
424.117	2.94
424.322	2.9
424.527	2.84
424.733	2.8
424.938	2.77
425.143	2.77
425.349	2.79
425.554	2.73
425.759	2.81
425.964	3.03
426.169	3.08
426.375	3.13
426.58	3.18
426.785	3.15
426.99	3.14
427.195	3.22
427.4	3.07
427.605	2.99
427.811	3.12
428.016	3.01
428.221	2.96
428.426	2.74
428.631	2.81
428.836	2.78
429.041	2.96
429.246	3
429.451	2.9
429.656	2.87
429.861	2.87
430.066	2.75
430.271	2.71
430.476	2.53
430.681	2.7
430.886	2.6
431.09	2.68
431.295	2.52
431.5	2.58
431.705	2.59
431.91	2.69
432.115	2.58
432.32	2.64
432.524	2.69
432.729	2.79
432.934	2.72
433.139	2.78
433.343	2.73
433.548	2.79
433.753	2.77
433.958	2.74
434.162	2.78
434.367	2.84
434.572	2.79
434.776	2.77
434.981	2.77
435.186	2.69
435.39	2.63
435.595	2.57
435.799	2.55
436.004	2.57
436.209	2.71
436.413	2.62
436.618	2.69
436.822	2.58
437.027	2.5
437.231	2.5
437.436	2.57
437.64	2.57
437.845	2.65
438.049	2.7
438.253	2.64
438.458	2.57
438.662	2.59
438.867	2.62
439.071	2.77
439.275	2.83
439.48	2.84
439.684	2.86
439.888	2.87
440.093	2.77
440.297	2.75
440.501	2.8
440.706	2.88
440.91	2.85
441.114	2.74
441.318	2.69
441.523	2.6
441.727	2.6
441.931	2.52
442.135	2.62
442.339	2.7
442.543	2.56
442.748	2.6
442.952	2.52
443.156	2.53
443.36	2.5
443.564	2.44
443.768	2.58
443.972	2.52
444.176	2.63
444.38	2.51
444.584	2.52
444.788	2.55
444.992	2.56
445.196	2.59
445.4	2.68
445.604	2.75
445.808	2.79
446.012	2.76
446.216	2.84
446.42	2.79
446.624	2.85
446.828	2.86
447.032	2.93
447.235	2.9
447.439	2.83
447.643	2.73
447.847	2.77
448.051	2.74
448.254	2.75
448.458	2.69
448.662	2.73
448.866	2.84
449.069	2.78
449.273	2.78
449.477	2.69
449.681	2.64
449.884	2.73
450.088	2.74
450.292	2.72
450.495	2.75
450.699	2.82
450.902	2.71
451.106	2.54
451.31	2.55
451.513	2.55
451.717	2.51
451.92	2.57
452.124	2.54
452.327	2.46
452.531	2.44
452.734	2.34
452.938	2.36
453.141	2.43
453.345	2.52
453.548	2.6
453.752	2.49
453.955	2.56
454.158	2.59
454.362	2.59
454.565	2.54
454.769	2.64
454.972	2.74
455.175	2.62
455.379	2.55
455.582	2.55
455.785	2.51
455.988	2.62
456.192	2.68
456.395	2.66
456.598	2.63
456.801	2.79
457.005	2.8
457.208	2.73
457.411	2.78
457.614	2.86
457.817	2.82
458.021	2.81
458.224	2.84
458.427	2.77
458.63	2.75
458.833	2.7
459.036	2.73
459.239	2.7
459.442	2.71
459.645	2.69
459.848	2.66
460.051	2.68
460.254	2.71
460.457	2.56
460.66	2.59
460.863	2.65
461.066	2.63
461.269	2.43
461.472	2.39
461.675	2.44
461.878	2.44
462.081	2.4
462.284	2.34
462.486	2.4
462.689	2.42
462.892	2.45
463.095	2.45
463.298	2.55
463.5	2.71
463.703	2.72
463.906	2.78
464.109	2.86
464.311	2.82
464.514	2.83
464.717	2.73
464.92	2.77
465.122	2.76
465.325	2.81
465.528	2.81
465.73	2.76
465.933	2.78
466.135	2.63
466.338	2.61
466.541	2.62
466.743	2.67
466.946	2.67
467.148	2.71
467.351	2.72
467.553	2.54
467.756	2.36
467.958	2.29
468.161	2.3
468.363	2.32
468.566	2.29
468.768	2.37
468.971	2.32
469.173	2.31
469.375	2.2
469.578	2.11
469.78	2.24
469.983	2.41
470.185	2.47
470.387	2.37
470.59	2.42
470.792	2.42
470.994	2.29
471.196	2.27
471.399	2.32
471.601	2.31
471.803	2.34
472.005	2.3
472.208	2.21
472.41	2.22
472.612	2.31
472.814	2.19
473.016	2.07
473.218	2.24
473.421	2.31
473.623	2.31
473.825	2.39
474.027	2.43
474.229	2.39
474.431	2.47
474.633	2.46
474.835	2.45
475.037	2.58
475.239	2.62
475.441	2.47
475.643	2.38
475.845	2.39
476.047	2.43
476.249	2.43
476.451	2.49
476.653	2.59
476.855	2.61
477.057	2.63
477.258	2.59
477.46	2.66
477.662	2.79
477.864	2.87
478.066	2.92
478.268	2.85
478.469	2.88
478.671	2.84
478.873	2.73
479.075	2.78
479.276	2.68
479.478	2.7
479.68	2.67
479.882	2.6
480.083	2.6
480.285	2.53
480.487	2.58
480.688	2.65
480.89	2.71
481.091	2.72
481.293	2.7
481.495	2.73
481.696	2.71
481.898	2.71
482.099	2.71
482.301	2.7
482.502	2.72
482.704	2.72
482.905	2.69
483.107	2.69
483.308	2.7
483.51	2.69
483.711	2.7
483.913	2.73
484.114	2.75
484.315	2.76
484.517	2.78
484.718	2.78
484.92	2.77
485.121	2.76
485.322	2.73
485.524	2.75
485.725	2.75
485.926	2.72
486.127	2.73
486.329	2.74
486.53	2.74
486.731	2.74
486.932	2.72
487.134	2.77
487.335	2.75
487.536	2.75
487.737	2.72
487.938	2.71
488.139	2.76
488.341	2.73
488.542	2.69
488.743	2.71
488.944	2.68
489.145	2.7
489.346	2.65
489.547	2.67
489.748	2.69
489.949	2.69
490.15	2.65
490.351	2.63
490.552	2.64
490.753	2.72
490.954	2.7
491.155	2.72
491.356	2.68
491.557	2.64
491.758	2.67
491.959	2.68
492.159	2.66
492.36	2.73
492.561	2.67
492.762	2.6
492.963	2.46
493.164	2.44
493.364	2.45
493.565	2.43
493.766	2.45
493.967	2.42
494.167	2.35
494.368	2.33
494.569	2.39
494.769	2.47
494.97	2.51
495.171	2.55
495.371	2.57
495.572	2.56
495.773	2.64
495.973	2.71
496.174	2.74
496.375	2.78
496.575	2.82
496.776	2.8
496.976	2.83
497.177	2.81
497.377	2.8
497.578	2.8
497.778	2.82
497.979	2.81
498.179	2.7
498.38	2.71
498.58	2.69
498.78	2.62
498.981	2.61
499.181	2.52
499.382	2.6
499.582	2.59
499.782	2.59
499.983	2.55
500.183	2.54
500.383	2.69
500.584	2.61
500.784	2.67
500.984	2.71
501.184	2.64
501.385	2.64
501.585	2.68
501.785	2.69
501.985	2.75
502.185	2.76
502.386	2.74
502.586	2.7
502.786	2.82
502.986	2.8
503.186	2.8
503.386	2.84
503.586	3
503.786	2.87
503.987	2.88
504.187	2.89
504.387	2.94
504.587	3
504.787	2.99
504.987	2.98
505.187	3.04
505.387	3.1
505.587	3.1
505.786	3
505.986	3.06
506.186	3.14
506.386	3.09
506.586	3.13
506.786	3.07
506.986	3.13
507.186	3.07
507.386	3.01
507.585	3.06
507.785	3.09
507.985	3.12
508.185	3.18
508.384	3.14
508.584	3.15
508.784	3.15
508.984	3.11
509.183	3.14
509.383	3.19
509.583	3.24
509.782	3.13
509.982	3.22
510.182	3.12
510.381	3.13
510.581	3.17
510.781	3.23
510.98	3.24
511.18	3.31
511.379	3.23
511.579	3.22
511.778	3.21
511.978	3.26
512.177	3.21
512.377	3.29
512.576	3.29
512.776	3.23
512.975	3.28
513.175	3.26
513.374	3.31
513.573	3.36
513.773	3.39
513.972	3.33
514.172	3.37
514.371	3.41
514.57	3.4
514.77	3.33
514.969	3.37
515.168	3.32
515.367	3.31
515.567	3.32
515.766	3.25
515.965	3.2
516.164	3.3
516.364	3.32
516.563	3.25
516.762	3.33
516.961	3.39
517.16	3.46
517.359	3.45
517.559	3.49
517.758	3.45
517.957	3.54
518.156	3.6
518.355	3.59
518.554	3.6
518.753	3.64
518.952	3.63
519.151	3.65
519.35	3.65
519.549	3.71
519.748	3.74
519.947	3.78
520.146	3.77
520.345	3.83
520.544	3.87
520.743	3.85
520.942	3.93
521.141	3.95
521.339	4
521.538	3.95
521.737	3.91
521.936	3.83
522.135	3.82
522.333	3.86
522.532	3.86
522.731	3.88
522.93	3.96
523.129	3.97
523.327	3.98
523.526	3.92
523.725	3.98
523.923	4
524.122	4.06
524.321	4.14
524.519	4.14
524.718	4.15
524.917	4.15
525.115	4.1
525.314	4.12
525.512	4.16
525.711	4.24
525.909	4.26
526.108	4.29
526.306	4.32
526.505	4.29
526.703	4.28
526.902	4.3
527.1	4.3
527.299	4.36
527.497	4.36
527.696	4.36
527.894	4.33
528.092	4.33
528.291	4.34
528.489	4.36
528.688	4.38
528.886	4.4
529.084	4.38
529.283	4.41
529.481	4.41
529.679	4.42
529.877	4.39
530.076	4.45
530.274	4.45
530.472	4.43
530.67	4.45
530.869	4.51
531.067	4.55
531.265	4.6
531.463	4.59
531.661	4.56
531.859	4.58
532.057	4.62
532.255	4.57
532.454	4.6
532.652	4.6
532.85	4.61
533.048	4.57
533.246	4.6
533.444	4.59
533.642	4.61
533.84	4.67
534.038	4.63
534.236	4.65
534.434	4.71
534.632	4.66
534.83	4.7
535.027	4.65
535.225	4.72
535.423	4.73
535.621	4.8
535.819	4.77
536.017	4.79
536.215	4.87
536.412	4.93
536.61	4.96
536.808	5.03
537.006	5.06
537.203	5.09
537.401	5.11
537.599	5.08
537.797	5.13
537.994	5.2
538.192	5.23
538.39	5.23
538.587	5.26
538.785	5.28
538.983	5.38
539.18	5.44
539.378	5.46
539.575	5.44
539.773	5.48
539.97	5.47
540.168	5.48
540.366	5.54
540.563	5.58
540.761	5.56
540.958	5.61
541.155	5.63
541.353	5.65
541.55	5.69
541.748	5.75
541.945	5.8
542.143	5.83
542.34	5.87
542.537	5.87
542.735	5.89
542.932	5.98
543.129	6.01
543.327	6.02
543.524	6.02
543.721	6.12
543.919	6.08
544.116	6.11
544.313	6.19
544.51	6.22
544.708	6.24
544.905	6.31
545.102	6.34
545.299	6.4
545.496	6.42
545.693	6.45
545.891	6.38
546.088	6.42
546.285	6.42
546.482	6.48
546.679	6.59
546.876	6.61
547.073	6.63
547.27	6.63
547.467	6.69
547.664	6.79
547.861	6.89
548.058	6.93
548.255	7.08
548.452	7.2
548.649	7.11
548.846	7.03
549.043	7.02
549.24	7.06
549.437	7.14
549.633	7.08
549.83	7.03
550.027	7.03
550.224	7.21
550.421	7.18
550.618	7.15
550.814	7.22
551.011	7.33
551.208	7.53
551.405	7.58
551.601	7.66
551.798	7.73
551.995	7.86
552.191	7.96
552.388	7.85
552.585	7.99
552.781	8.15
552.978	8.26
553.175	8.42
553.371	8.46
553.568	8.58
553.764	8.63
553.961	8.75
554.157	8.76
554.354	8.77
554.55	8.86
554.747	8.8
554.943	8.68
555.14	8.7
555.336	8.65
555.533	8.64
555.729	8.63
555.926	8.59
556.122	8.51
556.318	8.6
556.515	8.74
556.711	8.92
556.907	9.03
557.104	9.19
557.3	9.36
557.496	9.34
557.693	9.38
557.889	9.37
558.085	9.51
558.281	9.62
558.478	9.63
558.674	9.66
558.87	9.72
559.066	9.77
559.262	9.81
559.459	9.77
559.655	9.91
559.851	10.03
560.047	10.2
560.243	10.28
560.439	10.31
560.635	10.37
560.831	10.48
561.027	10.52
561.223	10.64
561.419	10.66
561.615	10.77
561.811	10.72
562.007	10.64
562.203	10.61
562.399	10.58
562.595	10.65
562.791	10.79
562.987	10.8
563.183	10.82
563.379	10.83
563.575	11.04
563.771	11.17
563.966	11.31
564.162	11.42
564.358	11.53
564.554	11.58
564.75	11.66
564.945	11.65
565.141	11.7
565.337	11.85
565.533	11.9
565.728	11.76
565.924	11.77
566.12	11.86
566.315	11.96
566.511	11.99
566.707	12.1
566.902	12.13
567.098	12.19
567.293	12.32
567.489	12.31
567.684	12.43
567.88	12.57
568.076	12.65
568.271	12.69
568.467	12.87
568.662	13.02
568.858	13.03
569.053	13.08
569.248	13.11
569.444	13.12
569.639	13.01
569.835	13.06
570.03	13.27
570.225	13.16
570.421	13.18
570.616	13.08
570.812	13.18
571.007	13.3
571.202	13.4
571.397	13.45
571.593	13.42
571.788	13.62
571.983	13.7
572.178	13.63
572.374	13.69
572.569	13.84
572.764	13.93
572.959	13.82
573.154	13.75
573.35	13.7
573.545	13.7
573.74	13.74
573.935	13.71
574.13	13.72
574.325	13.8
574.52	13.96
574.715	13.99
574.91	14.14
575.105	14.25
575.3	14.4
575.495	14.57
575.69	14.78
575.885	14.92
576.08	14.98
576.275	14.99
576.47	15.03
576.665	15.03
576.86	15.03
577.055	14.94
577.25	14.86
577.444	14.93
577.639	14.85
577.834	14.75
578.029	14.78
578.224	14.85
578.418	15.12
578.613	15.07
578.808	15.09
579.003	15.12
579.197	15.14
579.392	15.17
579.587	15.21
579.781	15.33
579.976	15.47
580.171	15.45
580.365	15.27
580.56	15.26
580.755	15.32
580.949	15.34
581.144	15.33
581.338	15.36
581.533	15.55
581.727	15.59
581.922	15.69
582.116	15.75
582.311	15.74
582.505	16.04
582.7	15.94
582.894	15.98
583.089	16.13
583.283	16.23
583.478	16.29
583.672	16.41
583.866	16.44
584.061	16.29
584.255	16.15
584.449	16.27
584.644	16.29
584.838	16.26
585.032	16.22
585.226	16.21
585.421	16.22
585.615	16.32
585.809	16.14
586.003	16.2
586.198	16.38
586.392	16.58
586.586	16.55
586.78	16.47
586.974	16.42
587.168	16.56
587.363	16.5
587.557	16.49
587.751	16.43
587.945	16.58
588.139	16.52
588.333	16.52
588.527	16.44
588.721	16.53
588.915	16.56
589.109	16.72
589.303	16.72
589.497	16.82
589.691	16.89
589.885	16.89
590.079	16.86
590.273	16.87
590.466	16.91
590.66	16.95
590.854	17.07
591.048	17.05
591.242	17.14
591.436	17.11
591.629	17.16
591.823	17.13
592.017	17.15
592.211	17.19
592.404	17.26
592.598	17.35
592.792	17.3
592.986	17.25
593.179	17.34
593.373	17.3
593.567	17.33
593.76	17.4
593.954	17.41
594.147	17.51
594.341	17.47
594.535	17.51
594.728	17.39
594.922	17.52
595.115	17.59
595.309	17.54
595.502	17.61
595.696	17.66
595.889	17.6
596.083	17.62
596.276	17.61
596.47	17.6
596.663	17.63
596.856	17.61
597.05	17.54
597.243	17.45
597.437	17.64
597.63	17.62
597.823	17.61
598.017	17.67
598.21	17.67
598.403	17.79
598.596	17.85
598.79	17.82
598.983	18.03
599.176	18.15
599.369	18.23
599.563	18.3
599.756	18.27
599.949	18.28
600.142	18.12
600.335	18.19
600.528	18.13
600.722	18.21
600.915	18.2
601.108	18.17
601.301	18.09
601.494	18.08
601.687	17.93
601.88	18.05
602.073	18.05
602.266	18.11
602.459	18.06
602.652	18.07
602.845	18.11
603.038	18.1
603.231	18.11
603.424	18.08
603.617	18.05
603.809	18.08
604.002	17.95
604.195	18.02
604.388	18
604.581	17.97
604.774	17.97
604.966	17.85
605.159	17.96
605.352	17.98
605.545	18.09
605.737	18.18
605.93	18.27
606.123	18.21
606.316	18.19
606.508	18.2
606.701	18.37
606.894	18.27
607.086	18.28
607.279	18.2
607.471	18.12
607.664	18.12
607.857	18.13
608.049	18.04
608.242	18.19
608.434	18.25
608.627	18.33
608.819	18.3
609.012	18.39
609.204	18.29
609.397	18.27
609.589	18.35
609.782	18.32
609.974	18.32
610.166	18.38
610.359	18.36
610.551	18.21
610.743	18.14
610.936	18.09
611.128	18.06
611.32	18.18
611.513	18.26
611.705	18.17
611.897	18.3
612.09	18.23
612.282	18.21
612.474	18.27
612.666	18.47
612.858	18.58
613.051	18.74
613.243	18.82
613.435	19.11
613.627	18.98
613.819	18.98
614.011	19.14
614.203	19.14
614.395	19.22
614.588	19.18
614.78	19.04
614.972	18.9
615.164	18.88
615.356	18.78
615.548	18.68
615.74	18.72
615.932	18.63
616.124	18.33
616.315	18.45
616.507	18.36
616.699	18.27
616.891	18.23
617.083	18.34
617.275	18.27
617.467	18.41
617.659	18.31
617.85	18.42
618.042	18.53
618.234	18.75
618.426	18.57
618.618	18.67
618.809	18.75
619.001	18.92
619.193	18.86
619.384	18.89
619.576	18.81
619.768	19.03
619.959	19.04
620.151	19.22
620.343	18.9
620.534	18.93
620.726	18.81
620.917	18.82
621.109	18.82
621.301	18.78
621.492	18.84
621.684	18.88
621.875	18.89
622.067	18.83
622.258	18.56
622.45	18.7
622.641	18.74
622.832	18.62
623.024	18.65
623.215	18.81
623.407	18.91
623.598	18.85
623.789	18.93
623.981	18.88
624.172	18.9
624.363	18.96
624.555	19.02
624.746	19.08
624.937	19.39
625.129	19.29
625.32	19.35
625.511	19.46
625.702	19.35
625.893	19.27
626.085	19.14
626.276	19.09
626.467	19.19
626.658	19.23
626.849	19.37
627.04	19.27
627.231	19.25
627.422	19
627.614	18.91
627.805	19.09
627.996	19.22
628.187	19.28
628.378	19.33
628.569	19.35
628.76	19.22
628.951	19.13
629.142	19.12
629.332	19.31
629.523	19.35
629.714	19.46
629.905	19.58
630.096	19.4
630.287	19.45
630.478	19.47
630.669	19.33
630.859	19.31
631.05	19.21
631.241	19.17
631.432	19.11
631.623	19.04
631.813	19
632.004	18.79
632.195	18.72
632.385	18.75
632.576	18.75
632.767	18.66
632.957	18.83
633.148	18.9
633.339	18.96
633.529	18.92
633.72	19.04
633.91	18.89
634.101	18.95
634.292	19.01
634.482	18.93
634.673	19.08
634.863	19.28
635.054	19.02
635.244	19.29
635.435	19.2
635.625	19.21
635.815	18.98
636.006	19.2
636.196	19.16
636.387	19.26
636.577	19.13
636.767	19.03
636.958	19.11
637.148	19.26
637.338	18.92
637.529	19.04
637.719	19.16
637.909	19.24
638.099	19.23
638.29	19.12
638.48	19.05
638.67	19.18
638.86	19.07
639.05	19.02
639.241	19.07
639.431	19
639.621	18.87
639.811	18.82
640.001	18.9
640.191	18.83
640.381	18.92
640.571	18.68
640.761	18.54
640.951	18.78
641.141	18.83
641.331	18.94
641.521	19.13
641.711	19.23
641.901	19.19
642.091	19.09
642.281	19.18
642.471	18.92
642.661	19.29
642.851	19.56
643.041	19.38
643.231	19.21
643.42	18.99
643.61	18.94
643.8	19
643.99	19.03
644.18	19.22
644.369	19.2
644.559	19.53
644.749	19.49
644.939	19.4
645.128	19.22
645.318	19.26
645.508	19.22
645.697	19.15
645.887	18.91
646.076	19
646.266	18.98
646.456	18.7
646.645	18.8
646.835	18.74
647.024	18.78
647.214	19
647.403	19.06
647.593	19.24
647.782	19.25
647.972	19.39
648.161	19.26
648.351	19.38
648.54	19.65
648.73	19.63
648.919	19.7
649.108	19.71
649.298	19.68
649.487	19.64
649.677	19.93
649.866	19.97
650.055	20.01
650.244	20.05
650.434	19.9
650.623	19.81
650.812	19.75
651.002	19.79
651.191	19.7
651.38	19.71
651.569	19.67
651.758	19.45
651.947	19.65
652.137	19.57
652.326	19.57
652.515	19.5
652.704	19.7
652.893	19.58
653.082	19.54
653.271	19.57
653.46	19.47
653.649	19.53
653.838	19.34
654.027	19.25
654.216	19.17
654.405	19.3
654.594	19.49
654.783	19.38
654.972	19.42
655.161	19.31
655.35	19.24
655.539	19.27
655.728	19.3
655.916	19.45
656.105	19.45
656.294	19.63
656.483	19.5
656.672	19.43
656.86	19.52
657.049	19.68
657.238	19.74
657.427	19.68
657.615	19.98
657.804	19.96
657.993	19.9
658.181	20.01
658.37	19.99
658.559	19.97
658.747	20
658.936	19.99
659.125	20.36
659.313	20.24
659.502	20.36
659.69	20.03
659.879	19.9
660.067	20.1
660.256	19.93
660.444	19.91
660.633	20
660.821	19.98
661.01	20
661.198	19.48
661.387	19.62
661.575	19.65
661.763	19.85
661.952	20.14
662.14	19.95
662.328	19.97
662.517	20.02
662.705	19.95
662.893	20.07
663.082	19.94
663.27	19.79
663.458	19.75
663.646	19.74
663.834	19.53
664.023	19.59
664.211	19.72
664.399	19.79
664.587	19.83
664.775	19.69
664.963	19.65
665.152	19.66
665.34	19.77
665.528	20.04
665.716	20.04
665.904	20.18
666.092	20.04
666.28	20.23
666.468	20.15
666.656	20.11
666.844	20.14
667.032	20.13
667.22	20.28
667.408	20.49
667.596	20.15
667.784	20.22
667.971	20.27
668.159	19.97
668.347	19.75
668.535	19.71
668.723	19.35
668.911	19.47
669.098	19.42
669.286	19.43
669.474	19.33
669.662	19.49
669.849	19.34
670.037	19.2
670.225	19.54
670.413	19.63
670.6	19.7
670.788	20.1
670.976	19.93
671.163	20.1
671.351	20.11
671.538	20.14
671.726	20.14
671.913	20.18
672.101	20.06
672.289	20.04
672.476	19.88
672.664	20.19
672.851	20.08
673.039	20.31
673.226	20.27
673.413	20.04
673.601	19.68
673.788	19.67
673.976	19.67
674.163	19.93
674.35	19.9
674.538	19.92
674.725	19.63
674.912	19.56
675.1	19.57
675.287	19.67
675.474	19.77
675.662	19.84
675.849	20.01
676.036	20.27
676.223	20.44
676.411	20.51
676.598	20.38
676.785	20.5
676.972	20.63
677.159	20.54
677.346	20.25
677.533	20.25
677.721	20.34
677.908	20.47
678.095	20.34
678.282	20.24
678.469	20.32
678.656	20.34
678.843	20.13
679.03	20.17
679.217	20.29
679.404	20.37
679.591	20.24
679.778	20.4
679.964	20.16
680.151	19.97
680.338	19.74
680.525	19.6
680.712	19.55
680.899	19.63
681.086	19.65
681.272	19.59
681.459	19.76
681.646	19.73
681.833	19.66
682.02	19.95
682.206	20.05
682.393	20.07
682.58	20.18
682.766	20.32
682.953	20.39
683.14	20.49
683.326	20.6
683.513	20.48
683.7	20.82
683.886	20.9
684.073	20.65
684.259	20.73
684.446	21.33
684.632	21.24
684.819	21.36
685.005	21.16
685.192	21.25
685.378	20.88
685.565	20.79
685.751	20.48
685.938	20.47
686.124	20.62
686.31	20.83
686.497	20.57
686.683	20.68
686.87	20.54
687.056	20.75
687.242	20.46
687.429	20.67
687.615	20.61
687.801	20.73
687.987	20.9
688.174	20.8
688.36	20.61
688.546	20.58
688.732	20.23
688.918	20.12
689.105	20.04
689.291	19.94
689.477	19.85
689.663	19.73
689.849	19.65
690.035	19.28
690.221	19.07
690.407	19.22
690.593	19.07
690.779	19.41
690.965	19.57
691.151	19.76
691.337	20.05
691.523	20.26
691.709	20.79
691.895	20.95
692.081	21.21
692.267	21.48
692.453	21.1
692.639	21.34
692.825	21.43
693.011	21.3
693.196	21.33
693.382	21.06
693.568	20.88
693.754	20.48
693.94	20.25
694.125	20.06
694.311	20.12
694.497	20.51
694.682	20.49
694.868	20.24
695.054	20.33
695.239	20.48
695.425	20.93
695.611	21.2
695.796	21.35
695.982	21.58
696.168	21.61
696.353	21.4
696.539	21.2
696.724	21.31
696.91	21.43
697.095	21.65
697.281	21.39
697.466	21.11
697.652	20.97
697.837	20.79
698.023	20.86
698.208	20.85
698.393	20.77
698.579	20.7
698.764	20.34
698.949	20.24
699.135	19.91
699.32	20.06
699.505	20.09
699.691	20.12
699.876	20.25
700.061	20.04
700.246	19.79
700.432	19.92
700.617	19.9
700.802	20.35
700.987	20.2
701.172	20.48
701.358	20.1
701.543	20.19
701.728	20.1
701.913	20.02
702.098	20.1
702.283	20.56
702.468	20.39
702.653	20.24
702.838	19.91
703.023	19.93
703.208	19.76
703.393	19.84
703.578	19.54
703.763	19.83
703.948	20.2
704.133	20.29
704.318	19.84
704.503	20.14
704.688	20.38
704.873	20.7
705.057	20.79
705.242	20.95
705.427	20.51
705.612	20.58
705.797	20.24
705.981	20.04
706.166	20.06
706.351	20.33
706.536	20.2
706.72	20.18
706.905	19.94
707.09	19.46
707.274	19.34
707.459	19.96
707.644	20.18
707.828	20.05
708.013	19.86
708.197	19.7
708.382	19.68
708.567	19.49
708.751	19.8
708.936	20.11
709.12	20.86
709.305	21.08
709.489	20.7
709.673	20.67
709.858	20.83
710.042	20.78
710.227	21.06
710.411	21.04
710.596	20.95
710.78	20.69
710.964	20.48
711.149	20.55
711.333	20.8
711.517	20.9
711.702	21.24
711.886	21.15
712.07	21.68
712.254	21.21
712.438	21.06
712.623	21.11
712.807	21.05
712.991	21.38
713.175	21.18
713.359	20.8
713.544	20.99
713.728	20.61
713.912	20.89
714.096	20.61
714.28	21.2
714.464	21.63
714.648	21.85
714.832	22.04
715.016	21.49
715.2	21.27
715.384	21.32
715.568	21.08
715.752	21.32
715.936	21.22
716.12	21.1
716.304	20.95
716.488	20.9
716.671	21.28
716.855	21.23
717.039	21.11
717.223	21.31
717.407	21.05
717.59	20.83
717.774	20.41
717.958	20.12
718.142	20.09
718.325	19.96
718.509	19.81
718.693	19.49
718.877	19.25
719.06	19.32
719.244	19.26
719.428	19.57
719.611	20.4
719.795	20.68
719.978	21.12
720.162	21.05
720.345	20.56
720.529	20.68
720.713	20.81
720.896	20.97
721.08	21.2
721.263	21.4
721.446	21.6
721.63	21.4
721.813	20.92
721.997	20.33
722.18	19.88
722.364	20.63
722.547	20.06
722.73	19.66
722.914	19.78
723.097	19.93
723.28	19.86
723.464	19.49
723.647	19.26
723.83	19.49
724.013	19.83
724.197	20.26
724.38	19.93
724.563	20.06
724.746	20.48
724.929	20.62
725.112	20.54
725.296	20.24
725.479	20.2
725.662	20.18
725.845	20.83
726.028	21.09
726.211	21.16
726.394	21.17
726.577	21.01
726.76	20.95
726.943	20.26
727.126	19.99
727.309	19.98
727.492	19.78
727.675	19.86
727.858	19.44
728.041	19.31
728.224	19.06
728.407	19.17
728.589	19.83
728.772	19.4
728.955	20.14
729.138	20.21
729.321	19.99
729.503	20.07
729.686	19.87
729.869	19.81
730.052	20.14
730.234	20.55
730.417	20.2
730.6	19.76
730.782	19.69
730.965	20.08
731.148	19.76
731.33	20.09
731.513	20.41
731.695	20.84
731.878	21.41
732.061	21.16
732.243	21.3
732.426	21.22
732.608	21.39
732.791	21.51
732.973	20.69
733.156	21.15
733.338	21.44
733.52	21.36
733.703	21.32
733.885	20.71
734.068	20.57
734.25	19.93
734.432	19.98
734.615	19.85
734.797	20.06
734.979	20.52
735.162	20.69
735.344	20.29
735.526	20.39
735.708	20.05
735.891	20.16
736.073	20.29
736.255	20.79
736.437	20.6
736.619	20.58
736.802	20.5
736.984	20.35
737.166	20.15
737.348	20.89
737.53	20.55
737.712	20.58
737.894	20.55
738.076	19.95
738.258	20.3
738.44	20.45
738.622	21.03
738.804	20.94
738.986	21.42
739.168	21.12
739.35	20.65
739.532	20.6
739.714	20.62
739.896	20.37
740.078	20.92
740.259	21.08
740.441	21.55
740.623	21.09
740.805	21.66
740.987	21.08
741.168	21.78
741.35	21.43
741.532	21.86
741.714	22.27
741.895	23
742.077	23.25
742.259	22.42
742.44	22.44
742.622	22.81
742.804	21.47
742.985	21.18
743.167	20.84
743.348	20.97
743.53	20.58
743.711	20.21
743.893	19.83
744.075	19.69
744.256	19.41
744.438	19.43
744.619	19.06
744.8	20.54
744.982	21.06
745.163	20.84
745.345	21.36
745.526	21.36
745.707	21.5
745.889	21.85
746.07	21.43
746.252	21.71
746.433	21.35
746.614	20.64
746.795	20.39
746.977	20.5
747.158	20.27
747.339	20.22
747.52	20.13
747.702	20.48
747.883	20.21
748.064	20.47
748.245	21.26
748.426	20.59
748.607	20.68
748.788	20.8
748.97	20.45
749.151	20.33
749.332	19.96
749.513	20.44
749.694	20.02
749.875	20.52
750.056	19.8
750.237	19.25
750.418	20.02
750.599	19.94
750.78	19.57
750.96	19.75
751.141	20.61
751.322	21
751.503	20.73
751.684	20.74
751.865	20.54
752.046	21.19
752.226	21.21
752.407	21.49
752.588	22.08
752.769	21.79
752.949	21.29
753.13	21.4
753.311	21.99
753.492	21.46
753.672	21.81
753.853	20.95
754.034	20.58
754.214	19.78
754.395	19.42
754.575	19.3
754.756	19.71
754.937	19.79
755.117	19.09
755.298	18.35
755.478	18.8
755.659	18.77
755.839	17.88
756.02	18.13
756.2	19.3
756.381	19.42
756.561	19.82
756.741	20.04
756.922	20.47
757.102	20.99
757.283	20.96
757.463	21.06
757.643	20.52
757.823	21.52
758.004	22.09
758.184	21.93
758.364	22.11
758.545	22.37
758.725	22.04
758.905	22.14
759.085	21.82
759.265	21.74
759.446	21.91
759.626	22.6
759.806	22.45
759.986	22.95
760.166	22.56
760.346	22.52
760.526	22.33
760.706	22.24
760.886	21.41
761.066	21.69
761.246	22.22
761.426	22.43
761.606	21.87
761.786	21.93
761.966	21.39
762.146	21.89
762.326	21.71
762.506	21.86
762.686	21.59
762.866	22.03
763.046	22.17
763.225	21.98
763.405	21.54
763.585	21.56
763.765	21.1
763.945	20.89
764.124	20.78
764.304	20.78
764.484	20.78
764.664	21.39
764.843	21.55
765.023	21.42
765.203	20.85
765.382	20.72
765.562	20.31
765.741	20.94
765.921	20.83
766.101	20.52
766.28	20.58
766.46	19.8
766.639	19.33
766.819	19.12
766.998	19.13
767.178	19.37
767.357	19.73
767.537	20.19
767.716	20.78
767.896	20.76
768.075	21.13
768.254	20.7
768.434	20.9
768.613	20.78
768.792	20.49
768.972	20.14
769.151	20.1
769.33	19.88
769.51	20.09
769.689	19.44
769.868	19.6
770.047	19.13
770.226	19.79
770.406	19.93
770.585	19.45
770.764	19.62
770.943	19.34
771.122	20.02
771.301	21.1
771.48	20.6
771.66	21.06
771.839	20.77
772.018	20.18
772.197	19.93
772.376	20.14
772.555	21.18
772.734	21
772.913	21.26
773.092	20.07
773.271	19.23
773.449	19.87
773.628	19.45
773.807	20.32
773.986	20.73
774.165	20.98
774.344	21.67
774.523	21.37
774.701	22.37
774.88	22.03
775.059	22.53
775.238	22.12
775.417	21.2
775.595	21.14
775.774	20.75
775.953	21.32
776.131	21.04
776.31	20.9
776.489	21.28
776.667	21.33
776.846	21.61
777.025	21.81
777.203	22.52
777.382	23.65
777.56	23.98
777.739	23.92
777.917	22.94
778.096	23.1
778.274	23.01
778.453	22.49
778.631	22.17
778.81	22.25
778.988	21.99
779.166	21.05
779.345	20.8
779.523	20.91
779.702	21.24
779.88	22.41
780.058	21.94
780.237	21.56
780.415	21.62
780.593	21.57
780.771	22.24
780.95	21.51
781.128	22.07
781.306	21.54
781.484	21.11
781.662	20.49
781.841	19.59
782.019	19.45
782.197	18.53
782.375	18.45
782.553	17.9
782.731	17.7
782.909	18.4
783.087	18.19
783.265	18.45
783.443	18.44
783.621	19.22
783.799	18.77
783.977	19.13
784.155	19.55
784.333	19.93
784.511	19.77
784.689	19.81
784.867	19.96
785.045	20.81
785.223	21.24
785.4	21.51
785.578	21
785.756	21.89
785.934	22.1
786.112	23.31
786.289	22.97
786.467	23.8
786.645	23.9
786.823	22.84
787	22.7
787.178	22.1
787.356	22.31
787.533	21.4
787.711	21.18
787.889	20.99
788.066	19.2
788.244	19.22
788.421	17.81
788.599	17.06
788.776	18.32
788.954	17.06
789.131	17.46
789.309	17.1
789.486	18.33
789.664	19.07
789.841	18.22
790.019	17.76
790.196	17.92
790.373	18.88
790.551	19.74
790.728	20.09
790.906	21.02
791.083	20.21
791.26	19.99
791.437	19.66
791.615	18.48
791.792	18.89
791.969	19.46
792.146	20.1
792.324	19.94
792.501	19.82
792.678	19.26
792.855	18.99
793.032	19.94
793.209	20.61
793.387	21.11
793.564	21.81
793.741	22.52
793.918	22.9
794.095	22.76
794.272	22.56
794.449	21.61
794.626	21.37
794.803	20.9
794.98	20.92
795.157	20.43
795.334	19.26
795.511	19.4
795.688	19.38
795.864	19.17
796.041	18.58
796.218	18.29
796.395	18.82
796.572	19.45
796.749	21.17
796.925	21.39
797.102	21.22
797.279	22.03
797.456	21.06
797.632	21.31
797.809	20.97
797.986	20.3
798.162	21.12
798.339	21.07
798.516	20.87
798.692	18.86
798.869	17.94
799.046	17.75
799.222	17.27
799.399	18.86
799.575	18.5
799.752	19.78
799.928	19.7
800.105	19.21
800.281	17.83
800.458	18.4
800.634	18.93
800.811	19.24
800.987	19.22
801.163	19.67
801.34	18.76
801.516	18.72
801.692	17.9
801.869	18.96
802.045	19.31
802.221	20.69
802.398	20.04
802.574	20.58
802.75	20.39
802.926	21.82
803.103	22.27
803.279	22.05
803.455	22.73
803.631	23.67
803.807	23.05
803.983	22.95
804.16	23.01
804.336	22.5
804.512	22.43
804.688	22.93
804.864	22.19
805.04	20.63
805.216	20.57
805.392	19.59
805.568	19.1
805.744	19.72
805.92	19.4
806.096	18.99
806.272	19.49
806.448	19.22
806.623	19.76
806.799	18.52
806.975	19.3
807.151	19.25
807.327	18.85
807.503	17.37
807.678	16.63
807.854	17.69
808.03	17.73
808.206	16.67
808.381	16.81
808.557	15.86
808.733	17.18
808.908	17.65
809.084	18.33
809.26	19.03
809.435	21.36
809.611	22.08
809.787	20.81
809.962	18.8
810.138	19.66
810.313	20.12
810.489	20.16
810.664	21.2
810.84	19.62
811.015	16.91
811.191	16.59
811.366	16.28
811.542	15.33
811.717	15.31
811.892	17.4
812.068	17.64
812.243	17.01
812.419	16.82
812.594	14.64
812.769	15.86
812.944	17.54
813.12	18.04
813.295	18.11
813.47	18.13
813.645	17.83
813.821	17.35
813.996	16.26
814.171	15.17
814.346	15.88
814.521	17.02
814.697	17.3
814.872	17.2
815.047	16.49
815.222	16.34
815.397	17.13
815.572	18.56
815.747	18.9
815.922	19.87
816.097	21.83
816.272	21.19
816.447	21.2
816.622	21.46
816.797	22.13
816.972	21.8
817.147	20.99
817.322	20.8
817.496	19.68
817.671	18.67
817.846	17.47
818.021	17.91
818.196	18.05
818.371	17.92
818.545	18.33
818.72	20.14
818.895	19.96
819.069	20.16
819.244	20.02
819.419	19.93
819.594	20.35
819.768	21.08
819.943	20.77
820.117	20.94
820.292	20.97
820.467	20.76
820.641	20.27
820.816	20.86
820.99	21.08
821.165	21.53
821.339	21.72
821.514	21.7
821.688	22.1
821.863	22.13
822.037	22.07
822.212	22.07
822.386	22.05
822.56	22.03
822.735	21.98
822.909	21.79
823.084	21.58
823.258	21.34
823.432	21.39
823.606	20.97
823.781	20.76
823.955	20.73
824.129	20.81
824.303	20.76
824.478	20.62
824.652	20.06
824.826	20.09
825	20.17
825.174	20.44
825.348	20.82
825.523	20.6
825.697	20.28
825.871	20.67
826.045	20.13
826.219	20.13
826.393	20.36
826.567	20.77
826.741	20.92
826.915	21.06
827.089	21.2
827.263	21.15
827.437	21.75
827.611	22.02
827.784	21.39
827.958	21.66
828.132	21.75
828.306	21.04
828.48	21.59
828.654	21.57
828.827	21.39
829.001	21.23
829.175	20.85
829.349	20.58
829.522	20.75
829.696	20.85
829.87	21.44
830.044	21.44
830.217	23.14
830.391	22.74
830.565	21.88
830.738	21.03
830.912	21
831.085	21.07
831.259	20.35
831.432	20.45
831.606	20.27
831.779	19.3
831.953	18.63
832.126	18.54
832.3	18.68
832.473	19.99
832.647	20.3
832.82	20.15
832.994	20.57
833.167	20.97
833.34	20.2
833.514	20.77
833.687	20.62
833.86	21.69
834.034	21.41
834.207	21.2
834.38	20.7
834.553	20.72
834.727	21.11
834.9	21.08
835.073	20.92
835.246	22.45
835.419	22.13
835.593	22.57
835.766	21.21
835.939	20.92
836.112	21
836.285	20.76
836.458	21.6
836.631	20.48
836.804	20.23
836.977	20.16
837.15	19.49
837.323	18.71
837.496	18.09
837.669	19.63
837.842	20.47
838.015	19.62
838.188	19.81
838.361	17.95
838.533	17.01
838.706	17.2
838.879	17.11
839.052	15.75
839.225	14.51
839.398	15.31
839.57	14.78
839.743	14.59
839.916	16.93
840.088	18.32
840.261	18.83
840.434	20.64
840.607	20.58
840.779	20.69
840.952	21.18
841.124	24.72
841.297	24.68
841.47	25.05
841.642	21.89
841.815	20.51
841.987	19.7
842.16	20.83
842.332	20.2
842.505	19.16
842.677	18.84
842.85	16.99
843.022	16.93
843.194	17.18
843.367	16.35
843.539	18.79
843.712	17.86
843.884	16.97
844.056	14.43
844.229	16.24
844.401	15.09
844.573	14.42
844.745	16.09
844.918	14.67
845.09	13.99
845.262	14.68
845.434	14.95
845.606	14.29
845.779	15.82
845.951	14.33
846.123	12.42
846.295	12.86
846.467	14.55
846.639	13.87
846.811	14.7
846.983	14.05
847.155	13.99
847.327	13.09
847.499	15.35
847.671	13.66
847.843	21.12
848.015	22.59
848.187	24.13
848.359	23.69
848.531	20.24
848.703	20.06
848.875	22.68
849.047	22.31
849.218	21.03
849.39	16.84
849.562	13
849.734	5.95
849.905	7.81
850.077	10.27
850.249	9.33
850.421	13.85
850.592	13.24
850.764	11.14
850.936	10
851.107	6.01
851.279	5.83
851.451	13.13
851.622	15.54
851.794	14.47
851.965	12.16
852.137	11.98
852.308	10.53
852.48	10.53
852.651	13.88
852.823	16.83
852.994	18.75
853.166	22.63
853.337	25.54
853.509	25.31
853.68	24.62
853.851	21.85
854.023	21.38
854.194	23.36
854.365	20.96
854.537	19.42
854.708	17.44
854.879	21.01
855.05	21.17
855.222	18
855.393	21.65
855.564	19.06
855.735	21.16
855.906	19.26
856.078	20.25
856.249	24.1
856.42	22.65
856.591	25.36
856.762	24.91
856.933	20.94
857.104	14.94
857.275	12.1
857.446	13.54
857.617	15.68
857.788	25.59
857.959	22.59
858.13	21.19
858.301	25.34
858.472	22.35
858.643	22.13
858.814	26.83
858.985	27.27
859.155	28.27
859.326	27.65
859.497	20.55
859.668	13.73
859.839	13.13
860.009	11.38
860.18	3.19
860.351	1.62
860.522	3.32
860.692	2.02
860.863	0.05
861.034	-4.85
861.204	-4.33
861.375	-1.3
861.546	-1.81
861.716	-0.07
861.887	1.26
862.057	5
862.228	6.56
862.398	5.27
862.569	1.02
862.739	4.75
862.91	4.91
863.08	6.06
863.251	8.33
863.421	4.93
863.592	4.62
863.762	9.88
863.932	5.91
864.103	5.38
864.273	6.36
864.443	6.8
864.614	6.17
864.784	7.83
864.954	12.23
865.125	12.7
865.295	22.33
865.465	22.27
865.635	18.89
865.805	17.57
865.976	18.3
866.146	11.96
866.316	11.45
866.486	13.15
866.656	11.87
866.826	6.95
866.996	1.5
867.166	-3.06
867.336	-0.45
867.506	-1.82
867.676	6.82
867.846	1.93
868.016	9.42
868.186	8.9
868.356	8.06
868.526	5.03
868.696	3.7
868.866	7.85
869.036	-2.26
869.206	-2.14
869.376	-3.56
869.545	-12.69
869.715	-7.17
869.885	-8.43
870.055	-2.12
870.224	0.37
870.394	0.92
870.564	4.26
870.734	7
870.903	11.72
871.073	13.83
871.243	13.64
871.412	20.27
871.582	18.72
871.751	16.31
871.921	18.47
872.091	13.89
872.26	16.1
872.43	17.24
872.599	15.6
872.769	17.95
872.938	17.08
873.108	16.29
873.277	15.69
873.446	14.99
873.616	17.33
873.785	21.6
873.955	19.97
874.124	18.65
874.293	14.06
874.463	13.73
874.632	14.61
874.801	10.51
874.971	3.14
875.14	5.53
875.309	7.34
875.478	9.29
875.647	2.31
875.817	3.23
875.986	4.25
876.155	11.6
876.324	18.59
876.493	18.18
876.662	18.71
876.831	25.58
877	22.24
877.17	18.15
877.339	14.91
877.508	14.07
877.677	15.16
877.846	16.82
878.015	9.56
878.184	-0.58
878.352	-0.51
878.521	1.62
878.69	-2.86
878.859	-1.1
879.028	5.52
879.197	6.71
879.366	6.66
879.534	7.72
879.703	9.09
879.872	10.28
880.041	13.82
880.21	16.07
880.378	17.11
880.547	18.74
880.716	18.95
880.884	19.05
881.053	20.22
881.222	22.1
881.39	23.13
881.559	22.64
881.727	23.26
881.896	23.6
882.065	23.5
882.233	23.1
882.402	23.26
882.57	23.45
882.739	23.59
882.907	23.54
883.076	23.28
883.244	23.05
883.412	23.85
883.581	23.46
883.749	22.74
883.918	23.23
884.086	23.67
884.254	24.38
884.423	24.36
884.591	24.55
884.759	24.16
884.927	23.67
885.096	23.94
885.264	23.44
885.432	23.95
885.6	25.05
885.769	22.49
885.937	22.81
886.105	21.3
886.273	21.61
886.441	20.8
886.609	20.88
886.777	20.68
886.945	19
887.113	19.79
887.281	20.61
887.449	18.25
887.617	18.99
887.785	17.92
887.953	17.54
888.121	18.41
888.289	17.04
888.457	15.33
888.625	12.42
888.793	15.04
888.961	12.62
889.129	15.27
889.296	20.35
889.464	22.35
889.632	21.9
889.8	25.11
889.967	22.45
890.135	24.96
