Data from 2938502_Reflection_2.txt Node
Date: Tue Jun 16 23:14:07 EDT 2015
User: robert
Spectrometer: USB4E03002
Autoset integration time: false
Trigger mode: 4
Integration Time (sec): 1.000000E-1
Scans to average: 10
Electric dark correction enabled: true
Nonlinearity correction enabled: false
Boxcar width: 5
Stray light correction enabled: false
XAxis mode: Wavelengths
Stop averaging: false
Number of Pixels in Spectrum: 3648
>>>>>Begin Spectral Data<<<<<
177.575	-2102
177.794	165.07
178.014	124.32
178.233	149.02
178.452	137.25
178.672	121.65
178.891	96.55
179.11	-2537.5
179.33	252.08
179.549	-816.59
179.768	126.61
179.987	240.05
180.207	6.78
180.426	27.16
180.645	6.56
180.864	34.13
181.084	-4.65
181.303	-49.2
181.522	-62.08
181.741	-59.57
181.96	-48.49
182.179	-63.88
182.398	-32.2
182.618	-35.77
182.837	-38.92
183.056	-10.64
183.275	-26.76
183.494	-14.33
183.713	-24.17
183.932	-17.88
184.151	-3.68
184.37	3.94
184.589	-5.98
184.808	-12.16
185.027	-22.42
185.246	-9.48
185.465	-29.74
185.684	-51.96
185.903	-47.63
186.122	-31.45
186.341	-46.58
186.56	-120.75
186.779	-497.3
186.998	-173.77
187.216	-82.32
187.435	-30.7
187.654	-74.79
187.873	32.35
188.092	25.24
188.311	26.15
188.53	20.38
188.748	-10.76
188.967	-10.44
189.186	5.1
189.405	10.36
189.623	-1.45
189.842	-3.11
190.061	-13.42
190.28	-9.8
190.498	11.36
190.717	5.48
190.936	-1.1
191.154	28.8
191.373	38.06
191.592	40.6
191.81	45.87
192.029	31.71
192.248	26.06
192.466	31.98
192.685	-6.92
192.904	-2.88
193.122	8.79
193.341	14.16
193.559	-17.65
193.778	-4.5
193.996	-1.16
194.215	-5.91
194.433	-7.79
194.652	0.13
194.87	0.54
195.089	14.47
195.307	-1.15
195.526	-4.82
195.744	-9.06
195.963	-14.02
196.181	-75.71
196.399	-51.4
196.618	-45.35
196.836	-1.22
197.055	-16.72
197.273	-24.26
197.491	-37.81
197.71	-32.41
197.928	-28.61
198.146	-30.58
198.365	-4.62
198.583	7.43
198.801	27.4
199.019	26.31
199.238	3.64
199.456	9.1
199.674	27.11
199.892	40.31
200.111	38.77
200.329	42.15
200.547	53.03
200.765	47.55
200.983	56.34
201.202	28
201.42	36.12
201.638	48.8
201.856	58.24
202.074	15.09
202.292	28
202.51	15.86
202.728	-26.79
202.946	-28.59
203.165	-1.94
203.383	-8.13
203.601	-16.48
203.819	-80.32
204.037	-92.82
204.255	-76.37
204.473	-54.62
204.691	-75.13
204.909	-112.17
205.127	-51.55
205.345	-77.75
205.562	-99.81
205.78	-77.65
205.998	-73.86
206.216	-35.08
206.434	-57.71
206.652	-42.09
206.87	-38.49
207.088	-16.05
207.306	-17.71
207.523	-18.53
207.741	-15.42
207.959	-4.6
208.177	-2.49
208.395	-12.29
208.612	-2.93
208.83	3.15
209.048	3.2
209.266	-5.4
209.483	-23.43
209.701	-15.35
209.919	-14.67
210.136	-4.84
210.354	-15.83
210.572	-16.41
210.79	-13.87
211.007	-11.41
211.225	-12.72
211.442	-22.2
211.66	-41.4
211.878	-34.46
212.095	-32.76
212.313	-32.67
212.53	-34.33
212.748	-51.81
212.966	-40.18
213.183	-18.23
213.401	-24.56
213.618	-10.56
213.836	-9.62
214.053	-1.13
214.271	-6.68
214.488	3.21
214.705	-7.19
214.923	-7.4
215.14	-27.98
215.358	-29.11
215.575	-29.23
215.793	-10.4
216.01	-1.31
216.227	8.87
216.445	7.1
216.662	7.08
216.879	2.73
217.097	2.32
217.314	1
217.531	5.34
217.749	-2.16
217.966	-4.69
218.183	-13.62
218.4	-25.73
218.618	-30.27
218.835	-20.54
219.052	-30.08
219.269	-47.11
219.487	-51.97
219.704	-55.97
219.921	-39.72
220.138	-29.53
220.355	-27.9
220.572	-18.28
220.79	-1.94
221.007	-5.75
221.224	-7.59
221.441	2.79
221.658	14.95
221.875	17.64
222.092	25.24
222.309	25.21
222.526	25.19
222.743	20.93
222.96	23.17
223.177	22.22
223.394	19.65
223.611	19.75
223.828	17
224.045	7.76
224.262	10.35
224.479	8.42
224.696	6.7
224.913	4.68
225.13	5.96
225.347	4.49
225.564	3.19
225.781	8.29
225.997	9.94
226.214	11.71
226.431	11.97
226.648	12.86
226.865	13.05
227.082	12.74
227.298	12.86
227.515	11.94
227.732	12.27
227.949	12.26
228.165	11.28
228.382	10.18
228.599	8.76
228.816	10.2
229.032	9.57
229.249	10.7
229.466	10.38
229.682	9.49
229.899	10.55
230.116	8.78
230.332	7.7
230.549	8.52
230.765	8.14
230.982	10.91
231.199	10.98
231.415	10.54
231.632	8.24
231.848	8.91
232.065	12.5
232.281	13.07
232.498	14.53
232.714	15.96
232.931	15.18
233.147	17.59
233.364	14.67
233.58	13.35
233.797	12.74
234.013	11.82
234.23	12.21
234.446	9.48
234.662	8.22
234.879	6.62
235.095	5.15
235.312	2.27
235.528	-0.17
235.744	1.42
235.961	2.65
236.177	1.56
236.393	2.55
236.61	1.49
236.826	0.57
237.042	-0.83
237.258	1.61
237.475	0.07
237.691	2.22
237.907	2.6
238.123	3.54
238.339	3.39
238.556	4.61
238.772	5.52
238.988	6.06
239.204	8.13
239.42	9.41
239.636	8.32
239.853	9.37
240.069	10.16
240.285	10.53
240.501	10.51
240.717	10.77
240.933	9.58
241.149	9.31
241.365	9.59
241.581	8.81
241.797	8.52
242.013	9.2
242.229	9.07
242.445	8.3
242.661	7.62
242.877	7.37
243.093	7.39
243.309	9.09
243.525	9.02
243.741	8.64
243.957	8.62
244.173	8.65
244.388	8.31
244.604	8.75
244.82	8.76
245.036	9.01
245.252	8.84
245.468	8.67
245.683	8.23
245.899	8.35
246.115	8.47
246.331	8.53
246.547	8.64
246.762	8.56
246.978	8.42
247.194	8.2
247.409	8.57
247.625	8.48
247.841	8.39
248.057	8.88
248.272	8.6
248.488	8.15
248.703	8.22
248.919	8.05
249.135	8.69
249.35	8.51
249.566	9.16
249.782	8.01
249.997	8.47
250.213	8.24
250.428	8.32
250.644	8.19
250.859	8.08
251.075	7.85
251.29	7.15
251.506	6.73
251.721	6.32
251.937	5.35
252.152	6.2
252.368	5.78
252.583	5.48
252.798	4.44
253.014	5.11
253.229	4.9
253.445	6.1
253.66	6.47
253.875	5.83
254.091	6.8
254.306	8.46
254.521	7.43
254.737	8.32
254.952	8.78
255.167	8.43
255.383	7.61
255.598	7.92
255.813	6.84
256.028	6.8
256.244	6.97
256.459	6.4
256.674	5.96
256.889	6.16
257.104	5.95
257.32	5.95
257.535	6.33
257.75	6.49
257.965	6.19
258.18	6.32
258.395	6.5
258.61	6.78
258.826	7.13
259.041	7.17
259.256	7.12
259.471	7.08
259.686	6.97
259.901	6.73
260.116	6.7
260.331	7.17
260.546	7.29
260.761	7.09
260.976	6.76
261.191	6.21
261.406	5.75
261.621	5.28
261.836	5.16
262.05	5.89
262.265	5.73
262.48	5.91
262.695	5.43
262.91	5.34
263.125	5.41
263.34	5.86
263.555	5.96
263.769	5.94
263.984	6.59
264.199	6.76
264.414	6.31
264.629	6.69
264.843	6.73
265.058	6.6
265.273	6.4
265.488	7.14
265.702	6.88
265.917	6.86
266.132	7.05
266.346	6.96
266.561	6.23
266.776	5.87
266.99	6.09
267.205	5.6
267.42	5.91
267.634	6.13
267.849	5.64
268.063	5.74
268.278	5.26
268.492	5.48
268.707	5.76
268.922	6.39
269.136	6.27
269.351	6.47
269.565	6.83
269.78	6.93
269.994	6.66
270.209	6.65
270.423	6.53
270.637	6.77
270.852	6.8
271.066	6.55
271.281	6.4
271.495	6.61
271.709	6.22
271.924	6.27
272.138	6.17
272.353	6.05
272.567	5.87
272.781	5.91
272.996	6.14
273.21	6.07
273.424	5.84
273.638	5.75
273.853	5.23
274.067	5.35
274.281	4.91
274.495	5.14
274.71	5.04
274.924	5.21
275.138	5.06
275.352	4.58
275.566	4.61
275.781	3.87
275.995	4.25
276.209	4.66
276.423	4.49
276.637	5.21
276.851	4.79
277.065	4.89
277.279	5.22
277.493	5.83
277.707	6.05
277.921	5.77
278.135	6.75
278.349	6.24
278.563	6.28
278.777	6.32
278.991	6.17
279.205	6.47
279.419	6.45
279.633	6.17
279.847	5.89
280.061	6.08
280.275	5.92
280.489	6.33
280.703	6.66
280.917	6.83
281.131	6.85
281.344	6.39
281.558	6.19
281.772	5.83
281.986	5.74
282.2	5.33
282.414	4.85
282.627	5.09
282.841	4.82
283.055	4.56
283.269	4.48
283.482	4.7
283.696	4.76
283.91	4.87
284.123	5.32
284.337	5.21
284.551	5.44
284.764	6.03
284.978	6.48
285.192	6.13
285.405	6.3
285.619	6.35
285.833	6.09
286.046	6.6
286.26	6.52
286.473	6.42
286.687	6.42
286.9	6.53
287.114	6.14
287.327	5.66
287.541	5.96
287.754	6.06
287.968	5.96
288.181	5.96
288.395	5.68
288.608	5.88
288.822	6.09
289.035	5.93
289.248	5.91
289.462	6.08
289.675	5.92
289.889	5.94
290.102	5.29
290.315	5.14
290.529	5.09
290.742	4.64
290.955	4.78
291.169	4.51
291.382	4.65
291.595	4.57
291.808	4.63
292.022	5.39
292.235	5.64
292.448	5.97
292.661	6.67
292.875	7.1
293.088	7.33
293.301	7.31
293.514	7.5
293.727	7.82
293.94	7.86
294.153	7.61
294.367	7.21
294.58	6.98
294.793	7.11
295.006	6.8
295.219	6.67
295.432	6.7
295.645	6.49
295.858	6.65
296.071	6.64
296.284	6.75
296.497	6.92
296.71	7.11
296.923	7.1
297.136	6.98
297.349	7.01
297.562	6.92
297.775	6.77
297.988	6.84
298.201	6.81
298.414	6.68
298.626	6.43
298.839	6.13
299.052	6.28
299.265	6.23
299.478	6.75
299.691	7.08
299.903	7.08
300.116	7.23
300.329	6.76
300.542	6.32
300.755	6.68
300.967	6.85
301.18	7.16
301.393	6.86
301.605	6.9
301.818	6.58
302.031	6.2
302.243	6.17
302.456	6.53
302.669	6.97
302.881	7.23
303.094	7.13
303.307	6.8
303.519	7.07
303.732	6.69
303.944	7.15
304.157	7.36
304.37	7.52
304.582	7.62
304.795	7.35
305.007	7.36
305.22	7.26
305.432	6.98
305.645	7.57
305.857	7.2
306.069	7.7
306.282	6.97
306.494	6.99
306.707	7.08
306.919	7.31
307.132	7.68
307.344	7.63
307.556	7.73
307.769	7.86
307.981	7.77
308.193	8.08
308.406	7.97
308.618	8.2
308.83	8.24
309.043	8.32
309.255	8.35
309.467	8.36
309.679	8.53
309.892	8.52
310.104	8.57
310.316	8.51
310.528	8.23
310.74	8.23
310.953	8.39
311.165	8.1
311.377	8.33
311.589	8.5
311.801	8
312.013	7.62
312.225	7.7
312.437	7.44
312.649	7.46
312.862	7.42
313.074	7.72
313.286	7.1
313.498	7.2
313.71	6.94
313.922	6.91
314.134	7.03
314.346	6.99
314.558	7.22
314.77	7.65
314.982	7.55
315.193	7.87
315.405	7.52
315.617	7.75
315.829	8.01
316.041	7.93
316.253	7.74
316.465	8.14
316.677	8.44
316.888	7.76
317.1	7.47
317.312	7.72
317.524	7.63
317.736	7.49
317.947	7.76
318.159	7.64
318.371	7.3
318.583	7.49
318.794	7.21
319.006	7.36
319.218	7.97
319.43	7.79
319.641	7.71
319.853	8.15
320.064	8.45
320.276	8.37
320.488	7.94
320.699	8.15
320.911	8.07
321.123	8.48
321.334	8.59
321.546	9.2
321.757	9.21
321.969	9.14
322.18	8.76
322.392	8.61
322.603	9.13
322.815	9.79
323.026	9.64
323.238	9.45
323.449	9.29
323.661	9.37
323.872	8.71
324.083	8.36
324.295	8.22
324.506	8.15
324.718	8.31
324.929	7.92
325.14	7.46
325.352	7.24
325.563	7.47
325.774	7.8
325.986	7.69
326.197	7.54
326.408	8.18
326.62	8.26
326.831	8.55
327.042	8.29
327.253	8.41
327.464	8.83
327.676	8.99
327.887	8.73
328.098	8.32
328.309	8
328.52	8.08
328.732	8.41
328.943	8.52
329.154	8.23
329.365	8.34
329.576	8.11
329.787	8.06
329.998	8.5
330.209	8.7
330.42	8.74
330.631	9.17
330.842	9.24
331.053	8.44
331.264	8.43
331.475	8.56
331.686	8.62
331.897	8.96
332.108	8.65
332.319	8.42
332.53	8.18
332.741	8.34
332.952	8.08
333.163	8.24
333.374	8.84
333.585	9
333.795	8.95
334.006	9.13
334.217	9.02
334.428	9.53
334.639	9.56
334.849	9.45
335.06	9.58
335.271	9.97
335.482	9.71
335.692	9.72
335.903	9.9
336.114	9.89
336.325	9.78
336.535	9.72
336.746	9.32
336.957	9.44
337.167	9.59
337.378	9.52
337.589	9.23
337.799	9.7
338.01	9.25
338.22	9.13
338.431	8.88
338.642	8.98
338.852	9.14
339.063	9.08
339.273	9.07
339.484	9.25
339.694	8.71
339.905	9.12
340.115	8.96
340.326	9.24
340.536	9.17
340.746	9.53
340.957	9.54
341.167	9.35
341.378	9.63
341.588	9.55
341.799	9.27
342.009	9.33
342.219	8.57
342.43	8.34
342.64	8.01
342.85	7.73
343.061	7.57
343.271	7.38
343.481	7.58
343.691	7.66
343.902	7.73
344.112	7.87
344.322	7.81
344.532	8.47
344.743	8.49
344.953	8.71
345.163	8.83
345.373	8.71
345.583	8.74
345.793	8.58
346.004	8.28
346.214	8.07
346.424	8.19
346.634	8.45
346.844	8.13
347.054	8.2
347.264	8.25
347.474	8.18
347.684	8.47
347.894	8.6
348.104	8.86
348.314	8.71
348.524	8.68
348.734	8.76
348.944	8.53
349.154	8.46
349.364	8.52
349.574	8.57
349.784	8.62
349.994	8.35
350.204	8.11
350.413	7.63
350.623	7.88
350.833	7.96
351.043	7.46
351.253	7.75
351.463	7.6
351.672	7.45
351.882	7
352.092	7.12
352.302	7.17
352.511	7.51
352.721	7.95
352.931	7.77
353.141	7.83
353.35	8.13
353.56	8.04
353.77	8.1
353.979	7.97
354.189	8.39
354.399	8.29
354.608	8.36
354.818	8.11
355.027	7.92
355.237	8.23
355.447	8.39
355.656	8.2
355.866	8.22
356.075	8.05
356.285	8.29
356.494	8.25
356.704	8.31
356.913	8.58
357.123	8.31
357.332	8.16
357.542	7.91
357.751	7.64
357.96	7.96
358.17	7.57
358.379	7.56
358.589	7.45
358.798	7.39
359.007	7.13
359.217	6.91
359.426	7.1
359.635	7.07
359.845	7.21
360.054	7.23
360.263	7.03
360.472	7.07
360.682	7.13
360.891	7.02
361.1	7.1
361.309	7.21
361.519	7.3
361.728	7.3
361.937	7.56
362.146	7.29
362.355	7.46
362.564	7.41
362.774	7.6
362.983	7.67
363.192	7.76
363.401	7.41
363.61	7.47
363.819	7.58
364.028	7.53
364.237	7.27
364.446	7.41
364.655	7.32
364.864	7.41
365.073	7.5
365.282	7.67
365.491	7.7
365.7	8.01
365.909	7.8
366.118	7.41
366.327	7.42
366.536	7.48
366.745	7.47
366.954	7.44
367.162	7.33
367.371	7.69
367.58	7.59
367.789	7.64
367.998	7.63
368.207	7.55
368.415	7.52
368.624	7.78
368.833	7.82
369.042	7.61
369.25	7.38
369.459	7.28
369.668	6.69
369.877	6.55
370.085	6.38
370.294	6.27
370.503	6.49
370.711	6.47
370.92	5.96
371.129	5.81
371.337	6
371.546	5.93
371.754	5.79
371.963	5.94
372.171	5.88
372.38	5.98
372.589	5.64
372.797	5.6
373.006	5.47
373.214	5.72
373.423	5.75
373.631	5.94
373.84	6.23
374.048	6.65
374.256	6.65
374.465	6.58
374.673	6.69
374.882	6.87
375.09	6.78
375.298	7
375.507	6.75
375.715	6.71
375.923	6.64
376.132	6.4
376.34	6.2
376.548	6.31
376.757	6.39
376.965	6.11
377.173	6.04
377.381	6.04
377.59	5.97
377.798	6.35
378.006	6.33
378.214	6.2
378.423	6.36
378.631	6.1
378.839	6.06
379.047	6.31
379.255	6.44
379.463	6.62
379.671	6.66
379.879	6.63
380.088	6.43
380.296	6.42
380.504	6.22
380.712	6.19
380.92	6.41
381.128	6.4
381.336	6.39
381.544	6.46
381.752	6.34
381.96	6.37
382.168	6.39
382.376	6.56
382.584	6.69
382.791	6.71
382.999	6.59
383.207	6.88
383.415	6.94
383.623	6.64
383.831	6.66
384.039	6.78
384.247	6.52
384.454	6.28
384.662	6.19
384.87	6.16
385.078	6.23
385.285	6.16
385.493	6.09
385.701	5.84
385.909	6.1
386.116	5.94
386.324	5.82
386.532	6.08
386.739	6.06
386.947	5.95
387.155	5.69
387.362	5.73
387.57	5.88
387.778	5.37
387.985	5.43
388.193	5.34
388.4	5.46
388.608	5.56
388.816	5.47
389.023	5.84
389.231	6.11
389.438	6.18
389.646	6.2
389.853	6.12
390.061	6.27
390.268	6.18
390.475	6.16
390.683	6.05
390.89	5.87
391.098	5.74
391.305	5.36
391.512	5.23
391.72	5.2
391.927	5.21
392.135	5.26
392.342	5.54
392.549	5.63
392.756	5.6
392.964	5.65
393.171	5.74
393.378	5.63
393.586	5.81
393.793	5.9
394	5.95
394.207	6
394.414	5.8
394.622	5.48
394.829	5.46
395.036	5.26
395.243	5.13
395.45	5.1
395.657	5.34
395.864	5.43
396.072	5.2
396.279	5.22
396.486	5.02
396.693	5.13
396.9	5.13
397.107	5.09
397.314	5.03
397.521	5.29
397.728	5.26
397.935	5.26
398.142	5.16
398.349	4.92
398.556	4.84
398.763	4.8
398.97	4.75
399.177	4.76
399.383	4.62
399.59	4.76
399.797	4.69
400.004	4.7
400.211	4.64
400.418	4.52
400.625	4.57
400.831	4.69
401.038	4.7
401.245	4.61
401.452	4.74
401.658	4.77
401.865	4.77
402.072	4.72
402.279	4.56
402.485	4.64
402.692	4.77
402.899	5.01
403.105	5.01
403.312	4.95
403.519	5.05
403.725	5.07
403.932	4.97
404.138	4.85
404.345	4.71
404.552	4.77
404.758	4.66
404.965	4.6
405.171	4.39
405.378	4.4
405.584	4.56
405.791	4.54
405.997	4.51
406.204	4.46
406.41	4.66
406.617	4.72
406.823	4.76
407.029	4.65
407.236	4.73
407.442	4.71
407.649	4.66
407.855	4.58
408.061	4.53
408.268	4.36
408.474	4.45
408.68	4.2
408.887	4.19
409.093	4.33
409.299	4.42
409.505	4.34
409.712	4.48
409.918	4.45
410.124	4.36
410.33	4.34
410.537	4.28
410.743	4.41
410.949	4.5
411.155	4.64
411.361	4.57
411.567	4.61
411.773	4.61
411.98	4.49
412.186	4.41
412.392	4.48
412.598	4.45
412.804	4.58
413.01	4.49
413.216	4.49
413.422	4.28
413.628	4.06
413.834	3.95
414.04	4
414.246	3.92
414.452	3.85
414.658	3.94
414.864	3.98
415.07	3.99
415.275	4.08
415.481	4.17
415.687	4.12
415.893	4.23
416.099	4.3
416.305	4.18
416.511	4.4
416.716	4.47
416.922	4.36
417.128	4.38
417.334	4.3
417.539	4.24
417.745	4.27
417.951	4.25
418.157	4.17
418.362	4.11
418.568	4.15
418.774	4.06
418.979	4
419.185	4.04
419.391	4.07
419.596	4.13
419.802	4.14
420.008	4.06
420.213	4.8
420.419	4.84
420.624	4.89
420.83	4.8
421.035	4.84
421.241	4.88
421.446	4.76
421.652	4.69
421.857	4.57
422.063	4.52
422.268	4.54
422.474	3.85
422.679	3.89
422.885	3.87
423.09	3.95
423.295	3.79
423.501	3.82
423.706	3.9
423.911	3.94
424.117	3.96
424.322	3.98
424.527	3.95
424.733	3.9
424.938	3.86
425.143	3.82
425.349	3.8
425.554	3.93
425.759	3.84
425.964	3.84
426.169	3.74
426.375	3.81
426.58	3.81
426.785	3.79
426.99	3.74
427.195	3.78
427.4	3.77
427.605	3.73
427.811	3.56
428.016	3.59
428.221	3.5
428.426	3.49
428.631	3.42
428.836	3.47
429.041	3.38
429.246	3.44
429.451	3.33
429.656	3.36
429.861	3.28
430.066	3.4
430.271	3.37
430.476	3.37
430.681	3.4
430.886	3.43
431.09	3.36
431.295	3.45
431.5	3.42
431.705	3.45
431.91	3.47
432.115	3.63
432.32	3.65
432.524	3.62
432.729	3.65
432.934	3.66
433.139	3.6
433.343	3.6
433.548	3.58
433.753	3.6
433.958	3.55
434.162	3.49
434.367	3.4
434.572	3.35
434.776	3.5
434.981	3.45
435.186	3.41
435.39	3.5
435.595	3.51
435.799	3.51
436.004	3.43
436.209	3.48
436.413	3.48
436.618	3.41
436.822	3.39
437.027	3.29
437.231	3.29
437.436	3.42
437.64	3.36
437.845	3.28
438.049	3.25
438.253	3.35
438.458	3.32
438.662	3.29
438.867	3.3
439.071	3.26
439.275	3.24
439.48	3.27
439.684	3.25
439.888	3.22
440.093	3.32
440.297	3.32
440.501	3.25
440.706	3.29
440.91	3.27
441.114	3.31
441.318	3.31
441.523	3.35
441.727	3.42
441.931	3.33
442.135	3.37
442.339	3.17
442.543	3.17
442.748	3.26
442.952	3.28
443.156	3.36
443.36	3.33
443.564	3.36
443.768	3.29
443.972	3.25
444.176	3.27
444.38	3.31
444.584	3.47
444.788	3.43
444.992	3.39
445.196	3.33
445.4	3.33
445.604	3.35
445.808	3.37
446.012	3.38
446.216	3.42
446.42	3.38
446.624	3.32
446.828	3.29
447.032	3.28
447.235	3.23
447.439	3.34
447.643	3.31
447.847	3.39
448.051	3.36
448.254	3.43
448.458	3.26
448.662	3.27
448.866	3.3
449.069	3.29
449.273	3.29
449.477	3.34
449.681	3.31
449.884	3.23
450.088	3.06
450.292	3
450.495	3
450.699	3.01
450.902	3.04
451.106	3.1
451.31	3.06
451.513	3.04
451.717	2.98
451.92	2.95
452.124	2.96
452.327	3.03
452.531	3.1
452.734	3.02
452.938	3.05
453.141	3
453.345	2.95
453.548	2.93
453.752	3
453.955	3.08
454.158	3.04
454.362	2.95
454.565	2.95
454.769	3
454.972	3.03
455.175	3.11
455.379	3.14
455.582	3.1
455.785	3.19
455.988	3.15
456.192	3.13
456.395	3.12
456.598	3.32
456.801	3.25
457.005	3.2
457.208	3.16
457.411	3.22
457.614	3.27
457.817	3.33
458.021	3.29
458.224	3.3
458.427	3.25
458.63	3.23
458.833	3.18
459.036	3.18
459.239	3.12
459.442	3.15
459.645	3.05
459.848	2.96
460.051	2.89
460.254	2.86
460.457	2.86
460.66	2.81
460.863	2.81
461.066	2.77
461.269	2.77
461.472	2.86
461.675	2.83
461.878	2.85
462.081	2.89
462.284	3.01
462.486	3.05
462.689	3.02
462.892	3.05
463.095	3.07
463.298	3.2
463.5	3.23
463.703	3.21
463.906	3.33
464.109	3.38
464.311	3.37
464.514	3.29
464.717	3.24
464.92	3.36
465.122	3.4
465.325	3.3
465.528	3.08
465.73	3.08
465.933	3.12
466.135	3
466.338	2.99
466.541	3.01
466.743	3.06
466.946	3.1
467.148	2.96
467.351	2.95
467.553	3.02
467.756	3.17
467.958	3.23
468.161	3.29
468.363	3.36
468.566	3.44
468.768	3.41
468.971	3.27
469.173	3.31
469.375	3.47
469.578	3.5
469.78	3.61
469.983	3.54
470.185	3.55
470.387	3.42
470.59	3.31
470.792	3.25
470.994	3.2
471.196	3.35
471.399	3.32
471.601	3.26
471.803	3.24
472.005	3.08
472.208	3.07
472.41	3.02
472.612	2.96
472.814	3.11
473.016	2.94
473.218	3
473.421	3.01
473.623	3.04
473.825	2.98
474.027	3.03
474.229	3.06
474.431	3.14
474.633	3.07
474.835	3.14
475.037	3.1
475.239	3.12
475.441	3.15
475.643	3.12
475.845	3.19
476.047	3.15
476.249	3.16
476.451	3.14
476.653	3.14
476.855	3.26
477.057	3.31
477.258	3.26
477.46	3.33
477.662	3.3
477.864	3.29
478.066	3.22
478.268	3.26
478.469	3.24
478.671	3.35
478.873	3.36
479.075	3.31
479.276	3.22
479.478	3.26
479.68	3.24
479.882	3.34
480.083	3.32
480.285	3.36
480.487	3.36
480.688	3.32
480.89	3.3
481.091	3.25
481.293	3.26
481.495	3.3
481.696	3.33
481.898	3.32
482.099	3.26
482.301	3.27
482.502	3.25
482.704	3.24
482.905	3.26
483.107	3.26
483.308	3.28
483.51	3.26
483.711	3.25
483.913	3.22
484.114	3.23
484.315	3.25
484.517	3.2
484.718	3.23
484.92	3.23
485.121	3.19
485.322	3.19
485.524	3.18
485.725	3.24
485.926	3.25
486.127	3.28
486.329	3.26
486.53	3.31
486.731	3.32
486.932	3.24
487.134	3.23
487.335	3.25
487.536	3.2
487.737	3.19
487.938	3.17
488.139	3.12
488.341	3.1
488.542	3.17
488.743	3.09
488.944	3.1
489.145	3.22
489.346	3.24
489.547	3.23
489.748	3.27
489.949	3.29
490.15	3.29
490.351	3.28
490.552	3.27
490.753	3.21
490.954	3.22
491.155	3.24
491.356	3.19
491.557	3.22
491.758	3.24
491.959	3.23
492.159	3.28
492.36	3.23
492.561	3.21
492.762	3.23
492.963	3.22
493.164	3.22
493.364	3.21
493.565	3.21
493.766	3.24
493.967	3.27
494.167	3.27
494.368	3.21
494.569	3.23
494.769	3.28
494.97	3.27
495.171	3.33
495.371	3.34
495.572	3.36
495.773	3.36
495.973	3.35
496.174	3.33
496.375	3.28
496.575	3.38
496.776	3.44
496.976	3.41
497.177	3.44
497.377	3.41
497.578	3.46
497.778	3.51
497.979	3.58
498.179	3.59
498.38	3.62
498.58	3.64
498.78	3.51
498.981	3.49
499.181	3.57
499.382	3.55
499.582	3.57
499.782	3.57
499.983	3.58
500.183	3.52
500.383	3.53
500.584	3.5
500.784	3.57
500.984	3.65
501.184	3.69
501.385	3.73
501.585	3.72
501.785	3.73
501.985	3.69
502.185	3.65
502.386	3.67
502.586	3.7
502.786	3.67
502.986	3.69
503.186	3.68
503.386	3.59
503.586	3.58
503.786	3.64
503.987	3.7
504.187	3.72
504.387	3.69
504.587	3.66
504.787	3.68
504.987	3.77
505.187	3.75
505.387	3.76
505.587	3.79
505.786	3.83
505.986	3.93
506.186	3.91
506.386	4
506.586	4.08
506.786	4.2
506.986	4.1
507.186	4.07
507.386	4.09
507.585	4.12
507.785	4.18
507.985	4.24
508.185	4.16
508.384	4.23
508.584	4.22
508.784	4.15
508.984	4.15
509.183	4.22
509.383	4.18
509.583	4.22
509.782	4.28
509.982	4.28
510.182	4.23
510.381	4.28
510.581	4.3
510.781	4.18
510.98	4.25
511.18	4.27
511.379	4.3
511.579	4.39
511.778	4.32
511.978	4.32
512.177	4.35
512.377	4.4
512.576	4.35
512.776	4.26
512.975	4.35
513.175	4.39
513.374	4.37
513.573	4.38
513.773	4.42
513.972	4.47
514.172	4.53
514.371	4.56
514.57	4.52
514.77	4.58
514.969	4.69
515.168	4.76
515.367	4.78
515.567	4.79
515.766	4.84
515.965	4.86
516.164	4.95
516.364	4.89
516.563	4.97
516.762	5.01
516.961	5.03
517.16	4.97
517.359	4.99
517.559	4.98
517.758	4.96
517.957	4.96
518.156	4.98
518.355	4.92
518.554	4.92
518.753	4.89
518.952	4.89
519.151	4.88
519.35	4.97
519.549	4.98
519.748	4.95
519.947	5
520.146	4.96
520.345	4.99
520.544	5.04
520.743	5.13
520.942	5.1
521.141	5.13
521.339	5.24
521.538	5.22
521.737	5.28
521.936	5.37
522.135	5.36
522.333	5.47
522.532	5.42
522.731	5.36
522.93	5.34
523.129	5.36
523.327	5.4
523.526	5.39
523.725	5.41
523.923	5.38
524.122	5.39
524.321	5.46
524.519	5.46
524.718	5.48
524.917	5.54
525.115	5.6
525.314	5.61
525.512	5.59
525.711	5.6
525.909	5.6
526.108	5.65
526.306	5.65
526.505	5.67
526.703	5.67
526.902	5.72
527.1	5.75
527.299	5.77
527.497	5.82
527.696	5.84
527.894	5.87
528.092	5.91
528.291	5.94
528.489	5.98
528.688	5.99
528.886	6.03
529.084	6.02
529.283	6.04
529.481	6.05
529.679	6.04
529.877	6.06
530.076	6.07
530.274	6.1
530.472	6.11
530.67	6.15
530.869	6.22
531.067	6.21
531.265	6.29
531.463	6.33
531.661	6.31
531.859	6.34
532.057	6.42
532.255	6.4
532.454	6.4
532.652	6.39
532.85	6.44
533.048	6.4
533.246	6.48
533.444	6.49
533.642	6.55
533.84	6.6
534.038	6.62
534.236	6.62
534.434	6.66
534.632	6.69
534.83	6.73
535.027	6.75
535.225	6.81
535.423	6.77
535.621	6.79
535.819	6.78
536.017	6.75
536.215	6.77
536.412	6.76
536.61	6.81
536.808	6.89
537.006	6.91
537.203	6.93
537.401	6.96
537.599	7.1
537.797	7.13
537.994	7.17
538.192	7.28
538.39	7.29
538.587	7.33
538.785	7.31
538.983	7.33
539.18	7.43
539.378	7.4
539.575	7.42
539.773	7.44
539.97	7.46
540.168	7.48
540.366	7.52
540.563	7.58
540.761	7.68
540.958	7.76
541.155	7.79
541.353	7.8
541.55	7.84
541.748	7.86
541.945	7.86
542.143	7.93
542.34	7.91
542.537	7.95
542.735	7.98
542.932	7.97
543.129	8
543.327	8.01
543.524	8.06
543.721	8.12
543.919	8.21
544.116	8.31
544.313	8.31
544.51	8.5
544.708	8.55
544.905	8.61
545.102	8.64
545.299	8.77
545.496	8.89
545.693	8.99
545.891	9
546.088	9.03
546.285	9.09
546.482	9.19
546.679	9.25
546.876	9.29
547.073	9.34
547.27	9.38
547.467	9.31
547.664	9.35
547.861	9.28
548.058	9.37
548.255	9.41
548.452	9.47
548.649	9.57
548.846	9.62
549.043	9.71
549.24	9.88
549.437	9.91
549.633	10.04
549.83	10.02
550.027	10.21
550.224	10.31
550.421	10.42
550.618	10.46
550.814	10.48
551.011	10.5
551.208	10.62
551.405	10.64
551.601	10.85
551.798	10.91
551.995	11.03
552.191	11
552.388	11.03
552.585	11.11
552.781	11.2
552.978	11.27
553.175	11.27
553.371	11.26
553.568	11.26
553.764	11.22
553.961	11.35
554.157	11.52
554.354	11.61
554.55	11.8
554.747	11.88
554.943	11.98
555.14	12.03
555.336	12.1
555.533	12.12
555.729	12.23
555.926	12.35
556.122	12.35
556.318	12.34
556.515	12.34
556.711	12.47
556.907	12.61
557.104	12.63
557.3	12.79
557.496	12.97
557.693	13.11
557.889	13.21
558.085	13.16
558.281	13.29
558.478	13.29
558.674	13.5
558.87	13.47
559.066	13.47
559.262	13.49
559.459	13.59
559.655	13.63
559.851	13.63
560.047	13.71
560.243	13.86
560.439	13.85
560.635	13.97
560.831	14.07
561.027	14.06
561.223	14.21
561.419	14.39
561.615	14.46
561.811	14.59
562.007	14.71
562.203	14.7
562.399	14.9
562.595	15.16
562.791	15.35
562.987	15.41
563.183	15.62
563.379	15.61
563.575	15.69
563.771	15.7
563.966	15.76
564.162	15.85
564.358	15.97
564.554	16.01
564.75	15.94
564.945	15.97
565.141	16.01
565.337	16.07
565.533	16.16
565.728	16.2
565.924	16.29
566.12	16.27
566.315	16.37
566.511	16.52
566.707	16.55
566.902	16.76
567.098	16.81
567.293	16.87
567.489	16.96
567.684	17.01
567.88	17.05
568.076	17.18
568.271	17.4
568.467	17.5
568.662	17.55
568.858	17.58
569.053	17.65
569.248	17.72
569.444	17.76
569.639	17.92
569.835	18.1
570.03	18.22
570.225	18.3
570.421	18.45
570.616	18.49
570.812	18.56
571.007	18.69
571.202	18.7
571.397	18.73
571.593	18.76
571.788	18.84
571.983	18.94
572.178	19.02
572.374	19.1
572.569	19.02
572.764	19.09
572.959	19.12
573.154	19.18
573.35	19.28
573.545	19.46
573.74	19.62
573.935	19.51
574.13	19.5
574.325	19.59
574.52	19.56
574.715	19.6
574.91	19.72
575.105	19.83
575.3	19.87
575.495	19.82
575.69	19.81
575.885	19.89
576.08	19.98
576.275	20
576.47	19.95
576.665	19.98
576.86	20.13
577.055	20.04
577.25	20.07
577.444	20.3
577.639	20.6
577.834	20.58
578.029	20.54
578.224	20.67
578.418	20.77
578.613	20.95
578.808	21.16
579.003	21.19
579.197	21.34
579.392	21.37
579.587	21.26
579.781	21.23
579.976	21.38
580.171	21.54
580.365	21.6
580.56	21.75
580.755	21.88
580.949	21.87
581.144	21.88
581.338	21.87
581.533	21.82
581.727	21.89
581.922	21.78
582.116	21.86
582.311	21.87
582.505	21.83
582.7	21.74
582.894	21.66
583.089	21.62
583.283	21.62
583.478	21.6
583.672	21.73
583.866	21.79
584.061	21.98
584.255	21.99
584.449	22.02
584.644	22.11
584.838	22.26
585.032	22.3
585.226	22.56
585.421	22.69
585.615	22.83
585.809	22.92
586.003	22.92
586.198	22.83
586.392	22.7
586.586	22.73
586.78	22.73
586.974	22.7
587.168	22.62
587.363	22.33
587.557	22.27
587.751	22.3
587.945	22.27
588.139	22.28
588.333	22.5
588.527	22.63
588.721	22.71
588.915	22.76
589.109	22.86
589.303	23.05
589.497	23.17
589.691	23.23
589.885	23.36
590.079	23.3
590.273	23.35
590.466	23.19
590.66	23.15
590.854	23.25
591.048	23.17
591.242	23.08
591.436	23.03
591.629	23.18
591.823	23.12
592.017	23.06
592.211	23.17
592.404	23.18
592.598	23.3
592.792	23.59
592.986	23.54
593.179	23.66
593.373	23.72
593.567	23.77
593.76	23.71
593.954	23.93
594.147	23.97
594.341	24.11
594.535	24.24
594.728	24.33
594.922	24.23
595.115	24.24
595.309	24.27
595.502	24.27
595.696	24.24
595.889	24.15
596.083	24.06
596.276	24.05
596.47	23.92
596.663	23.78
596.856	23.66
597.05	23.71
597.243	23.63
597.437	23.6
597.63	23.63
597.823	23.66
598.017	23.84
598.21	23.91
598.403	23.96
598.596	24.02
598.79	24.09
598.983	24.03
599.176	24.01
599.369	24.03
599.563	24.06
599.756	24.03
599.949	23.98
600.142	23.96
600.335	23.99
600.528	23.99
600.722	23.97
600.915	23.98
601.108	24.15
601.301	24.15
601.494	24.21
601.687	24.28
601.88	24.44
602.073	24.51
602.266	24.46
602.459	24.47
602.652	24.54
602.845	24.67
603.038	24.67
603.231	24.65
603.424	24.62
603.617	24.64
603.809	24.63
604.002	24.58
604.195	24.51
604.388	24.7
604.581	24.81
604.774	24.85
604.966	24.85
605.159	24.88
605.352	24.87
605.545	24.81
605.737	24.92
605.93	24.94
606.123	24.95
606.316	25.1
606.508	24.95
606.701	24.77
606.894	24.61
607.086	24.48
607.279	24.53
607.471	24.69
607.664	24.84
607.857	24.76
608.049	24.78
608.242	24.64
608.434	24.59
608.627	24.55
608.819	24.67
609.012	24.8
609.204	24.84
609.397	24.92
609.589	24.78
609.782	24.79
609.974	24.91
610.166	24.87
610.359	25.02
610.551	25.06
610.743	25.18
610.936	25.08
611.128	25.09
611.32	25.32
611.513	25.26
611.705	25.28
611.897	25.25
612.09	25.1
612.282	25.06
612.474	24.97
612.666	24.94
612.858	24.9
613.051	24.88
613.243	24.74
613.435	24.59
613.627	24.77
613.819	24.92
614.011	24.99
614.203	25.08
614.395	25.14
614.588	25.17
614.78	25.3
614.972	25.35
615.164	25.41
615.356	25.45
615.548	25.28
615.74	24.9
615.932	24.71
616.124	24.65
616.315	24.64
616.507	24.62
616.699	24.67
616.891	24.54
617.083	24.51
617.275	24.57
617.467	24.73
617.659	24.96
617.85	25.29
618.042	25.46
618.234	25.45
618.426	25.48
618.618	25.59
618.809	25.48
619.001	25.67
619.193	25.75
619.384	25.83
619.576	25.84
619.768	25.67
619.959	25.61
620.151	25.7
620.343	25.75
620.534	25.69
620.726	25.67
620.917	25.97
621.109	25.75
621.301	25.6
621.492	25.43
621.684	25.41
621.875	25.34
622.067	25.52
622.258	25.41
622.45	25.53
622.641	25.55
622.832	25.64
623.024	25.48
623.215	25.57
623.407	25.76
623.598	25.74
623.789	25.81
623.981	26.08
624.172	26.06
624.363	26.01
624.555	25.72
624.746	25.86
624.937	25.69
625.129	25.56
625.32	25.67
625.511	25.47
625.702	25.52
625.893	25.38
626.085	25.31
626.276	25.2
626.467	25.39
626.658	25.58
626.849	25.51
627.04	25.7
627.231	25.85
627.422	25.88
627.614	26.01
627.805	26.14
627.996	26.21
628.187	26.22
628.378	26.31
628.569	26.07
628.76	26.09
628.951	26.11
629.142	25.99
629.332	26.18
629.523	26.01
629.714	26.05
629.905	26.01
630.096	26.09
630.287	26.11
630.478	26.07
630.669	26.15
630.859	26.11
631.05	26.06
631.241	26.12
631.432	25.94
631.623	25.98
631.813	26.04
632.004	26.01
632.195	25.86
632.385	25.75
632.576	25.65
632.767	25.7
632.957	25.77
633.148	25.86
633.339	25.83
633.529	25.96
633.72	26.06
633.91	26
634.101	26.07
634.292	26.2
634.482	26.22
634.673	26.34
634.863	26.32
635.054	26.34
635.244	26.29
635.435	26.25
635.625	26.1
635.815	26.05
636.006	26.11
636.196	26.08
636.387	26.04
636.577	26.06
636.767	26.06
636.958	26.03
637.148	25.97
637.338	26.06
637.529	26.21
637.719	26.27
637.909	26.24
638.099	26.16
638.29	26.11
638.48	26.08
638.67	26.01
638.86	25.75
639.05	25.81
639.241	25.9
639.431	25.71
639.621	25.56
639.811	25.76
640.001	25.81
640.191	25.94
640.381	25.94
640.571	25.9
640.761	26.11
640.951	26.4
641.141	26.23
641.331	26.14
641.521	26.04
641.711	26.11
641.901	26.03
642.091	26.02
642.281	25.92
642.471	26
642.661	26.04
642.851	26.07
643.041	26.06
643.231	26.12
643.42	26
643.61	26.18
643.8	26.22
643.99	26.03
644.18	26.15
644.369	26.11
644.559	26.09
644.749	26.09
644.939	26.04
645.128	25.98
645.318	26.24
645.508	26.39
645.697	26.26
645.887	26.28
646.076	26.49
646.266	26.36
646.456	26.46
646.645	26.52
646.835	26.47
647.024	26.53
647.214	26.48
647.403	26.37
647.593	26.27
647.782	26.55
647.972	26.41
648.161	26.26
648.351	26.29
648.54	26.28
648.73	26.21
648.919	26.47
649.108	26.27
649.298	26.26
649.487	26.41
649.677	26.28
649.866	26.04
650.055	26.21
650.244	26.38
650.434	26.4
650.623	26.38
650.812	26.29
651.002	26.18
651.191	26.27
651.38	26.51
651.569	26.34
651.758	26.74
651.947	26.68
652.137	26.76
652.326	26.8
652.515	26.75
652.704	26.77
652.893	26.98
653.082	27.13
653.271	27.19
653.46	27.04
653.649	27.23
653.838	26.96
654.027	27.3
654.216	27.21
654.405	27.01
654.594	27.13
654.783	27.32
654.972	27
655.161	27.01
655.35	27.07
655.539	27.09
655.728	26.89
655.916	26.92
656.105	26.75
656.294	26.69
656.483	26.75
656.672	26.73
656.86	26.71
657.049	26.96
657.238	26.72
657.427	26.8
657.615	26.81
657.804	26.93
657.993	27.04
658.181	27.13
658.37	27.31
658.559	27.42
658.747	27.54
658.936	27.46
659.125	27.55
659.313	27.63
659.502	27.4
659.69	27.57
659.879	27.48
660.067	27.38
660.256	27.45
660.444	27.29
660.633	27.2
660.821	26.96
661.01	27.05
661.198	26.88
661.387	26.84
661.575	27.19
661.763	27.08
661.952	26.7
662.14	26.77
662.328	26.77
662.517	26.66
662.705	26.42
662.893	26.52
663.082	26.3
663.27	26.28
663.458	26.22
663.646	26.08
663.834	25.92
664.023	26.13
664.211	26.25
664.399	25.81
664.587	25.87
664.775	25.9
664.963	25.8
665.152	25.99
665.34	26.03
665.528	26.27
665.716	25.91
665.904	26.11
666.092	26.15
666.28	26.23
666.468	26.52
666.656	26.45
666.844	26.62
667.032	26.52
667.22	26.51
667.408	26.5
667.596	26.31
667.784	26.68
667.971	26.63
668.159	26.63
668.347	26.49
668.535	26.35
668.723	26.67
668.911	26.82
669.098	27
669.286	26.98
669.474	26.95
669.662	27.03
669.849	26.72
670.037	26.72
670.225	26.89
670.413	26.6
670.6	26.77
670.788	26.72
670.976	26.87
671.163	26.94
671.351	27.01
671.538	27
671.726	26.98
671.913	27.15
672.101	26.9
672.289	26.94
672.476	27.19
672.664	27.08
672.851	26.85
673.039	26.46
673.226	26.68
673.413	26.44
673.601	26.46
673.788	26.38
673.976	26.2
674.163	26.42
674.35	26.52
674.538	26.24
674.725	26.59
674.912	26.41
675.1	26.6
675.287	26.25
675.474	26.61
675.662	26.49
675.849	26.52
676.036	26.67
676.223	26.56
676.411	26.36
676.598	26.54
676.785	26.35
676.972	26.49
677.159	26.37
677.346	26.55
677.533	26.44
677.721	26.4
677.908	26.32
678.095	26.41
678.282	26.6
678.469	26.82
678.656	26.86
678.843	26.69
679.03	26.84
679.217	26.89
679.404	26.81
679.591	26.73
679.778	26.85
679.964	26.85
680.151	26.89
680.338	26.64
680.525	26.48
680.712	26.27
680.899	26.38
681.086	26.29
681.272	26.23
681.459	26.31
681.646	26.41
681.833	26.57
682.02	26.75
682.206	26.69
682.393	26.91
682.58	27.04
682.766	27.5
682.953	27.53
683.14	27.3
683.326	27.57
683.513	27.67
683.7	27.32
683.886	27.42
684.073	27.53
684.259	27.52
684.446	27.43
684.632	27.47
684.819	27.26
685.005	27.19
685.192	27.41
685.378	27.13
685.565	26.84
685.751	27.04
685.938	26.79
686.124	26.51
686.31	26.67
686.497	26.69
686.683	26.52
686.87	26.47
687.056	26.63
687.242	26.79
687.429	26.72
687.615	26.8
687.801	26.59
687.987	26.72
688.174	26.99
688.36	26.86
688.546	26.64
688.732	26.53
688.918	26.51
689.105	26.22
689.291	25.79
689.477	25.76
689.663	25.76
689.849	26.24
690.035	26.28
690.221	26.08
690.407	26.04
690.593	26.11
690.779	26.39
690.965	26.66
691.151	26.93
691.337	27.2
691.523	27.46
691.709	27.57
691.895	27.33
692.081	27.36
692.267	27.24
692.453	27.39
692.639	27.58
692.825	27.18
693.011	27.24
693.196	27.14
693.382	27.37
693.568	27.63
693.754	27.46
693.94	27.57
694.125	27.27
694.311	27.6
694.497	27.43
694.682	27.35
694.868	27.47
695.054	27.3
695.239	27.7
695.425	27.6
695.611	27.37
695.796	27.46
695.982	27.34
696.168	27.45
696.353	27.25
696.539	27.41
696.724	27.66
696.91	27.8
697.095	27.72
697.281	27.52
697.466	27.4
697.652	27.13
697.837	27.01
698.023	27.1
698.208	26.98
698.393	27.13
698.579	27.16
698.764	27.03
698.949	26.96
699.135	27.04
699.32	27.03
699.505	27.07
699.691	27.2
699.876	27.55
700.061	27.58
700.246	27.78
700.432	27.63
700.617	27.5
700.802	27.33
700.987	27.37
701.172	27.13
701.358	27.1
701.543	27.16
701.728	27.23
701.913	26.48
702.098	26.17
702.283	25.99
702.468	26.15
702.653	25.73
702.838	26.12
703.023	25.99
703.208	26.12
703.393	25.8
703.578	25.76
703.763	25.5
703.948	25.73
704.133	26.17
704.318	26.28
704.503	26.15
704.688	26.43
704.873	26.17
705.057	26.64
705.242	26.84
705.427	27.38
705.612	27.31
705.797	27.9
705.981	28.01
706.166	27.96
706.351	27.76
706.536	27.7
706.72	27.65
706.905	27.38
707.09	27.12
707.274	27.03
707.459	26.78
707.644	26.82
707.828	26.64
708.013	26.56
708.197	26.33
708.382	26.59
708.567	26.57
708.751	26.37
708.936	26.63
709.12	26.81
709.305	26.84
709.489	26.66
709.673	26.8
709.858	26.79
710.042	27.19
710.227	27.11
710.411	27.02
710.596	27.06
710.78	27.52
710.964	27.18
711.149	27.09
711.333	27.26
711.517	27.63
711.702	27.33
711.886	27.17
712.07	26.92
712.254	26.56
712.438	26.81
712.623	27.15
712.807	26.82
712.991	27.13
713.175	27.07
713.359	26.69
713.544	26.71
713.728	26.8
713.912	26.89
714.096	26.85
714.28	27.36
714.464	27.03
714.648	26.85
714.832	26.58
715.016	26.31
715.2	26.14
715.384	26.13
715.568	25.82
715.752	25.87
715.936	25.71
716.12	25.73
716.304	25.86
716.488	26.18
716.671	25.89
716.855	26.5
717.039	26.66
717.223	26.7
717.407	26.72
717.59	27.12
717.774	26.98
717.958	26.76
718.142	26.52
718.325	25.95
718.509	25.45
718.693	25.61
718.877	25.47
719.06	25.94
719.244	25.84
719.428	25.9
719.611	25.66
719.795	25.95
719.978	26.22
720.162	26.33
720.345	26.39
720.529	26.35
720.713	26.41
720.896	26.74
721.08	26.3
721.263	26.42
721.446	26.47
721.63	26.29
721.813	25.87
721.997	25.34
722.18	25.79
722.364	26.1
722.547	26.46
722.73	26.45
722.914	25.91
723.097	26.19
723.28	26.49
723.464	26.32
723.647	26.16
723.83	26.39
724.013	26.9
724.197	26.46
724.38	26.41
724.563	26.48
724.746	26.59
724.929	26.87
725.112	27.01
725.296	26.59
725.479	26.89
725.662	27.27
725.845	27.24
726.028	27.15
726.211	27.36
726.394	27.1
726.577	26.77
726.76	26.62
726.943	26.57
727.126	26.24
727.309	26
727.492	25.95
727.675	25.59
727.858	25.47
728.041	25.73
728.224	25.99
728.407	26.27
728.589	26.48
728.772	26.56
728.955	26.24
729.138	26.34
729.321	26.85
729.503	26.2
729.686	26.34
729.869	26.88
730.052	26.99
730.234	26.53
730.417	26.59
730.6	26.6
730.782	26.99
730.965	26.94
731.148	26.99
731.33	26.59
731.513	26.88
731.695	27.09
731.878	26.73
732.061	26.59
732.243	26.74
732.426	26.5
732.608	26.48
732.791	26.11
732.973	26.48
733.156	26.36
733.338	26.34
733.52	26.98
733.703	26.64
733.885	26.65
734.068	26.43
734.25	26.78
734.432	27.05
734.615	26.82
734.797	27.05
734.979	27.03
735.162	27.01
735.344	27.19
735.526	26.95
735.708	27.6
735.891	27.31
736.073	27.53
736.255	27.23
736.437	26.93
736.619	27.22
736.802	27.27
736.984	27.31
737.166	27.04
737.348	27.24
737.53	27.32
737.712	26.55
737.894	26.92
738.076	27.17
738.258	26.96
738.44	27.17
738.622	26.7
738.804	26.58
738.986	26.36
739.168	26.37
739.35	26.28
739.532	25.99
739.714	26.29
739.896	26.1
740.078	25.3
740.259	25.23
740.441	25.24
740.623	25.45
740.805	25.63
740.987	25.39
741.168	25.29
741.35	25.14
741.532	24.64
741.714	24.29
741.895	23.66
742.077	24.27
742.259	24.76
742.44	25.02
742.622	25.74
742.804	25.62
742.985	25.86
743.167	26.18
743.348	26.42
743.53	26.52
743.711	26.92
743.893	27.37
744.075	27.6
744.256	26.76
744.438	26.56
744.619	25.73
744.8	25.1
744.982	25.06
745.163	25.09
745.345	24.51
745.526	24.72
745.707	25.09
745.889	25.26
746.07	24.95
746.252	25.53
746.433	24.88
746.614	25.03
746.795	24.78
746.977	24.31
747.158	24.05
747.339	24.31
747.52	24.13
747.702	23.76
747.883	24.48
748.064	24.02
748.245	23.79
748.426	24.16
748.607	23.88
748.788	24.93
748.97	25.79
749.151	25.87
749.332	25.33
749.513	25.2
749.694	24.23
749.875	23.65
750.056	23.89
750.237	23.99
750.418	23.82
750.599	24.51
750.78	23.93
750.96	22.84
751.141	23.56
751.322	23.85
751.503	23.9
751.684	25.02
751.865	25.09
752.046	25.16
752.226	25.83
752.407	25.93
752.588	25.53
752.769	26.04
752.949	27.11
753.13	26.54
753.311	27.29
753.492	27.35
753.672	27.38
753.853	27.34
754.034	27.45
754.214	26.75
754.395	27.02
754.575	26.83
754.756	26.44
754.937	26.39
755.117	26.63
755.298	26.52
755.478	26.69
755.659	26.22
755.839	25.59
756.02	25.42
756.2	25.52
756.381	25.3
756.561	26.43
756.741	26.11
756.922	25.8
757.102	25.32
757.283	25.1
757.463	25.4
757.643	25.89
757.823	26.42
758.004	26.68
758.184	26.39
758.364	26.83
758.545	25.72
758.725	25.92
758.905	25.68
759.085	25.85
759.265	26.31
759.446	26.41
759.626	26.6
759.806	26.45
759.986	26.06
760.166	26.35
760.346	25.7
760.526	25.78
760.706	25.71
760.886	26.24
761.066	26.19
761.246	25.78
761.426	25.68
761.606	25.55
761.786	25.92
761.966	26.49
762.146	26.37
762.326	26.67
762.506	27.08
762.686	27.04
762.866	27.16
763.046	27.18
763.225	27.07
763.405	26.89
763.585	26.81
763.765	26.81
763.945	26.36
764.124	26.23
764.304	26.21
764.484	25.77
764.664	25.5
764.843	25.35
765.023	25.84
765.203	25.72
765.382	26.52
765.562	26.19
765.741	25.87
765.921	26.21
766.101	26.51
766.28	26.1
766.46	26.6
766.639	27.25
766.819	26.49
766.998	26.17
767.178	26.27
767.357	24.73
767.537	25.17
767.716	25.28
767.896	25.42
768.075	25.61
768.254	25.51
768.434	24.83
768.613	24.77
768.792	25.37
768.972	24.76
769.151	24.16
769.33	25.24
769.51	24.91
769.689	24.32
769.868	23.46
770.047	23.29
770.226	23.86
770.406	24.32
770.585	23.65
770.764	23.26
770.943	24.07
771.122	24.92
771.301	25.07
771.48	25.45
771.66	25.81
771.839	26.13
772.018	25.78
772.197	25.75
772.376	25.94
772.555	26.58
772.734	26.59
772.913	26.41
773.092	26.3
773.271	25.13
773.449	24.77
773.628	24.65
773.807	24.88
773.986	24.64
774.165	24.65
774.344	24.57
774.523	23.57
774.701	23.81
774.88	23.53
775.059	22.88
775.238	23.34
775.417	22.67
775.595	22.4
775.774	21.21
775.953	21.99
776.131	22.05
776.31	21.58
776.489	22.87
776.667	22.77
776.846	23.19
777.025	23.37
777.203	23.14
777.382	24.38
777.56	25.13
777.739	26.61
777.917	27.01
778.096	26.85
778.274	26.75
778.453	25.96
778.631	26.22
778.81	25.15
778.988	25.5
779.166	25.93
779.345	24.71
779.523	23.93
779.702	23.63
779.88	22.68
780.058	22.33
780.237	23.22
780.415	23.65
780.593	22.89
780.771	23.42
780.95	23.46
781.128	23.68
781.306	24.8
781.484	25.26
781.662	24.77
781.841	24.34
782.019	23.59
782.197	22.88
782.375	23.06
782.553	23.79
782.731	23.6
782.909	23.35
783.087	22.95
783.265	22.65
783.443	22.74
783.621	22.64
783.799	23.03
783.977	24.33
784.155	24.44
784.333	23.88
784.511	23.12
784.689	23.65
784.867	23.79
785.045	24.49
785.223	23.21
785.4	22.94
785.578	23.22
785.756	23
785.934	22.88
786.112	21.91
786.289	21.56
786.467	22.15
786.645	21.7
786.823	21.68
787	22.04
787.178	22.92
787.356	22.96
787.533	23.49
787.711	24.2
787.889	24.25
788.066	24.55
788.244	25.18
788.421	25.5
788.599	26.11
788.776	26.43
788.954	25.52
789.131	26.35
789.309	27.19
789.486	26.81
789.664	26.92
789.841	27.48
790.019	27.91
790.196	27.86
790.373	27.39
790.551	26.43
790.728	26.76
790.906	27.35
791.083	26.56
791.26	25.79
791.437	25.31
791.615	24.58
791.792	24.42
791.969	24.33
792.146	23.9
792.324	24.43
792.501	26.24
792.678	25.22
792.855	24.67
793.032	24.16
793.209	25.1
793.387	25.49
793.564	25.34
793.741	24.82
793.918	25.51
794.095	26.2
794.272	26
794.449	26.1
794.626	26.64
794.803	27.05
794.98	27.91
795.157	27.11
795.334	27.09
795.511	27.61
795.688	27.42
795.864	26.67
796.041	26.25
796.218	26.34
796.395	24.72
796.572	24.81
796.749	24.29
796.925	23.4
797.102	22.7
797.279	22.59
797.456	22.37
797.632	22.7
797.809	23.25
797.986	23.84
798.162	24.32
798.339	24.91
798.516	24.44
798.692	24.47
798.869	25.09
799.046	25.78
799.222	25.89
799.399	25.16
799.575	24.51
799.752	24.82
799.928	23.9
800.105	22.96
800.281	22.21
800.458	22.81
800.634	22.94
800.811	22.05
800.987	22.04
801.163	22.81
801.34	24.13
801.516	24.69
801.692	23.67
801.869	23.88
802.045	23.85
802.221	24.66
802.398	26.01
802.574	26.39
802.75	26.29
802.926	26.8
803.103	27.31
803.279	27.05
803.455	26.5
803.631	25.89
803.807	25.23
803.983	25.86
804.16	25.9
804.336	23.89
804.512	23.02
804.688	24.57
804.864	23.59
805.04	21.82
805.216	21.04
805.392	21.69
805.568	22.37
805.744	23.25
805.92	22.81
806.096	21.78
806.272	22.37
806.448	22.68
806.623	22.47
806.799	23.02
806.975	23.62
807.151	23.57
807.327	23.5
807.503	24.59
807.678	25.64
807.854	25.84
808.03	26.76
808.206	26.04
808.381	26.68
808.557	26
808.733	25.93
808.908	25.95
809.084	26.47
809.26	26.13
809.435	23.94
809.611	22.05
809.787	21.11
809.962	21.18
810.138	21.04
810.313	21.43
810.489	22.52
810.664	23.09
810.84	23.57
811.015	23.73
811.191	22.83
811.366	23.46
811.542	22.99
811.717	24.4
811.892	24.07
812.068	24.54
812.243	23.18
812.419	22.1
812.594	21.23
812.769	20.01
812.944	19.1
813.12	20.33
813.295	20.35
813.47	20.23
813.645	19.59
813.821	20.01
813.996	19.99
814.171	20.23
814.346	21.58
814.521	22.02
814.697	23.84
814.872	24.41
815.047	24.7
815.222	24.29
815.397	24.98
815.572	25.28
815.747	23.49
815.922	25.81
816.097	26.05
816.272	24.83
816.447	24.21
816.622	22.46
816.797	22.86
816.972	22.51
817.147	22.58
817.322	22.26
817.496	21.14
817.671	22.43
817.846	21.05
818.021	21.97
818.196	21.12
818.371	22.27
818.545	23.77
818.72	24.22
818.895	23.94
819.069	25.45
819.244	26.71
819.419	27.02
819.594	27.28
819.768	26.55
819.943	25.67
820.117	26.18
820.292	26.03
820.467	25.68
820.641	25.36
820.816	25.66
820.99	25.59
821.165	25.35
821.339	25.3
821.514	25.23
821.688	25.5
821.863	25.91
822.037	26.13
822.212	26.05
822.386	26.01
822.56	26.15
822.735	25.97
822.909	26.07
823.084	26.1
823.258	26.3
823.432	26.33
823.606	26.12
823.781	26.03
823.955	25.86
824.129	25.68
824.303	26.03
824.478	25.81
824.652	26.28
824.826	26.05
825	25.97
825.174	26.01
825.348	26.17
825.523	26.39
825.697	26.2
825.871	26.15
826.045	26.28
826.219	25.7
826.393	25.73
826.567	25.67
826.741	25.75
826.915	26.21
827.089	26.24
827.263	25.71
827.437	25.71
827.611	25.75
827.784	25.95
827.958	26.14
828.132	26.26
828.306	26.5
828.48	26.04
828.654	25.99
828.827	25.83
829.001	25.42
829.175	26.01
829.349	26.19
829.522	26.5
829.696	26.13
829.87	26.28
830.044	25.64
830.217	25.33
830.391	25.8
830.565	25.2
830.738	24.45
830.912	24.18
831.085	24.03
831.259	22.67
831.432	22.19
831.606	22.82
831.779	22.04
831.953	23.69
832.126	24.83
832.3	24.67
832.473	25.33
832.647	25.31
832.82	25
832.994	25.43
833.167	25.82
833.34	25.48
833.514	24.88
833.687	25.39
833.86	25.06
834.034	24.52
834.207	24.57
834.38	24.76
834.553	24.45
834.727	25.26
834.9	24.52
835.073	25.06
835.246	25.14
835.419	25.59
835.593	25.34
835.766	24.97
835.939	25.04
836.112	25.04
836.285	24.28
836.458	24.86
836.631	24.53
836.804	24.54
836.977	23.4
837.15	23.11
837.323	22.77
837.496	22.5
837.669	23
837.842	22.63
838.015	22.54
838.188	22.44
838.361	23.19
838.533	23.95
838.706	24.65
838.879	24.51
839.052	23.29
839.225	21.99
839.398	22.89
839.57	21.52
839.743	21.03
839.916	21.2
840.088	21.86
840.261	20.83
840.434	19.54
840.607	19.13
840.779	19.86
840.952	21.4
841.124	23.15
841.297	22.07
841.47	22.51
841.642	21.13
841.815	20.59
841.987	20.39
842.16	20.35
842.332	21.41
842.505	21.78
842.677	22.57
842.85	21.92
843.022	20.4
843.194	18.92
843.367	17.42
843.539	18.59
843.712	17.89
843.884	14.57
844.056	15.3
844.229	13.87
844.401	11.76
844.573	11.17
844.745	9.83
844.918	10.02
845.09	12.95
845.262	14.24
845.434	15.53
845.606	16.59
845.779	22.15
845.951	19.77
846.123	18.57
846.295	18.61
846.467	15.25
846.639	14.1
846.811	13.53
846.983	13.62
847.155	11.7
847.327	10.95
847.499	12.56
847.671	10.61
847.843	8.81
848.015	9.09
848.187	13.77
848.359	13.84
848.531	21.55
848.703	21.47
848.875	21.74
849.047	26.04
849.218	26.21
849.39	24.2
849.562	22.65
849.734	25.21
849.905	23.8
850.077	19.09
850.249	20.36
850.421	17.2
850.592	16.83
850.764	14.79
850.936	13.35
851.107	11.81
851.279	8.89
851.451	12.43
851.622	11.63
851.794	16.84
851.965	19.38
852.137	20.57
852.308	19.94
852.48	21.77
852.651	22.16
852.823	20.56
852.994	24.63
853.166	28.81
853.337	27.93
853.509	28.07
853.68	22.59
853.851	24.81
854.023	25.68
854.194	26.92
854.365	25.78
854.537	26.36
854.708	26.93
854.879	25.83
855.05	25.02
855.222	22.57
855.393	22.83
855.564	26.8
855.735	25.43
855.906	26.81
856.078	25.3
856.249	24.3
856.42	22.07
856.591	23.76
856.762	21.22
856.933	20.85
857.104	20.78
857.275	20.89
857.446	19.71
857.617	18.52
857.788	16.6
857.959	14.89
858.13	16.77
858.301	18.63
858.472	15.68
858.643	17.45
858.814	16.72
858.985	17.52
859.155	19.49
859.326	20.64
859.497	24.16
859.668	24.43
859.839	23.74
860.009	23
860.18	23.77
860.351	25
860.522	25.35
860.692	26.03
860.863	25.05
861.034	23.06
861.204	22.95
861.375	19.02
861.546	18.61
861.716	20.26
861.887	20.17
862.057	19.6
862.228	20.92
862.398	20.48
862.569	19.32
862.739	18.14
862.91	21.04
863.08	21.53
863.251	21.85
863.421	21.13
863.592	20.15
863.762	16.7
863.932	14.99
864.103	16.56
864.273	16.2
864.443	15.24
864.614	19.5
864.784	17.47
864.954	15.73
865.125	15.71
865.295	16.5
865.465	18.76
865.635	22.04
865.805	24.77
865.976	23.66
866.146	22.51
866.316	23.46
866.486	21.91
866.656	17.65
866.826	18.76
866.996	19.12
867.166	19.95
867.336	18.95
867.506	18.51
867.676	17
867.846	15.37
868.016	17.46
868.186	16.78
868.356	14.39
868.526	17.86
868.696	15.56
868.866	13.41
869.036	11.66
869.206	13.3
869.376	14.81
869.545	14.61
869.715	14.65
869.885	11.55
870.055	10.35
870.224	9.13
870.394	8.08
870.564	9.02
870.734	15.07
870.903	15.23
871.073	14.79
871.243	14.75
871.412	13.04
871.582	14.5
871.751	13.37
871.921	18.23
872.091	15.55
872.26	13.01
872.43	10.32
872.599	8.56
872.769	10.39
872.938	7.68
873.108	10.9
873.277	13.27
873.446	12.51
873.616	13.26
873.785	9.77
873.955	15.91
874.124	20.33
874.293	20.78
874.463	20.22
874.632	16.45
874.801	18.44
874.971	14.07
875.14	12
875.309	14.69
875.478	18.14
875.647	19.99
875.817	21.32
875.986	19.24
876.155	20
876.324	16.27
876.493	20.48
876.662	21.92
876.831	19.41
877	18.07
877.17	15.11
877.339	16.65
877.508	17.1
877.677	12.92
877.846	13.35
878.015	17.36
878.184	18.2
878.352	17.88
878.521	15.94
878.69	19.18
878.859	21.23
879.028	20.74
879.197	18.68
879.366	19.01
879.534	21.51
879.703	21.75
879.872	21.47
880.041	22.06
880.21	22.7
880.378	23.88
880.547	24.36
880.716	24.06
880.884	24.18
881.053	25.08
881.222	24.74
881.39	24.77
881.559	25.43
881.727	25.17
881.896	25.4
882.065	25.89
882.233	25.9
882.402	26.24
882.57	25.69
882.739	25.68
882.907	25.14
883.076	25.7
883.244	25.44
883.412	24.96
883.581	24.78
883.749	24.94
883.918	23.87
884.086	23.31
884.254	22.73
884.423	23.9
884.591	23.63
884.759	22.67
884.927	21.69
885.096	21.86
885.264	21.57
885.432	21.88
885.6	21.13
885.769	21.73
885.937	22.85
886.105	22.31
886.273	20.44
886.441	18.55
886.609	18.01
886.777	17.9
886.945	15.31
887.113	16.27
887.281	15.1
887.449	14.78
887.617	13.99
887.785	11.14
887.953	10.59
888.121	10.02
888.289	13.32
888.457	15.59
888.625	16.86
888.793	17.85
888.961	16.73
889.129	15.71
889.296	17.61
889.464	17.6
889.632	18.51
889.8	18.47
889.967	21.01
890.135	21.46
