Data from 2938570_Reflection_2.txt Node
Date: Sun Jun 14 22:09:56 EDT 2015
User: robert
Spectrometer: USB4E03002
Autoset integration time: false
Trigger mode: 4
Integration Time (sec): 1.000000E-1
Scans to average: 10
Electric dark correction enabled: true
Nonlinearity correction enabled: false
Boxcar width: 5
Stray light correction enabled: false
XAxis mode: Wavelengths
Stop averaging: false
Number of Pixels in Spectrum: 3648
>>>>>Begin Spectral Data<<<<<
177.575	112.97
177.794	75.72
178.014	19.23
178.233	3.71
178.452	-33.05
178.672	-52975
178.891	82.31
179.11	209.02
179.33	197.6
179.549	191.42
179.768	161.45
179.987	-2.9
180.207	140.13
180.426	68.74
180.645	55.69
180.864	88.37
181.084	84.32
181.303	42.6
181.522	70.27
181.741	96.17
181.96	4077.27
182.179	-1563.77
182.398	42.39
182.618	73.37
182.837	42.19
183.056	69.24
183.275	132.96
183.494	128.76
183.713	108.55
183.932	115.62
184.151	112.5
184.37	134.23
184.589	132.19
184.808	129.73
185.027	140.09
185.246	130.47
185.465	136.63
185.684	127.54
185.903	315.54
186.122	-41.7
186.341	-517.66
186.56	-74.05
186.779	-256.45
186.998	3805.8
187.216	1763.13
187.435	220.13
187.654	412.15
187.873	225.96
188.092	160.06
188.311	111.81
188.53	116.16
188.748	141.07
188.967	113.59
189.186	129.3
189.405	156.7
189.623	148.75
189.842	132.37
190.061	142.3
190.28	138.93
190.498	119.62
190.717	-2246.07
190.936	275.77
191.154	149.43
191.373	134.85
191.592	185.58
191.81	175.06
192.029	265.8
192.248	237.15
192.466	152.82
192.685	212.58
192.904	248.59
193.122	155.3
193.341	122.11
193.559	97.64
193.778	113.11
193.996	88.68
194.215	84.97
194.433	80.28
194.652	131.79
194.87	105.3
195.089	86.11
195.307	92.39
195.526	78.11
195.744	110.94
195.963	187.99
196.181	187.85
196.399	202.34
196.618	267.01
196.836	501.3
197.055	311.79
197.273	-523.65
197.491	-1449.88
197.71	335.52
197.928	1250.76
198.146	-822.52
198.365	-35.76
198.583	-101.38
198.801	129.43
199.019	102.16
199.238	101.66
199.456	86.04
199.674	121.54
199.892	95.86
200.111	114.49
200.329	95.3
200.547	75.27
200.765	92.62
200.983	105.03
201.202	141.59
201.42	135.46
201.638	169.21
201.856	165.29
202.074	107.56
202.292	245.26
202.51	165.3
202.728	305.53
202.946	680.33
203.165	648.16
203.383	179.75
203.601	371.14
203.819	926.83
204.037	556.38
204.255	545.5
204.473	-1333.65
204.691	151.99
204.909	146.55
205.127	142.1
205.345	118.96
205.562	100.41
205.78	142.38
205.998	112.31
206.216	111.42
206.434	103.78
206.652	102.56
206.87	96.31
207.088	88.41
207.306	129.4
207.523	103.92
207.741	109.04
207.959	202.75
208.177	119.03
208.395	116.15
208.612	98.48
208.83	90.81
209.048	79.21
209.266	116.22
209.483	174.12
209.701	140.04
209.919	95.65
210.136	53.86
210.354	30.85
210.572	55.36
210.79	76.04
211.007	76.78
211.225	54.68
211.442	44.49
211.66	37.76
211.878	38.5
212.095	75.44
212.313	99.13
212.53	98.48
212.748	108.87
212.966	110.56
213.183	122.9
213.401	127.14
213.618	152.45
213.836	156.46
214.053	141.65
214.271	133.01
214.488	162.65
214.705	144.47
214.923	178.29
215.14	102.45
215.358	77.03
215.575	50.25
215.793	42.06
216.01	63.82
216.227	53.24
216.445	49.26
216.662	50.42
216.879	61.18
217.097	59.68
217.314	70.88
217.531	83.68
217.749	80.76
217.966	85.59
218.183	82.57
218.4	76.44
218.618	77.06
218.835	69.35
219.052	54.57
219.269	50.84
219.487	46.84
219.704	43.32
219.921	26.43
220.138	32.49
220.355	41.63
220.572	48.53
220.79	39.42
221.007	37.56
221.224	41.48
221.441	51.02
221.658	48.64
221.875	54.25
222.092	48.93
222.309	45.34
222.526	37.75
222.743	38.71
222.96	30.42
223.177	29.53
223.394	26.65
223.611	27.15
223.828	27.86
224.045	23.29
224.262	20.05
224.479	20.55
224.696	20.47
224.913	20.27
225.13	17.19
225.347	20.06
225.564	20.61
225.781	19.6
225.997	17.93
226.214	16.8
226.431	15.74
226.648	15.34
226.865	15.36
227.082	15.06
227.298	14.97
227.515	14.79
227.732	13.82
227.949	13.72
228.165	13.72
228.382	13.86
228.599	13.76
228.816	14.59
229.032	13.62
229.249	13.25
229.466	12.79
229.682	12.62
229.899	12.62
230.116	13.1
230.332	12.55
230.549	13.32
230.765	14.61
230.982	13.4
231.199	13.76
231.415	15.73
231.632	15.12
231.848	15.41
232.065	15.43
232.281	15.62
232.498	13.76
232.714	13.06
232.931	14.08
233.147	11.21
233.364	12.46
233.58	11.39
233.797	12.86
234.013	12.45
234.23	13.11
234.446	13.3
234.662	13.08
234.879	15.65
235.095	18.33
235.312	17.48
235.528	18.66
235.744	17.3
235.961	18.55
236.177	17.95
236.393	19.21
236.61	19.64
236.826	18.31
237.042	16.81
237.258	15.68
237.475	14.89
237.691	13.26
237.907	14.88
238.123	16.07
238.339	16.34
238.556	15.36
238.772	15.04
238.988	14.58
239.204	15.19
239.42	15.1
239.636	14.48
239.853	13.66
240.069	13.72
240.285	13.16
240.501	12.04
240.717	11.56
240.933	11.57
241.149	11.55
241.365	11.2
241.581	11.44
241.797	11.67
242.013	11.42
242.229	10.84
242.445	10.77
242.661	10.42
242.877	11.84
243.093	11.88
243.309	11.15
243.525	10.66
243.741	11.2
243.957	10.06
244.173	9.22
244.388	9.78
244.604	10.11
244.82	10.27
245.036	10.25
245.252	9.55
245.468	9.43
245.683	9.02
245.899	9.38
246.115	9.27
246.331	9.63
246.547	10.01
246.762	9.8
246.978	9.46
247.194	8.89
247.409	8.61
247.625	8.78
247.841	8.93
248.057	10.17
248.272	9.45
248.488	9.3
248.703	8.24
248.919	7.31
249.135	6.91
249.35	7.59
249.566	8.07
249.782	7.85
249.997	8.24
250.213	8.17
250.428	7.89
250.644	8.56
250.859	8.17
251.075	9.2
251.29	9.62
251.506	10.33
251.721	10.72
251.937	11.03
252.152	11.25
252.368	11.09
252.583	10.19
252.798	9.76
253.014	9.24
253.229	9.53
253.445	8.52
253.66	9.12
253.875	8.12
254.091	7.4
254.306	6.66
254.521	7.61
254.737	6.77
254.952	7.95
255.167	7.48
255.383	8.8
255.598	9.51
255.813	10.01
256.028	8.86
256.244	9.15
256.459	9.78
256.674	10.28
256.889	9.63
257.104	9.79
257.32	9.88
257.535	9.53
257.75	8.89
257.965	8.55
258.18	8.61
258.395	8.95
258.61	8.55
258.826	7.94
259.041	7.86
259.256	7.83
259.471	7.6
259.686	7.41
259.901	7.89
260.116	7.9
260.331	7.8
260.546	7.74
260.761	7.74
260.976	8.1
261.191	8.73
261.406	8.3
261.621	8.65
261.836	8.72
262.05	8.45
262.265	7.94
262.48	8.34
262.695	8.4
262.91	9.25
263.125	8.89
263.34	9.53
263.555	9.35
263.769	9.98
263.984	9.86
264.199	9.76
264.414	9.31
264.629	9.02
264.843	8.84
265.058	9.1
265.273	7.93
265.488	8.11
265.702	6.89
265.917	6.79
266.132	6.51
266.346	6.54
266.561	6.39
266.776	6.51
266.99	6.48
267.205	6.17
267.42	6.22
267.634	6.08
267.849	5.78
268.063	6.88
268.278	7.09
268.492	7.41
268.707	7.03
268.922	7.66
269.136	7.87
269.351	7.92
269.565	8.11
269.78	8.13
269.994	8.11
270.209	8.67
270.423	8.22
270.637	7.94
270.852	7.54
271.066	7.64
271.281	7.72
271.495	7.49
271.709	7.7
271.924	7.26
272.138	6.82
272.353	7.22
272.567	6.69
272.781	6.87
272.996	6.66
273.21	6.79
273.424	6.52
273.638	5.91
273.853	6.03
274.067	5.76
274.281	6.62
274.495	6.79
274.71	6.73
274.924	6.74
275.138	6.52
275.352	7.04
275.566	6.86
275.781	7.66
275.995	7.93
276.209	7.88
276.423	7.91
276.637	7.32
276.851	8.06
277.065	8.53
277.279	8.57
277.493	8.5
277.707	8.21
277.921	7.97
278.135	7.38
278.349	7.12
278.563	7.08
278.777	7.56
278.991	7.56
279.205	7.33
279.419	6.81
279.633	7.09
279.847	7.45
280.061	7.47
280.275	7.5
280.489	7.6
280.703	7.84
280.917	7.76
281.131	7.28
281.344	7.73
281.558	7.56
281.772	7.19
281.986	6.76
282.2	6.72
282.414	6.92
282.627	7.06
282.841	6.96
283.055	7
283.269	7.52
283.482	7.53
283.696	7.02
283.91	6.81
284.123	6.96
284.337	7.19
284.551	7.28
284.764	6.96
284.978	6.92
285.192	7.15
285.405	6.84
285.619	6.64
285.833	6.97
286.046	7.62
286.26	7.8
286.473	8.07
286.687	7.88
286.9	7.55
287.114	8.26
287.327	8.13
287.541	8.03
287.754	8.16
287.968	8.01
288.181	7.7
288.395	7.33
288.608	7.23
288.822	6.9
289.035	6.82
289.248	6.87
289.462	6.57
289.675	6.86
289.889	6.66
290.102	6.56
290.315	6.73
290.529	6.8
290.742	6.51
290.955	6.54
291.169	6.65
291.382	7.11
291.595	7.6
291.808	7.79
292.022	8.01
292.235	8.13
292.448	8.14
292.661	7.89
292.875	7.93
293.088	7.94
293.301	7.87
293.514	8.14
293.727	7.92
293.94	7.8
294.153	7.46
294.367	7.05
294.58	7.14
294.793	6.84
295.006	6.95
295.219	6.85
295.432	6.93
295.645	7.09
295.858	6.84
296.071	6.58
296.284	6.43
296.497	6.41
296.71	6.6
296.923	6.11
297.136	6.29
297.349	6.26
297.562	6.26
297.775	6.49
297.988	6.21
298.201	6.42
298.414	6.78
298.626	6.83
298.839	7.01
299.052	7.06
299.265	7.88
299.478	7.94
299.691	7.67
299.903	7.88
300.116	7.57
300.329	7.62
300.542	7.59
300.755	7.63
300.967	7.71
301.18	7.51
301.393	7.84
301.605	7.77
301.818	7.93
302.031	8.13
302.243	7.74
302.456	7.59
302.669	7.59
302.881	7.48
303.094	7.12
303.307	7.32
303.519	7.22
303.732	7.13
303.944	7.09
304.157	7.19
304.37	7.33
304.582	7.51
304.795	7.54
305.007	7.33
305.22	7.29
305.432	7.34
305.645	7.03
305.857	7.63
306.069	7.29
306.282	7.41
306.494	7.02
306.707	6.95
306.919	7.16
307.132	7.19
307.344	7.35
307.556	7.53
307.769	7.88
307.981	7.88
308.193	7.51
308.406	7.53
308.618	7.16
308.83	7.19
309.043	7.2
309.255	6.84
309.467	7.47
309.679	7.91
309.892	7.77
310.104	7.53
310.316	7.61
310.528	7.91
310.74	7.88
310.953	8.26
311.165	8.44
311.377	8.46
311.589	8.75
311.801	8.3
312.013	8.18
312.225	8.6
312.437	8.44
312.649	8.82
312.862	8.74
313.074	8.94
313.286	9.02
313.498	8.95
313.71	8.9
313.922	8.59
314.134	8.4
314.346	8.01
314.558	7.62
314.77	8.26
314.982	7.85
315.193	7.45
315.405	7.37
315.617	6.96
315.829	7.13
316.041	7.07
316.253	7.84
316.465	7.79
316.677	7.84
316.888	8.24
317.1	8.08
317.312	8.4
317.524	9.02
317.736	9.24
317.947	9.61
318.159	10.28
318.371	10.25
318.583	9.88
318.794	10.17
319.006	10.43
319.218	10.27
319.43	10.64
319.641	10.37
319.853	10.06
320.064	9.86
320.276	9.86
320.488	9.11
320.699	9.33
320.911	9.38
321.123	9.23
321.334	9.12
321.546	9.01
321.757	8.63
321.969	8.56
322.18	8.26
322.392	8.1
322.603	8.07
322.815	8.58
323.026	8.59
323.238	8.61
323.449	8.66
323.661	8.43
323.872	8.36
324.083	8.46
324.295	8.86
324.506	8.96
324.718	9.02
324.929	8.83
325.14	8.69
325.352	8.4
325.563	8.25
325.774	8.73
325.986	9.22
326.197	9.44
326.408	9.53
326.62	9.47
326.831	9.67
327.042	9.9
327.253	10.22
327.464	10.17
327.676	10.76
327.887	11.08
328.098	10.65
328.309	10.46
328.52	10.24
328.732	9.99
328.943	10.47
329.154	10.56
329.365	10.4
329.576	10.04
329.787	10.09
329.998	10.25
330.209	10.12
330.42	10.5
330.631	10.64
330.842	10.75
331.053	11.3
331.264	10.35
331.475	10.61
331.686	10.77
331.897	11.12
332.108	11.26
332.319	10.93
332.53	10.91
332.741	10.62
332.952	10.68
333.163	11.1
333.374	10.49
333.585	10.54
333.795	9.92
334.006	9.6
334.217	9.36
334.428	9.08
334.639	9.33
334.849	9.46
335.06	9.64
335.271	9.69
335.482	9.14
335.692	9.32
335.903	9.76
336.114	10.08
336.325	10.47
336.535	10.95
336.746	10.95
336.957	10.11
337.167	9.84
337.378	9.88
337.589	9.65
337.799	9.74
338.01	9.81
338.22	9.33
338.431	9.45
338.642	9.29
338.852	8.88
339.063	8.98
339.273	9.52
339.484	9.6
339.694	9.43
339.905	9.33
340.115	9.63
340.326	9.55
340.536	9.93
340.746	9.66
340.957	10.02
341.167	10.22
341.378	10.09
341.588	10.05
341.799	10.26
342.009	10.09
342.219	10.05
342.43	9.89
342.64	10.18
342.85	9.73
343.061	9.66
343.271	9.28
343.481	8.97
343.691	9.04
343.902	9.07
344.112	8.92
344.322	8.93
344.532	9.27
344.743	9.25
344.953	8.5
345.163	8.66
345.373	8.78
345.583	8.81
345.793	9.09
346.004	9.21
346.214	9.22
346.424	9
346.634	9.14
346.844	8.74
347.054	8.76
347.264	9.29
347.474	9.51
347.684	9.36
347.894	9.03
348.104	8.56
348.314	8.53
348.524	8.45
348.734	8.92
348.944	8.66
349.154	8.89
349.364	8.55
349.574	8.77
349.784	8.49
349.994	8.4
350.204	8.57
350.413	9
350.623	8.98
350.833	8.84
351.043	8.4
351.253	8.7
351.463	8.69
351.672	8.89
351.882	8.67
352.092	8.76
352.302	9.17
352.511	9.26
352.721	9.3
352.931	9.15
353.141	8.99
353.35	9.1
353.56	8.9
353.77	8.46
353.979	8.36
354.189	8.51
354.399	8.36
354.608	8.41
354.818	8.34
355.027	8.44
355.237	8.38
355.447	8.75
355.656	8.65
355.866	8.71
356.075	8.85
356.285	8.91
356.494	8.91
356.704	9.08
356.913	8.98
357.123	8.93
357.332	8.67
357.542	8.8
357.751	8.57
357.96	8.46
358.17	8.44
358.379	8.66
358.589	8.53
358.798	8.51
359.007	8.28
359.217	8.14
359.426	8.16
359.635	8.04
359.845	8.04
360.054	8.25
360.263	8.4
360.472	8.52
360.682	8.54
360.891	8.71
361.1	8.64
361.309	8.89
361.519	9
361.728	9.15
361.937	9.28
362.146	9.23
362.355	9.12
362.564	9.28
362.774	9.08
362.983	8.93
363.192	8.8
363.401	8.62
363.61	8.4
363.819	8.45
364.028	8.31
364.237	8.16
364.446	8.15
364.655	7.92
364.864	7.78
365.073	7.77
365.282	7.55
365.491	7.44
365.7	7.46
365.909	7.55
366.118	7.4
366.327	7.42
366.536	7.53
366.745	7.5
366.954	7.65
367.162	7.74
367.371	7.52
367.58	7.61
367.789	7.43
367.998	7.52
368.207	7.61
368.415	7.62
368.624	7.42
368.833	7.4
369.042	7.37
369.25	7.46
369.459	7.42
369.668	7.48
369.877	7.52
370.085	7.78
370.294	7.61
370.503	7.45
370.711	7.52
370.92	7.69
371.129	7.64
371.337	7.75
371.546	7.51
371.754	7.47
371.963	7.44
372.171	7.54
372.38	7.46
372.589	7.45
372.797	7.42
373.006	7.31
373.214	7.26
373.423	7.34
373.631	7.25
373.84	7.45
374.048	7.35
374.256	7.56
374.465	7.59
374.673	7.67
374.882	7.58
375.09	7.54
375.298	7.33
375.507	7.4
375.715	7.32
375.923	7.14
376.132	7.07
376.34	7.01
376.548	7.22
376.757	7.3
376.965	7.19
377.173	7.28
377.381	7.11
377.59	7.3
377.798	7.05
378.006	6.87
378.214	6.76
378.423	6.65
378.631	6.61
378.839	6.67
379.047	6.33
379.255	6.28
379.463	6.19
379.671	6.43
379.879	6.27
380.088	6.45
380.296	6.63
380.504	6.79
380.712	6.67
380.92	6.65
381.128	6.09
381.336	6.19
381.544	6.1
381.752	6.13
381.96	6.08
382.168	6.07
382.376	6.15
382.584	6.11
382.791	6.17
382.999	6.38
383.207	6.45
383.415	6.65
383.623	6.6
383.831	6.59
384.039	6.77
384.247	6.59
384.454	6.72
384.662	6.54
384.87	6.52
385.078	6.44
385.285	6.36
385.493	6.38
385.701	6.37
385.909	6.42
386.116	6.59
386.324	6.48
386.532	6.51
386.739	6.44
386.947	6.54
387.155	6.6
387.362	6.57
387.57	6.71
387.778	6.86
387.985	6.98
388.193	7.06
388.4	7.13
388.608	7.08
388.816	7.21
389.023	7.21
389.231	6.93
389.438	6.82
389.646	6.82
389.853	6.68
390.061	6.51
390.268	6.44
390.475	6.47
390.683	6.37
390.89	6.4
391.098	6.16
391.305	5.93
391.512	6.06
391.72	6.14
391.927	6.09
392.135	6.19
392.342	6.18
392.549	5.95
392.756	5.82
392.964	5.64
393.171	5.55
393.378	5.72
393.586	5.92
393.793	5.86
394	5.82
394.207	5.86
394.414	5.66
394.622	5.57
394.829	5.61
395.036	5.36
395.243	5.39
395.45	5.39
395.657	5.41
395.864	5.27
396.072	5.39
396.279	5.11
396.486	4.94
396.693	4.96
396.9	5.02
397.107	5.18
397.314	5.61
397.521	5.81
397.728	5.73
397.935	5.8
398.142	5.94
398.349	5.8
398.556	5.99
398.763	6.15
398.97	6.28
399.177	6.35
399.383	6.11
399.59	5.79
399.797	5.5
400.004	5.65
400.211	5.41
400.418	5.4
400.625	5.59
400.831	5.42
401.038	5.03
401.245	4.75
401.452	4.69
401.658	4.95
401.865	4.84
402.072	4.99
402.279	4.91
402.485	4.83
402.692	4.73
402.899	4.79
403.105	4.95
403.312	5.38
403.519	5.53
403.725	5.5
403.932	5.21
404.138	5.43
404.345	5.42
404.552	5.52
404.758	5.75
404.965	5.95
405.171	5.76
405.378	5.66
405.584	5.66
405.791	5.58
405.997	5.61
406.204	5.81
406.41	5.8
406.617	5.9
406.823	5.68
407.029	5.66
407.236	5.6
407.442	5.66
407.649	5.63
407.855	5.75
408.061	5.95
408.268	5.8
408.474	5.82
408.68	5.67
408.887	5.7
409.093	5.82
409.299	5.63
409.505	5.52
409.712	5.3
409.918	5.43
410.124	5.11
410.33	5.14
410.537	5.15
410.743	5.1
410.949	5.16
411.155	5.01
411.361	5
411.567	5.2
411.773	5.22
411.98	5.32
412.186	5.05
412.392	5.11
412.598	4.79
412.804	4.89
413.01	4.96
413.216	4.85
413.422	4.89
413.628	4.91
413.834	4.71
414.04	4.75
414.246	4.93
414.452	4.99
414.658	5.04
414.864	5.07
415.07	5.02
415.275	4.92
415.481	5.04
415.687	5.04
415.893	5.02
416.099	4.98
416.305	4.89
416.511	4.77
416.716	4.8
416.922	4.67
417.128	4.76
417.334	4.78
417.539	4.65
417.745	4.52
417.951	4.46
418.157	4.42
418.362	4.48
418.568	4.48
418.774	4.47
418.979	4.43
419.185	4.5
419.391	4.42
419.596	4.39
419.802	4.43
420.008	4.49
420.213	5.18
420.419	5.22
420.624	5.26
420.83	5.28
421.035	5.2
421.241	5.22
421.446	5.12
421.652	5.16
421.857	5.2
422.063	5.22
422.268	5.17
422.474	4.48
422.679	4.42
422.885	4.37
423.09	4.36
423.295	4.41
423.501	4.45
423.706	4.52
423.911	4.49
424.117	4.43
424.322	4.46
424.527	4.54
424.733	4.58
424.938	4.59
425.143	4.6
425.349	4.58
425.554	4.52
425.759	4.42
425.964	4.39
426.169	4.35
426.375	4.39
426.58	4.36
426.785	4.35
426.99	4.19
427.195	4.14
427.4	4.18
427.605	4.24
427.811	4.24
428.016	4.26
428.221	4.3
428.426	4.41
428.631	4.3
428.836	4.35
429.041	4.31
429.246	4.43
429.451	4.41
429.656	4.42
429.861	4.32
430.066	4.35
430.271	4.46
430.476	4.45
430.681	4.3
430.886	4.43
431.09	4.35
431.295	4.21
431.5	4.22
431.705	4.2
431.91	4.11
432.115	4.16
432.32	4.16
432.524	4.1
432.729	4.02
432.934	4.03
433.139	4.04
433.343	4.04
433.548	4.16
433.753	4.16
433.958	4.26
434.162	4.27
434.367	4.28
434.572	4.31
434.776	4.26
434.981	4.42
435.186	4.58
435.39	4.42
435.595	4.5
435.799	4.63
436.004	4.57
436.209	4.52
436.413	4.47
436.618	4.48
436.822	4.5
437.027	4.56
437.231	4.53
437.436	4.46
437.64	4.57
437.845	4.55
438.049	4.39
438.253	4.34
438.458	4.36
438.662	4.4
438.867	4.41
439.071	4.35
439.275	4.32
439.48	4.31
439.684	4.28
439.888	4.2
440.093	4.17
440.297	4.18
440.501	4.25
440.706	4.24
440.91	4.23
441.114	4.22
441.318	4.22
441.523	4.14
441.727	4.11
441.931	4.1
442.135	4.13
442.339	4.11
442.543	4.15
442.748	4.15
442.952	4.16
443.156	4.11
443.36	4.09
443.564	4.18
443.768	4.21
443.972	4.2
444.176	4.22
444.38	4.21
444.584	4.24
444.788	4.18
444.992	4.17
445.196	4.2
445.4	4.26
445.604	4.27
445.808	4.26
446.012	4.27
446.216	4.26
446.42	4.23
446.624	4.24
446.828	4.21
447.032	4.25
447.235	4.23
447.439	4.15
447.643	4.05
447.847	4.07
448.051	3.99
448.254	4
448.458	3.97
448.662	3.94
448.866	3.91
449.069	3.9
449.273	3.9
449.477	3.94
449.681	3.96
449.884	4.1
450.088	3.97
450.292	3.94
450.495	3.95
450.699	4.04
450.902	4.07
451.106	4.04
451.31	4.03
451.513	3.99
451.717	3.93
451.92	3.92
452.124	3.92
452.327	3.85
452.531	3.94
452.734	3.89
452.938	3.84
453.141	3.81
453.345	3.89
453.548	3.86
453.752	3.92
453.955	3.99
454.158	3.97
454.362	3.83
454.565	3.95
454.769	3.89
454.972	3.9
455.175	3.88
455.379	3.82
455.582	3.79
455.785	3.81
455.988	3.86
456.192	3.85
456.395	3.82
456.598	3.91
456.801	4.02
457.005	4.01
457.208	3.95
457.411	3.9
457.614	3.98
457.817	3.93
458.021	3.9
458.224	3.82
458.427	3.83
458.63	3.87
458.833	3.85
459.036	3.79
459.239	3.84
459.442	3.93
459.645	4
459.848	4.08
460.051	4.14
460.254	4.19
460.457	4.3
460.66	4.3
460.863	4.25
461.066	4.3
461.269	4.29
461.472	4.32
461.675	4.33
461.878	4.35
462.081	4.3
462.284	4.29
462.486	4.26
462.689	4.25
462.892	4.23
463.095	4.28
463.298	4.37
463.5	4.34
463.703	4.27
463.906	4.16
464.109	4.12
464.311	4.1
464.514	4.25
464.717	4.28
464.92	4.22
465.122	4.21
465.325	4.29
465.528	4.25
465.73	4.25
465.933	4.27
466.135	4.29
466.338	4.27
466.541	4.13
466.743	4.04
466.946	4.11
467.148	4.15
467.351	4.27
467.553	4.25
467.756	4.18
467.958	4.35
468.161	4.34
468.363	4.37
468.566	4.4
468.768	4.62
468.971	4.64
469.173	4.6
469.375	4.63
469.578	4.63
469.78	4.65
469.983	4.63
470.185	4.52
470.387	4.54
470.59	4.62
470.792	4.59
470.994	4.54
471.196	4.49
471.399	4.41
471.601	4.32
471.803	4.23
472.005	4.21
472.208	4.2
472.41	4.14
472.612	4.2
472.814	4.25
473.016	4.32
473.218	4.06
473.421	4.08
473.623	4.01
473.825	4
474.027	4.01
474.229	4.03
474.431	4.07
474.633	4.13
474.835	4.12
475.037	4.07
475.239	4.06
475.441	4.18
475.643	4.25
475.845	4.28
476.047	4.3
476.249	4.29
476.451	4.22
476.653	4.24
476.855	4.2
477.057	4.1
477.258	4.08
477.46	4.08
477.662	4.12
477.864	4.08
478.066	4.17
478.268	4.15
478.469	4.15
478.671	4.15
478.873	4.19
479.075	4.26
479.276	4.3
479.478	4.31
479.68	4.3
479.882	4.29
480.083	4.25
480.285	4.17
480.487	4.15
480.688	4.17
480.89	4.08
481.091	4.08
481.293	4.09
481.495	4.06
481.696	4
481.898	3.99
482.099	4
482.301	3.99
482.502	4
482.704	3.99
482.905	3.99
483.107	4.03
483.308	3.98
483.51	3.98
483.711	4
483.913	4.04
484.114	4.04
484.315	4.04
484.517	4.05
484.718	4.07
484.92	4.06
485.121	4.05
485.322	4.04
485.524	4.04
485.725	3.99
485.926	3.97
486.127	3.95
486.329	3.96
486.53	3.95
486.731	3.93
486.932	3.93
487.134	3.96
487.335	3.96
487.536	3.98
487.737	4.01
487.938	4.07
488.139	4.1
488.341	4.12
488.542	4.13
488.743	4.18
488.944	4.21
489.145	4.22
489.346	4.24
489.547	4.25
489.748	4.22
489.949	4.2
490.15	4.16
490.351	4.15
490.552	4.11
490.753	4.11
490.954	4.12
491.155	4.11
491.356	4.11
491.557	4.13
491.758	4.15
491.959	4.22
492.159	4.27
492.36	4.29
492.561	4.28
492.762	4.4
492.963	4.53
493.164	4.54
493.364	4.59
493.565	4.62
493.766	4.56
493.967	4.53
494.167	4.52
494.368	4.45
494.569	4.47
494.769	4.49
494.97	4.41
495.171	4.33
495.371	4.27
495.572	4.28
495.773	4.31
495.973	4.24
496.174	4.3
496.375	4.36
496.575	4.34
496.776	4.35
496.976	4.42
497.177	4.47
497.377	4.43
497.578	4.52
497.778	4.46
497.979	4.47
498.179	4.58
498.38	4.53
498.58	4.45
498.78	4.53
498.981	4.51
499.181	4.43
499.382	4.43
499.582	4.33
499.782	4.27
499.983	4.39
500.183	4.39
500.383	4.41
500.584	4.45
500.784	4.5
500.984	4.51
501.184	4.54
501.385	4.64
501.585	4.69
501.785	4.82
501.985	4.79
502.185	4.71
502.386	4.69
502.586	4.67
502.786	4.7
502.986	4.68
503.186	4.71
503.386	4.79
503.586	4.85
503.786	4.85
503.987	4.87
504.187	4.9
504.387	5
504.587	5.08
504.787	5.11
504.987	5.1
505.187	5.2
505.387	5.25
505.587	5.29
505.786	5.19
505.986	5.1
506.186	5.16
506.386	5.26
506.586	5.27
506.786	5.26
506.986	5.29
507.186	5.29
507.386	5.26
507.585	5.24
507.785	5.23
507.985	5.29
508.185	5.36
508.384	5.36
508.584	5.37
508.784	5.35
508.984	5.35
509.183	5.33
509.383	5.28
509.583	5.26
509.782	5.37
509.982	5.35
510.182	5.36
510.381	5.38
510.581	5.33
510.781	5.36
510.98	5.39
511.18	5.44
511.379	5.43
511.579	5.57
511.778	5.58
511.978	5.47
512.177	5.45
512.377	5.5
512.576	5.59
512.776	5.64
512.975	5.64
513.175	5.62
513.374	5.62
513.573	5.72
513.773	5.68
513.972	5.67
514.172	5.73
514.371	5.81
514.57	5.74
514.77	5.68
514.969	5.73
515.168	5.7
515.367	5.76
515.567	5.73
515.766	5.76
515.965	5.81
516.164	5.89
516.364	5.92
516.563	5.88
516.762	6.01
516.961	6
517.16	6.03
517.359	6.13
517.559	6.16
517.758	6.23
517.957	6.25
518.156	6.21
518.355	6.23
518.554	6.33
518.753	6.41
518.952	6.38
519.151	6.47
519.35	6.5
519.549	6.41
519.748	6.37
519.947	6.37
520.146	6.3
520.345	6.41
520.544	6.41
520.743	6.32
520.942	6.29
521.141	6.25
521.339	6.25
521.538	6.2
521.737	6.23
521.936	6.28
522.135	6.29
522.333	6.4
522.532	6.36
522.731	6.41
522.93	6.46
523.129	6.52
523.327	6.56
523.526	6.58
523.725	6.63
523.923	6.65
524.122	6.66
524.321	6.69
524.519	6.67
524.718	6.7
524.917	6.66
525.115	6.68
525.314	6.66
525.512	6.69
525.711	6.74
525.909	6.78
526.108	6.78
526.306	6.82
526.505	6.85
526.703	6.85
526.902	6.88
527.1	6.91
527.299	6.9
527.497	6.89
527.696	6.88
527.894	6.86
528.092	6.84
528.291	6.87
528.489	6.87
528.688	6.86
528.886	6.89
529.084	6.87
529.283	6.85
529.481	6.83
529.679	6.89
529.877	6.95
530.076	6.99
530.274	7.03
530.472	7.02
530.67	7.04
530.869	7.05
531.067	7.06
531.265	7.11
531.463	7.17
531.661	7.24
531.859	7.25
532.057	7.26
532.255	7.25
532.454	7.23
532.652	7.27
532.85	7.24
533.048	7.28
533.246	7.34
533.444	7.35
533.642	7.37
533.84	7.38
534.038	7.42
534.236	7.39
534.434	7.44
534.632	7.47
534.83	7.52
535.027	7.59
535.225	7.62
535.423	7.64
535.621	7.69
535.819	7.71
536.017	7.72
536.215	7.68
536.412	7.78
536.61	7.78
536.808	7.85
537.006	7.86
537.203	7.87
537.401	7.88
537.599	7.93
537.797	7.91
537.994	7.92
538.192	7.95
538.39	8.06
538.587	8.11
538.785	8.12
538.983	8.15
539.18	8.2
539.378	8.2
539.575	8.16
539.773	8.13
539.97	8.14
540.168	8.22
540.366	8.25
540.563	8.25
540.761	8.22
540.958	8.24
541.155	8.26
541.353	8.25
541.55	8.29
541.748	8.35
541.945	8.33
542.143	8.38
542.34	8.34
542.537	8.41
542.735	8.44
542.932	8.49
543.129	8.56
543.327	8.57
543.524	8.63
543.721	8.68
543.919	8.71
544.116	8.86
544.313	8.88
544.51	8.93
544.708	8.92
544.905	8.98
545.102	9.06
545.299	9.08
545.496	9.09
545.693	9.12
545.891	9.16
546.088	9.22
546.285	9.22
546.482	9.29
546.679	9.35
546.876	9.37
547.073	9.38
547.27	9.37
547.467	9.42
547.664	9.48
547.861	9.53
548.058	9.61
548.255	9.64
548.452	9.67
548.649	9.76
548.846	9.74
549.043	9.86
549.24	9.99
549.437	10.01
549.633	10.05
549.83	10.08
550.027	10.13
550.224	10.11
550.421	10.1
550.618	10.24
550.814	10.3
551.011	10.39
551.208	10.34
551.405	10.25
551.601	10.28
551.798	10.36
551.995	10.5
552.191	10.48
552.388	10.6
552.585	10.73
552.781	10.72
552.978	10.72
553.175	10.83
553.371	10.88
553.568	10.98
553.764	11.12
553.961	11.15
554.157	11.15
554.354	11.22
554.55	11.28
554.747	11.31
554.943	11.29
555.14	11.35
555.336	11.31
555.533	11.49
555.729	11.57
555.926	11.7
556.122	11.74
556.318	11.71
556.515	11.76
556.711	11.73
556.907	11.67
557.104	11.83
557.3	11.95
557.496	12.1
557.693	12.01
557.889	12.15
558.085	12.05
558.281	12.11
558.478	12.36
558.674	12.49
558.87	12.62
559.066	12.75
559.262	12.76
559.459	12.63
559.655	12.68
559.851	12.92
560.047	12.84
560.243	12.9
560.439	13.07
560.635	13
560.831	13.07
561.027	13.16
561.223	13.22
561.419	13.29
561.615	13.4
561.811	13.45
562.007	13.46
562.203	13.58
562.399	13.77
562.595	13.71
562.791	13.82
562.987	13.9
563.183	13.91
563.379	13.97
563.575	14.12
563.771	14.29
563.966	14.26
564.162	14.22
564.358	14.26
564.554	14.29
564.75	14.32
564.945	14.43
565.141	14.42
565.337	14.44
565.533	14.45
565.728	14.46
565.924	14.51
566.12	14.62
566.315	14.71
566.511	14.84
566.707	14.83
566.902	15.02
567.098	15.04
567.293	15.06
567.489	15.2
567.684	15.39
567.88	15.44
568.076	15.51
568.271	15.54
568.467	15.68
568.662	15.65
568.858	15.67
569.053	15.67
569.248	15.72
569.444	15.93
569.639	15.95
569.835	15.97
570.03	15.99
570.225	16
570.421	16.07
570.616	16.1
570.812	16.24
571.007	16.3
571.202	16.3
571.397	16.36
571.593	16.34
571.788	16.48
571.983	16.56
572.178	16.74
572.374	16.87
572.569	16.85
572.764	16.83
572.959	16.83
573.154	17.06
573.35	17.11
573.545	17.12
573.74	17.17
573.935	17.12
574.13	17.18
574.325	17.17
574.52	17.12
574.715	17.24
574.91	17.41
575.105	17.44
575.3	17.45
575.495	17.47
575.69	17.6
575.885	17.79
576.08	17.98
576.275	17.99
576.47	18.06
576.665	18.1
576.86	18.08
577.055	18.02
577.25	18.14
577.444	18.16
577.639	18.39
577.834	18.39
578.029	18.26
578.224	18.25
578.418	18.16
578.613	18.22
578.808	18.36
579.003	18.56
579.197	18.69
579.392	18.82
579.587	18.87
579.781	18.76
579.976	18.8
580.171	18.93
580.365	18.99
580.56	19.14
580.755	19.12
580.949	19.21
581.144	19.15
581.338	19.24
581.533	19.18
581.727	19.25
581.922	19.46
582.116	19.45
582.311	19.4
582.505	19.53
582.7	19.62
582.894	19.77
583.089	19.59
583.283	19.63
583.478	19.62
583.672	19.8
583.866	19.83
584.061	19.73
584.255	19.87
584.449	20.02
584.644	19.96
584.838	19.97
585.032	19.84
585.226	20
585.421	20.07
585.615	20.06
585.809	19.92
586.003	19.97
586.198	20.08
586.392	20.15
586.586	20.13
586.78	20.15
586.974	20.17
587.168	20.18
587.363	20.18
587.557	20.24
587.751	20.4
587.945	20.46
588.139	20.48
588.333	20.54
588.527	20.51
588.721	20.53
588.915	20.56
589.109	20.74
589.303	20.9
589.497	20.95
589.691	20.98
589.885	20.95
590.079	20.98
590.273	20.99
590.466	20.92
590.66	20.91
590.854	20.92
591.048	20.92
591.242	20.8
591.436	20.68
591.629	20.8
591.823	20.86
592.017	20.76
592.211	20.84
592.404	20.98
592.598	21.2
592.792	21.36
592.986	21.5
593.179	21.51
593.373	21.66
593.567	21.87
593.76	21.89
593.954	21.81
594.147	21.88
594.341	21.97
594.535	22.02
594.728	21.96
594.922	21.97
595.115	22.08
595.309	22.16
595.502	22.06
595.696	21.99
595.889	21.98
596.083	21.96
596.276	21.91
596.47	21.82
596.663	21.74
596.856	21.76
597.05	21.77
597.243	21.65
597.437	21.64
597.63	21.68
597.823	21.73
598.017	21.81
598.21	21.99
598.403	22.23
598.596	22.32
598.79	22.32
598.983	22.23
599.176	22.23
599.369	22.27
599.563	22.22
599.756	22.23
599.949	22.24
600.142	22.27
600.335	22.25
600.528	22.17
600.722	22.3
600.915	22.36
601.108	22.29
601.301	22.33
601.494	22.46
601.687	22.39
601.88	22.35
602.073	22.46
602.266	22.39
602.459	22.43
602.652	22.37
602.845	22.26
603.038	22.32
603.231	22.5
603.424	22.35
603.617	22.18
603.809	22.25
604.002	22.31
604.195	22.15
604.388	22.22
604.581	22.2
604.774	22.22
604.966	22.22
605.159	22.18
605.352	22.18
605.545	22.34
605.737	22.49
605.93	22.7
606.123	22.7
606.316	22.74
606.508	22.88
606.701	22.83
606.894	23
607.086	23.23
607.279	23.18
607.471	23.12
607.664	23
607.857	23.01
608.049	22.93
608.242	23.01
608.434	23.08
608.627	22.97
608.819	23.02
609.012	22.89
609.204	22.74
609.397	22.82
609.589	22.83
609.782	22.89
609.974	22.86
610.166	22.83
610.359	22.87
610.551	23.03
610.743	23.05
610.936	23.22
611.128	23.53
611.32	23.55
611.513	23.57
611.705	23.65
611.897	23.6
612.09	23.76
612.282	23.64
612.474	23.76
612.666	23.68
612.858	23.68
613.051	23.56
613.243	23.28
613.435	23.24
613.627	23.1
613.819	23.13
614.011	23.3
614.203	23.14
614.395	23.27
614.588	23.19
614.78	23.31
614.972	23.26
615.164	23.19
615.356	23.29
615.548	23.36
615.74	23.44
615.932	23.37
616.124	23.24
616.315	23.28
616.507	23.15
616.699	23.25
616.891	22.99
617.083	23.12
617.275	23.31
617.467	23.43
617.659	23.71
617.85	23.84
618.042	23.74
618.234	23.97
618.426	24.04
618.618	24.23
618.809	24.07
619.001	24.2
619.193	23.99
619.384	23.76
619.576	23.72
619.768	23.63
619.959	23.45
620.151	23.6
620.343	23.43
620.534	23.47
620.726	23.57
620.917	23.55
621.109	23.37
621.301	23.54
621.492	23.67
621.684	23.72
621.875	23.65
622.067	23.83
622.258	23.69
622.45	23.8
622.641	23.87
622.832	23.78
623.024	23.68
623.215	23.87
623.407	23.77
623.598	23.83
623.789	23.76
623.981	23.78
624.172	23.84
624.363	23.9
624.555	23.93
624.746	23.85
624.937	23.75
625.129	23.86
625.32	23.84
625.511	23.81
625.702	23.98
625.893	24.07
626.085	23.97
626.276	23.92
626.467	23.99
626.658	24.16
626.849	24.18
627.04	24.31
627.231	24.44
627.422	24.55
627.614	24.54
627.805	24.37
627.996	24.43
628.187	24.56
628.378	24.6
628.569	24.63
628.76	24.47
628.951	24.38
629.142	24.5
629.332	24.45
629.523	24.42
629.714	24.77
629.905	24.85
630.096	24.75
630.287	24.73
630.478	24.74
630.669	24.69
630.859	24.78
631.05	24.96
631.241	24.95
631.432	24.8
631.623	24.8
631.813	24.62
632.004	24.62
632.195	24.49
632.385	24.41
632.576	24.46
632.767	24.58
632.957	24.55
633.148	24.55
633.339	24.44
633.529	24.56
633.72	24.58
633.91	24.59
634.101	24.65
634.292	24.75
634.482	24.78
634.673	24.73
634.863	24.81
635.054	24.71
635.244	24.6
635.435	24.67
635.625	24.73
635.815	24.65
636.006	24.63
636.196	24.38
636.387	24.5
636.577	24.57
636.767	24.56
636.958	24.6
637.148	24.73
637.338	24.72
637.529	24.8
637.719	24.82
637.909	24.97
638.099	25.19
638.29	25.45
638.48	25.45
638.67	25.42
638.86	25.68
639.05	25.56
639.241	25.64
639.431	25.8
639.621	25.7
639.811	25.53
640.001	25.63
640.191	25.47
640.381	25.44
640.571	25.4
640.761	25.52
640.951	25.3
641.141	25.29
641.331	25.18
641.521	25.14
641.711	25.28
641.901	25.46
642.091	25.31
642.281	25.36
642.471	25.41
642.661	25.3
642.851	25.23
643.041	25.19
643.231	25.17
643.42	25.05
643.61	24.88
643.8	24.89
643.99	24.96
644.18	24.9
644.369	24.78
644.559	24.69
644.749	24.53
644.939	24.6
645.128	24.62
645.318	24.56
645.508	24.45
645.697	24.7
645.887	24.4
646.076	24.32
646.266	24.42
646.456	24.71
646.645	24.79
646.835	25.22
647.024	25.08
647.214	25
647.403	25.09
647.593	25.35
647.782	25.44
647.972	25.64
648.161	25.54
648.351	25.53
648.54	25.34
648.73	25.29
648.919	25.02
649.108	24.96
649.298	25.11
649.487	24.88
649.677	24.87
649.866	24.72
650.055	24.75
650.244	24.93
650.434	24.86
650.623	24.88
650.812	24.77
651.002	24.86
651.191	25.31
651.38	25.05
651.569	25.45
651.758	25.4
651.947	25.5
652.137	25.54
652.326	25.42
652.515	25.64
652.704	25.63
652.893	25.79
653.082	25.8
653.271	25.45
653.46	25.67
653.649	25.49
653.838	25.73
654.027	25.64
654.216	25.49
654.405	25.61
654.594	25.49
654.783	25.57
654.972	25.59
655.161	25.55
655.35	25.59
655.539	25.81
655.728	25.92
655.916	25.92
656.105	25.93
656.294	26.05
656.483	26.03
656.672	26.05
656.86	26.11
657.049	26.16
657.238	26.2
657.427	26.21
657.615	26.13
657.804	25.99
657.993	25.84
658.181	25.87
658.37	25.84
658.559	25.84
658.747	25.89
658.936	25.85
659.125	25.97
659.313	26.06
659.502	26.01
659.69	25.86
659.879	26.1
660.067	26.1
660.256	26.17
660.444	26.25
660.633	26.18
660.821	26.07
661.01	26.17
661.198	26.29
661.387	26.2
661.575	26.14
661.763	26.15
661.952	25.95
662.14	25.93
662.328	25.7
662.517	25.63
662.705	25.78
662.893	25.68
663.082	25.63
663.27	25.14
663.458	25.02
663.646	25.34
663.834	25.51
664.023	25.62
664.211	25.84
664.399	26.16
664.587	26.23
664.775	26.17
664.963	26.35
665.152	26.44
665.34	26.67
665.528	26.72
665.716	26.61
665.904	26.53
666.092	26.54
666.28	26.37
666.468	26.16
666.656	26.09
666.844	26.05
667.032	26.09
667.22	25.86
667.408	26.07
667.596	26.18
667.784	26.13
667.971	26.12
668.159	26.01
668.347	26.09
668.535	26.3
668.723	26.21
668.911	26.22
669.098	26.28
669.286	26.33
669.474	25.88
669.662	25.77
669.849	25.83
670.037	25.84
670.225	25.93
670.413	25.99
670.6	26.02
670.788	26.12
670.976	26.27
671.163	26.14
671.351	26.47
671.538	26.58
671.726	26.78
671.913	26.57
672.101	26.61
672.289	26.66
672.476	26.82
672.664	26.45
672.851	26.37
673.039	26.32
673.226	26.17
673.413	25.99
673.601	26.01
673.788	26.07
673.976	26.39
674.163	26.72
674.35	26.53
674.538	26.28
674.725	26.39
674.912	26.62
675.1	26.63
675.287	27.09
675.474	27.02
675.662	27.23
675.849	27.08
676.036	27.23
676.223	26.84
676.411	27.04
676.598	26.89
676.785	26.98
676.972	26.77
677.159	26.74
677.346	26.49
677.533	26.34
677.721	26.28
677.908	26.36
678.095	26.35
678.282	26.29
678.469	26.37
678.656	26.54
678.843	26.72
679.03	26.79
679.217	26.9
679.404	27.06
679.591	26.96
679.778	26.72
679.964	26.55
680.151	26.4
680.338	26.38
680.525	26.3
680.712	26.28
680.899	26.27
681.086	26.34
681.272	26.12
681.459	26.04
681.646	26.33
681.833	26.69
682.02	26.99
682.206	27.06
682.393	27.15
682.58	27.04
682.766	27.11
682.953	26.82
683.14	26.63
683.326	26.79
683.513	26.95
683.7	27.14
683.886	26.79
684.073	26.47
684.259	26.51
684.446	26.63
684.632	26.83
684.819	26.78
685.005	27.03
685.192	27.25
685.378	27.16
685.565	26.72
685.751	26.55
685.938	26.86
686.124	27.44
686.31	27.15
686.497	27.24
686.683	27.32
686.87	27.35
687.056	27.22
687.242	27.33
687.429	27.47
687.615	27.82
687.801	27.8
687.987	27.56
688.174	27.09
688.36	27.35
688.546	27.12
688.732	26.97
688.918	27.01
689.105	26.98
689.291	26.82
689.477	26.87
689.663	26.66
689.849	26.58
690.035	26.81
690.221	26.83
690.407	26.95
690.593	26.83
690.779	26.88
690.965	26.99
691.151	27.04
691.337	27.27
691.523	27.22
691.709	27.55
691.895	27.48
692.081	27.37
692.267	27.57
692.453	27.25
692.639	27.68
692.825	27.68
693.011	27.27
693.196	27.17
693.382	26.89
693.568	27.05
693.754	26.82
693.94	27.03
694.125	26.97
694.311	26.57
694.497	26.88
694.682	26.9
694.868	26.78
695.054	27.12
695.239	27.41
695.425	27.43
695.611	27.25
695.796	27.21
695.982	27.03
696.168	27.06
696.353	27.33
696.539	27.04
696.724	26.8
696.91	26.82
697.095	26.67
697.281	26.49
697.466	26.61
697.652	26.51
697.837	26.52
698.023	26.64
698.208	26.62
698.393	26.39
698.579	26.46
698.764	26.51
698.949	26.47
699.135	26.62
699.32	26.56
699.505	26.67
699.691	26.73
699.876	26.71
700.061	26.57
700.246	26.69
700.432	26.87
700.617	26.92
700.802	27.03
700.987	27.21
701.172	27.23
701.358	27.26
701.543	26.81
701.728	26.87
701.913	27
702.098	27.2
702.283	27.32
702.468	27.34
702.653	27.45
702.838	27.2
703.023	27
703.208	26.71
703.393	26.93
703.578	27.13
703.763	27.17
703.948	27.11
704.133	27
704.318	26.78
704.503	27.06
704.688	26.89
704.873	26.89
705.057	26.95
705.242	26.96
705.427	26.82
705.612	26.85
705.797	26.9
705.981	26.94
706.166	27.37
706.351	27.62
706.536	27.67
706.72	27.81
706.905	27.85
707.09	27.82
707.274	27.78
707.459	27.58
707.644	27.47
707.828	27.55
708.013	27.39
708.197	27.34
708.382	27.44
708.567	27.34
708.751	26.91
708.936	26.87
709.12	26.76
709.305	26.69
709.489	26.87
709.673	27
709.858	26.75
710.042	26.77
710.227	26.38
710.411	26.19
710.596	26.13
710.78	26.42
710.964	26.51
711.149	26.67
711.333	26.91
711.517	27.14
711.702	26.93
711.886	27.17
712.07	27.19
712.254	27.31
712.438	27.05
712.623	27.08
712.807	27.27
712.991	27.3
713.175	27.28
713.359	27.4
713.544	27.5
713.728	27.57
713.912	27.32
714.096	27.36
714.28	27.33
714.464	27.54
714.648	27.44
714.832	27.17
715.016	27.14
715.2	27.21
715.384	27.35
715.568	27.19
715.752	27.32
715.936	27.28
716.12	27.3
716.304	27.49
716.488	27.52
716.671	27.46
716.855	27.37
717.039	27.34
717.223	26.87
717.407	26.66
717.59	26.94
717.774	26.98
717.958	27.1
718.142	26.8
718.325	26.73
718.509	26.78
718.693	27.05
718.877	26.92
719.06	27.13
719.244	27.34
719.428	27.23
719.611	26.83
719.795	26.7
719.978	27.06
720.162	27.42
720.345	27.19
720.529	27.05
720.713	27.15
720.896	27.97
721.08	27.94
721.263	28.25
721.446	28.75
721.63	29.11
721.813	28.87
721.997	28.96
722.18	29.09
722.364	29.03
722.547	28.97
722.73	28.69
722.914	27.95
723.097	27.91
723.28	28.25
723.464	27.87
723.647	27.81
723.83	27.98
724.013	27.84
724.197	27.22
724.38	27.3
724.563	27.17
724.746	27.45
724.929	27.85
725.112	28.69
725.296	27.87
725.479	27.98
725.662	27.65
725.845	27.37
726.028	27.12
726.211	27.9
726.394	27.91
726.577	27.78
726.76	27.74
726.943	27.63
727.126	26.69
727.309	27.2
727.492	27.12
727.675	26.71
727.858	27.34
728.041	27.2
728.224	27.18
728.407	27.09
728.589	27.48
728.772	27.14
728.955	27.21
729.138	27.28
729.321	27.05
729.503	27.08
729.686	27.61
729.869	27.36
730.052	27.45
730.234	27.5
730.417	27.49
730.6	27.53
730.782	27.38
730.965	26.92
731.148	26.93
731.33	27.04
731.513	26.8
731.695	26.93
731.878	27
732.061	27.51
732.243	27.18
732.426	27.16
732.608	26.93
732.791	27.18
732.973	27.65
733.156	27.9
733.338	28.12
733.52	28.48
733.703	28.16
733.885	28.25
734.068	27.75
734.25	27.83
734.432	28.04
734.615	28.03
734.797	28.25
734.979	28.41
735.162	28.33
735.344	27.9
735.526	27.69
735.708	27.47
735.891	27.4
736.073	27.19
736.255	27.12
736.437	27.29
736.619	27.48
736.802	27.83
736.984	27.68
737.166	27.81
737.348	28.38
737.53	28.89
737.712	29.22
737.894	29.23
738.076	29.13
738.258	29.2
738.44	29.5
738.622	29.8
738.804	29.52
738.986	29.62
739.168	29.41
739.35	29.12
739.532	28.48
739.714	28.56
739.896	28.33
740.078	29.02
740.259	29.35
740.441	28.79
740.623	28.26
740.805	27.61
740.987	27.45
741.168	27.48
741.35	27.73
741.532	27.74
741.714	27.49
741.895	27.36
742.077	27.35
742.259	26.8
742.44	26.92
742.622	27.15
742.804	27.35
742.985	27.46
743.167	27.45
743.348	27.14
743.53	27.42
743.711	27.81
743.893	28.33
744.075	27.98
744.256	27.9
744.438	27.94
744.619	27.9
744.8	28.03
744.982	28.05
745.163	28.49
745.345	28.55
745.526	28.78
745.707	28.69
745.889	28.67
746.07	28.75
746.252	28.82
746.433	28.63
746.614	28.09
746.795	28.97
746.977	29.48
747.158	29.33
747.339	29.31
747.52	29.03
747.702	28.78
747.883	29.18
748.064	29.11
748.245	29.86
748.426	29.83
748.607	30.24
748.788	29.2
748.97	28.47
749.151	27.24
749.332	27.64
749.513	27.68
749.694	27.99
749.875	27.46
750.056	27.9
750.237	27.05
750.418	26.45
750.599	26.6
750.78	27.07
750.96	27.27
751.141	27.63
751.322	27.31
751.503	27.22
751.684	26.99
751.865	26.75
752.046	26.79
752.226	27.33
752.407	28.17
752.588	28.66
752.769	28.47
752.949	28.82
753.13	29.86
753.311	30.14
753.492	30.09
753.672	29.95
753.853	30.71
754.034	30.67
754.214	30.09
754.395	29.9
754.575	29.73
754.756	29.44
754.937	29.24
755.117	28.17
755.298	27.79
755.478	27.62
755.659	27.54
755.839	26.52
756.02	26.04
756.2	26.63
756.381	26.46
756.561	25.81
756.741	25.83
756.922	25.58
757.102	25.89
757.283	25.83
757.463	25.98
757.643	26.24
757.823	26.79
758.004	26.82
758.184	27.12
758.364	27.29
758.545	27.6
758.725	27.94
758.905	28.22
759.085	28.63
759.265	29.01
759.446	28.96
759.626	29.35
759.806	28.76
759.986	29.02
760.166	28.81
760.346	28.57
760.526	28.55
760.706	28.76
760.886	28.5
761.066	28.43
761.246	27.92
761.426	27.91
761.606	27.77
761.786	27.75
761.966	27.61
762.146	27.43
762.326	27.95
762.506	27.88
762.686	27.86
762.866	27.9
763.046	27.49
763.225	27.57
763.405	27.29
763.585	26.94
763.765	27.27
763.945	27.38
764.124	27.25
764.304	27.37
764.484	27.46
764.664	27.07
764.843	27.03
765.023	26.53
765.203	26.55
765.382	27.14
765.562	27.51
765.741	27.77
765.921	27.8
766.101	28.13
766.28	27.38
766.46	27.54
766.639	27.84
766.819	27.91
766.998	29.07
767.178	29.45
767.357	29.16
767.537	29.47
767.716	29.16
767.896	28.72
768.075	28.12
768.254	28.06
768.434	27.93
768.613	27.36
768.792	26.56
768.972	26.56
769.151	26.75
769.33	26.84
769.51	26.54
769.689	25.97
769.868	27.16
770.047	27.69
770.226	27.29
770.406	26.73
770.585	27.32
770.764	28.16
770.943	28.23
771.122	27.91
771.301	28.25
771.48	27.93
771.66	28.64
771.839	27.6
772.018	28.04
772.197	29.53
772.376	30.03
772.555	29.95
772.734	29.81
772.913	29.85
773.092	29.39
773.271	29.09
773.449	29.17
773.628	29.33
773.807	28.91
773.986	28.4
774.165	28.09
774.344	28.31
774.523	27.69
774.701	27.48
774.88	27.24
775.059	27.1
775.238	27.55
775.417	27.41
775.595	26.69
775.774	27.39
775.953	27.42
776.131	27.53
776.31	27.54
776.489	28.29
776.667	28.77
776.846	28.78
777.025	29.25
777.203	28.83
777.382	28.9
777.56	29.35
777.739	29.71
777.917	29.53
778.096	28.95
778.274	28.62
778.453	28.14
778.631	28.25
778.81	28.4
778.988	28.2
779.166	27.91
779.345	27.71
779.523	26.86
779.702	26.43
779.88	26.41
780.058	26.8
780.237	26.06
780.415	27.04
780.593	27.13
780.771	27.51
780.95	28.31
781.128	29.2
781.306	29.46
781.484	30.41
781.662	30.52
781.841	31.08
782.019	30.27
782.197	30.8
782.375	30.34
782.553	29.08
782.731	29.02
782.909	28.31
783.087	27.37
783.265	27.6
783.443	27.22
783.621	27.52
783.799	27.64
783.977	27.62
784.155	28.59
784.333	28.74
784.511	28.95
784.689	29.19
784.867	28.97
785.045	29.55
785.223	29.33
785.4	29.6
785.578	28.62
785.756	27.68
785.934	28.31
786.112	28.26
786.289	28.67
786.467	28.92
786.645	27.97
786.823	28.53
787	28.67
787.178	29.2
787.356	29.65
787.533	30.68
787.711	30.59
787.889	30.13
788.066	29.36
788.244	29.47
788.421	29.5
788.599	30.04
788.776	29.25
788.954	28.91
789.131	28.84
789.309	28.17
789.486	26.61
789.664	27.27
789.841	27.24
790.019	27.83
790.196	27.33
790.373	28.04
790.551	27.38
790.728	28.22
790.906	28.61
791.083	27.78
791.26	27.98
791.437	29.78
791.615	29.91
791.792	30.86
791.969	31.23
792.146	30.55
792.324	31.06
792.501	31.27
792.678	31.33
792.855	30.81
793.032	31.15
793.209	30.98
793.387	30.02
793.564	29.73
793.741	29.76
793.918	29.71
794.095	30.7
794.272	29.41
794.449	29.71
794.626	29.36
794.803	29.5
794.98	30.1
795.157	28.88
795.334	29.42
795.511	28.94
795.688	28.39
795.864	28.36
796.041	27.14
796.218	27.25
796.395	27.47
796.572	27.32
796.749	27.79
796.925	27.79
797.102	29.88
797.279	29.44
797.456	29.8
797.632	29.29
797.809	28.04
797.986	29.09
798.162	28.57
798.339	27.82
798.516	28.22
798.692	27.28
798.869	26.61
799.046	24.99
799.222	25.99
799.399	25.62
799.575	26.12
799.752	26.62
799.928	26.46
800.105	27.93
800.281	28.04
800.458	27.8
800.634	29.3
800.811	29.51
800.987	30.68
801.163	29.34
801.34	29.19
801.516	29.43
801.692	29.93
801.869	29.22
802.045	28.23
802.221	28.2
802.398	28.25
802.574	25.81
802.75	26.99
802.926	26.73
803.103	26.4
803.279	27.57
803.455	28.26
803.631	28.3
803.807	29.12
803.983	28.67
804.16	28.96
804.336	28.85
804.512	30.52
804.688	28.77
804.864	28.47
805.04	28.47
805.216	27.51
805.392	26.79
805.568	25.64
805.744	25.03
805.92	26.19
806.096	26.39
806.272	26.16
806.448	26.37
806.623	27.21
806.799	27.34
806.975	28.48
807.151	29.39
807.327	29.57
807.503	30.94
807.678	32.43
807.854	32.52
808.03	31.94
808.206	32.71
808.381	33.16
808.557	32.55
808.733	32.99
808.908	31.34
809.084	31.79
809.26	31.77
809.435	32.28
809.611	31.31
809.787	30.24
809.962	31.45
810.138	31.57
810.313	30.44
810.489	30.19
810.664	29.1
810.84	30.45
811.015	30.04
811.191	29.29
811.366	28.15
811.542	27.84
811.717	28.69
811.892	28.43
812.068	28.87
812.243	30.11
812.419	31.1
812.594	31.82
812.769	32.66
812.944	31.9
813.12	32.88
813.295	32.98
813.47	33.64
813.645	33.75
813.821	32.22
813.996	30.12
814.171	28.23
814.346	29.83
814.521	29.77
814.697	27.52
814.872	28.66
815.047	28.59
815.222	28.69
815.397	27.27
815.572	26.68
815.747	28.02
815.922	28.43
816.097	30.51
816.272	27.67
816.447	27.27
816.622	29.25
816.797	28.63
816.972	28.47
817.147	29.16
817.322	29.08
817.496	29.41
817.671	29.52
817.846	30.3
818.021	29.1
818.196	29.75
818.371	30.94
818.545	30.47
818.72	29.82
818.895	29.52
819.069	28.9
819.244	29.64
819.419	29.63
819.594	29.06
819.768	29.41
819.943	29.31
820.117	29.23
820.292	28.78
820.467	28.27
820.641	28.48
820.816	28.33
820.99	28.24
821.165	27.79
821.339	27.6
821.514	27.26
821.688	27.08
821.863	27.24
822.037	27.04
822.212	26.95
822.386	27.05
822.56	26.98
822.735	26.88
822.909	26.73
823.084	27.04
823.258	27.02
823.432	27.61
823.606	27.54
823.781	27.6
823.955	27.77
824.129	27.76
824.303	27.7
824.478	27.84
824.652	27.86
824.826	28.05
825	27.94
825.174	28.08
825.348	27.42
825.523	27.42
825.697	26.94
825.871	26.65
826.045	26.77
826.219	27.05
826.393	27.43
826.567	27.96
826.741	28.22
826.915	28.34
827.089	28.16
827.263	28.33
827.437	28.61
827.611	28.54
827.784	29
827.958	29.34
828.132	29.65
828.306	29.18
828.48	29.36
828.654	29.17
828.827	29.34
829.001	30.2
829.175	30.63
829.349	30.57
829.522	31.38
829.696	31.86
829.87	31.48
830.044	31.66
830.217	32.14
830.391	30.89
830.565	30.27
830.738	29.83
830.912	29.78
831.085	29.59
831.259	30.16
831.432	29.07
831.606	28.86
831.779	29.81
831.953	28.81
832.126	29.1
832.3	29.36
832.473	29.82
832.647	29.66
832.82	29.15
832.994	29.42
833.167	28.9
833.34	28.96
833.514	28.65
833.687	27.63
833.86	27.61
834.034	27.76
834.207	28
834.38	27.98
834.553	28.26
834.727	28.58
834.9	28.76
835.073	29.56
835.246	29.91
835.419	30.53
835.593	30.63
835.766	31.45
835.939	30.82
836.112	31.55
836.285	32.16
836.458	32.85
836.631	32.38
836.804	32.78
836.977	32.19
837.15	32.91
837.323	32.4
837.496	33.66
837.669	34.47
837.842	34.69
838.015	33.03
838.188	32.09
838.361	29.72
838.533	31.79
838.706	31.48
838.879	30.63
839.052	29.9
839.225	31.05
839.398	31.25
839.57	29.81
839.743	29.24
839.916	29.31
840.088	30.04
840.261	31.69
840.434	31.2
840.607	31.28
840.779	31.38
840.952	30.65
841.124	30.6
841.297	30.45
841.47	30.59
841.642	30.96
841.815	32.55
841.987	32.3
842.16	31.37
842.332	30.53
842.505	28.99
842.677	26.7
842.85	27.86
843.022	23.94
843.194	24.03
843.367	23.82
843.539	24.33
843.712	23.55
843.884	23.65
844.056	23.45
844.229	23.26
844.401	24.57
844.573	28.93
844.745	28.81
844.918	33.62
845.09	34.19
845.262	31.34
845.434	32.95
845.606	33.96
845.779	34.2
845.951	36.03
846.123	36.94
846.295	35.55
846.467	33.69
846.639	34.45
846.811	33.59
846.983	33
847.155	34.4
847.327	31.4
847.499	30.99
847.671	29.7
847.843	27.18
848.015	28.22
848.187	28.36
848.359	29.8
848.531	29.8
848.703	27.84
848.875	25.71
849.047	26.9
849.218	26.28
849.39	25.84
849.562	28.23
849.734	29.69
849.905	31.38
850.077	30.84
850.249	28.51
850.421	31.65
850.592	33.72
850.764	37.07
850.936	40.39
851.107	43.08
851.279	45.72
851.451	45.23
851.622	45.98
851.794	41.66
851.965	42.17
852.137	44.03
852.308	42.84
852.48	42.4
852.651	43.01
852.823	42.51
852.994	44.96
853.166	40.85
853.337	41.03
853.509	40.96
853.68	37.39
853.851	38.02
854.023	34.82
854.194	34.92
854.365	32.91
854.537	32.08
854.708	33.1
854.879	27.57
855.05	29.28
855.222	31.89
855.393	29.73
855.564	36.7
855.735	38.55
855.906	45.82
856.078	44.09
856.249	45.67
856.42	46.47
856.591	42.48
856.762	45.7
856.933	45.48
857.104	42.96
857.275	43.53
857.446	45.66
857.617	44.04
857.788	38.75
857.959	37.82
858.13	38.26
858.301	42.01
858.472	43.84
858.643	44.88
858.814	44.28
858.985	42.75
859.155	46.93
859.326	40.98
859.497	39.4
859.668	40.62
859.839	38
860.009	34.44
860.18	29.97
860.351	29.85
860.522	29.83
860.692	29.55
860.863	33.74
861.034	31.88
861.204	32.72
861.375	37.4
861.546	38.71
861.716	42.35
861.887	42.68
862.057	43.02
862.228	41.38
862.398	39.44
862.569	41.37
862.739	41.16
862.91	37.03
863.08	36.58
863.251	29.8
863.421	26.26
863.592	27.9
863.762	26.49
863.932	23.15
864.103	23.02
864.273	25.63
864.443	29.99
864.614	24.46
864.784	25.73
864.954	25.96
865.125	29.14
865.295	30.55
865.465	29.86
865.635	32.19
865.805	37.15
865.976	39.61
866.146	38.08
866.316	33.4
866.486	37.58
866.656	40.49
866.826	43.54
866.996	42.68
867.166	42.39
867.336	44.7
867.506	40.43
867.676	34.8
867.846	29.76
868.016	29.2
868.186	28.98
868.356	25.39
868.526	25
868.696	16.22
868.866	13.73
869.036	20.92
869.206	16.76
869.376	24.97
869.545	28.59
869.715	28.6
869.885	34.13
870.055	31.99
870.224	38.53
870.394	39.01
870.564	42.17
870.734	44.43
870.903	40.82
871.073	41.2
871.243	38.94
871.412	40.21
871.582	41.62
871.751	41.06
871.921	46.05
872.091	37
872.26	39
872.43	39.83
872.599	39.7
872.769	39.23
872.938	39.97
873.108	40.08
873.277	38.14
873.446	39.24
873.616	37.09
873.785	38.13
873.955	41.3
874.124	41.39
874.293	43.8
874.463	42.72
874.632	42.7
874.801	42.22
874.971	43.1
875.14	41.03
875.309	39.65
875.478	41.12
875.647	37.57
875.817	36.68
875.986	37.09
876.155	38.16
876.324	42.73
876.493	42.93
876.662	39.54
876.831	39.64
877	42.67
877.17	42.34
877.339	43.01
877.508	43.37
877.677	42.85
877.846	36.11
878.015	33.35
878.184	32.16
878.352	31.78
878.521	34.37
878.69	35.01
878.859	33.08
879.028	35.78
879.197	31.94
879.366	33.59
879.534	33.59
879.703	34.67
879.872	32.4
880.041	31.85
880.21	31.24
880.378	30.85
880.547	31.17
880.716	30.47
880.884	29.57
881.053	30.1
881.222	29.46
881.39	29.38
881.559	29.82
881.727	30.78
881.896	30.71
882.065	30.71
882.233	31.63
882.402	30.83
882.57	31.12
882.739	31.57
882.907	31.41
883.076	31.5
883.244	31.77
883.412	31.95
883.581	31.31
883.749	31.58
883.918	31.88
884.086	31.19
884.254	32.19
884.423	32.66
884.591	31.68
884.759	32.49
884.927	32.46
885.096	32.72
885.264	31.11
885.432	32.92
885.6	31.95
885.769	33.15
885.937	33.51
886.105	32.33
886.273	34.53
886.441	35.17
886.609	34.26
886.777	35.32
886.945	35.83
887.113	39.14
887.281	35.8
887.449	38.75
887.617	37.29
887.785	38.88
887.953	41.06
888.121	39.19
888.289	42.73
888.457	44.5
888.625	43.16
888.793	43.38
888.961	43.87
889.129	50.3
889.296	50.3
889.464	51.3
889.632	49.9
889.8	49.42
889.967	49.88
890.135	48.23
