Data from 2938489_Reflection_2.txt Node
Date: Wed Jun 17 00:49:49 EDT 2015
User: robert
Spectrometer: USB4E03002
Autoset integration time: false
Trigger mode: 4
Integration Time (sec): 1.000000E-1
Scans to average: 10
Electric dark correction enabled: true
Nonlinearity correction enabled: false
Boxcar width: 5
Stray light correction enabled: false
XAxis mode: Wavelengths
Stop averaging: false
Number of Pixels in Spectrum: 3648
>>>>>Begin Spectral Data<<<<<
177.575	-289.67
177.794	853.71
178.014	32.67
178.233	-8.76
178.452	36.91
178.672	10.35
178.891	57.14
179.11	111.74
179.33	122.36
179.549	168.15
179.768	132.45
179.987	62.41
180.207	67
180.426	127.06
180.645	168.12
180.864	235.97
181.084	134.14
181.303	121.44
181.522	100.8
181.741	114.05
181.96	165.56
182.179	1224.71
182.398	-4589.33
182.618	-390.89
182.837	-210.32
183.056	-226.7
183.275	-443.9
183.494	-292.74
183.713	-831.85
183.932	-399.03
184.151	221.52
184.37	1188.66
184.589	4587.32
184.808	-329.86
185.027	18.96
185.246	-1523.81
185.465	332.75
185.684	150.87
185.903	118.34
186.122	118.03
186.341	118.6
186.56	151.83
186.779	300.63
186.998	532.4
187.216	533.27
187.435	541.1
187.654	1816.3
187.873	-1565.17
188.092	-1761.59
188.311	11554.12
188.53	-1131.14
188.748	-336.79
188.967	-538.36
189.186	-1358.68
189.405	-2369.58
189.623	3344.53
189.842	-388.89
190.061	-1425.57
190.28	252.39
190.498	-810.63
190.717	-249.82
190.936	224.47
191.154	161.19
191.373	37.4
191.592	-169.88
191.81	-95.49
192.029	-3.41
192.248	80.73
192.466	33.92
192.685	30.39
192.904	-267.74
193.122	35.56
193.341	67.63
193.559	46.16
193.778	-78.6
193.996	-74.08
194.215	-4.1
194.433	6.24
194.652	32.89
194.87	69.28
195.089	74.94
195.307	102.51
195.526	-821.93
195.744	-82.72
195.963	-30.97
196.181	-38.17
196.399	-50.95
196.618	-27.31
196.836	33.61
197.055	51.72
197.273	68.71
197.491	38.02
197.71	4.63
197.928	159.14
198.146	-959.25
198.365	-217.25
198.583	-393.28
198.801	369.68
199.019	365.96
199.238	-3.6
199.456	983.33
199.674	90.78
199.892	-19.04
200.111	-7.48
200.329	36.03
200.547	182.67
200.765	94.36
200.983	201.75
201.202	167.03
201.42	205.97
201.638	5384.38
201.856	247.27
202.074	112.42
202.292	165.82
202.51	100.76
202.728	-23.29
202.946	400.98
203.165	-878.85
203.383	-153.51
203.601	-614.4
203.819	-579.97
204.037	-208.55
204.255	303.32
204.473	113.78
204.691	134.78
204.909	105.13
205.127	265.66
205.345	-143.67
205.562	-1043.84
205.78	-123.46
205.998	-361.46
206.216	-657.5
206.434	-339.77
206.652	-195.6
206.87	-96.21
207.088	-77.65
207.306	-212.9
207.523	-85.46
207.741	370.34
207.959	38.81
208.177	-458.85
208.395	-573.8
208.612	1096.73
208.83	-118.18
209.048	-95.41
209.266	-70.22
209.483	-11.37
209.701	-139.09
209.919	11.02
210.136	-79.63
210.354	16.8
210.572	44.5
210.79	20.68
211.007	12.74
211.225	25.01
211.442	29.4
211.66	27.48
211.878	20.2
212.095	115.92
212.313	97.36
212.53	121.35
212.748	116.12
212.966	114.36
213.183	132.29
213.401	125.65
213.618	150.18
213.836	140.07
214.053	184.62
214.271	179.08
214.488	45.11
214.705	49.48
214.923	45.43
215.14	38.72
215.358	-4.13
215.575	-2.88
215.793	-3.05
216.01	-14.58
216.227	-29.18
216.445	-22.58
216.662	-49.14
216.879	-34.55
217.097	-40.41
217.314	-36.75
217.531	-77.93
217.749	-61.15
217.966	-42.03
218.183	-17.46
218.4	-20.82
218.618	-13.6
218.835	-14.31
219.052	-8.52
219.269	1.51
219.487	30.95
219.704	31.01
219.921	39.24
220.138	51.62
220.355	48.28
220.572	39.6
220.79	46.77
221.007	38.62
221.224	32.88
221.441	34.75
221.658	24.92
221.875	11.1
222.092	23.23
222.309	20.17
222.526	20.53
222.743	16.64
222.96	26.38
223.177	18.63
223.394	23.81
223.611	22.62
223.828	9.81
224.045	14.95
224.262	19.75
224.479	12.99
224.696	15.51
224.913	14.83
225.13	17.37
225.347	15.58
225.564	17.76
225.781	16.41
225.997	17.03
226.214	21
226.431	18.67
226.648	16.89
226.865	15.44
227.082	13.62
227.298	12.07
227.515	10.44
227.732	9.97
227.949	9.12
228.165	8.9
228.382	8.08
228.599	6.85
228.816	7.42
229.032	6.5
229.249	6.93
229.466	7.02
229.682	7.29
229.899	7.07
230.116	6.54
230.332	8.51
230.549	8.99
230.765	9.3
230.982	6.88
231.199	6.68
231.415	5.87
231.632	7.24
231.848	9.31
232.065	11.26
232.281	11.84
232.498	12.04
232.714	10.14
232.931	10.42
233.147	11.94
233.364	13.75
233.58	12.45
233.797	11.84
234.013	11.92
234.23	10.81
234.446	7.82
234.662	8.34
234.879	9.98
235.095	8.46
235.312	9.25
235.528	8.08
235.744	6.78
235.961	8.57
236.177	8.91
236.393	7.76
236.61	7
236.826	8.37
237.042	7.96
237.258	6.9
237.475	10.43
237.691	8.73
237.907	9.52
238.123	8.99
238.339	8.38
238.556	11.18
238.772	11.53
238.988	11.73
239.204	11.72
239.42	12.14
239.636	12.58
239.853	12
240.069	12.48
240.285	12.54
240.501	13.46
240.717	13.58
240.933	12.9
241.149	12.43
241.365	12.77
241.581	12.28
241.797	11.47
242.013	11.5
242.229	11.18
242.445	10.79
242.661	10.31
242.877	10.09
243.093	10.44
243.309	10.29
243.525	11.05
243.741	10.91
243.957	11.47
244.173	11.98
244.388	12.16
244.604	12.04
244.82	11.72
245.036	11.41
245.252	11.78
245.468	11.75
245.683	11.64
245.899	11.46
246.115	11.77
246.331	11.45
246.547	11.14
246.762	11.03
246.978	11.31
247.194	11.71
247.409	12.18
247.625	11.84
247.841	11.59
248.057	12.62
248.272	12.91
248.488	12.63
248.703	13.92
248.919	14.66
249.135	14.09
249.35	13.59
249.566	13.2
249.782	12.71
249.997	12.54
250.213	12.08
250.428	10.96
250.644	10.7
250.859	10.28
251.075	9.31
251.29	9.16
251.506	8.26
251.721	8.48
251.937	8.23
252.152	9.23
252.368	8.97
252.583	9.6
252.798	10.63
253.014	10.78
253.229	10.79
253.445	11.69
253.66	11.08
253.875	13
254.091	13.2
254.306	13.01
254.521	11.03
254.737	11.73
254.952	11.44
255.167	10.91
255.383	10.1
255.598	10.34
255.813	10.06
256.028	10.4
256.244	9.57
256.459	9.31
256.674	8.81
256.889	9.51
257.104	8.26
257.32	8.14
257.535	7.78
257.75	7.96
257.965	7.73
258.18	7.79
258.395	7.78
258.61	7.96
258.826	7.66
259.041	7.56
259.256	7.13
259.471	7.69
259.686	7.36
259.901	7.08
260.116	7.09
260.331	7.32
260.546	7.03
260.761	7.04
260.976	6.86
261.191	7
261.406	8.16
261.621	8.67
261.836	7.87
262.05	8.21
262.265	8.6
262.48	9.12
262.695	8.79
262.91	8.5
263.125	8.43
263.34	8.72
263.555	8.79
263.769	7.71
263.984	7.28
264.199	7.72
264.414	7.55
264.629	7.84
264.843	7.29
265.058	7.73
265.273	8.27
265.488	8.16
265.702	8.45
265.917	8.11
266.132	9.06
266.346	9.51
266.561	9.7
266.776	10.03
266.99	9.88
267.205	9.96
267.42	9.67
267.634	9.05
267.849	9.13
268.063	8.48
268.278	8.71
268.492	7.77
268.707	7.36
268.922	7.29
269.136	6.67
269.351	6.4
269.565	6.76
269.78	6.89
269.994	7.15
270.209	7.39
270.423	7.53
270.637	7.83
270.852	7.97
271.066	7.74
271.281	7.97
271.495	8.55
271.709	8.55
271.924	8.04
272.138	7.89
272.353	7.99
272.567	7.55
272.781	7.36
272.996	7.02
273.21	7.24
273.424	7.4
273.638	6.97
273.853	6.93
274.067	6.81
274.281	7.2
274.495	7.56
274.71	7.23
274.924	7.57
275.138	8.09
275.352	8.08
275.566	7.99
275.781	8.32
275.995	8.46
276.209	8.4
276.423	8.7
276.637	8.17
276.851	8.31
277.065	8.74
277.279	8.26
277.493	8.22
277.707	8.52
277.921	8.1
278.135	7.56
278.349	7.76
278.563	8.29
278.777	8.51
278.991	8.94
279.205	8.47
279.419	8.63
279.633	8.59
279.847	8.6
280.061	8.81
280.275	9
280.489	9.48
280.703	8.99
280.917	8.2
281.131	8.14
281.344	7.98
281.558	8.01
281.772	7.45
281.986	7.6
282.2	7.31
282.414	6.89
282.627	6.95
282.841	6.96
283.055	7.12
283.269	7.36
283.482	7.26
283.696	7.28
283.91	7.39
284.123	7.56
284.337	7.86
284.551	7.66
284.764	8.21
284.978	8.24
285.192	7.68
285.405	7.57
285.619	7.33
285.833	7.7
286.046	7.81
286.26	7.67
286.473	7.56
286.687	7.47
286.9	8.08
287.114	7.72
287.327	7.64
287.541	8.27
287.754	8.52
287.968	8.49
288.181	7.85
288.395	8.22
288.608	8.39
288.822	8.87
289.035	8.67
289.248	8.49
289.462	8.59
289.675	8.77
289.889	8.96
290.102	8.98
290.315	9.5
290.529	9.97
290.742	9.67
290.955	9.71
291.169	9.46
291.382	9.9
291.595	9.52
291.808	9.4
292.022	9.13
292.235	8.59
292.448	8.48
292.661	8.8
292.875	8.91
293.088	9.16
293.301	9.19
293.514	9.48
293.727	9.02
293.94	9.32
294.153	9.61
294.367	9.92
294.58	10.56
294.793	10.54
295.006	10.4
295.219	10.01
295.432	10.15
295.645	10.01
295.858	9.99
296.071	10.21
296.284	10.41
296.497	10.3
296.71	10.15
296.923	10.03
297.136	10.33
297.349	10.41
297.562	10.96
297.775	10.72
297.988	11.37
298.201	11.41
298.414	11.63
298.626	11.97
298.839	12.07
299.052	12.26
299.265	12.16
299.478	12.04
299.691	11.75
299.903	11.64
300.116	11.7
300.329	11.63
300.542	11.47
300.755	11.37
300.967	10.94
301.18	10.96
301.393	11.45
301.605	11.52
301.818	11.71
302.031	12.31
302.243	12.44
302.456	12.83
302.669	12.37
302.881	12.69
303.094	12.57
303.307	12.82
303.519	12.83
303.732	12.38
303.944	12.55
304.157	12.42
304.37	12.06
304.582	12.31
304.795	12.32
305.007	12.27
305.22	12.31
305.432	12.83
305.645	12.72
305.857	12.78
306.069	12.61
306.282	12.24
306.494	12.04
306.707	12.07
306.919	11.96
307.132	11.99
307.344	11.98
307.556	11.94
307.769	11.65
307.981	11.46
308.193	11.28
308.406	11.5
308.618	11.81
308.83	11.96
309.043	11.79
309.255	11.73
309.467	11.18
309.679	11.6
309.892	11.56
310.104	11.74
310.316	12.25
310.528	12.29
310.74	12.31
310.953	12.19
311.165	12.53
311.377	12.53
311.589	12.97
311.801	13.41
312.013	13.13
312.225	13.52
312.437	13.6
312.649	12.9
312.862	13.46
313.074	13.48
313.286	12.81
313.498	12.55
313.71	12.67
313.922	11.98
314.134	11.91
314.346	11.93
314.558	11.47
314.77	10.98
314.982	11.32
315.193	10.96
315.405	11.3
315.617	12.33
315.829	12.6
316.041	13.07
316.253	13.04
316.465	13.61
316.677	13.65
316.888	13.87
317.1	14.63
317.312	14.54
317.524	14.51
317.736	14.34
317.947	13.86
318.159	13.7
318.371	13.75
318.583	14.11
318.794	13.63
319.006	13.74
319.218	13.67
319.43	13.45
319.641	13.56
319.853	13.75
320.064	13.22
320.276	13.63
320.488	13.5
320.699	13.15
320.911	13.11
321.123	12.89
321.334	13.13
321.546	12.82
321.757	12.18
321.969	12.64
322.18	12.19
322.392	12.7
322.603	12.58
322.815	13.2
323.026	13.19
323.238	13.23
323.449	13.19
323.661	12.9
323.872	13.39
324.083	13.47
324.295	13
324.506	13.11
324.718	13.08
324.929	12.64
325.14	12.1
325.352	12.24
325.563	12.11
325.774	12.13
325.986	12.27
326.197	12.18
326.408	12.27
326.62	12.55
326.831	12.57
327.042	12.85
327.253	13.25
327.464	13.68
327.676	13.62
327.887	13.54
328.098	13.79
328.309	13.77
328.52	13.67
328.732	13.97
328.943	13.79
329.154	14.16
329.365	13.77
329.576	13.73
329.787	13.21
329.998	13.1
330.209	13.18
330.42	13.89
330.631	13.95
330.842	13.98
331.053	14.07
331.264	14.26
331.475	14.13
331.686	14.19
331.897	14.35
332.108	14.59
332.319	14.65
332.53	14.93
332.741	14.57
332.952	14.12
333.163	14.32
333.374	14.23
333.585	14.28
333.795	13.93
334.006	13.82
334.217	13.07
334.428	12.93
334.639	12.84
334.849	12.89
335.06	12.7
335.271	13.22
335.482	13.09
335.692	12.94
335.903	12.74
336.114	13.01
336.325	13.17
336.535	13.81
336.746	13.64
336.957	13.67
337.167	13.15
337.378	12.67
337.589	12.75
337.799	12.84
338.01	13
338.22	12.92
338.431	12.81
338.642	12.9
338.852	12.77
339.063	13.06
339.273	13.25
339.484	13.38
339.694	13.74
339.905	13.6
340.115	13.35
340.326	13.02
340.536	13
340.746	12.98
340.957	12.78
341.167	12.72
341.378	12.53
341.588	12.27
341.799	12.45
342.009	12.5
342.219	12.09
342.43	11.6
342.64	11.84
342.85	11.92
343.061	11.94
343.271	12.3
343.481	12.19
343.691	12.54
343.902	12.59
344.112	12.72
344.322	12.67
344.532	12.89
344.743	13.38
344.953	13.45
345.163	13.46
345.373	13.42
345.583	12.92
345.793	13.11
346.004	12.65
346.214	12.53
346.424	12.59
346.634	12.53
346.844	12.52
347.054	12.11
347.264	11.85
347.474	11.72
347.684	12.11
347.894	12.49
348.104	12.35
348.314	12.34
348.524	12.57
348.734	12.44
348.944	12.64
349.154	12.52
349.364	12.71
349.574	12.7
349.784	12.61
349.994	11.9
350.204	11.5
350.413	11.74
350.623	11.71
350.833	11.4
351.043	10.88
351.253	10.31
351.463	10.21
351.672	9.86
351.882	9.65
352.092	9.79
352.302	10.26
352.511	10.46
352.721	10.31
352.931	10.04
353.141	9.98
353.35	10.66
353.56	10.78
353.77	10.88
353.979	11.07
354.189	11.24
354.399	11.07
354.608	10.79
354.818	10.56
355.027	10.58
355.237	10.97
355.447	11.16
355.656	11.11
355.866	11.18
356.075	11.11
356.285	11.18
356.494	11.11
356.704	11.13
356.913	11.21
357.123	11.74
357.332	11.56
357.542	11.34
357.751	11.32
357.96	11.17
358.17	11.27
358.379	11.2
358.589	11.69
358.798	11.77
359.007	11.73
359.217	11.81
359.426	11.4
359.635	11.48
359.845	11.51
360.054	11.62
360.263	11.29
360.472	11.15
360.682	11.22
360.891	10.85
361.1	10.81
361.309	10.95
361.519	10.85
361.728	10.86
361.937	10.82
362.146	10.93
362.355	10.73
362.564	10.82
362.774	10.69
362.983	10.64
363.192	10.55
363.401	10.53
363.61	10.47
363.819	10.36
364.028	10.31
364.237	10.37
364.446	10.2
364.655	10.26
364.864	10.42
365.073	10.5
365.282	10.38
365.491	10.65
365.7	10.67
365.909	10.59
366.118	10.79
366.327	11.07
366.536	11.06
366.745	11.14
366.954	11.12
367.162	11.19
367.371	11.05
367.58	11.24
367.789	11.11
367.998	10.97
368.207	10.89
368.415	10.69
368.624	10.75
368.833	10.55
369.042	10.47
369.25	10.34
369.459	10.32
369.668	10.55
369.877	10.67
370.085	10.51
370.294	10.45
370.503	10.75
370.711	11.05
370.92	10.74
371.129	10.83
371.337	11.06
371.546	11.05
371.754	10.89
371.963	10.97
372.171	11.01
372.38	10.94
372.589	11.4
372.797	11.19
373.006	10.85
373.214	10.91
373.423	11
373.631	10.76
373.84	10.98
374.048	10.82
374.256	10.65
374.465	10.41
374.673	10.22
374.882	9.86
375.09	9.69
375.298	9.69
375.507	9.48
375.715	9.56
375.923	9.37
376.132	9.26
376.34	9.41
376.548	9.5
376.757	9.36
376.965	9.56
377.173	9.55
377.381	9.81
377.59	9.84
377.798	10.06
378.006	9.8
378.214	10.09
378.423	9.96
378.631	10.02
378.839	9.98
379.047	10.16
379.255	10.1
379.463	10.31
379.671	10.32
379.879	10.4
380.088	10.36
380.296	10.49
380.504	10.52
380.712	10.68
380.92	10.94
381.128	10.74
381.336	10.67
381.544	10.56
381.752	10.2
381.96	9.93
382.168	9.73
382.376	9.73
382.584	9.66
382.791	9.72
382.999	9.5
383.207	9
383.415	9.3
383.623	9.16
383.831	9.01
384.039	9.26
384.247	9.15
384.454	9.18
384.662	8.95
384.87	9.02
385.078	8.69
385.285	8.74
385.493	8.93
385.701	8.83
385.909	9.09
386.116	9.36
386.324	9.25
386.532	9.46
386.739	9.62
386.947	9.74
387.155	9.82
387.362	9.89
387.57	10.06
387.778	9.87
387.985	10.03
388.193	9.98
388.4	10.16
388.608	10.19
388.816	10.1
389.023	10
389.231	10.02
389.438	9.85
389.646	9.92
389.853	9.93
390.061	10.03
390.268	9.73
390.475	9.81
390.683	9.7
390.89	9.79
391.098	9.87
391.305	9.94
391.512	9.95
391.72	10.17
391.927	10.33
392.135	10.21
392.342	10.35
392.549	10.57
392.756	10.33
392.964	10.2
393.171	10.09
393.378	10.18
393.586	10.18
393.793	10.16
394	9.97
394.207	9.94
394.414	9.89
394.622	9.82
394.829	9.75
395.036	9.93
395.243	10.13
395.45	9.98
395.657	9.83
395.864	9.81
396.072	9.79
396.279	9.64
396.486	9.45
396.693	9.53
396.9	9.61
397.107	9.6
397.314	9.63
397.521	9.56
397.728	9.74
397.935	9.86
398.142	9.91
398.349	10
398.556	10.11
398.763	10.08
398.97	9.99
399.177	9.87
399.383	9.86
399.59	9.86
399.797	9.78
400.004	9.59
400.211	9.42
400.418	9.23
400.625	9.14
400.831	9.18
401.038	9.19
401.245	9.16
401.452	9.21
401.658	9.2
401.865	9.09
402.072	9.14
402.279	9.45
402.485	9.45
402.692	9.5
402.899	9.53
403.105	9.43
403.312	9.54
403.519	9.64
403.725	9.7
403.932	9.78
404.138	9.76
404.345	9.79
404.552	9.73
404.758	9.79
404.965	9.65
405.171	9.75
405.378	9.92
405.584	9.9
405.791	9.84
405.997	9.83
406.204	9.66
406.41	9.69
406.617	9.73
406.823	9.62
407.029	9.68
407.236	9.85
407.442	9.68
407.649	9.66
407.855	9.66
408.061	9.66
408.268	9.61
408.474	9.63
408.68	9.56
408.887	9.43
409.093	9.42
409.299	9.44
409.505	9.45
409.712	9.47
409.918	9.45
410.124	9.52
410.33	9.65
410.537	9.62
410.743	9.62
410.949	9.54
411.155	9.68
411.361	9.73
411.567	9.7
411.773	9.73
411.98	9.82
412.186	9.79
412.392	9.55
412.598	9.44
412.804	9.49
413.01	9.53
413.216	9.76
413.422	9.82
413.628	9.75
413.834	9.72
414.04	9.69
414.246	9.64
414.452	9.68
414.658	9.86
414.864	9.88
415.07	10.01
415.275	10.05
415.481	10.06
415.687	9.85
415.893	9.87
416.099	9.77
416.305	9.66
416.511	9.69
416.716	9.68
416.922	9.78
417.128	9.69
417.334	9.5
417.539	9.52
417.745	9.49
417.951	9.61
418.157	9.56
418.362	9.51
418.568	9.58
418.774	9.55
418.979	9.58
419.185	9.51
419.391	9.6
419.596	9.67
419.802	9.53
420.008	9.48
420.213	9.47
420.419	9.53
420.624	9.59
420.83	9.65
421.035	9.7
421.241	9.66
421.446	9.57
421.652	9.51
421.857	9.43
422.063	9.58
422.268	9.66
422.474	9.63
422.679	9.61
422.885	9.61
423.09	9.55
423.295	9.54
423.501	9.48
423.706	9.5
423.911	9.51
424.117	9.68
424.322	9.65
424.527	9.54
424.733	9.57
424.938	9.63
425.143	9.64
425.349	9.58
425.554	9.7
425.759	9.81
425.964	9.89
426.169	9.88
426.375	9.8
426.58	9.81
426.785	9.8
426.99	9.79
427.195	9.71
427.4	9.66
427.605	9.86
427.811	9.85
428.016	9.77
428.221	9.7
428.426	9.7
428.631	9.61
428.836	9.54
429.041	9.67
429.246	9.61
429.451	9.65
429.656	9.65
429.861	9.57
430.066	9.39
430.271	9.47
430.476	9.64
430.681	9.59
430.886	9.61
431.09	9.72
431.295	9.75
431.5	9.82
431.705	9.73
431.91	9.81
432.115	9.67
432.32	9.72
432.524	9.68
432.729	9.49
432.934	9.61
433.139	9.58
433.343	9.6
433.548	9.53
433.753	9.56
433.958	9.7
434.162	9.65
434.367	9.82
434.572	9.71
434.776	9.83
434.981	9.78
435.186	9.74
435.39	9.82
435.595	9.79
435.799	9.87
436.004	9.86
436.209	9.76
436.413	9.77
436.618	9.76
436.822	9.87
437.027	9.83
437.231	9.94
437.436	9.9
437.64	9.87
437.845	9.83
438.049	9.83
438.253	9.76
438.458	9.84
438.662	9.8
438.867	9.73
439.071	9.68
439.275	9.68
439.48	9.68
439.684	9.73
439.888	9.8
440.093	9.84
440.297	9.83
440.501	9.79
440.706	9.8
440.91	9.76
441.114	9.8
441.318	9.82
441.523	9.72
441.727	9.69
441.931	9.65
442.135	9.58
442.339	9.51
442.543	9.47
442.748	9.52
442.952	9.5
443.156	9.64
443.36	9.65
443.564	9.62
443.768	9.69
443.972	9.62
444.176	9.67
444.38	9.7
444.584	9.63
444.788	9.63
444.992	9.66
445.196	9.66
445.4	9.58
445.604	9.59
445.808	9.71
446.012	9.78
446.216	9.89
446.42	9.83
446.624	9.76
446.828	9.76
447.032	9.78
447.235	9.84
447.439	9.87
447.643	9.93
447.847	9.91
448.051	9.81
448.254	9.73
448.458	9.63
448.662	9.74
448.866	9.79
449.069	9.88
449.273	9.91
449.477	9.87
449.681	9.82
449.884	9.8
450.088	9.79
450.292	9.85
450.495	9.8
450.699	9.86
450.902	9.81
451.106	9.89
451.31	9.79
451.513	9.7
451.717	9.7
451.92	9.78
452.124	9.79
452.327	9.8
452.531	9.66
452.734	9.73
452.938	9.81
453.141	9.86
453.345	9.75
453.548	9.88
453.752	9.95
453.955	9.82
454.158	9.82
454.362	9.72
454.565	9.75
454.769	9.82
454.972	9.83
455.175	9.76
455.379	9.62
455.582	9.73
455.785	9.68
455.988	9.61
456.192	9.63
456.395	9.51
456.598	9.64
456.801	9.5
457.005	9.44
457.208	9.37
457.411	9.31
457.614	9.32
457.817	9.23
458.021	9.17
458.224	9.22
458.427	9.16
458.63	9.11
458.833	9.07
459.036	9.18
459.239	9.21
459.442	9.19
459.645	9.26
459.848	9.29
460.051	9.29
460.254	9.45
460.457	9.48
460.66	9.59
460.863	9.79
461.066	9.91
461.269	9.83
461.472	9.9
461.675	10.05
461.878	9.98
462.081	10.04
462.284	10.12
462.486	10.1
462.689	10
462.892	9.94
463.095	9.79
463.298	9.66
463.5	9.79
463.703	9.77
463.906	9.66
464.109	9.63
464.311	9.64
464.514	9.53
464.717	9.56
464.92	9.6
465.122	9.65
465.325	9.83
465.528	9.82
465.73	9.81
465.933	9.79
466.135	9.87
466.338	9.95
466.541	9.95
466.743	10.1
466.946	10.1
467.148	10.08
467.351	10.12
467.553	9.98
467.756	10.06
467.958	10.08
468.161	9.99
468.363	9.9
468.566	9.97
468.768	9.91
468.971	9.85
469.173	9.8
469.375	9.84
469.578	9.86
469.78	9.84
469.983	9.77
470.185	9.72
470.387	9.81
470.59	9.88
470.792	9.82
470.994	9.9
471.196	9.91
471.399	9.95
471.601	10.01
471.803	10.02
472.005	10.06
472.208	10.12
472.41	10.06
472.612	10.04
472.814	9.92
473.016	9.97
473.218	9.99
473.421	9.89
473.623	9.84
473.825	9.82
474.027	9.73
474.229	9.8
474.431	9.76
474.633	9.81
474.835	9.89
475.037	10.05
475.239	10.07
475.441	10.06
475.643	10.13
475.845	10.14
476.047	10.17
476.249	10.25
476.451	10.18
476.653	10.26
476.855	10.28
477.057	10.25
477.258	10.18
477.46	10.13
477.662	9.97
477.864	9.97
478.066	9.98
478.268	9.9
478.469	9.75
478.671	9.75
478.873	9.67
479.075	9.66
479.276	9.59
479.478	9.65
479.68	9.62
479.882	9.7
480.083	9.6
480.285	9.62
480.487	9.6
480.688	9.66
480.89	9.66
481.091	9.56
481.293	9.53
481.495	9.54
481.696	9.47
481.898	9.47
482.099	9.49
482.301	9.52
482.502	9.53
482.704	9.55
482.905	9.53
483.107	9.54
483.308	9.63
483.51	9.64
483.711	9.7
483.913	9.72
484.114	9.73
484.315	9.73
484.517	9.76
484.718	9.72
484.92	9.72
485.121	9.72
485.322	9.68
485.524	9.6
485.725	9.6
485.926	9.53
486.127	9.5
486.329	9.53
486.53	9.5
486.731	9.52
486.932	9.52
487.134	9.52
487.335	9.54
487.536	9.57
487.737	9.64
487.938	9.65
488.139	9.65
488.341	9.68
488.542	9.68
488.743	9.68
488.944	9.65
489.145	9.64
489.346	9.62
489.547	9.56
489.748	9.56
489.949	9.54
490.15	9.52
490.351	9.57
490.552	9.59
490.753	9.6
490.954	9.63
491.155	9.62
491.356	9.61
491.557	9.67
491.758	9.73
491.959	9.71
492.159	9.72
492.36	9.78
492.561	9.74
492.762	9.79
492.963	9.8
493.164	9.86
493.364	9.84
493.565	9.94
493.766	9.91
493.967	9.89
494.167	9.93
494.368	9.96
494.569	9.91
494.769	9.92
494.97	9.95
495.171	9.96
495.371	10.02
495.572	10.07
495.773	10.07
495.973	9.97
496.174	10
496.375	10.02
496.575	10.08
496.776	10.21
496.976	10.23
497.177	10.15
497.377	10.12
497.578	10.03
497.778	10.06
497.979	10.1
498.179	10.26
498.38	10.33
498.58	10.42
498.78	10.4
498.981	10.37
499.181	10.41
499.382	10.53
499.582	10.61
499.782	10.67
499.983	10.71
500.183	10.78
500.383	10.72
500.584	10.65
500.784	10.57
500.984	10.57
501.184	10.6
501.385	10.64
501.585	10.61
501.785	10.69
501.985	10.7
502.185	10.75
502.386	10.78
502.586	10.93
502.786	10.91
502.986	10.94
503.186	10.85
503.386	10.81
503.586	10.78
503.786	10.88
503.987	10.81
504.187	10.83
504.387	10.85
504.587	10.79
504.787	10.7
504.987	10.84
505.187	10.87
505.387	11.05
505.587	11.07
505.786	11.09
505.986	11.05
506.186	11.05
506.386	11.1
506.586	11.12
506.786	11.06
506.986	11.07
507.186	11.06
507.386	11.1
507.585	11.1
507.785	11.12
507.985	11.12
508.185	11.11
508.384	11.17
508.584	11.15
508.784	11.18
508.984	11.2
509.183	11.33
509.383	11.37
509.583	11.39
509.782	11.45
509.982	11.46
510.182	11.64
510.381	11.74
510.581	11.75
510.781	11.78
510.98	11.76
511.18	11.85
511.379	11.75
511.579	11.8
511.778	11.87
511.978	11.78
512.177	11.82
512.377	11.77
512.576	11.75
512.776	11.78
512.975	11.84
513.175	11.8
513.374	11.9
513.573	11.94
513.773	11.82
513.972	11.86
514.172	11.96
514.371	12.01
514.57	11.95
514.77	11.97
514.969	11.97
515.168	11.91
515.367	11.94
515.567	11.91
515.766	11.92
515.965	11.98
516.164	11.94
516.364	11.92
516.563	11.84
516.762	11.83
516.961	11.84
517.16	11.87
517.359	11.91
517.559	12
517.758	12.01
517.957	12.03
518.156	12.1
518.355	12.11
518.554	12.12
518.753	12.22
518.952	12.3
519.151	12.32
519.35	12.33
519.549	12.4
519.748	12.33
519.947	12.35
520.146	12.36
520.345	12.35
520.544	12.33
520.743	12.34
520.942	12.34
521.141	12.33
521.339	12.36
521.538	12.45
521.737	12.45
521.936	12.51
522.135	12.53
522.333	12.54
522.532	12.59
522.731	12.63
522.93	12.67
523.129	12.74
523.327	12.74
523.526	12.71
523.725	12.64
523.923	12.65
524.122	12.66
524.321	12.62
524.519	12.66
524.718	12.67
524.917	12.66
525.115	12.71
525.314	12.68
525.512	12.67
525.711	12.67
525.909	12.69
526.108	12.64
526.306	12.62
526.505	12.6
526.703	12.59
526.902	12.6
527.1	12.6
527.299	12.61
527.497	12.64
527.696	12.68
527.894	12.75
528.092	12.8
528.291	12.86
528.489	12.92
528.688	13.02
528.886	13.06
529.084	13.13
529.283	13.21
529.481	13.2
529.679	13.23
529.877	13.29
530.076	13.25
530.274	13.26
530.472	13.25
530.67	13.21
530.869	13.18
531.067	13.19
531.265	13.14
531.463	13.12
531.661	13.13
531.859	13.14
532.057	13.13
532.255	13.12
532.454	13.13
532.652	13.15
532.85	13.22
533.048	13.27
533.246	13.31
533.444	13.37
533.642	13.38
533.84	13.42
534.038	13.38
534.236	13.36
534.434	13.4
534.632	13.38
534.83	13.4
535.027	13.41
535.225	13.41
535.423	13.36
535.621	13.34
535.819	13.37
536.017	13.48
536.215	13.48
536.412	13.57
536.61	13.67
536.808	13.64
537.006	13.69
537.203	13.73
537.401	13.7
537.599	13.78
537.797	13.82
537.994	13.89
538.192	13.82
538.39	13.89
538.587	13.82
538.785	13.85
538.983	13.89
539.18	13.91
539.378	13.91
539.575	13.92
539.773	13.95
539.97	13.96
540.168	13.98
540.366	14.03
540.563	14.02
540.761	14.06
540.958	14.08
541.155	14.12
541.353	14.16
541.55	14.13
541.748	14.15
541.945	14.18
542.143	14.21
542.34	14.17
542.537	14.17
542.735	14.16
542.932	14.23
543.129	14.18
543.327	14.17
543.524	14.13
543.721	14.23
543.919	14.3
544.116	14.33
544.313	14.33
544.51	14.44
544.708	14.42
544.905	14.45
545.102	14.5
545.299	14.58
545.496	14.63
545.693	14.66
545.891	14.66
546.088	14.69
546.285	14.65
546.482	14.65
546.679	14.71
546.876	14.76
547.073	14.87
547.27	14.84
547.467	14.87
547.664	14.86
547.861	14.89
548.058	14.99
548.255	14.94
548.452	15
548.649	15.1
548.846	15.09
549.043	15.06
549.24	15.09
549.437	15.08
549.633	14.93
549.83	14.92
550.027	15.02
550.224	15.04
550.421	15.04
550.618	15.1
550.814	15.23
551.011	15.3
551.208	15.33
551.405	15.35
551.601	15.49
551.798	15.66
551.995	15.76
552.191	15.76
552.388	15.8
552.585	15.98
552.781	15.97
552.978	15.86
553.175	15.9
553.371	15.98
553.568	16.04
553.764	16.06
553.961	16.09
554.157	16.25
554.354	16.24
554.55	16.2
554.747	16.06
554.943	16.13
555.14	16.24
555.336	16.23
555.533	16.34
555.729	16.37
555.926	16.35
556.122	16.36
556.318	16.36
556.515	16.44
556.711	16.44
556.907	16.55
557.104	16.64
557.3	16.57
557.496	16.55
557.693	16.6
557.889	16.54
558.085	16.54
558.281	16.64
558.478	16.47
558.674	16.5
558.87	16.56
559.066	16.59
559.262	16.57
559.459	16.7
559.655	16.79
559.851	16.78
560.047	16.86
560.243	16.87
560.439	16.88
560.635	16.97
560.831	16.97
561.027	17.05
561.223	17.08
561.419	17.02
561.615	17.04
561.811	16.98
562.007	17.08
562.203	17.17
562.399	17.29
562.595	17.33
562.791	17.38
562.987	17.41
563.183	17.48
563.379	17.62
563.575	17.85
563.771	17.88
563.966	18.01
564.162	17.98
564.358	17.98
564.554	17.85
564.75	17.96
564.945	17.96
565.141	18.02
565.337	18.01
565.533	17.99
565.728	17.95
565.924	17.92
566.12	17.98
566.315	18.04
566.511	18.09
566.707	18.26
566.902	18.24
567.098	18.32
567.293	18.41
567.489	18.44
567.684	18.45
567.88	18.49
568.076	18.54
568.271	18.51
568.467	18.49
568.662	18.53
568.858	18.47
569.053	18.46
569.248	18.46
569.444	18.46
569.639	18.51
569.835	18.6
570.03	18.58
570.225	18.68
570.421	18.73
570.616	18.9
570.812	18.95
571.007	19.1
571.202	19.23
571.397	19.31
571.593	19.46
571.788	19.53
571.983	19.53
572.178	19.6
572.374	19.69
572.569	19.74
572.764	19.68
572.959	19.63
573.154	19.62
573.35	19.58
573.545	19.55
573.74	19.47
573.935	19.41
574.13	19.52
574.325	19.55
574.52	19.44
574.715	19.43
574.91	19.48
575.105	19.54
575.3	19.54
575.495	19.52
575.69	19.64
575.885	19.6
576.08	19.72
576.275	19.7
576.47	19.73
576.665	19.8
576.86	19.82
577.055	19.79
577.25	19.84
577.444	19.88
577.639	19.86
577.834	19.83
578.029	19.99
578.224	19.89
578.418	19.98
578.613	20
578.808	20.09
579.003	20.15
579.197	20.2
579.392	20.16
579.587	20.19
579.781	20.41
579.976	20.48
580.171	20.49
580.365	20.68
580.56	20.61
580.755	20.7
580.949	20.7
581.144	20.71
581.338	20.81
581.533	20.9
581.727	21.06
581.922	21.07
582.116	21.05
582.311	21.09
582.505	21.08
582.7	21.01
582.894	20.98
583.089	21.05
583.283	21
583.478	20.85
583.672	21
583.866	20.99
584.061	20.96
584.255	20.97
584.449	21.09
584.644	21.21
584.838	21.45
585.032	21.55
585.226	21.59
585.421	21.87
585.615	21.98
585.809	21.85
586.003	21.81
586.198	21.74
586.392	21.72
586.586	21.58
586.78	21.45
586.974	21.42
587.168	21.41
587.363	21.42
587.557	21.24
587.751	21.26
587.945	21.34
588.139	21.44
588.333	21.59
588.527	21.72
588.721	21.78
588.915	21.87
589.109	21.94
589.303	21.82
589.497	21.87
589.691	21.89
589.885	21.91
590.079	21.81
590.273	21.77
590.466	21.81
590.66	21.79
590.854	21.69
591.048	21.61
591.242	21.57
591.436	21.71
591.629	21.62
591.823	21.74
592.017	21.71
592.211	21.89
592.404	21.82
592.598	21.79
592.792	21.79
592.986	21.84
593.179	21.91
593.373	22.12
593.567	22.17
593.76	22.21
593.954	22.29
594.147	22.41
594.341	22.33
594.535	22.43
594.728	22.51
594.922	22.51
595.115	22.48
595.309	22.49
595.502	22.27
595.696	22.33
595.889	22.33
596.083	22.2
596.276	22.15
596.47	22.16
596.663	22.2
596.856	22.17
597.05	22.2
597.243	22.23
597.437	22.18
597.63	22.24
597.823	22.15
598.017	22.08
598.21	22.04
598.403	22.05
598.596	22.1
598.79	22.04
598.983	21.97
599.176	21.97
599.369	22.08
599.563	22.12
599.756	22.16
599.949	22.15
600.142	22.35
600.335	22.36
600.528	22.38
600.722	22.39
600.915	22.46
601.108	22.61
601.301	22.58
601.494	22.69
601.687	22.82
601.88	22.82
602.073	22.85
602.266	22.84
602.459	23.01
602.652	23.11
602.845	23.04
603.038	23.04
603.231	23.03
603.424	23.12
603.617	23.06
603.809	22.97
604.002	22.91
604.195	22.9
604.388	22.91
604.581	22.91
604.774	22.77
604.966	22.79
605.159	22.67
605.352	22.6
605.545	22.6
605.737	22.58
605.93	22.62
606.123	22.76
606.316	22.87
606.508	22.93
606.701	22.92
606.894	23.01
607.086	23.07
607.279	23.14
607.471	23.17
607.664	23.1
607.857	23.14
608.049	23.15
608.242	23.15
608.434	23.13
608.627	23.14
608.819	23.21
609.012	23.23
609.204	23.34
609.397	23.5
609.589	23.64
609.782	23.8
609.974	23.83
610.166	23.94
610.359	23.88
610.551	23.92
610.743	23.93
610.936	23.84
611.128	23.94
611.32	23.92
611.513	23.99
611.705	23.96
611.897	23.85
612.09	23.75
612.282	23.74
612.474	23.78
612.666	23.72
612.858	23.8
613.051	23.8
613.243	23.69
613.435	23.63
613.627	23.37
613.819	23.22
614.011	23.14
614.203	23.27
614.395	23.21
614.588	23.19
614.78	23.23
614.972	23
615.164	23.09
615.356	23.21
615.548	23.24
615.74	23.38
615.932	23.45
616.124	23.64
616.315	23.78
616.507	24.01
616.699	24.07
616.891	24.02
617.083	24.14
617.275	24.12
617.467	24.03
617.659	23.98
617.85	24.01
618.042	23.98
618.234	24.05
618.426	24.02
618.618	23.86
618.809	23.99
619.001	24.03
619.193	24.07
619.384	24.17
619.576	24.21
619.768	24.2
619.959	24.28
620.151	24.25
620.343	24.17
620.534	24.16
620.726	24.32
620.917	24.11
621.109	24.1
621.301	24.07
621.492	23.99
621.684	23.95
621.875	24.12
622.067	24.06
622.258	24.18
622.45	24.36
622.641	24.3
622.832	24.25
623.024	24.45
623.215	24.45
623.407	24.32
623.598	24.4
623.789	24.36
623.981	24.34
624.172	24.24
624.363	24.23
624.555	23.96
624.746	23.98
624.937	23.81
625.129	23.71
625.32	23.81
625.511	24.02
625.702	24.04
625.893	24.13
626.085	24.11
626.276	24.24
626.467	24.39
626.658	24.46
626.849	24.55
627.04	24.62
627.231	24.79
627.422	24.88
627.614	24.86
627.805	24.64
627.996	24.67
628.187	24.64
628.378	24.6
628.569	24.46
628.76	24.45
628.951	24.38
629.142	24.45
629.332	24.35
629.523	24.42
629.714	24.4
629.905	24.55
630.096	24.74
630.287	25
630.478	25.14
630.669	25.17
630.859	25.28
631.05	25.36
631.241	25.32
631.432	25.26
631.623	25.08
631.813	25.23
632.004	25.31
632.195	25.2
632.385	24.88
632.576	24.78
632.767	24.8
632.957	24.86
633.148	24.78
633.339	24.7
633.529	24.66
633.72	24.74
633.91	24.65
634.101	24.47
634.292	24.37
634.482	24.47
634.673	24.47
634.863	24.4
635.054	24.27
635.244	24.4
635.435	24.49
635.625	24.61
635.815	24.58
636.006	24.53
636.196	24.78
636.387	24.92
636.577	24.98
636.767	24.91
636.958	24.94
637.148	24.97
637.338	24.84
637.529	24.9
637.719	24.82
637.909	24.72
638.099	24.89
638.29	24.74
638.48	24.64
638.67	24.84
638.86	25.11
639.05	25.15
639.241	25.34
639.431	25.41
639.621	25.46
639.811	25.39
640.001	25.65
640.191	25.66
640.381	25.76
640.571	25.94
640.761	25.57
640.951	25.49
641.141	25.48
641.331	25.41
641.521	25.28
641.711	25.36
641.901	25.65
642.091	25.57
642.281	25.31
642.471	25.28
642.661	25.21
642.851	25.4
643.041	25.1
643.231	25.06
643.42	24.92
643.61	25.31
643.8	25.26
643.99	25.08
644.18	25.09
644.369	25.16
644.559	25.34
644.749	25.13
644.939	24.98
645.128	25.05
645.318	25.33
645.508	25.32
645.697	24.99
645.887	24.87
646.076	24.87
646.266	24.73
646.456	24.61
646.645	24.41
646.835	24.63
647.024	24.75
647.214	24.77
647.403	24.55
647.593	24.61
647.782	24.72
647.972	24.81
648.161	24.86
648.351	24.9
648.54	25.14
648.73	25.26
648.919	25.34
649.108	25.48
649.298	25.48
649.487	25.5
649.677	25.77
649.866	25.81
650.055	25.84
650.244	25.78
650.434	25.93
650.623	25.91
650.812	25.72
651.002	25.62
651.191	25.55
651.38	25.73
651.569	25.78
651.758	25.34
651.947	25.3
652.137	25.34
652.326	25.37
652.515	25.36
652.704	25.44
652.893	25.66
653.082	25.57
653.271	25.62
653.46	25.5
653.649	25.49
653.838	25.64
654.027	25.97
654.216	26
654.405	26.2
654.594	26.18
654.783	26.18
654.972	26.27
655.161	26.24
655.35	26.25
655.539	26.43
655.728	26.65
655.916	26.84
656.105	26.51
656.294	26.57
656.483	26.38
656.672	26.35
656.86	26.4
657.049	26.36
657.238	26.51
657.427	26.51
657.615	26.51
657.804	26.44
657.993	26.48
658.181	26.53
658.37	26.46
658.559	26.47
658.747	26.53
658.936	26.44
659.125	26.23
659.313	26.14
659.502	26.19
659.69	26.18
659.879	26.15
660.067	26.13
660.256	26
660.444	25.85
660.633	26.05
660.821	25.81
661.01	25.72
661.198	26
661.387	26.04
661.575	25.88
661.763	25.83
661.952	25.63
662.14	25.6
662.328	25.63
662.517	25.85
662.705	25.73
662.893	26.09
663.082	26.38
663.27	26.35
663.458	26.42
663.646	26.42
663.834	26.57
664.023	26.72
664.211	26.5
664.399	26.63
664.587	26.8
664.775	26.68
664.963	26.44
665.152	26.28
665.34	26.32
665.528	26.46
665.716	26.42
665.904	26.41
666.092	26.49
666.28	26.63
666.468	26.62
666.656	26.44
666.844	26.6
667.032	26.89
667.22	26.83
667.408	26.83
667.596	26.68
667.784	26.53
667.971	26.31
668.159	26.43
668.347	26.49
668.535	26.46
668.723	26.51
668.911	26.32
669.098	25.9
669.286	25.75
669.474	25.77
669.662	25.89
669.849	26.02
670.037	26.12
670.225	25.86
670.413	25.76
670.6	25.83
670.788	25.95
670.976	25.99
671.163	26.17
671.351	26.19
671.538	26.18
671.726	26.09
671.913	26.05
672.101	26.22
672.289	26.39
672.476	26.36
672.664	26.37
672.851	26.33
673.039	26.37
673.226	26.32
673.413	26.5
673.601	26.6
673.788	26.67
673.976	26.88
674.163	26.68
674.35	26.59
674.538	26.44
674.725	26.39
674.912	26.43
675.1	26.59
675.287	26.64
675.474	26.82
675.662	26.72
675.849	26.88
676.036	26.87
676.223	26.74
676.411	26.73
676.598	26.81
676.785	26.79
676.972	26.79
677.159	26.6
677.346	26.86
677.533	26.45
677.721	26.6
677.908	26.43
678.095	26.58
678.282	26.66
678.469	26.86
678.656	26.95
678.843	27.01
679.03	27.04
679.217	27.22
679.404	26.99
679.591	27.29
679.778	27.04
679.964	26.97
680.151	26.95
680.338	26.79
680.525	26.62
680.712	26.61
680.899	26.82
681.086	26.5
681.272	26.48
681.459	26.5
681.646	26.4
681.833	26.75
682.02	26.97
682.206	26.84
682.393	26.98
682.58	27.24
682.766	27.15
682.953	26.98
683.14	27.39
683.326	27.56
683.513	27.76
683.7	27.84
683.886	27.78
684.073	27.79
684.259	27.58
684.446	27.59
684.632	27.19
684.819	27.35
685.005	27.3
685.192	27.23
685.378	26.97
685.565	27.06
685.751	27.01
685.938	26.84
686.124	26.65
686.31	26.74
686.497	26.79
686.683	26.94
686.87	27.17
687.056	27.1
687.242	26.96
687.429	27.15
687.615	26.77
687.801	26.84
687.987	26.69
688.174	26.66
688.36	27.11
688.546	27.27
688.732	27.13
688.918	26.81
689.105	26.95
689.291	27.04
689.477	26.76
689.663	27.07
689.849	27.06
690.035	27.22
690.221	27.26
690.407	27.21
690.593	27.25
690.779	27.24
690.965	27.32
691.151	27.42
691.337	27.32
691.523	27.28
691.709	27.03
691.895	27.14
692.081	27.08
692.267	27.14
692.453	26.77
692.639	26.79
692.825	26.91
693.011	27.15
693.196	26.89
693.382	26.97
693.568	27.24
693.754	27.36
693.94	27.28
694.125	27.34
694.311	27.1
694.497	27.14
694.682	26.94
694.868	27.09
695.054	27.11
695.239	27.23
695.425	27.37
695.611	27.32
695.796	27.46
695.982	27.64
696.168	27.77
696.353	28.07
696.539	27.94
696.724	28
696.91	27.68
697.095	27.45
697.281	27.47
697.466	27.33
697.652	27.53
697.837	27.59
698.023	27.63
698.208	27.61
698.393	27.64
698.579	27.62
698.764	27.75
698.949	28.01
699.135	28.43
699.32	28.61
699.505	28.82
699.691	28.65
699.876	28.58
700.061	28.62
700.246	28.63
700.432	28.36
700.617	28.53
700.802	28.38
700.987	28.48
701.172	28.18
701.358	27.83
701.543	27.61
701.728	27.69
701.913	27.71
702.098	27.36
702.283	27.5
702.468	27.97
702.653	28.06
702.838	28.34
703.023	28.23
703.208	27.93
703.393	28.09
703.578	28
703.763	28.08
703.948	28.27
704.133	28.42
704.318	28.34
704.503	27.95
704.688	28.09
704.873	27.92
705.057	27.7
705.242	27.72
705.427	27.78
705.612	27.4
705.797	26.99
705.981	26.73
706.166	26.57
706.351	26.39
706.536	26.63
706.72	26.92
706.905	26.72
707.09	27.04
707.274	27.32
707.459	27.32
707.644	27.95
707.828	28.23
708.013	28.55
708.197	28.92
708.382	29.08
708.567	28.99
708.751	28.74
708.936	28.94
709.12	28.89
709.305	28.88
709.489	28.63
709.673	28.65
709.858	28.47
710.042	28.39
710.227	28.1
710.411	28.05
710.596	27.64
710.78	27.56
710.964	27.39
711.149	27.2
711.333	27.13
711.517	27.32
711.702	27.24
711.886	27.25
712.07	26.79
712.254	27.14
712.438	27.35
712.623	28.02
712.807	27.69
712.991	28.09
713.175	28.44
713.359	28.05
713.544	28.21
713.728	28.31
713.912	28.45
714.096	28.67
714.28	28.49
714.464	28.27
714.648	28.17
714.832	28.43
715.016	28.31
715.2	28.12
715.384	28.6
715.568	28.79
715.752	28.45
715.936	28.03
716.12	28.22
716.304	28.08
716.488	27.92
716.671	27.81
716.855	27.77
717.039	27.9
717.223	27.89
717.407	28.06
717.59	27.3
717.774	27.61
717.958	28.07
718.142	28.11
718.325	27.79
718.509	27.69
718.693	27.94
718.877	27.98
719.06	27.88
719.244	28.31
719.428	28.1
719.611	28.65
719.795	28.82
719.978	28.83
720.162	29.06
720.345	29.72
720.529	30.05
720.713	29.61
720.896	29.69
721.08	29.49
721.263	28.9
721.446	28.57
721.63	28.4
721.813	28.12
721.997	28.07
722.18	27.79
722.364	27.86
722.547	27.8
722.73	28.12
722.914	28.14
723.097	27.86
723.28	28.47
723.464	28.83
723.647	29.16
723.83	29.23
724.013	29.32
724.197	29.26
724.38	28.9
724.563	29.13
724.746	28.87
724.929	29.19
725.112	29.53
725.296	29.41
725.479	29.17
725.662	29.27
725.845	29.07
726.028	29.17
726.211	29
726.394	29
726.577	28.9
726.76	29.12
726.943	28.73
727.126	28.44
727.309	28.5
727.492	28.53
727.675	28.43
727.858	28.54
728.041	28.57
728.224	28.45
728.407	28.8
728.589	28.62
728.772	28.19
728.955	28.52
729.138	28.98
729.321	28.55
729.503	28.32
729.686	28.19
729.869	28.25
730.052	28.59
730.234	28.68
730.417	28.47
730.6	28.57
730.782	28.72
730.965	28.44
731.148	28.6
731.33	29.01
731.513	29.09
731.695	29.1
731.878	28.96
732.061	28.72
732.243	28.91
732.426	28.76
732.608	28.51
732.791	28.81
732.973	28.88
733.156	28.69
733.338	28.43
733.52	28.88
733.703	29.32
733.885	29.76
734.068	29.77
734.25	29.69
734.432	29.6
734.615	30.2
734.797	30.34
734.979	30.54
735.162	30.16
735.344	30.26
735.526	30.25
735.708	29.91
735.891	29.65
736.073	29.15
736.255	28.95
736.437	29.03
736.619	28.85
736.802	28.71
736.984	28.5
737.166	28.33
737.348	28.24
737.53	28.15
737.712	28.05
737.894	28.15
738.076	28.48
738.258	28.63
738.44	28.97
738.622	28.59
738.804	28.52
738.986	28.37
739.168	29.06
739.35	28.84
739.532	28.73
739.714	28.84
739.896	28.22
740.078	28.58
740.259	28.24
740.441	27.95
740.623	28.29
740.805	28.45
740.987	28.63
741.168	27.95
741.35	28.04
741.532	28.47
741.714	28.74
741.895	29.61
742.077	29.13
742.259	29.31
742.44	29.31
742.622	29.33
742.804	28.91
742.985	29.22
743.167	29.82
743.348	29.93
743.53	29.32
743.711	29.08
743.893	29.51
744.075	29.47
744.256	29.87
744.438	30.35
744.619	30.7
744.8	31.1
744.982	30.83
745.163	30.52
745.345	30.7
745.526	30.9
745.707	30.86
745.889	29.89
746.07	30.1
746.252	29.98
746.433	29.39
746.614	28.68
746.795	28.74
746.977	29.37
747.158	29.66
747.339	29.69
747.52	29.37
747.702	29.03
747.883	29.02
748.064	28.94
748.245	28.8
748.426	29
748.607	29.32
748.788	29.31
748.97	28.61
749.151	28.04
749.332	27.79
749.513	28.18
749.694	27.75
749.875	28.16
750.056	28.49
750.237	28.27
750.418	28.66
750.599	28.16
750.78	27.6
750.96	28.36
751.141	28.39
751.322	29.06
751.503	28.72
751.684	29.05
751.865	28.95
752.046	28.73
752.226	28.39
752.407	28.5
752.588	29.77
752.769	30.27
752.949	29.16
753.13	29.17
753.311	28.61
753.492	28.4
753.672	28.22
753.853	28.03
754.034	28.89
754.214	29.84
754.395	29.15
754.575	28.89
754.756	28.92
754.937	29.71
755.117	30.46
755.298	31.08
755.478	31.36
755.659	31.8
755.839	31.82
756.02	31.11
756.2	30.27
756.381	30.62
756.561	30.39
756.741	30.38
756.922	30.5
757.102	30.58
757.283	30.04
757.463	30.36
757.643	30.18
757.823	30.42
758.004	30.02
758.184	30.33
758.364	30.33
758.545	29.98
758.725	29.67
758.905	29.73
759.085	29.32
759.265	29.68
759.446	29.58
759.626	29.57
759.806	29.45
759.986	29.43
760.166	29.75
760.346	29.39
760.526	29.76
760.706	29.94
760.886	29.11
761.066	28.8
761.246	28.55
761.426	28.48
761.606	28.2
761.786	28.71
761.966	28.7
762.146	28.58
762.326	28.68
762.506	28.3
762.686	27.95
762.866	28.25
763.046	28.8
763.225	29.09
763.405	28.89
763.585	29
763.765	28.59
763.945	28.76
764.124	29.04
764.304	29.34
764.484	29.21
764.664	29.64
764.843	29.94
765.023	29.81
765.203	29.34
765.382	29.35
765.562	29.94
765.741	29.83
765.921	29.8
766.101	29.51
766.28	29.36
766.46	29.13
766.639	29.42
766.819	29.37
766.998	29.04
767.178	29.35
767.357	29.42
767.537	28.74
767.716	29.38
767.896	30.15
768.075	30.37
768.254	30.49
768.434	31.16
768.613	31.43
768.792	30.77
768.972	31.42
769.151	30.78
769.33	31.72
769.51	32.73
769.689	31.86
769.868	30.74
770.047	30.88
770.226	30.53
770.406	31.15
770.585	29.93
770.764	30.57
770.943	29.3
771.122	30.35
771.301	29.97
771.48	29.76
771.66	29.81
771.839	30.9
772.018	30.9
772.197	31.18
772.376	30.91
772.555	30.92
772.734	30.66
772.913	31.33
773.092	30.77
773.271	30.94
773.449	31.16
773.628	31.59
773.807	30.63
773.986	29.84
774.165	29.88
774.344	29.03
774.523	29.68
774.701	29.35
774.88	28.72
775.059	29.06
775.238	29.09
775.417	28.6
775.595	28.5
775.774	28.64
775.953	29.23
776.131	29.32
776.31	30.12
776.489	30.27
776.667	30.27
776.846	30.54
777.025	30.04
777.203	29.77
777.382	29.8
777.56	30.13
777.739	30.52
777.917	30.42
778.096	29.98
778.274	29.11
778.453	28.06
778.631	27.97
778.81	27.77
778.988	28.59
779.166	27.65
779.345	27.47
779.523	26.78
779.702	26.44
779.88	26.77
780.058	27.38
780.237	27.7
780.415	28.69
780.593	28.74
780.771	29.16
780.95	29.17
781.128	29.2
781.306	28.85
781.484	29.79
781.662	29.74
781.841	29.7
782.019	28.96
782.197	29.46
782.375	29.64
782.553	29.95
782.731	30.52
782.909	29.01
783.087	30.11
783.265	30.02
783.443	29.41
783.621	28.79
783.799	28.81
783.977	29.57
784.155	29.18
784.333	29.14
784.511	29.18
784.689	29.4
784.867	30.88
785.045	31.33
785.223	31.35
785.4	31.83
785.578	32.37
785.756	32.37
785.934	32.01
786.112	32.08
786.289	31.15
786.467	31.45
786.645	31.21
786.823	30.28
787	29.74
787.178	30.02
787.356	29.78
787.533	29.75
787.711	30.09
787.889	30.71
788.066	30.68
788.244	31.49
788.421	31.42
788.599	31.44
788.776	31.12
788.954	31.04
789.131	30.95
789.309	30.72
789.486	30.19
789.664	30.07
789.841	29.15
790.019	29.53
790.196	28.53
790.373	27.94
790.551	28.87
790.728	28.85
790.906	28.3
791.083	27.78
791.26	27.75
791.437	28.7
791.615	29.73
791.792	29.66
791.969	28.91
792.146	30.09
792.324	31.62
792.501	29.86
792.678	30.73
792.855	31.66
793.032	31.29
793.209	30.98
793.387	30.73
793.564	28.36
793.741	28.29
793.918	28.76
794.095	27.95
794.272	28.16
794.449	28.86
794.626	29
794.803	29.16
794.98	30.12
795.157	29.88
795.334	30.87
795.511	31.63
795.688	32.27
795.864	32.34
796.041	33.23
796.218	31.39
796.395	31.69
796.572	31.3
796.749	30.81
796.925	31.54
797.102	32.9
797.279	32.42
797.456	32.68
797.632	32.58
797.809	33.49
797.986	32.93
798.162	33.37
798.339	33.11
798.516	33.09
798.692	32.78
798.869	32.14
799.046	31.08
799.222	29.7
799.399	28.76
799.575	29.04
799.752	28.28
799.928	27.93
800.105	28.32
800.281	28.3
800.458	28.42
800.634	28.78
800.811	29.73
800.987	30.36
801.163	31.04
801.34	31.72
801.516	31.78
801.692	31.51
801.869	32.5
802.045	32.96
802.221	32.1
802.398	31.22
802.574	31.55
802.75	31.33
802.926	30.25
803.103	30.44
803.279	29.99
803.455	29.4
803.631	30.07
803.807	28.37
803.983	28.97
804.16	30.27
804.336	31.2
804.512	31.62
804.688	30.7
804.864	30.96
805.04	31.42
805.216	31.77
805.392	32.23
805.568	30.62
805.744	31.39
805.92	30.4
806.096	29.29
806.272	29.69
806.448	28.98
806.623	28.83
806.799	29.12
806.975	29.03
807.151	29.14
807.327	27.73
807.503	29.48
807.678	28.98
807.854	28.68
808.03	29.55
808.206	28.73
808.381	27.42
808.557	27.69
808.733	27.33
808.908	26.71
809.084	25.97
809.26	27.63
809.435	26.09
809.611	26.05
809.787	25.85
809.962	26.47
810.138	26.7
810.313	27.62
810.489	28.3
810.664	28.79
810.84	28.31
811.015	28.46
811.191	28.4
811.366	30.28
811.542	30.81
811.717	30.02
811.892	30.01
812.068	29.79
812.243	30.5
812.419	29.63
812.594	29.83
812.769	30.45
812.944	31.69
813.12	31.99
813.295	30.18
813.47	31.11
813.645	32.92
813.821	31.8
813.996	32.74
814.171	31.28
814.346	31.45
814.521	32.32
814.697	32.03
814.872	30.08
815.047	29.14
815.222	31.89
815.397	31.6
815.572	31.29
815.747	31.05
815.922	29.89
816.097	29.46
816.272	29.95
816.447	28.67
816.622	29.24
816.797	30.18
816.972	30.78
817.147	28.09
817.322	26.84
817.496	26.89
817.671	26.66
817.846	27.03
818.021	29.36
818.196	28.95
818.371	28.99
818.545	28.23
818.72	28.3
818.895	27.79
819.069	27.48
819.244	28.76
819.419	28.95
819.594	28.69
819.768	29.25
819.943	29.22
820.117	29.65
820.292	30.08
820.467	30.12
820.641	29.79
820.816	30.43
820.99	30.23
821.165	29.81
821.339	29.54
821.514	29.56
821.688	29.37
821.863	29.25
822.037	29.3
822.212	29.14
822.386	29.1
822.56	29.38
822.735	29.02
822.909	29.25
823.084	29.44
823.258	29.54
823.432	29.56
823.606	29.45
823.781	29.33
823.955	29.15
824.129	28.88
824.303	29.06
824.478	28.92
824.652	29.03
824.826	28.84
825	28.73
825.174	28.93
825.348	29.28
825.523	29.24
825.697	29.1
825.871	28.99
826.045	29.38
826.219	29.19
826.393	29.01
826.567	28.84
826.741	29.38
826.915	29.69
827.089	29.53
827.263	29.48
827.437	29.92
827.611	30.38
827.784	30.61
827.958	30.61
828.132	30.43
828.306	29.97
828.48	30.06
828.654	29.87
828.827	29.46
829.001	29.69
829.175	29.44
829.349	28.89
829.522	28.75
829.696	28.18
829.87	27.87
830.044	28.13
830.217	29.2
830.391	28.6
830.565	28.26
830.738	28.5
830.912	26.65
831.085	27.26
831.259	27.39
831.432	27.39
831.606	27.18
831.779	28.25
831.953	28.85
832.126	28.44
832.3	29.51
832.473	29.58
832.647	29.83
832.82	30.92
832.994	29.97
833.167	29.69
833.34	29.12
833.514	29.93
833.687	29.64
833.86	29.23
834.034	29.01
834.207	28.3
834.38	28.51
834.553	28.25
834.727	27.84
834.9	27.69
835.073	28.67
835.246	28.91
835.419	28.56
835.593	28.39
835.766	29.28
835.939	30.76
836.112	31.82
836.285	31.59
836.458	32.22
836.631	32.67
836.804	33.61
836.977	33.77
837.15	34.42
837.323	34.68
837.496	33.81
837.669	33.44
837.842	32.96
838.015	32.83
838.188	33.4
838.361	33.27
838.533	32.44
838.706	32.11
838.879	29.93
839.052	29.7
839.225	30.33
839.398	31.14
839.57	32.47
839.743	31.75
839.916	32.47
840.088	31.2
840.261	30.91
840.434	30.25
840.607	29.5
840.779	31.12
840.952	29.97
841.124	28.1
841.297	26.85
841.47	25.29
841.642	25.91
841.815	24.77
841.987	24.5
842.16	22.68
842.332	24.8
842.505	28.39
842.677	29.07
842.85	29.73
843.022	30.28
843.194	31.56
843.367	31.15
843.539	32.5
843.712	33.18
843.884	35.34
844.056	36.27
844.229	37.22
844.401	35.76
844.573	33.84
844.745	35.39
844.918	35.6
845.09	37.51
845.262	33
845.434	28.07
845.606	23.54
845.779	20.7
845.951	19.53
846.123	18.26
846.295	20.69
846.467	19.97
846.639	17.54
846.811	20.02
846.983	22.26
847.155	27.94
847.327	29.32
847.499	34.15
847.671	33.01
847.843	31.8
848.015	31.72
848.187	28.39
848.359	29.18
848.531	31.05
848.703	28.55
848.875	27.92
849.047	27.45
849.218	29.35
849.39	25.91
849.562	28.76
849.734	29.86
849.905	31.88
850.077	34.57
850.249	35.41
850.421	34.43
850.592	32.71
850.764	31.18
850.936	30.21
851.107	30.16
851.279	34.72
851.451	33.56
851.622	34.69
851.794	34.29
851.965	29.18
852.137	32.43
852.308	34.13
852.48	37.8
852.651	37.56
852.823	38.63
852.994	37.02
853.166	33.17
853.337	32.55
853.509	30.49
853.68	28.4
853.851	29.8
854.023	27.23
854.194	27.8
854.365	27.65
854.537	22.67
854.708	24.53
854.879	23.13
855.05	25.08
855.222	22.93
855.393	26.66
855.564	25.12
855.735	27.27
855.906	26.1
856.078	26.6
856.249	22.32
856.42	25.38
856.591	19.59
856.762	20
856.933	21.43
857.104	23.29
857.275	24.72
857.446	24.35
857.617	24.92
857.788	22.55
857.959	19.06
858.13	24.49
858.301	23.36
858.472	27.33
858.643	28.75
858.814	28.46
858.985	29.73
859.155	27.01
859.326	30.18
859.497	32.79
859.668	38.85
859.839	39.96
860.009	38.62
860.18	41.64
860.351	38.83
860.522	37.25
860.692	30.29
860.863	30.75
861.034	32.59
861.204	33.41
861.375	30.59
861.546	28.63
861.716	29.49
861.887	26.64
862.057	25.15
862.228	27.52
862.398	31.49
862.569	38.91
862.739	40.59
862.91	37.85
863.08	35.24
863.251	38.06
863.421	38.5
863.592	41.61
863.762	36.68
863.932	39.93
864.103	39.11
864.273	33.01
864.443	31.55
864.614	31.45
864.784	31.45
864.954	30.78
865.125	25.98
865.295	29.39
865.465	26.92
865.635	33.39
865.805	35.6
865.976	34.53
866.146	41.7
866.316	38.93
866.486	35.5
866.656	31.48
866.826	36.76
866.996	39.49
867.166	39.73
867.336	39.47
867.506	36.71
867.676	36.6
867.846	36.1
868.016	32.27
868.186	33.29
868.356	35.49
868.526	39.19
868.696	34.19
868.866	34.5
869.036	29.36
869.206	26.39
869.376	27.9
869.545	23.01
869.715	26.29
869.885	28.37
870.055	27.35
870.224	24.83
870.394	27.96
870.564	26.42
870.734	22.12
870.903	24.78
871.073	31.55
871.243	30.57
871.412	25.93
871.582	24.89
871.751	23.09
871.921	24.87
872.091	24.24
872.26	24.78
872.43	22.48
872.599	23.49
872.769	21
872.938	17.19
873.108	18.49
873.277	25.03
873.446	21.78
873.616	20.41
873.785	18.61
873.955	22.57
874.124	22.44
874.293	27.61
874.463	27.97
874.632	33.51
874.801	37.81
874.971	37.76
875.14	35.21
875.309	34.65
875.478	36.01
875.647	38.2
875.817	42.1
875.986	40.29
876.155	40.5
876.324	43.39
876.493	43.74
876.662	42.29
876.831	42.49
877	43.23
877.17	46.3
877.339	45.15
877.508	46.38
877.677	42.42
877.846	45.15
878.015	44.75
878.184	42.44
878.352	40.3
878.521	40.89
878.69	38.58
878.859	36.89
879.028	35.66
879.197	36.22
879.366	32.01
879.534	32.79
879.703	31.05
879.872	30.79
880.041	30.85
880.21	31.25
880.378	28.8
880.547	29.63
880.716	28.87
880.884	30.02
881.053	30.59
881.222	30.34
881.39	30.95
881.559	30.95
881.727	30.93
881.896	31.16
882.065	30.33
882.233	29.76
882.402	29.71
882.57	30.1
882.739	29.9
882.907	29.68
883.076	30.11
883.244	29.58
883.412	29.6
883.581	28.62
883.749	28.23
883.918	28.4
884.086	29.05
884.254	28.78
884.423	28.84
884.591	28.4
884.759	28.72
884.927	30.11
885.096	29.21
885.264	28.92
885.432	30.98
885.6	30.9
885.769	31.88
885.937	32.35
886.105	32.44
886.273	33.31
886.441	33.14
886.609	32.93
886.777	31.89
886.945	31.79
887.113	34.47
887.281	31.19
887.449	30.82
887.617	25.31
887.785	28.02
887.953	26.78
888.121	26.2
888.289	27.36
888.457	26.78
888.625	25.02
888.793	25.56
888.961	22.06
889.129	22.91
889.296	25.2
889.464	28.81
889.632	26.82
889.8	29.74
889.967	30.03
890.135	29.05
