Data from 2938478_Reflection_1.txt Node
Date: Wed Jun 17 01:22:44 EDT 2015
User: robert
Spectrometer: USB4E03002
Autoset integration time: false
Trigger mode: 4
Integration Time (sec): 1.000000E-1
Scans to average: 10
Electric dark correction enabled: true
Nonlinearity correction enabled: false
Boxcar width: 5
Stray light correction enabled: false
XAxis mode: Wavelengths
Stop averaging: false
Number of Pixels in Spectrum: 3648
>>>>>Begin Spectral Data<<<<<
177.575	-8.71
177.794	-30.46
178.014	-32.97
178.233	-58.07
178.452	-37.35
178.672	39.65
178.891	72.25
179.11	-140.83
179.33	-243.41
179.549	-150.76
179.768	-98.65
179.987	-83.86
180.207	-87.9
180.426	-25.96
180.645	-13.75
180.864	-13.37
181.084	27.98
181.303	18.95
181.522	29.92
181.741	28.34
181.96	45.02
182.179	60.9
182.398	49.59
182.618	52.31
182.837	46.89
183.056	1566.67
183.275	57.76
183.494	93.8
183.713	77.8
183.932	87.67
184.151	56.81
184.37	70.09
184.589	66.78
184.808	67.6
185.027	66.07
185.246	92.87
185.465	140.36
185.684	184
185.903	-657.66
186.122	175.12
186.341	86.97
186.56	-163.57
186.779	2393.94
186.998	284.92
187.216	309.12
187.435	259.16
187.654	123.52
187.873	263.03
188.092	262.24
188.311	937.87
188.53	44.58
188.748	-308.45
188.967	-500.18
189.186	498.17
189.405	501.23
189.623	287.54
189.842	363.85
190.061	174.45
190.28	174.35
190.498	255.55
190.717	-352.48
190.936	75.93
191.154	-64.73
191.373	-163.4
191.592	940.13
191.81	389.13
192.029	56.87
192.248	-253.67
192.466	-114.1
192.685	7.78
192.904	-5.39
193.122	31.9
193.341	30.93
193.559	68.62
193.778	26.67
193.996	40.92
194.215	39.98
194.433	26.46
194.652	34.1
194.87	34.64
195.089	48.45
195.307	49.39
195.526	23.58
195.744	26.39
195.963	32.46
196.181	39.58
196.399	27.5
196.618	23.5
196.836	24.6
197.055	12.07
197.273	-78.85
197.491	-131.78
197.71	-7.16
197.928	37.9
198.146	52.19
198.365	-6621.05
198.583	-623.15
198.801	1119.13
199.019	-458.46
199.238	-210.66
199.456	-39.67
199.674	19.48
199.892	9.6
200.111	-41.97
200.329	-130.17
200.547	-53.68
200.765	-60.47
200.983	30.89
201.202	40.33
201.42	-76.41
201.638	-0.8
201.856	41.13
202.074	-12.04
202.292	-22.88
202.51	28.11
202.728	62.77
202.946	48.36
203.165	72.47
203.383	83.64
203.601	40.57
203.819	92.4
204.037	184.72
204.255	143.87
204.473	23.2
204.691	119.42
204.909	98.39
205.127	99.88
205.345	86.96
205.562	85.94
205.78	109.8
205.998	135.52
206.216	263.28
206.434	200.48
206.652	121.62
206.87	115.47
207.088	61.72
207.306	37.27
207.523	82.44
207.741	137.3
207.959	205.87
208.177	306.6
208.395	421.74
208.612	103.28
208.83	3201.89
209.048	-97.26
209.266	-127.72
209.483	-77.05
209.701	-157.29
209.919	-109.76
210.136	-19.88
210.354	1275.41
210.572	16.92
210.79	117.58
211.007	131.74
211.225	297.04
211.442	302.02
211.66	286.57
211.878	365.71
212.095	603.29
212.313	-108.01
212.53	-102.6
212.748	-35.74
212.966	-51.02
213.183	8.61
213.401	-504.28
213.618	54.79
213.836	101.4
214.053	107.08
214.271	107.81
214.488	169.06
214.705	103.55
214.923	6.32
215.14	2.31
215.358	-155.78
215.575	-129.29
215.793	-36.81
216.01	-57.48
216.227	-229.92
216.445	-236.79
216.662	-88.42
216.879	-105.3
217.097	-115.93
217.314	-39.89
217.531	-3.61
217.749	54.21
217.966	36.72
218.183	39.11
218.4	28.94
218.618	24.36
218.835	35.88
219.052	15.38
219.269	22.37
219.487	23.78
219.704	21.04
219.921	4.43
220.138	-8.06
220.355	0.39
220.572	-4.83
220.79	-2.64
221.007	11.34
221.224	16.83
221.441	14.43
221.658	4.99
221.875	-11.28
222.092	-11.6
222.309	-2.78
222.526	0.9
222.743	8.47
222.96	10.46
223.177	6.9
223.394	4.15
223.611	3.4
223.828	5.85
224.045	13.14
224.262	17.19
224.479	13.36
224.696	10.88
224.913	10.47
225.13	10.18
225.347	9.88
225.564	9.61
225.781	11.07
225.997	9.08
226.214	8.9
226.431	6.95
226.648	6.43
226.865	7.62
227.082	7.03
227.298	8.1
227.515	6.65
227.732	7.23
227.949	7.84
228.165	5.97
228.382	6.12
228.599	5.08
228.816	5.74
229.032	5.97
229.249	5.55
229.466	7.44
229.682	7.31
229.899	9.17
230.116	10.7
230.332	10.34
230.549	11.21
230.765	13.54
230.982	16.73
231.199	16.54
231.415	18.01
231.632	17.68
231.848	15.62
232.065	15.47
232.281	15.15
232.498	11.16
232.714	10.27
232.931	11.27
233.147	8.59
233.364	6.19
233.58	4.64
233.797	3.58
234.013	3.59
234.23	4.44
234.446	2.94
234.662	1.12
234.879	4.87
235.095	4.34
235.312	4.09
235.528	5.53
235.744	5.7
235.961	8.24
236.177	9.76
236.393	10.08
236.61	11.87
236.826	11.91
237.042	12.74
237.258	12.33
237.475	15.35
237.691	15.86
237.907	13.92
238.123	15.11
238.339	12.9
238.556	11.7
238.772	11.73
238.988	9.48
239.204	10.82
239.42	11.11
239.636	10.19
239.853	9.81
240.069	9.86
240.285	9.96
240.501	9.79
240.717	10.23
240.933	8.87
241.149	8.95
241.365	9.88
241.581	9.43
241.797	9.38
242.013	9.95
242.229	9.94
242.445	9.72
242.661	10.1
242.877	10.36
243.093	10.7
243.309	11.54
243.525	11.4
243.741	10.64
243.957	10.67
244.173	10.53
244.388	9.61
244.604	9.65
244.82	9.63
245.036	9.25
245.252	9.18
245.468	8.8
245.683	8.64
245.899	8.64
246.115	8.29
246.331	8.2
246.547	8.06
246.762	8.13
246.978	8.12
247.194	8.12
247.409	8.06
247.625	7.66
247.841	7.75
248.057	8.13
248.272	7.5
248.488	7.19
248.703	7.03
248.919	8.04
249.135	9.11
249.35	7.68
249.566	7.5
249.782	8.71
249.997	7.74
250.213	7.4
250.428	6.98
250.644	7.25
250.859	7.38
251.075	6.91
251.29	5.65
251.506	4.52
251.721	5.44
251.937	4.76
252.152	4.09
252.368	4.88
252.583	5.09
252.798	5.5
253.014	6.2
253.229	6.8
253.445	6.73
253.66	6.95
253.875	9.06
254.091	8.96
254.306	9.47
254.521	8.89
254.737	9
254.952	9.12
255.167	8.01
255.383	7.64
255.598	8
255.813	7.88
256.028	7.28
256.244	5.29
256.459	5
256.674	5.27
256.889	5.23
257.104	5.53
257.32	5.72
257.535	5.92
257.75	5.71
257.965	5.4
258.18	5.61
258.395	5.56
258.61	6.02
258.826	6.02
259.041	6.04
259.256	5.89
259.471	5.56
259.686	5.25
259.901	5.11
260.116	4.68
260.331	4.56
260.546	4.83
260.761	5.09
260.976	4.52
261.191	3.96
261.406	3.53
261.621	3.93
261.836	3.79
262.05	3.85
262.265	4.89
262.48	5.48
262.695	5.71
262.91	4.64
263.125	3.52
263.34	4.05
263.555	5
263.769	4.8
263.984	5.25
264.199	5.99
264.414	5.87
264.629	5.65
264.843	6.26
265.058	6.44
265.273	6.25
265.488	6.78
265.702	6.26
265.917	5.66
266.132	5.66
266.346	5.68
266.561	5.51
266.776	5.53
266.99	5.36
267.205	4.8
267.42	4.44
267.634	4.51
267.849	4.66
268.063	4.85
268.278	4.84
268.492	5.15
268.707	4.46
268.922	4.29
269.136	3.88
269.351	3.72
269.565	4.16
269.78	4.6
269.994	4.64
270.209	4.55
270.423	4.5
270.637	4.81
270.852	4.51
271.066	5.07
271.281	4.83
271.495	5.18
271.709	4.97
271.924	4.61
272.138	4.54
272.353	4.56
272.567	4.8
272.781	4.96
272.996	4.42
273.21	4.75
273.424	4.01
273.638	4.52
273.853	3.93
274.067	4.22
274.281	4.09
274.495	3.96
274.71	4.07
274.924	3.64
275.138	4.04
275.352	4.6
275.566	4.63
275.781	4.39
275.995	4.48
276.209	5.04
276.423	5.31
276.637	5.71
276.851	5.85
277.065	5.81
277.279	5.84
277.493	5.56
277.707	5.89
277.921	5.51
278.135	5.44
278.349	5.26
278.563	5.41
278.777	4.48
278.991	4.48
279.205	4.09
279.419	4.6
279.633	4.58
279.847	4.24
280.061	4.14
280.275	4.56
280.489	4.79
280.703	4.78
280.917	4.86
281.131	5.1
281.344	4.67
281.558	5.02
281.772	4.86
281.986	5.66
282.2	5.95
282.414	5.71
282.627	5.47
282.841	5.72
283.055	5.59
283.269	5.52
283.482	5.8
283.696	5.92
283.91	5.65
284.123	5.41
284.337	4.89
284.551	4.66
284.764	4.45
284.978	4.51
285.192	4.56
285.405	4.15
285.619	4.04
285.833	3.87
286.046	4.22
286.26	4.23
286.473	4.25
286.687	4.42
286.9	4.55
287.114	4.75
287.327	4.8
287.541	4.97
287.754	5.73
287.968	5.44
288.181	5.5
288.395	5.34
288.608	5.37
288.822	5.59
289.035	5.42
289.248	5.32
289.462	5.16
289.675	4.99
289.889	5.01
290.102	4.68
290.315	5.38
290.529	5
290.742	4.9
290.955	4.87
291.169	4.93
291.382	4.93
291.595	5.42
291.808	5.63
292.022	5.59
292.235	5.07
292.448	5.42
292.661	4.85
292.875	5.55
293.088	5.71
293.301	5.82
293.514	5.6
293.727	5.57
293.94	5.52
294.153	5.69
294.367	5.64
294.58	6.05
294.793	5.89
295.006	6.28
295.219	6.11
295.432	5.94
295.645	6.09
295.858	6.19
296.071	6.11
296.284	5.85
296.497	5.88
296.71	5.86
296.923	5.7
297.136	5.53
297.349	5.18
297.562	5.11
297.775	4.93
297.988	4.81
298.201	4.25
298.414	4.47
298.626	4.73
298.839	4.58
299.052	4.68
299.265	4.73
299.478	5.46
299.691	5.62
299.903	5.59
300.116	5.59
300.329	5.53
300.542	6.48
300.755	6.64
300.967	6.62
301.18	6.99
301.393	7.38
301.605	7.59
301.818	6.74
302.031	6.87
302.243	6.4
302.456	6.53
302.669	6.69
302.881	6.09
303.094	6.52
303.307	6.7
303.519	6.48
303.732	6
303.944	5.97
304.157	6.16
304.37	6.05
304.582	6.79
304.795	7.48
305.007	7.4
305.22	7.9
305.432	7.29
305.645	7.15
305.857	6.82
306.069	7.48
306.282	7.56
306.494	7.72
306.707	8.25
306.919	7.95
307.132	7.23
307.344	6.77
307.556	6.14
307.769	6.18
307.981	6.1
308.193	6.53
308.406	6.47
308.618	6.09
308.83	5.95
309.043	5.65
309.255	6.08
309.467	6.34
309.679	6.64
309.892	7.12
310.104	7.13
310.316	7.16
310.528	6.86
310.74	6.9
310.953	6.92
311.165	7.07
311.377	6.93
311.589	6.52
311.801	6.58
312.013	6.67
312.225	6.68
312.437	6.44
312.649	6.13
312.862	6.11
313.074	5.8
313.286	6.39
313.498	5.97
313.71	6.12
313.922	6.61
314.134	6.43
314.346	6.42
314.558	6.53
314.77	6.92
314.982	7.46
315.193	7.46
315.405	7.52
315.617	7.11
315.829	7.44
316.041	7.38
316.253	7.01
316.465	7.11
316.677	6.9
316.888	6.58
317.1	6.4
317.312	6.22
317.524	6.45
317.736	6.37
317.947	6.59
318.159	6.53
318.371	6.19
318.583	6.39
318.794	6.55
319.006	6.66
319.218	6.53
319.43	6.75
319.641	6.96
319.853	7.05
320.064	7.21
320.276	7.16
320.488	6.84
320.699	7.24
320.911	7.01
321.123	6.71
321.334	7.16
321.546	7.21
321.757	7.01
321.969	6.76
322.18	6.76
322.392	6.67
322.603	5.91
322.815	6.25
323.026	6.55
323.238	7.06
323.449	7.5
323.661	7.09
323.872	7.03
324.083	7.25
324.295	7.55
324.506	7.1
324.718	7.06
324.929	7.75
325.14	7.79
325.352	7.34
325.563	6.93
325.774	7.1
325.986	7.75
326.197	8.16
326.408	7.86
326.62	7.91
326.831	8.1
327.042	8.38
327.253	8.28
327.464	8.5
327.676	8.67
327.887	8.73
328.098	8.32
328.309	8.13
328.52	8.28
328.732	8.3
328.943	8.17
329.154	8.26
329.365	8.25
329.576	8.53
329.787	8.73
329.998	8.98
330.209	9.32
330.42	9.6
330.631	9.38
330.842	8.88
331.053	9.2
331.264	8.94
331.475	9.12
331.686	9.07
331.897	8.55
332.108	8.53
332.319	8.69
332.53	8.77
332.741	8.48
332.952	8.3
333.163	8.31
333.374	8.21
333.585	8.52
333.795	8.5
334.006	8.46
334.217	9.02
334.428	9.18
334.639	8.58
334.849	8.04
335.06	8.49
335.271	8.91
335.482	9.04
335.692	8.98
335.903	8.86
336.114	9.17
336.325	9.4
336.535	9.38
336.746	9.1
336.957	9.43
337.167	9.64
337.378	9.12
337.589	9.18
337.799	9.28
338.01	9.44
338.22	9.57
338.431	9.38
338.642	9.08
338.852	8.72
339.063	9.05
339.273	9.21
339.484	9.15
339.694	9.12
339.905	8.69
340.115	8.61
340.326	8.49
340.536	8.44
340.746	8.16
340.957	8.19
341.167	8.25
341.378	7.94
341.588	7.48
341.799	7.41
342.009	7.37
342.219	7.33
342.43	7.38
342.64	7
342.85	6.76
343.061	6.83
343.271	7.05
343.481	7.05
343.691	6.92
343.902	7.23
344.112	7.56
344.322	7.65
344.532	7.69
344.743	7.73
344.953	8.12
345.163	8.18
345.373	8.29
345.583	7.94
345.793	7.84
346.004	8.26
346.214	8.34
346.424	7.98
346.634	7.88
346.844	7.87
347.054	7.91
347.264	7.97
347.474	7.65
347.684	7.66
347.894	7.96
348.104	8.4
348.314	8.23
348.524	7.72
348.734	7.92
348.944	8.01
349.154	8.03
349.364	7.99
349.574	7.76
349.784	8.05
349.994	8.08
350.204	8.04
350.413	7.88
350.623	8.1
350.833	8.51
351.043	8.19
351.253	8.22
351.463	8.45
351.672	7.91
351.882	7.95
352.092	8.28
352.302	8.21
352.511	8.12
352.721	7.88
352.931	7.75
353.141	7.47
353.35	7.91
353.56	7.77
353.77	7.62
353.979	8.02
354.189	8.18
354.399	8.13
354.608	8.01
354.818	7.96
355.027	7.97
355.237	7.78
355.447	7.75
355.656	7.7
355.866	7.94
356.075	7.91
356.285	7.99
356.494	7.63
356.704	7.37
356.913	7.55
357.123	7.68
357.332	7.84
357.542	7.83
357.751	7.73
357.96	7.63
358.17	7.65
358.379	7.73
358.589	7.75
358.798	7.89
359.007	7.94
359.217	7.56
359.426	7.16
359.635	7.07
359.845	7.03
360.054	7.29
360.263	7.27
360.472	7.05
360.682	6.96
360.891	7.03
361.1	7.19
361.309	7.19
361.519	7.69
361.728	7.84
361.937	7.89
362.146	8.01
362.355	8.03
362.564	8.03
362.774	8.17
362.983	8.28
363.192	8.02
363.401	7.89
363.61	7.95
363.819	7.39
364.028	7.6
364.237	7.7
364.446	7.49
364.655	7.37
364.864	7.51
365.073	7.53
365.282	7.54
365.491	7.53
365.7	7.4
365.909	7.34
366.118	7.51
366.327	7.41
366.536	7.08
366.745	7.1
366.954	7.01
367.162	6.73
367.371	6.79
367.58	6.65
367.789	6.93
367.998	6.87
368.207	6.91
368.415	6.8
368.624	6.94
368.833	7.25
369.042	7.31
369.25	7.35
369.459	7.63
369.668	7.54
369.877	7.54
370.085	7.16
370.294	7.49
370.503	7.32
370.711	7.45
370.92	7.4
371.129	7.35
371.337	7.23
371.546	7.19
371.754	7.28
371.963	7.35
372.171	7.36
372.38	7.37
372.589	7.23
372.797	7.2
373.006	7.43
373.214	7.23
373.423	7.02
373.631	7.08
373.84	6.97
374.048	6.8
374.256	6.66
374.465	6.7
374.673	6.86
374.882	6.88
375.09	6.7
375.298	6.57
375.507	6.54
375.715	6.45
375.923	6.69
376.132	6.76
376.34	6.58
376.548	6.58
376.757	6.39
376.965	6.38
377.173	6.41
377.381	6.53
377.59	6.47
377.798	6.45
378.006	6.61
378.214	6.5
378.423	6.57
378.631	6.48
378.839	6.45
379.047	6.54
379.255	6.47
379.463	6.21
379.671	6.6
379.879	6.37
380.088	6.49
380.296	6.28
380.504	6.07
380.712	5.81
380.92	5.84
381.128	5.61
381.336	5.56
381.544	5.37
381.752	5.28
381.96	4.83
382.168	4.91
382.376	4.99
382.584	5.14
382.791	5.35
382.999	5.77
383.207	5.77
383.415	5.83
383.623	5.9
383.831	5.95
384.039	6.08
384.247	6.15
384.454	6.17
384.662	6.12
384.87	6.07
385.078	6.03
385.285	5.7
385.493	5.64
385.701	5.65
385.909	5.43
386.116	5.54
386.324	5.66
386.532	5.56
386.739	5.37
386.947	5.45
387.155	5.37
387.362	5.22
387.57	5.15
387.778	5.2
387.985	5.25
388.193	5.31
388.4	5.17
388.608	4.97
388.816	5.06
389.023	5.28
389.231	5.13
389.438	5.17
389.646	5.11
389.853	5.2
390.061	4.99
390.268	5.01
390.475	5.13
390.683	5.1
390.89	4.95
391.098	4.94
391.305	4.84
391.512	4.73
391.72	4.85
391.927	4.88
392.135	4.91
392.342	4.92
392.549	4.89
392.756	4.72
392.964	4.77
393.171	4.87
393.378	4.76
393.586	4.77
393.793	4.82
394	4.55
394.207	4.44
394.414	4.52
394.622	4.7
394.829	4.66
395.036	4.71
395.243	4.59
395.45	4.85
395.657	5.03
395.864	4.99
396.072	4.88
396.279	5.08
396.486	4.99
396.693	4.93
396.9	4.89
397.107	4.91
397.314	4.81
397.521	4.87
397.728	4.83
397.935	4.82
398.142	4.65
398.349	4.65
398.556	4.37
398.763	4.68
398.97	4.5
399.177	4.58
399.383	4.62
399.59	4.64
399.797	4.78
400.004	4.47
400.211	4.49
400.418	4.71
400.625	4.86
400.831	4.85
401.038	4.76
401.245	4.85
401.452	4.71
401.658	4.69
401.865	4.85
402.072	4.58
402.279	4.59
402.485	4.42
402.692	4.3
402.899	4.18
403.105	4.35
403.312	4.25
403.519	4.16
403.725	4.18
403.932	4.21
404.138	4.06
404.345	4.19
404.552	4.17
404.758	4.16
404.965	4.17
405.171	4.22
405.378	4.1
405.584	4.06
405.791	4.14
405.997	4.07
406.204	4.03
406.41	3.84
406.617	3.82
406.823	3.82
407.029	3.91
407.236	3.93
407.442	3.85
407.649	3.94
407.855	3.88
408.061	3.82
408.268	3.76
408.474	3.71
408.68	3.64
408.887	3.62
409.093	3.66
409.299	3.49
409.505	3.52
409.712	3.58
409.918	3.66
410.124	3.73
410.33	3.69
410.537	3.89
410.743	3.93
410.949	3.96
411.155	3.83
411.361	3.85
411.567	3.84
411.773	3.93
411.98	3.69
412.186	3.44
412.392	3.37
412.598	3.33
412.804	3.28
413.01	3.34
413.216	3.53
413.422	3.67
413.628	3.73
413.834	3.71
414.04	3.61
414.246	3.76
414.452	3.9
414.658	3.94
414.864	3.98
415.07	3.86
415.275	3.77
415.481	3.72
415.687	3.76
415.893	3.69
416.099	3.84
416.305	3.77
416.511	3.83
416.716	3.71
416.922	3.76
417.128	3.85
417.334	3.89
417.539	3.83
417.745	3.82
417.951	3.8
418.157	3.81
418.362	3.74
418.568	3.73
418.774	3.69
418.979	3.72
419.185	3.71
419.391	3.57
419.596	3.54
419.802	3.57
420.008	3.63
420.213	3.72
420.419	3.72
420.624	3.62
420.83	3.6
421.035	3.59
421.241	3.62
421.446	3.54
421.652	3.6
421.857	3.58
422.063	3.58
422.268	3.59
422.474	3.47
422.679	3.39
422.885	3.5
423.09	3.46
423.295	3.5
423.501	3.55
423.706	3.6
423.911	3.58
424.117	3.73
424.322	3.78
424.527	3.72
424.733	3.7
424.938	3.77
425.143	3.8
425.349	3.8
425.554	3.71
425.759	3.64
425.964	3.59
426.169	3.55
426.375	3.35
426.58	3.14
426.785	3.14
426.99	3.21
427.195	3.16
427.4	3.15
427.605	3.21
427.811	3.24
428.016	3.21
428.221	3.21
428.426	3.24
428.631	3.31
428.836	3.52
429.041	3.62
429.246	3.57
429.451	3.56
429.656	3.43
429.861	3.56
430.066	3.56
430.271	3.63
430.476	3.58
430.681	3.63
430.886	3.51
431.09	3.36
431.295	3.24
431.5	3.18
431.705	3.23
431.91	3.32
432.115	3.31
432.32	3.31
432.524	3.24
432.729	3.24
432.934	3.13
433.139	3.16
433.343	3.2
433.548	3.27
433.753	3.26
433.958	3.27
434.162	3.35
434.367	3.3
434.572	3.4
434.776	3.37
434.981	3.42
435.186	3.4
435.39	3.39
435.595	3.43
435.799	3.45
436.004	3.5
436.209	3.48
436.413	3.36
436.618	3.39
436.822	3.35
437.027	3.38
437.231	3.32
437.436	3.39
437.64	3.43
437.845	3.37
438.049	3.33
438.253	3.33
438.458	3.28
438.662	3.26
438.867	3.29
439.071	3.32
439.275	3.35
439.48	3.43
439.684	3.47
439.888	3.44
440.093	3.47
440.297	3.46
440.501	3.51
440.706	3.58
440.91	3.58
441.114	3.51
441.318	3.45
441.523	3.34
441.727	3.34
441.931	3.25
442.135	3.29
442.339	3.18
442.543	3.18
442.748	3.08
442.952	3.02
443.156	3.12
443.36	3.07
443.564	3.11
443.768	3.2
443.972	3.15
444.176	3.16
444.38	3.18
444.584	3.29
444.788	3.25
444.992	3.25
445.196	3.3
445.4	3.29
445.604	3.37
445.808	3.33
446.012	3.36
446.216	3.35
446.42	3.43
446.624	3.42
446.828	3.45
447.032	3.49
447.235	3.46
447.439	3.38
447.643	3.37
447.847	3.3
448.051	3.29
448.254	3.18
448.458	3.25
448.662	3.2
448.866	3.21
449.069	3.2
449.273	3.28
449.477	3.41
449.681	3.45
449.884	3.31
450.088	3.33
450.292	3.41
450.495	3.49
450.699	3.48
450.902	3.44
451.106	3.39
451.31	3.2
451.513	3.09
451.717	3.04
451.92	3.03
452.124	3.09
452.327	3.12
452.531	3.01
452.734	3.03
452.938	3.05
453.141	3.05
453.345	3.14
453.548	3.29
453.752	3.33
453.955	3.29
454.158	3.24
454.362	3.19
454.565	3.19
454.769	3.11
454.972	2.95
455.175	2.89
455.379	2.87
455.582	2.82
455.785	2.86
455.988	2.75
456.192	2.87
456.395	2.91
456.598	3
456.801	3.02
457.005	3.12
457.208	3.18
457.411	3.13
457.614	3.14
457.817	3.09
458.021	3.08
458.224	3.09
458.427	3.04
458.63	3.1
458.833	3.1
459.036	3.1
459.239	3.11
459.442	3.14
459.645	3.28
459.848	3.37
460.051	3.42
460.254	3.45
460.457	3.58
460.66	3.63
460.863	3.65
461.066	3.7
461.269	3.69
461.472	3.63
461.675	3.69
461.878	3.61
462.081	3.49
462.284	3.43
462.486	3.31
462.689	3.27
462.892	3.23
463.095	3.11
463.298	3.16
463.5	3.24
463.703	3.26
463.906	3.14
464.109	3.12
464.311	3.16
464.514	3.31
464.717	3.34
464.92	3.35
465.122	3.41
465.325	3.49
465.528	3.44
465.73	3.38
465.933	3.37
466.135	3.48
466.338	3.45
466.541	3.47
466.743	3.33
466.946	3.33
467.148	3.28
467.351	3.24
467.553	3.19
467.756	3.18
467.958	3.16
468.161	3.22
468.363	3.1
468.566	3.12
468.768	3.05
468.971	3.08
469.173	3.08
469.375	3.1
469.578	3.03
469.78	3.07
469.983	3.05
470.185	3.12
470.387	3.04
470.59	3.11
470.792	3.16
470.994	3.2
471.196	3.29
471.399	3.25
471.601	3.33
471.803	3.34
472.005	3.38
472.208	3.48
472.41	3.36
472.612	3.55
472.814	3.63
473.016	3.62
473.218	3.61
473.421	3.57
473.623	3.62
473.825	3.53
474.027	3.58
474.229	3.5
474.431	3.41
474.633	3.42
474.835	3.27
475.037	3.24
475.239	3.21
475.441	3.23
475.643	3.19
475.845	3.28
476.047	3.39
476.249	3.39
476.451	3.41
476.653	3.37
476.855	3.42
477.057	3.44
477.258	3.45
477.46	3.47
477.662	3.42
477.864	3.35
478.066	3.36
478.268	3.28
478.469	3.27
478.671	3.28
478.873	3.34
479.075	3.3
479.276	3.32
479.478	3.23
479.68	3.2
479.882	3.23
480.083	3.28
480.285	3.2
480.487	3.19
480.688	3.18
480.89	3.15
481.091	3.16
481.293	3.16
481.495	3.14
481.696	3.18
481.898	3.2
482.099	3.2
482.301	3.2
482.502	3.24
482.704	3.25
482.905	3.24
483.107	3.27
483.308	3.26
483.51	3.24
483.711	3.27
483.913	3.29
484.114	3.28
484.315	3.27
484.517	3.25
484.718	3.2
484.92	3.17
485.121	3.18
485.322	3.14
485.524	3.16
485.725	3.18
485.926	3.15
486.127	3.15
486.329	3.17
486.53	3.18
486.731	3.21
486.932	3.23
487.134	3.28
487.335	3.3
487.536	3.31
487.737	3.28
487.938	3.32
488.139	3.4
488.341	3.39
488.542	3.39
488.743	3.39
488.944	3.38
489.145	3.37
489.346	3.34
489.547	3.31
489.748	3.38
489.949	3.37
490.15	3.35
490.351	3.28
490.552	3.23
490.753	3.22
490.954	3.25
491.155	3.27
491.356	3.32
491.557	3.37
491.758	3.4
491.959	3.36
492.159	3.42
492.36	3.42
492.561	3.5
492.762	3.57
492.963	3.6
493.164	3.58
493.364	3.53
493.565	3.46
493.766	3.35
493.967	3.28
494.167	3.27
494.368	3.24
494.569	3.27
494.769	3.24
494.97	3.22
495.171	3.2
495.371	3.2
495.572	3.27
495.773	3.31
495.973	3.37
496.174	3.45
496.375	3.43
496.575	3.46
496.776	3.42
496.976	3.41
497.177	3.44
497.377	3.5
497.578	3.49
497.778	3.54
497.979	3.6
498.179	3.59
498.38	3.64
498.58	3.67
498.78	3.7
498.981	3.77
499.181	3.88
499.382	3.94
499.582	3.91
499.782	3.88
499.983	3.88
500.183	3.77
500.383	3.84
500.584	3.8
500.784	3.87
500.984	3.78
501.184	3.76
501.385	3.73
501.585	3.64
501.785	3.64
501.985	3.73
502.185	3.77
502.386	3.89
502.586	3.89
502.786	3.91
502.986	3.92
503.186	4.02
503.386	3.99
503.586	4.04
503.786	4.11
503.987	4.09
504.187	4.1
504.387	4.08
504.587	4.03
504.787	4.01
504.987	3.99
505.187	4.01
505.387	3.98
505.587	4.12
505.786	4.12
505.986	4.09
506.186	4.21
506.386	4.2
506.586	4.17
506.786	4.25
506.986	4.23
507.186	4.28
507.386	4.23
507.585	4.25
507.785	4.27
507.985	4.24
508.185	4.33
508.384	4.37
508.584	4.39
508.784	4.47
508.984	4.45
509.183	4.51
509.383	4.53
509.583	4.62
509.782	4.74
509.982	4.73
510.182	4.82
510.381	4.83
510.581	4.81
510.781	4.79
510.98	4.76
511.18	4.74
511.379	4.71
511.579	4.78
511.778	4.74
511.978	4.61
512.177	4.56
512.377	4.59
512.576	4.62
512.776	4.63
512.975	4.75
513.175	4.8
513.374	4.88
513.573	4.89
513.773	4.87
513.972	4.94
514.172	5.05
514.371	5.12
514.57	5.13
514.77	5.09
514.969	5.13
515.168	5.11
515.367	5.14
515.567	5.14
515.766	5.21
515.965	5.25
516.164	5.34
516.364	5.32
516.563	5.4
516.762	5.38
516.961	5.4
517.16	5.49
517.359	5.48
517.559	5.45
517.758	5.49
517.957	5.51
518.156	5.54
518.355	5.53
518.554	5.51
518.753	5.5
518.952	5.55
519.151	5.56
519.35	5.5
519.549	5.57
519.748	5.71
519.947	5.71
520.146	5.74
520.345	5.73
520.544	5.71
520.743	5.84
520.942	5.81
521.141	5.84
521.339	5.93
521.538	5.94
521.737	5.99
521.936	5.98
522.135	6.04
522.333	6.05
522.532	6.12
522.731	6.15
522.93	6.16
523.129	6.2
523.327	6.19
523.526	6.21
523.725	6.28
523.923	6.27
524.122	6.27
524.321	6.26
524.519	6.29
524.718	6.3
524.917	6.32
525.115	6.35
525.314	6.39
525.512	6.42
525.711	6.42
525.909	6.47
526.108	6.48
526.306	6.52
526.505	6.59
526.703	6.59
526.902	6.61
527.1	6.66
527.299	6.65
527.497	6.68
527.696	6.73
527.894	6.77
528.092	6.78
528.291	6.85
528.489	6.88
528.688	6.92
528.886	7.01
529.084	7.03
529.283	7.06
529.481	7.14
529.679	7.17
529.877	7.18
530.076	7.17
530.274	7.18
530.472	7.2
530.67	7.26
530.869	7.22
531.067	7.21
531.265	7.29
531.463	7.3
531.661	7.35
531.859	7.36
532.057	7.37
532.255	7.41
532.454	7.46
532.652	7.44
532.85	7.43
533.048	7.52
533.246	7.54
533.444	7.56
533.642	7.61
533.84	7.61
534.038	7.65
534.236	7.74
534.434	7.82
534.632	7.86
534.83	7.88
535.027	7.92
535.225	7.94
535.423	7.99
535.621	8
535.819	8.04
536.017	8.05
536.215	8.07
536.412	8.09
536.61	8.13
536.808	8.2
537.006	8.26
537.203	8.29
537.401	8.28
537.599	8.33
537.797	8.36
537.994	8.32
538.192	8.34
538.39	8.4
538.587	8.4
538.785	8.37
538.983	8.37
539.18	8.33
539.378	8.33
539.575	8.41
539.773	8.42
539.97	8.42
540.168	8.48
540.366	8.54
540.563	8.57
540.761	8.61
540.958	8.69
541.155	8.7
541.353	8.78
541.55	8.82
541.748	8.82
541.945	8.88
542.143	8.89
542.34	8.91
542.537	8.93
542.735	8.97
542.932	8.97
543.129	8.93
543.327	9.01
543.524	9.05
543.721	9.06
543.919	9.11
544.116	9.15
544.313	9.27
544.51	9.34
544.708	9.35
544.905	9.34
545.102	9.38
545.299	9.49
545.496	9.51
545.693	9.5
545.891	9.53
546.088	9.54
546.285	9.58
546.482	9.61
546.679	9.59
546.876	9.64
547.073	9.61
547.27	9.74
547.467	9.72
547.664	9.68
547.861	9.8
548.058	9.87
548.255	10.03
548.452	10.12
548.649	10.09
548.846	10.22
549.043	10.3
549.24	10.45
549.437	10.5
549.633	10.61
549.83	10.77
550.027	10.8
550.224	10.93
550.421	10.82
550.618	10.84
550.814	10.96
551.011	11
551.208	11.01
551.405	11.06
551.601	11.08
551.798	11.08
551.995	11.13
552.191	11.23
552.388	11.21
552.585	11.24
552.781	11.13
552.978	11.15
553.175	11.13
553.371	11.16
553.568	11.24
553.764	11.25
553.961	11.25
554.157	11.2
554.354	11.2
554.55	11.2
554.747	11.36
554.943	11.51
555.14	11.5
555.336	11.52
555.533	11.54
555.729	11.55
555.926	11.43
556.122	11.43
556.318	11.44
556.515	11.54
556.711	11.62
556.907	11.6
557.104	11.7
557.3	11.81
557.496	11.89
557.693	11.96
557.889	11.94
558.085	12.24
558.281	12.41
558.478	12.57
558.674	12.59
558.87	12.7
559.066	12.74
559.262	12.73
559.459	12.8
559.655	12.91
559.851	12.99
560.047	13.17
560.243	13.13
560.439	13.12
560.635	13.17
560.831	13.14
561.027	13.07
561.223	13.12
561.419	13.19
561.615	13.26
561.811	13.24
562.007	13.24
562.203	13.25
562.399	13.41
562.595	13.37
562.791	13.47
562.987	13.53
563.183	13.54
563.379	13.54
563.575	13.51
563.771	13.51
563.966	13.59
564.162	13.75
564.358	13.71
564.554	13.7
564.75	13.88
564.945	13.91
565.141	13.91
565.337	14.11
565.533	14.24
565.728	14.32
565.924	14.33
566.12	14.38
566.315	14.38
566.511	14.43
566.707	14.5
566.902	14.48
567.098	14.56
567.293	14.64
567.489	14.65
567.684	14.58
567.88	14.64
568.076	14.61
568.271	14.72
568.467	14.81
568.662	14.92
568.858	14.99
569.053	15
569.248	14.94
569.444	15.05
569.639	15.12
569.835	15.24
570.03	15.28
570.225	15.43
570.421	15.4
570.616	15.42
570.812	15.43
571.007	15.4
571.202	15.46
571.397	15.51
571.593	15.46
571.788	15.39
571.983	15.4
572.178	15.45
572.374	15.47
572.569	15.55
572.764	15.55
572.959	15.54
573.154	15.61
573.35	15.65
573.545	15.75
573.74	15.81
573.935	15.99
574.13	16.07
574.325	16.05
574.52	16.07
574.715	16.08
574.91	16.15
575.105	16.3
575.3	16.34
575.495	16.41
575.69	16.46
575.885	16.65
576.08	16.67
576.275	16.81
576.47	17.01
576.665	17.06
576.86	17.14
577.055	17.11
577.25	17.14
577.444	17.23
577.639	17.11
577.834	17.04
578.029	16.87
578.224	16.93
578.418	16.9
578.613	16.84
578.808	16.85
579.003	16.85
579.197	16.92
579.392	16.85
579.587	16.84
579.781	17
579.976	17.03
580.171	17.21
580.365	17.19
580.56	17.12
580.755	17.26
580.949	17.38
581.144	17.44
581.338	17.56
581.533	17.74
581.727	17.87
581.922	17.94
582.116	18.01
582.311	17.96
582.505	18.07
582.7	18.19
582.894	18.21
583.089	18.23
583.283	18.24
583.478	18.29
583.672	18.26
583.866	18.22
584.061	18.19
584.255	18.41
584.449	18.53
584.644	18.35
584.838	18.34
585.032	18.4
585.226	18.48
585.421	18.55
585.615	18.58
585.809	18.61
586.003	18.57
586.198	18.73
586.392	18.57
586.586	18.66
586.78	18.9
586.974	18.92
587.168	18.72
587.363	18.76
587.557	18.78
587.751	18.7
587.945	18.85
588.139	19.01
588.333	19.05
588.527	19.23
588.721	19.13
588.915	19.29
589.109	19.29
589.303	19.51
589.497	19.55
589.691	19.54
589.885	19.7
590.079	19.58
590.273	19.54
590.466	19.56
590.66	19.5
590.854	19.59
591.048	19.51
591.242	19.67
591.436	19.7
591.629	19.67
591.823	19.84
592.017	19.72
592.211	19.79
592.404	19.87
592.598	20.05
592.792	20.03
592.986	20.03
593.179	20.05
593.373	20.05
593.567	20.03
593.76	20.04
593.954	20.03
594.147	20.14
594.341	20.17
594.535	20.37
594.728	20.27
594.922	20.33
595.115	20.43
595.309	20.42
595.502	20.4
595.696	20.36
595.889	20.43
596.083	20.49
596.276	20.41
596.47	20.58
596.663	20.37
596.856	20.41
597.05	20.39
597.243	20.39
597.437	20.4
597.63	20.44
597.823	20.46
598.017	20.56
598.21	20.57
598.403	20.73
598.596	20.59
598.79	20.68
598.983	20.61
599.176	20.54
599.369	20.35
599.563	20.36
599.756	20.41
599.949	20.5
600.142	20.31
600.335	20.38
600.528	20.39
600.722	20.37
600.915	20.34
601.108	20.44
601.301	20.63
601.494	20.92
601.687	20.92
601.88	21.04
602.073	21.12
602.266	21.23
602.459	21.11
602.652	21.28
602.845	21.34
603.038	21.3
603.231	21.32
603.424	21.31
603.617	21.18
603.809	21.17
604.002	21.05
604.195	21.14
604.388	21.13
604.581	21.24
604.774	21.18
604.966	21.15
605.159	21.29
605.352	21.23
605.545	21.34
605.737	21.39
605.93	21.4
606.123	21.47
606.316	21.42
606.508	21.38
606.701	21.47
606.894	21.45
607.086	21.47
607.279	21.4
607.471	21.55
607.664	21.5
607.857	21.5
608.049	21.58
608.242	21.62
608.434	21.56
608.627	21.55
608.819	21.45
609.012	21.41
609.204	21.38
609.397	21.48
609.589	21.44
609.782	21.53
609.974	21.61
610.166	21.62
610.359	21.6
610.551	21.7
610.743	21.9
610.936	21.91
611.128	21.9
611.32	22.07
611.513	22.21
611.705	22.35
611.897	22.35
612.09	22.42
612.282	22.47
612.474	22.49
612.666	22.4
612.858	22.45
613.051	22.61
613.243	22.65
613.435	22.56
613.627	22.48
613.819	22.15
614.011	22.18
614.203	22.03
614.395	22.05
614.588	22.08
614.78	22.3
614.972	22.19
615.164	22.18
615.356	22.41
615.548	22.57
615.74	22.6
615.932	22.85
616.124	22.96
616.315	23.17
616.507	23.05
616.699	23.06
616.891	22.83
617.083	22.86
617.275	22.72
617.467	22.49
617.659	22.44
617.85	22.33
618.042	22.16
618.234	22.12
618.426	22
618.618	22
618.809	21.95
619.001	22.11
619.193	22.09
619.384	22.22
619.576	22.22
619.768	22.16
619.959	22.23
620.151	22.51
620.343	22.22
620.534	22.21
620.726	22.5
620.917	22.53
621.109	22.52
621.301	22.6
621.492	22.61
621.684	22.87
621.875	22.93
622.067	22.9
622.258	22.59
622.45	22.8
622.641	22.99
622.832	23.13
623.024	23.19
623.215	23.22
623.407	23.27
623.598	23.49
623.789	23.59
623.981	23.69
624.172	23.81
624.363	23.9
624.555	23.97
624.746	23.93
624.937	23.75
625.129	23.65
625.32	23.64
625.511	23.5
625.702	23.42
625.893	23.14
626.085	23.11
626.276	23.01
626.467	23.08
626.658	23.05
626.849	22.95
627.04	22.96
627.231	23.06
627.422	22.91
627.614	22.94
627.805	22.77
627.996	22.92
628.187	22.8
628.378	22.83
628.569	22.97
628.76	23.11
628.951	23.12
629.142	23.07
629.332	23.07
629.523	23.32
629.714	23.47
629.905	23.44
630.096	23.38
630.287	23.49
630.478	23.65
630.669	23.62
630.859	23.46
631.05	23.61
631.241	23.62
631.432	23.71
631.623	23.57
631.813	23.47
632.004	23.65
632.195	23.67
632.385	23.77
632.576	23.64
632.767	23.62
632.957	23.72
633.148	23.76
633.339	23.8
633.529	23.71
633.72	23.87
633.91	24.02
634.101	24.03
634.292	23.98
634.482	23.96
634.673	24
634.863	23.93
635.054	23.82
635.244	23.81
635.435	23.9
635.625	24.03
635.815	24.09
636.006	23.98
636.196	23.89
636.387	23.99
636.577	24.13
636.767	24.04
636.958	24.05
637.148	24.02
637.338	24.13
637.529	24.04
637.719	23.91
637.909	23.75
638.099	23.83
638.29	23.82
638.48	23.78
638.67	23.47
638.86	23.48
639.05	23.39
639.241	23.51
639.431	23.43
639.621	23.51
639.811	23.5
640.001	23.54
640.191	23.62
640.381	23.67
640.571	23.85
640.761	23.96
640.951	24.1
641.141	24.1
641.331	23.82
641.521	23.63
641.711	23.44
641.901	23.63
642.091	23.65
642.281	23.55
642.471	23.52
642.661	23.45
642.851	23.48
643.041	23.58
643.231	23.67
643.42	23.95
643.61	24.08
643.8	24.2
643.99	24.13
644.18	24.17
644.369	24.27
644.559	24.44
644.749	24.32
644.939	24.37
645.128	24.33
645.318	24.35
645.508	24.44
645.697	24.35
645.887	24.5
646.076	24.51
646.266	24.58
646.456	24.42
646.645	24.41
646.835	24.54
647.024	24.53
647.214	24.69
647.403	24.74
647.593	24.61
647.782	24.7
647.972	24.49
648.161	24.46
648.351	24.31
648.54	24.29
648.73	24.35
648.919	24.37
649.108	24.33
649.298	24.25
649.487	24.27
649.677	24.28
649.866	24.43
650.055	24.7
650.244	24.68
650.434	24.83
650.623	24.96
650.812	24.89
651.002	24.82
651.191	24.91
651.38	24.92
651.569	24.95
651.758	25.08
651.947	25.02
652.137	24.84
652.326	24.92
652.515	24.85
652.704	24.73
652.893	24.86
653.082	24.86
653.271	24.61
653.46	24.61
653.649	24.68
653.838	24.63
654.027	24.57
654.216	24.47
654.405	24.35
654.594	24.45
654.783	24.51
654.972	24.36
655.161	24.6
655.35	24.83
655.539	24.86
655.728	24.87
655.916	24.96
656.105	24.79
656.294	24.71
656.483	24.72
656.672	24.65
656.86	24.62
657.049	24.79
657.238	24.71
657.427	24.82
657.615	24.72
657.804	24.72
657.993	24.69
658.181	24.85
658.37	25.1
658.559	25.19
658.747	25.12
658.936	25.14
659.125	24.62
659.313	24.61
659.502	24.35
659.69	24.38
659.879	24.32
660.067	24.12
660.256	24.04
660.444	23.89
660.633	23.67
660.821	23.58
661.01	23.8
661.198	24.22
661.387	24.03
661.575	24.42
661.763	24.34
661.952	24.35
662.14	24.75
662.328	24.68
662.517	24.89
662.705	24.9
662.893	25
663.082	25.03
663.27	25.34
663.458	25.48
663.646	25.1
663.834	25.47
664.023	25.65
664.211	25.34
664.399	25.46
664.587	25.22
664.775	25.53
664.963	25.69
665.152	25.38
665.34	25.34
665.528	25.58
665.716	25.73
665.904	25.43
666.092	25.26
666.28	25.23
666.468	25.17
666.656	25.25
666.844	25.05
667.032	25.06
667.22	25.28
667.408	24.9
667.596	24.38
667.784	24.09
667.971	24.5
668.159	24.47
668.347	24.62
668.535	24.46
668.723	24.38
668.911	24.53
669.098	24.34
669.286	24.26
669.474	24.46
669.662	24.93
669.849	25.48
670.037	25.2
670.225	25.22
670.413	25.26
670.6	25.61
670.788	25.8
670.976	25.7
671.163	25.73
671.351	25.72
671.538	25.8
671.726	25.6
671.913	25.47
672.101	25.46
672.289	25.48
672.476	25.66
672.664	25.79
672.851	25.66
673.039	25.55
673.226	25.56
673.413	25.61
673.601	25.44
673.788	25.64
673.976	25.65
674.163	25.75
674.35	25.67
674.538	25.61
674.725	25.26
674.912	25.31
675.1	25.71
675.287	26.17
675.474	26.11
675.662	26.25
675.849	26.24
676.036	26.14
676.223	26.03
676.411	26.01
676.598	25.8
676.785	25.93
676.972	26.02
677.159	25.86
677.346	25.44
677.533	25.44
677.721	25.31
677.908	25.41
678.095	25.42
678.282	25.45
678.469	25.7
678.656	25.85
678.843	25.93
679.03	25.87
679.217	25.78
679.404	25.78
679.591	25.56
679.778	25.73
679.964	25.69
680.151	25.51
680.338	25.61
680.525	25.3
680.712	25.19
680.899	25.02
681.086	25.03
681.272	25.07
681.459	25.31
681.646	25.53
681.833	25.69
682.02	25.52
682.206	25.59
682.393	25.32
682.58	25.61
682.766	25.71
682.953	25.96
683.14	25.86
683.326	26.18
683.513	26.08
683.7	26.24
683.886	25.98
684.073	26.03
684.259	26.1
684.446	26.12
684.632	25.97
684.819	25.84
685.005	25.88
685.192	26
685.378	25.73
685.565	25.85
685.751	25.87
685.938	26.03
686.124	26.05
686.31	26.23
686.497	26.4
686.683	26.53
686.87	26.87
687.056	26.78
687.242	26.76
687.429	26.64
687.615	26.55
687.801	26.5
687.987	26.4
688.174	26.36
688.36	26.29
688.546	26.2
688.732	26.31
688.918	26.08
689.105	26.01
689.291	26.17
689.477	26.26
689.663	26.39
689.849	26.58
690.035	26.73
690.221	26.98
690.407	26.97
690.593	26.93
690.779	26.78
690.965	26.98
691.151	27.27
691.337	27.16
691.523	27.31
691.709	27.29
691.895	27.11
692.081	26.76
692.267	26.63
692.453	26.88
692.639	26.91
692.825	26.67
693.011	26.67
693.196	26.5
693.382	26.56
693.568	26.64
693.754	26.38
693.94	26.29
694.125	26.43
694.311	26.35
694.497	26.26
694.682	26.21
694.868	26.63
695.054	26.3
695.239	26.11
695.425	26.03
695.611	25.83
695.796	26.05
695.982	26.1
696.168	25.88
696.353	25.87
696.539	25.79
696.724	25.83
696.91	25.62
697.095	25.77
697.281	25.98
697.466	26.08
697.652	26.21
697.837	26.21
698.023	26.16
698.208	26.43
698.393	26.33
698.579	26.36
698.764	26.32
698.949	26.26
699.135	26.29
699.32	26.1
699.505	26.08
699.691	25.85
699.876	25.8
700.061	25.72
700.246	25.53
700.432	25.66
700.617	25.55
700.802	25.58
700.987	25.78
701.172	25.97
701.358	26.28
701.543	26.27
701.728	26.23
701.913	26.45
702.098	26.54
702.283	26.89
702.468	26.77
702.653	26.73
702.838	26.79
703.023	26.8
703.208	26.44
703.393	26.03
703.578	26.14
703.763	26.43
703.948	26.27
704.133	26.12
704.318	25.69
704.503	25.34
704.688	25.54
704.873	25.42
705.057	25.39
705.242	25.64
705.427	25.89
705.612	25.75
705.797	25.76
705.981	25.6
706.166	25.7
706.351	26.1
706.536	26.9
706.72	26.62
706.905	27.01
707.09	27.15
707.274	27.12
707.459	27.09
707.644	27.32
707.828	27.34
708.013	27.45
708.197	27.68
708.382	27.27
708.567	26.97
708.751	27.36
708.936	27.1
709.12	26.77
709.305	26.35
709.489	26.46
709.673	26.49
709.858	26.2
710.042	26.25
710.227	25.95
710.411	26.39
710.596	26.13
710.78	25.98
710.964	26.22
711.149	26.02
711.333	26.31
711.517	26
711.702	25.7
711.886	25.42
712.07	25.39
712.254	25.5
712.438	25.13
712.623	25.57
712.807	25.49
712.991	25.33
713.175	25.82
713.359	25.84
713.544	25.84
713.728	25.79
713.912	26.49
714.096	26.31
714.28	26.31
714.464	26.47
714.648	26.09
714.832	26.33
715.016	26.41
715.2	26.15
715.384	26.24
715.568	26.36
715.752	26.42
715.936	26.56
716.12	26.51
716.304	26.72
716.488	26.33
716.671	26.77
716.855	26.63
717.039	26.42
717.223	26.94
717.407	26.94
717.59	27.16
717.774	27.14
717.958	27.06
718.142	26.88
718.325	27.02
718.509	27.21
718.693	26.64
718.877	26.27
719.06	26.11
719.244	25.66
719.428	25.76
719.611	25.55
719.795	26.09
719.978	25.42
720.162	25.66
720.345	25.67
720.529	25.85
720.713	26.16
720.896	26.27
721.08	26.46
721.263	26.58
721.446	26.22
721.63	26.8
721.813	26.03
721.997	26.51
722.18	26.56
722.364	26.59
722.547	26.65
722.73	26.85
722.914	26.65
723.097	26.32
723.28	26.21
723.464	25.95
723.647	25.49
723.83	26.13
724.013	26.1
724.197	26.2
724.38	25.78
724.563	26.09
724.746	26.08
724.929	25.88
725.112	25.85
725.296	25.8
725.479	26.21
725.662	26.26
725.845	26
726.028	26.39
726.211	26.26
726.394	26.55
726.577	26.34
726.76	26.07
726.943	26.59
727.126	27.03
727.309	27.26
727.492	27.29
727.675	27.26
727.858	27.14
728.041	26.51
728.224	26.78
728.407	26.4
728.589	26.58
728.772	26.65
728.955	26.97
729.138	26.93
729.321	26.65
729.503	26.63
729.686	26.57
729.869	26.48
730.052	26.59
730.234	26.58
730.417	27.03
730.6	26.67
730.782	26.98
730.965	26.74
731.148	26.4
731.33	26.14
731.513	26.27
731.695	26.3
731.878	26.52
732.061	26.52
732.243	26.26
732.426	26.06
732.608	26.36
732.791	26.23
732.973	26
733.156	26.48
733.338	26.6
733.52	26.65
733.703	26.17
733.885	25.83
734.068	26.05
734.25	26.05
734.432	25.95
734.615	26
734.797	25.83
734.979	25.92
735.162	25.65
735.344	26.04
735.526	25.96
735.708	26.85
735.891	27.02
736.073	26.93
736.255	27.07
736.437	26.79
736.619	26.72
736.802	26.86
736.984	27.09
737.166	27.13
737.348	26.71
737.53	26.35
737.712	25.72
737.894	25.68
738.076	25.73
738.258	25.69
738.44	25.67
738.622	25.44
738.804	25.39
738.986	25.11
739.168	25.04
739.35	25.24
739.532	25.09
739.714	25.05
739.896	25.36
740.078	25.14
740.259	25.02
740.441	25.61
740.623	25.51
740.805	25.3
740.987	26.4
741.168	26.62
741.35	26.93
741.532	26.78
741.714	26.93
741.895	26.69
742.077	26.94
742.259	26.63
742.44	26.39
742.622	26.92
742.804	27.54
742.985	26.55
743.167	26.04
743.348	25.62
743.53	25.6
743.711	25.27
743.893	25.12
744.075	25.08
744.256	25.65
744.438	25.7
744.619	25.14
744.8	24.94
744.982	24.78
745.163	25.75
745.345	25.63
745.526	25.99
745.707	26.44
745.889	26.1
746.07	25.54
746.252	25.53
746.433	26.04
746.614	26.3
746.795	25.54
746.977	24.69
747.158	24.37
747.339	24.7
747.52	24.16
747.702	24.54
747.883	25.18
748.064	25.4
748.245	25.43
748.426	25.11
748.607	24.45
748.788	24.35
748.97	25.49
749.151	24.86
749.332	24.7
749.513	25.16
749.694	24.7
749.875	24.07
750.056	24.59
750.237	24.08
750.418	23.35
750.599	23.39
750.78	24.3
750.96	24
751.141	24.7
751.322	24.77
751.503	25.16
751.684	24.97
751.865	25.34
752.046	25.11
752.226	25.54
752.407	25.51
752.588	26.35
752.769	26.16
752.949	26.31
753.13	25.53
753.311	25.86
753.492	26.36
753.672	26.52
753.853	26.97
754.034	27.21
754.214	27.62
754.395	27.86
754.575	27.63
754.756	27.41
754.937	27.35
755.117	27.64
755.298	27.39
755.478	25.96
755.659	25.64
755.839	25.07
756.02	24.09
756.2	23.67
756.381	23.86
756.561	24.1
756.741	24.06
756.922	23.82
757.102	24.52
757.283	24.06
757.463	24.06
757.643	24.65
757.823	24.71
758.004	25.42
758.184	25.5
758.364	25.56
758.545	24.96
758.725	24.59
758.905	25.5
759.085	25.4
759.265	26
759.446	26.93
759.626	26.3
759.806	26.35
759.986	25.91
760.166	25.49
760.346	25.13
760.526	25.14
760.706	25.96
760.886	25.58
761.066	25.19
761.246	25.23
761.426	25.06
761.606	25.36
761.786	25.41
761.966	25.39
762.146	25.5
762.326	26.02
762.506	26.41
762.686	26.11
762.866	26.42
763.046	26.35
763.225	26.04
763.405	26.17
763.585	25.99
763.765	26.06
763.945	26.22
764.124	26.51
764.304	26.52
764.484	26.33
764.664	26.51
764.843	26.1
765.023	26.3
765.203	26.53
765.382	26.57
765.562	26.6
765.741	26.52
765.921	26.3
766.101	26.16
766.28	26.18
766.46	26.15
766.639	26.07
766.819	25.88
766.998	25.99
767.178	26.26
767.357	26.53
767.537	26.86
767.716	26.79
767.896	27.34
768.075	27.81
768.254	27.67
768.434	27.33
768.613	26.87
768.792	27.43
768.972	27.09
769.151	26.27
769.33	25.36
769.51	24.9
769.689	24.85
769.868	25.03
770.047	24.64
770.226	24.28
770.406	23.31
770.585	23.87
770.764	23.72
770.943	23.77
771.122	23.59
771.301	24.01
771.48	24.21
771.66	24.14
771.839	23.39
772.018	23.05
772.197	22.43
772.376	25.2
772.555	25.38
772.734	24.92
772.913	24.55
773.092	25.44
773.271	25.5
773.449	25.58
773.628	26.39
773.807	26.19
773.986	26.28
774.165	26.57
774.344	25.09
774.523	24.64
774.701	25.27
774.88	25.94
775.059	25.57
775.238	25.12
775.417	25.37
775.595	25.07
775.774	25.74
775.953	25.94
776.131	25.69
776.31	25.58
776.489	25.24
776.667	25.08
776.846	24.93
777.025	24.35
777.203	24
777.382	24.49
777.56	24.92
777.739	24.55
777.917	24.19
778.096	25.99
778.274	26.53
778.453	27.31
778.631	27.04
778.81	26.47
778.988	27.21
779.166	27.75
779.345	26.7
779.523	26.26
779.702	26.42
779.88	26.57
780.058	25.47
780.237	24.11
780.415	24.71
780.593	24.76
780.771	25.66
780.95	25.75
781.128	25.94
781.306	27.27
781.484	26.97
781.662	27.19
781.841	26.61
782.019	26.14
782.197	26.57
782.375	25.03
782.553	24.92
782.731	23.89
782.909	24.26
783.087	24.06
783.265	23.21
783.443	24.02
783.621	23.22
783.799	24.01
783.977	24.58
784.155	25.24
784.333	26.01
784.511	26.51
784.689	27.28
784.867	27.15
785.045	26.9
785.223	26.65
785.4	26.38
785.578	26.31
785.756	26.09
785.934	25.85
786.112	25.18
786.289	24.48
786.467	23.89
786.645	23.96
786.823	23.27
787	23.06
787.178	23.43
787.356	22.86
787.533	23.06
787.711	23.09
787.889	23.45
788.066	24.28
788.244	24.69
788.421	24.77
788.599	24.37
788.776	24.84
788.954	25.07
789.131	25.59
789.309	25.76
789.486	26.29
789.664	26.21
789.841	25.97
790.019	25.54
790.196	25.73
790.373	26.1
790.551	26.43
790.728	26.74
790.906	27.12
791.083	25.94
791.26	26.54
791.437	25.68
791.615	25.63
791.792	25.09
791.969	25.46
792.146	25.16
792.324	26.24
792.501	25.36
792.678	25.36
792.855	25.12
793.032	25.89
793.209	24.74
793.387	24.88
793.564	25.84
793.741	26.21
793.918	27.68
794.095	27.57
794.272	27.19
794.449	27.71
794.626	26.83
794.803	26.22
794.98	25.17
795.157	25.42
795.334	24.63
795.511	23.69
795.688	24.6
795.864	22.23
796.041	22.37
796.218	20.87
796.395	20.82
796.572	20.82
796.749	20.21
796.925	20.7
797.102	20.58
797.279	21.13
797.456	21.49
797.632	20.91
797.809	21.74
797.986	20.65
798.162	21.52
798.339	21.93
798.516	21.84
798.692	23.87
798.869	24.12
799.046	24.28
799.222	24.75
799.399	23.55
799.575	23.31
799.752	22.69
799.928	24.87
800.105	24.89
800.281	24.1
800.458	24.01
800.634	23.21
800.811	22.61
800.987	22.94
801.163	24.14
801.34	25.04
801.516	25.65
801.692	27.38
801.869	26.47
802.045	26.7
802.221	27.3
802.398	27.81
802.574	26.88
802.75	26.84
802.926	27.21
803.103	25.24
803.279	25.29
803.455	25.07
803.631	24.71
803.807	24.66
803.983	25.28
804.16	24.53
804.336	23.46
804.512	23.44
804.688	24.57
804.864	23.85
805.04	24.46
805.216	24.84
805.392	24.84
805.568	23.71
805.744	24.35
805.92	22.98
806.096	24.04
806.272	25.64
806.448	26.66
806.623	26.47
806.799	26.29
806.975	26.48
807.151	26.17
807.327	25.02
807.503	25.43
807.678	24.55
807.854	24.26
808.03	23.74
808.206	23.09
808.381	23.04
808.557	21.1
808.733	22.23
808.908	22.19
809.084	22.46
809.26	23.77
809.435	24.35
809.611	24.01
809.787	25.56
809.962	25.83
810.138	26.61
810.313	25.89
810.489	27.13
810.664	26.8
810.84	26.55
811.015	26.24
811.191	25.78
811.366	24.1
811.542	23.93
811.717	22.21
811.892	22.59
812.068	22.12
812.243	22.25
812.419	23.44
812.594	22.65
812.769	23.48
812.944	23.16
813.12	22.15
813.295	24.15
813.47	23.94
813.645	23.84
813.821	23.26
813.996	22.75
814.171	23.81
814.346	23.14
814.521	23.45
814.697	23.7
814.872	23.92
815.047	24.06
815.222	22.71
815.397	23.25
815.572	22.59
815.747	22.95
815.922	24.71
816.097	23.94
816.272	23.87
816.447	24.71
816.622	24.97
816.797	25.72
816.972	25.55
817.147	27.06
817.322	26.93
817.496	27.59
817.671	26.96
817.846	25.52
818.021	25.59
818.196	25.68
818.371	24.74
818.545	24.84
818.72	24.22
818.895	24.34
819.069	23.03
819.244	22.9
819.419	23.11
819.594	22.31
819.768	23.14
819.943	23.55
820.117	24.43
820.292	24.88
820.467	24.69
820.641	25.26
820.816	25.76
820.99	25.52
821.165	25.79
821.339	25.69
821.514	25.92
821.688	25.64
821.863	25.58
822.037	25.26
822.212	24.91
822.386	24.83
822.56	24.6
822.735	24.58
822.909	24.83
823.084	24.95
823.258	24.89
823.432	25.35
823.606	25.33
823.781	25.57
823.955	25.7
824.129	26.2
824.303	26.38
824.478	26.65
824.652	26.35
824.826	26.48
825	26.01
825.174	26.14
825.348	25.87
825.523	25.99
825.697	25.79
825.871	25.58
826.045	25.35
826.219	24.84
826.393	24.48
826.567	24.98
826.741	24.82
826.915	24.56
827.089	24.29
827.263	24.03
827.437	24.51
827.611	23.91
827.784	24.44
827.958	24.93
828.132	25.66
828.306	25.69
828.48	25.26
828.654	25.39
828.827	26.49
829.001	27.08
829.175	26.7
829.349	26.21
829.522	27.13
829.696	26.35
829.87	25.49
830.044	25.4
830.217	26
830.391	26.39
830.565	25.87
830.738	24.59
830.912	24.6
831.085	25.01
831.259	24.37
831.432	23.76
831.606	23.83
831.779	23.42
831.953	22.96
832.126	21.89
832.3	21.6
832.473	21.49
832.647	21.58
832.82	21.76
832.994	22.65
833.167	23.13
833.34	23.68
833.514	23.83
833.687	24.21
833.86	24.24
834.034	24.9
834.207	25.1
834.38	26.14
834.553	26.24
834.727	26.83
834.9	26.26
835.073	26.03
835.246	25.97
835.419	26.16
835.593	26.41
835.766	26.44
835.939	25.93
836.112	25.77
836.285	24.95
836.458	26.22
836.631	25.49
836.804	25.82
836.977	25.86
837.15	25.19
837.323	24.44
837.496	23.12
837.669	22.55
837.842	23.57
838.015	24.74
838.188	24.04
838.361	22.29
838.533	22.58
838.706	22.03
838.879	22.59
839.052	23.81
839.225	23.91
839.398	26.8
839.57	26.9
839.743	26.22
839.916	25.12
840.088	25.9
840.261	27.01
840.434	27.24
840.607	28.11
840.779	28.07
840.952	25.5
841.124	26.47
841.297	24.97
841.47	25.69
841.642	27.47
841.815	26.29
841.987	26.73
842.16	26.63
842.332	25.78
842.505	24.41
842.677	24.81
842.85	27.37
843.022	26.32
843.194	26.06
843.367	24.48
843.539	22.33
843.712	27.15
843.884	26.94
844.056	26.04
844.229	25.23
844.401	26.34
844.573	25
844.745	25.83
844.918	25.98
845.09	26.97
845.262	25.97
845.434	26.98
845.606	22.99
845.779	23.01
845.951	25.41
846.123	28.22
846.295	27.05
846.467	27.71
846.639	25.75
846.811	27.26
846.983	24.83
847.155	28.38
847.327	27.02
847.499	30.37
847.671	31.3
847.843	30.06
848.015	28.7
848.187	28.58
848.359	26.62
848.531	27.84
848.703	24.24
848.875	25.39
849.047	23.65
849.218	24.27
849.39	19.34
849.562	18.47
849.734	18.54
849.905	18.35
850.077	20.36
850.249	19.81
850.421	18.63
850.592	18.83
850.764	18.07
850.936	19.12
851.107	16.17
851.279	20.46
851.451	19.12
851.622	13.83
851.794	13.98
851.965	15.49
852.137	16.82
852.308	21.23
852.48	21.88
852.651	26.01
852.823	22.22
852.994	27.12
853.166	22.92
853.337	25.43
853.509	29.83
853.68	30.28
853.851	29.28
854.023	28.43
854.194	25.79
854.365	26.76
854.537	22.79
854.708	28.51
854.879	24.27
855.05	28.13
855.222	26.66
855.393	23.4
855.564	20.36
855.735	22.23
855.906	25.05
856.078	23.41
856.249	19.94
856.42	22.54
856.591	21.3
856.762	24.23
856.933	19.63
857.104	18.25
857.275	19.23
857.446	21.68
857.617	15.65
857.788	18.14
857.959	19.13
858.13	21.64
858.301	23.88
858.472	20.71
858.643	20.54
858.814	21.75
858.985	17.74
859.155	21.59
859.326	20.28
859.497	23.2
859.668	20.58
859.839	21.26
860.009	22.8
860.18	19.54
860.351	20.71
860.522	19.59
860.692	18.64
860.863	22.74
861.034	19.2
861.204	16.53
861.375	15.47
861.546	19.55
861.716	19.91
861.887	22.16
862.057	24.89
862.228	25.04
862.398	23.9
862.569	26.07
862.739	22.02
862.91	25.88
863.08	32.2
863.251	33.61
863.421	29.41
863.592	31.53
863.762	31.4
863.932	28.26
864.103	28.84
864.273	26.1
864.443	30.03
864.614	32.64
864.784	27.62
864.954	26.21
865.125	24.72
865.295	25.82
865.465	22.58
865.635	17.98
865.805	14.91
865.976	16.87
866.146	23
866.316	16.67
866.486	20.11
866.656	20.71
866.826	23.01
866.996	21.35
867.166	19.32
867.336	22.94
867.506	26.2
867.676	25.99
867.846	23.7
868.016	21.16
868.186	23.61
868.356	24.92
868.526	25.18
868.696	20.27
868.866	25.85
869.036	23.64
869.206	21.87
869.376	20.66
869.545	22.95
869.715	21.04
869.885	25.27
870.055	22.66
870.224	21.45
870.394	21.2
870.564	22.27
870.734	19.82
870.903	23.43
871.073	21.01
871.243	17.28
871.412	18.01
871.582	23.01
871.751	19.86
871.921	20.6
872.091	19.81
872.26	21.19
872.43	19.94
872.599	19.3
872.769	16.94
872.938	15.27
873.108	19.02
873.277	15.78
873.446	12.47
873.616	12.92
873.785	15.34
873.955	9.05
874.124	9.02
874.293	10.87
874.463	10.14
874.632	7.84
874.801	8.5
874.971	7.88
875.14	11.45
875.309	8.86
875.478	9.55
875.647	8.92
875.817	14.19
875.986	14.24
876.155	14.58
876.324	15.67
876.493	18.54
876.662	21.68
876.831	22.17
877	21.45
877.17	26.09
877.339	28.07
877.508	27.26
877.677	26.54
877.846	27.64
878.015	24.76
878.184	26.25
878.352	25.86
878.521	26.93
878.69	29.47
878.859	30.6
879.028	27.92
879.197	25.37
879.366	26.14
879.534	25.68
879.703	25.97
879.872	26.45
880.041	25.66
880.21	25.42
880.378	24.13
880.547	23.74
880.716	23.4
880.884	23.5
881.053	23.44
881.222	23.51
881.39	24.3
881.559	24.05
881.727	25.47
881.896	25.57
882.065	26.91
882.233	27.74
882.402	27.92
882.57	28.44
882.739	28.45
882.907	28.55
883.076	28.76
883.244	28.17
883.412	27.92
883.581	26.86
883.749	26.92
883.918	25.63
884.086	25.08
884.254	24.71
884.423	24.33
884.591	25.11
884.759	24.99
884.927	25.02
885.096	25.57
885.264	26.93
885.432	26.98
885.6	27.29
885.769	27.61
885.937	27.99
886.105	27.74
886.273	27.09
886.441	25.8
886.609	25.97
886.777	23.88
886.945	24.41
887.113	23.34
887.281	25.13
887.449	22.29
887.617	24.97
887.785	23.43
887.953	22.69
888.121	24
888.289	23.15
888.457	25.64
888.625	25.18
888.793	25.93
888.961	26.84
889.129	26.58
889.296	27.5
889.464	24.58
889.632	24.77
889.8	26.19
889.967	24.9
890.135	27.41
