Data from 2938487_Reflection_1.txt Node
Date: Wed Jun 17 00:54:58 EDT 2015
User: robert
Spectrometer: USB4E03002
Autoset integration time: false
Trigger mode: 4
Integration Time (sec): 1.000000E-1
Scans to average: 10
Electric dark correction enabled: true
Nonlinearity correction enabled: false
Boxcar width: 5
Stray light correction enabled: false
XAxis mode: Wavelengths
Stop averaging: false
Number of Pixels in Spectrum: 3648
>>>>>Begin Spectral Data<<<<<
177.575	-408.05
177.794	1858.95
178.014	-43.75
178.233	-57.45
178.452	17.48
178.672	79.71
178.891	88.83
179.11	118.09
179.33	145.69
179.549	209.08
179.768	132.58
179.987	131.43
180.207	136.12
180.426	188.32
180.645	189.82
180.864	293.64
181.084	117.31
181.303	132.88
181.522	122.34
181.741	129.39
181.96	184.53
182.179	1524.52
182.398	-4730.67
182.618	-450.87
182.837	-290.12
183.056	-430.15
183.275	-674.18
183.494	-536.04
183.713	-1648.7
183.932	-1024.33
184.151	439.28
184.37	2308.43
184.589	10397.18
184.808	-2505.22
185.027	-838.68
185.246	11434.52
185.465	-1131.15
185.684	-311.14
185.903	-189.87
186.122	-95.14
186.341	-58.89
186.56	-20.9
186.779	-68.87
186.998	-237.71
187.216	-289.29
187.435	-135.87
187.654	14.81
187.873	-109.12
188.092	-133.77
188.311	354.12
188.53	97.53
188.748	81.56
188.967	313.53
189.186	1150.12
189.405	1201.67
189.623	-1592.7
189.842	365.39
190.061	937.05
190.28	-27.61
190.498	400
190.717	276.23
190.936	-144.33
191.154	-144.5
191.373	-152.24
191.592	-423.88
191.81	-407.05
192.029	-113.72
192.248	-239.09
192.466	-213.56
192.685	-274.15
192.904	-4632.26
193.122	-641.04
193.341	175.26
193.559	214.1
193.778	382.32
193.996	180.4
194.215	178.86
194.433	157.03
194.652	160.36
194.87	140.48
195.089	191.14
195.307	507.79
195.526	-1480.74
195.744	-214.7
195.963	-102.19
196.181	-168.21
196.399	-102.16
196.618	-64.89
196.836	-47.06
197.055	-55.15
197.273	-30.51
197.491	-15.06
197.71	-97.35
197.928	-229.83
198.146	1619.86
198.365	568.24
198.583	1141.65
198.801	-796.56
199.019	-786.96
199.238	905.39
199.456	-9927.78
199.674	-2559.39
199.892	364.8
200.111	437.96
200.329	229.59
200.547	423.21
200.765	302.58
200.983	611.98
201.202	238.45
201.42	396.86
201.638	15634.38
201.856	594.94
202.074	162.78
202.292	187.44
202.51	182.05
202.728	-774.84
202.946	-1188.54
203.165	823.79
203.383	390.09
203.601	214.9
203.819	72.85
204.037	156.74
204.255	-251.8
204.473	-35.19
204.691	-65.29
204.909	-35.78
205.127	-225.66
205.345	314.69
205.562	2247.6
205.78	220.87
205.998	595.73
206.216	843.47
206.434	241.15
206.652	186.97
206.87	124.92
207.088	138.3
207.306	178.82
207.523	208.95
207.741	-534.63
207.959	327.25
208.177	-784.9
208.395	-1373.8
208.612	3230.84
208.83	-160.44
209.048	-142.29
209.266	-114.65
209.483	-55.39
209.701	-197.38
209.919	-73.75
210.136	-112.6
210.354	-36.67
210.572	-41.9
210.79	-75.99
211.007	-73.45
211.225	-76.34
211.442	-74.14
211.66	-49.31
211.878	-68.07
212.095	17.94
212.313	12.14
212.53	24.15
212.748	23.7
212.966	37.36
213.183	62.78
213.401	79.59
213.618	88.61
213.836	81.54
214.053	68.84
214.271	88.01
214.488	-14.15
214.705	-39
214.923	-44.44
215.14	-23.98
215.358	-50.58
215.575	-67.42
215.793	-134.69
216.01	-133.07
216.227	-161
216.445	-119.75
216.662	-161.61
216.879	-155.45
217.097	-126.18
217.314	-105.64
217.531	-168.46
217.749	-185.1
217.966	-143.75
218.183	-54.12
218.4	-57.3
218.618	-56.24
218.835	-52.69
219.052	-53.86
219.269	-41.85
219.487	-31.83
219.704	-30.33
219.921	-40.65
220.138	-38.02
220.355	-38.01
220.572	-56.66
220.79	-42.08
221.007	-34.09
221.224	-26.98
221.441	-29.49
221.658	-38.42
221.875	-54.75
222.092	-40.65
222.309	-22.55
222.526	-16.1
222.743	-16.53
222.96	-20.69
223.177	-27.5
223.394	-23.89
223.611	-21.68
223.828	-22.23
224.045	-17.93
224.262	-8.6
224.479	-13.82
224.696	-12.97
224.913	-6.97
225.13	-4.87
225.347	-1.44
225.564	2.2
225.781	5.74
225.997	8.51
226.214	11.17
226.431	11.65
226.648	11.35
226.865	11.57
227.082	11.18
227.298	10.25
227.515	10.21
227.732	9.9
227.949	9.52
228.165	8.59
228.382	6.26
228.599	6.06
228.816	6.18
229.032	5.67
229.249	5.36
229.466	5.59
229.682	3.67
229.899	4.09
230.116	4.56
230.332	5.55
230.549	6.18
230.765	7.53
230.982	5.27
231.199	4.05
231.415	4.78
231.632	6.75
231.848	7.05
232.065	11.71
232.281	10.43
232.498	8.42
232.714	7.44
232.931	6.33
233.147	8.01
233.364	10.43
233.58	9.63
233.797	8.2
234.013	5.94
234.23	4.65
234.446	2.95
234.662	4.07
234.879	5.08
235.095	2.89
235.312	4.62
235.528	5.33
235.744	1.78
235.961	1.62
236.177	1.53
236.393	3.66
236.61	6.64
236.826	6.62
237.042	3.62
237.258	4.67
237.475	4.84
237.691	2.62
237.907	1.6
238.123	4.27
238.339	6.03
238.556	8.46
238.772	7.65
238.988	7.01
239.204	7.04
239.42	8.51
239.636	8.49
239.853	9.37
240.069	10.47
240.285	10.73
240.501	10.97
240.717	10.43
240.933	10.17
241.149	9.98
241.365	9.33
241.581	9.25
241.797	9.09
242.013	8.92
242.229	8.03
242.445	7.57
242.661	7.44
242.877	6.5
243.093	6.7
243.309	7.06
243.525	7.68
243.741	8.04
243.957	8.57
244.173	8.82
244.388	9.17
244.604	9.25
244.82	9.13
245.036	9.17
245.252	9.44
245.468	9.63
245.683	9.19
245.899	9.12
246.115	9.33
246.331	8.85
246.547	8.73
246.762	8.88
246.978	9.11
247.194	8.81
247.409	8.48
247.625	8.71
247.841	8.11
248.057	8.51
248.272	8.89
248.488	9.37
248.703	10.23
248.919	9.72
249.135	8.23
249.35	8
249.566	8.72
249.782	8.56
249.997	8.62
250.213	8.42
250.428	7.64
250.644	7.08
250.859	5.86
251.075	5.25
251.29	5.63
251.506	5.67
251.721	5.64
251.937	5.38
252.152	6.11
252.368	4.86
252.583	5.94
252.798	6.39
253.014	5.56
253.229	6.64
253.445	7.47
253.66	7.45
253.875	8.55
254.091	8.48
254.306	7.11
254.521	6.74
254.737	7.42
254.952	7.13
255.167	6.61
255.383	5.51
255.598	4.61
255.813	4.72
256.028	5.66
256.244	5.81
256.459	6.22
256.674	6.23
256.889	6.11
257.104	5.56
257.32	5.43
257.535	5.23
257.75	6.08
257.965	6.09
258.18	6.05
258.395	5.75
258.61	5.78
258.826	5.76
259.041	5.74
259.256	5.57
259.471	5.91
259.686	5.86
259.901	5.79
260.116	6.02
260.331	5.95
260.546	5.75
260.761	5.78
260.976	5.28
261.191	4.79
261.406	5.6
261.621	6.24
261.836	5.75
262.05	6.23
262.265	6.85
262.48	6.97
262.695	7.39
262.91	7.55
263.125	7.11
263.34	7.49
263.555	8.15
263.769	7.39
263.984	6.58
264.199	6.58
264.414	6.18
264.629	6.66
264.843	5.34
265.058	5.43
265.273	5.47
265.488	5.72
265.702	6.09
265.917	6.01
266.132	6.78
266.346	7.05
266.561	7.29
266.776	7.52
266.99	7
267.205	7.1
267.42	6.86
267.634	6.43
267.849	6.72
268.063	6.78
268.278	6.85
268.492	6.05
268.707	5.99
268.922	5.89
269.136	5.58
269.351	5.5
269.565	6.26
269.78	6.07
269.994	6.75
270.209	6.55
270.423	6.41
270.637	6.25
270.852	6.36
271.066	6.35
271.281	6.79
271.495	6.88
271.709	6.85
271.924	6.25
272.138	6.01
272.353	5.53
272.567	5.24
272.781	4.97
272.996	4.77
273.21	5.12
273.424	5.16
273.638	5.16
273.853	5.61
274.067	5.12
274.281	5.18
274.495	5.67
274.71	6.02
274.924	6.25
275.138	6.32
275.352	6.06
275.566	5.21
275.781	5.62
275.995	5.3
276.209	4.42
276.423	5.03
276.637	4.89
276.851	5.17
277.065	5.05
277.279	4.6
277.493	5.06
277.707	5.09
277.921	5.58
278.135	4.88
278.349	4.72
278.563	5.4
278.777	4.94
278.991	5.88
279.205	5.51
279.419	5.31
279.633	6.03
279.847	5.75
280.061	6.14
280.275	6.4
280.489	6.67
280.703	6.91
280.917	6.84
281.131	7.32
281.344	7.31
281.558	7.76
281.772	7.22
281.986	6.94
282.2	6.44
282.414	6.05
282.627	5.74
282.841	5.69
283.055	5.47
283.269	5.53
283.482	5.44
283.696	4.95
283.91	5.05
284.123	5.59
284.337	5.46
284.551	5.42
284.764	5.91
284.978	5.94
285.192	5.79
285.405	5.64
285.619	5.86
285.833	6.24
286.046	6.44
286.26	6.05
286.473	5.88
286.687	6
286.9	6.65
287.114	6.46
287.327	6.25
287.541	6.42
287.754	6.46
287.968	5.53
288.181	4.87
288.395	5.15
288.608	5.33
288.822	5.56
289.035	5.73
289.248	5.42
289.462	5.41
289.675	5.74
289.889	5.92
290.102	6.3
290.315	6.79
290.529	7.07
290.742	6.52
290.955	6.59
291.169	6.39
291.382	6.37
291.595	6.66
291.808	6.68
292.022	6.95
292.235	6.49
292.448	5.9
292.661	5.8
292.875	6.23
293.088	6.57
293.301	6.35
293.514	6.33
293.727	5.88
293.94	5.68
294.153	5.84
294.367	5.87
294.58	6.22
294.793	6.35
295.006	6.6
295.219	6.45
295.432	6.35
295.645	6.21
295.858	6.38
296.071	6.27
296.284	6.35
296.497	5.98
296.71	5.73
296.923	5.69
297.136	5.9
297.349	5.74
297.562	5.42
297.775	5.47
297.988	5.95
298.201	6.14
298.414	6.35
298.626	6.69
298.839	6.88
299.052	7.59
299.265	7.63
299.478	7.56
299.691	7.34
299.903	7.68
300.116	7.34
300.329	7.11
300.542	6.83
300.755	7.03
300.967	6.35
301.18	6.49
301.393	5.95
301.605	6.16
301.818	6.07
302.031	6.4
302.243	6.25
302.456	6.83
302.669	6.91
302.881	7.05
303.094	6.96
303.307	7.12
303.519	6.53
303.732	6.22
303.944	5.9
304.157	5.91
304.37	5.64
304.582	5.85
304.795	5.75
305.007	5.29
305.22	5.06
305.432	4.99
305.645	5.18
305.857	5.95
306.069	5.54
306.282	5.04
306.494	4.82
306.707	5.13
306.919	5.21
307.132	5.04
307.344	5.36
307.556	5.38
307.769	6.1
307.981	6.15
308.193	5.93
308.406	6.81
308.618	7.18
308.83	7.24
309.043	7.07
309.255	6.7
309.467	6.48
309.679	6.32
309.892	6.38
310.104	5.98
310.316	6.17
310.528	6.28
310.74	5.96
310.953	6.13
311.165	6.11
311.377	6.21
311.589	6.89
311.801	7.31
312.013	7.84
312.225	8.12
312.437	7.87
312.649	7.45
312.862	8.03
313.074	8.12
313.286	7.76
313.498	7.96
313.71	8.05
313.922	7.5
314.134	7.5
314.346	6.96
314.558	6.72
314.77	6.83
314.982	7.01
315.193	6.5
315.405	6.17
315.617	6.42
315.829	6.84
316.041	7.09
316.253	6.75
316.465	7.51
316.677	7.79
316.888	7.88
317.1	8.06
317.312	7.75
317.524	8.07
317.736	8.4
317.947	8.58
318.159	8.1
318.371	8.2
318.583	8.85
318.794	7.96
319.006	8.09
319.218	7.64
319.43	7.72
319.641	8.12
319.853	7.74
320.064	6.98
320.276	6.88
320.488	6.87
320.699	5.99
320.911	5.71
321.123	6.07
321.334	5.7
321.546	5.88
321.757	5.74
321.969	6.04
322.18	6.12
322.392	6.73
322.603	7.19
322.815	7.49
323.026	7.5
323.238	7.85
323.449	7.48
323.661	7.64
323.872	7.81
324.083	8.52
324.295	8.36
324.506	8.34
324.718	8.27
324.929	7.6
325.14	7.37
325.352	7.87
325.563	7.69
325.774	7.74
325.986	8.3
326.197	8.51
326.408	8.01
326.62	8.51
326.831	8.46
327.042	8.91
327.253	9.22
327.464	9.76
327.676	9.95
327.887	9.98
328.098	10.41
328.309	10.12
328.52	9.88
328.732	10.18
328.943	9.81
329.154	9.66
329.365	9.7
329.576	9.51
329.787	9.48
329.998	9.62
330.209	9.45
330.42	9.59
330.631	10.16
330.842	10.71
331.053	10.33
331.264	10.27
331.475	10.79
331.686	10.49
331.897	10.94
332.108	10.7
332.319	10.28
332.53	10.75
332.741	10.97
332.952	10.8
333.163	10.78
333.374	10.51
333.585	10.64
333.795	10.39
334.006	10.66
334.217	9.98
334.428	10.01
334.639	10.32
334.849	10.33
335.06	10.09
335.271	10.14
335.482	9.79
335.692	9.81
335.903	9.9
336.114	9.76
336.325	9.59
336.535	10.23
336.746	10.16
336.957	9.94
337.167	9.82
337.378	9.57
337.589	9.26
337.799	9.27
338.01	9.82
338.22	9.71
338.431	9.76
338.642	9.64
338.852	9.73
339.063	9.81
339.273	9.83
339.484	9.77
339.694	9.69
339.905	10.01
340.115	9.9
340.326	9.8
340.536	9.78
340.746	9.65
340.957	9.67
341.167	9.67
341.378	9.48
341.588	9.81
341.799	9.67
342.009	9.61
342.219	9.3
342.43	9.27
342.64	9.33
342.85	9
343.061	9.21
343.271	9.44
343.481	9.09
343.691	9.29
343.902	9.09
344.112	9.34
344.322	9.68
344.532	9.49
344.743	9.79
344.953	10.11
345.163	10.39
345.373	10.37
345.583	10.27
345.793	10.53
346.004	10.69
346.214	10.49
346.424	10.62
346.634	10.36
346.844	10.47
347.054	10.3
347.264	9.59
347.474	9.51
347.684	9.54
347.894	9.54
348.104	9.26
348.314	8.71
348.524	8.87
348.734	8.8
348.944	8.82
349.154	8.85
349.364	8.81
349.574	9.08
349.784	9.07
349.994	8.9
350.204	9.06
350.413	9.41
350.623	9.56
350.833	9.54
351.043	8.92
351.253	8.83
351.463	8.91
351.672	8.92
351.882	9.12
352.092	8.94
352.302	9.36
352.511	9.23
352.721	9.15
352.931	9.2
353.141	9.02
353.35	9.46
353.56	9.55
353.77	9.22
353.979	9.17
354.189	9
354.399	9.06
354.608	8.72
354.818	8.84
355.027	8.76
355.237	8.61
355.447	8.8
355.656	8.97
355.866	8.82
356.075	8.92
356.285	8.89
356.494	8.96
356.704	8.95
356.913	9.09
357.123	9.19
357.332	9.31
357.542	9.4
357.751	9.38
357.96	9.45
358.17	9.49
358.379	9.6
358.589	9.69
358.798	9.43
359.007	9.26
359.217	9.05
359.426	8.67
359.635	8.46
359.845	8.48
360.054	8.6
360.263	8.29
360.472	8.37
360.682	8.3
360.891	8.22
361.1	8.35
361.309	8.67
361.519	8.82
361.728	8.91
361.937	8.99
362.146	9.1
362.355	8.88
362.564	9.15
362.774	9.03
362.983	9.04
363.192	9.07
363.401	9.3
363.61	9.02
363.819	8.99
364.028	8.92
364.237	8.97
364.446	8.86
364.655	9
364.864	8.7
365.073	8.58
365.282	8.24
365.491	8.59
365.7	8.33
365.909	8.25
366.118	8.14
366.327	8.46
366.536	8.15
366.745	8.2
366.954	8.36
367.162	8.45
367.371	8.53
367.58	8.74
367.789	8.12
367.998	7.96
368.207	8.03
368.415	8.01
368.624	7.96
368.833	7.92
369.042	7.79
369.25	7.44
369.459	7.47
369.668	7.49
369.877	7.58
370.085	7.8
370.294	7.77
370.503	7.86
370.711	8.22
370.92	8.06
371.129	8.26
371.337	8.36
371.546	8.46
371.754	8.26
371.963	8.21
372.171	8.37
372.38	8.35
372.589	8.56
372.797	8.49
373.006	8.19
373.214	8.21
373.423	8.4
373.631	8.35
373.84	8.19
374.048	8.26
374.256	8.31
374.465	8.14
374.673	7.84
374.882	7.74
375.09	7.59
375.298	7.48
375.507	7.11
375.715	6.87
375.923	6.82
376.132	6.8
376.34	6.57
376.548	6.78
376.757	6.61
376.965	7.03
377.173	7.05
377.381	7.47
377.59	7.69
377.798	7.94
378.006	7.88
378.214	7.76
378.423	7.76
378.631	8.25
378.839	8.2
379.047	8.41
379.255	7.93
379.463	8.09
379.671	7.93
379.879	7.64
380.088	7.5
380.296	7.46
380.504	7.77
380.712	8.02
380.92	7.78
381.128	7.43
381.336	7.34
381.544	7.53
381.752	7.26
381.96	7.07
382.168	7.14
382.376	7.37
382.584	7.31
382.791	7.17
382.999	6.98
383.207	6.82
383.415	7.15
383.623	7.13
383.831	7.05
384.039	7.04
384.247	6.8
384.454	6.74
384.662	6.49
384.87	6.8
385.078	6.6
385.285	6.56
385.493	6.48
385.701	6.18
385.909	6.19
386.116	6.28
386.324	6.25
386.532	6.48
386.739	6.65
386.947	6.64
387.155	6.51
387.362	6.54
387.57	6.58
387.778	6.56
387.985	6.82
388.193	6.76
388.4	7.01
388.608	7.08
388.816	7.06
389.023	6.95
389.231	7.02
389.438	6.96
389.646	6.99
389.853	7.13
390.061	7.36
390.268	7.19
390.475	7.33
390.683	7.04
390.89	7.12
391.098	7.31
391.305	7.5
391.512	7.54
391.72	7.47
391.927	7.68
392.135	7.45
392.342	7.34
392.549	7.36
392.756	7.23
392.964	7.2
393.171	7.09
393.378	6.99
393.586	6.8
393.793	6.72
394	6.82
394.207	6.71
394.414	6.71
394.622	6.78
394.829	6.66
395.036	6.8
395.243	7.15
395.45	7.06
395.657	6.89
395.864	7.01
396.072	7.1
396.279	6.89
396.486	6.87
396.693	6.91
396.9	6.95
397.107	6.93
397.314	6.82
397.521	6.39
397.728	6.53
397.935	6.63
398.142	6.44
398.349	6.4
398.556	6.48
398.763	6.39
398.97	6.4
399.177	6.39
399.383	6.37
399.59	6.39
399.797	6.54
400.004	6.32
400.211	6.31
400.418	6.2
400.625	6.03
400.831	6.06
401.038	6.05
401.245	6
401.452	5.94
401.658	6.02
401.865	5.94
402.072	5.95
402.279	5.99
402.485	5.97
402.692	6.11
402.899	6.26
403.105	6.29
403.312	6.44
403.519	6.56
403.725	6.64
403.932	6.83
404.138	6.83
404.345	6.79
404.552	6.85
404.758	6.94
404.965	6.83
405.171	6.75
405.378	6.75
405.584	6.6
405.791	6.35
405.997	6.26
406.204	6.23
406.41	6.34
406.617	6.48
406.823	6.55
407.029	6.42
407.236	6.43
407.442	6.58
407.649	6.69
407.855	6.74
408.061	6.87
408.268	6.82
408.474	6.64
408.68	6.38
408.887	6.23
409.093	6.1
409.299	6.22
409.505	6.32
409.712	6.36
409.918	6.35
410.124	6.35
410.33	6.34
410.537	6.5
410.743	6.56
410.949	6.61
411.155	6.68
411.361	6.76
411.567	6.63
411.773	6.61
411.98	6.39
412.186	6.15
412.392	6.15
412.598	6.18
412.804	6.08
413.01	6.08
413.216	6.23
413.422	6.2
413.628	6.24
413.834	6.18
414.04	6.04
414.246	6.08
414.452	6.18
414.658	6.18
414.864	6.2
415.07	6.22
415.275	6.23
415.481	6.3
415.687	6.33
415.893	6.3
416.099	6.25
416.305	6.34
416.511	6.31
416.716	6.3
416.922	6.29
417.128	6.19
417.334	6.14
417.539	6.13
417.745	6.09
417.951	6.1
418.157	6.09
418.362	6.18
418.568	6.15
418.774	6.12
418.979	6.17
419.185	6.13
419.391	6.21
419.596	6.22
419.802	6.18
420.008	6.12
420.213	6.72
420.419	6.74
420.624	6.7
420.83	6.75
421.035	6.79
421.241	6.72
421.446	6.71
421.652	6.69
421.857	6.59
422.063	6.65
422.268	6.7
422.474	6.05
422.679	5.99
422.885	6.01
423.09	5.96
423.295	6.04
423.501	6.03
423.706	6.04
423.911	5.97
424.117	6.12
424.322	6.05
424.527	5.97
424.733	6
424.938	6.02
425.143	6.06
425.349	6.09
425.554	6
425.759	6.12
425.964	6.11
426.169	6.19
426.375	6.06
426.58	6.1
426.785	6.16
426.99	6.12
427.195	6.06
427.4	5.92
427.605	5.95
427.811	5.98
428.016	5.82
428.221	5.8
428.426	5.77
428.631	5.73
428.836	5.6
429.041	5.61
429.246	5.55
429.451	5.59
429.656	5.69
429.861	5.63
430.066	5.52
430.271	5.56
430.476	5.61
430.681	5.58
430.886	5.57
431.09	5.63
431.295	5.71
431.5	5.8
431.705	5.74
431.91	5.81
432.115	5.66
432.32	5.7
432.524	5.58
432.729	5.58
432.934	5.66
433.139	5.76
433.343	5.89
433.548	5.83
433.753	5.88
433.958	5.94
434.162	5.84
434.367	5.93
434.572	6.03
434.776	6.21
434.981	6.22
435.186	6.11
435.39	6.05
435.595	5.93
435.799	5.93
436.004	5.81
436.209	5.84
436.413	5.8
436.618	5.87
436.822	5.92
437.027	5.81
437.231	5.89
437.436	5.88
437.64	5.94
437.845	5.88
438.049	5.94
438.253	5.97
438.458	5.96
438.662	5.91
438.867	5.92
439.071	5.79
439.275	5.82
439.48	5.75
439.684	5.84
439.888	5.77
440.093	5.77
440.297	5.71
440.501	5.74
440.706	5.75
440.91	5.78
441.114	5.79
441.318	5.78
441.523	5.73
441.727	5.71
441.931	5.63
442.135	5.69
442.339	5.63
442.543	5.58
442.748	5.56
442.952	5.46
443.156	5.58
443.36	5.57
443.564	5.66
443.768	5.66
443.972	5.59
444.176	5.63
444.38	5.66
444.584	5.72
444.788	5.79
444.992	5.78
445.196	5.83
445.4	5.8
445.604	5.8
445.808	5.76
446.012	5.8
446.216	5.88
446.42	5.79
446.624	5.71
446.828	5.73
447.032	5.69
447.235	5.69
447.439	5.74
447.643	5.73
447.847	5.77
448.051	5.79
448.254	5.73
448.458	5.69
448.662	5.87
448.866	5.89
449.069	5.89
449.273	5.92
449.477	5.91
449.681	5.87
449.884	5.75
450.088	5.71
450.292	5.59
450.495	5.66
450.699	5.7
450.902	5.55
451.106	5.58
451.31	5.41
451.513	5.4
451.717	5.34
451.92	5.32
452.124	5.34
452.327	5.43
452.531	5.47
452.734	5.43
452.938	5.48
453.141	5.55
453.345	5.57
453.548	5.78
453.752	5.87
453.955	5.86
454.158	5.87
454.362	5.81
454.565	5.7
454.769	5.64
454.972	5.63
455.175	5.55
455.379	5.49
455.582	5.41
455.785	5.36
455.988	5.27
456.192	5.25
456.395	5.24
456.598	5.44
456.801	5.41
457.005	5.43
457.208	5.42
457.411	5.35
457.614	5.33
457.817	5.33
458.021	5.26
458.224	5.23
458.427	5.25
458.63	5.26
458.833	5.16
459.036	5.2
459.239	5.32
459.442	5.36
459.645	5.45
459.848	5.44
460.051	5.5
460.254	5.54
460.457	5.59
460.66	5.67
460.863	5.71
461.066	5.9
461.269	5.91
461.472	5.85
461.675	5.86
461.878	5.72
462.081	5.75
462.284	5.78
462.486	5.83
462.689	5.75
462.892	5.64
463.095	5.61
463.298	5.41
463.5	5.41
463.703	5.44
463.906	5.43
464.109	5.49
464.311	5.52
464.514	5.4
464.717	5.48
464.92	5.6
465.122	5.68
465.325	5.73
465.528	5.77
465.73	5.65
465.933	5.56
466.135	5.58
466.338	5.66
466.541	5.7
466.743	5.81
466.946	5.73
467.148	5.7
467.351	5.68
467.553	5.67
467.756	5.71
467.958	5.83
468.161	5.8
468.363	5.8
468.566	5.93
468.768	5.96
468.971	5.94
469.173	5.87
469.375	5.85
469.578	5.93
469.78	5.82
469.983	5.8
470.185	5.77
470.387	5.86
470.59	5.87
470.792	5.76
470.994	5.8
471.196	5.86
471.399	5.94
471.601	5.84
471.803	5.81
472.005	5.87
472.208	5.87
472.41	5.85
472.612	5.75
472.814	5.67
473.016	5.64
473.218	5.58
473.421	5.47
473.623	5.5
473.825	5.57
474.027	5.54
474.229	5.59
474.431	5.53
474.633	5.56
474.835	5.63
475.037	5.68
475.239	5.66
475.441	5.66
475.643	5.63
475.845	5.64
476.047	5.61
476.249	5.66
476.451	5.65
476.653	5.76
476.855	5.76
477.057	5.84
477.258	5.82
477.46	5.85
477.662	5.77
477.864	5.81
478.066	5.89
478.268	5.89
478.469	5.8
478.671	5.77
478.873	5.75
479.075	5.75
479.276	5.65
479.478	5.69
479.68	5.59
479.882	5.68
480.083	5.62
480.285	5.6
480.487	5.59
480.688	5.61
480.89	5.63
481.091	5.55
481.293	5.56
481.495	5.57
481.696	5.58
481.898	5.64
482.099	5.64
482.301	5.66
482.502	5.65
482.704	5.69
482.905	5.7
483.107	5.71
483.308	5.79
483.51	5.8
483.711	5.86
483.913	5.89
484.114	5.89
484.315	5.9
484.517	5.93
484.718	5.91
484.92	5.88
485.121	5.88
485.322	5.85
485.524	5.81
485.725	5.8
485.926	5.75
486.127	5.7
486.329	5.7
486.53	5.67
486.731	5.69
486.932	5.73
487.134	5.76
487.335	5.79
487.536	5.83
487.737	5.84
487.938	5.86
488.139	5.89
488.341	5.94
488.542	5.93
488.743	5.96
488.944	5.87
489.145	5.84
489.346	5.82
489.547	5.78
489.748	5.78
489.949	5.77
490.15	5.75
490.351	5.79
490.552	5.77
490.753	5.85
490.954	5.9
491.155	5.95
491.356	5.99
491.557	6.04
491.758	6.06
491.959	6.06
492.159	6.08
492.36	6.13
492.561	6.07
492.762	6.1
492.963	6.01
493.164	5.99
493.364	5.94
493.565	5.93
493.766	5.86
493.967	5.83
494.167	5.81
494.368	5.81
494.569	5.64
494.769	5.64
494.97	5.65
495.171	5.65
495.371	5.73
495.572	5.77
495.773	5.81
495.973	5.79
496.174	5.77
496.375	5.77
496.575	5.89
496.776	6.03
496.976	6.05
497.177	6.01
497.377	6.05
497.578	5.93
497.778	5.92
497.979	5.93
498.179	6.06
498.38	6.09
498.58	6.15
498.78	6.02
498.981	6.05
499.181	6.06
499.382	6.17
499.582	6.14
499.782	6.17
499.983	6.26
500.183	6.22
500.383	6.13
500.584	6.13
500.784	6.1
500.984	6.1
501.184	6.1
501.385	6.14
501.585	6.03
501.785	6.1
501.985	6.13
502.185	6.14
502.386	6.18
502.586	6.21
502.786	6.21
502.986	6.24
503.186	6.33
503.386	6.31
503.586	6.27
503.786	6.33
503.987	6.34
504.187	6.39
504.387	6.38
504.587	6.39
504.787	6.38
504.987	6.45
505.187	6.43
505.387	6.38
505.587	6.43
505.786	6.44
505.986	6.47
506.186	6.37
506.386	6.38
506.586	6.4
506.786	6.31
506.986	6.33
507.186	6.32
507.386	6.39
507.585	6.36
507.785	6.34
507.985	6.39
508.185	6.45
508.384	6.56
508.584	6.52
508.784	6.47
508.984	6.52
509.183	6.61
509.383	6.62
509.583	6.65
509.782	6.73
509.982	6.73
510.182	6.8
510.381	6.79
510.581	6.78
510.781	6.9
510.98	6.98
511.18	7.09
511.379	7
511.579	7.03
511.778	7.05
511.978	7.04
512.177	7.06
512.377	7
512.576	6.94
512.776	6.91
512.975	6.9
513.175	6.83
513.374	6.84
513.573	6.86
513.773	6.83
513.972	6.83
514.172	6.88
514.371	6.96
514.57	6.93
514.77	6.93
514.969	6.98
515.168	6.92
515.367	6.95
515.567	6.88
515.766	6.9
515.965	6.91
516.164	6.87
516.364	6.85
516.563	6.8
516.762	6.83
516.961	6.91
517.16	6.98
517.359	7
517.559	7.05
517.758	7.18
517.957	7.19
518.156	7.27
518.355	7.35
518.554	7.4
518.753	7.47
518.952	7.53
519.151	7.59
519.35	7.59
519.549	7.65
519.748	7.57
519.947	7.47
520.146	7.55
520.345	7.51
520.544	7.47
520.743	7.4
520.942	7.44
521.141	7.42
521.339	7.37
521.538	7.39
521.737	7.43
521.936	7.48
522.135	7.55
522.333	7.58
522.532	7.65
522.731	7.65
522.93	7.65
523.129	7.59
523.327	7.56
523.526	7.61
523.725	7.63
523.923	7.65
524.122	7.65
524.321	7.66
524.519	7.65
524.718	7.65
524.917	7.71
525.115	7.76
525.314	7.8
525.512	7.82
525.711	7.78
525.909	7.8
526.108	7.76
526.306	7.79
526.505	7.77
526.703	7.79
526.902	7.79
527.1	7.78
527.299	7.8
527.497	7.84
527.696	7.87
527.894	7.95
528.092	8.01
528.291	8.1
528.489	8.15
528.688	8.24
528.886	8.32
529.084	8.41
529.283	8.51
529.481	8.54
529.679	8.55
529.877	8.6
530.076	8.59
530.274	8.55
530.472	8.44
530.67	8.43
530.869	8.37
531.067	8.35
531.265	8.32
531.463	8.3
531.661	8.32
531.859	8.39
532.057	8.45
532.255	8.46
532.454	8.49
532.652	8.56
532.85	8.67
533.048	8.75
533.246	8.78
533.444	8.8
533.642	8.8
533.84	8.82
534.038	8.77
534.236	8.77
534.434	8.75
534.632	8.72
534.83	8.79
535.027	8.73
535.225	8.7
535.423	8.68
535.621	8.78
535.819	8.77
536.017	8.88
536.215	8.94
536.412	9
536.61	9.09
536.808	9.12
537.006	9.12
537.203	9.11
537.401	9.11
537.599	9.11
537.797	9.08
537.994	9.17
538.192	9.08
538.39	9.09
538.587	9.01
538.785	8.99
538.983	8.96
539.18	8.96
539.378	9
539.575	9.08
539.773	9.16
539.97	9.19
540.168	9.28
540.366	9.37
540.563	9.46
540.761	9.55
540.958	9.63
541.155	9.72
541.353	9.82
541.55	9.85
541.748	9.89
541.945	9.94
542.143	9.94
542.34	9.87
542.537	9.84
542.735	9.73
542.932	9.79
543.129	9.71
543.327	9.79
543.524	9.76
543.721	9.83
543.919	9.87
544.116	9.93
544.313	10.03
544.51	10.12
544.708	10.18
544.905	10.26
545.102	10.28
545.299	10.38
545.496	10.45
545.693	10.54
545.891	10.59
546.088	10.65
546.285	10.63
546.482	10.6
546.679	10.65
546.876	10.75
547.073	10.91
547.27	10.96
547.467	10.97
547.664	10.87
547.861	10.89
548.058	10.96
548.255	11
548.452	11.19
548.649	11.22
548.846	11.26
549.043	11.18
549.24	11.08
549.437	11.02
549.633	11.09
549.83	11.18
550.027	11.18
550.224	11.14
550.421	11.06
550.618	11
550.814	11.1
551.011	11.17
551.208	11.24
551.405	11.33
551.601	11.45
551.798	11.56
551.995	11.6
552.191	11.59
552.388	11.81
552.585	11.99
552.781	12.09
552.978	12.11
553.175	12.23
553.371	12.26
553.568	12.32
553.764	12.39
553.961	12.38
554.157	12.45
554.354	12.56
554.55	12.5
554.747	12.46
554.943	12.53
555.14	12.66
555.336	12.59
555.533	12.64
555.729	12.68
555.926	12.76
556.122	12.82
556.318	12.93
556.515	12.95
556.711	12.91
556.907	12.93
557.104	12.95
557.3	12.89
557.496	12.91
557.693	12.98
557.889	12.92
558.085	12.85
558.281	12.95
558.478	12.94
558.674	12.92
558.87	13
559.066	13.05
559.262	13.08
559.459	13.27
559.655	13.41
559.851	13.51
560.047	13.66
560.243	13.73
560.439	13.73
560.635	13.83
560.831	13.9
561.027	14.01
561.223	14.07
561.419	13.98
561.615	14
561.811	14.02
562.007	14.2
562.203	14.23
562.399	14.34
562.595	14.28
562.791	14.19
562.987	14.25
563.183	14.34
563.379	14.42
563.575	14.54
563.771	14.65
563.966	14.76
564.162	14.72
564.358	14.7
564.554	14.68
564.75	14.88
564.945	14.95
565.141	15.04
565.337	15.03
565.533	15.13
565.728	15.23
565.924	15.13
566.12	15.12
566.315	15.11
566.511	15.26
566.707	15.32
566.902	15.3
567.098	15.42
567.293	15.52
567.489	15.58
567.684	15.5
567.88	15.55
568.076	15.57
568.271	15.58
568.467	15.57
568.662	15.54
568.858	15.6
569.053	15.59
569.248	15.49
569.444	15.59
569.639	15.57
569.835	15.69
570.03	15.69
570.225	15.81
570.421	15.89
570.616	16.09
570.812	16.23
571.007	16.3
571.202	16.4
571.397	16.57
571.593	16.57
571.788	16.65
571.983	16.74
572.178	16.79
572.374	16.95
572.569	17.06
572.764	17.09
572.959	17
573.154	17.05
573.35	17.11
573.545	16.94
573.74	16.88
573.935	16.88
574.13	16.83
574.325	16.88
574.52	16.79
574.715	16.77
574.91	16.67
575.105	16.71
575.3	16.75
575.495	16.71
575.69	16.92
575.885	16.96
576.08	16.93
576.275	16.92
576.47	16.87
576.665	16.78
576.86	16.8
577.055	16.84
577.25	16.96
577.444	16.86
577.639	16.84
577.834	16.89
578.029	16.98
578.224	17.06
578.418	17.21
578.613	17.28
578.808	17.34
579.003	17.35
579.197	17.48
579.392	17.42
579.587	17.62
579.781	17.7
579.976	17.59
580.171	17.54
580.365	17.61
580.56	17.56
580.755	17.64
580.949	17.83
581.144	17.8
581.338	17.79
581.533	17.71
581.727	17.82
581.922	17.97
582.116	18.12
582.311	18.2
582.505	18.3
582.7	18.26
582.894	18.31
583.089	18.24
583.283	18.19
583.478	18.18
583.672	18.51
583.866	18.45
584.061	18.5
584.255	18.49
584.449	18.57
584.644	18.66
584.838	18.77
585.032	18.85
585.226	18.98
585.421	19.21
585.615	19.27
585.809	19.1
586.003	19.01
586.198	18.89
586.392	19.01
586.586	18.93
586.78	18.85
586.974	18.94
587.168	18.85
587.363	18.87
587.557	18.76
587.751	18.76
587.945	18.87
588.139	18.96
588.333	19.01
588.527	18.98
588.721	19.07
588.915	19.18
589.109	19.16
589.303	19.23
589.497	19.32
589.691	19.46
589.885	19.47
590.079	19.48
590.273	19.46
590.466	19.55
590.66	19.52
590.854	19.45
591.048	19.41
591.242	19.39
591.436	19.45
591.629	19.47
591.823	19.5
592.017	19.38
592.211	19.38
592.404	19.41
592.598	19.34
592.792	19.35
592.986	19.49
593.179	19.44
593.373	19.67
593.567	19.55
593.76	19.49
593.954	19.51
594.147	19.72
594.341	19.76
594.535	19.81
594.728	19.93
594.922	19.99
595.115	20.07
595.309	20.14
595.502	20.05
595.696	20.2
595.889	20.29
596.083	20.23
596.276	20.24
596.47	20.34
596.663	20.42
596.856	20.33
597.05	20.48
597.243	20.4
597.437	20.36
597.63	20.34
597.823	20.3
598.017	20.22
598.21	20.38
598.403	20.49
598.596	20.36
598.79	20.22
598.983	20.27
599.176	20.04
599.369	20.01
599.563	20.04
599.756	20.16
599.949	20.37
600.142	20.41
600.335	20.37
600.528	20.2
600.722	20.42
600.915	20.57
601.108	20.63
601.301	20.75
601.494	20.9
601.687	20.9
601.88	20.85
602.073	20.76
602.266	20.82
602.459	20.93
602.652	21.1
602.845	20.92
603.038	20.86
603.231	20.89
603.424	20.93
603.617	20.94
603.809	21.09
604.002	21.02
604.195	20.97
604.388	20.99
604.581	20.91
604.774	20.84
604.966	20.82
605.159	20.83
605.352	20.93
605.545	21.02
605.737	20.92
605.93	20.77
606.123	20.86
606.316	20.9
606.508	20.86
606.701	20.88
606.894	20.81
607.086	21.01
607.279	20.95
607.471	20.86
607.664	20.81
607.857	20.94
608.049	21
608.242	21.03
608.434	21.12
608.627	21.06
608.819	21.08
609.012	21.1
609.204	21.12
609.397	21.32
609.589	21.44
609.782	21.47
609.974	21.52
610.166	21.62
610.359	21.67
610.551	21.71
610.743	21.82
610.936	21.94
611.128	22.01
611.32	22.02
611.513	21.94
611.705	21.95
611.897	21.85
612.09	21.75
612.282	21.63
612.474	21.58
612.666	21.55
612.858	21.67
613.051	21.47
613.243	21.53
613.435	21.52
613.627	21.48
613.819	21.29
614.011	21.28
614.203	21.38
614.395	21.48
614.588	21.44
614.78	21.33
614.972	21.18
615.164	21.45
615.356	21.54
615.548	21.57
615.74	21.51
615.932	21.59
616.124	21.72
616.315	21.83
616.507	21.98
616.699	22.09
616.891	22.21
617.083	22.36
617.275	22.28
617.467	22.14
617.659	22.24
617.85	22.4
618.042	22.5
618.234	22.47
618.426	22.29
618.618	22.19
618.809	22.31
619.001	22.23
619.193	22.19
619.384	22.21
619.576	22.28
619.768	22.31
619.959	22.25
620.151	22.06
620.343	22.18
620.534	22.29
620.726	22.25
620.917	22.06
621.109	22.08
621.301	22.22
621.492	22.27
621.684	22.33
621.875	22.4
622.067	22.49
622.258	22.63
622.45	22.44
622.641	22.36
622.832	22.26
623.024	22.37
623.215	22.48
623.407	22.3
623.598	22.36
623.789	22.29
623.981	22.2
624.172	22.15
624.363	22.13
624.555	22.22
624.746	22.26
624.937	22.34
625.129	22.3
625.32	22.17
625.511	22.18
625.702	22.08
625.893	22.25
626.085	22.27
626.276	22.2
626.467	22.29
626.658	22.28
626.849	22.26
627.04	22.37
627.231	22.38
627.422	22.49
627.614	22.59
627.805	22.22
627.996	22.11
628.187	22.03
628.378	22.16
628.569	22.28
628.76	22.3
628.951	22.27
629.142	22.16
629.332	22.21
629.523	22.13
629.714	22.08
629.905	22.5
630.096	22.51
630.287	22.75
630.478	22.8
630.669	22.58
630.859	22.63
631.05	22.54
631.241	22.54
631.432	22.54
631.623	22.76
631.813	22.92
632.004	22.91
632.195	22.85
632.385	22.6
632.576	22.54
632.767	22.58
632.957	22.51
633.148	22.7
633.339	22.76
633.529	22.86
633.72	22.83
633.91	22.74
634.101	22.63
634.292	22.51
634.482	22.51
634.673	22.49
634.863	22.43
635.054	22.4
635.244	22.46
635.435	22.42
635.625	22.22
635.815	22.13
636.006	22.23
636.196	22.44
636.387	22.61
636.577	22.77
636.767	22.75
636.958	22.78
637.148	22.93
637.338	22.92
637.529	22.97
637.719	22.9
637.909	23.01
638.099	22.89
638.29	22.78
638.48	22.79
638.67	22.71
638.86	22.83
639.05	23.04
639.241	23.03
639.431	22.99
639.621	23.04
639.811	23.23
640.001	23.2
640.191	23.32
640.381	23.34
640.571	23.32
640.761	23.29
640.951	23.24
641.141	23.16
641.331	23.17
641.521	23
641.711	22.97
641.901	23.08
642.091	23.09
642.281	22.94
642.471	22.99
642.661	23.08
642.851	23.31
643.041	23.28
643.231	23.2
643.42	23.07
643.61	23.3
643.8	23.32
643.99	23.28
644.18	23.1
644.369	23.11
644.559	23.04
644.749	23.01
644.939	22.78
645.128	22.82
645.318	22.83
645.508	23.06
645.697	22.96
645.887	22.92
646.076	22.82
646.266	22.7
646.456	22.68
646.645	22.71
646.835	22.89
647.024	22.92
647.214	22.92
647.403	22.91
647.593	22.62
647.782	22.83
647.972	22.76
648.161	22.74
648.351	22.96
648.54	22.87
648.73	22.97
648.919	22.95
649.108	23.03
649.298	22.96
649.487	23.08
649.677	23.39
649.866	23.22
650.055	23.28
650.244	23.28
650.434	23.27
650.623	23.39
650.812	23.22
651.002	23.23
651.191	23.19
651.38	23.33
651.569	23.41
651.758	23.08
651.947	23.13
652.137	23.14
652.326	23.17
652.515	23.41
652.704	23.51
652.893	23.64
653.082	23.63
653.271	23.73
653.46	23.72
653.649	23.63
653.838	23.78
654.027	23.83
654.216	23.87
654.405	23.93
654.594	23.67
654.783	23.55
654.972	23.64
655.161	23.42
655.35	23.35
655.539	23.21
655.728	23.26
655.916	23.46
656.105	23.41
656.294	23.51
656.483	23.64
656.672	23.63
656.86	23.66
657.049	23.81
657.238	23.91
657.427	23.91
657.615	24.05
657.804	23.95
657.993	23.92
658.181	23.91
658.37	23.8
658.559	23.7
658.747	23.78
658.936	23.79
659.125	23.78
659.313	23.73
659.502	23.76
659.69	23.81
659.879	23.89
660.067	23.8
660.256	23.87
660.444	23.91
660.633	24.12
660.821	24.02
661.01	24.01
661.198	23.98
661.387	24.06
661.575	23.92
661.763	23.84
661.952	23.72
662.14	23.92
662.328	23.85
662.517	23.85
662.705	23.81
662.893	24.07
663.082	24.2
663.27	24.06
663.458	23.98
663.646	24.24
663.834	24.49
664.023	24.77
664.211	24.54
664.399	24.7
664.587	24.86
664.775	24.77
664.963	24.41
665.152	24.36
665.34	24.29
665.528	24.4
665.716	24.37
665.904	24.09
666.092	24.16
666.28	24.4
666.468	24.33
666.656	24.07
666.844	24.18
667.032	24.54
667.22	24.7
667.408	24.77
667.596	24.93
667.784	24.8
667.971	24.98
668.159	24.9
668.347	24.76
668.535	24.74
668.723	24.88
668.911	24.6
669.098	24.48
669.286	24.3
669.474	24.33
669.662	24.17
669.849	24.27
670.037	24.25
670.225	23.95
670.413	23.74
670.6	23.82
670.788	23.97
670.976	24.12
671.163	24.04
671.351	23.87
671.538	23.82
671.726	23.95
671.913	23.7
672.101	23.7
672.289	23.99
672.476	24.37
672.664	24.05
672.851	23.7
673.039	23.6
673.226	23.61
673.413	23.56
673.601	23.61
673.788	23.34
673.976	23.71
674.163	23.42
674.35	23.29
674.538	22.9
674.725	23.25
674.912	23.41
675.1	23.63
675.287	23.66
675.474	24.07
675.662	24.24
675.849	24.41
676.036	24.25
676.223	24.26
676.411	24.24
676.598	24.2
676.785	24.24
676.972	24.41
677.159	24.29
677.346	24.18
677.533	23.95
677.721	24.02
677.908	24.2
678.095	24.28
678.282	24.55
678.469	24.73
678.656	24.87
678.843	24.83
679.03	24.45
679.217	24.69
679.404	24.69
679.591	24.71
679.778	24.61
679.964	24.26
680.151	24.29
680.338	24.1
680.525	23.91
680.712	24.16
680.899	24.07
681.086	24.37
681.272	24.02
681.459	24.14
681.646	24.15
681.833	24.15
682.02	24.23
682.206	24.06
682.393	23.9
682.58	23.91
682.766	23.85
682.953	23.81
683.14	23.93
683.326	24.25
683.513	24.16
683.7	24.31
683.886	24.24
684.073	24.37
684.259	24.65
684.446	25
684.632	25.25
684.819	25.1
685.005	25.26
685.192	25.34
685.378	25.29
685.565	25.66
685.751	25.43
685.938	25.56
686.124	25.51
686.31	25.15
686.497	24.88
686.683	24.84
686.87	24.82
687.056	24.93
687.242	24.83
687.429	24.98
687.615	24.71
687.801	24.89
687.987	24.81
688.174	24.76
688.36	25.01
688.546	25.21
688.732	24.94
688.918	25.02
689.105	24.69
689.291	24.66
689.477	24.65
689.663	24.76
689.849	24.85
690.035	24.7
690.221	24.81
690.407	24.99
690.593	24.89
690.779	25.05
690.965	24.91
691.151	25.07
691.337	24.83
691.523	24.47
691.709	24.28
691.895	24.42
692.081	24.35
692.267	24.42
692.453	24.28
692.639	24.53
692.825	24.53
693.011	24.57
693.196	24.66
693.382	24.96
693.568	24.91
693.754	24.73
693.94	24.61
694.125	24.9
694.311	24.93
694.497	24.69
694.682	24.53
694.868	24.53
695.054	24.49
695.239	24.37
695.425	24.29
695.611	24.39
695.796	24.66
695.982	24.51
696.168	24.39
696.353	24.44
696.539	24.39
696.724	24.37
696.91	24.49
697.095	24.6
697.281	24.6
697.466	24.56
697.652	24.73
697.837	24.75
698.023	24.83
698.208	24.87
698.393	24.79
698.579	24.9
698.764	24.83
698.949	24.59
699.135	24.63
699.32	24.73
699.505	24.6
699.691	24.62
699.876	24.66
700.061	24.63
700.246	24.45
700.432	24.21
700.617	24.33
700.802	24.29
700.987	24.65
701.172	24.63
701.358	24.18
701.543	24.73
701.728	24.49
701.913	24.64
702.098	24.48
702.283	24.72
702.468	25.12
702.653	24.9
702.838	25.26
703.023	25.04
703.208	24.95
703.393	25.08
703.578	24.88
703.763	25.15
703.948	24.99
704.133	25.22
704.318	25.11
704.503	25
704.688	25.06
704.873	24.73
705.057	24.63
705.242	24.82
705.427	25.16
705.612	25.04
705.797	24.6
705.981	24.51
706.166	24.3
706.351	24.35
706.536	24.52
706.72	24.78
706.905	24.9
707.09	25.16
707.274	24.93
707.459	25.28
707.644	25.44
707.828	25.31
708.013	25.4
708.197	25.46
708.382	25.29
708.567	25.11
708.751	24.84
708.936	24.92
709.12	24.8
709.305	24.86
709.489	24.56
709.673	24.53
709.858	24.72
710.042	24.83
710.227	25
710.411	25.2
710.596	25.27
710.78	25.39
710.964	25.32
711.149	25.49
711.333	25.24
711.517	25.19
711.702	25.04
711.886	25.05
712.07	24.64
712.254	24.7
712.438	24.41
712.623	24.14
712.807	23.98
712.991	24.1
713.175	24
713.359	24.45
713.544	24.47
713.728	24.46
713.912	24.46
714.096	24.49
714.28	24.4
714.464	24.55
714.648	24.93
714.832	25.08
715.016	25.29
715.2	25.28
715.384	25.04
715.568	25.05
715.752	24.84
715.936	24.95
716.12	25.17
716.304	25.16
716.488	25.25
716.671	25.29
716.855	25.39
717.039	25.3
717.223	24.98
717.407	25.22
717.59	25.15
717.774	25.73
717.958	25.79
718.142	26.02
718.325	25.68
718.509	25.55
718.693	25.64
718.877	25.39
719.06	25.41
719.244	25.98
719.428	25.76
719.611	25.76
719.795	25.15
719.978	25.38
720.162	25.24
720.345	25.51
720.529	25.5
720.713	24.91
720.896	25.19
721.08	24.79
721.263	24.43
721.446	24.54
721.63	24.26
721.813	24.53
721.997	24.31
722.18	24.32
722.364	24.4
722.547	24.55
722.73	24.9
722.914	24.71
723.097	24.77
723.28	24.86
723.464	24.58
723.647	25.17
723.83	25.27
724.013	25.22
724.197	25.29
724.38	25.33
724.563	24.85
724.746	24.81
724.929	25.08
725.112	25.17
725.296	25.29
725.479	25.32
725.662	24.89
725.845	24.45
726.028	24.48
726.211	24.82
726.394	24.64
726.577	25.22
726.76	25.78
726.943	25.68
727.126	25.27
727.309	25.24
727.492	25.25
727.675	25.41
727.858	25.23
728.041	25.24
728.224	24.94
728.407	24.97
728.589	24.68
728.772	24.1
728.955	24.36
729.138	25.02
729.321	24.82
729.503	24.78
729.686	24.82
729.869	25.1
730.052	25.34
730.234	25.09
730.417	25.1
730.6	25.3
730.782	25.47
730.965	24.7
731.148	24.52
731.33	25.11
731.513	25.53
731.695	25.31
731.878	25.28
732.061	24.79
732.243	24.98
732.426	24.98
732.608	24.88
732.791	24.66
732.973	25.1
733.156	25.22
733.338	25
733.52	24.7
733.703	24.88
733.885	25.18
734.068	24.77
734.25	24.64
734.432	24.47
734.615	24.37
734.797	24.57
734.979	24.65
735.162	24.71
735.344	24.31
735.526	24.39
735.708	24.12
735.891	24.44
736.073	25.19
736.255	25.14
736.437	25.11
736.619	25.22
736.802	24.68
736.984	24.14
737.166	24.01
737.348	24.16
737.53	24.06
737.712	24.07
737.894	23.49
738.076	23.56
738.258	23.5
738.44	24.47
738.622	24.62
738.804	25.06
738.986	25.28
739.168	25.03
739.35	24.78
739.532	24.85
739.714	24.61
739.896	24.78
740.078	24.58
740.259	24.49
740.441	23.48
740.623	23.2
740.805	22.96
740.987	23.24
741.168	22.57
741.35	22.81
741.532	23.46
741.714	24.2
741.895	24.27
742.077	24.06
742.259	24.26
742.44	24.18
742.622	24.69
742.804	24.73
742.985	24.79
743.167	25.75
743.348	25.71
743.53	24.8
743.711	24.24
743.893	24.4
744.075	24.88
744.256	24.65
744.438	25.33
744.619	25.01
744.8	24.83
744.982	24.94
745.163	24.4
745.345	24.05
745.526	24.27
745.707	24.68
745.889	24.89
746.07	24.44
746.252	25
746.433	24.42
746.614	24.54
746.795	25.2
746.977	24.42
747.158	24.72
747.339	24.55
747.52	24.03
747.702	24.31
747.883	23.9
748.064	24.33
748.245	24.17
748.426	23.93
748.607	23.54
748.788	23.62
748.97	23.99
749.151	24.27
749.332	25.06
749.513	25.29
749.694	24.62
749.875	24.67
750.056	25.02
750.237	24.46
750.418	25.22
750.599	25.17
750.78	23.92
750.96	24.74
751.141	24.07
751.322	23.74
751.503	24.27
751.684	24.57
751.865	23.99
752.046	23.12
752.226	23.37
752.407	24.02
752.588	24.75
752.769	25.18
752.949	24.55
753.13	24.78
753.311	25.22
753.492	25.34
753.672	25.17
753.853	26
754.034	27.16
754.214	27.12
754.395	25.89
754.575	25.3
754.756	25.74
754.937	25.84
755.117	25.39
755.298	24.91
755.478	24.52
755.659	24.66
755.839	23.91
756.02	22.59
756.2	22.73
756.381	22.79
756.561	23.31
756.741	23.2
756.922	23.18
757.102	23.61
757.283	23.33
757.463	23.16
757.643	22.99
757.823	23.69
758.004	24.14
758.184	24.28
758.364	25.13
758.545	24.84
758.725	25.14
758.905	25.52
759.085	25.61
759.265	26.52
759.446	26.91
759.626	27.17
759.806	26.58
759.986	26.54
760.166	26.48
760.346	25.83
760.526	25.38
760.706	24.79
760.886	24.03
761.066	23.53
761.246	23.37
761.426	23.66
761.606	23.02
761.786	23.47
761.966	23.47
762.146	23.83
762.326	24.37
762.506	24.6
762.686	24.83
762.866	24.99
763.046	25.54
763.225	25.23
763.405	25.09
763.585	25.4
763.765	25.3
763.945	25.26
764.124	24.77
764.304	24.58
764.484	24.5
764.664	24.58
764.843	24.57
765.023	24.43
765.203	24.33
765.382	24.19
765.562	24.42
765.741	24.56
765.921	24.54
766.101	24.62
766.28	24.68
766.46	24.73
766.639	24.73
766.819	24.92
766.998	24.39
767.178	24.18
767.357	23.77
767.537	23.13
767.716	22.96
767.896	23.62
768.075	23.95
768.254	23.93
768.434	24.39
768.613	24.21
768.792	23.92
768.972	24.75
769.151	24.93
769.33	24.41
769.51	25.25
769.689	24.83
769.868	24.05
770.047	23.93
770.226	23.31
770.406	22.88
770.585	22.65
770.764	22.91
770.943	22.28
771.122	22.64
771.301	23.9
771.48	23.51
771.66	23.27
771.839	23.8
772.018	24.18
772.197	24.34
772.376	23.98
772.555	23.94
772.734	23.9
772.913	24.76
773.092	24.25
773.271	23.74
773.449	24.23
773.628	23.68
773.807	22.72
773.986	22.34
774.165	22.85
774.344	23.01
774.523	24.02
774.701	23.46
774.88	22.64
775.059	23.26
775.238	23.11
775.417	22.54
775.595	23.44
775.774	23.77
775.953	23.92
776.131	22.71
776.31	22.92
776.489	22.11
776.667	22.89
776.846	23.66
777.025	23.81
777.203	23.69
777.382	23.74
777.56	23.63
777.739	24.31
777.917	23.63
778.096	24.6
778.274	24.3
778.453	23.98
778.631	23.69
778.81	23.1
778.988	23.44
779.166	23.34
779.345	23.4
779.523	22.92
779.702	22.55
779.88	22.53
780.058	22.19
780.237	22.58
780.415	22.52
780.593	22.73
780.771	21.82
780.95	21.25
781.128	21.36
781.306	21.38
781.484	22.96
781.662	22.41
781.841	23.19
782.019	22.95
782.197	22.89
782.375	22.84
782.553	23.63
782.731	25.09
782.909	25.19
783.087	25.47
783.265	25.4
783.443	24.62
783.621	24.76
783.799	24.71
783.977	25.3
784.155	24.65
784.333	25.98
784.511	24.37
784.689	24.04
784.867	23.68
785.045	24.2
785.223	22.98
785.4	23.19
785.578	23.74
785.756	23.3
785.934	23.57
786.112	24.1
786.289	24.01
786.467	24.83
786.645	25.23
786.823	25.28
787	25.05
787.178	26.1
787.356	24.96
787.533	24.52
787.711	25.13
787.889	24.98
788.066	25.84
788.244	25.36
788.421	25.07
788.599	24.07
788.776	24.96
788.954	25.38
789.131	25.41
789.309	25.9
789.486	25.83
789.664	25.18
789.841	24.64
790.019	24.53
790.196	23.58
790.373	23.03
790.551	23.45
790.728	22.69
790.906	21.74
791.083	21.61
791.26	21.14
791.437	21.82
791.615	22.82
791.792	22.71
791.969	21.92
792.146	23.07
792.324	23.29
792.501	22.55
792.678	22.87
792.855	23.38
793.032	22.32
793.209	23.66
793.387	23.71
793.564	22.01
793.741	21.89
793.918	22.02
794.095	21.91
794.272	22.93
794.449	24
794.626	23.41
794.803	22.89
794.98	24.07
795.157	23.17
795.334	24.16
795.511	24.49
795.688	25.07
795.864	24.57
796.041	23.96
796.218	22.81
796.395	22.4
796.572	22.76
796.749	22.6
796.925	22.96
797.102	23.75
797.279	22.3
797.456	23.15
797.632	22.16
797.809	23.02
797.986	22.76
798.162	23.41
798.339	22.95
798.516	22.83
798.692	22.58
798.869	21.86
799.046	20.86
799.222	20.14
799.399	19.14
799.575	20.49
799.752	19.35
799.928	20.58
800.105	19.67
800.281	20.24
800.458	19.96
800.634	20.99
800.811	22.35
800.987	22.91
801.163	23.6
801.34	24.53
801.516	24.46
801.692	25.1
801.869	24.53
802.045	25.6
802.221	26.07
802.398	26.3
802.574	26.18
802.75	25.96
802.926	26.55
803.103	27.2
803.279	26.79
803.455	25.5
803.631	26.09
803.807	26.09
803.983	26.24
804.16	26.13
804.336	25.81
804.512	26.03
804.688	24.76
804.864	23.12
805.04	22.18
805.216	21.49
805.392	21.63
805.568	20.78
805.744	20.79
805.92	19.07
806.096	18.54
806.272	18.14
806.448	18.56
806.623	18.66
806.799	19.72
806.975	19.89
807.151	20.44
807.327	21.04
807.503	21.18
807.678	20.45
807.854	21.06
808.03	21.08
808.206	22.46
808.381	21.01
808.557	21.79
808.733	20.09
808.908	19.66
809.084	19.67
809.26	19.49
809.435	18.01
809.611	18.43
809.787	19.55
809.962	18.55
810.138	17.69
810.313	17.68
810.489	17.01
810.664	18.31
810.84	18.39
811.015	18.74
811.191	18.32
811.366	20.08
811.542	19.78
811.717	20.12
811.892	21.09
812.068	20.83
812.243	21.4
812.419	20.07
812.594	19.26
812.769	18.8
812.944	18.11
813.12	18.58
813.295	17.42
813.47	17.95
813.645	15.66
813.821	16.4
813.996	16.03
814.171	16.61
814.346	18.24
814.521	20.12
814.697	20.41
814.872	20.15
815.047	20.35
815.222	22.65
815.397	23.41
815.572	25.36
815.747	24.16
815.922	23.65
816.097	22.8
816.272	22.52
816.447	21.13
816.622	21.72
816.797	22.85
816.972	23.1
817.147	20.78
817.322	19.87
817.496	19.7
817.671	20
817.846	20.47
818.021	22.63
818.196	22.38
818.371	23.02
818.545	22.86
818.72	22.35
818.895	21.6
819.069	22.36
819.244	22.67
819.419	22.3
819.594	22.64
819.768	23.01
819.943	22.12
820.117	22.39
820.292	23.26
820.467	23.36
820.641	23.54
820.816	24.13
820.99	24.11
821.165	24.12
821.339	23.99
821.514	24.01
821.688	24.07
821.863	23.93
822.037	24.18
822.212	24.14
822.386	24.35
822.56	24.38
822.735	24.11
822.909	24.2
823.084	24.51
823.258	24.61
823.432	24.72
823.606	24.69
823.781	24.99
823.955	24.99
824.129	24.78
824.303	24.7
824.478	24.56
824.652	24.77
824.826	24.79
825	24.52
825.174	24.87
825.348	24.69
825.523	24.51
825.697	24.16
825.871	24.11
826.045	24.09
826.219	23.89
826.393	23.9
826.567	24.19
826.741	24.01
826.915	23.83
827.089	23.73
827.263	23.95
827.437	24.06
827.611	24.3
827.784	24.28
827.958	24.55
828.132	24.6
828.306	24.54
828.48	24.28
828.654	24.11
828.827	24.33
829.001	24.39
829.175	24.1
829.349	24.14
829.522	23.62
829.696	22.92
829.87	22.33
830.044	22.18
830.217	22.84
830.391	22.19
830.565	22.48
830.738	22.89
830.912	21.08
831.085	21.31
831.259	20.78
831.432	21.35
831.606	22.03
831.779	22.05
831.953	21.74
832.126	21.51
832.3	22.92
832.473	22.94
832.647	21.68
832.82	22.12
832.994	21.66
833.167	21.75
833.34	22
833.514	21.73
833.687	21.98
833.86	22.62
834.034	22.73
834.207	22.1
834.38	22.19
834.553	23.18
834.727	23.51
834.9	24.12
835.073	24.16
835.246	23.8
835.419	24.42
835.593	24.52
835.766	25.59
835.939	26.56
836.112	26.12
836.285	25.95
836.458	25.57
836.631	25.67
836.804	24.6
836.977	26.4
837.15	26.99
837.323	25.87
837.496	25.79
837.669	22.79
837.842	20.34
838.015	20.72
838.188	22.26
838.361	21.72
838.533	22.5
838.706	22.52
838.879	20.47
839.052	19.46
839.225	20.26
839.398	19.59
839.57	19.13
839.743	18.89
839.916	19.48
840.088	17.19
840.261	16.48
840.434	15.02
840.607	16.12
840.779	17.12
840.952	16.06
841.124	14.72
841.297	14.57
841.47	16.84
841.642	17.41
841.815	16.88
841.987	17.4
842.16	16.64
842.332	18.6
842.505	17.87
842.677	16.37
842.85	17.28
843.022	17.26
843.194	17.85
843.367	16.58
843.539	17.01
843.712	19.43
843.884	20.99
844.056	23.21
844.229	23.06
844.401	19.72
844.573	20.21
844.745	17.47
844.918	18.61
845.09	18.83
845.262	15.99
845.434	12.26
845.606	8.66
845.779	5.73
845.951	2.53
846.123	-4.34
846.295	4.87
846.467	3.02
846.639	10.08
846.811	11.49
846.983	11.75
847.155	11.25
847.327	14.38
847.499	15.62
847.671	18.04
847.843	16.99
848.015	21.78
848.187	14.77
848.359	16.32
848.531	15.28
848.703	16.1
848.875	16.94
849.047	20.63
849.218	22.99
849.39	22.9
849.562	19.71
849.734	22.66
849.905	21.53
850.077	24.92
850.249	22.27
850.421	19.74
850.592	15.51
850.764	13.9
850.936	15.67
851.107	10.47
851.279	6.92
851.451	12.97
851.622	6.85
851.794	8.65
851.965	7.02
852.137	10.77
852.308	10.92
852.48	15.49
852.651	16.27
852.823	11.37
852.994	15.28
853.166	16.19
853.337	14.55
853.509	19.84
853.68	22.17
853.851	22.07
854.023	21.98
854.194	20.07
854.365	19.63
854.537	17.57
854.708	19.59
854.879	18.55
855.05	20.49
855.222	17.65
855.393	16.43
855.564	10.43
855.735	12.09
855.906	11.71
856.078	12.75
856.249	11.46
856.42	7.71
856.591	8.46
856.762	7.04
856.933	7.08
857.104	8.74
857.275	10.92
857.446	10.97
857.617	12.29
857.788	12.02
857.959	10.74
858.13	10.15
858.301	11.7
858.472	12.34
858.643	15.05
858.814	12.66
858.985	9.46
859.155	8.49
859.326	12.48
859.497	8.72
859.668	12.86
859.839	14.09
860.009	13.02
860.18	16.79
860.351	14.99
860.522	11.03
860.692	7.54
860.863	10.38
861.034	8.14
861.204	8.54
861.375	10.97
861.546	10.14
861.716	10
861.887	9.02
862.057	7.4
862.228	10.24
862.398	11.62
862.569	18.68
862.739	15.4
862.91	16
863.08	12.8
863.251	13.54
863.421	7.44
863.592	10.88
863.762	10.5
863.932	10.44
864.103	11.99
864.273	10.31
864.443	9.42
864.614	14.35
864.784	15.44
864.954	13.02
865.125	12.28
865.295	21.07
865.465	18.5
865.635	18.15
865.805	20.32
865.976	12.93
866.146	15.85
866.316	12.97
866.486	9.66
866.656	11.06
866.826	15.49
866.996	17.61
867.166	12.86
867.336	14.5
867.506	16.39
867.676	14.34
867.846	22.04
868.016	20.57
868.186	22.96
868.356	26.05
868.526	22.5
868.696	24.22
868.866	22.6
869.036	20.79
869.206	17.71
869.376	16.31
869.545	16.2
869.715	16.93
869.885	19.15
870.055	17.99
870.224	14.2
870.394	14.91
870.564	15.12
870.734	11.68
870.903	17.45
871.073	22.4
871.243	18.79
871.412	18.84
871.582	17.12
871.751	16.82
871.921	22.22
872.091	21.2
872.26	19.38
872.43	14.16
872.599	14.44
872.769	11.03
872.938	8.16
873.108	12.61
873.277	14.51
873.446	11.95
873.616	11.4
873.785	7.64
873.955	13.51
874.124	13.59
874.293	18.27
874.463	16.87
874.632	14.55
874.801	20.33
874.971	23.73
875.14	20.46
875.309	18.71
875.478	14.5
875.647	14.38
875.817	16.54
875.986	19.88
876.155	19.33
876.324	23.39
876.493	26.88
876.662	21.03
876.831	21.36
877	24.06
877.17	26.8
877.339	30.49
877.508	34.34
877.677	29.7
877.846	30.99
878.015	27.81
878.184	28.14
878.352	24.85
878.521	26.79
878.69	25.79
878.859	25.31
879.028	27.48
879.197	25.16
879.366	21.41
879.534	22.14
879.703	21.97
879.872	24.06
880.041	22.35
880.21	24.03
880.378	23.5
880.547	21.83
880.716	22.65
880.884	22.08
881.053	23.11
881.222	23.2
881.39	23.82
881.559	23.72
881.727	23.05
881.896	22.69
882.065	22.58
882.233	22.25
882.402	22.98
882.57	23.09
882.739	23.14
882.907	23.06
883.076	23.07
883.244	23
883.412	22.59
883.581	22.99
883.749	23.44
883.918	23.62
884.086	24.32
884.254	24.13
884.423	24.02
884.591	24.16
884.759	25.01
884.927	25.61
885.096	24.24
885.264	24.5
885.432	25.03
885.6	25.79
885.769	25.94
885.937	25.55
886.105	24.79
886.273	24.84
886.441	23.76
886.609	22.06
886.777	22.18
886.945	21.56
887.113	20.28
887.281	18.31
887.449	16.85
887.617	14.55
887.785	15.81
887.953	16.89
888.121	15.55
888.289	14.52
888.457	10.39
888.625	10.69
888.793	16.15
888.961	18.49
889.129	18.86
889.296	20.93
889.464	21.48
889.632	19.98
889.8	21.17
889.967	21.53
890.135	24.12
