Data from 2938488_Reflection_2.txt Node
Date: Wed Jun 17 00:52:37 EDT 2015
User: robert
Spectrometer: USB4E03002
Autoset integration time: false
Trigger mode: 4
Integration Time (sec): 1.000000E-1
Scans to average: 10
Electric dark correction enabled: true
Nonlinearity correction enabled: false
Boxcar width: 5
Stray light correction enabled: false
XAxis mode: Wavelengths
Stop averaging: false
Number of Pixels in Spectrum: 3648
>>>>>Begin Spectral Data<<<<<
177.575	-155.02
177.794	93.89
178.014	133.72
178.233	70.67
178.452	22.57
178.672	27.95
178.891	42.98
179.11	76.42
179.33	85.86
179.549	25.02
179.768	-15.29
179.987	16.07
180.207	-6.22
180.426	-83.53
180.645	-46.03
180.864	-132.4
181.084	-8.83
181.303	-25.78
181.522	-14.16
181.741	-35.27
181.96	-38.72
182.179	-365.4
182.398	856.67
182.618	106.92
182.837	105.21
183.056	105.48
183.275	97.21
183.494	277.68
183.713	464.26
183.932	487.65
184.151	-138.31
184.37	-1333.43
184.589	-7321.13
184.808	2090.72
185.027	693.96
185.246	-10660.71
185.465	1374.47
185.684	454.95
185.903	317.06
186.122	348.97
186.341	256.24
186.56	234.65
186.779	404.65
186.998	869.44
187.216	820.65
187.435	782.63
187.654	2067.59
187.873	-1931.24
188.092	-2087.42
188.311	15490.59
188.53	-1200.47
188.748	-377.25
188.967	-762.95
189.186	-1935.21
189.405	-3146.25
189.623	6147.45
189.842	-1269.68
190.061	-3775.74
190.28	564.11
190.498	-2441.65
190.717	-753.61
190.936	650.96
191.154	804.71
191.373	677.17
191.592	1418.38
191.81	1122.43
192.029	568.39
192.248	628.48
192.466	513.18
192.685	847.85
192.904	7400
193.122	1266.71
193.341	-158.23
193.559	-242.8
193.778	-621.47
193.996	-293.87
194.215	-237.9
194.433	-119.67
194.652	-128.17
194.87	-39.93
195.089	-7.99
195.307	-284.86
195.526	654.92
195.744	219.64
195.963	136.7
196.181	176.43
196.399	140.24
196.618	83.3
196.836	105.42
197.055	154.99
197.273	150.74
197.491	126.47
197.71	143.13
197.928	312.21
198.146	-1722.26
198.365	-463.73
198.583	-1150.11
198.801	612.04
199.019	789.71
199.238	-773.93
199.456	9620.83
199.674	2381.91
199.892	-237.5
200.111	-305.9
200.329	-130.13
200.547	-218.38
200.765	-121.94
200.983	-417.3
201.202	-154.82
201.42	-216.42
201.638	-14212.5
201.856	-378.05
202.074	-70.64
202.292	-105.09
202.51	-82.22
202.728	972.67
202.946	1730.73
203.165	-3544.05
203.383	-1008.38
203.601	-1394.37
203.819	-1282.45
204.037	-810.66
204.255	1134.07
204.473	202.87
204.691	245.73
204.909	192.34
205.127	589.24
205.345	-426.41
205.562	-1771.23
205.78	-178.64
205.998	-624.94
206.216	-1398.44
206.434	-280.12
206.652	-257.19
206.87	-169.33
207.088	-171.06
207.306	-462.06
207.523	-436.69
207.741	1251.24
207.959	-545.51
208.177	1651.56
208.395	2156.93
208.612	-3267.29
208.83	244.68
209.048	204.5
209.266	164.39
209.483	143.27
209.701	193.37
209.919	175.22
210.136	226.1
210.354	152.71
210.572	126.28
210.79	97.46
211.007	92.92
211.225	103.21
211.442	116.63
211.66	121.18
211.878	112.39
212.095	104.14
212.313	84.37
212.53	83.27
212.748	75.33
212.966	77.5
213.183	90.29
213.401	85.56
213.618	118.62
213.836	89.68
214.053	91.41
214.271	97.03
214.488	91.2
214.705	98.95
214.923	100.35
215.14	104.33
215.358	115.89
215.575	94.92
215.793	86.48
216.01	64.17
216.227	67.63
216.445	69.44
216.662	53.8
216.879	35.59
217.097	25.28
217.314	17.41
217.531	12.27
217.749	-9.7
217.966	12.48
218.183	48.68
218.4	65.15
218.618	69.9
218.835	61.29
219.052	71.03
219.269	82.72
219.487	91.84
219.704	92.48
219.921	70.41
220.138	74.03
220.355	62.09
220.572	53.5
220.79	45.65
221.007	28.91
221.224	24.01
221.441	23.87
221.658	30.34
221.875	24.24
222.092	39.34
222.309	47.26
222.526	49.23
222.743	51.87
222.96	46.92
223.177	46.39
223.394	43.94
223.611	46.35
223.828	42.78
224.045	31.83
224.262	31.56
224.479	20.39
224.696	13.68
224.913	15.75
225.13	11.94
225.347	9.53
225.564	9.67
225.781	11.61
225.997	10.97
226.214	12.13
226.431	12.89
226.648	13.1
226.865	13.13
227.082	12.93
227.298	11.69
227.515	11.68
227.732	12.79
227.949	13.5
228.165	13.15
228.382	13.27
228.599	13.36
228.816	13.95
229.032	14.06
229.249	15.13
229.466	15.61
229.682	15.15
229.899	17.1
230.116	16.57
230.332	16.53
230.549	17.49
230.765	18.65
230.982	19.23
231.199	20.9
231.415	18.96
231.632	19.7
231.848	22.55
232.065	24.86
232.281	24.01
232.498	23.52
232.714	22.46
232.931	23.38
233.147	22.18
233.364	21.28
233.58	19.28
233.797	20
234.013	19.31
234.23	18.51
234.446	17.89
234.662	19.02
234.879	22.1
235.095	22.75
235.312	21.95
235.528	23.48
235.744	22.86
235.961	23.1
236.177	22.05
236.393	22.45
236.61	22.83
236.826	22
237.042	20.34
237.258	16.91
237.475	18.79
237.691	18.37
237.907	16.34
238.123	16.91
238.339	16.86
238.556	19.4
238.772	18.64
238.988	17.94
239.204	17.46
239.42	17.41
239.636	18.38
239.853	16.82
240.069	17.28
240.285	17.05
240.501	16.47
240.717	16
240.933	14.81
241.149	14.92
241.365	14.21
241.581	14.01
241.797	13.64
242.013	13.11
242.229	13.05
242.445	12.58
242.661	13.19
242.877	13.21
243.093	13.56
243.309	13.6
243.525	13.74
243.741	14.43
243.957	13.91
244.173	13.69
244.388	14.06
244.604	13.85
244.82	13.31
245.036	12.78
245.252	13.22
245.468	13.39
245.683	13.22
245.899	12.87
246.115	13.2
246.331	13.39
246.547	13.58
246.762	13.33
246.978	13.53
247.194	13.42
247.409	13.95
247.625	13.8
247.841	13.72
248.057	14.68
248.272	15.42
248.488	14.95
248.703	15.59
248.919	15.38
249.135	14.75
249.35	14.62
249.566	15.6
249.782	14.07
249.997	14.33
250.213	13.28
250.428	11.84
250.644	11.39
250.859	10.75
251.075	10.33
251.29	10.88
251.506	10.34
251.721	10.55
251.937	10.14
252.152	11.84
252.368	11.63
252.583	13.31
252.798	14.99
253.014	14.41
253.229	15.89
253.445	16.65
253.66	15.65
253.875	17.08
254.091	17.16
254.306	17.47
254.521	16.58
254.737	16.55
254.952	14.95
255.167	14.32
255.383	13.91
255.598	13.12
255.813	12.65
256.028	13.33
256.244	13.26
256.459	12.24
256.674	11.71
256.889	11.22
257.104	10.46
257.32	10.59
257.535	10.07
257.75	10.15
257.965	9.8
258.18	9.52
258.395	9.45
258.61	9.14
258.826	9.24
259.041	8.94
259.256	8.88
259.471	9.09
259.686	8.7
259.901	8.62
260.116	8.99
260.331	9.07
260.546	9.46
260.761	8.9
260.976	8.8
261.191	8.59
261.406	9.51
261.621	9.66
261.836	8.68
262.05	8.86
262.265	9.53
262.48	9.69
262.695	9.76
262.91	9.91
263.125	10.25
263.34	10.97
263.555	10.96
263.769	10.44
263.984	10.2
264.199	10.8
264.414	10.85
264.629	10.75
264.843	9.94
265.058	10.56
265.273	9.95
265.488	10.47
265.702	10.81
265.917	10.99
266.132	11.42
266.346	11.67
266.561	11.81
266.776	12.19
266.99	12.01
267.205	12.08
267.42	11.68
267.634	11.78
267.849	11.58
268.063	10.96
268.278	11.47
268.492	10.66
268.707	10.5
268.922	10.28
269.136	10.06
269.351	10.29
269.565	10.6
269.78	9.88
269.994	9.91
270.209	9.87
270.423	10.29
270.637	9.83
270.852	9.98
271.066	10.05
271.281	10.79
271.495	10.31
271.709	9.91
271.924	9.56
272.138	9.51
272.353	9.39
272.567	8.98
272.781	8.74
272.996	8.46
273.21	9.31
273.424	9.17
273.638	8.59
273.853	9.46
274.067	9.18
274.281	9.56
274.495	10.33
274.71	10.66
274.924	11.26
275.138	11.31
275.352	11.59
275.566	10.27
275.781	10.27
275.995	10.3
276.209	9.7
276.423	10.01
276.637	9.43
276.851	9.35
277.065	9.37
277.279	9.04
277.493	8.85
277.707	8.96
277.921	9.08
278.135	8.37
278.349	8.48
278.563	9.01
278.777	9.06
278.991	9.7
279.205	9.22
279.419	8.98
279.633	9.19
279.847	8.93
280.061	8.83
280.275	9.18
280.489	10.35
280.703	9.94
280.917	9.54
281.131	9.61
281.344	9.21
281.558	9.68
281.772	9.74
281.986	9.73
282.2	9.77
282.414	10.09
282.627	10.07
282.841	9.45
283.055	9.71
283.269	9.75
283.482	9.6
283.696	9.57
283.91	9.83
284.123	9.73
284.337	9.63
284.551	9.6
284.764	9.57
284.978	9.26
285.192	9.12
285.405	8.74
285.619	8.77
285.833	9.25
286.046	9.31
286.26	8.9
286.473	8.85
286.687	8.79
286.9	9.16
287.114	8.94
287.327	9.04
287.541	9.1
287.754	9.35
287.968	9.27
288.181	8.54
288.395	8.61
288.608	8.53
288.822	8.79
289.035	8.99
289.248	8.6
289.462	8.42
289.675	8.78
289.889	9.1
290.102	9.27
290.315	9.32
290.529	9.79
290.742	9.5
290.955	9.68
291.169	9.61
291.382	9.34
291.595	9.44
291.808	9.75
292.022	9.75
292.235	9.48
292.448	9.13
292.661	9.18
292.875	9.05
293.088	9.21
293.301	9.14
293.514	9.11
293.727	9.13
293.94	8.94
294.153	9.02
294.367	8.91
294.58	9.08
294.793	8.8
295.006	8.95
295.219	8.93
295.432	8.85
295.645	8.71
295.858	8.55
296.071	8.59
296.284	9.22
296.497	9.07
296.71	8.92
296.923	8.89
297.136	9.25
297.349	9.2
297.562	9.05
297.775	9.19
297.988	9.76
298.201	9.92
298.414	10.07
298.626	9.87
298.839	9.59
299.052	9.72
299.265	9.92
299.478	9.93
299.691	9.96
299.903	10.24
300.116	10.59
300.329	10.38
300.542	10.13
300.755	9.97
300.967	9.4
301.18	9.58
301.393	9.83
301.605	9.82
301.818	9.68
302.031	9.63
302.243	9.25
302.456	9.26
302.669	9.04
302.881	9.28
303.094	9.09
303.307	9.06
303.519	9.28
303.732	8.83
303.944	8.38
304.157	8.47
304.37	8.56
304.582	9.16
304.795	8.94
305.007	9.12
305.22	9.63
305.432	10.01
305.645	10.41
305.857	10.28
306.069	10.69
306.282	10.56
306.494	10.39
306.707	10.16
306.919	10.19
307.132	10.27
307.344	10.32
307.556	9.9
307.769	9.85
307.981	9.98
308.193	9.93
308.406	10.1
308.618	10.34
308.83	10.21
309.043	10.23
309.255	10.16
309.467	10.01
309.679	10.19
309.892	10.21
310.104	10.29
310.316	10.12
310.528	10.3
310.74	10.26
310.953	10.5
311.165	10.88
311.377	10.97
311.589	11.4
311.801	11.56
312.013	11.73
312.225	12.3
312.437	12.3
312.649	12.18
312.862	12.62
313.074	12.43
313.286	11.86
313.498	11.75
313.71	11.97
313.922	11.39
314.134	11.67
314.346	11.15
314.558	10.87
314.77	10.69
314.982	11.14
315.193	10.82
315.405	11.25
315.617	11.85
315.829	12.54
316.041	12.71
316.253	12.5
316.465	12.83
316.677	12.92
316.888	13.03
317.1	13.6
317.312	13.31
317.524	12.8
317.736	12.09
317.947	11.77
318.159	11.07
318.371	10.94
318.583	11.65
318.794	11.16
319.006	11.27
319.218	10.82
319.43	10.5
319.641	10.72
319.853	11.66
320.064	11.34
320.276	11.48
320.488	11.51
320.699	11.48
320.911	10.73
321.123	11.22
321.334	10.96
321.546	10.99
321.757	10.29
321.969	10.21
322.18	9.85
322.392	10.46
322.603	11.2
322.815	11.62
323.026	11.49
323.238	11.69
323.449	11.27
323.661	11.2
323.872	11.3
324.083	12
324.295	12.29
324.506	12.26
324.718	12.61
324.929	11.65
325.14	11.58
325.352	11.45
325.563	11.62
325.774	11.15
325.986	11.78
326.197	11.83
326.408	11.88
326.62	12.22
326.831	12.43
327.042	12.52
327.253	13.28
327.464	13.62
327.676	14.13
327.887	14.3
328.098	15.12
328.309	14.88
328.52	14.89
328.732	14.87
328.943	14.52
329.154	14.1
329.365	13.92
329.576	13.73
329.787	13.2
329.998	13.11
330.209	13.11
330.42	13.37
330.631	13.28
330.842	13.92
331.053	13.71
331.264	13.8
331.475	14.29
331.686	14.26
331.897	14.58
332.108	15.06
332.319	14.9
332.53	15.29
332.741	15.01
332.952	15.25
333.163	15.4
333.374	15.48
333.585	15.39
333.795	15.27
334.006	15.03
334.217	14.72
334.428	14.66
334.639	14.91
334.849	14.93
335.06	15.02
335.271	15.18
335.482	14.79
335.692	14.94
335.903	15
336.114	14.93
336.325	15.35
336.535	15.38
336.746	15.19
336.957	14.72
337.167	14.29
337.378	13.89
337.589	13.92
337.799	13.88
338.01	14.11
338.22	14.12
338.431	14.51
338.642	14.45
338.852	14.93
339.063	14.95
339.273	15.46
339.484	15.66
339.694	15.98
339.905	15.9
340.115	15.69
340.326	15.1
340.536	14.88
340.746	14.62
340.957	14.35
341.167	13.85
341.378	13.7
341.588	13.91
341.799	13.71
342.009	13.53
342.219	13
342.43	13.12
342.64	13.48
342.85	13.83
343.061	13.81
343.271	14.16
343.481	13.8
343.691	14.2
343.902	13.94
344.112	14.28
344.322	14.5
344.532	14.73
344.743	14.81
344.953	14.7
345.163	14.28
345.373	13.99
345.583	13.85
345.793	14.32
346.004	13.98
346.214	13.93
346.424	13.94
346.634	13.99
346.844	14.1
347.054	13.75
347.264	13.45
347.474	13.74
347.684	13.88
347.894	13.66
348.104	13.27
348.314	13.07
348.524	12.9
348.734	12.52
348.944	12.4
349.154	12.37
349.364	12.41
349.574	12.82
349.784	12.6
349.994	12.77
350.204	13
350.413	13.49
350.623	13.7
350.833	13.65
351.043	13.48
351.253	13.22
351.463	13.53
351.672	13.79
351.882	13.52
352.092	13.77
352.302	13.81
352.511	13.49
352.721	13.43
352.931	13.19
353.141	13.12
353.35	13.6
353.56	13.59
353.77	13.17
353.979	12.88
354.189	13.06
354.399	12.65
354.608	12.21
354.818	12.55
355.027	12.29
355.237	12.51
355.447	12.64
355.656	12.39
355.866	12.38
356.075	12.18
356.285	12.16
356.494	12.21
356.704	12.22
356.913	12.41
357.123	12.35
357.332	12.33
357.542	12.02
357.751	12.04
357.96	12.12
358.17	12.13
358.379	12.33
358.589	12.74
358.798	12.6
359.007	12.76
359.217	12.71
359.426	12.43
359.635	12.45
359.845	12.6
360.054	12.67
360.263	12.57
360.472	12.63
360.682	12.71
360.891	12.36
361.1	12.2
361.309	12.1
361.519	12.08
361.728	12.08
361.937	12.11
362.146	12.11
362.355	12
362.564	11.8
362.774	11.72
362.983	11.52
363.192	11.55
363.401	11.59
363.61	11.59
363.819	11.45
364.028	11.56
364.237	11.57
364.446	11.49
364.655	11.65
364.864	11.76
365.073	11.86
365.282	11.84
365.491	11.94
365.7	11.92
365.909	12.17
366.118	12.24
366.327	12.63
366.536	12.5
366.745	12.64
366.954	12.6
367.162	12.5
367.371	12.27
367.58	12.21
367.789	12.25
367.998	12.29
368.207	12.18
368.415	12.09
368.624	11.84
368.833	11.79
369.042	11.66
369.25	11.6
369.459	11.61
369.668	11.98
369.877	12.19
370.085	11.88
370.294	11.89
370.503	11.89
370.711	12.18
370.92	11.93
371.129	11.93
371.337	11.97
371.546	11.91
371.754	12.1
371.963	11.74
372.171	11.74
372.38	11.82
372.589	11.9
372.797	11.76
373.006	11.69
373.214	11.83
373.423	11.98
373.631	11.91
373.84	11.72
374.048	11.4
374.256	11.39
374.465	11.28
374.673	11.09
374.882	10.92
375.09	10.68
375.298	10.56
375.507	10.17
375.715	10.07
375.923	9.8
376.132	9.68
376.34	9.75
376.548	10.02
376.757	9.86
376.965	10.03
377.173	10.05
377.381	10.26
377.59	10.4
377.798	10.58
378.006	10.36
378.214	10.7
378.423	10.7
378.631	10.91
378.839	10.74
379.047	10.99
379.255	10.94
379.463	10.98
379.671	11.19
379.879	11.25
380.088	11.22
380.296	11.38
380.504	11.35
380.712	11.64
380.92	11.55
381.128	11.3
381.336	10.96
381.544	10.95
381.752	10.95
381.96	10.53
382.168	10.43
382.376	10.54
382.584	10.48
382.791	10.42
382.999	10.23
383.207	9.96
383.415	10.18
383.623	10.21
383.831	10.02
384.039	9.8
384.247	9.94
384.454	9.71
384.662	9.49
384.87	9.42
385.078	9.24
385.285	9.08
385.493	9.29
385.701	8.83
385.909	8.91
386.116	9.18
386.324	9.34
386.532	9.31
386.739	9.63
386.947	9.69
387.155	9.95
387.362	10.05
387.57	10.34
387.778	10.05
387.985	10.38
388.193	10.54
388.4	10.45
388.608	10.35
388.816	10.35
389.023	10
389.231	10.06
389.438	9.97
389.646	10.01
389.853	9.81
390.061	10.04
390.268	9.82
390.475	9.7
390.683	9.63
390.89	9.77
391.098	9.88
391.305	10
391.512	9.94
391.72	9.95
391.927	9.88
392.135	9.81
392.342	9.68
392.549	9.88
392.756	9.72
392.964	9.68
393.171	9.46
393.378	9.23
393.586	9.01
393.793	9.08
394	8.99
394.207	8.99
394.414	9.07
394.622	9.03
394.829	8.92
395.036	9.19
395.243	9.28
395.45	9.1
395.657	9.09
395.864	9.16
396.072	9.03
396.279	8.81
396.486	8.86
396.693	8.74
396.9	8.95
397.107	8.91
397.314	8.8
397.521	8.55
397.728	8.76
397.935	8.8
398.142	8.88
398.349	8.94
398.556	8.95
398.763	8.71
398.97	8.81
399.177	8.64
399.383	8.63
399.59	8.73
399.797	8.9
400.004	8.91
400.211	8.84
400.418	8.65
400.625	8.39
400.831	8.42
401.038	8.49
401.245	8.33
401.452	8.15
401.658	8.1
401.865	7.8
402.072	7.77
402.279	7.88
402.485	7.86
402.692	7.99
402.899	8.2
403.105	8.15
403.312	8.26
403.519	8.33
403.725	8.49
403.932	8.5
404.138	8.5
404.345	8.59
404.552	8.52
404.758	8.65
404.965	8.5
405.171	8.52
405.378	8.66
405.584	8.63
405.791	8.57
405.997	8.59
406.204	8.77
406.41	9.01
406.617	8.95
406.823	8.84
407.029	8.84
407.236	8.97
407.442	9.03
407.649	9.04
407.855	8.87
408.061	8.87
408.268	8.74
408.474	8.64
408.68	8.49
408.887	8.51
409.093	8.49
409.299	8.49
409.505	8.6
409.712	8.56
409.918	8.71
410.124	8.81
410.33	9.02
410.537	9.17
410.743	9.1
410.949	8.91
411.155	8.91
411.361	9.03
411.567	8.94
411.773	8.81
411.98	8.63
412.186	8.27
412.392	8.18
412.598	8.03
412.804	7.84
413.01	7.91
413.216	8.14
413.422	8.12
413.628	8.08
413.834	8.07
414.04	7.94
414.246	7.92
414.452	8.06
414.658	8.11
414.864	8.14
415.07	8.23
415.275	8.26
415.481	8.21
415.687	8.11
415.893	8.07
416.099	8.04
416.305	8.06
416.511	8.14
416.716	8.15
416.922	8.28
417.128	8.19
417.334	8.13
417.539	8.07
417.745	8.09
417.951	8.1
418.157	8.06
418.362	8.04
418.568	8.08
418.774	8.03
418.979	8.03
419.185	7.93
419.391	7.97
419.596	7.95
419.802	7.87
420.008	7.85
420.213	8.54
420.419	8.58
420.624	8.59
420.83	8.55
421.035	8.56
421.241	8.5
421.446	8.43
421.652	8.46
421.857	8.39
422.063	8.44
422.268	8.45
422.474	7.74
422.679	7.71
422.885	7.73
423.09	7.77
423.295	7.8
423.501	7.77
423.706	7.75
423.911	7.69
424.117	7.84
424.322	7.86
424.527	7.83
424.733	7.8
424.938	7.74
425.143	7.75
425.349	7.73
425.554	7.76
425.759	7.91
425.964	7.97
426.169	7.97
426.375	7.86
426.58	7.89
426.785	7.86
426.99	8.03
427.195	8.04
427.4	7.9
427.605	7.85
427.811	7.83
428.016	7.7
428.221	7.65
428.426	7.6
428.631	7.64
428.836	7.62
429.041	7.7
429.246	7.6
429.451	7.63
429.656	7.72
429.861	7.68
430.066	7.73
430.271	7.72
430.476	7.73
430.681	7.7
430.886	7.66
431.09	7.65
431.295	7.58
431.5	7.64
431.705	7.58
431.91	7.61
432.115	7.54
432.32	7.44
432.524	7.49
432.729	7.41
432.934	7.49
433.139	7.51
433.343	7.51
433.548	7.43
433.753	7.4
433.958	7.51
434.162	7.48
434.367	7.55
434.572	7.49
434.776	7.46
434.981	7.58
435.186	7.52
435.39	7.53
435.595	7.5
435.799	7.6
436.004	7.56
436.209	7.44
436.413	7.29
436.618	7.3
436.822	7.33
437.027	7.34
437.231	7.34
437.436	7.28
437.64	7.2
437.845	7.16
438.049	7.07
438.253	7.09
438.458	7.16
438.662	7.22
438.867	7.24
439.071	7.14
439.275	7.1
439.48	7.04
439.684	7.15
439.888	7.17
440.093	7.15
440.297	7.27
440.501	7.16
440.706	7.19
440.91	7.12
441.114	7.13
441.318	7.21
441.523	7.2
441.727	7.18
441.931	7.2
442.135	7.29
442.339	7.3
442.543	7.19
442.748	7.25
442.952	7.19
443.156	7.35
443.36	7.29
443.564	7.26
443.768	7.2
443.972	7.2
444.176	7.21
444.38	7.17
444.584	7.14
444.788	7.2
444.992	7.2
445.196	7.12
445.4	7.04
445.604	7.06
445.808	7.13
446.012	7.24
446.216	7.32
446.42	7.19
446.624	7.11
446.828	7.08
447.032	7.02
447.235	7.04
447.439	7.08
447.643	7.15
447.847	7.14
448.051	7.09
448.254	7.01
448.458	6.83
448.662	6.91
448.866	6.94
449.069	6.95
449.273	6.99
449.477	6.92
449.681	6.93
449.884	6.78
450.088	6.81
450.292	6.83
450.495	6.85
450.699	6.94
450.902	6.78
451.106	6.92
451.31	6.91
451.513	6.86
451.717	6.82
451.92	6.91
452.124	6.83
452.327	6.83
452.531	6.62
452.734	6.52
452.938	6.63
453.141	6.81
453.345	6.75
453.548	6.83
453.752	6.95
453.955	6.98
454.158	6.82
454.362	6.83
454.565	6.78
454.769	6.86
454.972	6.95
455.175	6.87
455.379	6.84
455.582	6.82
455.785	6.72
455.988	6.7
456.192	6.68
456.395	6.75
456.598	6.94
456.801	6.86
457.005	6.93
457.208	6.9
457.411	6.81
457.614	6.79
457.817	6.72
458.021	6.72
458.224	6.67
458.427	6.65
458.63	6.64
458.833	6.57
459.036	6.62
459.239	6.63
459.442	6.58
459.645	6.57
459.848	6.58
460.051	6.62
460.254	6.64
460.457	6.65
460.66	6.75
460.863	6.77
461.066	6.81
461.269	6.83
461.472	6.78
461.675	6.87
461.878	6.92
462.081	6.94
462.284	7.02
462.486	7.07
462.689	6.95
462.892	6.93
463.095	6.99
463.298	7.01
463.5	7.03
463.703	7.1
463.906	7.05
464.109	6.9
464.311	6.91
464.514	6.77
464.717	6.8
464.92	6.91
465.122	6.93
465.325	6.93
465.528	6.87
465.73	6.89
465.933	6.89
466.135	6.9
466.338	7.06
466.541	7
466.743	7.11
466.946	7.03
467.148	6.98
467.351	6.85
467.553	6.82
467.756	6.83
467.958	6.86
468.161	6.78
468.363	6.83
468.566	6.9
468.768	6.99
468.971	6.96
469.173	7.06
469.375	7.15
469.578	7.29
469.78	7.23
469.983	7.27
470.185	7.19
470.387	7.22
470.59	7.23
470.792	7.29
470.994	7.26
471.196	7.28
471.399	7.21
471.601	7.16
471.803	7.08
472.005	7.1
472.208	7.13
472.41	7.2
472.612	7.19
472.814	7.11
473.016	6.98
473.218	7.03
473.421	7
473.623	7.08
473.825	7.14
474.027	7.2
474.229	7.22
474.431	7.13
474.633	7.08
474.835	7.12
475.037	7.14
475.239	7.16
475.441	7.02
475.643	7.07
475.845	6.99
476.047	6.93
476.249	6.98
476.451	6.94
476.653	6.98
476.855	7.01
477.057	7.08
477.258	7.1
477.46	7.07
477.662	7.15
477.864	7.14
478.066	7.26
478.268	7.31
478.469	7.11
478.671	7.12
478.873	7.13
479.075	7.08
479.276	6.97
479.478	7.01
479.68	7
479.882	7.03
480.083	6.97
480.285	6.92
480.487	6.89
480.688	7
480.89	7.06
481.091	7.05
481.293	7.04
481.495	7.06
481.696	7.04
481.898	7.04
482.099	7.01
482.301	6.99
482.502	6.96
482.704	6.92
482.905	6.89
483.107	6.82
483.308	6.8
483.51	6.78
483.711	6.74
483.913	6.7
484.114	6.69
484.315	6.67
484.517	6.71
484.718	6.72
484.92	6.76
485.121	6.77
485.322	6.82
485.524	6.85
485.725	6.87
485.926	6.91
486.127	6.92
486.329	6.94
486.53	6.93
486.731	6.92
486.932	6.93
487.134	6.9
487.335	6.89
487.536	6.89
487.737	6.87
487.938	6.87
488.139	6.85
488.341	6.88
488.542	6.86
488.743	6.83
488.944	6.77
489.145	6.79
489.346	6.82
489.547	6.8
489.748	6.82
489.949	6.84
490.15	6.84
490.351	6.88
490.552	6.85
490.753	6.89
490.954	6.91
491.155	6.95
491.356	6.9
491.557	6.9
491.758	6.94
491.959	6.91
492.159	6.9
492.36	6.97
492.561	6.89
492.762	6.89
492.963	6.88
493.164	6.93
493.364	6.92
493.565	7
493.766	6.99
493.967	7.03
494.167	7.03
494.368	7
494.569	6.87
494.769	6.96
494.97	7.04
495.171	7.09
495.371	7.12
495.572	7.15
495.773	7.15
495.973	7.21
496.174	7.14
496.375	7.24
496.575	7.29
496.776	7.42
496.976	7.32
497.177	7.25
497.377	7.23
497.578	7.15
497.778	7.06
497.979	7.04
498.179	7.05
498.38	7.08
498.58	7.07
498.78	7.08
498.981	7.17
499.181	7.28
499.382	7.42
499.582	7.41
499.782	7.51
499.983	7.61
500.183	7.69
500.383	7.69
500.584	7.67
500.784	7.64
500.984	7.64
501.184	7.51
501.385	7.53
501.585	7.46
501.785	7.53
501.985	7.55
502.185	7.71
502.386	7.69
502.586	7.73
502.786	7.84
502.986	7.88
503.186	7.91
503.386	8.01
503.586	8.04
503.786	8.09
503.987	8.06
504.187	8.11
504.387	8
504.587	8.02
504.787	7.98
504.987	7.95
505.187	7.97
505.387	8.03
505.587	8.08
505.786	8.11
505.986	8.24
506.186	8.23
506.386	8.25
506.586	8.32
506.786	8.35
506.986	8.45
507.186	8.53
507.386	8.61
507.585	8.58
507.785	8.5
507.985	8.51
508.185	8.47
508.384	8.53
508.584	8.48
508.784	8.5
508.984	8.5
509.183	8.53
509.383	8.66
509.583	8.65
509.782	8.71
509.982	8.74
510.182	8.85
510.381	8.88
510.581	8.91
510.781	9.01
510.98	9.04
511.18	9.12
511.379	9.05
511.579	8.96
511.778	9.02
511.978	9.03
512.177	9.08
512.377	9.04
512.576	8.97
512.776	9
512.975	9.03
513.175	8.96
513.374	8.97
513.573	9.03
513.773	9.05
513.972	9.11
514.172	9.22
514.371	9.32
514.57	9.3
514.77	9.4
514.969	9.51
515.168	9.54
515.367	9.68
515.567	9.69
515.766	9.74
515.965	9.82
516.164	9.82
516.364	9.81
516.563	9.8
516.762	9.86
516.961	9.9
517.16	9.92
517.359	9.87
517.559	9.88
517.758	9.92
517.957	9.93
518.156	9.94
518.355	9.9
518.554	9.83
518.753	9.86
518.952	9.84
519.151	9.84
519.35	9.83
519.549	9.9
519.748	9.88
519.947	9.88
520.146	9.89
520.345	9.86
520.544	9.95
520.743	10
520.942	10.05
521.141	10.11
521.339	10.13
521.538	10.14
521.737	10.25
521.936	10.29
522.135	10.34
522.333	10.41
522.532	10.48
522.731	10.52
522.93	10.61
523.129	10.63
523.327	10.67
523.526	10.74
523.725	10.77
523.923	10.73
524.122	10.77
524.321	10.73
524.519	10.71
524.718	10.71
524.917	10.73
525.115	10.74
525.314	10.79
525.512	10.81
525.711	10.87
525.909	10.88
526.108	10.96
526.306	11
526.505	11.04
526.703	11.09
526.902	11.12
527.1	11.09
527.299	11.11
527.497	11.07
527.696	11.07
527.894	11.04
528.092	11.03
528.291	10.99
528.489	10.96
528.688	11
528.886	11
529.084	11
529.283	11.05
529.481	11.05
529.679	11.07
529.877	11.19
530.076	11.19
530.274	11.31
530.472	11.38
530.67	11.48
530.869	11.46
531.067	11.5
531.265	11.54
531.463	11.57
531.661	11.6
531.859	11.66
532.057	11.57
532.255	11.58
532.454	11.52
532.652	11.54
532.85	11.51
533.048	11.54
533.246	11.55
533.444	11.54
533.642	11.53
533.84	11.58
534.038	11.59
534.236	11.69
534.434	11.75
534.632	11.85
534.83	11.86
535.027	11.98
535.225	12.02
535.423	12.01
535.621	12.01
535.819	11.96
536.017	11.99
536.215	11.96
536.412	11.93
536.61	11.94
536.808	11.92
537.006	11.93
537.203	11.89
537.401	11.87
537.599	11.96
537.797	12.05
537.994	12.27
538.192	12.32
538.39	12.47
538.587	12.56
538.785	12.72
538.983	12.8
539.18	12.86
539.378	12.88
539.575	12.89
539.773	12.88
539.97	12.91
540.168	12.9
540.366	12.93
540.563	12.88
540.761	12.86
540.958	12.81
541.155	12.77
541.353	12.76
541.55	12.73
541.748	12.7
541.945	12.68
542.143	12.68
542.34	12.7
542.537	12.65
542.735	12.68
542.932	12.74
543.129	12.76
543.327	12.82
543.524	12.87
543.721	12.94
543.919	13.07
544.116	13.21
544.313	13.31
544.51	13.39
544.708	13.44
544.905	13.45
545.102	13.47
545.299	13.51
545.496	13.58
545.693	13.61
545.891	13.62
546.088	13.59
546.285	13.53
546.482	13.42
546.679	13.4
546.876	13.39
547.073	13.51
547.27	13.57
547.467	13.5
547.664	13.42
547.861	13.4
548.058	13.58
548.255	13.64
548.452	13.8
548.649	13.86
548.846	13.93
549.043	14.08
549.24	14.01
549.437	14
549.633	14.07
549.83	14.12
550.027	14.17
550.224	14.07
550.421	14.04
550.618	14.07
550.814	14.22
551.011	14.31
551.208	14.28
551.405	14.33
551.601	14.38
551.798	14.53
551.995	14.56
552.191	14.62
552.388	14.73
552.585	14.9
552.781	14.85
552.978	14.77
553.175	14.66
553.371	14.65
553.568	14.79
553.764	14.81
553.961	14.91
554.157	14.99
554.354	15.07
554.55	15.05
554.747	14.99
554.943	15
555.14	15.12
555.336	15.19
555.533	15.25
555.729	15.19
555.926	15.22
556.122	15.08
556.318	15.1
556.515	15.05
556.711	15.07
556.907	15.15
557.104	15.23
557.3	15.23
557.496	15.19
557.693	15.19
557.889	15.29
558.085	15.32
558.281	15.34
558.478	15.35
558.674	15.41
558.87	15.49
559.066	15.47
559.262	15.54
559.459	15.58
559.655	15.75
559.851	15.83
560.047	15.8
560.243	15.9
560.439	16.05
560.635	16.1
560.831	16.1
561.027	16.19
561.223	16.25
561.419	16.2
561.615	16.27
561.811	16.18
562.007	16.24
562.203	16.33
562.399	16.31
562.595	16.27
562.791	16.27
562.987	16.37
563.183	16.34
563.379	16.46
563.575	16.65
563.771	16.69
563.966	16.72
564.162	16.81
564.358	16.86
564.554	16.79
564.75	16.88
564.945	16.97
565.141	16.93
565.337	16.91
565.533	16.89
565.728	16.88
565.924	16.84
566.12	16.94
566.315	16.89
566.511	16.9
566.707	17.04
566.902	16.99
567.098	17.01
567.293	17.1
567.489	17.14
567.684	17.15
567.88	17.17
568.076	17.24
568.271	17.34
568.467	17.31
568.662	17.36
568.858	17.38
569.053	17.49
569.248	17.47
569.444	17.52
569.639	17.63
569.835	17.77
570.03	17.72
570.225	17.76
570.421	17.69
570.616	17.84
570.812	17.8
571.007	17.82
571.202	17.85
571.397	17.9
571.593	17.97
571.788	17.97
571.983	17.95
572.178	18.01
572.374	18.14
572.569	18.22
572.764	18.2
572.959	18.27
573.154	18.3
573.35	18.33
573.545	18.29
573.74	18.27
573.935	18.24
574.13	18.22
574.325	18.23
574.52	18.09
574.715	18.02
574.91	18
575.105	17.95
575.3	17.91
575.495	17.96
575.69	18.08
575.885	18.1
576.08	18.13
576.275	18.13
576.47	18.17
576.665	18.25
576.86	18.3
577.055	18.29
577.25	18.43
577.444	18.48
577.639	18.36
577.834	18.29
578.029	18.26
578.224	18.14
578.418	18.23
578.613	18.33
578.808	18.29
579.003	18.3
579.197	18.51
579.392	18.55
579.587	18.63
579.781	18.68
579.976	18.72
580.171	18.81
580.365	18.95
580.56	19.05
580.755	18.95
580.949	19.04
581.144	19.09
581.338	19.06
581.533	18.94
581.727	19.05
581.922	19.03
582.116	19.05
582.311	19.04
582.505	19.19
582.7	19.06
582.894	19.11
583.089	19.09
583.283	19.07
583.478	18.89
583.672	19.13
583.866	19.1
584.061	19.11
584.255	19.12
584.449	19.12
584.644	19.18
584.838	19.25
585.032	19.24
585.226	19.29
585.421	19.44
585.615	19.57
585.809	19.41
586.003	19.35
586.198	19.39
586.392	19.37
586.586	19.42
586.78	19.38
586.974	19.6
587.168	19.8
587.363	19.82
587.557	19.72
587.751	19.76
587.945	19.83
588.139	20.01
588.333	20.13
588.527	20.3
588.721	20.26
588.915	20.24
589.109	20.08
589.303	19.92
589.497	20.06
589.691	20.21
589.885	20.17
590.079	20.12
590.273	20.01
590.466	19.92
590.66	19.92
590.854	19.89
591.048	19.83
591.242	19.89
591.436	20.07
591.629	20.03
591.823	19.93
592.017	20.08
592.211	20.24
592.404	20.24
592.598	20.25
592.792	20.2
592.986	20.28
593.179	20.31
593.373	20.31
593.567	20.33
593.76	20.24
593.954	20.19
594.147	20.12
594.341	20.05
594.535	20.12
594.728	20.23
594.922	20.25
595.115	20.25
595.309	20.31
595.502	20.23
595.696	20.13
595.889	20.11
596.083	20.19
596.276	20.33
596.47	20.28
596.663	20.24
596.856	20.18
597.05	20.17
597.243	20.05
597.437	20.07
597.63	20.11
597.823	20.07
598.017	20.1
598.21	19.98
598.403	19.79
598.596	19.87
598.79	19.82
598.983	19.82
599.176	19.76
599.369	20.01
599.563	19.97
599.756	20.14
599.949	20.34
600.142	20.35
600.335	20.44
600.528	20.63
600.722	20.72
600.915	20.76
601.108	20.9
601.301	20.96
601.494	21.04
601.687	20.99
601.88	20.86
602.073	20.83
602.266	20.9
602.459	20.96
602.652	20.93
602.845	20.85
603.038	20.9
603.231	20.74
603.424	20.78
603.617	20.65
603.809	20.65
604.002	20.59
604.195	20.49
604.388	20.49
604.581	20.47
604.774	20.36
604.966	20.34
605.159	20.29
605.352	20.34
605.545	20.38
605.737	20.35
605.93	20.36
606.123	20.49
606.316	20.64
606.508	20.67
606.701	20.68
606.894	20.77
607.086	20.81
607.279	20.82
607.471	20.93
607.664	20.9
607.857	20.95
608.049	20.96
608.242	20.88
608.434	20.83
608.627	20.71
608.819	20.59
609.012	20.52
609.204	20.59
609.397	20.59
609.589	20.58
609.782	20.68
609.974	20.67
610.166	20.59
610.359	20.75
610.551	20.77
610.743	20.83
610.936	20.97
611.128	20.99
611.32	20.94
611.513	21.05
611.705	21.1
611.897	20.86
612.09	20.93
612.282	21.11
612.474	20.99
612.666	21.06
612.858	21.09
613.051	21.02
613.243	21.12
613.435	21.18
613.627	21.06
613.819	21.04
614.011	21.14
614.203	21.18
614.395	21.14
614.588	21.15
614.78	21.01
614.972	21.08
615.164	21.17
615.356	21.23
615.548	21.19
615.74	21.18
615.932	21.14
616.124	21.28
616.315	21.33
616.507	21.32
616.699	21.29
616.891	21.31
617.083	21.32
617.275	21.39
617.467	21.38
617.659	21.37
617.85	21.45
618.042	21.49
618.234	21.51
618.426	21.36
618.618	21.43
618.809	21.78
619.001	21.94
619.193	22.09
619.384	22
619.576	21.9
619.768	22.03
619.959	21.97
620.151	21.88
620.343	21.9
620.534	21.98
620.726	22.05
620.917	21.82
621.109	21.79
621.301	21.8
621.492	21.88
621.684	21.88
621.875	21.94
622.067	22.04
622.258	22.13
622.45	22.02
622.641	21.85
622.832	21.67
623.024	21.72
623.215	21.61
623.407	21.37
623.598	21.47
623.789	21.59
623.981	21.53
624.172	21.53
624.363	21.52
624.555	21.61
624.746	21.75
624.937	21.87
625.129	21.72
625.32	21.73
625.511	21.76
625.702	21.62
625.893	21.59
626.085	21.56
626.276	21.48
626.467	21.49
626.658	21.37
626.849	21.41
627.04	21.43
627.231	21.6
627.422	21.72
627.614	21.73
627.805	21.62
627.996	21.63
628.187	21.55
628.378	21.66
628.569	21.65
628.76	21.68
628.951	21.6
629.142	21.48
629.332	21.55
629.523	21.43
629.714	21.59
629.905	21.88
630.096	21.94
630.287	22.13
630.478	22.12
630.669	22.02
630.859	22.02
631.05	22.1
631.241	22.15
631.432	21.95
631.623	21.98
631.813	21.95
632.004	21.89
632.195	21.81
632.385	21.81
632.576	21.79
632.767	21.79
632.957	21.82
633.148	21.83
633.339	21.88
633.529	21.93
633.72	21.96
633.91	21.87
634.101	21.92
634.292	21.85
634.482	21.72
634.673	21.77
634.863	21.84
635.054	22
635.244	22.03
635.435	22.09
635.625	22.11
635.815	22.2
636.006	22.24
636.196	22.27
636.387	22.53
636.577	22.66
636.767	22.81
636.958	22.96
637.148	22.87
637.338	22.87
637.529	22.84
637.719	22.85
637.909	22.7
638.099	22.78
638.29	22.82
638.48	22.64
638.67	22.75
638.86	22.57
639.05	22.56
639.241	22.77
639.431	22.77
639.621	22.9
639.811	22.94
640.001	23.05
640.191	23.19
640.381	23.1
640.571	23.17
640.761	22.89
640.951	22.72
641.141	22.75
641.331	22.47
641.521	22.33
641.711	22.33
641.901	22.22
642.091	22.21
642.281	22.14
642.471	22
642.661	22.04
642.851	22.32
643.041	22.41
643.231	22.18
643.42	22.24
643.61	22.46
643.8	22.21
643.99	22.35
644.18	22.48
644.369	22.44
644.559	22.86
644.749	22.68
644.939	22.59
645.128	22.81
645.318	22.91
645.508	22.92
645.697	22.93
645.887	22.83
646.076	22.83
646.266	22.7
646.456	22.7
646.645	22.51
646.835	22.81
647.024	22.57
647.214	22.44
647.403	22.67
647.593	22.73
647.782	22.55
647.972	22.84
648.161	22.67
648.351	22.77
648.54	22.68
648.73	22.5
648.919	22.5
649.108	22.88
649.298	22.73
649.487	22.37
649.677	22.35
649.866	22.3
650.055	22.25
650.244	22.2
650.434	22.29
650.623	22.35
650.812	22.37
651.002	22.49
651.191	22.35
651.38	22.52
651.569	22.66
651.758	22.53
651.947	22.79
652.137	22.92
652.326	23.04
652.515	23.07
652.704	23.1
652.893	23.22
653.082	22.92
653.271	22.81
653.46	22.78
653.649	23.16
653.838	23.25
654.027	23.28
654.216	23.12
654.405	23.38
654.594	23.32
654.783	23.32
654.972	23.48
655.161	23.32
655.35	23.53
655.539	23.5
655.728	23.49
655.916	23.69
656.105	23.59
656.294	23.68
656.483	23.55
656.672	23.38
656.86	23.44
657.049	23.34
657.238	23.52
657.427	23.32
657.615	23.2
657.804	22.96
657.993	22.89
658.181	22.64
658.37	22.62
658.559	22.67
658.747	22.74
658.936	22.84
659.125	22.59
659.313	22.67
659.502	22.93
659.69	23.21
659.879	23.31
660.067	23.23
660.256	23.48
660.444	23.5
660.633	23.55
660.821	23.4
661.01	23.24
661.198	23.51
661.387	23.47
661.575	23.26
661.763	23.4
661.952	23.39
662.14	23.58
662.328	23.55
662.517	23.56
662.705	23.6
662.893	23.82
663.082	24.05
663.27	24.15
663.458	23.88
663.646	23.98
663.834	23.78
664.023	23.79
664.211	23.62
664.399	23.78
664.587	23.84
664.775	23.82
664.963	23.72
665.152	23.58
665.34	23.4
665.528	23.66
665.716	23.63
665.904	23.8
666.092	23.75
666.28	23.89
666.468	23.73
666.656	23.91
666.844	24.08
667.032	24.36
667.22	24.51
667.408	24.5
667.596	24.53
667.784	24.38
667.971	24.02
668.159	24.16
668.347	24.19
668.535	24.49
668.723	24.28
668.911	24.01
669.098	23.5
669.286	23.23
669.474	23.39
669.662	23.39
669.849	23.4
670.037	23.58
670.225	23.46
670.413	23.29
670.6	23.21
670.788	23.41
670.976	23.32
671.163	23.56
671.351	23.51
671.538	23.53
671.726	23.48
671.913	23.68
672.101	23.62
672.289	23.86
672.476	23.99
672.664	23.85
672.851	23.67
673.039	23.91
673.226	23.81
673.413	23.96
673.601	24.05
673.788	24.16
673.976	23.99
674.163	24.06
674.35	23.58
674.538	23.62
674.725	23.8
674.912	24.02
675.1	23.91
675.287	24.21
675.474	24.25
675.662	24.18
675.849	24.31
676.036	24.4
676.223	24.37
676.411	24.58
676.598	24.48
676.785	24.51
676.972	24.43
677.159	24.22
677.346	24.13
677.533	24.02
677.721	24.06
677.908	23.97
678.095	23.97
678.282	24.08
678.469	24.21
678.656	24.09
678.843	23.98
679.03	24.01
679.217	24.29
679.404	24.25
679.591	24.22
679.778	24.27
679.964	24.1
680.151	23.98
680.338	23.81
680.525	23.66
680.712	23.78
680.899	23.77
681.086	23.68
681.272	23.61
681.459	23.73
681.646	23.9
681.833	23.78
682.02	23.83
682.206	24.04
682.393	24
682.58	24.16
682.766	24.12
682.953	24.09
683.14	24.06
683.326	24.18
683.513	24.06
683.7	24.03
683.886	24.06
684.073	24.15
684.259	24
684.446	24.25
684.632	24.15
684.819	24.18
685.005	24.16
685.192	24.05
685.378	23.79
685.565	23.89
685.751	24
685.938	23.97
686.124	24.11
686.31	24.46
686.497	24.47
686.683	24.63
686.87	24.71
687.056	24.74
687.242	24.93
687.429	25.2
687.615	25.24
687.801	25.31
687.987	25.43
688.174	25.37
688.36	25.28
688.546	25.22
688.732	25.05
688.918	24.96
689.105	24.98
689.291	24.95
689.477	25
689.663	25.07
689.849	25.01
690.035	24.81
690.221	24.84
690.407	24.86
690.593	24.72
690.779	24.66
690.965	24.74
691.151	24.85
691.337	24.74
691.523	24.65
691.709	24.39
691.895	24.63
692.081	24.72
692.267	24.65
692.453	24.75
692.639	24.99
692.825	25.15
693.011	25.19
693.196	25
693.382	24.91
693.568	25.19
693.754	25.18
693.94	24.84
694.125	25.08
694.311	25.15
694.497	24.81
694.682	24.73
694.868	24.55
695.054	24.57
695.239	24.78
695.425	24.97
695.611	24.53
695.796	24.55
695.982	24.68
696.168	24.31
696.353	24.24
696.539	24.35
696.724	24.3
696.91	24.29
697.095	24.28
697.281	24.33
697.466	24.29
697.652	24.67
697.837	24.75
698.023	24.63
698.208	24.64
698.393	24.74
698.579	24.68
698.764	24.76
698.949	24.63
699.135	24.81
699.32	24.52
699.505	24.56
699.691	24.47
699.876	24.35
700.061	24.41
700.246	24.75
700.432	24.52
700.617	24.75
700.802	24.65
700.987	24.89
701.172	24.68
701.358	24.86
701.543	25.33
701.728	25.18
701.913	25.53
702.098	25.79
702.283	25.65
702.468	26.12
702.653	26.33
702.838	26.53
703.023	26.75
703.208	26.62
703.393	26.73
703.578	26.43
703.763	26.51
703.948	26.23
704.133	26.22
704.318	26.1
704.503	25.69
704.688	25.57
704.873	25.29
705.057	25.28
705.242	25.15
705.427	25.12
705.612	24.95
705.797	24.55
705.981	24.52
706.166	24.2
706.351	24.58
706.536	24.4
706.72	24.36
706.905	24.39
707.09	24.56
707.274	24.83
707.459	25.11
707.644	25.48
707.828	25.61
708.013	25.93
708.197	26.04
708.382	26.18
708.567	26.46
708.751	26.39
708.936	26.42
709.12	26.45
709.305	26.81
709.489	26.52
709.673	25.98
709.858	25.83
710.042	25.92
710.227	25.6
710.411	25.12
710.596	25.04
710.78	24.83
710.964	24.99
711.149	24.71
711.333	24.47
711.517	24.64
711.702	24.69
711.886	24.89
712.07	24.69
712.254	25.34
712.438	25.53
712.623	25.58
712.807	25.85
712.991	26.21
713.175	26.27
713.359	26.29
713.544	26.47
713.728	26.81
713.912	26.69
714.096	26.58
714.28	26.15
714.464	25.92
714.648	26.13
714.832	25.99
715.016	25.81
715.2	25.77
715.384	25.48
715.568	25.6
715.752	25.41
715.936	25.51
716.12	25.9
716.304	26.13
716.488	26.52
716.671	26.63
716.855	26.86
717.039	26.85
717.223	26.81
717.407	27.18
717.59	26.8
717.774	26.99
717.958	27.03
718.142	27.3
718.325	26.95
718.509	26.63
718.693	26.52
718.877	26.5
719.06	26.19
719.244	26.78
719.428	26.62
719.611	26.9
719.795	26.76
719.978	26.58
720.162	25.95
720.345	26.41
720.529	26.44
720.713	26.14
720.896	25.89
721.08	26.22
721.263	25.53
721.446	25.57
721.63	25.1
721.813	25.15
721.997	25.58
722.18	26.12
722.364	26.31
722.547	26.26
722.73	26.56
722.914	26.6
723.097	26.3
723.28	26.73
723.464	26.59
723.647	27.1
723.83	27.08
724.013	27.23
724.197	26.92
724.38	26.7
724.563	26.83
724.746	26.71
724.929	26.96
725.112	27.16
725.296	27.32
725.479	27.58
725.662	27.28
725.845	27.33
726.028	26.76
726.211	26.83
726.394	26.58
726.577	26.81
726.76	26.88
726.943	26.75
727.126	26.8
727.309	27.01
727.492	26.77
727.675	26.83
727.858	26.82
728.041	27.18
728.224	26.93
728.407	27.26
728.589	26.51
728.772	26.55
728.955	26.69
729.138	26.93
729.321	26.7
729.503	26.28
729.686	26.06
729.869	25.93
730.052	25.55
730.234	25.4
730.417	24.98
730.6	25.53
730.782	25.35
730.965	25.25
731.148	25.38
731.33	25.42
731.513	25.93
731.695	25.92
731.878	26.14
732.061	26.5
732.243	26.72
732.426	27.25
732.608	27.09
732.791	27.52
732.973	27.6
733.156	27.47
733.338	27.63
733.52	27.95
733.703	28.69
733.885	28.81
734.068	28.54
734.25	28.61
734.432	28.4
734.615	28.35
734.797	28.25
734.979	28.22
735.162	28.26
735.344	28.14
735.526	27.92
735.708	27.42
735.891	27.59
736.073	27.89
736.255	27.65
736.437	27.62
736.619	27.59
736.802	27.52
736.984	27.34
737.166	27.51
737.348	27.05
737.53	27.24
737.712	27.28
737.894	27.13
738.076	27.23
738.258	27.59
738.44	27.71
738.622	28.07
738.804	28.15
738.986	27.83
739.168	27.48
739.35	27.54
739.532	27.32
739.714	27.1
739.896	26.64
740.078	26.41
740.259	25.56
740.441	25.35
740.623	25.36
740.805	25.09
740.987	25.12
741.168	24.82
741.35	24.84
741.532	25.78
741.714	26.04
741.895	26.38
742.077	26.9
742.259	27.66
742.44	28.01
742.622	27.67
742.804	27.8
742.985	28.06
743.167	28.52
743.348	28.72
743.53	27.94
743.711	27.66
743.893	28.1
744.075	27.69
744.256	27.9
744.438	27.98
744.619	28.61
744.8	28.3
744.982	28.64
745.163	28.48
745.345	28.54
745.526	28.52
745.707	28.89
745.889	28.71
746.07	28.82
746.252	28.74
746.433	28.83
746.614	28.41
746.795	28.77
746.977	29.03
747.158	28.73
747.339	28.71
747.52	28.98
747.702	28.86
747.883	28.81
748.064	28.5
748.245	28.15
748.426	28.19
748.607	28.18
748.788	28.49
748.97	28.47
749.151	28.14
749.332	28.15
749.513	28.29
749.694	28.16
749.875	28.43
750.056	28.5
750.237	28.96
750.418	28.92
750.599	28.94
750.78	28.38
750.96	28.46
751.141	28.62
751.322	28.88
751.503	28.49
751.684	28.57
751.865	27.63
752.046	27.46
752.226	27.08
752.407	27.2
752.588	27.86
752.769	27.93
752.949	27.05
753.13	26.78
753.311	26.71
753.492	26.74
753.672	27.08
753.853	27.58
754.034	28.55
754.214	28.99
754.395	28.39
754.575	27.75
754.756	27.86
754.937	29.09
755.117	29.88
755.298	29.77
755.478	29.26
755.659	29.16
755.839	29.2
756.02	28.12
756.2	27.58
756.381	27.87
756.561	27.98
756.741	27.85
756.922	27.45
757.102	27.76
757.283	27.15
757.463	27.89
757.643	27.45
757.823	28.06
758.004	28.19
758.184	28.38
758.364	28.63
758.545	28.28
758.725	27.81
758.905	28.15
759.085	27.79
759.265	28.36
759.446	28.55
759.626	29.01
759.806	28.74
759.986	29.1
760.166	29.65
760.346	29.61
760.526	30.64
760.706	30.98
760.886	30.08
761.066	29.97
761.246	30.37
761.426	30
761.606	29.26
761.786	28.92
761.966	28.4
762.146	27.91
762.326	27.64
762.506	27.46
762.686	27.56
762.866	27.88
763.046	28.02
763.225	27.95
763.405	27.42
763.585	27.62
763.765	27.55
763.945	27.82
764.124	28.24
764.304	28.45
764.484	27.96
764.664	28.01
764.843	27.8
765.023	27.88
765.203	27.67
765.382	27.95
765.562	28.05
765.741	28.22
765.921	28.07
766.101	27.94
766.28	28.14
766.46	28.43
766.639	28.28
766.819	28.69
766.998	28.65
767.178	28.56
767.357	29.13
767.537	29.24
767.716	29.44
767.896	30.3
768.075	30.48
768.254	30.34
768.434	30.93
768.613	32.13
768.792	31.98
768.972	32.9
769.151	32.79
769.33	32.46
769.51	33.21
769.689	32.62
769.868	31.96
770.047	31.55
770.226	31.32
770.406	30.67
770.585	30.19
770.764	29.93
770.943	29
771.122	29.6
771.301	30.19
771.48	29.46
771.66	30.33
771.839	30.31
772.018	30.96
772.197	30.74
772.376	31.57
772.555	31.19
772.734	31.06
772.913	31.44
773.092	30.85
773.271	30.61
773.449	30.98
773.628	30.51
773.807	30.8
773.986	30.57
774.165	31.27
774.344	30.19
774.523	30.79
774.701	31.41
774.88	31.11
775.059	32.03
775.238	31.63
775.417	31.59
775.595	31.56
775.774	31.87
775.953	32.17
776.131	31.76
776.31	31.91
776.489	31.41
776.667	32.2
776.846	32.25
777.025	32.01
777.203	32.49
777.382	32.81
777.56	32.79
777.739	32.45
777.917	31.06
778.096	31.59
778.274	31.5
778.453	30.47
778.631	29.54
778.81	30.2
778.988	30.55
779.166	30.22
779.345	29.5
779.523	28.68
779.702	28.53
779.88	29.44
780.058	29.35
780.237	29.46
780.415	30.67
780.593	30.13
780.771	28.71
780.95	27.8
781.128	27.56
781.306	27.44
781.484	28.87
781.662	29.33
781.841	28.46
782.019	27.41
782.197	28.01
782.375	27.74
782.553	28.4
782.731	29.77
782.909	29.92
783.087	30.39
783.265	30.4
783.443	30.62
783.621	30.14
783.799	31.09
783.977	31.83
784.155	31.03
784.333	30.87
784.511	30.92
784.689	29.69
784.867	30.22
785.045	29.87
785.223	29.75
785.4	29.65
785.578	30.04
785.756	30.24
785.934	30.07
786.112	29.91
786.289	30.3
786.467	30.03
786.645	31.01
786.823	30.09
787	30.64
787.178	30.66
787.356	30.04
787.533	28.86
787.711	29.25
787.889	29.83
788.066	30.19
788.244	29.98
788.421	30.51
788.599	30.39
788.776	30.92
788.954	30.93
789.131	31.81
789.309	32.34
789.486	33.63
789.664	33.08
789.841	32.93
790.019	34.01
790.196	33.27
790.373	32.99
790.551	33.64
790.728	33.4
790.906	33.52
791.083	32.93
791.26	33.39
791.437	32.46
791.615	33.53
791.792	33.45
791.969	33.23
792.146	34.2
792.324	33.5
792.501	32.64
792.678	32.84
792.855	33.15
793.032	32.9
793.209	32.22
793.387	33.53
793.564	32.27
793.741	31.49
793.918	31.07
794.095	31.24
794.272	32.58
794.449	31.91
794.626	31.51
794.803	31.65
794.98	32.06
795.157	31.6
795.334	31.84
795.511	32.4
795.688	33.42
795.864	32.94
796.041	32.48
796.218	31.59
796.395	32.58
796.572	33.13
796.749	32.01
796.925	32.23
797.102	32.77
797.279	32.35
797.456	32.63
797.632	31.97
797.809	32.78
797.986	33.01
798.162	32.55
798.339	31.44
798.516	31.58
798.692	31.87
798.869	30.84
799.046	29.95
799.222	29.11
799.399	27.83
799.575	27.96
799.752	27.08
799.928	27.84
800.105	28.53
800.281	29.29
800.458	29.04
800.634	29.57
800.811	31.3
800.987	31.67
801.163	31.97
801.34	32.22
801.516	32.01
801.692	32.17
801.869	31.54
802.045	31.86
802.221	32.15
802.398	32.28
802.574	31.97
802.75	31.67
802.926	31.6
803.103	32.74
803.279	32.36
803.455	31.73
803.631	32.79
803.807	32.07
803.983	32.27
804.16	31.96
804.336	30.61
804.512	29.64
804.688	28.78
804.864	28.51
805.04	28.14
805.216	28.72
805.392	29.65
805.568	27.59
805.744	29.24
805.92	28.95
806.096	29.41
806.272	30.14
806.448	32.17
806.623	32.21
806.799	32.98
806.975	32.2
807.151	33.62
807.327	33.98
807.503	35.59
807.678	34.24
807.854	33.17
808.03	33.06
808.206	33.53
808.381	32.29
808.557	33.29
808.733	32.64
808.908	33.19
809.084	31.75
809.26	31.98
809.435	31.89
809.611	32.63
809.787	33.78
809.962	34.16
810.138	34.2
810.313	34.33
810.489	32.76
810.664	33.42
810.84	32.95
811.015	32.68
811.191	32.87
811.366	32.68
811.542	32.54
811.717	32.85
811.892	33.05
812.068	32.84
812.243	32.66
812.419	33.02
812.594	31.74
812.769	31.56
812.944	32.27
813.12	32.02
813.295	31.45
813.47	31.02
813.645	30.96
813.821	30.79
813.996	29.46
814.171	29.62
814.346	31.06
814.521	33.41
814.697	33.45
814.872	33.28
815.047	32.93
815.222	33.99
815.397	34.62
815.572	34.55
815.747	33.9
815.922	34.38
816.097	34.01
816.272	33.6
816.447	32.5
816.622	32.37
816.797	33.54
816.972	33.81
817.147	33.09
817.322	31.94
817.496	31.97
817.671	32.01
817.846	33.26
818.021	34.09
818.196	33.03
818.371	33.71
818.545	33.6
818.72	32.27
818.895	31.62
819.069	30.5
819.244	31.57
819.419	31.26
819.594	30.52
819.768	30.44
819.943	30.43
820.117	30.57
820.292	30.64
820.467	30.48
820.641	30.02
820.816	30.61
820.99	31
821.165	30.54
821.339	30.39
821.514	30.44
821.688	30.4
821.863	30.17
822.037	30.27
822.212	29.83
822.386	29.58
822.56	29.81
822.735	29.33
822.909	29.26
823.084	29.3
823.258	29.17
823.432	29.22
823.606	28.94
823.781	28.96
823.955	28.87
824.129	28.9
824.303	29.24
824.478	28.82
824.652	28.84
824.826	28.77
825	28.59
825.174	28.67
825.348	28.62
825.523	28.54
825.697	28.3
825.871	28.23
826.045	28.53
826.219	28.61
826.393	28.58
826.567	29.09
826.741	29.29
826.915	29.88
827.089	30.08
827.263	30.23
827.437	30.32
827.611	30.54
827.784	30.59
827.958	30.69
828.132	30.79
828.306	31.47
828.48	31.34
828.654	31.59
828.827	30.71
829.001	31.88
829.175	31.52
829.349	31.61
829.522	31.29
829.696	31.21
829.87	30.82
830.044	31.01
830.217	31.19
830.391	31.32
830.565	30.69
830.738	32.09
830.912	30.18
831.085	29.23
831.259	29.65
831.432	30.47
831.606	31.56
831.779	32.32
831.953	31.9
832.126	31.71
832.3	31.41
832.473	31.59
832.647	31.1
832.82	30.85
832.994	31.35
833.167	31.27
833.34	31.13
833.514	31.29
833.687	30.55
833.86	30.56
834.034	31.01
834.207	31.14
834.38	31.35
834.553	31.48
834.727	30.98
834.9	31.5
835.073	31.41
835.246	31.42
835.419	31.34
835.593	32.02
835.766	32.46
835.939	32.35
836.112	32.62
836.285	32.6
836.458	32.11
836.631	33.28
836.804	33.72
836.977	35.03
837.15	35.9
837.323	35.35
837.496	34.95
837.669	34.18
837.842	33.53
838.015	32.94
838.188	33.28
838.361	33.81
838.533	33.19
838.706	32.03
838.879	31.12
839.052	31.77
839.225	32.7
839.398	34.84
839.57	35.9
839.743	36.18
839.916	37.26
840.088	35.88
840.261	35.72
840.434	36.67
840.607	37.62
840.779	38.55
840.952	35.69
841.124	35.5
841.297	33.28
841.47	33.6
841.642	33.78
841.815	33.09
841.987	33.51
842.16	33.61
842.332	34.49
842.505	34.93
842.677	34.29
842.85	36.21
843.022	35.68
843.194	34.41
843.367	34.25
843.539	35.65
843.712	36.7
843.884	39.17
844.056	39.15
844.229	38.06
844.401	38.4
844.573	40.23
844.745	40.19
844.918	41.05
845.09	45.51
845.262	44.82
845.434	41.98
845.606	40.37
845.779	38.54
845.951	39.02
846.123	38.37
846.295	39.9
846.467	36.15
846.639	39.77
846.811	38.29
846.983	37.35
847.155	38.2
847.327	40.42
847.499	41.9
847.671	44.18
847.843	44.58
848.015	48.07
848.187	43.03
848.359	46.35
848.531	43.81
848.703	43.79
848.875	44.98
849.047	47.19
849.218	47.19
849.39	46
849.562	43.24
849.734	41.33
849.905	40.71
850.077	46.28
850.249	42.18
850.421	40.59
850.592	38.1
850.764	40.03
850.936	38.4
851.107	38.73
851.279	37.28
851.451	41.2
851.622	44.54
851.794	43.34
851.965	40.98
852.137	43.31
852.308	47.84
852.48	48.82
852.651	46.71
852.823	44.97
852.994	43.93
853.166	45.02
853.337	42.41
853.509	40.26
853.68	41.18
853.851	40.21
854.023	39.34
854.194	36.64
854.365	40.2
854.537	38.81
854.708	42.91
854.879	41.9
855.05	42.65
855.222	42.82
855.393	44.56
855.564	43.31
855.735	45.82
855.906	47.41
856.078	45.14
856.249	42.13
856.42	41.57
856.591	37.3
856.762	36.63
856.933	36.37
857.104	37.49
857.275	36.15
857.446	35.89
857.617	37.97
857.788	34.48
857.959	34.69
858.13	36.68
858.301	37.28
858.472	39.37
858.643	42.35
858.814	41.02
858.985	42.91
859.155	46.51
859.326	46.64
859.497	43.58
859.668	50.79
859.839	51.66
860.009	51.43
860.18	52.24
860.351	48.32
860.522	46.26
860.692	47.76
860.863	46.18
861.034	43.89
861.204	45.01
861.375	44.18
861.546	44.59
861.716	45.81
861.887	42.72
862.057	40.57
862.228	43.39
862.398	45.29
862.569	47.63
862.739	48.64
862.91	50.5
863.08	47.41
863.251	50.95
863.421	44.91
863.592	49.68
863.762	52.64
863.932	55.32
864.103	53.77
864.273	52.26
864.443	49.15
864.614	51.1
864.784	50.9
864.954	49.78
865.125	47.25
865.295	54.03
865.465	49.92
865.635	49.56
865.805	49.84
865.976	48.11
866.146	48.23
866.316	49.63
866.486	43.26
866.656	39.03
866.826	42.9
866.996	46.18
867.166	42.69
867.336	49.82
867.506	46.55
867.676	46.07
867.846	52.94
868.016	54.15
868.186	53.65
868.356	55.8
868.526	59.3
868.696	57.95
868.866	55.54
869.036	61.86
869.206	57.08
869.376	64.29
869.545	64.8
869.715	64.63
869.885	64.32
870.055	58.15
870.224	59.35
870.394	60.05
870.564	60.1
870.734	60.41
870.903	55.54
871.073	56.46
871.243	51.57
871.412	52.26
871.582	47.92
871.751	50.26
871.921	59.88
872.091	58.43
872.26	57.34
872.43	59.14
872.599	57.02
872.769	51.87
872.938	50.6
873.108	48.05
873.277	47.55
873.446	45.05
873.616	40.77
873.785	38.07
873.955	39.33
874.124	38.2
874.293	41.56
874.463	45.09
874.632	46.77
874.801	45.89
874.971	52.83
875.14	50.52
875.309	52.94
875.478	55.54
875.647	56.52
875.817	60.97
875.986	59.84
876.155	56.1
876.324	52.84
876.493	53.7
876.662	52.7
876.831	52.2
877	55.29
877.17	58.6
877.339	60.07
877.508	57.41
877.677	54.69
877.846	57.59
878.015	56.93
878.184	58.89
878.352	56.9
878.521	57.45
878.69	54.48
878.859	52.14
879.028	51.03
879.197	50.17
879.366	48.14
879.534	45.2
879.703	41.39
879.872	40.22
880.041	39.15
880.21	39.01
880.378	38.59
880.547	36.5
880.716	35.82
880.884	34.52
881.053	34.17
881.222	33.63
881.39	34.47
881.559	35.32
881.727	35.01
881.896	33.59
882.065	32.9
882.233	32.35
882.402	32.71
882.57	32.78
882.739	32.86
882.907	33.06
883.076	33.79
883.244	34.03
883.412	33.51
883.581	33.15
883.749	34.22
883.918	34.77
884.086	34.97
884.254	35.52
884.423	35.66
884.591	35.49
884.759	35.9
884.927	35.55
885.096	34.6
885.264	35.46
885.432	35.91
885.6	35.66
885.769	36.42
885.937	36.43
886.105	36.52
886.273	37.11
886.441	37.46
886.609	35.65
886.777	36.46
886.945	36.01
887.113	35.62
887.281	39.97
887.449	40.46
887.617	37.98
887.785	41.02
887.953	43.25
888.121	44.17
888.289	45.3
888.457	44.95
888.625	45.28
888.793	47.81
888.961	45.81
889.129	42.99
889.296	45.61
889.464	48.13
889.632	46.02
889.8	43.15
889.967	41.39
890.135	42.58
