Data from 2938543_Reflection_2.txt Node
Date: Mon Jun 15 00:32:34 EDT 2015
User: robert
Spectrometer: USB4E03002
Autoset integration time: false
Trigger mode: 4
Integration Time (sec): 1.000000E-1
Scans to average: 10
Electric dark correction enabled: true
Nonlinearity correction enabled: false
Boxcar width: 5
Stray light correction enabled: false
XAxis mode: Wavelengths
Stop averaging: false
Number of Pixels in Spectrum: 3648
>>>>>Begin Spectral Data<<<<<
177.575	23.52
177.794	-5.65
178.014	83.76
178.233	181.2
178.452	-9.76
178.672	-117.3
178.891	32.46
179.11	33.02
179.33	26.83
179.549	9.81
179.768	32.17
179.987	-12.57
180.207	-175.24
180.426	-88.85
180.645	-112.08
180.864	-23.93
181.084	-100.39
181.303	-46.38
181.522	-32.55
181.741	-61.8
181.96	-66.56
182.179	-87.28
182.398	-41.93
182.618	-32.28
182.837	-36.3
183.056	-55.65
183.275	-77.02
183.494	-68.41
183.713	-79.08
183.932	-91.33
184.151	-104.38
184.37	-62.53
184.589	-36.71
184.808	-23.79
185.027	-33.78
185.246	-23.39
185.465	4.25
185.684	10.64
185.903	15.31
186.122	12.64
186.341	30.12
186.56	37.4
186.779	34.64
186.998	28.47
187.216	29.65
187.435	46.9
187.654	35.77
187.873	35.31
188.092	35.99
188.311	38.72
188.53	41.03
188.748	41.46
188.967	41.51
189.186	35.84
189.405	40.25
189.623	40.25
189.842	15.5
190.061	29.24
190.28	22.48
190.498	24.83
190.717	21.14
190.936	13.96
191.154	3.83
191.373	18.87
191.592	26.24
191.81	36.87
192.029	51.8
192.248	56.78
192.466	67.89
192.685	89.39
192.904	68.46
193.122	65.74
193.341	32.2
193.559	26.98
193.778	-6.22
193.996	12.12
194.215	-20.76
194.433	-60.47
194.652	-5.81
194.87	-8.29
195.089	7.03
195.307	-16.07
195.526	-9
195.744	15.1
195.963	37.31
196.181	29.59
196.399	-49.92
196.618	-93.55
196.836	-85.15
197.055	-174.04
197.273	-246.8
197.491	-743.69
197.71	-186.12
197.928	-139.79
198.146	-146.42
198.365	-292.53
198.583	-132.83
198.801	-21.9
199.019	-18.05
199.238	50.11
199.456	40.36
199.674	49.33
199.892	42.93
200.111	23.24
200.329	26.22
200.547	42.59
200.765	43
200.983	20.15
201.202	22.87
201.42	28.54
201.638	2.84
201.856	12.75
202.074	-7.34
202.292	16
202.51	31.44
202.728	31.07
202.946	19.79
203.165	18.12
203.383	6.05
203.601	-3.97
203.819	-7.77
204.037	7.36
204.255	16.5
204.473	37.4
204.691	24.43
204.909	14.91
205.127	0.31
205.345	-1.39
205.562	20.35
205.78	35.87
205.998	38.66
206.216	29.21
206.434	29.34
206.652	15.24
206.87	5.53
207.088	8.06
207.306	16.78
207.523	31.3
207.741	33.6
207.959	25.7
208.177	29.01
208.395	32.78
208.612	42.6
208.83	52.45
209.048	54.75
209.266	52.82
209.483	51.66
209.701	47.57
209.919	42.48
210.136	41.34
210.354	38.95
210.572	31.3
210.79	30.17
211.007	29.38
211.225	13.47
211.442	17.54
211.66	7.77
211.878	9.88
212.095	22.19
212.313	31.73
212.53	30.96
212.748	33.4
212.966	37.96
213.183	42.84
213.401	47.35
213.618	43.03
213.836	33.8
214.053	38.74
214.271	28.92
214.488	21.89
214.705	17.71
214.923	13.94
215.14	2.5
215.358	3.86
215.575	0.98
215.793	8.01
216.01	16.65
216.227	25.62
216.445	22.12
216.662	24.37
216.879	24.94
217.097	20.85
217.314	18.55
217.531	26.29
217.749	28.77
217.966	33.7
218.183	37.89
218.4	23.18
218.618	11.76
218.835	9.66
219.052	8.9
219.269	8.82
219.487	17.78
219.704	23.35
219.921	19.51
220.138	17.6
220.355	5.03
220.572	-0.68
220.79	7.85
221.007	16.65
221.224	19.35
221.441	22.13
221.658	20.42
221.875	14.19
222.092	7.93
222.309	10.09
222.526	10.04
222.743	13.01
222.96	16.2
223.177	14.85
223.394	8.47
223.611	7.34
223.828	1.93
224.045	0.02
224.262	-2.49
224.479	1.05
224.696	-0.63
224.913	-1.61
225.13	-0.01
225.347	1.6
225.564	5.9
225.781	6.96
225.997	5.74
226.214	7.55
226.431	9.16
226.648	9.43
226.865	9.4
227.082	9.24
227.298	9.43
227.515	8.88
227.732	8.39
227.949	7.84
228.165	9.31
228.382	10.77
228.599	11.09
228.816	11.28
229.032	11.91
229.249	12.98
229.466	13.08
229.682	13.5
229.899	14.37
230.116	14.29
230.332	12.7
230.549	11.32
230.765	10.77
230.982	11.19
231.199	9.6
231.415	10
231.632	8.66
231.848	8.19
232.065	9.47
232.281	9.11
232.498	10.26
232.714	10.86
232.931	9.92
233.147	8.5
233.364	8.2
233.58	9.09
233.797	9.26
234.013	9.29
234.23	10.02
234.446	11.18
234.662	11.54
234.879	10.69
235.095	10.09
235.312	11.22
235.528	10.67
235.744	11.03
235.961	8.61
236.177	8.59
236.393	7.16
236.61	7.85
236.826	4.98
237.042	3.64
237.258	3.25
237.475	2.76
237.691	2.51
237.907	5.95
238.123	6.57
238.339	8.45
238.556	8.94
238.772	9.89
238.988	9.29
239.204	9.65
239.42	9.48
239.636	9.39
239.853	9.96
240.069	9.11
240.285	8.48
240.501	8.53
240.717	8.2
240.933	8.31
241.149	8.63
241.365	8.09
241.581	7.42
241.797	7.08
242.013	6.41
242.229	6.41
242.445	7.79
242.661	7.93
242.877	7.31
243.093	7.41
243.309	7.08
243.525	6.42
243.741	6.95
243.957	7.16
244.173	7.64
244.388	8.08
244.604	8.12
244.82	7.49
245.036	7.12
245.252	7.03
245.468	7.03
245.683	6.95
245.899	7.04
246.115	7.35
246.331	7.59
246.547	7.58
246.762	7.59
246.978	7.46
247.194	7.02
247.409	7.2
247.625	7.94
247.841	7.9
248.057	8.36
248.272	7.95
248.488	7.96
248.703	8.13
248.919	8.21
249.135	8.21
249.35	8.54
249.566	9.13
249.782	8.6
249.997	7.67
250.213	8.39
250.428	7.54
250.644	7.82
250.859	7.35
251.075	7.02
251.29	7.21
251.506	7.15
251.721	6.87
251.937	6.68
252.152	7.5
252.368	7.37
252.583	6.83
252.798	7.46
253.014	7.71
253.229	7.18
253.445	7.42
253.66	7.03
253.875	7.62
254.091	6.66
254.306	8.21
254.521	8.21
254.737	8.66
254.952	9
255.167	8.54
255.383	8.89
255.598	9.23
255.813	8.75
256.028	8.39
256.244	7.96
256.459	8.78
256.674	7.93
256.889	7.21
257.104	6.65
257.32	6.33
257.535	6.08
257.75	5.86
257.965	5.6
258.18	5.55
258.395	5.4
258.61	5.31
258.826	4.97
259.041	4.93
259.256	5.01
259.471	5.19
259.686	5.31
259.901	5.3
260.116	5.2
260.331	5.39
260.546	5.18
260.761	5.6
260.976	5.56
261.191	5.56
261.406	5.34
261.621	5.71
261.836	5.57
262.05	5.28
262.265	5.26
262.48	4.75
262.695	5.19
262.91	5.92
263.125	5.57
263.34	5.49
263.555	5.05
263.769	5.59
263.984	4.45
264.199	4.12
264.414	3.87
264.629	4.43
264.843	5.18
265.058	4.59
265.273	4.59
265.488	4.83
265.702	5.6
265.917	6.23
266.132	6.06
266.346	6.32
266.561	5.91
266.776	5.94
266.99	5.55
267.205	5.31
267.42	5.53
267.634	5.56
267.849	5.3
268.063	4.93
268.278	4.39
268.492	4.26
268.707	4.74
268.922	5.47
269.136	5.79
269.351	5.48
269.565	5.61
269.78	5.71
269.994	5.27
270.209	5.5
270.423	5.18
270.637	5.46
270.852	5.69
271.066	5.82
271.281	5.61
271.495	5.49
271.709	5.78
271.924	5.51
272.138	5.84
272.353	5.65
272.567	5.52
272.781	6.01
272.996	5.94
273.21	5.56
273.424	4.56
273.638	4.45
273.853	4.25
274.067	4.13
274.281	4.61
274.495	3.85
274.71	3.76
274.924	3.98
275.138	3.77
275.352	3.22
275.566	2.97
275.781	4.13
275.995	4.16
276.209	4.5
276.423	4.59
276.637	3.93
276.851	4.22
277.065	4.79
277.279	4.09
277.493	3.57
277.707	4.55
277.921	5.31
278.135	5.03
278.349	5.21
278.563	4.75
278.777	4.89
278.991	5.68
279.205	5.21
279.419	4.86
279.633	5.73
279.847	5.81
280.061	5.13
280.275	4.37
280.489	4.02
280.703	3.77
280.917	3.99
281.131	3.73
281.344	3.07
281.558	3.81
281.772	4.04
281.986	3.86
282.2	3.76
282.414	3.98
282.627	4.21
282.841	4.41
283.055	4.11
283.269	4.29
283.482	4.7
283.696	4.99
283.91	4.65
284.123	4.43
284.337	4.05
284.551	4.14
284.764	3.77
284.978	4.26
285.192	4.39
285.405	4.74
285.619	4.63
285.833	4.24
286.046	3.88
286.26	3.96
286.473	4.26
286.687	4.51
286.9	4.78
287.114	5.04
287.327	4.46
287.541	4.56
287.754	4.82
287.968	4.66
288.181	4.9
288.395	5.31
288.608	4.91
288.822	4.73
289.035	4.62
289.248	4.23
289.462	4.3
289.675	4.52
289.889	4.21
290.102	4.09
290.315	4.25
290.529	4.45
290.742	4.11
290.955	3.93
291.169	4.55
291.382	4.29
291.595	4.71
291.808	5.21
292.022	5.45
292.235	5.54
292.448	5.43
292.661	5.13
292.875	4.82
293.088	4.99
293.301	5.49
293.514	4.94
293.727	5.49
293.94	5.36
294.153	5.01
294.367	4.74
294.58	4.23
294.793	4.33
295.006	4.73
295.219	5.04
295.432	5.09
295.645	4.73
295.858	4.92
296.071	4.73
296.284	4.51
296.497	4.67
296.71	4.59
296.923	5.17
297.136	5.29
297.349	5.2
297.562	4.75
297.775	4.84
297.988	5.14
298.201	5.26
298.414	5.58
298.626	5.76
298.839	5.55
299.052	5.74
299.265	5.56
299.478	5.36
299.691	5.33
299.903	5.49
300.116	5.24
300.329	5.39
300.542	5.35
300.755	4.91
300.967	4.69
301.18	4.65
301.393	4.24
301.605	4.56
301.818	4.56
302.031	4.4
302.243	4.46
302.456	4.46
302.669	4.6
302.881	4.44
303.094	4.83
303.307	5.03
303.519	5.19
303.732	5.41
303.944	5.13
304.157	5.09
304.37	4.93
304.582	4.86
304.795	5.14
305.007	4.37
305.22	3.89
305.432	3.74
305.645	3.77
305.857	3.93
306.069	4.27
306.282	4.32
306.494	4.09
306.707	4.31
306.919	4.32
307.132	4.29
307.344	4.98
307.556	5.47
307.769	5.07
307.981	5.19
308.193	5.27
308.406	5.23
308.618	5.39
308.83	5.66
309.043	5.7
309.255	5.75
309.467	5.64
309.679	5.05
309.892	4.99
310.104	5.11
310.316	5.03
310.528	4.84
310.74	4.93
310.953	4.74
311.165	4.66
311.377	4.63
311.589	4.52
311.801	4.36
312.013	4.94
312.225	4.76
312.437	5
312.649	4.99
312.862	4.67
313.074	4.22
313.286	4.35
313.498	4.65
313.71	4.72
313.922	4.53
314.134	4.92
314.346	4.74
314.558	4.83
314.77	4.92
314.982	5.33
315.193	5.3
315.405	5.15
315.617	5.18
315.829	4.58
316.041	4.48
316.253	4.69
316.465	4.26
316.677	4.56
316.888	4.83
317.1	4.94
317.312	4.74
317.524	5.12
317.736	5.55
317.947	5.66
318.159	6.21
318.371	6.29
318.583	6.44
318.794	6.73
319.006	6.6
319.218	6.69
319.43	6.31
319.641	6.23
319.853	6.44
320.064	6.03
320.276	5.54
320.488	5.3
320.699	5.07
320.911	5.33
321.123	5.23
321.334	4.53
321.546	4.69
321.757	4.6
321.969	4.47
322.18	4.88
322.392	5.51
322.603	5.63
322.815	5.91
323.026	5.98
323.238	5.91
323.449	6.01
323.661	6.47
323.872	5.95
324.083	6.14
324.295	6.13
324.506	5.75
324.718	5.5
324.929	6.03
325.14	5.75
325.352	6.24
325.563	6.23
325.774	6.13
325.986	6.23
326.197	6.02
326.408	6.05
326.62	6.28
326.831	5.83
327.042	6.03
327.253	5.75
327.464	5.81
327.676	5.59
327.887	5.32
328.098	5.53
328.309	5.22
328.52	5.76
328.732	5.79
328.943	6
329.154	6.42
329.365	6.48
329.576	6.51
329.787	6.31
329.998	6.34
330.209	6.23
330.42	5.73
330.631	6.29
330.842	6.16
331.053	5.96
331.264	5.69
331.475	5.73
331.686	5.36
331.897	4.83
332.108	4.7
332.319	4.79
332.53	5.15
332.741	5.68
332.952	5.15
333.163	5.11
333.374	5.02
333.585	5.48
333.795	5.06
334.006	5.51
334.217	5.42
334.428	5.64
334.639	5.37
334.849	5.29
335.06	4.94
335.271	4.86
335.482	4.73
335.692	4.76
335.903	4.45
336.114	4.62
336.325	4.5
336.535	4.74
336.746	5.21
336.957	4.75
337.167	4.82
337.378	4.63
337.589	4.81
337.799	4.9
338.01	5.05
338.22	4.8
338.431	5.09
338.642	4.61
338.852	4.76
339.063	4.3
339.273	4.83
339.484	4.47
339.694	4.86
339.905	4.99
340.115	5.23
340.326	5.17
340.536	5.23
340.746	5.04
340.957	5.29
341.167	5.23
341.378	5.52
341.588	5.33
341.799	5.67
342.009	5.51
342.219	5
342.43	4.51
342.64	4.56
342.85	4.51
343.061	4.76
343.271	5.1
343.481	5.16
343.691	5.11
343.902	5.33
344.112	5.24
344.322	5.19
344.532	5.67
344.743	6.05
344.953	6.11
345.163	6.06
345.373	5.74
345.583	5.57
345.793	5.54
346.004	5.67
346.214	5.4
346.424	5.47
346.634	5.47
346.844	5.55
347.054	5.54
347.264	5.35
347.474	5.64
347.684	5.52
347.894	5.62
348.104	5.58
348.314	5.48
348.524	5.46
348.734	5.49
348.944	5.29
349.154	5.2
349.364	5.19
349.574	5.16
349.784	4.68
349.994	4.85
350.204	4.85
350.413	4.76
350.623	4.19
350.833	4.54
351.043	4.42
351.253	4.67
351.463	4.42
351.672	4.23
351.882	4.3
352.092	4.67
352.302	4.69
352.511	4.39
352.721	4.28
352.931	4.5
353.141	4.26
353.35	3.91
353.56	3.99
353.77	3.88
353.979	4.03
354.189	4.02
354.399	3.8
354.608	3.83
354.818	4.06
355.027	4.3
355.237	4.49
355.447	4.33
355.656	4.49
355.866	4.27
356.075	4.59
356.285	4.6
356.494	4.68
356.704	4.57
356.913	4.37
357.123	4.25
357.332	4.19
357.542	4.13
357.751	4.11
357.96	3.97
358.17	3.98
358.379	3.89
358.589	3.59
358.798	3.26
359.007	3.36
359.217	3.6
359.426	3.55
359.635	3.51
359.845	3.52
360.054	3.66
360.263	3.98
360.472	3.94
360.682	3.91
360.891	4.11
361.1	4.38
361.309	4.64
361.519	4.48
361.728	4.22
361.937	4.32
362.146	4.19
362.355	4.17
362.564	4.07
362.774	4.12
362.983	4.28
363.192	4.15
363.401	4.16
363.61	4.12
363.819	4.13
364.028	4.38
364.237	4.28
364.446	4.44
364.655	4.43
364.864	4.24
365.073	4.42
365.282	4.48
365.491	4.38
365.7	4.42
365.909	4.23
366.118	4.19
366.327	4.09
366.536	4.24
366.745	4.13
366.954	4.07
367.162	4.13
367.371	4.1
367.58	3.84
367.789	4.08
367.998	3.81
368.207	4.02
368.415	4.01
368.624	4.03
368.833	3.71
369.042	3.8
369.25	3.87
369.459	3.75
369.668	3.48
369.877	3.41
370.085	3.11
370.294	3.25
370.503	2.89
370.711	2.83
370.92	2.91
371.129	2.99
371.337	2.83
371.546	2.77
371.754	3.09
371.963	3.35
372.171	3.58
372.38	3.78
372.589	3.92
372.797	4.02
373.006	4.05
373.214	4.21
373.423	4.2
373.631	4.07
373.84	4.06
374.048	3.84
374.256	3.57
374.465	3.43
374.673	3.38
374.882	3.05
375.09	3.12
375.298	3.16
375.507	2.93
375.715	3.08
375.923	3.29
376.132	3.24
376.34	3.25
376.548	3.49
376.757	3.47
376.965	3.63
377.173	3.65
377.381	3.49
377.59	3.56
377.798	3.68
378.006	3.74
378.214	3.75
378.423	3.86
378.631	3.7
378.839	3.64
379.047	3.6
379.255	3.27
379.463	3.66
379.671	3.97
379.879	3.88
380.088	3.88
380.296	3.58
380.504	3.58
380.712	3.47
380.92	3.68
381.128	3.79
381.336	3.82
381.544	3.77
381.752	3.71
381.96	3.55
382.168	3.64
382.376	3.84
382.584	3.98
382.791	3.81
382.999	3.88
383.207	3.87
383.415	3.78
383.623	3.75
383.831	3.92
384.039	3.67
384.247	3.74
384.454	3.76
384.662	3.44
384.87	3.39
385.078	3.14
385.285	3.19
385.493	3.23
385.701	3.23
385.909	3.2
386.116	3.22
386.324	3.21
386.532	3.12
386.739	2.99
386.947	2.89
387.155	2.86
387.362	3.04
387.57	2.86
387.778	2.7
387.985	2.68
388.193	2.74
388.4	2.54
388.608	2.38
388.816	2.62
389.023	2.57
389.231	2.83
389.438	2.76
389.646	2.94
389.853	3.13
390.061	3.19
390.268	3.19
390.475	3.23
390.683	3.29
390.89	3.6
391.098	3.44
391.305	3.52
391.512	3.43
391.72	3.43
391.927	3.34
392.135	3.19
392.342	3.2
392.549	3.11
392.756	3.13
392.964	3.22
393.171	3.24
393.378	3.27
393.586	3.3
393.793	3.38
394	3.38
394.207	3.25
394.414	3.12
394.622	3.11
394.829	3.11
395.036	2.93
395.243	2.94
395.45	2.74
395.657	2.77
395.864	2.6
396.072	2.56
396.279	2.56
396.486	2.62
396.693	2.7
396.9	2.59
397.107	2.57
397.314	2.61
397.521	2.62
397.728	2.69
397.935	2.5
398.142	2.44
398.349	2.25
398.556	2.3
398.763	2.38
398.97	2.46
399.177	2.57
399.383	2.62
399.59	2.79
399.797	2.58
400.004	2.5
400.211	2.38
400.418	2.58
400.625	2.81
400.831	2.71
401.038	2.7
401.245	2.62
401.452	2.56
401.658	2.63
401.865	2.37
402.072	2.51
402.279	2.45
402.485	2.58
402.692	2.39
402.899	2.17
403.105	2.26
403.312	2.17
403.519	2.19
403.725	2.1
403.932	2.14
404.138	2.14
404.345	2.11
404.552	2.2
404.758	2.21
404.965	2.26
405.171	2.34
405.378	2.21
405.584	2.3
405.791	2.36
405.997	2.37
406.204	2.23
406.41	2.26
406.617	2.51
406.823	2.38
407.029	2.38
407.236	2.5
407.442	2.59
407.649	2.73
407.855	2.82
408.061	2.67
408.268	2.61
408.474	2.57
408.68	2.49
408.887	2.35
409.093	2.42
409.299	2.5
409.505	2.36
409.712	2.17
409.918	2.02
410.124	1.88
410.33	1.96
410.537	2.16
410.743	2.03
410.949	2.11
411.155	2.16
411.361	2.02
411.567	1.89
411.773	2.17
411.98	2.22
412.186	2.24
412.392	2.12
412.598	1.94
412.804	1.93
413.01	2.11
413.216	2.29
413.422	2.02
413.628	2.14
413.834	2.17
414.04	2.08
414.246	2
414.452	1.94
414.658	1.91
414.864	2.1
415.07	1.93
415.275	1.83
415.481	1.74
415.687	1.81
415.893	1.82
416.099	1.82
416.305	1.75
416.511	1.79
416.716	1.84
416.922	1.93
417.128	1.89
417.334	1.93
417.539	2.01
417.745	1.98
417.951	2.06
418.157	2.02
418.362	1.98
418.568	1.91
418.774	1.95
418.979	1.96
419.185	2.06
419.391	2.03
419.596	2.11
419.802	2.02
420.008	1.99
420.213	1.17
420.419	1.2
420.624	1.24
420.83	1.25
421.035	1.23
421.241	1.19
421.446	1.06
421.652	1.02
421.857	0.94
422.063	1.04
422.268	1.07
422.474	1.86
422.679	1.78
422.885	1.74
423.09	1.8
423.295	1.82
423.501	1.86
423.706	1.88
423.911	1.96
424.117	1.97
424.322	1.96
424.527	1.93
424.733	1.87
424.938	1.89
425.143	1.88
425.349	1.81
425.554	1.74
425.759	1.76
425.964	1.8
426.169	1.71
426.375	1.62
426.58	1.59
426.785	1.49
426.99	1.53
427.195	1.64
427.4	1.61
427.605	1.52
427.811	1.5
428.016	1.58
428.221	1.61
428.426	1.66
428.631	1.76
428.836	1.85
429.041	1.87
429.246	1.8
429.451	1.69
429.656	1.8
429.861	2
430.066	2.15
430.271	1.95
430.476	1.94
430.681	1.97
430.886	1.96
431.09	1.9
431.295	1.95
431.5	2.03
431.705	2.05
431.91	2.05
432.115	1.9
432.32	1.78
432.524	1.9
432.729	1.78
432.934	1.82
433.139	1.83
433.343	1.76
433.548	1.73
433.753	1.74
433.958	1.65
434.162	1.52
434.367	1.56
434.572	1.74
434.776	1.63
434.981	1.84
435.186	1.71
435.39	1.65
435.595	1.69
435.799	1.75
436.004	1.74
436.209	1.83
436.413	1.84
436.618	1.81
436.822	1.63
437.027	1.66
437.231	1.57
437.436	1.58
437.64	1.69
437.845	1.72
438.049	1.68
438.253	1.63
438.458	1.6
438.662	1.6
438.867	1.62
439.071	1.7
439.275	1.61
439.48	1.66
439.684	1.68
439.888	1.6
440.093	1.55
440.297	1.52
440.501	1.61
440.706	1.59
440.91	1.55
441.114	1.5
441.318	1.35
441.523	1.46
441.727	1.28
441.931	1.21
442.135	1.21
442.339	1.18
442.543	1.16
442.748	1.09
442.952	1.13
443.156	1.2
443.36	1.27
443.564	1.35
443.768	1.32
443.972	1.4
444.176	1.44
444.38	1.45
444.584	1.44
444.788	1.48
444.992	1.44
445.196	1.51
445.4	1.52
445.604	1.52
445.808	1.54
446.012	1.58
446.216	1.51
446.42	1.53
446.624	1.51
446.828	1.54
447.032	1.53
447.235	1.54
447.439	1.48
447.643	1.49
447.847	1.49
448.051	1.46
448.254	1.49
448.458	1.52
448.662	1.49
448.866	1.53
449.069	1.6
449.273	1.55
449.477	1.66
449.681	1.73
449.884	1.58
450.088	1.61
450.292	1.44
450.495	1.38
450.699	1.52
450.902	1.57
451.106	1.59
451.31	1.45
451.513	1.51
451.717	1.56
451.92	1.53
452.124	1.72
452.327	1.75
452.531	1.88
452.734	1.96
452.938	1.76
453.141	1.74
453.345	1.74
453.548	1.74
453.752	1.72
453.955	1.6
454.158	1.56
454.362	1.38
454.565	1.26
454.769	1.39
454.972	1.31
455.175	1.37
455.379	1.35
455.582	1.29
455.785	1.4
455.988	1.37
456.192	1.26
456.395	1.27
456.598	1.43
456.801	1.46
457.005	1.32
457.208	1.3
457.411	1.36
457.614	1.37
457.817	1.43
458.021	1.43
458.224	1.45
458.427	1.57
458.63	1.59
458.833	1.46
459.036	1.47
459.239	1.47
459.442	1.48
459.645	1.38
459.848	1.38
460.051	1.32
460.254	1.33
460.457	1.34
460.66	1.26
460.863	1.18
461.066	1.19
461.269	1.23
461.472	1.25
461.675	1.27
461.878	1.37
462.081	1.31
462.284	1.33
462.486	1.24
462.689	1.19
462.892	1.25
463.095	1.35
463.298	1.32
463.5	1.16
463.703	1.13
463.906	1.06
464.109	1.17
464.311	1.21
464.514	1.09
464.717	1.07
464.92	1.12
465.122	1.1
465.325	1.19
465.528	1.3
465.73	1.42
465.933	1.41
466.135	1.47
466.338	1.41
466.541	1.45
466.743	1.59
466.946	1.64
467.148	1.69
467.351	1.68
467.553	1.62
467.756	1.54
467.958	1.52
468.161	1.6
468.363	1.59
468.566	1.57
468.768	1.5
468.971	1.41
469.173	1.29
469.375	1.31
469.578	1.3
469.78	1.35
469.983	1.41
470.185	1.46
470.387	1.41
470.59	1.4
470.792	1.28
470.994	1.35
471.196	1.4
471.399	1.5
471.601	1.48
471.803	1.52
472.005	1.45
472.208	1.52
472.41	1.57
472.612	1.64
472.814	1.75
473.016	1.77
473.218	1.8
473.421	1.87
473.623	1.87
473.825	1.78
474.027	1.7
474.229	1.75
474.431	1.75
474.633	1.61
474.835	1.56
475.037	1.45
475.239	1.51
475.441	1.51
475.643	1.44
475.845	1.37
476.047	1.37
476.249	1.43
476.451	1.3
476.653	1.21
476.855	1.38
477.057	1.35
477.258	1.3
477.46	1.26
477.662	1.27
477.864	1.27
478.066	1.37
478.268	1.33
478.469	1.36
478.671	1.45
478.873	1.37
479.075	1.27
479.276	1.32
479.478	1.39
479.68	1.39
479.882	1.33
480.083	1.33
480.285	1.31
480.487	1.34
480.688	1.3
480.89	1.21
481.091	1.28
481.293	1.32
481.495	1.31
481.696	1.3
481.898	1.33
482.099	1.34
482.301	1.37
482.502	1.36
482.704	1.38
482.905	1.38
483.107	1.4
483.308	1.38
483.51	1.35
483.711	1.35
483.913	1.39
484.114	1.39
484.315	1.4
484.517	1.35
484.718	1.34
484.92	1.34
485.121	1.34
485.322	1.38
485.524	1.41
485.725	1.4
485.926	1.39
486.127	1.37
486.329	1.37
486.53	1.36
486.731	1.41
486.932	1.43
487.134	1.41
487.335	1.38
487.536	1.4
487.737	1.4
487.938	1.45
488.139	1.44
488.341	1.44
488.542	1.44
488.743	1.44
488.944	1.4
489.145	1.44
489.346	1.51
489.547	1.56
489.748	1.52
489.949	1.54
490.15	1.5
490.351	1.53
490.552	1.55
490.753	1.55
490.954	1.58
491.155	1.62
491.356	1.6
491.557	1.52
491.758	1.52
491.959	1.52
492.159	1.5
492.36	1.53
492.561	1.55
492.762	1.46
492.963	1.45
493.164	1.37
493.364	1.32
493.565	1.3
493.766	1.39
493.967	1.47
494.167	1.51
494.368	1.51
494.569	1.53
494.769	1.46
494.97	1.51
495.171	1.5
495.371	1.53
495.572	1.5
495.773	1.48
495.973	1.45
496.174	1.43
496.375	1.39
496.575	1.43
496.776	1.44
496.976	1.52
497.177	1.6
497.377	1.62
497.578	1.65
497.778	1.73
497.979	1.74
498.179	1.75
498.38	1.68
498.58	1.67
498.78	1.71
498.981	1.71
499.181	1.71
499.382	1.65
499.582	1.68
499.782	1.68
499.983	1.66
500.183	1.78
500.383	1.79
500.584	1.81
500.784	1.85
500.984	1.73
501.184	1.79
501.385	1.73
501.585	1.83
501.785	1.77
501.985	1.75
502.185	1.74
502.386	1.66
502.586	1.62
502.786	1.68
502.986	1.59
503.186	1.68
503.386	1.59
503.586	1.67
503.786	1.63
503.987	1.66
504.187	1.75
504.387	1.81
504.587	1.87
504.787	1.88
504.987	1.85
505.187	1.93
505.387	1.91
505.587	1.94
505.786	1.88
505.986	1.88
506.186	1.92
506.386	1.94
506.586	1.9
506.786	1.9
506.986	1.9
507.186	1.89
507.386	1.92
507.585	1.94
507.785	1.95
507.985	1.92
508.185	2.01
508.384	1.94
508.584	1.92
508.784	1.96
508.984	1.97
509.183	2.03
509.383	2.08
509.583	2.09
509.782	2.13
509.982	2.17
510.182	2.23
510.381	2.17
510.581	2.24
510.781	2.25
510.98	2.3
511.18	2.32
511.379	2.34
511.579	2.33
511.778	2.3
511.978	2.33
512.177	2.38
512.377	2.39
512.576	2.37
512.776	2.4
512.975	2.36
513.175	2.32
513.374	2.26
513.573	2.29
513.773	2.39
513.972	2.46
514.172	2.43
514.371	2.34
514.57	2.36
514.77	2.39
514.969	2.4
515.168	2.48
515.367	2.46
515.567	2.46
515.766	2.46
515.965	2.43
516.164	2.38
516.364	2.45
516.563	2.48
516.762	2.48
516.961	2.49
517.16	2.46
517.359	2.43
517.559	2.48
517.758	2.53
517.957	2.54
518.156	2.54
518.355	2.63
518.554	2.59
518.753	2.67
518.952	2.71
519.151	2.72
519.35	2.77
519.549	2.86
519.748	2.98
519.947	2.96
520.146	3.01
520.345	3
520.544	2.93
520.743	2.93
520.942	2.94
521.141	2.96
521.339	2.92
521.538	2.9
521.737	2.94
521.936	2.82
522.135	2.93
522.333	2.94
522.532	2.91
522.731	3
522.93	3.03
523.129	3.02
523.327	3.02
523.526	3.14
523.725	3.23
523.923	3.16
524.122	3.24
524.321	3.22
524.519	3.18
524.718	3.22
524.917	3.23
525.115	3.23
525.314	3.26
525.512	3.24
525.711	3.2
525.909	3.2
526.108	3.22
526.306	3.23
526.505	3.25
526.703	3.28
526.902	3.28
527.1	3.3
527.299	3.33
527.497	3.35
527.696	3.38
527.894	3.41
528.092	3.43
528.291	3.49
528.489	3.49
528.688	3.52
528.886	3.56
529.084	3.65
529.283	3.67
529.481	3.67
529.679	3.69
529.877	3.74
530.076	3.74
530.274	3.75
530.472	3.74
530.67	3.81
530.869	3.77
531.067	3.77
531.265	3.75
531.463	3.76
531.661	3.8
531.859	3.83
532.057	3.78
532.255	3.78
532.454	3.78
532.652	3.76
532.85	3.76
533.048	3.78
533.246	3.83
533.444	3.86
533.642	3.87
533.84	3.9
534.038	3.92
534.236	3.96
534.434	4.02
534.632	4.07
534.83	4.13
535.027	4.14
535.225	4.17
535.423	4.17
535.621	4.14
535.819	4.17
536.017	4.15
536.215	4.14
536.412	4.19
536.61	4.2
536.808	4.17
537.006	4.16
537.203	4.21
537.401	4.25
537.599	4.25
537.797	4.3
537.994	4.34
538.192	4.39
538.39	4.42
538.587	4.44
538.785	4.52
538.983	4.57
539.18	4.6
539.378	4.6
539.575	4.6
539.773	4.62
539.97	4.67
540.168	4.72
540.366	4.71
540.563	4.73
540.761	4.74
540.958	4.73
541.155	4.78
541.353	4.81
541.55	4.81
541.748	4.81
541.945	4.82
542.143	4.78
542.34	4.76
542.537	4.82
542.735	4.86
542.932	4.91
543.129	4.98
543.327	4.99
543.524	5.02
543.721	5.12
543.919	5.19
544.116	5.25
544.313	5.34
544.51	5.36
544.708	5.35
544.905	5.32
545.102	5.39
545.299	5.33
545.496	5.36
545.693	5.32
545.891	5.33
546.088	5.38
546.285	5.41
546.482	5.46
546.679	5.53
546.876	5.65
547.073	5.73
547.27	5.76
547.467	5.84
547.664	5.89
547.861	6.03
548.058	6.11
548.255	6.13
548.452	6.21
548.649	6.17
548.846	6.19
549.043	6.22
549.24	6.28
549.437	6.32
549.633	6.4
549.83	6.34
550.027	6.34
550.224	6.29
550.421	6.32
550.618	6.28
550.814	6.41
551.011	6.52
551.208	6.54
551.405	6.65
551.601	6.71
551.798	6.76
551.995	6.89
552.191	7.01
552.388	7.04
552.585	7.18
552.781	7.37
552.978	7.33
553.175	7.31
553.371	7.37
553.568	7.32
553.764	7.35
553.961	7.35
554.157	7.41
554.354	7.3
554.55	7.27
554.747	7.22
554.943	7.22
555.14	7.33
555.336	7.43
555.533	7.47
555.729	7.58
555.926	7.67
556.122	7.7
556.318	7.72
556.515	7.82
556.711	7.99
556.907	8.04
557.104	8
557.3	7.9
557.496	7.92
557.693	7.93
557.889	7.97
558.085	7.89
558.281	7.96
558.478	7.9
558.674	8.05
558.87	7.98
559.066	8.1
559.262	8.2
559.459	8.33
559.655	8.39
559.851	8.37
560.047	8.42
560.243	8.61
560.439	8.72
560.635	8.87
560.831	8.85
561.027	9.09
561.223	9.17
561.419	9.32
561.615	9.47
561.811	9.49
562.007	9.64
562.203	9.61
562.399	9.66
562.595	9.7
562.791	9.83
562.987	9.99
563.183	10.05
563.379	10.08
563.575	10.09
563.771	10.14
563.966	10.33
564.162	10.34
564.358	10.5
564.554	10.48
564.75	10.55
564.945	10.55
565.141	10.52
565.337	10.58
565.533	10.59
565.728	10.62
565.924	10.6
566.12	10.61
566.315	10.75
566.511	10.77
566.707	10.84
566.902	10.96
567.098	11
567.293	11.11
567.489	11.11
567.684	11.2
567.88	11.17
568.076	11.32
568.271	11.39
568.467	11.41
568.662	11.53
568.858	11.63
569.053	11.67
569.248	11.79
569.444	11.8
569.639	11.87
569.835	11.95
570.03	12.07
570.225	12.18
570.421	12.26
570.616	12.31
570.812	12.45
571.007	12.43
571.202	12.43
571.397	12.44
571.593	12.48
571.788	12.45
571.983	12.53
572.178	12.65
572.374	12.65
572.569	12.62
572.764	12.66
572.959	12.66
573.154	12.78
573.35	12.97
573.545	13.09
573.74	13.26
573.935	13.48
574.13	13.5
574.325	13.51
574.52	13.6
574.715	13.59
574.91	13.67
575.105	13.72
575.3	13.79
575.495	13.75
575.69	13.72
575.885	13.6
576.08	13.67
576.275	13.72
576.47	13.74
576.665	13.66
576.86	13.77
577.055	13.86
577.25	13.86
577.444	13.87
577.639	13.96
577.834	14.12
578.029	14.16
578.224	14.17
578.418	14.1
578.613	14.23
578.808	14.43
579.003	14.53
579.197	14.64
579.392	14.75
579.587	14.74
579.781	14.67
579.976	14.66
580.171	14.8
580.365	14.67
580.56	14.93
580.755	14.95
580.949	14.95
581.144	15.01
581.338	15.02
581.533	14.95
581.727	15.04
581.922	15.28
582.116	15.28
582.311	15.39
582.505	15.68
582.7	15.71
582.894	15.65
583.089	15.82
583.283	15.82
583.478	15.79
583.672	15.91
583.866	16.07
584.061	15.92
584.255	15.97
584.449	15.97
584.644	15.8
584.838	15.78
585.032	15.92
585.226	15.97
585.421	16.04
585.615	16.09
585.809	16.05
586.003	16.08
586.198	16.18
586.392	16.28
586.586	16.35
586.78	16.43
586.974	16.47
587.168	16.46
587.363	16.32
587.557	16.29
587.751	16.29
587.945	16.4
588.139	16.39
588.333	16.47
588.527	16.49
588.721	16.57
588.915	16.67
589.109	16.83
589.303	16.76
589.497	16.76
589.691	16.97
589.885	17.01
590.079	16.97
590.273	17.01
590.466	16.99
590.66	17.05
590.854	17.08
591.048	17.13
591.242	17.12
591.436	17.35
591.629	17.39
591.823	17.22
592.017	17.35
592.211	17.44
592.404	17.63
592.598	17.82
592.792	17.85
592.986	17.81
593.179	17.8
593.373	17.76
593.567	17.66
593.76	17.75
593.954	17.75
594.147	17.75
594.341	17.74
594.535	17.67
594.728	17.64
594.922	17.66
595.115	17.64
595.309	17.69
595.502	17.72
595.696	17.74
595.889	17.81
596.083	17.88
596.276	17.86
596.47	17.88
596.663	17.89
596.856	17.84
597.05	17.97
597.243	18.06
597.437	18.11
597.63	18.11
597.823	18.29
598.017	18.29
598.21	18.34
598.403	18.41
598.596	18.5
598.79	18.45
598.983	18.38
599.176	18.2
599.369	18.13
599.563	18.09
599.756	18.11
599.949	18.14
600.142	18.16
600.335	18.1
600.528	18.09
600.722	18.13
600.915	18.16
601.108	18.32
601.301	18.43
601.494	18.57
601.687	18.51
601.88	18.5
602.073	18.34
602.266	18.27
602.459	18.45
602.652	18.46
602.845	18.51
603.038	18.59
603.231	18.53
603.424	18.52
603.617	18.53
603.809	18.52
604.002	18.54
604.195	18.78
604.388	18.86
604.581	18.76
604.774	18.9
604.966	18.77
605.159	18.91
605.352	18.88
605.545	18.98
605.737	19.02
605.93	19.19
606.123	19.27
606.316	19.07
606.508	19.12
606.701	19.12
606.894	19.01
607.086	19.27
607.279	19.15
607.471	19.34
607.664	19.32
607.857	19.45
608.049	19.53
608.242	19.64
608.434	19.79
608.627	19.84
608.819	19.96
609.012	20.09
609.204	20
609.397	20.1
609.589	20.2
609.782	20.25
609.974	20.14
610.166	20.01
610.359	19.95
610.551	19.95
610.743	19.92
610.936	19.87
611.128	20.06
611.32	20.04
611.513	20.03
611.705	19.98
611.897	19.85
612.09	19.89
612.282	20.1
612.474	20.05
612.666	20.09
612.858	20.21
613.051	20.27
613.243	20.11
613.435	20.31
613.627	20.15
613.819	20.05
614.011	20.15
614.203	20.08
614.395	20.07
614.588	20.23
614.78	20.1
614.972	20.07
615.164	20.3
615.356	20.2
615.548	20.07
615.74	20.15
615.932	20.37
616.124	20.4
616.315	20.61
616.507	20.66
616.699	20.75
616.891	20.75
617.083	20.73
617.275	20.6
617.467	20.77
617.659	20.83
617.85	20.95
618.042	20.75
618.234	20.74
618.426	20.61
618.618	20.46
618.809	20.52
619.001	20.57
619.193	20.8
619.384	20.74
619.576	20.7
619.768	20.66
619.959	20.69
620.151	20.81
620.343	21.05
620.534	21.3
620.726	21.27
620.917	21.28
621.109	21.33
621.301	21.16
621.492	21.23
621.684	21.32
621.875	21.42
622.067	21.21
622.258	21.28
622.45	21.23
622.641	21.15
622.832	21.23
623.024	20.95
623.215	20.94
623.407	20.91
623.598	20.91
623.789	20.9
623.981	20.96
624.172	21.16
624.363	21.14
624.555	21.12
624.746	21.15
624.937	21.28
625.129	21.45
625.32	21.56
625.511	21.6
625.702	21.6
625.893	21.55
626.085	21.6
626.276	21.49
626.467	21.52
626.658	21.56
626.849	21.54
627.04	21.58
627.231	21.57
627.422	21.52
627.614	21.62
627.805	21.77
627.996	21.91
628.187	21.85
628.378	21.8
628.569	21.76
628.76	21.64
628.951	21.61
629.142	21.55
629.332	21.42
629.523	21.48
629.714	21.48
629.905	21.25
630.096	21.19
630.287	21.15
630.478	21.51
630.669	21.53
630.859	21.58
631.05	21.52
631.241	21.65
631.432	21.82
631.623	22
631.813	22.08
632.004	22.19
632.195	22.08
632.385	22.08
632.576	21.93
632.767	22.11
632.957	22.18
633.148	22.35
633.339	22.28
633.529	22.26
633.72	22.11
633.91	21.91
634.101	22
634.292	21.97
634.482	22.04
634.673	22.03
634.863	21.95
635.054	21.97
635.244	21.92
635.435	21.86
635.625	21.95
635.815	21.94
636.006	21.9
636.196	21.91
636.387	22.03
636.577	22.04
636.767	22.11
636.958	22.13
637.148	22.03
637.338	21.92
637.529	22.04
637.719	21.88
637.909	21.87
638.099	22.07
638.29	22.03
638.48	22.01
638.67	22.09
638.86	22.17
639.05	22.31
639.241	22.35
639.431	22.46
639.621	22.32
639.811	22.43
640.001	22.67
640.191	22.58
640.381	22.63
640.571	22.71
640.761	22.65
640.951	22.46
641.141	22.39
641.331	22.57
641.521	22.63
641.711	22.63
641.901	22.78
642.091	22.63
642.281	22.81
642.471	22.85
642.661	22.94
642.851	23.12
643.041	23.18
643.231	23.13
643.42	23.18
643.61	23.34
643.8	23.49
643.99	23.37
644.18	23.38
644.369	23.1
644.559	23.15
644.749	22.96
644.939	22.81
645.128	22.96
645.318	22.96
645.508	22.85
645.697	22.54
645.887	22.56
646.076	22.58
646.266	22.76
646.456	23.03
646.645	22.99
646.835	23.13
647.024	23.21
647.214	23.16
647.403	23.48
647.593	23.42
647.782	23.52
647.972	23.55
648.161	23.52
648.351	23.44
648.54	23.4
648.73	23.3
648.919	23.42
649.108	23.49
649.298	23.54
649.487	23.42
649.677	23.5
649.866	23.65
650.055	23.53
650.244	23.46
650.434	23.41
650.623	23.56
650.812	23.68
651.002	23.69
651.191	23.62
651.38	23.75
651.569	23.56
651.758	23.47
651.947	23.41
652.137	23.62
652.326	23.68
652.515	23.69
652.704	23.56
652.893	23.62
653.082	23.53
653.271	23.63
653.46	23.55
653.649	23.56
653.838	23.68
654.027	23.72
654.216	23.59
654.405	23.69
654.594	23.62
654.783	23.68
654.972	23.62
655.161	23.49
655.35	23.45
655.539	23.45
655.728	23.47
655.916	23.55
656.105	23.77
656.294	23.75
656.483	23.69
656.672	23.77
656.86	23.79
657.049	23.7
657.238	24.08
657.427	24.29
657.615	24.36
657.804	24.49
657.993	24.41
658.181	24.11
658.37	24.15
658.559	24.22
658.747	24.27
658.936	24.23
659.125	24.13
659.313	23.98
659.502	23.85
659.69	23.81
659.879	23.76
660.067	23.98
660.256	24.05
660.444	24.19
660.633	24.53
660.821	24.51
661.01	24.76
661.198	25.12
661.387	24.93
661.575	25.03
661.763	24.71
661.952	24.74
662.14	24.65
662.328	24.84
662.517	24.67
662.705	24.46
662.893	24.68
663.082	24.56
663.27	24.57
663.458	24.93
663.646	24.94
663.834	25.33
664.023	25.47
664.211	25.28
664.399	25.33
664.587	25.53
664.775	25.42
664.963	25.37
665.152	25.55
665.34	25.62
665.528	25.64
665.716	25.4
665.904	25.54
666.092	25.51
666.28	25.59
666.468	25.58
666.656	25.83
666.844	25.98
667.032	26.03
667.22	25.73
667.408	25.67
667.596	25.55
667.784	25.67
667.971	25.41
668.159	25.4
668.347	25.53
668.535	25.6
668.723	25.6
668.911	25.44
669.098	25.35
669.286	25.52
669.474	25.56
669.662	25.75
669.849	25.77
670.037	25.89
670.225	25.79
670.413	25.58
670.6	25.23
670.788	24.87
670.976	24.88
671.163	24.88
671.351	25.13
671.538	25.24
671.726	25.03
671.913	25.22
672.101	25.07
672.289	25.11
672.476	25.36
672.664	25.71
672.851	25.64
673.039	25.91
673.226	25.68
673.413	25.58
673.601	25.51
673.788	25.76
673.976	25.63
674.163	25.81
674.35	25.67
674.538	25.45
674.725	25.26
674.912	25.47
675.1	25.27
675.287	25.71
675.474	25.48
675.662	25.46
675.849	24.96
676.036	25.02
676.223	25.4
676.411	25.48
676.598	25.57
676.785	25.93
676.972	26
677.159	26.17
677.346	26.12
677.533	26.36
677.721	26.26
677.908	26.44
678.095	26.35
678.282	26.09
678.469	26.11
678.656	26.15
678.843	25.8
679.03	25.66
679.217	25.45
679.404	25.42
679.591	25.14
679.778	25.35
679.964	25.52
680.151	25.77
680.338	25.76
680.525	25.84
680.712	25.77
680.899	25.96
681.086	26.16
681.272	26.32
681.459	26.22
681.646	26.46
681.833	26.17
682.02	26.2
682.206	26.08
682.393	25.98
682.58	25.88
682.766	26.07
682.953	26.27
683.14	26.11
683.326	26.16
683.513	26.35
683.7	26.37
683.886	26.35
684.073	26.12
684.259	26.14
684.446	26.18
684.632	26.22
684.819	26.16
685.005	25.91
685.192	26.13
685.378	26.31
685.565	26.28
685.751	26.39
685.938	26.63
686.124	26.9
686.31	26.73
686.497	26.78
686.683	27.14
686.87	27.08
687.056	27.17
687.242	27.04
687.429	26.88
687.615	26.78
687.801	26.72
687.987	26.61
688.174	26.63
688.36	26.7
688.546	26.71
688.732	26.5
688.918	26.79
689.105	26.94
689.291	26.99
689.477	26.9
689.663	26.61
689.849	26.4
690.035	26.7
690.221	26.91
690.407	26.73
690.593	26.67
690.779	26.59
690.965	26.26
691.151	26.22
691.337	26.18
691.523	26.17
691.709	26.9
691.895	26.98
692.081	26.87
692.267	26.45
692.453	26.77
692.639	26.99
692.825	27.26
693.011	27.25
693.196	27.21
693.382	27.19
693.568	27.37
693.754	26.98
693.94	26.87
694.125	26.61
694.311	26.97
694.497	26.88
694.682	26.74
694.868	26.5
695.054	26.74
695.239	26.74
695.425	26.98
695.611	26.91
695.796	27.05
695.982	27.28
696.168	27.63
696.353	27.34
696.539	27.44
696.724	27.49
696.91	27.58
697.095	27.44
697.281	27.26
697.466	27.12
697.652	27.04
697.837	27.02
698.023	26.95
698.208	26.7
698.393	26.98
698.579	26.92
698.764	26.92
698.949	26.87
699.135	27.02
699.32	27.26
699.505	27.3
699.691	27.59
699.876	27.75
700.061	27.73
700.246	27.97
700.432	27.73
700.617	27.97
700.802	27.95
700.987	28.22
701.172	28.15
701.358	28.12
701.543	28.09
701.728	27.93
701.913	27.49
702.098	27.42
702.283	27.32
702.468	27.39
702.653	27.17
702.838	27.01
703.023	26.77
703.208	26.7
703.393	26.87
703.578	26.72
703.763	26.62
703.948	27.01
704.133	26.94
704.318	27.07
704.503	26.78
704.688	27.14
704.873	27.22
705.057	27.39
705.242	27.37
705.427	27.33
705.612	27.37
705.797	27.43
705.981	27.26
706.166	27.51
706.351	27.4
706.536	27.79
706.72	27.4
706.905	27.18
707.09	27.18
707.274	27.16
707.459	26.94
707.644	26.9
707.828	27.24
708.013	27.48
708.197	27.67
708.382	27.68
708.567	27.44
708.751	27.56
708.936	27.75
709.12	27.66
709.305	27.66
709.489	27.76
709.673	27.92
709.858	27.29
710.042	27.4
710.227	27.33
710.411	27.39
710.596	27.73
710.78	27.43
710.964	27.48
711.149	27.53
711.333	27.76
711.517	27.75
711.702	27.55
711.886	28.1
712.07	27.77
712.254	27.71
712.438	27.61
712.623	27.61
712.807	27.45
712.991	27.61
713.175	27.69
713.359	27.62
713.544	27.42
713.728	27.44
713.912	27.29
714.096	27.52
714.28	27.58
714.464	27.6
714.648	27.47
714.832	27.84
715.016	27.63
715.2	27.41
715.384	27.6
715.568	27.96
715.752	27.99
715.936	27.75
716.12	27.69
716.304	27.71
716.488	27.83
716.671	27.78
716.855	27.94
717.039	27.96
717.223	27.88
717.407	27.66
717.59	27.57
717.774	27.67
717.958	28.1
718.142	28.01
718.325	28.16
718.509	28.01
718.693	28
718.877	27.79
719.06	28.19
719.244	28.14
719.428	27.94
719.611	28.18
719.795	28.28
719.978	27.86
720.162	27.91
720.345	27.69
720.529	28
720.713	27.86
720.896	27.73
721.08	27.19
721.263	27.41
721.446	27.6
721.63	27.51
721.813	27.16
721.997	27.73
722.18	27.67
722.364	27.78
722.547	28.04
722.73	28.23
722.914	28.08
723.097	28.57
723.28	28.66
723.464	28.44
723.647	28.04
723.83	28.58
724.013	28.36
724.197	28.46
724.38	28.3
724.563	27.95
724.746	28.07
724.929	28.1
725.112	28.14
725.296	28.36
725.479	28.46
725.662	28.71
725.845	28.42
726.028	28.12
726.211	28.31
726.394	28.08
726.577	28.03
726.76	28.13
726.943	28.11
727.126	27.99
727.309	27.97
727.492	28.17
727.675	27.89
727.858	28.01
728.041	28.19
728.224	27.83
728.407	27.94
728.589	28.2
728.772	28.06
728.955	28.23
729.138	28.34
729.321	27.72
729.503	27.71
729.686	27.85
729.869	27.84
730.052	27.69
730.234	27.64
730.417	27.77
730.6	27.11
730.782	26.93
730.965	27.13
731.148	27.3
731.33	27.72
731.513	27.94
731.695	28.03
731.878	28.14
732.061	27.89
732.243	27.88
732.426	27.9
732.608	28.42
732.791	28.44
732.973	28.1
733.156	27.8
733.338	27.56
733.52	27.31
733.703	27.48
733.885	27.06
734.068	27.76
734.25	27.9
734.432	28.16
734.615	28.04
734.797	28.37
734.979	28.38
735.162	27.99
735.344	28.48
735.526	28.92
735.708	28.76
735.891	29.16
736.073	28.67
736.255	28.52
736.437	28.15
736.619	28.45
736.802	27.92
736.984	28.32
737.166	28.9
737.348	28.96
737.53	28.24
737.712	28.5
737.894	28.31
738.076	28.32
738.258	28.79
738.44	28.71
738.622	28.23
738.804	28.69
738.986	28.68
739.168	28.37
739.35	28.11
739.532	28.46
739.714	28.26
739.896	28.41
740.078	28.85
740.259	29.16
740.441	28.93
740.623	29.26
740.805	28.71
740.987	28.59
741.168	28.55
741.35	28.59
741.532	28.47
741.714	28.58
741.895	28.73
742.077	28.6
742.259	27.99
742.44	28.24
742.622	28.49
742.804	29.22
742.985	29.29
743.167	29.36
743.348	29.57
743.53	29.15
743.711	29.08
743.893	28.98
744.075	29.03
744.256	28.09
744.438	28.65
744.619	28.18
744.8	28.25
744.982	28.45
745.163	28.81
745.345	28.46
745.526	28.89
745.707	28.64
745.889	28.35
746.07	28.61
746.252	29.04
746.433	28.76
746.614	28.44
746.795	28.2
746.977	27.98
747.158	27.53
747.339	28.15
747.52	27.93
747.702	28.66
747.883	28.9
748.064	28.56
748.245	29.67
748.426	29.17
748.607	29.54
748.788	29.07
748.97	28.92
749.151	29.54
749.332	29.18
749.513	29.34
749.694	28.84
749.875	28.78
750.056	28.04
750.237	27.51
750.418	27.91
750.599	27.43
750.78	28.21
750.96	28.58
751.141	28.4
751.322	28.73
751.503	28.08
751.684	28.21
751.865	27.64
752.046	28.33
752.226	28.61
752.407	28.3
752.588	28.69
752.769	28.14
752.949	28.27
753.13	28.78
753.311	27.59
753.492	27.84
753.672	27.45
753.853	27.87
754.034	28.35
754.214	27.87
754.395	28.71
754.575	29.34
754.756	29.04
754.937	28.05
755.117	27.25
755.298	28.14
755.478	28.62
755.659	28.92
755.839	28.83
756.02	28.18
756.2	27.88
756.381	27.62
756.561	26.83
756.741	27.8
756.922	28.02
757.102	28.14
757.283	27.49
757.463	27.62
757.643	27.55
757.823	28.12
758.004	28.43
758.184	28.58
758.364	28.57
758.545	29.14
758.725	28.61
758.905	29.07
759.085	29.29
759.265	30.13
759.446	30.17
759.626	29.9
759.806	29.82
759.986	29.98
760.166	29.95
760.346	29.7
760.526	29.43
760.706	29.12
760.886	29.27
761.066	29.29
761.246	28.98
761.426	28.44
761.606	28.46
761.786	28.43
761.966	28.34
762.146	28.62
762.326	28.3
762.506	28.45
762.686	28.56
762.866	28.76
763.046	29.02
763.225	29.14
763.405	29.5
763.585	29.61
763.765	29.23
763.945	29.48
764.124	29.14
764.304	29.66
764.484	29.68
764.664	29.8
764.843	29.16
765.023	28.3
765.203	28.32
765.382	28.72
765.562	28.56
765.741	29.12
765.921	28.48
766.101	29.34
766.28	29
766.46	28.56
766.639	28.82
766.819	29.54
766.998	29.68
767.178	29.67
767.357	29.38
767.537	29.53
767.716	28.95
767.896	28.75
768.075	28.44
768.254	28.59
768.434	29.22
768.613	28.78
768.792	28.75
768.972	28.82
769.151	28.7
769.33	28.6
769.51	27.73
769.689	28.21
769.868	29.14
770.047	29.33
770.226	29.31
770.406	29.09
770.585	29.62
770.764	29.3
770.943	29.59
771.122	29.86
771.301	29.67
771.48	30.43
771.66	30.42
771.839	30.23
772.018	29.67
772.197	29.89
772.376	29.46
772.555	29.61
772.734	29.43
772.913	30.01
773.092	29.52
773.271	29.9
773.449	29.96
773.628	29.81
773.807	30.62
773.986	31.11
774.165	30.64
774.344	30.83
774.523	29.47
774.701	29.5
774.88	28.48
775.059	28.52
775.238	28.25
775.417	27.86
775.595	28.16
775.774	27.62
775.953	27.42
776.131	27.11
776.31	27.8
776.489	28.05
776.667	28.12
776.846	28.77
777.025	28.95
777.203	28.76
777.382	28.92
777.56	28.96
777.739	27.45
777.917	27.12
778.096	27.69
778.274	26.41
778.453	27.28
778.631	27.75
778.81	27.23
778.988	27.68
779.166	26.66
779.345	25.97
779.523	25.45
779.702	26.14
779.88	26.75
780.058	26.66
780.237	27.27
780.415	27.27
780.593	26.6
780.771	27.28
780.95	26.77
781.128	28.44
781.306	29.74
781.484	29.63
781.662	29.76
781.841	29.18
782.019	29.73
782.197	29.95
782.375	29.91
782.553	30.25
782.731	29.77
782.909	30.21
783.087	29.67
783.265	29.84
783.443	30.78
783.621	31.02
783.799	31.21
783.977	30.97
784.155	30.96
784.333	31.37
784.511	31.27
784.689	31.14
784.867	29.24
785.045	28.66
785.223	28.1
785.4	27.86
785.578	26.73
785.756	27.67
785.934	27.99
786.112	28.21
786.289	27.41
786.467	27.48
786.645	28.39
786.823	29.53
787	29.73
787.178	30.1
787.356	29.91
787.533	30.27
787.711	28.95
787.889	27.56
788.066	27.83
788.244	28.14
788.421	27.1
788.599	26.06
788.776	25.53
788.954	25.59
789.131	25.93
789.309	25.77
789.486	27.3
789.664	28.33
789.841	29.45
790.019	28.59
790.196	28.17
790.373	29.46
790.551	29.48
790.728	30.27
790.906	30.24
791.083	29.89
791.26	29.82
791.437	28.95
791.615	28.6
791.792	28.05
791.969	28.05
792.146	28.16
792.324	27.61
792.501	28.19
792.678	27.52
792.855	28.56
793.032	28.95
793.209	28.11
793.387	28.3
793.564	27.66
793.741	27.56
793.918	28.59
794.095	29.83
794.272	30.81
794.449	31.09
794.626	31.15
794.803	30.32
794.98	30.03
795.157	30.94
795.334	30.24
795.511	30.82
795.688	30.23
795.864	29.84
796.041	28.87
796.218	27.91
796.395	27.84
796.572	28.96
796.749	29.6
796.925	30.28
797.102	30.27
797.279	30.48
797.456	30.41
797.632	32.36
797.809	32.78
797.986	32.61
798.162	33.47
798.339	33.39
798.516	31.91
798.692	32.15
798.869	31.65
799.046	31.77
799.222	31.75
799.399	31.5
799.575	31.5
799.752	30.94
799.928	32.67
800.105	32.77
800.281	32.16
800.458	32.89
800.634	32.86
800.811	32.41
800.987	32.8
801.163	33.33
801.34	33.97
801.516	32.05
801.692	32.95
801.869	31.6
802.045	31.04
802.221	31.31
802.398	30.79
802.574	30.69
802.75	31.71
802.926	31.73
803.103	31.64
803.279	30.6
803.455	31.51
803.631	30.24
803.807	29.56
803.983	28.95
804.16	29.37
804.336	30.43
804.512	29.7
804.688	28.32
804.864	27.65
805.04	26.87
805.216	27.3
805.392	27.74
805.568	27.95
805.744	27.44
805.92	27.35
806.096	26.45
806.272	26.19
806.448	26.72
806.623	26.84
806.799	26.96
806.975	27.21
807.151	27.41
807.327	26.44
807.503	26.88
807.678	28.59
807.854	28.8
808.03	29.28
808.206	29.29
808.381	29.57
808.557	30.56
808.733	29.96
808.908	30.04
809.084	29.72
809.26	30.03
809.435	30.14
809.611	29.67
809.787	30.61
809.962	30.98
810.138	31.34
810.313	31.1
810.489	30.76
810.664	30.88
810.84	30.74
811.015	30.33
811.191	30.43
811.366	30.88
811.542	30.53
811.717	29.67
811.892	29.84
812.068	30.24
812.243	28.76
812.419	29.19
812.594	29.33
812.769	28.87
812.944	29.69
813.12	29.62
813.295	29.27
813.47	28.85
813.645	28.87
813.821	28.07
813.996	27.64
814.171	28.1
814.346	26.98
814.521	27.36
814.697	28.48
814.872	28.59
815.047	29.39
815.222	28.07
815.397	28.97
815.572	28.58
815.747	29.35
815.922	29.51
816.097	30.5
816.272	29.88
816.447	29.82
816.622	28.95
816.797	28.96
816.972	28.19
817.147	30.01
817.322	28.92
817.496	29.34
817.671	29.2
817.846	28.33
818.021	27.96
818.196	28.91
818.371	29.43
818.545	30.03
818.72	29.11
818.895	29.86
819.069	29.14
819.244	29.34
819.419	30.58
819.594	29.73
819.768	30.16
819.943	30.2
820.117	29.91
820.292	29.51
820.467	29.2
820.641	30.28
820.816	29.43
820.99	29.15
821.165	29.43
821.339	29.26
821.514	29.45
821.688	29.26
821.863	29.11
822.037	29.04
822.212	29.15
822.386	29.47
822.56	29.06
822.735	29.21
822.909	29.3
823.084	29.19
823.258	28.86
823.432	28.8
823.606	28.82
823.781	28.76
823.955	29.09
824.129	29.04
824.303	28.54
824.478	28.27
824.652	28.89
824.826	28.86
825	28.64
825.174	28.63
825.348	28.57
825.523	28.6
825.697	28.95
825.871	28.17
826.045	28.32
826.219	28.63
826.393	28.95
826.567	28.51
826.741	28.42
826.915	28.65
827.089	28.88
827.263	28.88
827.437	29
827.611	29.07
827.784	29.75
827.958	29.7
828.132	29.69
828.306	29.89
828.48	29.75
828.654	29.96
828.827	29.76
829.001	29.57
829.175	29.58
829.349	28.54
829.522	28.23
829.696	27.67
829.87	26.71
830.044	26.34
830.217	25.92
830.391	27.03
830.565	27.27
830.738	27.58
830.912	27.58
831.085	27.5
831.259	28.79
831.432	28.52
831.606	28.59
831.779	29
831.953	29.02
832.126	28.23
832.3	28.04
832.473	27.66
832.647	28.2
832.82	28.95
832.994	29.47
833.167	29.67
833.34	29.42
833.514	29.56
833.687	30.46
833.86	30.72
834.034	31.44
834.207	31.57
834.38	31.83
834.553	31.56
834.727	31.73
834.9	31.33
835.073	30.44
835.246	30.86
835.419	31.13
835.593	30.52
835.766	30.4
835.939	30.28
836.112	29.71
836.285	29.29
836.458	29.3
836.631	29.1
836.804	30.06
836.977	31.26
837.15	31.58
837.323	31.31
837.496	31.58
837.669	31.95
837.842	31.66
838.015	32.47
838.188	32.53
838.361	33.22
838.533	34.44
838.706	33.97
838.879	34.36
839.052	34.56
839.225	34.37
839.398	33.11
839.57	33.12
839.743	33.41
839.916	31.48
840.088	31.04
840.261	30.14
840.434	28.54
840.607	28.1
840.779	28.3
840.952	28.02
841.124	27.64
841.297	30.26
841.47	28.94
841.642	29.08
841.815	29.21
841.987	30.87
842.16	31.83
842.332	31.07
842.505	33.95
842.677	34.29
842.85	34.12
843.022	34.64
843.194	33.49
843.367	34.95
843.539	35.63
843.712	35.82
843.884	34.54
844.056	33.66
844.229	35.92
844.401	34.89
844.573	33.65
844.745	32.21
844.918	32.82
845.09	29.66
845.262	28.6
845.434	26.9
845.606	27.03
845.779	27.32
845.951	27.59
846.123	28.27
846.295	24.6
846.467	26.45
846.639	26.47
846.811	26.36
846.983	29.23
847.155	28.81
847.327	29.69
847.499	33.21
847.671	31.68
847.843	31.29
848.015	28.22
848.187	28.4
848.359	26.89
848.531	26.67
848.703	27.04
848.875	26.08
849.047	26.02
849.218	25.87
849.39	24.18
849.562	25.98
849.734	26.86
849.905	28.3
850.077	28.07
850.249	26.17
850.421	25.92
850.592	25.67
850.764	25.97
850.936	25.64
851.107	25.06
851.279	24.52
851.451	21.74
851.622	20.3
851.794	20.74
851.965	22.74
852.137	26.98
852.308	27.96
852.48	28.32
852.651	27.44
852.823	28.33
852.994	28.18
853.166	26.93
853.337	26.17
853.509	27.7
853.68	24.86
853.851	24.21
854.023	23.63
854.194	25.78
854.365	25.49
854.537	27.22
854.708	28.17
854.879	30.32
855.05	30.28
855.222	34.32
855.393	34.97
855.564	35.3
855.735	33.74
855.906	29.47
856.078	31.39
856.249	31.32
856.42	31.58
856.591	31.09
856.762	29.45
856.933	32.77
857.104	31.13
857.275	30.39
857.446	31.08
857.617	30.72
857.788	31.12
857.959	29.95
858.13	27.01
858.301	27.04
858.472	27.63
858.643	28.85
858.814	27.75
858.985	29.89
859.155	31.34
859.326	31.83
859.497	33.45
859.668	35.18
859.839	34.16
860.009	39.56
860.18	36.33
860.351	36.25
860.522	35.46
860.692	35.74
860.863	34.27
861.034	34.21
861.204	35.99
861.375	38.91
861.546	38.1
861.716	37.36
861.887	36.93
862.057	35.9
862.228	33.4
862.398	34.87
862.569	32.7
862.739	32.86
862.91	31.07
863.08	28.57
863.251	29.9
863.421	32.29
863.592	30.11
863.762	29.12
863.932	32.88
864.103	35.15
864.273	34.1
864.443	33.62
864.614	33.82
864.784	31.69
864.954	30.95
865.125	30.08
865.295	28.66
865.465	30.11
865.635	30.84
865.805	29.51
865.976	30.53
866.146	27.67
866.316	29.3
866.486	30.39
866.656	33.33
866.826	34.22
866.996	32.2
867.166	34.16
867.336	35.51
867.506	33.9
867.676	32.17
867.846	33.19
868.016	33.27
868.186	35.27
868.356	35.72
868.526	32.72
868.696	32.2
868.866	29.73
869.036	25.13
869.206	24.55
869.376	26.62
869.545	27.03
869.715	26.07
869.885	28.61
870.055	27.38
870.224	29.8
870.394	27.48
870.564	29.48
870.734	34.12
870.903	37.04
871.073	38.23
871.243	36.72
871.412	38.07
871.582	36.41
871.751	35.58
871.921	34.72
872.091	33.54
872.26	36.98
872.43	35.12
872.599	30.84
872.769	29.86
872.938	27.13
873.108	27.24
873.277	28.45
873.446	30.34
873.616	29.77
873.785	30.78
873.955	28.26
874.124	31.18
874.293	32.88
874.463	36.11
874.632	36.33
874.801	34.27
874.971	32.16
875.14	31.04
875.309	32.86
875.478	34.99
875.647	32.98
875.817	32.25
875.986	31.07
876.155	32.09
876.324	31.25
876.493	34.37
876.662	37.37
876.831	39.57
877	36.96
877.17	35.67
877.339	32.94
877.508	34.12
877.677	36.51
877.846	36.35
878.015	34.72
878.184	35.28
878.352	30.56
878.521	31.47
878.69	31.23
878.859	32.85
879.028	31.68
879.197	33.56
879.366	34.36
879.534	33.22
879.703	30.54
879.872	30.37
880.041	30.56
880.21	29.18
880.378	29.04
880.547	28.5
880.716	29.68
880.884	30.11
881.053	29.05
881.222	27.82
881.39	28.22
881.559	29.18
881.727	30.29
881.896	28.86
882.065	30.02
882.233	30.33
882.402	30.22
882.57	29.44
882.739	29.21
882.907	29.77
883.076	30.23
883.244	30.43
883.412	30.05
883.581	28.61
883.749	29.1
883.918	28.84
884.086	28.07
884.254	28.93
884.423	28.97
884.591	29.48
884.759	28.62
884.927	27.36
885.096	25.6
885.264	25.42
885.432	25.2
885.6	25.07
885.769	24.3
885.937	24.57
886.105	24.85
886.273	24.17
886.441	20.94
886.609	21.65
886.777	23.01
886.945	25.49
887.113	23.13
887.281	23.59
887.449	24.84
887.617	27.86
887.785	29.96
887.953	24.46
888.121	25.94
888.289	32.47
888.457	33.55
888.625	34.89
888.793	35.44
888.961	40.11
889.129	40.91
889.296	41.42
889.464	39.84
889.632	38.12
889.8	43.9
889.967	44.56
890.135	40.82
