Data from 2938452_Reflection_3.txt Node
Date: Fri Jun 19 17:56:06 EDT 2015
User: robert
Spectrometer: USB4E03002
Autoset integration time: false
Trigger mode: 4
Integration Time (sec): 1.000000E-1
Scans to average: 10
Electric dark correction enabled: true
Nonlinearity correction enabled: false
Boxcar width: 5
Stray light correction enabled: false
XAxis mode: Wavelengths
Stop averaging: false
Number of Pixels in Spectrum: 3648
>>>>>Begin Spectral Data<<<<<
177.575	-316.47
177.794	-37.92
178.014	-109.58
178.233	-57.4
178.452	-8.89
178.672	-129.16
178.891	66.41
179.11	-225.48
179.33	-179.42
179.549	-131.77
179.768	-43.53
179.987	-91
180.207	-42.36
180.426	-144.77
180.645	-68.1
180.864	-185.57
181.084	609.09
181.303	319.49
181.522	190.69
181.741	229.16
181.96	148.47
182.179	136.09
182.398	86.86
182.618	108.94
182.837	113.14
183.056	136.97
183.275	113.73
183.494	85.84
183.713	70.76
183.932	63.84
184.151	64.78
184.37	78.14
184.589	116.12
184.808	182.25
185.027	112.09
185.246	154.16
185.465	188.77
185.684	157200
185.903	11.61
186.122	1.53
186.341	-0.64
186.56	16.11
186.779	40.33
186.998	32.49
187.216	77.46
187.435	63.15
187.654	72.04
187.873	92.74
188.092	38.64
188.311	41.58
188.53	104.62
188.748	110.92
188.967	116.86
189.186	43.59
189.405	59.84
189.623	-3360.32
189.842	-450.08
190.061	9.29
190.28	-68.42
190.498	41.49
190.717	181.1
190.936	219.38
191.154	158.24
191.373	129.65
191.592	151.42
191.81	330.54
192.029	547.07
192.248	96.65
192.466	125.33
192.685	143.9
192.904	103.04
193.122	103.46
193.341	-135.57
193.559	1091.67
193.778	-2801.42
193.996	-378.25
194.215	342.72
194.433	146.93
194.652	-363.87
194.87	-38.97
195.089	-39.56
195.307	-45.75
195.526	-390.9
195.744	241.4
195.963	181900
196.181	614.37
196.399	208.53
196.618	164.83
196.836	187.37
197.055	175.79
197.273	144.17
197.491	150.31
197.71	127.11
197.928	125.05
198.146	114.07
198.365	61.84
198.583	28.19
198.801	52.59
199.019	36.33
199.238	8.26
199.456	29.14
199.674	-23.79
199.892	-291.47
200.111	16.5
200.329	-2.07
200.547	10.92
200.765	28.13
200.983	24.81
201.202	40.88
201.42	62.56
201.638	49.6
201.856	68.44
202.074	68.9
202.292	95.05
202.51	59.44
202.728	88.72
202.946	-90.36
203.165	-2067.11
203.383	423.15
203.601	192.94
203.819	380.33
204.037	-25.16
204.255	91.81
204.473	25.3
204.691	25.12
204.909	68.48
205.127	31.78
205.345	97.49
205.562	98.58
205.78	107.88
205.998	151.12
206.216	316.65
206.434	438.02
206.652	-146.72
206.87	3.47
207.088	369.92
207.306	95.28
207.523	68.11
207.741	71.43
207.959	79.72
208.177	67.61
208.395	51.86
208.612	72.79
208.83	65.7
209.048	89.68
209.266	69.4
209.483	38.98
209.701	33.47
209.919	24.09
210.136	24.97
210.354	-4.56
210.572	40.49
210.79	64.41
211.007	54.47
211.225	65.08
211.442	21.65
211.66	35.31
211.878	27.58
212.095	-43.03
212.313	-37.1
212.53	-54.69
212.748	-47.48
212.966	-65.31
213.183	-44.1
213.401	-62.82
213.618	-101
213.836	-107.96
214.053	-137.89
214.271	-384.2
214.488	-112.82
214.705	-100
214.923	-81.38
215.14	-91.15
215.358	-83.51
215.575	-172.97
215.793	-88.05
216.01	31.44
216.227	70.2
216.445	65.83
216.662	71.23
216.879	65.79
217.097	63.84
217.314	72.15
217.531	84.5
217.749	70.32
217.966	57.16
218.183	60.79
218.4	54.13
218.618	40.76
218.835	40.43
219.052	56.27
219.269	58.89
219.487	43.73
219.704	32.5
219.921	6.72
220.138	-3.45
220.355	4.21
220.572	-8.48
220.79	-11.98
221.007	-15.4
221.224	-5.95
221.441	-11.75
221.658	-27.25
221.875	-28.4
222.092	-35.19
222.309	-14.58
222.526	-6.48
222.743	-9.16
222.96	4.92
223.177	4.01
223.394	7.5
223.611	5.09
223.828	12.47
224.045	17.9
224.262	21.06
224.479	24.6
224.696	27.19
224.913	28.64
225.13	25.73
225.347	26.33
225.564	26.15
225.781	23.26
225.997	20.93
226.214	18.75
226.431	17.32
226.648	13.69
226.865	13.58
227.082	12.27
227.298	10.29
227.515	12.09
227.732	10.77
227.949	10.67
228.165	13.07
228.382	12.51
228.599	11.79
228.816	10.72
229.032	12.27
229.249	13.22
229.466	12.61
229.682	15.24
229.899	12.4
230.116	12.53
230.332	11.44
230.549	10.26
230.765	12.39
230.982	12.93
231.199	16.66
231.415	19.33
231.632	17.44
231.848	18.79
232.065	16.19
232.281	16.9
232.498	16.62
232.714	18.75
232.931	17.33
233.147	14.06
233.364	16.83
233.58	12.32
233.797	13.55
234.013	13.39
234.23	12.13
234.446	12.38
234.662	12.35
234.879	11.36
235.095	8.51
235.312	10.5
235.528	14
235.744	9.74
235.961	11.35
236.177	6.44
236.393	7.11
236.61	8.85
236.826	10.6
237.042	8.63
237.258	8.49
237.475	9.43
237.691	7.69
237.907	9.29
238.123	10.44
238.339	10.99
238.556	11.52
238.772	11.22
238.988	11.15
239.204	10.26
239.42	12.28
239.636	12.6
239.853	12.46
240.069	12.32
240.285	11.26
240.501	11.01
240.717	11.51
240.933	11.97
241.149	11.82
241.365	12.15
241.581	12.38
241.797	12.32
242.013	11.93
242.229	12.11
242.445	12.77
242.661	11.67
242.877	11.85
243.093	11.07
243.309	11.12
243.525	10.89
243.741	10.5
243.957	9.97
244.173	9.57
244.388	9.49
244.604	9.87
244.82	9.05
245.036	9.71
245.252	9.48
245.468	9.1
245.683	8.68
245.899	8.72
246.115	8.35
246.331	8.27
246.547	8.03
246.762	8
246.978	7.48
247.194	7.36
247.409	6.58
247.625	6.6
247.841	6.86
248.057	6.89
248.272	6.32
248.488	5.63
248.703	4.63
248.919	4.5
249.135	3.88
249.35	3.87
249.566	3.41
249.782	3.84
249.997	3.9
250.213	4.06
250.428	3.57
250.644	4.25
250.859	5.44
251.075	6.23
251.29	6.58
251.506	6.38
251.721	7.06
251.937	8.22
252.152	8.23
252.368	6.64
252.583	6.9
252.798	7.62
253.014	8.33
253.229	7.73
253.445	7.85
253.66	7.44
253.875	8.22
254.091	6.29
254.306	6.34
254.521	6.76
254.737	8.01
254.952	6.86
255.167	6.6
255.383	5.5
255.598	5.75
255.813	6.22
256.028	6.34
256.244	6.77
256.459	7.39
256.674	6.82
256.889	6.4
257.104	6.25
257.32	6.33
257.535	6.37
257.75	6.17
257.965	5.84
258.18	5.49
258.395	5.41
258.61	5.32
258.826	5.11
259.041	4.95
259.256	5.36
259.471	5.47
259.686	5.57
259.901	5.61
260.116	5.47
260.331	5.85
260.546	6.25
260.761	6.21
260.976	5.94
261.191	6.31
261.406	7.45
261.621	6.62
261.836	5.96
262.05	5.95
262.265	5.57
262.48	6.02
262.695	6.3
262.91	6.86
263.125	6.4
263.34	7.01
263.555	6.1
263.769	5.18
263.984	6.69
264.199	7.32
264.414	7.69
264.629	7.69
264.843	7.89
265.058	7.65
265.273	6.61
265.488	7.32
265.702	6.99
265.917	7.7
266.132	7.78
266.346	7.05
266.561	7.27
266.776	6.69
266.99	6.6
267.205	6.38
267.42	6.38
267.634	6.53
267.849	6.5
268.063	6.77
268.278	6.46
268.492	6.17
268.707	6.29
268.922	6.14
269.136	6.29
269.351	5.95
269.565	6.03
269.78	5.61
269.994	5.22
270.209	5.12
270.423	4.74
270.637	4.93
270.852	4.91
271.066	4.94
271.281	5.02
271.495	5.16
271.709	5.06
271.924	5.06
272.138	5.51
272.353	5.89
272.567	5.65
272.781	6.35
272.996	6.39
273.21	6.51
273.424	6.36
273.638	6
273.853	5.84
274.067	5.57
274.281	5.98
274.495	5.13
274.71	5.11
274.924	4.97
275.138	4.79
275.352	4.61
275.566	5.15
275.781	5.06
275.995	5.73
276.209	6.18
276.423	6.73
276.637	6.01
276.851	6.12
277.065	6.71
277.279	7.01
277.493	7.09
277.707	7.23
277.921	6.85
278.135	6.65
278.349	5.68
278.563	5.74
278.777	5.9
278.991	6.05
279.205	5.98
279.419	5.33
279.633	5.91
279.847	6.08
280.061	5.77
280.275	5.52
280.489	6.09
280.703	6.88
280.917	6.19
281.131	6.02
281.344	5.75
281.558	5.32
281.772	5.71
281.986	5.5
282.2	5.3
282.414	4.9
282.627	5.16
282.841	4.87
283.055	4.86
283.269	5.48
283.482	5.7
283.696	5.65
283.91	6.35
284.123	5.99
284.337	5.6
284.551	5.52
284.764	5.9
284.978	5.86
285.192	5.86
285.405	5.78
285.619	5.35
285.833	5.66
286.046	5.88
286.26	6.11
286.473	6.09
286.687	6.34
286.9	6.1
287.114	6.24
287.327	7.15
287.541	6.34
287.754	5.88
287.968	5.8
288.181	5.84
288.395	5.68
288.608	5.32
288.822	5.41
289.035	5.46
289.248	5.46
289.462	5.94
289.675	5.19
289.889	5.98
290.102	6.28
290.315	6.56
290.529	5.89
290.742	5.93
290.955	5.95
291.169	6.22
291.382	6.47
291.595	6.69
291.808	6.57
292.022	6.66
292.235	6.81
292.448	6.23
292.661	6.4
292.875	6.56
293.088	6.8
293.301	7.21
293.514	6.8
293.727	6.56
293.94	6.54
294.153	6.24
294.367	6.13
294.58	6.22
294.793	6.3
295.006	5.99
295.219	6.05
295.432	6.25
295.645	5.9
295.858	6.26
296.071	6.33
296.284	6.43
296.497	6.71
296.71	6.73
296.923	6.61
297.136	7.15
297.349	6.98
297.562	7.22
297.775	7.15
297.988	7.64
298.201	7.74
298.414	7.29
298.626	7.56
298.839	7.18
299.052	7.1
299.265	7.03
299.478	6.55
299.691	6.85
299.903	6.77
300.116	6.5
300.329	5.93
300.542	5.54
300.755	6.2
300.967	6.08
301.18	6.62
301.393	6.55
301.605	6.52
301.818	6.95
302.031	7
302.243	6.88
302.456	6.99
302.669	6.92
302.881	7.8
303.094	7.69
303.307	8.02
303.519	7.4
303.732	7.76
303.944	7.7
304.157	8.11
304.37	8.03
304.582	8.16
304.795	8.67
305.007	9.02
305.22	8.36
305.432	7.82
305.645	7.09
305.857	7.39
306.069	7.85
306.282	8.08
306.494	7.58
306.707	7.5
306.919	7.94
307.132	7.06
307.344	6.86
307.556	7.21
307.769	8
307.981	7.97
308.193	7.87
308.406	7.24
308.618	6.79
308.83	6.47
309.043	6.63
309.255	6.44
309.467	6.69
309.679	7.11
309.892	6.41
310.104	5.72
310.316	5.92
310.528	5.82
310.74	5.79
310.953	6.01
311.165	6.62
311.377	6.59
311.589	6.68
311.801	7.41
312.013	7.14
312.225	7.45
312.437	8.29
312.649	8.04
312.862	7.82
313.074	7.75
313.286	8.11
313.498	7.98
313.71	8.43
313.922	7.9
314.134	7.5
314.346	6.57
314.558	6.94
314.77	6.43
314.982	6.24
315.193	6.62
315.405	6.54
315.617	6.11
315.829	6.15
316.041	6.15
316.253	6.67
316.465	6.32
316.677	7.44
316.888	7.75
317.1	7.74
317.312	7.92
317.524	7
317.736	7.32
317.947	8.19
318.159	7.76
318.371	7.83
318.583	7.04
318.794	6.85
319.006	6.17
319.218	5.35
319.43	5.51
319.641	5.62
319.853	6.63
320.064	6.72
320.276	7.01
320.488	6.87
320.699	6.01
320.911	6.36
321.123	6.21
321.334	6.95
321.546	7.47
321.757	7.56
321.969	8.07
322.18	8.14
322.392	8.14
322.603	6.93
322.815	7.35
323.026	7.65
323.238	7.44
323.449	7.26
323.661	7.04
323.872	5.68
324.083	5.06
324.295	4.68
324.506	4.58
324.718	4.53
324.929	4.57
325.14	4.48
325.352	4.77
325.563	4.69
325.774	5.61
325.986	5.54
326.197	6.85
326.408	7.65
326.62	8.06
326.831	8.06
327.042	6.98
327.253	7.42
327.464	7.83
327.676	7.24
327.887	6.9
328.098	6.21
328.309	6
328.52	5.76
328.732	4.74
328.943	4.66
329.154	4.35
329.365	5.54
329.576	5.75
329.787	5.35
329.998	5.65
330.209	6.51
330.42	7
330.631	7.08
330.842	7.19
331.053	6.93
331.264	6.51
331.475	6.48
331.686	6.15
331.897	6.08
332.108	5.82
332.319	5.85
332.53	5.73
332.741	5.64
332.952	6.28
333.163	6.68
333.374	7.48
333.585	7.12
333.795	7.49
334.006	7.57
334.217	7.27
334.428	7.27
334.639	7.77
334.849	7.84
335.06	8.17
335.271	7.42
335.482	6.34
335.692	6.23
335.903	6.2
336.114	5.76
336.325	5.79
336.535	5.82
336.746	6.25
336.957	6.06
337.167	6.64
337.378	5.97
337.589	6.03
337.799	6.26
338.01	6.58
338.22	7.3
338.431	7.5
338.642	8.06
338.852	8.17
339.063	7.51
339.273	7.25
339.484	6.42
339.694	6.87
339.905	7.27
340.115	7.23
340.326	6.76
340.536	6.47
340.746	6.47
340.957	5.97
341.167	5.72
341.378	5.96
341.588	5.67
341.799	5.54
342.009	5.05
342.219	4.38
342.43	4.85
342.64	5.15
342.85	4.72
343.061	4.47
343.271	4.08
343.481	4.27
343.691	4.29
343.902	4.51
344.112	5.01
344.322	5.22
344.532	6.07
344.743	5.96
344.953	5.76
345.163	5.66
345.373	5.84
345.583	5.97
345.793	5.67
346.004	5.91
346.214	6.25
346.424	6.22
346.634	6.04
346.844	5.54
347.054	5.16
347.264	5.77
347.474	6.12
347.684	5.85
347.894	5.9
348.104	6.61
348.314	6.54
348.524	5.79
348.734	5.56
348.944	5.57
349.154	5.34
349.364	5.56
349.574	4.49
349.784	4.62
349.994	4.91
350.204	5.1
350.413	4.57
350.623	4.29
350.833	3.99
351.043	3.97
351.253	3.7
351.463	4.04
351.672	4.01
351.882	4.23
352.092	4.15
352.302	4.97
352.511	5.22
352.721	4.93
352.931	4.84
353.141	5.29
353.35	5.41
353.56	5.67
353.77	5.58
353.979	5.33
354.189	5.45
354.399	5.31
354.608	5
354.818	4.63
355.027	5.13
355.237	5.22
355.447	5.35
355.656	5.12
355.866	5.11
356.075	5.28
356.285	5.53
356.494	5.87
356.704	5.72
356.913	5.33
357.123	4.72
357.332	4.28
357.542	4.59
357.751	4.44
357.96	4.83
358.17	4.67
358.379	4.37
358.589	4.58
358.798	4.04
359.007	4.17
359.217	4.29
359.426	4.74
359.635	5.05
359.845	4.89
360.054	5.05
360.263	4.79
360.472	4.91
360.682	4.91
360.891	4.58
361.1	4.64
361.309	4.94
361.519	4.8
361.728	4.89
361.937	4.67
362.146	4.33
362.355	4.11
362.564	4.08
362.774	4.18
362.983	4.27
363.192	4.38
363.401	4.58
363.61	4.42
363.819	4.51
364.028	4.53
364.237	4.19
364.446	4.18
364.655	4.13
364.864	4.27
365.073	4.27
365.282	3.73
365.491	3.62
365.7	3.9
365.909	3.87
366.118	3.82
366.327	4.18
366.536	4.76
366.745	4.62
366.954	4.61
367.162	4.51
367.371	4.5
367.58	5.06
367.789	4.94
367.998	4.62
368.207	4.25
368.415	4.22
368.624	3.78
368.833	3.35
369.042	3.8
369.25	4.21
369.459	4.03
369.668	3.87
369.877	3.98
370.085	4.49
370.294	4.45
370.503	4.44
370.711	4.29
370.92	4.39
371.129	4.74
371.337	4.41
371.546	3.89
371.754	4.06
371.963	3.8
372.171	3.28
372.38	2.82
372.589	3.04
372.797	3.15
373.006	3.74
373.214	3.68
373.423	3.37
373.631	3.55
373.84	3.63
374.048	3.3
374.256	3.53
374.465	3.81
374.673	3.68
374.882	3.35
375.09	3.24
375.298	2.81
375.507	3
375.715	3.21
375.923	3.18
376.132	3.01
376.34	2.94
376.548	2.73
376.757	2.62
376.965	2.7
377.173	3
377.381	3.35
377.59	3.41
377.798	3.07
378.006	2.84
378.214	3.21
378.423	3.41
378.631	3.45
378.839	3.61
379.047	3.9
379.255	3.93
379.463	3.81
379.671	3.61
379.879	3.48
380.088	3.61
380.296	3.53
380.504	3.56
380.712	3.74
380.92	3.89
381.128	3.66
381.336	3.14
381.544	2.86
381.752	2.75
381.96	2.65
382.168	2.67
382.376	2.55
382.584	2.55
382.791	2.46
382.999	2.61
383.207	2.47
383.415	2.66
383.623	2.75
383.831	3.01
384.039	3.02
384.247	3.05
384.454	2.88
384.662	2.84
384.87	2.87
385.078	2.48
385.285	2.2
385.493	2.4
385.701	2.53
385.909	2.74
386.116	2.81
386.324	2.7
386.532	2.67
386.739	2.87
386.947	2.85
387.155	3.11
387.362	3.39
387.57	3.69
387.778	3.6
387.985	3.39
388.193	3.24
388.4	3.12
388.608	3.1
388.816	3.07
389.023	2.95
389.231	2.91
389.438	2.53
389.646	2.62
389.853	2.39
390.061	2.25
390.268	2.31
390.475	2.42
390.683	2.53
390.89	2.64
391.098	2.84
391.305	2.87
391.512	2.81
391.72	3.02
391.927	2.69
392.135	2.61
392.342	2.86
392.549	2.84
392.756	2.86
392.964	2.66
393.171	2.74
393.378	2.6
393.586	2.72
393.793	2.86
394	2.79
394.207	2.9
394.414	3.16
394.622	3.09
394.829	2.96
395.036	2.87
395.243	2.84
395.45	2.6
395.657	2.56
395.864	2.51
396.072	2.52
396.279	2.31
396.486	2.28
396.693	2.07
396.9	1.95
397.107	1.98
397.314	1.89
397.521	2
397.728	2.09
397.935	2.1
398.142	1.97
398.349	2.01
398.556	2.12
398.763	2.03
398.97	1.97
399.177	2.13
399.383	2.18
399.59	2.31
399.797	2.29
400.004	2.16
400.211	2.13
400.418	2.09
400.625	1.94
400.831	1.99
401.038	2.11
401.245	2.19
401.452	1.94
401.658	2.06
401.865	2.03
402.072	2.05
402.279	2.18
402.485	1.99
402.692	1.9
402.899	1.92
403.105	1.96
403.312	1.95
403.519	1.97
403.725	2.01
403.932	1.9
404.138	1.79
404.345	1.64
404.552	1.53
404.758	1.79
404.965	1.9
405.171	1.79
405.378	1.79
405.584	1.69
405.791	1.64
405.997	1.64
406.204	1.61
406.41	1.67
406.617	1.81
406.823	1.84
407.029	1.64
407.236	1.76
407.442	1.9
407.649	1.89
407.855	2
408.061	1.97
408.268	1.94
408.474	1.97
408.68	2
408.887	1.93
409.093	1.95
409.299	2.04
409.505	2.13
409.712	2.03
409.918	1.93
410.124	1.93
410.33	1.89
410.537	1.89
410.743	1.9
410.949	2.1
411.155	2.13
411.361	2.06
411.567	2.12
411.773	1.97
411.98	2
412.186	2.1
412.392	1.99
412.598	1.91
412.804	2.05
413.01	1.95
413.216	1.73
413.422	1.71
413.628	1.74
413.834	1.71
414.04	1.72
414.246	1.71
414.452	1.66
414.658	1.59
414.864	1.62
415.07	1.64
415.275	1.72
415.481	1.78
415.687	1.72
415.893	1.72
416.099	1.6
416.305	1.64
416.511	1.64
416.716	1.6
416.922	1.68
417.128	1.72
417.334	1.67
417.539	1.63
417.745	1.51
417.951	1.61
418.157	1.56
418.362	1.64
418.568	1.53
418.774	1.5
418.979	1.52
419.185	1.56
419.391	1.61
419.596	1.62
419.802	1.61
420.008	1.71
420.213	1.79
420.419	1.88
420.624	1.93
420.83	1.89
421.035	1.95
421.241	1.9
421.446	1.89
421.652	1.84
421.857	1.81
422.063	1.81
422.268	1.78
422.474	1.65
422.679	1.59
422.885	1.55
423.09	1.61
423.295	1.56
423.501	1.59
423.706	1.5
423.911	1.46
424.117	1.43
424.322	1.42
424.527	1.39
424.733	1.36
424.938	1.34
425.143	1.24
425.349	1.23
425.554	1.24
425.759	1.33
425.964	1.38
426.169	1.4
426.375	1.42
426.58	1.47
426.785	1.57
426.99	1.67
427.195	1.71
427.4	1.81
427.605	1.79
427.811	1.81
428.016	1.63
428.221	1.66
428.426	1.71
428.631	1.7
428.836	1.55
429.041	1.4
429.246	1.25
429.451	1.26
429.656	1.21
429.861	1.24
430.066	1.24
430.271	1.41
430.476	1.45
430.681	1.4
430.886	1.44
431.09	1.56
431.295	1.59
431.5	1.76
431.705	1.73
431.91	1.78
432.115	1.75
432.32	1.81
432.524	1.73
432.729	1.7
432.934	1.7
433.139	1.64
433.343	1.58
433.548	1.6
433.753	1.57
433.958	1.61
434.162	1.59
434.367	1.6
434.572	1.5
434.776	1.46
434.981	1.4
435.186	1.32
435.39	1.37
435.595	1.44
435.799	1.43
436.004	1.53
436.209	1.46
436.413	1.44
436.618	1.29
436.822	1.29
437.027	1.27
437.231	1.24
437.436	1.3
437.64	1.3
437.845	1.25
438.049	1.25
438.253	1.06
438.458	1.15
438.662	1.15
438.867	1.31
439.071	1.33
439.275	1.3
439.48	1.31
439.684	1.35
439.888	1.32
440.093	1.35
440.297	1.35
440.501	1.41
440.706	1.35
440.91	1.31
441.114	1.17
441.318	1.22
441.523	1.22
441.727	1.24
441.931	1.13
442.135	1.24
442.339	1.28
442.543	1.42
442.748	1.38
442.952	1.43
443.156	1.54
443.36	1.54
443.564	1.5
443.768	1.59
443.972	1.63
444.176	1.75
444.38	1.68
444.584	1.55
444.788	1.39
444.992	1.39
445.196	1.35
445.4	1.23
445.604	1.27
445.808	1.34
446.012	1.25
446.216	1.19
446.42	1.08
446.624	1.11
446.828	1.27
447.032	1.37
447.235	1.37
447.439	1.42
447.643	1.47
447.847	1.48
448.051	1.36
448.254	1.47
448.458	1.45
448.662	1.46
448.866	1.43
449.069	1.32
449.273	1.22
449.477	1.23
449.681	1.23
449.884	1.3
450.088	1.2
450.292	1.17
450.495	1.11
450.699	1.18
450.902	1.25
451.106	1.24
451.31	1.18
451.513	1.2
451.717	1.18
451.92	1.13
452.124	1.03
452.327	1.12
452.531	1.1
452.734	1.08
452.938	1.01
453.141	0.91
453.345	0.89
453.548	0.98
453.752	1
453.955	1.08
454.158	1.07
454.362	1.08
454.565	1.15
454.769	1.18
454.972	1.18
455.175	1.24
455.379	1.36
455.582	1.31
455.785	1.17
455.988	1.17
456.192	1.05
456.395	0.96
456.598	0.98
456.801	0.9
457.005	0.91
457.208	1
457.411	1.05
457.614	1
457.817	0.98
458.021	1.03
458.224	1.02
458.427	1.13
458.63	1.12
458.833	1.14
459.036	1.18
459.239	1.26
459.442	1.25
459.645	1.25
459.848	1.23
460.051	1.26
460.254	1.28
460.457	1.36
460.66	1.32
460.863	1.35
461.066	1.32
461.269	1.31
461.472	1.19
461.675	1.16
461.878	1.07
462.081	1.07
462.284	1.05
462.486	1.09
462.689	0.96
462.892	0.97
463.095	0.98
463.298	1.03
463.5	1.03
463.703	0.98
463.906	1
464.109	0.94
464.311	1.02
464.514	1.06
464.717	0.99
464.92	0.95
465.122	0.83
465.325	0.98
465.528	0.92
465.73	0.95
465.933	1
466.135	0.93
466.338	1.04
466.541	1.11
466.743	1.18
466.946	1.21
467.148	1.31
467.351	1.41
467.553	1.29
467.756	1.45
467.958	1.45
468.161	1.46
468.363	1.5
468.566	1.44
468.768	1.32
468.971	1.32
469.173	1.37
469.375	1.29
469.578	1.22
469.78	1.24
469.983	1.07
470.185	1.01
470.387	1.14
470.59	1.13
470.792	1.2
470.994	1.2
471.196	1.22
471.399	1.21
471.601	1.26
471.803	1.26
472.005	1.29
472.208	1.32
472.41	1.43
472.612	1.42
472.814	1.48
473.016	1.39
473.218	1.37
473.421	1.24
473.623	1.16
473.825	1.17
474.027	1.17
474.229	1.08
474.431	1.08
474.633	0.95
474.835	0.91
475.037	0.83
475.239	0.87
475.441	0.93
475.643	0.93
475.845	0.94
476.047	0.97
476.249	0.98
476.451	1.06
476.653	1.03
476.855	1.08
477.057	1.09
477.258	1.15
477.46	1.18
477.662	1.14
477.864	1.22
478.066	1.24
478.268	1.13
478.469	1.19
478.671	1.2
478.873	1.21
479.075	1.22
479.276	1.24
479.478	1.2
479.68	1.22
479.882	1.2
480.083	1.14
480.285	1.17
480.487	1.14
480.688	1.18
480.89	1.16
481.091	1.19
481.293	1.14
481.495	1.09
481.696	1.12
481.898	1.09
482.099	1.08
482.301	1.05
482.502	1.07
482.704	1.1
482.905	1.07
483.107	1.06
483.308	1.06
483.51	1.06
483.711	1.06
483.913	1.04
484.114	1.02
484.315	1.08
484.517	1.11
484.718	1.1
484.92	1.11
485.121	1.07
485.322	1.08
485.524	1.08
485.725	1.16
485.926	1.19
486.127	1.17
486.329	1.24
486.53	1.2
486.731	1.21
486.932	1.21
487.134	1.24
487.335	1.28
487.536	1.27
487.737	1.25
487.938	1.18
488.139	1.14
488.341	1.2
488.542	1.18
488.743	1.19
488.944	1.11
489.145	1.12
489.346	1.06
489.547	1.05
489.748	1.09
489.949	1.11
490.15	1.16
490.351	1.19
490.552	1.15
490.753	1.13
490.954	1.13
491.155	1.19
491.356	1.16
491.557	1.19
491.758	1.21
491.959	1.16
492.159	1.21
492.36	1.22
492.561	1.25
492.762	1.21
492.963	1.23
493.164	1.27
493.364	1.25
493.565	1.29
493.766	1.26
493.967	1.24
494.167	1.28
494.368	1.27
494.569	1.19
494.769	1.17
494.97	1.21
495.171	1.2
495.371	1.18
495.572	1.15
495.773	1.12
495.973	1.16
496.174	1.07
496.375	1.04
496.575	0.99
496.776	1.02
496.976	1
497.177	1
497.377	1
497.578	0.99
497.778	1.04
497.979	1.04
498.179	0.99
498.38	1.09
498.58	1.14
498.78	1.2
498.981	1.18
499.181	1.2
499.382	1.22
499.582	1.17
499.782	1.24
499.983	1.17
500.183	1.21
500.383	1.27
500.584	1.26
500.784	1.19
500.984	1.19
501.184	1.22
501.385	1.22
501.585	1.16
501.785	1.21
501.985	1.2
502.185	1.25
502.386	1.25
502.586	1.23
502.786	1.19
502.986	1.19
503.186	1.16
503.386	1.09
503.586	1.07
503.786	1.21
503.987	1.23
504.187	1.27
504.387	1.2
504.587	1.23
504.787	1.17
504.987	1.2
505.187	1.14
505.387	1.17
505.587	1.23
505.786	1.24
505.986	1.11
506.186	1.1
506.386	0.97
506.586	0.99
506.786	0.91
506.986	1.01
507.186	1.06
507.386	1.09
507.585	1.08
507.785	1.13
507.985	1.14
508.185	1.21
508.384	1.21
508.584	1.26
508.784	1.28
508.984	1.33
509.183	1.29
509.383	1.25
509.583	1.28
509.782	1.32
509.982	1.26
510.182	1.25
510.381	1.24
510.581	1.29
510.781	1.32
510.98	1.35
511.18	1.4
511.379	1.44
511.579	1.44
511.778	1.48
511.978	1.4
512.177	1.45
512.377	1.49
512.576	1.45
512.776	1.43
512.975	1.44
513.175	1.42
513.374	1.41
513.573	1.45
513.773	1.48
513.972	1.52
514.172	1.63
514.371	1.63
514.57	1.55
514.77	1.62
514.969	1.65
515.168	1.67
515.367	1.67
515.567	1.64
515.766	1.61
515.965	1.59
516.164	1.53
516.364	1.48
516.563	1.42
516.762	1.4
516.961	1.34
517.16	1.39
517.359	1.4
517.559	1.38
517.758	1.35
517.957	1.33
518.156	1.36
518.355	1.42
518.554	1.44
518.753	1.51
518.952	1.58
519.151	1.65
519.35	1.56
519.549	1.52
519.748	1.58
519.947	1.66
520.146	1.69
520.345	1.64
520.544	1.55
520.743	1.53
520.942	1.51
521.141	1.51
521.339	1.55
521.538	1.58
521.737	1.62
521.936	1.6
522.135	1.63
522.333	1.62
522.532	1.65
522.731	1.68
522.93	1.72
523.129	1.76
523.327	1.78
523.526	1.75
523.725	1.73
523.923	1.65
524.122	1.61
524.321	1.57
524.519	1.63
524.718	1.66
524.917	1.69
525.115	1.69
525.314	1.64
525.512	1.68
525.711	1.66
525.909	1.68
526.108	1.72
526.306	1.77
526.505	1.78
526.703	1.75
526.902	1.73
527.1	1.74
527.299	1.73
527.497	1.76
527.696	1.74
527.894	1.74
528.092	1.73
528.291	1.73
528.489	1.73
528.688	1.72
528.886	1.71
529.084	1.74
529.283	1.71
529.481	1.76
529.679	1.78
529.877	1.78
530.076	1.8
530.274	1.83
530.472	1.88
530.67	1.89
530.869	1.9
531.067	1.9
531.265	1.89
531.463	1.89
531.661	1.81
531.859	1.8
532.057	1.82
532.255	1.84
532.454	1.81
532.652	1.81
532.85	1.78
533.048	1.8
533.246	1.84
533.444	1.86
533.642	1.89
533.84	1.95
534.038	1.96
534.236	1.96
534.434	1.96
534.632	2.03
534.83	2.04
535.027	2.11
535.225	2.13
535.423	2.11
535.621	2.13
535.819	2.21
536.017	2.19
536.215	2.18
536.412	2.24
536.61	2.24
536.808	2.21
537.006	2.22
537.203	2.2
537.401	2.2
537.599	2.24
537.797	2.27
537.994	2.27
538.192	2.31
538.39	2.28
538.587	2.25
538.785	2.33
538.983	2.37
539.18	2.36
539.378	2.36
539.575	2.42
539.773	2.42
539.97	2.44
540.168	2.39
540.366	2.45
540.563	2.5
540.761	2.5
540.958	2.47
541.155	2.49
541.353	2.51
541.55	2.54
541.748	2.51
541.945	2.56
542.143	2.53
542.34	2.62
542.537	2.61
542.735	2.69
542.932	2.74
543.129	2.78
543.327	2.76
543.524	2.82
543.721	2.89
543.919	2.91
544.116	2.96
544.313	3.03
544.51	2.99
544.708	2.96
544.905	2.91
545.102	2.97
545.299	2.94
545.496	2.93
545.693	2.92
545.891	2.92
546.088	2.86
546.285	2.81
546.482	2.73
546.679	2.7
546.876	2.74
547.073	2.71
547.27	2.61
547.467	2.67
547.664	2.77
547.861	2.67
548.058	2.72
548.255	2.9
548.452	2.95
548.649	3.01
548.846	3.23
549.043	3.24
549.24	3.29
549.437	3.37
549.633	3.44
549.83	3.48
550.027	3.71
550.224	3.76
550.421	3.78
550.618	3.77
550.814	3.87
551.011	3.82
551.208	3.85
551.405	3.92
551.601	3.93
551.798	3.97
551.995	3.95
552.191	3.92
552.388	3.9
552.585	3.86
552.781	3.94
552.978	3.9
553.175	3.84
553.371	3.81
553.568	3.86
553.764	3.93
553.961	3.84
554.157	3.85
554.354	3.79
554.55	3.77
554.747	3.81
554.943	3.78
555.14	3.8
555.336	3.96
555.533	3.99
555.729	4.12
555.926	4.19
556.122	4.24
556.318	4.21
556.515	4.31
556.711	4.37
556.907	4.44
557.104	4.47
557.3	4.54
557.496	4.49
557.693	4.6
557.889	4.6
558.085	4.55
558.281	4.61
558.478	4.72
558.674	4.82
558.87	4.85
559.066	4.93
559.262	4.97
559.459	5
559.655	5.11
559.851	5.12
560.047	5.03
560.243	5.08
560.439	5.22
560.635	5.22
560.831	5.14
561.027	5.16
561.223	5.03
561.419	5.15
561.615	5.11
561.811	5.04
562.007	5.03
562.203	5.13
562.399	5.17
562.595	5.12
562.791	5.22
562.987	5.32
563.183	5.38
563.379	5.44
563.575	5.37
563.771	5.42
563.966	5.48
564.162	5.56
564.358	5.6
564.554	5.69
564.75	5.71
564.945	5.6
565.141	5.64
565.337	5.77
565.533	5.86
565.728	5.89
565.924	5.91
566.12	5.98
566.315	6.08
566.511	6.05
566.707	6.1
566.902	6.23
567.098	6.4
567.293	6.37
567.489	6.28
567.684	6.24
567.88	6.26
568.076	6.37
568.271	6.4
568.467	6.31
568.662	6.36
568.858	6.28
569.053	6.19
569.248	6.09
569.444	6.07
569.639	6.07
569.835	6.13
570.03	6.15
570.225	6.13
570.421	6.14
570.616	6.13
570.812	6.22
571.007	6.32
571.202	6.35
571.397	6.45
571.593	6.52
571.788	6.63
571.983	6.71
572.178	6.79
572.374	6.91
572.569	6.95
572.764	7.04
572.959	7.1
573.154	7.12
573.35	7.11
573.545	7.16
573.74	7.12
573.935	7.07
574.13	6.97
574.325	7.01
574.52	7.03
574.715	7.01
574.91	7.05
575.105	6.96
575.3	6.94
575.495	7.04
575.69	7.02
575.885	7.19
576.08	7.29
576.275	7.36
576.47	7.32
576.665	7.3
576.86	7.36
577.055	7.28
577.25	7.32
577.444	7.35
577.639	7.42
577.834	7.53
578.029	7.56
578.224	7.63
578.418	7.74
578.613	7.78
578.808	7.76
579.003	7.87
579.197	8.16
579.392	8.26
579.587	8.26
579.781	8.3
579.976	8.34
580.171	8.34
580.365	8.37
580.56	8.36
580.755	8.48
580.949	8.63
581.144	8.54
581.338	8.35
581.533	8.41
581.727	8.45
581.922	8.36
582.116	8.27
582.311	8.37
582.505	8.32
582.7	8.43
582.894	8.33
583.089	8.2
583.283	8.16
583.478	8.19
583.672	8.13
583.866	8.26
584.061	8.29
584.255	8.3
584.449	8.17
584.644	8.16
584.838	8.16
585.032	8.18
585.226	8.2
585.421	8.45
585.615	8.6
585.809	8.61
586.003	8.59
586.198	8.59
586.392	8.71
586.586	8.75
586.78	8.75
586.974	8.78
587.168	8.88
587.363	8.93
587.557	8.86
587.751	8.72
587.945	8.8
588.139	8.8
588.333	8.84
588.527	8.74
588.721	8.71
588.915	8.7
589.109	8.75
589.303	8.65
589.497	8.67
589.691	8.65
589.885	8.87
590.079	8.85
590.273	8.86
590.466	8.89
590.66	8.87
590.854	8.92
591.048	8.92
591.242	8.81
591.436	8.86
591.629	8.74
591.823	8.77
592.017	8.52
592.211	8.48
592.404	8.53
592.598	8.44
592.792	8.47
592.986	8.37
593.179	8.4
593.373	8.43
593.567	8.43
593.76	8.52
593.954	8.55
594.147	8.69
594.341	8.69
594.535	8.65
594.728	8.58
594.922	8.85
595.115	8.91
595.309	8.86
595.502	8.88
595.696	8.94
595.889	9.03
596.083	8.96
596.276	9
596.47	9.16
596.663	9.17
596.856	9.27
597.05	9.16
597.243	9.28
597.437	9.42
597.63	9.37
597.823	9.43
598.017	9.34
598.21	9.39
598.403	9.39
598.596	9.23
598.79	9.27
598.983	9.35
599.176	9.3
599.369	9.14
599.563	9.23
599.756	9.43
599.949	9.33
600.142	9.43
600.335	9.53
600.528	9.48
600.722	9.49
600.915	9.49
601.108	9.62
601.301	9.66
601.494	9.82
601.687	9.83
601.88	9.72
602.073	9.72
602.266	9.65
602.459	9.54
602.652	9.44
602.845	9.46
603.038	9.37
603.231	9.23
603.424	9.21
603.617	9.16
603.809	9.08
604.002	9.15
604.195	9.2
604.388	9.29
604.581	9.41
604.774	9.63
604.966	9.58
605.159	9.69
605.352	9.77
605.545	9.87
605.737	10.02
605.93	9.97
606.123	9.89
606.316	9.84
606.508	9.9
606.701	9.83
606.894	9.66
607.086	9.79
607.279	9.72
607.471	9.79
607.664	9.73
607.857	9.68
608.049	9.68
608.242	9.69
608.434	9.69
608.627	9.64
608.819	9.71
609.012	9.78
609.204	9.74
609.397	9.74
609.589	9.7
609.782	9.81
609.974	9.78
610.166	10
610.359	10.2
610.551	10.28
610.743	10.13
610.936	10.29
611.128	10.3
611.32	10.46
611.513	10.63
611.705	10.59
611.897	10.45
612.09	10.55
612.282	10.49
612.474	10.29
612.666	10.45
612.858	10.53
613.051	10.3
613.243	10.46
613.435	10.45
613.627	10.55
613.819	10.66
614.011	10.84
614.203	10.84
614.395	10.76
614.588	10.87
614.78	10.67
614.972	10.76
615.164	10.7
615.356	10.4
615.548	10.39
615.74	10.25
615.932	10.15
616.124	9.98
616.315	10.14
616.507	10.26
616.699	10.33
616.891	10.36
617.083	10.37
617.275	10.55
617.467	10.78
617.659	10.62
617.85	10.42
618.042	10.61
618.234	10.76
618.426	10.58
618.618	10.55
618.809	10.51
619.001	10.59
619.193	10.68
619.384	10.57
619.576	10.51
619.768	10.56
619.959	10.66
620.151	10.6
620.343	10.61
620.534	10.53
620.726	10.49
620.917	10.46
621.109	10.54
621.301	10.41
621.492	10.51
621.684	10.54
621.875	10.63
622.067	10.89
622.258	10.8
622.45	10.77
622.641	10.82
622.832	10.79
623.024	10.67
623.215	10.61
623.407	10.63
623.598	10.63
623.789	10.73
623.981	10.75
624.172	10.73
624.363	10.89
624.555	10.8
624.746	10.8
624.937	10.94
625.129	10.91
625.32	10.76
625.511	10.87
625.702	10.87
625.893	10.68
626.085	10.61
626.276	10.51
626.467	10.43
626.658	10.47
626.849	10.53
627.04	10.44
627.231	10.53
627.422	10.67
627.614	10.64
627.805	10.68
627.996	10.79
628.187	10.77
628.378	10.79
628.569	10.82
628.76	10.87
628.951	10.9
629.142	10.93
629.332	10.84
629.523	10.82
629.714	10.78
629.905	10.71
630.096	10.72
630.287	10.81
630.478	10.83
630.669	10.85
630.859	10.73
631.05	10.58
631.241	10.58
631.432	10.69
631.623	10.86
631.813	11
632.004	11.12
632.195	11
632.385	10.98
632.576	11.06
632.767	11.03
632.957	11.14
633.148	11.33
633.339	11.33
633.529	11.47
633.72	11.3
633.91	11.18
634.101	11
634.292	11.17
634.482	11.16
634.673	11.13
634.863	11.1
635.054	10.99
635.244	10.92
635.435	10.92
635.625	10.85
635.815	10.85
636.006	10.75
636.196	10.78
636.387	10.79
636.577	10.81
636.767	10.77
636.958	10.98
637.148	11.1
637.338	11.05
637.529	11.07
637.719	11.17
637.909	11.39
638.099	11.8
638.29	12.03
638.48	11.96
638.67	12.02
638.86	12.04
639.05	11.95
639.241	11.96
639.431	12.12
639.621	12.11
639.811	12.08
640.001	12.02
640.191	11.81
640.381	11.6
640.571	11.7
640.761	11.82
640.951	11.78
641.141	11.71
641.331	11.41
641.521	11.24
641.711	11.34
641.901	11.23
642.091	11.32
642.281	11.32
642.471	11.12
642.661	10.98
642.851	10.86
643.041	11.04
643.231	11.01
643.42	11.25
643.61	11.46
643.8	11.38
643.99	11.59
644.18	11.42
644.369	11.25
644.559	11.52
644.749	11.64
644.939	11.48
645.128	11.44
645.318	11.43
645.508	11.54
645.697	11.58
645.887	11.67
646.076	11.38
646.266	11.22
646.456	11.39
646.645	11.32
646.835	11.21
647.024	11.6
647.214	11.64
647.403	11.73
647.593	11.61
647.782	11.44
647.972	11.31
648.161	11.31
648.351	11.5
648.54	11.3
648.73	11.34
648.919	11.38
649.108	11.3
649.298	11.45
649.487	11.42
649.677	11.6
649.866	11.73
650.055	11.66
650.244	11.73
650.434	11.88
650.623	12.11
650.812	12.24
651.002	12.26
651.191	12.14
651.38	11.78
651.569	11.75
651.758	11.7
651.947	11.8
652.137	12.05
652.326	12.27
652.515	12.1
652.704	12.2
652.893	12.14
653.082	12.21
653.271	12.06
653.46	12.29
653.649	12.52
653.838	12.56
654.027	12.44
654.216	12.25
654.405	11.92
654.594	12.01
654.783	11.89
654.972	11.78
655.161	11.9
655.35	12.14
655.539	12.17
655.728	12.1
655.916	12.24
656.105	12.22
656.294	12.27
656.483	12.34
656.672	12.27
656.86	12.4
657.049	12.59
657.238	12.47
657.427	12.48
657.615	12.33
657.804	12.15
657.993	11.96
658.181	11.88
658.37	11.96
658.559	12.08
658.747	12.2
658.936	12.09
659.125	12.36
659.313	12.3
659.502	12.29
659.69	12.43
659.879	12.64
660.067	12.8
660.256	12.78
660.444	12.8
660.633	12.88
660.821	13
661.01	13.08
661.198	12.75
661.387	12.76
661.575	12.71
661.763	12.66
661.952	12.67
662.14	12.59
662.328	12.66
662.517	12.54
662.705	12.41
662.893	12.17
663.082	12.25
663.27	12.09
663.458	12.31
663.646	12.49
663.834	12.41
664.023	12.21
664.211	12.17
664.399	12.2
664.587	12.3
664.775	12.3
664.963	12.64
665.152	12.37
665.34	12.45
665.528	12.52
665.716	12.34
665.904	12.71
666.092	12.95
666.28	13.2
666.468	13.31
666.656	13.39
666.844	13.58
667.032	13.29
667.22	13.67
667.408	13.61
667.596	13.43
667.784	13.41
667.971	13.37
668.159	13.5
668.347	13.36
668.535	13.18
668.723	13.37
668.911	13.36
669.098	13.31
669.286	13.2
669.474	13.29
669.662	13.59
669.849	13.66
670.037	13.54
670.225	13.36
670.413	13.4
670.6	13.47
670.788	13.47
670.976	13.42
671.163	13.5
671.351	13.25
671.538	13.32
671.726	13.22
671.913	13.18
672.101	13.12
672.289	13.15
672.476	12.95
672.664	13.06
672.851	12.88
673.039	12.85
673.226	13.03
673.413	13.19
673.601	13.42
673.788	13.65
673.976	13.69
674.163	13.93
674.35	14.09
674.538	14.27
674.725	14.32
674.912	14.22
675.1	14.42
675.287	14.18
675.474	14.16
675.662	13.99
675.849	13.79
676.036	13.83
676.223	13.69
676.411	13.54
676.598	13.57
676.785	13.85
676.972	14.02
677.159	13.77
677.346	13.72
677.533	13.78
677.721	13.62
677.908	13.6
678.095	13.72
678.282	13.57
678.469	13.74
678.656	13.76
678.843	13.46
679.03	13.27
679.217	13.42
679.404	13.74
679.591	13.53
679.778	13.66
679.964	13.68
680.151	13.61
680.338	13.76
680.525	13.7
680.712	13.7
680.899	13.86
681.086	14.02
681.272	14.18
681.459	13.9
681.646	14
681.833	14.28
682.02	14.3
682.206	14.6
682.393	14.76
682.58	14.72
682.766	14.66
682.953	14.56
683.14	14.34
683.326	14.64
683.513	14.87
683.7	14.74
683.886	14.75
684.073	14.85
684.259	14.13
684.446	13.93
684.632	13.72
684.819	13.82
685.005	13.73
685.192	13.78
685.378	13.17
685.565	13.07
685.751	13.45
685.938	13.02
686.124	12.7
686.31	12.89
686.497	13.31
686.683	13.56
686.87	13.55
687.056	13.66
687.242	13.68
687.429	13.9
687.615	13.64
687.801	13.42
687.987	13.26
688.174	13.34
688.36	13.35
688.546	12.91
688.732	13
688.918	13.23
689.105	13.18
689.291	13.37
689.477	13.02
689.663	13.07
689.849	12.89
690.035	13.23
690.221	13.31
690.407	13.48
690.593	13.36
690.779	13.19
690.965	12.86
691.151	12.88
691.337	12.93
691.523	13.3
691.709	13.33
691.895	13.68
692.081	13.89
692.267	13.7
692.453	13.78
692.639	13.9
692.825	14
693.011	14.01
693.196	14.03
693.382	13.83
693.568	13.68
693.754	14.24
693.94	14.32
694.125	13.99
694.311	14.38
694.497	14
694.682	13.99
694.868	13.83
695.054	13.65
695.239	13.66
695.425	13.78
695.611	14.16
695.796	13.88
695.982	13.81
696.168	13.89
696.353	13.63
696.539	13.96
696.724	14.08
696.91	14.15
697.095	14.23
697.281	14.12
697.466	14.22
697.652	14.06
697.837	14.02
698.023	13.98
698.208	13.78
698.393	13.75
698.579	13.7
698.764	13.57
698.949	13.49
699.135	13.73
699.32	13.83
699.505	13.67
699.691	13.41
699.876	13.64
700.061	13.62
700.246	13.93
700.432	14.43
700.617	14.56
700.802	14.68
700.987	14.71
701.172	14.71
701.358	14.55
701.543	14.9
701.728	15.04
701.913	14.73
702.098	15.12
702.283	15.19
702.468	15
702.653	14.99
702.838	15.46
703.023	15.7
703.208	15.51
703.393	15.87
703.578	15.93
703.763	16.12
703.948	16.33
704.133	16.35
704.318	16.04
704.503	16.06
704.688	15.89
704.873	15.38
705.057	15.48
705.242	15.23
705.427	14.93
705.612	14.58
705.797	14.76
705.981	15.33
706.166	15.23
706.351	15.09
706.536	15.06
706.72	15.3
706.905	15.78
707.09	16.09
707.274	16.5
707.459	16.88
707.644	16.93
707.828	16.59
708.013	16.16
708.197	15.98
708.382	16.46
708.567	16.79
708.751	16.24
708.936	15.94
709.12	15.66
709.305	15.39
709.489	15.15
709.673	15.35
709.858	15.7
710.042	15.63
710.227	15.63
710.411	15.64
710.596	15.17
710.78	15.5
710.964	15.36
711.149	15.49
711.333	15.72
711.517	15.77
711.702	15.35
711.886	14.97
712.07	15.12
712.254	15.22
712.438	15.1
712.623	15.03
712.807	15.29
712.991	15.52
713.175	15.75
713.359	15.7
713.544	15.63
713.728	15.96
713.912	15.75
714.096	15.31
714.28	14.94
714.464	14.92
714.648	14.92
714.832	14.59
715.016	13.97
715.2	13.33
715.384	13.15
715.568	13.43
715.752	13.42
715.936	14.08
716.12	14.37
716.304	14.7
716.488	14.66
716.671	14.78
716.855	15.09
717.039	15.71
717.223	15.66
717.407	15.99
717.59	16.03
717.774	15.96
717.958	15.63
718.142	15.48
718.325	15.65
718.509	15.74
718.693	15.8
718.877	15.62
719.06	15.7
719.244	16.14
719.428	15.66
719.611	15.83
719.795	15.21
719.978	15.16
720.162	15.34
720.345	15.08
720.529	15.1
720.713	15.46
720.896	15.49
721.08	15.08
721.263	14.99
721.446	15.39
721.63	15.27
721.813	16
721.997	15.91
722.18	15.78
722.364	15.86
722.547	15.84
722.73	15
722.914	15.15
723.097	15.53
723.28	15.5
723.464	15.27
723.647	15.23
723.83	15.29
724.013	15.2
724.197	15.14
724.38	15.05
724.563	14.95
724.746	15.86
724.929	15.69
725.112	15.43
725.296	15.44
725.479	15.69
725.662	15.85
725.845	15.62
726.028	15.69
726.211	15.81
726.394	16.32
726.577	16.42
726.76	15.49
726.943	15.93
727.126	16
727.309	15.92
727.492	15.72
727.675	15.06
727.858	15.07
728.041	15.52
728.224	15.69
728.407	15.42
728.589	15.32
728.772	16.17
728.955	15.99
729.138	16.09
729.321	16.36
729.503	16.41
729.686	16.71
729.869	16.74
730.052	16.68
730.234	16.67
730.417	16.63
730.6	16.56
730.782	16.17
730.965	16.01
731.148	16.06
731.33	15.78
731.513	15.59
731.695	15.52
731.878	15.84
732.061	15.64
732.243	15.56
732.426	15.85
732.608	16.22
732.791	16.56
732.973	16.59
733.156	16.22
733.338	16.16
733.52	16.8
733.703	16.75
733.885	16.54
734.068	16.89
734.25	16.81
734.432	16.64
734.615	16.28
734.797	15.77
734.979	15.61
735.162	15.95
735.344	16.17
735.526	15.75
735.708	16.14
735.891	15.99
736.073	15.23
736.255	14.83
736.437	14.7
736.619	14.54
736.802	14.67
736.984	14.9
737.166	14.89
737.348	15.2
737.53	15.55
737.712	15.2
737.894	15.89
738.076	16.52
738.258	17.33
738.44	17.63
738.622	17.99
738.804	18.77
738.986	18.92
739.168	19.07
739.35	18.87
739.532	18.82
739.714	18.88
739.896	18.53
740.078	18.53
740.259	18.06
740.441	18.05
740.623	18.31
740.805	18.02
740.987	18.25
741.168	18.15
741.35	18.42
741.532	18.54
741.714	18.88
741.895	18.96
742.077	19.12
742.259	19.24
742.44	18.51
742.622	18
742.804	17.69
742.985	17.49
743.167	17.97
743.348	17.69
743.53	17.25
743.711	17.33
743.893	17.55
744.075	17.36
744.256	17.71
744.438	18.76
744.619	19.23
744.8	19.48
744.982	18.83
745.163	18.45
745.345	19.07
745.526	19.56
745.707	19.81
745.889	19.47
746.07	19.68
746.252	19.72
746.433	19.06
746.614	18.97
746.795	18.33
746.977	19.45
747.158	19.31
747.339	19.32
747.52	19.43
747.702	18.91
747.883	19.09
748.064	19.34
748.245	19.45
748.426	19.6
748.607	19.62
748.788	20.24
748.97	20.04
749.151	20.16
749.332	19.72
749.513	19.56
749.694	19.16
749.875	19.1
750.056	18.75
750.237	18.73
750.418	18.77
750.599	18.85
750.78	18.92
750.96	18.66
751.141	19.06
751.322	18.63
751.503	18.52
751.684	19.31
751.865	19.29
752.046	19.24
752.226	19.05
752.407	19.54
752.588	19.3
752.769	19.1
752.949	19.03
753.13	18.9
753.311	19.12
753.492	19.3
753.672	19.27
753.853	19.09
754.034	19.16
754.214	19.69
754.395	19.2
754.575	19.56
754.756	19
754.937	19.28
755.117	19.09
755.298	19.18
755.478	19.03
755.659	18.59
755.839	18.69
756.02	19.12
756.2	18.65
756.381	18.3
756.561	17.85
756.741	18.08
756.922	17.82
757.102	18.23
757.283	18.52
757.463	18.53
757.643	18.52
757.823	17.85
758.004	17.24
758.184	16.81
758.364	16.58
758.545	16.72
758.725	16.8
758.905	16.8
759.085	16.67
759.265	16.21
759.446	15.87
759.626	15.62
759.806	16.35
759.986	16.45
760.166	16.87
760.346	16.88
760.526	16.72
760.706	16.62
760.886	16.94
761.066	16.81
761.246	16.87
761.426	17.36
761.606	17.37
761.786	16.93
761.966	16.68
762.146	16.43
762.326	16.59
762.506	17.22
762.686	17.28
762.866	16.88
763.046	16.36
763.225	16.52
763.405	16.17
763.585	16.29
763.765	16.45
763.945	16.36
764.124	16.51
764.304	16.57
764.484	16.31
764.664	16.01
764.843	15.8
765.023	16.81
765.203	16.68
765.382	17.13
765.562	18.04
765.741	18.32
765.921	18.76
766.101	18.47
766.28	18.64
766.46	18.78
766.639	19.72
766.819	20.2
766.998	19.64
767.178	19.74
767.357	19.34
767.537	18.64
767.716	18.64
767.896	18.96
768.075	19.97
768.254	19.97
768.434	19.83
768.613	19.66
768.792	19.67
768.972	19.72
769.151	20.04
769.33	20.26
769.51	20.28
769.689	20.63
769.868	20.69
770.047	20.76
770.226	20.9
770.406	20.78
770.585	20.57
770.764	21.2
770.943	21.56
771.122	21.24
771.301	21.59
771.48	21.4
771.66	21.2
771.839	20.39
772.018	19.63
772.197	19.46
772.376	19.16
772.555	19.01
772.734	18.97
772.913	18.57
773.092	18.66
773.271	18.12
773.449	18.69
773.628	18.21
773.807	18.11
773.986	17.67
774.165	18.87
774.344	19.37
774.523	19.66
774.701	19.34
774.88	19.6
775.059	19.7
775.238	20.18
775.417	20.79
775.595	21.17
775.774	21.03
775.953	21.81
776.131	21.3
776.31	21.31
776.489	21.05
776.667	19.64
776.846	19.27
777.025	19.13
777.203	18.85
777.382	18.15
777.56	17.77
777.739	18.9
777.917	18.68
778.096	18.32
778.274	18.04
778.453	18.02
778.631	19.34
778.81	19.51
778.988	20.61
779.166	21.03
779.345	21.11
779.523	20.72
779.702	20.37
779.88	19.92
780.058	20.53
780.237	20.73
780.415	20.8
780.593	21.11
780.771	20.9
780.95	20.44
781.128	20.03
781.306	19.99
781.484	20.68
781.662	20.69
781.841	21.78
782.019	21.95
782.197	21.87
782.375	23.06
782.553	23.44
782.731	23.39
782.909	23.79
783.087	24.57
783.265	24.3
783.443	24.61
783.621	24.57
783.799	24.1
783.977	23.47
784.155	22.88
784.333	22.73
784.511	21.9
784.689	21.87
784.867	20.85
785.045	20.06
785.223	21
785.4	20.02
785.578	20.48
785.756	19.98
785.934	19.61
786.112	21.17
786.289	19.78
786.467	19.33
786.645	19.11
786.823	19.88
787	19.9
787.178	18.89
787.356	19.36
787.533	18.9
787.711	19.18
787.889	19.1
788.066	18.67
788.244	19.69
788.421	20.54
788.599	20.86
788.776	20.51
788.954	20.35
789.131	19.96
789.309	19.75
789.486	20.19
789.664	19.89
789.841	20.44
790.019	20.08
790.196	19.71
790.373	19.17
790.551	19.49
790.728	18.95
790.906	19.45
791.083	21.33
791.26	22.59
791.437	22.49
791.615	22.6
791.792	21.94
791.969	21.64
792.146	21.45
792.324	21.62
792.501	21.88
792.678	22.15
792.855	22.05
793.032	20.97
793.209	19.73
793.387	20.44
793.564	20.35
793.741	21.22
793.918	21.36
794.095	22.13
794.272	21.92
794.449	21.91
794.626	22.63
794.803	22.14
794.98	21.41
795.157	21.65
795.334	20.8
795.511	21.5
795.688	21.12
795.864	20.11
796.041	19.64
796.218	19.96
796.395	19.6
796.572	19.06
796.749	20.07
796.925	20.57
797.102	20.35
797.279	20.26
797.456	20.34
797.632	19.94
797.809	21.76
797.986	21.06
798.162	21.81
798.339	21.85
798.516	21.87
798.692	21.31
798.869	21
799.046	21.53
799.222	21.45
799.399	21.65
799.575	21.94
799.752	21.61
799.928	22.58
800.105	22.23
800.281	22.43
800.458	23.34
800.634	23.07
800.811	23.6
800.987	23.97
801.163	24.04
801.34	22.89
801.516	24.05
801.692	24.96
801.869	24.6
802.045	23.01
802.221	22.94
802.398	22.23
802.574	23.95
802.75	25.12
802.926	25.67
803.103	25.14
803.279	25
803.455	23.22
803.631	22.34
803.807	23.1
803.983	25.09
804.16	24.87
804.336	24.45
804.512	23.41
804.688	22.2
804.864	21.57
805.04	22.77
805.216	23.44
805.392	24.47
805.568	24.41
805.744	22.71
805.92	21.93
806.096	22.04
806.272	22.31
806.448	23.72
806.623	24.17
806.799	24.61
806.975	24.22
807.151	24.76
807.327	24.13
807.503	22.91
807.678	24.14
807.854	25.17
808.03	24.89
808.206	24.28
808.381	23.03
808.557	21.81
808.733	22.3
808.908	21.25
809.084	20.68
809.26	21.04
809.435	22.11
809.611	21.61
809.787	20.01
809.962	20.44
810.138	20.82
810.313	20.46
810.489	21.47
810.664	19.85
810.84	20.86
811.015	21.84
811.191	23.54
811.366	24.18
811.542	23.6
811.717	24.01
811.892	24.25
812.068	23.42
812.243	23
812.419	23.17
812.594	23.97
812.769	24.07
812.944	23.24
813.12	20.79
813.295	21
813.47	20.26
813.645	21.16
813.821	20.67
813.996	22.38
814.171	21.51
814.346	20.37
814.521	21.34
814.697	21.44
814.872	21.12
815.047	20.39
815.222	18.75
815.397	19.17
815.572	17.78
815.747	17.9
815.922	18.59
816.097	19.4
816.272	21.42
816.447	19.62
816.622	19.47
816.797	20.21
816.972	21.03
817.147	21.26
817.322	22.53
817.496	23.93
817.671	23.98
817.846	23.14
818.021	23.61
818.196	23.27
818.371	24.09
818.545	25.14
818.72	24.13
818.895	23.99
819.069	24.13
819.244	23.7
819.419	22.81
819.594	21.63
819.768	19.57
819.943	19.34
820.117	19.12
820.292	18.76
820.467	17.96
820.641	17.55
820.816	17.92
820.99	17.84
821.165	18.16
821.339	18.03
821.514	18.23
821.688	18.7
821.863	18.49
822.037	18.28
822.212	18.25
822.386	18.12
822.56	18.34
822.735	18.12
822.909	18.27
823.084	18.05
823.258	18.07
823.432	17.94
823.606	17.96
823.781	18
823.955	18
824.129	17.83
824.303	18.07
824.478	18.05
824.652	17.86
824.826	18.08
825	18.48
825.174	18.63
825.348	19.01
825.523	19.23
825.697	19.42
825.871	19.52
826.045	19.95
826.219	20.04
826.393	19.88
826.567	20.81
826.741	20.23
826.915	19.91
827.089	20.09
827.263	20.04
827.437	19.85
827.611	20.18
827.784	20.16
827.958	20.06
828.132	20.11
828.306	20.49
828.48	19.95
828.654	20.77
828.827	20.73
829.001	20.97
829.175	21.27
829.349	21.86
829.522	21.7
829.696	21.89
829.87	21.78
830.044	21.65
830.217	22.45
830.391	22.48
830.565	21.79
830.738	22.63
830.912	22.63
831.085	21.83
831.259	20.78
831.432	19.97
831.606	20.68
831.779	20.28
831.953	19.61
832.126	19.04
832.3	19.24
832.473	18.46
832.647	17.83
832.82	16.54
832.994	17.19
833.167	17.53
833.34	17.78
833.514	17.84
833.687	17.9
833.86	18.81
834.034	19.54
834.207	20.09
834.38	20.39
834.553	20.49
834.727	21.22
834.9	21.48
835.073	21.99
835.246	21.91
835.419	21.09
835.593	20.97
835.766	20.67
835.939	20.1
836.112	20.02
836.285	21.04
836.458	21.4
836.631	21.1
836.804	21.88
836.977	21.59
837.15	21.32
837.323	22.38
837.496	22.83
837.669	22.65
837.842	21.97
838.015	23.23
838.188	22.33
838.361	21.19
838.533	22.5
838.706	20.49
838.879	19.6
839.052	19.92
839.225	18.92
839.398	19.71
839.57	20.32
839.743	20.43
839.916	18.21
840.088	19.44
840.261	21.98
840.434	22.84
840.607	24.24
840.779	25.35
840.952	27.31
841.124	28.25
841.297	27.37
841.47	27.11
841.642	27.4
841.815	28.14
841.987	28.71
842.16	29.24
842.332	29.26
842.505	29.98
842.677	29.83
842.85	28.41
843.022	28.62
843.194	30.58
843.367	32.13
843.539	34.19
843.712	35.39
843.884	32.36
844.056	30.74
844.229	28.67
844.401	27.33
844.573	28.71
844.745	27.12
844.918	26.86
845.09	23.38
845.262	20.2
845.434	19.97
845.606	17.8
845.779	20.64
845.951	19.47
846.123	20.76
846.295	22.56
846.467	23.48
846.639	27.23
846.811	28.33
846.983	29.84
847.155	31.17
847.327	26.76
847.499	31.17
847.671	33.53
847.843	36.41
848.015	38.83
848.187	37.1
848.359	34.71
848.531	34.58
848.703	33.6
848.875	35.89
849.047	32.47
849.218	34.58
849.39	31.01
849.562	23.39
849.734	22.64
849.905	17.98
850.077	21.47
850.249	21.1
850.421	22.88
850.592	23.39
850.764	23.98
850.936	28.08
851.107	27.5
851.279	30.17
851.451	35.7
851.622	37.91
851.794	40.67
851.965	38.35
852.137	35.32
852.308	33.52
852.48	31.61
852.651	33.42
852.823	32.09
852.994	34.81
853.166	30.72
853.337	31.01
853.509	32.14
853.68	35.87
853.851	37.08
854.023	44.47
854.194	43.77
854.365	45.66
854.537	40.67
854.708	41.72
854.879	39.78
855.05	40.12
855.222	36.83
855.393	35.14
855.564	32.08
855.735	29.16
855.906	27.56
856.078	23.27
856.249	19.09
856.42	20.34
856.591	22.2
856.762	20.04
856.933	21.81
857.104	23.09
857.275	21.91
857.446	23.66
857.617	24.82
857.788	22.53
857.959	26.99
858.13	31.42
858.301	32.39
858.472	30.88
858.643	34.48
858.814	36.8
858.985	35.77
859.155	32.81
859.326	32.65
859.497	33.39
859.668	31.5
859.839	31.23
860.009	29.4
860.18	25.66
860.351	29.14
860.522	26.08
860.692	17.84
860.863	19.27
861.034	24.54
861.204	20.91
861.375	21.7
861.546	26.57
861.716	28.35
861.887	31.11
862.057	35.69
862.228	27.82
862.398	27.55
862.569	35.71
862.739	38.67
862.91	30.47
863.08	34.74
863.251	35.08
863.421	34
863.592	37.78
863.762	34.79
863.932	30.52
864.103	36.03
864.273	37.64
864.443	36.24
864.614	35.77
864.784	38.86
864.954	38.34
865.125	31.21
865.295	28.27
865.465	22.25
865.635	24.4
865.805	30.56
865.976	30.43
866.146	29.64
866.316	29.82
866.486	28.39
866.656	28.83
866.826	25.57
866.996	29.88
867.166	30.76
867.336	32.3
867.506	30.72
867.676	27.72
867.846	24.97
868.016	23.94
868.186	25.93
868.356	22.91
868.526	21.71
868.696	22.42
868.866	25.34
869.036	25.68
869.206	21
869.376	24.11
869.545	24.44
869.715	27.95
869.885	28.5
870.055	28.48
870.224	31.75
870.394	34.9
870.564	40.03
870.734	41.21
870.903	38.4
871.073	37.69
871.243	36.93
871.412	39.86
871.582	40.72
871.751	40.81
871.921	38.95
872.091	36.66
872.26	32.06
872.43	28.02
872.599	23.87
872.769	26.86
872.938	28.14
873.108	25.1
873.277	23.52
873.446	17.36
873.616	17.83
873.785	20.69
873.955	18.89
874.124	14.63
874.293	15.69
874.463	16.88
874.632	16.02
874.801	19.57
874.971	20.24
875.14	24.8
875.309	27.72
875.478	26.92
875.647	21.94
875.817	24.42
875.986	29.46
876.155	27.66
876.324	26.52
876.493	29.13
876.662	31.01
876.831	31.79
877	24.04
877.17	25.76
877.339	29.5
877.508	33.33
877.677	33.04
877.846	29.02
878.015	26.95
878.184	24.82
878.352	22.8
878.521	20.47
878.69	21.23
878.859	23.81
879.028	23.83
879.197	21.53
879.366	21.34
879.534	23.32
879.703	23.2
879.872	23.61
880.041	24.62
880.21	23.2
880.378	24.4
880.547	22.72
880.716	22.86
880.884	23.18
881.053	21.93
881.222	21.95
881.39	21.15
881.559	22.54
881.727	21.96
881.896	21.12
882.065	21.8
882.233	20.62
882.402	20.39
882.57	20.59
882.739	20.79
882.907	21.72
883.076	21.61
883.244	20.92
883.412	20.26
883.581	21.4
883.749	21.76
883.918	21.03
884.086	22.01
884.254	24.11
884.423	24.4
884.591	23.48
884.759	23.62
884.927	22.28
885.096	23.06
885.264	23.48
885.432	23.76
885.6	23.47
885.769	24.62
885.937	22.61
886.105	20.22
886.273	18.37
886.441	18.32
886.609	15.01
886.777	17.84
886.945	18.42
887.113	18.7
887.281	17.95
887.449	20.18
887.617	17.5
887.785	18.04
887.953	19.29
888.121	18.08
888.289	19.94
888.457	23.28
888.625	21.47
888.793	22.68
888.961	22.66
889.129	23.38
889.296	30.12
889.464	35.3
889.632	40.73
889.8	43.54
889.967	50.27
890.135	48.77
