Data from 2938481_Reflection_1.txt Node
Date: Wed Jun 17 01:10:38 EDT 2015
User: robert
Spectrometer: USB4E03002
Autoset integration time: false
Trigger mode: 4
Integration Time (sec): 1.000000E-1
Scans to average: 10
Electric dark correction enabled: true
Nonlinearity correction enabled: false
Boxcar width: 5
Stray light correction enabled: false
XAxis mode: Wavelengths
Stop averaging: false
Number of Pixels in Spectrum: 3648
>>>>>Begin Spectral Data<<<<<
177.575	-2152.59
177.794	569.58
178.014	-464.84
178.233	-10.51
178.452	-289.02
178.672	474.14
178.891	113.62
179.11	-44.28
179.33	-36.84
179.549	-169.67
179.768	-273.01
179.987	978.59
180.207	261.79
180.426	150.01
180.645	121.6
180.864	149.18
181.084	239.88
181.303	4710.58
181.522	743.12
181.741	922.88
181.96	488.5
182.179	268.92
182.398	381.99
182.618	-811.34
182.837	-95.23
183.056	-132.45
183.275	-265.06
183.494	-138.91
183.713	728.1
183.932	607.36
184.151	27.82
184.37	-1.82
184.589	-11.57
184.808	-38.38
185.027	-57.37
185.246	-119.6
185.465	-47.46
185.684	-28.09
185.903	-46.23
186.122	2.28
186.341	-0.23
186.56	-33.73
186.779	-71.23
186.998	-147.06
187.216	-203.77
187.435	-114.2
187.654	-48.46
187.873	-237.92
188.092	-273.1
188.311	-131.39
188.53	-196.24
188.748	-236.9
188.967	-512.76
189.186	16695
189.405	-114.5
189.623	-36.38
189.842	-36.24
190.061	-7.76
190.28	14.17
190.498	42.84
190.717	33.83
190.936	-22.58
191.154	8.6
191.373	43.78
191.592	21.05
191.81	6.94
192.029	19.5
192.248	4.27
192.466	2.19
192.685	8.45
192.904	10.75
193.122	-6.06
193.341	-363.61
193.559	-152.08
193.778	-59.51
193.996	-76.13
194.215	-180.57
194.433	278.56
194.652	7.52
194.87	-14.37
195.089	13.83
195.307	0.77
195.526	-16.52
195.744	6.34
195.963	-5.09
196.181	-34.65
196.399	-42.28
196.618	-30.9
196.836	-34.14
197.055	-435.94
197.273	-817.04
197.491	2065.83
197.71	269.9
197.928	167.49
198.146	183.02
198.365	267.17
198.583	171.73
198.801	175.12
199.019	494.08
199.238	592.16
199.456	-365.39
199.674	-257.57
199.892	-552.99
200.111	-264.63
200.329	-210.97
200.547	-85.07
200.765	-60.3
200.983	-45.92
201.202	-61.82
201.42	-44.05
201.638	-21.07
201.856	-49.54
202.074	-97.37
202.292	-18.83
202.51	-1.01
202.728	-33.74
202.946	-38.91
203.165	-58.55
203.383	-23.59
203.601	-24.18
203.819	-6.07
204.037	-0.27
204.255	13.5
204.473	32.19
204.691	43
204.909	25.44
205.127	44.82
205.345	45.52
205.562	45.85
205.78	80.16
205.998	80.12
206.216	71.31
206.434	65.45
206.652	54.27
206.87	45.53
207.088	16.68
207.306	2.07
207.523	-33.63
207.741	-6.94
207.959	-17.69
208.177	-195.88
208.395	-811.91
208.612	938.91
208.83	-1654.62
209.048	-10242.86
209.266	2247.71
209.483	-444.83
209.701	-1575.83
209.919	-2368.9
210.136	-2145.79
210.354	-459.28
210.572	-189.53
210.79	-55.44
211.007	-45.58
211.225	-15.05
211.442	-15.79
211.66	-3.57
211.878	-18.23
212.095	-13.67
212.313	7.61
212.53	5.28
212.748	-5.77
212.966	-20.28
213.183	-46.34
213.401	-28.45
213.618	-43.57
213.836	-67.93
214.053	-66.24
214.271	-35.76
214.488	-18.27
214.705	-24.85
214.923	2.13
215.14	-44.37
215.358	-44.71
215.575	-33.45
215.793	-32.35
216.01	-37.88
216.227	-29.94
216.445	-29.39
216.662	-28.42
216.879	-29.58
217.097	-41.99
217.314	-54.98
217.531	18.88
217.749	19.95
217.966	37.29
218.183	38.82
218.4	42.51
218.618	44.67
218.835	35.3
219.052	27.08
219.269	17.94
219.487	25.29
219.704	18.7
219.921	-16.17
220.138	-9.5
220.355	-22.88
220.572	-34.59
220.79	-45.54
221.007	-42.81
221.224	-38.95
221.441	-34.19
221.658	-16.93
221.875	-16.79
222.092	-10.3
222.309	-3.04
222.526	-7.58
222.743	-6.04
222.96	0.69
223.177	6.53
223.394	4.59
223.611	2.85
223.828	0.72
224.045	-0.1
224.262	0.77
224.479	-2.14
224.696	-4.18
224.913	-2.14
225.13	1.53
225.347	-0.1
225.564	1.2
225.781	0.2
225.997	1.53
226.214	2.63
226.431	1.99
226.648	1.43
226.865	1.82
227.082	2.35
227.298	2.87
227.515	1.97
227.732	3.26
227.949	1.79
228.165	2.79
228.382	1.98
228.599	2.76
228.816	3.47
229.032	3.02
229.249	4.04
229.466	5.18
229.682	4.53
229.899	6.6
230.116	7.01
230.332	9.99
230.549	10.47
230.765	11.09
230.982	11.99
231.199	10.29
231.415	10.7
231.632	9.04
231.848	8.58
232.065	8.33
232.281	6.15
232.498	4.43
232.714	3.37
232.931	1.22
233.147	-0.08
233.364	-2.05
233.58	-1.7
233.797	-1.78
234.013	1.02
234.23	-1.28
234.446	0.75
234.662	1.75
234.879	2.33
235.095	-0.6
235.312	0.41
235.528	1.86
235.744	2.66
235.961	3.93
236.177	5.94
236.393	4.2
236.61	6.71
236.826	5.34
237.042	3.27
237.258	3.01
237.475	5.98
237.691	6.46
237.907	5.79
238.123	6.17
238.339	5.85
238.556	4.78
238.772	5.03
238.988	5
239.204	4.77
239.42	5.04
239.636	5.64
239.853	5.12
240.069	4.71
240.285	5.65
240.501	5.42
240.717	5.74
240.933	5.93
241.149	5.6
241.365	6.15
241.581	6.48
241.797	6.75
242.013	6.87
242.229	7.07
242.445	7.67
242.661	6.26
242.877	6.2
243.093	5.63
243.309	5.6
243.525	6.06
243.741	5.47
243.957	5.38
244.173	5.33
244.388	5.28
244.604	4.98
244.82	4.92
245.036	5.65
245.252	6.08
245.468	6.07
245.683	5.79
245.899	5.83
246.115	5.78
246.331	5.62
246.547	5.69
246.762	5.37
246.978	5.57
247.194	5.46
247.409	5.35
247.625	4.73
247.841	4.64
248.057	4.67
248.272	4.46
248.488	4.44
248.703	4.28
248.919	4
249.135	4.51
249.35	3.68
249.566	3.84
249.782	4.15
249.997	4.09
250.213	3.72
250.428	3.7
250.644	3.09
250.859	2.54
251.075	2.77
251.29	2.35
251.506	2.55
251.721	2.97
251.937	3.34
252.152	2.98
252.368	4.14
252.583	4.06
252.798	4.28
253.014	4.55
253.229	5.55
253.445	6.34
253.66	7.02
253.875	5.98
254.091	5.92
254.306	4.83
254.521	3.52
254.737	1.86
254.952	1.82
255.167	1.1
255.383	1.47
255.598	0.58
255.813	-0.21
256.028	-0.49
256.244	0.11
256.459	1.02
256.674	1.22
256.889	2.11
257.104	2.77
257.32	2.83
257.535	3.33
257.75	3.37
257.965	3.79
258.18	3.99
258.395	4.06
258.61	4.17
258.826	3.89
259.041	4.06
259.256	4.28
259.471	4.36
259.686	4.69
259.901	4.71
260.116	4.73
260.331	4.46
260.546	4.38
260.761	4.62
260.976	4.32
261.191	4.27
261.406	3.87
261.621	3.05
261.836	3.05
262.05	3.35
262.265	3.28
262.48	3.34
262.695	4.34
262.91	4.35
263.125	3.71
263.34	3.61
263.555	4.26
263.769	4.77
263.984	4.54
264.199	4.1
264.414	3.68
264.629	3.43
264.843	3.43
265.058	2.37
265.273	2.44
265.488	2.76
265.702	2.88
265.917	2.37
266.132	1.78
266.346	1.73
266.561	1.59
266.776	1.42
266.99	1.93
267.205	1.96
267.42	2.68
267.634	2.82
267.849	2.76
268.063	3.33
268.278	3.55
268.492	4.09
268.707	4.65
268.922	4.67
269.136	4.17
269.351	3.78
269.565	3.94
269.78	3.36
269.994	3.41
270.209	3.67
270.423	3.17
270.637	2.95
270.852	2.66
271.066	3.02
271.281	2.98
271.495	3.5
271.709	3.18
271.924	2.91
272.138	3.47
272.353	3.18
272.567	2.78
272.781	2.91
272.996	3.06
273.21	3.44
273.424	2.59
273.638	2.44
273.853	2.15
274.067	2.1
274.281	1.92
274.495	0.92
274.71	1.56
274.924	1.57
275.138	1.57
275.352	1.92
275.566	1.82
275.781	2.08
275.995	2.64
276.209	2.85
276.423	3.09
276.637	3.4
276.851	4.06
277.065	3.51
277.279	3.8
277.493	3.3
277.707	2.53
277.921	1.69
278.135	1.1
278.349	0.55
278.563	0.45
278.777	0.68
278.991	0.75
279.205	0.35
279.419	0.73
279.633	0.21
279.847	1.03
280.061	1.37
280.275	1.99
280.489	3.05
280.703	3.35
280.917	3.26
281.131	3.48
281.344	3.5
281.558	3.85
281.772	3.59
281.986	3.72
282.2	3.29
282.414	3.43
282.627	3.41
282.841	2.92
283.055	2.86
283.269	2.45
283.482	2.33
283.696	2.34
283.91	2.45
284.123	2.57
284.337	3.11
284.551	3.18
284.764	2.82
284.978	3.09
285.192	2.92
285.405	2.85
285.619	3.32
285.833	3.34
286.046	3.59
286.26	3.41
286.473	3.27
286.687	2.75
286.9	2.83
287.114	3.32
287.327	2.79
287.541	2.95
287.754	3.07
287.968	2.9
288.181	2.88
288.395	2.08
288.608	2.11
288.822	2.46
289.035	2.64
289.248	2.53
289.462	2.71
289.675	2.9
289.889	3.16
290.102	2.96
290.315	2.98
290.529	3.18
290.742	3.37
290.955	3.25
291.169	3.01
291.382	3.07
291.595	3.13
291.808	2.8
292.022	3.04
292.235	2.72
292.448	3.14
292.661	3.18
292.875	3.06
293.088	3.04
293.301	3.18
293.514	3.2
293.727	3.18
293.94	3.32
294.153	3.44
294.367	3.81
294.58	3.98
294.793	4.02
295.006	4
295.219	4.03
295.432	4.62
295.645	4.73
295.858	4.84
296.071	5.08
296.284	4.94
296.497	5.21
296.71	4.94
296.923	4.68
297.136	4.72
297.349	5.09
297.562	5.02
297.775	4.72
297.988	4.68
298.201	4.57
298.414	4.17
298.626	4.57
298.839	4.11
299.052	3.61
299.265	4.34
299.478	4.26
299.691	3.99
299.903	4.19
300.116	3.66
300.329	3.47
300.542	3.69
300.755	3.87
300.967	3.74
301.18	3.51
301.393	3.83
301.605	3.23
301.818	3.14
302.031	3.21
302.243	3.05
302.456	3.44
302.669	3.63
302.881	3.76
303.094	3.89
303.307	3.46
303.519	3.8
303.732	3.94
303.944	4.03
304.157	3.51
304.37	3.18
304.582	3.51
304.795	3.59
305.007	3.65
305.22	3.31
305.432	2.88
305.645	3.07
305.857	3.3
306.069	3.66
306.282	3.56
306.494	4.13
306.707	4.3
306.919	3.9
307.132	4.16
307.344	3.87
307.556	3.8
307.769	3.81
307.981	3.73
308.193	3.43
308.406	3.35
308.618	3.64
308.83	3.75
309.043	3.78
309.255	3.8
309.467	3.52
309.679	3.64
309.892	3.79
310.104	4.07
310.316	4.14
310.528	4.16
310.74	4.34
310.953	4.58
311.165	4.53
311.377	4.55
311.589	4.6
311.801	4.89
312.013	5.03
312.225	5.25
312.437	5.58
312.649	5.85
312.862	5.52
313.074	4.57
313.286	4
313.498	3.73
313.71	3.88
313.922	4.21
314.134	4.29
314.346	4.17
314.558	3.95
314.77	3.53
314.982	3.32
315.193	3.58
315.405	4.21
315.617	4.49
315.829	4.49
316.041	4.47
316.253	4.34
316.465	3.83
316.677	4.27
316.888	4.04
317.1	4.27
317.312	4.65
317.524	5.04
317.736	4.93
317.947	4.93
318.159	5.12
318.371	5.39
318.583	5.06
318.794	5.2
319.006	5
319.218	5.2
319.43	5.09
319.641	5
319.853	5.09
320.064	4.89
320.276	4.21
320.488	4.24
320.699	4.19
320.911	4.26
321.123	4.34
321.334	4.6
321.546	4.58
321.757	4.41
321.969	4.15
322.18	4.11
322.392	4.18
322.603	5
322.815	5.24
323.026	5.26
323.238	5.65
323.449	5.75
323.661	5.44
323.872	5.35
324.083	5.88
324.295	6.48
324.506	6.65
324.718	7.19
324.929	7.25
325.14	6.65
325.352	6.86
325.563	6.86
325.774	7.04
325.986	7.34
326.197	7.64
326.408	7.55
326.62	7.42
326.831	7.17
327.042	7.01
327.253	6.71
327.464	7.42
327.676	7.49
327.887	7.11
328.098	7.05
328.309	6.89
328.52	6.67
328.732	6.68
328.943	6.57
329.154	7.07
329.365	6.86
329.576	7.19
329.787	7.43
329.998	7.13
330.209	7.52
330.42	7.76
330.631	7.78
330.842	7.75
331.053	7.82
331.264	7.86
331.475	7.7
331.686	7.78
331.897	7.77
332.108	6.92
332.319	7.18
332.53	6.78
332.741	6.72
332.952	6.99
333.163	7.1
333.374	6.85
333.585	6.68
333.795	6.14
334.006	5.96
334.217	6
334.428	6.68
334.639	6.85
334.849	7.28
335.06	7.3
335.271	7.2
335.482	7.35
335.692	7.6
335.903	7.42
336.114	7.6
336.325	7.66
336.535	7.36
336.746	7.17
336.957	6.64
337.167	6.52
337.378	6.25
337.589	6.46
337.799	6.5
338.01	6.75
338.22	6.97
338.431	7.37
338.642	7.59
338.852	7.57
339.063	7.82
339.273	8.19
339.484	8.27
339.694	8.21
339.905	7.72
340.115	7.44
340.326	6.7
340.536	6.69
340.746	6.25
340.957	5.96
341.167	6.18
341.378	6
341.588	5.69
341.799	5.75
342.009	6.28
342.219	6.51
342.43	6.68
342.64	7.06
342.85	6.62
343.061	7.02
343.271	7.4
343.481	7.4
343.691	7.18
343.902	7.6
344.112	7.58
344.322	6.99
344.532	6.84
344.743	6.71
344.953	6.37
345.163	6.77
345.373	6.33
345.583	6.17
345.793	5.92
346.004	5.78
346.214	5.42
346.424	5.18
346.634	5.33
346.844	5.38
347.054	5.52
347.264	5.75
347.474	5.49
347.684	5.9
347.894	5.86
348.104	5.87
348.314	5.95
348.524	5.72
348.734	5.72
348.944	5.78
349.154	5.56
349.364	5.44
349.574	5.25
349.784	5.47
349.994	5.49
350.204	5.62
350.413	5.55
350.623	5.41
350.833	5.47
351.043	5.79
351.253	5.59
351.463	5.79
351.672	5.84
351.882	5.77
352.092	6.03
352.302	5.9
352.511	5.63
352.721	5.75
352.931	5.93
353.141	6.01
353.35	5.73
353.56	6.04
353.77	5.95
353.979	6.08
354.189	6.4
354.399	6.21
354.608	6.06
354.818	6.33
355.027	6.29
355.237	6.29
355.447	6.36
355.656	6.3
355.866	6.13
356.075	6.13
356.285	6.09
356.494	5.89
356.704	5.74
356.913	5.92
357.123	5.85
357.332	5.99
357.542	6.19
357.751	6.11
357.96	6.16
358.17	6.25
358.379	6.52
358.589	6.39
358.798	6.52
359.007	6.7
359.217	6.55
359.426	6.61
359.635	6.53
359.845	6.22
360.054	6.39
360.263	6.41
360.472	6.19
360.682	5.91
360.891	5.88
361.1	5.78
361.309	5.85
361.519	5.75
361.728	5.85
361.937	6.04
362.146	6.22
362.355	5.86
362.564	5.9
362.774	6.08
362.983	6
363.192	5.75
363.401	5.82
363.61	5.66
363.819	5.68
364.028	5.38
364.237	5.31
364.446	5.21
364.655	5.34
364.864	5.46
365.073	5.44
365.282	5.66
365.491	6.04
365.7	5.87
365.909	6.18
366.118	6.26
366.327	6.16
366.536	5.98
366.745	5.99
366.954	5.65
367.162	5.37
367.371	5.13
367.58	4.97
367.789	4.83
367.998	5.13
368.207	4.89
368.415	4.81
368.624	4.84
368.833	4.83
369.042	4.69
369.25	5.08
369.459	5.14
369.668	5.27
369.877	5.42
370.085	5.2
370.294	4.89
370.503	4.72
370.711	4.88
370.92	4.88
371.129	4.98
371.337	4.99
371.546	4.87
371.754	4.91
371.963	4.95
372.171	4.88
372.38	5.09
372.589	5.17
372.797	5.22
373.006	5.11
373.214	4.91
373.423	4.89
373.631	5.18
373.84	5.36
374.048	5.13
374.256	4.88
374.465	4.86
374.673	4.74
374.882	4.7
375.09	4.8
375.298	4.96
375.507	5.02
375.715	4.99
375.923	4.78
376.132	4.67
376.34	4.73
376.548	5.04
376.757	5.16
376.965	5.29
377.173	5.33
377.381	5.23
377.59	4.93
377.798	5.16
378.006	5.03
378.214	4.98
378.423	4.87
378.631	5.01
378.839	4.89
379.047	4.67
379.255	4.68
379.463	4.66
379.671	4.53
379.879	4.83
380.088	4.74
380.296	5.07
380.504	5.21
380.712	5.16
380.92	5.01
381.128	4.74
381.336	4.8
381.544	4.61
381.752	4.65
381.96	4.68
382.168	4.45
382.376	4.45
382.584	4.1
382.791	3.95
382.999	3.77
383.207	3.82
383.415	4.03
383.623	3.85
383.831	3.85
384.039	3.87
384.247	3.81
384.454	4
384.662	4.19
384.87	4.3
385.078	4.65
385.285	4.81
385.493	4.96
385.701	5.14
385.909	5.15
386.116	5.2
386.324	4.97
386.532	4.96
386.739	4.86
386.947	4.49
387.155	4.38
387.362	4.17
387.57	4.24
387.778	3.98
387.985	3.75
388.193	4.18
388.4	4.25
388.608	4.46
388.816	4.57
389.023	4.65
389.231	4.94
389.438	5.09
389.646	5
389.853	5
390.061	5.11
390.268	5.11
390.475	4.97
390.683	5.07
390.89	4.97
391.098	4.81
391.305	4.75
391.512	4.66
391.72	4.36
391.927	4.19
392.135	4.02
392.342	3.96
392.549	4.01
392.756	4.01
392.964	3.81
393.171	3.85
393.378	4.02
393.586	4.05
393.793	3.96
394	4.12
394.207	4.18
394.414	4.48
394.622	4.34
394.829	4.31
395.036	4.15
395.243	4.13
395.45	4.14
395.657	4.01
395.864	3.79
396.072	3.72
396.279	3.53
396.486	3.5
396.693	3.46
396.9	3.58
397.107	3.43
397.314	3.47
397.521	3.68
397.728	3.6
397.935	3.74
398.142	3.85
398.349	3.85
398.556	4.06
398.763	4.28
398.97	4.29
399.177	4.36
399.383	4.67
399.59	4.63
399.797	4.37
400.004	4.42
400.211	4.21
400.418	4.13
400.625	4.37
400.831	4.37
401.038	4.18
401.245	4.02
401.452	4.03
401.658	3.91
401.865	3.95
402.072	4.07
402.279	4.08
402.485	3.96
402.692	4.09
402.899	3.89
403.105	3.85
403.312	3.92
403.519	3.98
403.725	3.98
403.932	3.71
404.138	3.68
404.345	3.66
404.552	3.73
404.758	3.76
404.965	3.76
405.171	3.8
405.378	3.73
405.584	3.69
405.791	3.71
405.997	3.41
406.204	3.68
406.41	3.55
406.617	3.64
406.823	3.49
407.029	3.62
407.236	3.55
407.442	3.55
407.649	3.67
407.855	3.79
408.061	3.71
408.268	3.95
408.474	3.83
408.68	3.98
408.887	3.94
409.093	3.96
409.299	4.13
409.505	4.15
409.712	4.13
409.918	3.97
410.124	3.83
410.33	3.88
410.537	3.79
410.743	3.82
410.949	3.81
411.155	3.75
411.361	3.81
411.567	3.64
411.773	3.58
411.98	3.43
412.186	3.48
412.392	3.59
412.598	3.65
412.804	3.78
413.01	3.85
413.216	3.79
413.422	3.83
413.628	3.64
413.834	3.6
414.04	3.58
414.246	3.71
414.452	3.79
414.658	3.89
414.864	3.83
415.07	3.9
415.275	4.07
415.481	4.15
415.687	4.15
415.893	4.28
416.099	4.3
416.305	4.3
416.511	4.26
416.716	4.21
416.922	4.09
417.128	4.17
417.334	4.13
417.539	3.91
417.745	3.88
417.951	3.86
418.157	3.81
418.362	3.79
418.568	3.77
418.774	3.76
418.979	3.78
419.185	3.71
419.391	3.66
419.596	3.57
419.802	3.63
420.008	3.66
420.213	3.57
420.419	3.58
420.624	3.58
420.83	3.65
421.035	3.69
421.241	3.69
421.446	3.78
421.652	3.74
421.857	3.75
422.063	3.77
422.268	3.68
422.474	3.79
422.679	3.83
422.885	3.68
423.09	3.58
423.295	3.59
423.501	3.59
423.706	3.56
423.911	3.62
424.117	3.67
424.322	3.61
424.527	3.64
424.733	3.63
424.938	3.52
425.143	3.57
425.349	3.64
425.554	3.65
425.759	3.65
425.964	3.65
426.169	3.65
426.375	3.78
426.58	3.71
426.785	3.7
426.99	3.61
427.195	3.77
427.4	3.98
427.605	4
427.811	4.03
428.016	4.08
428.221	4.02
428.426	3.94
428.631	3.8
428.836	3.95
429.041	3.92
429.246	4.03
429.451	3.94
429.656	3.94
429.861	3.88
430.066	3.9
430.271	3.89
430.476	3.91
430.681	3.94
430.886	3.91
431.09	3.94
431.295	4.08
431.5	4.21
431.705	4.25
431.91	4.09
432.115	4.17
432.32	4.11
432.524	4.04
432.729	4.03
432.934	3.96
433.139	3.87
433.343	3.87
433.548	3.8
433.753	3.69
433.958	3.67
434.162	3.81
434.367	3.77
434.572	3.63
434.776	3.77
434.981	3.74
435.186	3.85
435.39	3.97
435.595	3.87
435.799	4.02
436.004	3.99
436.209	3.88
436.413	3.92
436.618	3.93
436.822	4
437.027	3.97
437.231	4.03
437.436	4.01
437.64	3.97
437.845	4.06
438.049	3.96
438.253	3.98
438.458	4.05
438.662	3.97
438.867	4.01
439.071	4.03
439.275	4.03
439.48	4.07
439.684	4
439.888	4.05
440.093	3.99
440.297	3.91
440.501	3.94
440.706	3.95
440.91	4.01
441.114	3.94
441.318	3.95
441.523	3.91
441.727	3.9
441.931	3.93
442.135	3.95
442.339	3.97
442.543	4.07
442.748	4.05
442.952	4.06
443.156	4.02
443.36	4.01
443.564	4.02
443.768	4.04
443.972	3.97
444.176	3.91
444.38	3.88
444.584	3.87
444.788	3.85
444.992	3.74
445.196	3.7
445.4	3.73
445.604	3.75
445.808	3.82
446.012	3.84
446.216	3.87
446.42	3.92
446.624	3.82
446.828	3.82
447.032	3.79
447.235	3.77
447.439	3.82
447.643	3.76
447.847	3.72
448.051	3.55
448.254	3.4
448.458	3.39
448.662	3.43
448.866	3.47
449.069	3.5
449.273	3.59
449.477	3.62
449.681	3.53
449.884	3.59
450.088	3.62
450.292	3.71
450.495	3.89
450.699	3.92
450.902	3.8
451.106	3.88
451.31	3.88
451.513	3.76
451.717	3.85
451.92	3.9
452.124	3.81
452.327	3.8
452.531	3.73
452.734	3.59
452.938	3.54
453.141	3.69
453.345	3.6
453.548	3.61
453.752	3.54
453.955	3.44
454.158	3.41
454.362	3.47
454.565	3.35
454.769	3.48
454.972	3.52
455.175	3.6
455.379	3.55
455.582	3.74
455.785	3.81
455.988	3.96
456.192	4
456.395	4.02
456.598	3.97
456.801	4.09
457.005	4
457.208	3.97
457.411	3.96
457.614	3.93
457.817	3.86
458.021	3.82
458.224	3.82
458.427	3.83
458.63	3.82
458.833	3.86
459.036	3.89
459.239	3.89
459.442	3.9
459.645	3.82
459.848	3.77
460.051	3.68
460.254	3.64
460.457	3.63
460.66	3.66
460.863	3.66
461.066	3.69
461.269	3.68
461.472	3.74
461.675	3.66
461.878	3.74
462.081	3.79
462.284	3.93
462.486	4.02
462.689	4.06
462.892	3.99
463.095	3.99
463.298	3.9
463.5	3.77
463.703	3.72
463.906	3.75
464.109	3.66
464.311	3.72
464.514	3.66
464.717	3.48
464.92	3.49
465.122	3.47
465.325	3.53
465.528	3.67
465.73	3.72
465.933	3.72
466.135	3.72
466.338	3.8
466.541	3.71
466.743	3.61
466.946	3.72
467.148	3.65
467.351	3.75
467.553	3.69
467.756	3.56
467.958	3.61
468.161	3.65
468.363	3.72
468.566	3.57
468.768	3.57
468.971	3.65
469.173	3.59
469.375	3.64
469.578	3.72
469.78	3.84
469.983	3.87
470.185	3.85
470.387	3.89
470.59	3.84
470.792	3.92
470.994	3.99
471.196	4.02
471.399	4.12
471.601	3.99
471.803	3.85
472.005	3.78
472.208	3.71
472.41	3.66
472.612	3.58
472.814	3.61
473.016	3.64
473.218	3.77
473.421	3.78
473.623	3.76
473.825	3.9
474.027	3.92
474.229	3.95
474.431	3.97
474.633	3.99
474.835	4.02
475.037	4.14
475.239	4.2
475.441	4.07
475.643	4.13
475.845	4.14
476.047	4.04
476.249	4.05
476.451	4.02
476.653	4.14
476.855	4.13
477.057	4.1
477.258	4
477.46	3.94
477.662	3.94
477.864	3.81
478.066	3.84
478.268	3.95
478.469	3.92
478.671	3.87
478.873	3.84
479.075	3.97
479.276	4.02
479.478	3.99
479.68	3.97
479.882	4.04
480.083	4.12
480.285	4.05
480.487	4.05
480.688	4.08
480.89	4.1
481.091	4.1
481.293	4.04
481.495	4.02
481.696	4.04
481.898	4.06
482.099	4.02
482.301	4
482.502	4.01
482.704	3.98
482.905	4
483.107	4
483.308	4
483.51	3.98
483.711	4.01
483.913	4.02
484.114	4.03
484.315	4.03
484.517	4.04
484.718	4.05
484.92	4.05
485.121	4
485.322	4.02
485.524	4.03
485.725	4.07
485.926	4.02
486.127	4.05
486.329	4.04
486.53	4.04
486.731	4.06
486.932	4.06
487.134	4.07
487.335	4.1
487.536	4.12
487.737	4.09
487.938	4.07
488.139	4.1
488.341	4.1
488.542	4.1
488.743	4.12
488.944	4.1
489.145	4.12
489.346	4.17
489.547	4.18
489.748	4.14
489.949	4.18
490.15	4.18
490.351	4.19
490.552	4.16
490.753	4.16
490.954	4.16
491.155	4.12
491.356	4.06
491.557	4.03
491.758	3.98
491.959	4.03
492.159	3.97
492.36	3.97
492.561	3.97
492.762	3.91
492.963	3.91
493.164	3.84
493.364	3.9
493.565	4.06
493.766	4.03
493.967	4.05
494.167	3.96
494.368	4
494.569	4.04
494.769	4.05
494.97	4.11
495.171	4.18
495.371	4.2
495.572	4.32
495.773	4.28
495.973	4.24
496.174	4.28
496.375	4.3
496.575	4.34
496.776	4.34
496.976	4.34
497.177	4.36
497.377	4.35
497.578	4.38
497.778	4.35
497.979	4.33
498.179	4.37
498.38	4.39
498.58	4.46
498.78	4.45
498.981	4.46
499.181	4.43
499.382	4.43
499.582	4.42
499.782	4.45
499.983	4.36
500.183	4.4
500.383	4.41
500.584	4.4
500.784	4.36
500.984	4.36
501.184	4.41
501.385	4.42
501.585	4.47
501.785	4.47
501.985	4.55
502.185	4.54
502.386	4.53
502.586	4.59
502.786	4.65
502.986	4.61
503.186	4.52
503.386	4.49
503.586	4.52
503.786	4.47
503.987	4.39
504.187	4.36
504.387	4.32
504.587	4.43
504.787	4.45
504.987	4.43
505.187	4.55
505.387	4.62
505.587	4.64
505.786	4.68
505.986	4.84
506.186	4.88
506.386	4.9
506.586	5
506.786	4.94
506.986	5
507.186	5.1
507.386	5.09
507.585	5.13
507.785	5.14
507.985	5.13
508.185	5.03
508.384	5.05
508.584	5.03
508.784	5.12
508.984	5.13
509.183	5.15
509.383	5.06
509.583	5.1
509.782	5.14
509.982	5.18
510.182	5.26
510.381	5.33
510.581	5.4
510.781	5.5
510.98	5.48
511.18	5.54
511.379	5.52
511.579	5.59
511.778	5.57
511.978	5.68
512.177	5.71
512.377	5.72
512.576	5.74
512.776	5.73
512.975	5.69
513.175	5.69
513.374	5.74
513.573	5.71
513.773	5.73
513.972	5.83
514.172	5.74
514.371	5.75
514.57	5.74
514.77	5.78
514.969	5.84
515.168	5.94
515.367	6.02
515.567	5.97
515.766	6.04
515.965	6.06
516.164	6.05
516.364	6.08
516.563	6.1
516.762	6.1
516.961	6.1
517.16	6.18
517.359	6.15
517.559	6.19
517.758	6.21
517.957	6.22
518.156	6.24
518.355	6.23
518.554	6.22
518.753	6.22
518.952	6.29
519.151	6.27
519.35	6.27
519.549	6.33
519.748	6.27
519.947	6.38
520.146	6.38
520.345	6.43
520.544	6.47
520.743	6.5
520.942	6.49
521.141	6.45
521.339	6.56
521.538	6.5
521.737	6.6
521.936	6.7
522.135	6.7
522.333	6.77
522.532	6.81
522.731	6.91
522.93	7.01
523.129	7.08
523.327	7.12
523.526	7.06
523.725	7.16
523.923	7.12
524.122	7.13
524.321	7.16
524.519	7.15
524.718	7.14
524.917	7.14
525.115	7.12
525.314	7.19
525.512	7.28
525.711	7.38
525.909	7.34
526.108	7.36
526.306	7.41
526.505	7.41
526.703	7.45
526.902	7.49
527.1	7.47
527.299	7.5
527.497	7.49
527.696	7.51
527.894	7.52
528.092	7.54
528.291	7.56
528.489	7.51
528.688	7.53
528.886	7.54
529.084	7.55
529.283	7.59
529.481	7.56
529.679	7.59
529.877	7.63
530.076	7.6
530.274	7.65
530.472	7.7
530.67	7.8
530.869	7.89
531.067	7.91
531.265	7.92
531.463	7.94
531.661	8.02
531.859	8.02
532.057	7.95
532.255	7.99
532.454	8.01
532.652	7.98
532.85	7.98
533.048	7.93
533.246	7.93
533.444	7.94
533.642	7.98
533.84	7.99
534.038	8.06
534.236	8.14
534.434	8.17
534.632	8.22
534.83	8.28
535.027	8.35
535.225	8.39
535.423	8.42
535.621	8.4
535.819	8.39
536.017	8.4
536.215	8.4
536.412	8.34
536.61	8.31
536.808	8.3
537.006	8.33
537.203	8.33
537.401	8.35
537.599	8.35
537.797	8.47
537.994	8.5
538.192	8.62
538.39	8.67
538.587	8.79
538.785	8.88
538.983	8.89
539.18	8.91
539.378	8.91
539.575	8.96
539.773	9.01
539.97	9.04
540.168	9.07
540.366	9.03
540.563	9.03
540.761	8.99
540.958	9.03
541.155	9.06
541.353	9.05
541.55	9.08
541.748	9.1
541.945	9.09
542.143	9.07
542.34	9.09
542.537	9.11
542.735	9.13
542.932	9.16
543.129	9.16
543.327	9.21
543.524	9.3
543.721	9.33
543.919	9.3
544.116	9.42
544.313	9.47
544.51	9.51
544.708	9.61
544.905	9.64
545.102	9.76
545.299	9.85
545.496	9.87
545.693	9.84
545.891	9.9
546.088	9.91
546.285	9.87
546.482	9.91
546.679	9.91
546.876	9.85
547.073	9.84
547.27	9.81
547.467	9.69
547.664	9.72
547.861	9.76
548.058	9.75
548.255	9.78
548.452	9.76
548.649	9.78
548.846	9.85
549.043	9.96
549.24	10.14
549.437	10.11
549.633	10.17
549.83	10.25
550.027	10.22
550.224	10.32
550.421	10.51
550.618	10.62
550.814	10.66
551.011	10.66
551.208	10.72
551.405	10.7
551.601	10.79
551.798	10.79
551.995	10.74
552.191	10.86
552.388	10.87
552.585	10.86
552.781	10.91
552.978	10.97
553.175	11
553.371	11.04
553.568	11.09
553.764	11.05
553.961	11.12
554.157	11.26
554.354	11.24
554.55	11.22
554.747	11.23
554.943	11.14
555.14	11.15
555.336	11.22
555.533	11.23
555.729	11.38
555.926	11.51
556.122	11.56
556.318	11.5
556.515	11.67
556.711	11.74
556.907	11.76
557.104	11.87
557.3	11.98
557.496	12.11
557.693	12.19
557.889	12.18
558.085	12.2
558.281	12.31
558.478	12.45
558.674	12.35
558.87	12.37
559.066	12.42
559.262	12.51
559.459	12.47
559.655	12.5
559.851	12.51
560.047	12.54
560.243	12.68
560.439	12.63
560.635	12.67
560.831	12.83
561.027	12.94
561.223	13.06
561.419	13.06
561.615	13.13
561.811	13.13
562.007	13.24
562.203	13.25
562.399	13.25
562.595	13.41
562.791	13.5
562.987	13.55
563.183	13.45
563.379	13.5
563.575	13.68
563.771	13.59
563.966	13.66
564.162	13.65
564.358	13.69
564.554	13.74
564.75	13.78
564.945	13.83
565.141	13.91
565.337	14.01
565.533	14.01
565.728	14.07
565.924	14.28
566.12	14.31
566.315	14.41
566.511	14.49
566.707	14.44
566.902	14.47
567.098	14.49
567.293	14.52
567.489	14.58
567.684	14.7
567.88	14.79
568.076	14.74
568.271	14.77
568.467	14.86
568.662	14.98
568.858	15.2
569.053	15.22
569.248	15.31
569.444	15.31
569.639	15.38
569.835	15.37
570.03	15.29
570.225	15.39
570.421	15.46
570.616	15.59
570.812	15.57
571.007	15.62
571.202	15.78
571.397	15.7
571.593	15.73
571.788	15.8
571.983	15.84
572.178	15.9
572.374	16
572.569	16.04
572.764	15.91
572.959	15.94
573.154	15.92
573.35	15.94
573.545	16.09
573.74	16.1
573.935	16.17
574.13	16.23
574.325	16.27
574.52	16.29
574.715	16.35
574.91	16.25
575.105	16.29
575.3	16.33
575.495	16.37
575.69	16.44
575.885	16.51
576.08	16.55
576.275	16.53
576.47	16.54
576.665	16.53
576.86	16.56
577.055	16.72
577.25	16.72
577.444	16.71
577.639	16.56
577.834	16.6
578.029	16.77
578.224	16.77
578.418	16.83
578.613	16.97
578.808	16.9
579.003	16.94
579.197	17.09
579.392	17.16
579.587	17.28
579.781	17.4
579.976	17.43
580.171	17.42
580.365	17.38
580.56	17.46
580.755	17.45
580.949	17.59
581.144	17.62
581.338	17.53
581.533	17.56
581.727	17.51
581.922	17.68
582.116	17.74
582.311	17.69
582.505	17.83
582.7	17.86
582.894	17.77
583.089	17.64
583.283	17.75
583.478	17.87
583.672	17.81
583.866	17.79
584.061	17.77
584.255	17.66
584.449	17.83
584.644	17.92
584.838	17.96
585.032	18.1
585.226	18.32
585.421	18.24
585.615	18.31
585.809	18.43
586.003	18.7
586.198	18.72
586.392	18.72
586.586	18.53
586.78	18.47
586.974	18.51
587.168	18.66
587.363	18.66
587.557	18.84
587.751	18.76
587.945	18.77
588.139	18.75
588.333	18.85
588.527	18.98
588.721	19.19
588.915	19.27
589.109	19.13
589.303	19.17
589.497	19.37
589.691	19.36
589.885	19.46
590.079	19.6
590.273	19.57
590.466	19.57
590.66	19.75
590.854	19.65
591.048	19.61
591.242	19.75
591.436	19.67
591.629	19.5
591.823	19.55
592.017	19.72
592.211	19.74
592.404	19.79
592.598	19.92
592.792	19.84
592.986	20.02
593.179	20.12
593.373	20.2
593.567	20.28
593.76	20.57
593.954	20.5
594.147	20.34
594.341	20.32
594.535	20.32
594.728	20.22
594.922	20.24
595.115	20.26
595.309	20.24
595.502	20.34
595.696	20.34
595.889	20.26
596.083	20.25
596.276	20.38
596.47	20.4
596.663	20.48
596.856	20.44
597.05	20.51
597.243	20.34
597.437	20.45
597.63	20.37
597.823	20.39
598.017	20.37
598.21	20.43
598.403	20.48
598.596	20.54
598.79	20.66
598.983	20.73
599.176	20.76
599.369	21.05
599.563	20.97
599.756	21.08
599.949	21.21
600.142	21.14
600.335	21.16
600.528	21.12
600.722	21.25
600.915	21.1
601.108	21.26
601.301	21.34
601.494	21.41
601.687	21.7
601.88	21.75
602.073	21.66
602.266	21.81
602.459	21.77
602.652	21.71
602.845	21.62
603.038	21.77
603.231	21.77
603.424	21.67
603.617	21.58
603.809	21.36
604.002	21.38
604.195	21.35
604.388	21.24
604.581	21.26
604.774	21.4
604.966	21.43
605.159	21.33
605.352	21.29
605.545	21.33
605.737	21.47
605.93	21.58
606.123	21.69
606.316	21.84
606.508	21.85
606.701	22.03
606.894	21.92
607.086	22.03
607.279	21.93
607.471	22.02
607.664	22.09
607.857	22
608.049	22.02
608.242	22
608.434	21.98
608.627	22.1
608.819	21.99
609.012	22.08
609.204	22.04
609.397	22.18
609.589	22.22
609.782	22.15
609.974	22.21
610.166	22.28
610.359	22.32
610.551	22.37
610.743	22.46
610.936	22.62
611.128	22.66
611.32	22.63
611.513	22.62
611.705	22.63
611.897	22.83
612.09	22.85
612.282	22.69
612.474	22.6
612.666	22.52
612.858	22.34
613.051	22.19
613.243	22.18
613.435	22.22
613.627	22.24
613.819	22.26
614.011	22.11
614.203	22.14
614.395	22.15
614.588	22.07
614.78	22.02
614.972	22.21
615.164	22.38
615.356	22.57
615.548	22.58
615.74	22.54
615.932	22.36
616.124	22.47
616.315	22.76
616.507	22.77
616.699	22.8
616.891	22.9
617.083	22.97
617.275	23.15
617.467	23.04
617.659	23.21
617.85	23.29
618.042	23.32
618.234	23.15
618.426	22.9
618.618	23.05
618.809	23.04
619.001	23.11
619.193	22.93
619.384	22.77
619.576	22.87
619.768	22.7
619.959	22.83
620.151	23.07
620.343	23.23
620.534	23.29
620.726	23.31
620.917	23.45
621.109	23.43
621.301	23.59
621.492	23.55
621.684	23.56
621.875	23.64
622.067	23.57
622.258	23.27
622.45	23.27
622.641	23.27
622.832	23.36
623.024	23.32
623.215	23.43
623.407	23.37
623.598	23.51
623.789	23.3
623.981	23.38
624.172	23.53
624.363	23.61
624.555	23.69
624.746	23.87
624.937	23.72
625.129	23.77
625.32	23.74
625.511	23.81
625.702	23.76
625.893	23.93
626.085	23.84
626.276	23.72
626.467	23.66
626.658	23.68
626.849	23.54
627.04	23.69
627.231	23.73
627.422	23.75
627.614	23.75
627.805	23.72
627.996	23.62
628.187	23.72
628.378	23.78
628.569	24.03
628.76	23.92
628.951	23.88
629.142	23.84
629.332	23.71
629.523	23.66
629.714	23.73
629.905	23.85
630.096	23.94
630.287	23.95
630.478	23.92
630.669	23.91
630.859	24.15
631.05	24.1
631.241	24.23
631.432	24.28
631.623	24.37
631.813	24.33
632.004	24.08
632.195	24.01
632.385	23.97
632.576	23.96
632.767	23.83
632.957	23.73
633.148	23.89
633.339	23.69
633.529	23.84
633.72	23.86
633.91	23.74
634.101	24.07
634.292	24.21
634.482	24.28
634.673	24.47
634.863	24.61
635.054	24.64
635.244	24.68
635.435	24.86
635.625	24.82
635.815	24.93
636.006	25.1
636.196	24.88
636.387	24.86
636.577	24.75
636.767	24.68
636.958	24.68
637.148	24.68
637.338	24.47
637.529	24.4
637.719	24.44
637.909	24.36
638.099	24.26
638.29	24.36
638.48	24.16
638.67	24.23
638.86	24.22
639.05	24.37
639.241	24.27
639.431	24.23
639.621	24.31
639.811	24.37
640.001	24.38
640.191	24.74
640.381	24.77
640.571	24.98
640.761	25.06
640.951	25.03
641.141	24.74
641.331	24.97
641.521	25.17
641.711	25.08
641.901	24.99
642.091	25.15
642.281	24.9
642.471	24.97
642.661	24.93
642.851	24.99
643.041	24.93
643.231	25.07
643.42	25.36
643.61	25.4
643.8	25.44
643.99	25.53
644.18	25.44
644.369	25.56
644.559	25.74
644.749	25.79
644.939	25.72
645.128	25.86
645.318	25.87
645.508	25.58
645.697	25.63
645.887	25.66
646.076	25.72
646.266	25.7
646.456	25.67
646.645	25.57
646.835	25.72
647.024	25.62
647.214	25.53
647.403	25.45
647.593	25.42
647.782	25.55
647.972	25.55
648.161	25.47
648.351	25.64
648.54	25.58
648.73	25.5
648.919	25.34
649.108	25.42
649.298	25.56
649.487	25.9
649.677	25.86
649.866	25.85
650.055	25.86
650.244	25.99
650.434	25.56
650.623	25.65
650.812	25.69
651.002	25.75
651.191	25.82
651.38	26
651.569	25.83
651.758	25.83
651.947	25.64
652.137	25.65
652.326	25.45
652.515	25.69
652.704	25.84
652.893	25.79
653.082	25.8
653.271	25.94
653.46	25.65
653.649	25.66
653.838	25.73
654.027	25.78
654.216	25.85
654.405	26.1
654.594	26.11
654.783	25.79
654.972	25.84
655.161	25.95
655.35	25.62
655.539	25.77
655.728	25.96
655.916	26.03
656.105	26.3
656.294	26.14
656.483	26
656.672	26.07
656.86	26.37
657.049	26.34
657.238	26.25
657.427	26.7
657.615	26.58
657.804	26.48
657.993	26.59
658.181	26.59
658.37	26.84
658.559	26.96
658.747	27.05
658.936	26.94
659.125	27.27
659.313	27.4
659.502	27.23
659.69	27.33
659.879	27.4
660.067	27.36
660.256	27.25
660.444	27
660.633	26.87
660.821	26.94
661.01	26.81
661.198	26.58
661.387	26.3
661.575	26.41
661.763	26.47
661.952	26.35
662.14	26.24
662.328	26.07
662.517	26.05
662.705	26.2
662.893	26.1
663.082	26.22
663.27	26.25
663.458	26.55
663.646	26.64
663.834	26.6
664.023	26.76
664.211	26.93
664.399	27.16
664.587	27.26
664.775	26.95
664.963	26.9
665.152	26.98
665.34	26.98
665.528	26.81
665.716	26.54
665.904	26.51
666.092	26.41
666.28	26.22
666.468	26.22
666.656	26.17
666.844	26.57
667.032	26.56
667.22	26.52
667.408	26.59
667.596	26.72
667.784	26.5
667.971	26.58
668.159	26.8
668.347	26.91
668.535	26.9
668.723	27.24
668.911	27.08
669.098	27.14
669.286	27.01
669.474	26.82
669.662	26.62
669.849	26.81
670.037	26.83
670.225	26.69
670.413	26.67
670.6	26.64
670.788	26.25
670.976	26.29
671.163	26.32
671.351	26.56
671.538	26.61
671.726	26.83
671.913	26.77
672.101	26.71
672.289	26.84
672.476	26.75
672.664	26.5
672.851	26.9
673.039	26.92
673.226	26.96
673.413	27.07
673.601	27.08
673.788	26.91
673.976	27
674.163	27.08
674.35	27.06
674.538	27.33
674.725	27.51
674.912	26.97
675.1	27.02
675.287	26.89
675.474	27.07
675.662	27.23
675.849	27.49
676.036	27.65
676.223	27.67
676.411	27.61
676.598	27.53
676.785	27.73
676.972	28.12
677.159	28.04
677.346	28.01
677.533	27.74
677.721	27.72
677.908	27.54
678.095	27.48
678.282	27.55
678.469	27.52
678.656	27.55
678.843	27.51
679.03	27.46
679.217	27.81
679.404	28.07
679.591	28.02
679.778	28.07
679.964	28.18
680.151	28.27
680.338	28.27
680.525	28.1
680.712	27.94
680.899	28.09
681.086	28.1
681.272	27.89
681.459	27.74
681.646	27.61
681.833	27.67
682.02	27.53
682.206	27.44
682.393	27.45
682.58	27.41
682.766	27.5
682.953	27.34
683.14	27.24
683.326	27.33
683.513	27.38
683.7	27.63
683.886	27.68
684.073	27.92
684.259	27.99
684.446	27.93
684.632	28.4
684.819	28.45
685.005	28.18
685.192	28.35
685.378	28.34
685.565	28.07
685.751	28.09
685.938	27.73
686.124	27.49
686.31	27.61
686.497	27.46
686.683	27.42
686.87	27.51
687.056	27.77
687.242	27.83
687.429	27.86
687.615	28.18
687.801	28
687.987	28.18
688.174	28.34
688.36	28.38
688.546	28.44
688.732	28.31
688.918	28.35
689.105	28.17
689.291	28.05
689.477	27.9
689.663	27.63
689.849	27.87
690.035	27.84
690.221	27.96
690.407	27.91
690.593	28
690.779	28.2
690.965	27.71
691.151	27.75
691.337	27.84
691.523	27.72
691.709	27.89
691.895	27.98
692.081	28.19
692.267	28.04
692.453	27.66
692.639	27.82
692.825	27.5
693.011	28.08
693.196	28.11
693.382	28.04
693.568	28.19
693.754	28.14
693.94	27.96
694.125	27.82
694.311	27.82
694.497	28.14
694.682	28.07
694.868	28.27
695.054	28.24
695.239	28.45
695.425	28.4
695.611	28.46
695.796	28.79
695.982	28.83
696.168	28.92
696.353	29.05
696.539	29.26
696.724	29.32
696.91	29.09
697.095	29.11
697.281	29.16
697.466	29.45
697.652	29.33
697.837	29.06
698.023	28.97
698.208	28.99
698.393	29.17
698.579	28.89
698.764	28.78
698.949	28.94
699.135	28.9
699.32	28.76
699.505	28.57
699.691	28.85
699.876	28.74
700.061	28.86
700.246	28.78
700.432	28.27
700.617	28.42
700.802	28.29
700.987	28.37
701.172	27.89
701.358	27.7
701.543	28.09
701.728	27.82
701.913	28.13
702.098	28.22
702.283	28.27
702.468	28.51
702.653	28.69
702.838	28.86
703.023	28.67
703.208	29.31
703.393	29.58
703.578	29.1
703.763	29.15
703.948	29.36
704.133	29.29
704.318	29.07
704.503	29.24
704.688	29.19
704.873	29.28
705.057	29.35
705.242	29.03
705.427	28.82
705.612	28.86
705.797	28.92
705.981	28.73
706.166	28.43
706.351	28.36
706.536	28.17
706.72	27.54
706.905	27.55
707.09	27.66
707.274	27.74
707.459	28.17
707.644	28.22
707.828	28.14
708.013	27.94
708.197	28.38
708.382	28.55
708.567	29
708.751	29.64
708.936	29.81
709.12	29.41
709.305	29.51
709.489	28.71
709.673	28.5
709.858	28.61
710.042	28.55
710.227	28.32
710.411	28.46
710.596	28.34
710.78	28.15
710.964	27.89
711.149	28.42
711.333	28.28
711.517	28.87
711.702	28.92
711.886	28.81
712.07	28.96
712.254	29.15
712.438	29.13
712.623	28.93
712.807	28.95
712.991	28.96
713.175	28.9
713.359	29.19
713.544	29.13
713.728	29.28
713.912	29.31
714.096	29.31
714.28	29.24
714.464	28.98
714.648	29.09
714.832	29.19
715.016	29.35
715.2	29.21
715.384	29.13
715.568	29.34
715.752	29.31
715.936	29.33
716.12	29.52
716.304	29.82
716.488	30.16
716.671	30.32
716.855	30.41
717.039	29.98
717.223	29.68
717.407	29.31
717.59	28.85
717.774	28.94
717.958	28.76
718.142	28.49
718.325	27.93
718.509	27.7
718.693	27.4
718.877	27.32
719.06	27.76
719.244	28.25
719.428	28.33
719.611	28.36
719.795	28.38
719.978	28.91
720.162	28.64
720.345	28.67
720.529	29.17
720.713	29.3
720.896	28.99
721.08	28.59
721.263	28.27
721.446	28.72
721.63	28.68
721.813	28.6
721.997	28.21
722.18	28.71
722.364	29.16
722.547	28.88
722.73	28.79
722.914	28.82
723.097	28.74
723.28	28.43
723.464	28.02
723.647	28.52
723.83	28.7
724.013	28.47
724.197	28.28
724.38	28.35
724.563	28.16
724.746	28.28
724.929	28.33
725.112	28.57
725.296	29.26
725.479	29.74
725.662	29.72
725.845	29.7
726.028	30.19
726.211	30.05
726.394	29.54
726.577	29.75
726.76	30.19
726.943	30.3
727.126	29.99
727.309	29.55
727.492	29.29
727.675	29.18
727.858	29.06
728.041	28.84
728.224	28.96
728.407	28.82
728.589	28.58
728.772	27.79
728.955	28.01
729.138	28.28
729.321	28.2
729.503	28.44
729.686	28.39
729.869	28.2
730.052	28.05
730.234	28.12
730.417	28.36
730.6	28.4
730.782	28.45
730.965	28.28
731.148	28.37
731.33	29
731.513	28.85
731.695	28.57
731.878	28.78
732.061	28.97
732.243	28.81
732.426	28.92
732.608	29.28
732.791	29.34
732.973	29.4
733.156	29.72
733.338	29.36
733.52	29.32
733.703	29.38
733.885	29.45
734.068	29.33
734.25	29.51
734.432	29.53
734.615	28.91
734.797	29
734.979	28.9
735.162	28.63
735.344	28.75
735.526	29.01
735.708	29.48
735.891	29.03
736.073	29.08
736.255	29.45
736.437	29.42
736.619	29.67
736.802	30.04
736.984	29.77
737.166	29.73
737.348	29.52
737.53	29.48
737.712	29.25
737.894	29.42
738.076	29.14
738.258	28.69
738.44	28.31
738.622	28.77
738.804	28.8
738.986	28.78
739.168	29.1
739.35	28.9
739.532	28.7
739.714	28.57
739.896	28.9
740.078	29.1
740.259	29.41
740.441	29.36
740.623	28.79
740.805	28.46
740.987	29.08
741.168	28.24
741.35	28.26
741.532	27.69
741.714	27.74
741.895	27.43
742.077	27.46
742.259	27.54
742.44	27.62
742.622	27.91
742.804	27.66
742.985	26.61
743.167	27.33
743.348	27.75
743.53	28.11
743.711	28.95
743.893	29.22
744.075	29.4
744.256	28.46
744.438	29.11
744.619	28.7
744.8	29.1
744.982	29.65
745.163	29
745.345	28.96
745.526	29.63
745.707	29.33
745.889	29.29
746.07	29.26
746.252	29.39
746.433	29.14
746.614	29.6
746.795	28.95
746.977	29.58
747.158	29.7
747.339	29.94
747.52	29.62
747.702	29.68
747.883	29.38
748.064	29.78
748.245	30.49
748.426	30.22
748.607	30.27
748.788	30.51
748.97	30.09
749.151	30.42
749.332	30.48
749.513	30.32
749.694	29.96
749.875	30.23
750.056	29.92
750.237	29.75
750.418	29.9
750.599	30.13
750.78	30.12
750.96	30.18
751.141	29.76
751.322	29.37
751.503	29.4
751.684	29.27
751.865	29.75
752.046	29.58
752.226	29.3
752.407	29.03
752.588	28.27
752.769	27.99
752.949	27.82
753.13	28.4
753.311	28.74
753.492	28.88
753.672	28.04
753.853	27.2
754.034	27.2
754.214	26.62
754.395	26.92
754.575	26.79
754.756	26.96
754.937	27.28
755.117	26.63
755.298	25.83
755.478	25.5
755.659	25.77
755.839	25.19
756.02	25.17
756.2	26.17
756.381	25.82
756.561	26.09
756.741	26.13
756.922	26.24
757.102	26.72
757.283	27.38
757.463	26.74
757.643	27.62
757.823	27.9
758.004	27.65
758.184	27.51
758.364	28.35
758.545	27.99
758.725	28.35
758.905	27.22
759.085	27.37
759.265	27.42
759.446	27.99
759.626	26.94
759.806	27.02
759.986	27.51
760.166	28.16
760.346	27.83
760.526	28.35
760.706	28.23
760.886	28.79
761.066	28.97
761.246	29.18
761.426	29.55
761.606	30.03
761.786	30.35
761.966	29.87
762.146	29.81
762.326	30.03
762.506	29.92
762.686	29.65
762.866	29.42
763.046	29.3
763.225	28.53
763.405	28.3
763.585	28.28
763.765	28.15
763.945	28.09
764.124	27.6
764.304	27.41
764.484	27.57
764.664	27.83
764.843	27.93
765.023	27.84
765.203	28.42
765.382	28.19
765.562	28.6
765.741	28.81
765.921	29.13
766.101	29.42
766.28	28.88
766.46	28.76
766.639	28.53
766.819	29.62
766.998	29.62
767.178	29.87
767.357	30.14
767.537	29.62
767.716	29.28
767.896	28.91
768.075	28.3
768.254	29.39
768.434	29.53
768.613	29.18
768.792	27.47
768.972	26.81
769.151	26.4
769.33	26.37
769.51	26.53
769.689	26.8
769.868	26.81
770.047	27.4
770.226	26.45
770.406	25.92
770.585	26.71
770.764	27.78
770.943	28.23
771.122	28.45
771.301	28.68
771.48	28.58
771.66	29.06
771.839	28.44
772.018	28.27
772.197	28.87
772.376	29.35
772.555	29.7
772.734	28.98
772.913	28.93
773.092	29.17
773.271	28.72
773.449	29.7
773.628	29.2
773.807	29.91
773.986	29.95
774.165	29.11
774.344	28.74
774.523	28.42
774.701	28.42
774.88	29.28
775.059	27.77
775.238	28
775.417	26.81
775.595	27.59
775.774	27.16
775.953	26.83
776.131	27.32
776.31	27.28
776.489	27.72
776.667	27.76
776.846	27.3
777.025	27.49
777.203	27.49
777.382	28.24
777.56	27.91
777.739	28.43
777.917	28.64
778.096	28.26
778.274	28.65
778.453	27.4
778.631	27.41
778.81	27.33
778.988	28.73
779.166	28.76
779.345	28.5
779.523	27.52
779.702	27.11
779.88	27.63
780.058	27.97
780.237	27.67
780.415	27.78
780.593	28.74
780.771	28.4
780.95	27.95
781.128	28.23
781.306	28.32
781.484	29.32
781.662	28.97
781.841	28.84
782.019	28.85
782.197	28.14
782.375	28.93
782.553	27.19
782.731	27.2
782.909	26.88
783.087	26.72
783.265	26.18
783.443	25.86
783.621	27.04
783.799	25.96
783.977	26.78
784.155	28.04
784.333	28.56
784.511	29.91
784.689	30.1
784.867	29.72
785.045	29.92
785.223	30.2
785.4	30.85
785.578	30.05
785.756	30.79
785.934	29.9
786.112	29.11
786.289	27.97
786.467	27.22
786.645	27.7
786.823	27.92
787	27.71
787.178	28.01
787.356	26.37
787.533	26.62
787.711	26.44
787.889	25.78
788.066	26.52
788.244	26.16
788.421	26.67
788.599	26.35
788.776	27.21
788.954	26.68
789.131	26.49
789.309	27.88
789.486	28.57
789.664	28.75
789.841	30.05
790.019	29.41
790.196	29.74
790.373	30.11
790.551	30.53
790.728	29.95
790.906	30.54
791.083	31.19
791.26	29.71
791.437	29.69
791.615	29.85
791.792	29.42
791.969	30.09
792.146	30.21
792.324	29.47
792.501	28.89
792.678	29.01
792.855	29.24
793.032	28.33
793.209	29.51
793.387	29.31
793.564	29.07
793.741	29.07
793.918	28.63
794.095	28.63
794.272	30.15
794.449	30.43
794.626	29.36
794.803	29.3
794.98	29.34
795.157	29.3
795.334	30.07
795.511	30.02
795.688	29.76
795.864	30.83
796.041	30.81
796.218	29.7
796.395	29.25
796.572	29.37
796.749	28.73
796.925	28.26
797.102	28.58
797.279	27.55
797.456	27.37
797.632	27.14
797.809	25.74
797.986	25.37
798.162	25.88
798.339	25.44
798.516	25.97
798.692	25.31
798.869	24.84
799.046	23.18
799.222	23.12
799.399	24.57
799.575	24.77
799.752	25.99
799.928	26.9
800.105	27.05
800.281	27.23
800.458	27.7
800.634	28.62
800.811	29.78
800.987	30.62
801.163	29.5
801.34	27.91
801.516	27.74
801.692	26.14
801.869	26.48
802.045	25.9
802.221	26.67
802.398	26.08
802.574	26.24
802.75	25.87
802.926	25.49
803.103	25.36
803.279	24.43
803.455	24.39
803.631	24.87
803.807	24.17
803.983	25.87
804.16	25.96
804.336	26.08
804.512	24.99
804.688	24.9
804.864	26.2
805.04	26.51
805.216	27.59
805.392	27.6
805.568	27.32
805.744	27
805.92	24.72
806.096	24.61
806.272	24.83
806.448	26.48
806.623	26.68
806.799	25.95
806.975	27.57
807.151	27.89
807.327	28.52
807.503	28.46
807.678	28.99
807.854	30.2
808.03	30.79
808.206	30.21
808.381	29.81
808.557	29.28
808.733	29.05
808.908	29.13
809.084	28.59
809.26	28.31
809.435	29.12
809.611	29.06
809.787	27.99
809.962	27.42
810.138	28.18
810.313	26.88
810.489	27.25
810.664	27.77
810.84	26.7
811.015	27.64
811.191	28.78
811.366	29.42
811.542	28.81
811.717	28.65
811.892	29.02
812.068	29.64
812.243	31.05
812.419	32.25
812.594	31.49
812.769	31.63
812.944	30.29
813.12	28.84
813.295	28.85
813.47	29.28
813.645	29.18
813.821	29.45
813.996	28.37
814.171	26.32
814.346	26.87
814.521	26.72
814.697	25.96
814.872	28.2
815.047	27.61
815.222	26.73
815.397	25.84
815.572	26.59
815.747	25.29
815.922	24.77
816.097	25.69
816.272	24.69
816.447	25.35
816.622	26.63
816.797	25.27
816.972	25.98
817.147	26.03
817.322	26.13
817.496	25.75
817.671	24.97
817.846	25.55
818.021	26.22
818.196	25.98
818.371	25.82
818.545	25.3
818.72	25.09
818.895	25.61
819.069	25.09
819.244	26.7
819.419	27.82
819.594	28.1
819.768	28.12
819.943	28.44
820.117	28.16
820.292	28.12
820.467	28.28
820.641	28.47
820.816	28.26
820.99	28.41
821.165	28.13
821.339	28.05
821.514	28.09
821.688	28.2
821.863	28.34
822.037	28.22
822.212	28.6
822.386	28.55
822.56	28.45
822.735	28.51
822.909	28.62
823.084	28.56
823.258	28.54
823.432	28.72
823.606	28.83
823.781	28.55
823.955	28.91
824.129	28.84
824.303	28.97
824.478	29.45
824.652	29.41
824.826	29.59
825	29.45
825.174	29.23
825.348	29.05
825.523	28.63
825.697	28.78
825.871	28.84
826.045	28.49
826.219	28.67
826.393	28.76
826.567	28.7
826.741	28.5
826.915	28.3
827.089	28.62
827.263	28.7
827.437	29.15
827.611	29.27
827.784	28.96
827.958	29.07
828.132	28.53
828.306	27.79
828.48	27.64
828.654	27.43
828.827	27.77
829.001	27.1
829.175	27.09
829.349	27.4
829.522	27.77
829.696	28.36
829.87	28.51
830.044	28.71
830.217	29.41
830.391	30.56
830.565	30.65
830.738	31.15
830.912	31.37
831.085	31.59
831.259	30.81
831.432	30.43
831.606	30.85
831.779	31.61
831.953	31.77
832.126	30.94
832.3	30.57
832.473	30.37
832.647	30.13
832.82	30.09
832.994	29.4
833.167	29.59
833.34	28.94
833.514	28.24
833.687	27.47
833.86	26.8
834.034	26.39
834.207	26.25
834.38	26.28
834.553	26.49
834.727	26.86
834.9	27.21
835.073	26.38
835.246	26.32
835.419	26.83
835.593	26.28
835.766	26.35
835.939	26.36
836.112	25.57
836.285	25.45
836.458	23.91
836.631	22.25
836.804	22.49
836.977	22.15
837.15	21.8
837.323	19.27
837.496	20.02
837.669	19.91
837.842	19.92
838.015	18.95
838.188	19.15
838.361	21.85
838.533	22.37
838.706	22.19
838.879	23.28
839.052	25.3
839.225	26.08
839.398	25.64
839.57	27.13
839.743	28.5
839.916	29.87
840.088	29.44
840.261	27.37
840.434	28.83
840.607	28.51
840.779	27.98
840.952	27.16
841.124	27.51
841.297	27.49
841.47	26.39
841.642	26.47
841.815	26.27
841.987	27.52
842.16	27.04
842.332	25.31
842.505	24.64
842.677	24.37
842.85	23.74
843.022	24.05
843.194	26.14
843.367	26.2
843.539	25.83
843.712	27.05
843.884	28.81
844.056	30.49
844.229	31.72
844.401	34.17
844.573	32.3
844.745	31.62
844.918	33.42
845.09	31.87
845.262	32.89
845.434	32.95
845.606	30.16
845.779	26.52
845.951	27.8
846.123	24.39
846.295	22.27
846.467	24.75
846.639	24.93
846.811	21.63
846.983	22.22
847.155	19.81
847.327	20.4
847.499	20.54
847.671	21.31
847.843	20.6
848.015	22.93
848.187	24.3
848.359	23.63
848.531	25.49
848.703	26.83
848.875	27.93
849.047	34.56
849.218	34.76
849.39	35.3
849.562	34.96
849.734	32.4
849.905	34.44
850.077	33.08
850.249	34.95
850.421	34.12
850.592	34.95
850.764	32.91
850.936	28.75
851.107	27.99
851.279	29.47
851.451	29.26
851.622	30.77
851.794	29.55
851.965	28.08
852.137	23.54
852.308	23.07
852.48	21.41
852.651	16.66
852.823	16.99
852.994	15.97
853.166	15.77
853.337	17.81
853.509	14.12
853.68	13.67
853.851	17.58
854.023	24.02
854.194	21.15
854.365	22.11
854.537	26.41
854.708	27.06
854.879	26.52
855.05	24.29
855.222	23.3
855.393	24.6
855.564	26.44
855.735	22.17
855.906	17.27
856.078	20.75
856.249	19.26
856.42	20.8
856.591	18.53
856.762	20.42
856.933	19.96
857.104	16.48
857.275	19.16
857.446	15.8
857.617	19.59
857.788	22.26
857.959	19.13
858.13	22.62
858.301	20.29
858.472	22.66
858.643	19.87
858.814	20.59
858.985	21.1
859.155	26.15
859.326	24.61
859.497	23.57
859.668	24.25
859.839	26.37
860.009	26.82
860.18	27.33
860.351	26.21
860.522	26.92
860.692	25.33
860.863	25.6
861.034	20.3
861.204	20.86
861.375	19.95
861.546	17.85
861.716	11.4
861.887	8.05
862.057	9.64
862.228	8.25
862.398	4.79
862.569	10.33
862.739	14.97
862.91	16.21
863.08	22.41
863.251	19.68
863.421	16.76
863.592	25.37
863.762	26.59
863.932	24.34
864.103	25.34
864.273	30.62
864.443	30.06
864.614	28.14
864.784	25.87
864.954	21.24
865.125	24.96
865.295	24.45
865.465	18.23
865.635	18.11
865.805	21.43
865.976	21.26
866.146	20.75
866.316	16.44
866.486	16.72
866.656	20.05
866.826	20.46
866.996	15.26
867.166	19.06
867.336	21.71
867.506	21.62
867.676	20.07
867.846	22.11
868.016	21.93
868.186	23.65
868.356	19.05
868.526	18.31
868.696	18.43
868.866	22.87
869.036	20.23
869.206	23.39
869.376	21.03
869.545	18.15
869.715	17.64
869.885	19.17
870.055	20.72
870.224	30.43
870.394	30.93
870.564	32.49
870.734	28.64
870.903	31.84
871.073	29.29
871.243	30.96
871.412	33.13
871.582	31.33
871.751	28.32
871.921	29.71
872.091	21.92
872.26	21.87
872.43	22.17
872.599	25.77
872.769	28.53
872.938	28.52
873.108	26.62
873.277	24.51
873.446	22.16
873.616	21.4
873.785	17.51
873.955	16.89
874.124	20.84
874.293	19.45
874.463	16.29
874.632	13.02
874.801	11.47
874.971	13.78
875.14	18.4
875.309	20.37
875.478	21.7
875.647	21.67
875.817	19.23
875.986	13.81
876.155	10.09
876.324	9.25
876.493	12.49
876.662	12.67
876.831	11.07
877	11.07
877.17	10.75
877.339	7.45
877.508	11.49
877.677	12.99
877.846	18.03
878.015	20.61
878.184	22.49
878.352	19.26
878.521	20.84
878.69	21.15
878.859	20.78
879.028	20.2
879.197	24.77
879.366	22.57
879.534	26.44
879.703	23.76
879.872	24.37
880.041	24.99
880.21	25.45
880.378	24.55
880.547	25.05
880.716	25.41
880.884	25.8
881.053	23.77
881.222	24.84
881.39	24.34
881.559	25.48
881.727	26.27
881.896	26.23
882.065	26.45
882.233	26.43
882.402	26.61
882.57	26.28
882.739	26.6
882.907	27.99
883.076	27.46
883.244	27.67
883.412	26.45
883.581	25.78
883.749	25.84
883.918	25.87
884.086	26.29
884.254	26.83
884.423	26.82
884.591	26.25
884.759	24.98
884.927	25.67
885.096	26.11
885.264	27.24
885.432	28.17
885.6	28.19
885.769	28.74
885.937	28.5
886.105	26.08
886.273	25.03
886.441	26.08
886.609	25.66
886.777	23.58
886.945	21.26
887.113	20.22
887.281	20.26
887.449	19.13
887.617	17.31
887.785	16.27
887.953	19.18
888.121	20.86
888.289	19.35
888.457	19.81
888.625	20.27
888.793	23.45
888.961	23.34
889.129	22.15
889.296	18.19
889.464	19
889.632	19.61
889.8	17.41
889.967	16.53
890.135	18.49
