Data from 2938547_Reflection_3.txt Node
Date: Mon Jun 15 00:17:17 EDT 2015
User: robert
Spectrometer: USB4E03002
Autoset integration time: false
Trigger mode: 4
Integration Time (sec): 1.000000E-1
Scans to average: 10
Electric dark correction enabled: true
Nonlinearity correction enabled: false
Boxcar width: 5
Stray light correction enabled: false
XAxis mode: Wavelengths
Stop averaging: false
Number of Pixels in Spectrum: 3648
>>>>>Begin Spectral Data<<<<<
177.575	81.07
177.794	72.37
178.014	53.39
178.233	24.79
178.452	12.06
178.672	-9.98
178.891	-48.88
179.11	178.72
179.33	190.84
179.549	39.48
179.768	19.15
179.987	-9.3
180.207	-22.76
180.426	-181.55
180.645	-134.2
180.864	-244.53
181.084	-273.92
181.303	-1009.12
181.522	895.98
181.741	-847.32
181.96	3561.98
182.179	293.83
182.398	482.21
182.618	336.54
182.837	-3704.79
183.056	-474.05
183.275	-252.46
183.494	1236.95
183.713	-406.55
183.932	310.24
184.151	194.39
184.37	179.03
184.589	152.92
184.808	112.88
185.027	148.42
185.246	122.71
185.465	119.86
185.684	86.54
185.903	88.83
186.122	37.47
186.341	70.67
186.56	42.9
186.779	163.95
186.998	94.79
187.216	125.85
187.435	157.49
187.654	106.46
187.873	89.29
188.092	55.98
188.311	59.65
188.53	39.79
188.748	54.25
188.967	49.32
189.186	47.22
189.405	13.52
189.623	-25.68
189.842	-19.29
190.061	3.21
190.28	13.17
190.498	45.48
190.717	-7.27
190.936	-18.64
191.154	-268.77
191.373	-3261.67
191.592	-747.98
191.81	232.48
192.029	176.16
192.248	201.33
192.466	189.82
192.685	175.85
192.904	136.55
193.122	141.69
193.341	222.09
193.559	207.84
193.778	140.18
193.996	46.68
194.215	-60.79
194.433	42.64
194.652	62.16
194.87	31.93
195.089	587.29
195.307	71.23
195.526	70.44
195.744	38.35
195.963	357.22
196.181	1871.22
196.399	1219.69
196.618	1424.55
196.836	2484.36
197.055	388.09
197.273	1195.67
197.491	413.24
197.71	211.72
197.928	259.46
198.146	335.06
198.365	410.54
198.583	778.6
198.801	-1058.04
199.019	1151.67
199.238	-19368.97
199.456	-163.97
199.674	-595.66
199.892	-599.27
200.111	-35.5
200.329	-11.21
200.547	-11.51
200.765	-999.09
200.983	-124.3
201.202	-1081.32
201.42	-371.87
201.638	-198.66
201.856	258.18
202.074	356.3
202.292	-246.34
202.51	-241.56
202.728	-246.2
202.946	500.68
203.165	181.5
203.383	306.46
203.601	202.73
203.819	297.55
204.037	182.7
204.255	165.13
204.473	187.82
204.691	119.54
204.909	81.4
205.127	90.56
205.345	100.89
205.562	100.85
205.78	98.07
205.998	174.39
206.216	179.16
206.434	829.92
206.652	-112.06
206.87	-196.12
207.088	-190.06
207.306	-12.9
207.523	-21.53
207.741	-89.81
207.959	-93.33
208.177	-1933.08
208.395	-259.03
208.612	-252.53
208.83	757.59
209.048	321.45
209.266	212.35
209.483	153.09
209.701	118.68
209.919	112.09
210.136	123.77
210.354	164.45
210.572	136.92
210.79	122.56
211.007	120.95
211.225	165.51
211.442	186.6
211.66	225.84
211.878	312.78
212.095	255.47
212.313	105.51
212.53	106.11
212.748	98.44
212.966	95.84
213.183	66.16
213.401	36.57
213.618	35.11
213.836	31.43
214.053	52.7
214.271	63.36
214.488	38.86
214.705	33.55
214.923	42.32
215.14	31.75
215.358	54.58
215.575	76.28
215.793	78.89
216.01	27.26
216.227	51.51
216.445	53.71
216.662	51.14
216.879	65.3
217.097	81.95
217.314	61.9
217.531	62.37
217.749	52.67
217.966	54.82
218.183	39.67
218.4	49.22
218.618	50.64
218.835	44.58
219.052	32.1
219.269	26.95
219.487	25.36
219.704	28.07
219.921	27.84
220.138	24.53
220.355	2.93
220.572	10.9
220.79	11.19
221.007	-8.1
221.224	-28.49
221.441	1.31
221.658	7.65
221.875	14.08
222.092	22.41
222.309	13.75
222.526	21.26
222.743	20.08
222.96	19.7
223.177	24.21
223.394	28.94
223.611	29.63
223.828	23.04
224.045	23.54
224.262	16.22
224.479	6.55
224.696	12.46
224.913	9.03
225.13	13.51
225.347	13
225.564	10.28
225.781	7.4
225.997	6.73
226.214	5.19
226.431	4.02
226.648	5.12
226.865	6.84
227.082	5.68
227.298	6.63
227.515	6.36
227.732	7.2
227.949	7.58
228.165	8.79
228.382	9.42
228.599	9.21
228.816	10.66
229.032	10.25
229.249	10.4
229.466	10.69
229.682	10.7
229.899	11.22
230.116	11.48
230.332	10.76
230.549	7.94
230.765	8.01
230.982	10.62
231.199	8.39
231.415	9.65
231.632	8.56
231.848	9.58
232.065	8.07
232.281	6.88
232.498	4.65
232.714	4.25
232.931	5.23
233.147	5.58
233.364	3.6
233.58	5.07
233.797	6.33
234.013	7.75
234.23	8.62
234.446	8.22
234.662	10.63
234.879	12.07
235.095	14.43
235.312	16.14
235.528	16.78
235.744	16.89
235.961	13.8
236.177	14.16
236.393	13.97
236.61	13.29
236.826	13.88
237.042	12.2
237.258	12.26
237.475	10.01
237.691	9.44
237.907	8.14
238.123	9.18
238.339	11.16
238.556	9.51
238.772	8.75
238.988	9.19
239.204	8.55
239.42	6.83
239.636	6.76
239.853	7.96
240.069	7.77
240.285	7.25
240.501	7.2
240.717	6.78
240.933	7.12
241.149	7.38
241.365	6.59
241.581	6.83
241.797	7.72
242.013	7.34
242.229	6.53
242.445	6.44
242.661	7.36
242.877	6.93
243.093	7.04
243.309	7.73
243.525	7.18
243.741	7.37
243.957	6.95
244.173	6.77
244.388	7.39
244.604	7.47
244.82	8.13
245.036	7.68
245.252	7.86
245.468	7.58
245.683	6.99
245.899	6.58
246.115	6.66
246.331	6.92
246.547	6.55
246.762	6.2
246.978	6.24
247.194	6.07
247.409	5.68
247.625	5.48
247.841	5.49
248.057	5.53
248.272	6.2
248.488	5.99
248.703	5.74
248.919	6.55
249.135	6.32
249.35	6.33
249.566	5.9
249.782	6.62
249.997	7.4
250.213	7.49
250.428	7.46
250.644	7.78
250.859	7.12
251.075	7.15
251.29	7.62
251.506	8.06
251.721	7.85
251.937	7.61
252.152	7.26
252.368	6.65
252.583	7.08
252.798	6.56
253.014	6.11
253.229	5.7
253.445	5.47
253.66	4.32
253.875	4.58
254.091	5.16
254.306	5.29
254.521	4.7
254.737	5.13
254.952	3.7
255.167	4.34
255.383	4.12
255.598	4.84
255.813	4.32
256.028	4.52
256.244	3.53
256.459	3.25
256.674	3.43
256.889	4.51
257.104	4.52
257.32	5.42
257.535	5.64
257.75	5.72
257.965	5.63
258.18	5.77
258.395	5.81
258.61	5.83
258.826	5.7
259.041	5.9
259.256	5.78
259.471	5.51
259.686	5
259.901	5.06
260.116	4.99
260.331	5.2
260.546	5.37
260.761	5.54
260.976	5.85
261.191	6.3
261.406	5.73
261.621	5.18
261.836	5.73
262.05	6.96
262.265	7.2
262.48	7.34
262.695	7.28
262.91	6.81
263.125	6.02
263.34	6.17
263.555	6.43
263.769	6.65
263.984	6.46
264.199	6.27
264.414	5.71
264.629	5.63
264.843	5.46
265.058	5.9
265.273	5.84
265.488	6.41
265.702	6.06
265.917	6.14
266.132	6.32
266.346	6.43
266.561	5.73
266.776	5.52
266.99	5.21
267.205	5.6
267.42	5.36
267.634	5.84
267.849	6.04
268.063	6.25
268.278	6.18
268.492	5.51
268.707	6.11
268.922	6.92
269.136	6.92
269.351	6.95
269.565	6.37
269.78	6.47
269.994	6.25
270.209	5.56
270.423	5.66
270.637	5.12
270.852	5.41
271.066	4.96
271.281	4.73
271.495	4.74
271.709	4.83
271.924	5.06
272.138	4.62
272.353	5.06
272.567	5.49
272.781	5.28
272.996	5.77
273.21	6.03
273.424	6.22
273.638	6.49
273.853	6.66
274.067	6.05
274.281	5.91
274.495	6.03
274.71	5.47
274.924	5.16
275.138	5.16
275.352	5.04
275.566	4.72
275.781	4.48
275.995	4.37
276.209	3.76
276.423	4.42
276.637	4.9
276.851	4.96
277.065	4.92
277.279	5.14
277.493	5.36
277.707	5.45
277.921	6.35
278.135	6.94
278.349	6.28
278.563	6.17
278.777	5.65
278.991	5.28
279.205	5.3
279.419	5.11
279.633	5.01
279.847	4.78
280.061	4.92
280.275	4.37
280.489	3.86
280.703	4.72
280.917	5.09
281.131	5.11
281.344	5.24
281.558	5.33
281.772	5.41
281.986	5.88
282.2	6.32
282.414	6.29
282.627	6.08
282.841	6.42
283.055	5.75
283.269	5.5
283.482	5.64
283.696	5.49
283.91	5.45
284.123	5.65
284.337	5.42
284.551	5.28
284.764	5.11
284.978	4.98
285.192	4.6
285.405	4.59
285.619	4.42
285.833	3.93
286.046	3.82
286.26	3.92
286.473	3.56
286.687	3.29
286.9	2.88
287.114	3.03
287.327	3.51
287.541	3.99
287.754	3.93
287.968	4.2
288.181	4.69
288.395	4.72
288.608	4.65
288.822	4.82
289.035	4.56
289.248	4.7
289.462	4.6
289.675	4.48
289.889	4.55
290.102	4.54
290.315	4.5
290.529	4.45
290.742	4.72
290.955	4.41
291.169	4.21
291.382	4.6
291.595	4.66
291.808	4.67
292.022	4.74
292.235	4.32
292.448	4.4
292.661	4.54
292.875	4.59
293.088	4.52
293.301	4.73
293.514	4.97
293.727	5.16
293.94	5.2
294.153	5.2
294.367	4.71
294.58	4.76
294.793	4.69
295.006	4.75
295.219	4.42
295.432	4.48
295.645	4.92
295.858	5.11
296.071	4.87
296.284	4.92
296.497	4.99
296.71	5.08
296.923	5.21
297.136	5.29
297.349	5.47
297.562	5.85
297.775	5.58
297.988	5.2
298.201	4.87
298.414	4.82
298.626	4.92
298.839	4.66
299.052	4.97
299.265	4.89
299.478	5.3
299.691	5.15
299.903	4.97
300.116	5.08
300.329	4.9
300.542	5.01
300.755	5.27
300.967	5.1
301.18	5.53
301.393	5.7
301.605	5.61
301.818	5.55
302.031	5.42
302.243	5.88
302.456	6.25
302.669	6.16
302.881	6.32
303.094	6.44
303.307	6.5
303.519	6.58
303.732	6.48
303.944	6.63
304.157	6.38
304.37	6.58
304.582	6.35
304.795	6.38
305.007	6.67
305.22	6.63
305.432	6.94
305.645	6.92
305.857	6.88
306.069	6.87
306.282	7.04
306.494	7.36
306.707	7.27
306.919	7.44
307.132	7.23
307.344	7.22
307.556	7.66
307.769	7.4
307.981	7.14
308.193	6.96
308.406	6.98
308.618	6.88
308.83	6.72
309.043	6.57
309.255	6.48
309.467	6.35
309.679	6.4
309.892	5.75
310.104	5.56
310.316	5.72
310.528	5.83
310.74	5.73
310.953	5.9
311.165	5.68
311.377	5.69
311.589	5.75
311.801	5.48
312.013	5.55
312.225	5.63
312.437	5.78
312.649	5.97
312.862	5.57
313.074	5.73
313.286	5.57
313.498	6.1
313.71	5.99
313.922	6.29
314.134	6.63
314.346	6.18
314.558	6.11
314.77	6.41
314.982	6.53
315.193	6.19
315.405	6.44
315.617	6.47
315.829	6.33
316.041	6.65
316.253	5.81
316.465	6.1
316.677	6.15
316.888	6.51
317.1	5.8
317.312	5.53
317.524	6.01
317.736	5.86
317.947	5.75
318.159	6.05
318.371	6.12
318.583	6.49
318.794	6.44
319.006	6.71
319.218	6.69
319.43	7.59
319.641	8.13
319.853	8.45
320.064	8.64
320.276	8.79
320.488	8.36
320.699	8.45
320.911	8.12
321.123	8.91
321.334	9.05
321.546	9.63
321.757	9.38
321.969	9.32
322.18	9.43
322.392	9.12
322.603	9.02
322.815	9.15
323.026	9.27
323.238	9.52
323.449	9.19
323.661	9.12
323.872	8.89
324.083	8.9
324.295	8.96
324.506	9.03
324.718	9.42
324.929	9.59
325.14	9.85
325.352	10
325.563	10.14
325.774	10.2
325.986	10.13
326.197	10.18
326.408	10.39
326.62	10.24
326.831	10.27
327.042	10.3
327.253	10.21
327.464	10.07
327.676	10.18
327.887	10.2
328.098	10.31
328.309	10.72
328.52	10.8
328.732	11.11
328.943	11.12
329.154	11.31
329.365	11.63
329.576	11.9
329.787	12.54
329.998	12.61
330.209	13.15
330.42	13.09
330.631	13.04
330.842	13.34
331.053	13
331.264	13.08
331.475	13.34
331.686	13.19
331.897	13.08
332.108	12.56
332.319	12.8
332.53	12.59
332.741	12.93
332.952	13.36
333.163	13.01
333.374	13.21
333.585	13.14
333.795	13.03
334.006	13.07
334.217	13.51
334.428	13.84
334.639	13.79
334.849	13.81
335.06	13.5
335.271	13.49
335.482	13.65
335.692	13.72
335.903	13.7
336.114	13.71
336.325	13.9
336.535	14.18
336.746	14.14
336.957	13.73
337.167	14.15
337.378	13.91
337.589	13.93
337.799	13.9
338.01	13.58
338.22	14.25
338.431	14.3
338.642	13.81
338.852	13.4
339.063	13.21
339.273	13.57
339.484	13.35
339.694	13.73
339.905	13.44
340.115	13.86
340.326	14.19
340.536	13.72
340.746	13.48
340.957	13.51
341.167	13.69
341.378	14.07
341.588	14.03
341.799	14.14
342.009	14.35
342.219	14.64
342.43	14.53
342.64	14.35
342.85	14.45
343.061	14.53
343.271	14.77
343.481	14.4
343.691	14.32
343.902	14.49
344.112	14.19
344.322	13.79
344.532	13.42
344.743	13.29
344.953	13.53
345.163	13.44
345.373	13.65
345.583	13.63
345.793	13.57
346.004	13.4
346.214	13.51
346.424	13.75
346.634	13.91
346.844	14.25
347.054	14.19
347.264	13.79
347.474	13.8
347.684	13.88
347.894	14.04
348.104	14
348.314	13.82
348.524	13.22
348.734	13.37
348.944	13.11
349.154	13.12
349.364	12.84
349.574	12.87
349.784	13.24
349.994	12.75
350.204	12.61
350.413	12.82
350.623	12.99
350.833	13.34
351.043	13
351.253	13.26
351.463	13.07
351.672	13.26
351.882	13.42
352.092	13.24
352.302	13.53
352.511	13.27
352.721	13.33
352.931	13.36
353.141	13.11
353.35	13.1
353.56	13.29
353.77	13.11
353.979	12.98
354.189	13.19
354.399	13.22
354.608	13.12
354.818	13.29
355.027	13.16
355.237	13.13
355.447	13.13
355.656	13.27
355.866	13.11
356.075	13.25
356.285	13.44
356.494	13.16
356.704	13.04
356.913	13.05
357.123	13.2
357.332	13.46
357.542	13.64
357.751	13.77
357.96	13.82
358.17	13.75
358.379	13.61
358.589	13.58
358.798	13.55
359.007	13.34
359.217	13.25
359.426	12.77
359.635	12.66
359.845	12.55
360.054	12.39
360.263	12.43
360.472	12.32
360.682	12.24
360.891	12.31
361.1	12.29
361.309	12.21
361.519	12.31
361.728	12.51
361.937	12.47
362.146	12.55
362.355	12.57
362.564	12.18
362.774	12.35
362.983	12.41
363.192	12.28
363.401	12.37
363.61	12.32
363.819	12.19
364.028	12.33
364.237	12.34
364.446	12.06
364.655	12.19
364.864	12.47
365.073	12.48
365.282	12.38
365.491	12.37
365.7	12.46
365.909	12.89
366.118	12.94
366.327	12.95
366.536	12.97
366.745	13.16
366.954	12.93
367.162	12.87
367.371	12.83
367.58	13
367.789	12.8
367.998	12.55
368.207	12.34
368.415	12.16
368.624	12.12
368.833	11.76
369.042	11.76
369.25	11.92
369.459	11.9
369.668	11.78
369.877	11.79
370.085	11.84
370.294	11.97
370.503	11.69
370.711	11.82
370.92	11.73
371.129	11.96
371.337	11.84
371.546	11.57
371.754	11.69
371.963	11.68
372.171	11.37
372.38	11.38
372.589	11.22
372.797	11.5
373.006	11.3
373.214	11.44
373.423	11.48
373.631	11.26
373.84	11.48
374.048	11.26
374.256	11.29
374.465	11.2
374.673	11.12
374.882	11.24
375.09	11.09
375.298	10.97
375.507	10.83
375.715	10.75
375.923	10.78
376.132	10.85
376.34	10.76
376.548	10.9
376.757	11.09
376.965	11.03
377.173	10.94
377.381	10.97
377.59	11.13
377.798	10.96
378.006	10.8
378.214	11.13
378.423	10.97
378.631	10.81
378.839	10.08
379.047	10.01
379.255	10.17
379.463	10.09
379.671	10.14
379.879	10.17
380.088	10.1
380.296	10.2
380.504	10.07
380.712	10.09
380.92	10.24
381.128	10.59
381.336	10.74
381.544	10.5
381.752	10.49
381.96	10.6
382.168	10.48
382.376	10.51
382.584	10.56
382.791	10.46
382.999	10.44
383.207	10.5
383.415	10.57
383.623	10.3
383.831	10.59
384.039	10.58
384.247	10.46
384.454	10.77
384.662	10.86
384.87	10.87
385.078	10.77
385.285	10.85
385.493	10.58
385.701	10.52
385.909	10.85
386.116	10.43
386.324	10.49
386.532	10.36
386.739	10.12
386.947	10.03
387.155	9.85
387.362	9.91
387.57	9.55
387.778	9.55
387.985	9.42
388.193	9.15
388.4	9.32
388.608	9.23
388.816	9.2
389.023	9.31
389.231	9.3
389.438	9.11
389.646	8.87
389.853	8.83
390.061	8.92
390.268	8.96
390.475	8.84
390.683	8.73
390.89	8.54
391.098	8.52
391.305	8.44
391.512	8.33
391.72	8.51
391.927	8.6
392.135	8.83
392.342	8.85
392.549	8.84
392.756	8.86
392.964	8.86
393.171	8.92
393.378	8.89
393.586	8.74
393.793	8.81
394	8.71
394.207	8.6
394.414	8.34
394.622	8.45
394.829	8.47
395.036	8.49
395.243	8.39
395.45	8.33
395.657	8.42
395.864	8.37
396.072	8.26
396.279	8.32
396.486	8.54
396.693	8.66
396.9	8.36
397.107	8.37
397.314	8.26
397.521	8.36
397.728	8.38
397.935	8.35
398.142	8.38
398.349	8.49
398.556	8.41
398.763	8.06
398.97	8.12
399.177	8.14
399.383	8.18
399.59	8.29
399.797	8.25
400.004	8.27
400.211	8.17
400.418	8.06
400.625	7.9
400.831	7.86
401.038	8.15
401.245	7.83
401.452	7.84
401.658	7.6
401.865	7.63
402.072	7.61
402.279	7.64
402.485	7.51
402.692	7.54
402.899	7.51
403.105	7.43
403.312	7.11
403.519	7.51
403.725	7.45
403.932	7.57
404.138	7.44
404.345	7.39
404.552	7.37
404.758	7.38
404.965	7.12
405.171	7.17
405.378	7.25
405.584	7.45
405.791	7.23
405.997	7.23
406.204	7.08
406.41	7.18
406.617	7.26
406.823	7.24
407.029	7.23
407.236	7.46
407.442	7.56
407.649	7.34
407.855	7.39
408.061	7.27
408.268	7.43
408.474	7.43
408.68	7.38
408.887	7.18
409.093	7.03
409.299	7.18
409.505	7.17
409.712	7.1
409.918	7.12
410.124	7.04
410.33	7.03
410.537	6.93
410.743	6.97
410.949	6.93
411.155	6.89
411.361	6.98
411.567	6.72
411.773	6.77
411.98	6.69
412.186	6.71
412.392	6.72
412.598	6.78
412.804	6.69
413.01	6.58
413.216	6.62
413.422	6.68
413.628	6.66
413.834	6.7
414.04	6.54
414.246	6.47
414.452	6.62
414.658	6.53
414.864	6.62
415.07	6.75
415.275	6.89
415.481	6.92
415.687	6.89
415.893	6.84
416.099	6.79
416.305	6.81
416.511	6.92
416.716	6.77
416.922	6.78
417.128	6.63
417.334	6.45
417.539	6.28
417.745	6.19
417.951	6.26
418.157	6.27
418.362	6.35
418.568	6.31
418.774	6.15
418.979	6.18
419.185	6.12
419.391	6.09
419.596	6.1
419.802	6.14
420.008	6.21
420.213	6.26
420.419	6.17
420.624	6.19
420.83	6.23
421.035	6.24
421.241	6.18
421.446	6.19
421.652	6.24
421.857	6.19
422.063	6.14
422.268	6.03
422.474	5.94
422.679	5.95
422.885	5.87
423.09	5.8
423.295	5.83
423.501	5.8
423.706	5.7
423.911	5.57
424.117	5.55
424.322	5.46
424.527	5.44
424.733	5.34
424.938	5.26
425.143	5.31
425.349	5.35
425.554	5.32
425.759	5.45
425.964	5.48
426.169	5.64
426.375	5.77
426.58	5.89
426.785	5.91
426.99	5.84
427.195	6.05
427.4	6
427.605	5.86
427.811	6
428.016	5.86
428.221	5.93
428.426	5.81
428.631	5.78
428.836	5.76
429.041	5.76
429.246	5.83
429.451	5.62
429.656	5.49
429.861	5.52
430.066	5.5
430.271	5.52
430.476	5.36
430.681	5.33
430.886	5.33
431.09	5.43
431.295	5.42
431.5	5.42
431.705	5.45
431.91	5.55
432.115	5.48
432.32	5.45
432.524	5.41
432.729	5.48
432.934	5.46
433.139	5.43
433.343	5.31
433.548	5.33
433.753	5.32
433.958	5.37
434.162	5.35
434.367	5.31
434.572	5.27
434.776	5.22
434.981	5.37
435.186	5.32
435.39	5.34
435.595	5.45
435.799	5.44
436.004	5.55
436.209	5.56
436.413	5.43
436.618	5.56
436.822	5.58
437.027	5.59
437.231	5.49
437.436	5.51
437.64	5.44
437.845	5.37
438.049	5.27
438.253	5.23
438.458	5.13
438.662	5.24
438.867	5.28
439.071	5.27
439.275	5.23
439.48	5.21
439.684	5.24
439.888	5.22
440.093	5.15
440.297	5.22
440.501	5.2
440.706	5.27
440.91	5.17
441.114	5.07
441.318	5.02
441.523	4.99
441.727	4.99
441.931	4.97
442.135	5.1
442.339	5.22
442.543	5.19
442.748	5.3
442.952	5.3
443.156	5.27
443.36	5.21
443.564	5.18
443.768	5.26
443.972	5.3
444.176	5.33
444.38	5.26
444.584	5.2
444.788	5.17
444.992	5.11
445.196	5.11
445.4	5.19
445.604	5.23
445.808	5.2
446.012	5.2
446.216	5.16
446.42	5.16
446.624	5.1
446.828	5.11
447.032	5.13
447.235	5.11
447.439	5.02
447.643	4.97
447.847	5.01
448.051	5.01
448.254	5.05
448.458	5.09
448.662	5.13
448.866	5.27
449.069	5.26
449.273	5.3
449.477	5.26
449.681	5.29
449.884	5.3
450.088	5.34
450.292	5.29
450.495	5.26
450.699	5.24
450.902	5.14
451.106	4.96
451.31	4.93
451.513	4.93
451.717	4.89
451.92	4.91
452.124	4.94
452.327	4.92
452.531	4.98
452.734	4.88
452.938	4.92
453.141	5.01
453.345	5.14
453.548	5.16
453.752	5.05
453.955	5.16
454.158	5.25
454.362	5.29
454.565	5.19
454.769	5.27
454.972	5.33
455.175	5.29
455.379	5.06
455.582	4.93
455.785	4.97
455.988	4.97
456.192	4.89
456.395	4.76
456.598	4.67
456.801	4.7
457.005	4.66
457.208	4.71
457.411	4.73
457.614	4.81
457.817	4.95
458.021	4.89
458.224	4.99
458.427	4.97
458.63	4.96
458.833	4.94
459.036	4.95
459.239	4.99
459.442	4.95
459.645	4.91
459.848	4.97
460.051	4.9
460.254	4.93
460.457	4.85
460.66	4.8
460.863	4.88
461.066	4.9
461.269	4.81
461.472	4.73
461.675	4.74
461.878	4.79
462.081	4.7
462.284	4.66
462.486	4.76
462.689	4.75
462.892	4.83
463.095	4.89
463.298	4.94
463.5	5.01
463.703	5
463.906	5.1
464.109	5.08
464.311	5.03
464.514	5.11
464.717	4.98
464.92	5.02
465.122	5.18
465.325	5.13
465.528	5.24
465.73	5.24
465.933	5.2
466.135	5.17
466.338	5.14
466.541	5.19
466.743	5.14
466.946	5.18
467.148	5.16
467.351	5.07
467.553	4.96
467.756	4.76
467.958	4.72
468.161	4.8
468.363	4.7
468.566	4.69
468.768	4.74
468.971	4.75
469.173	4.66
469.375	4.62
469.578	4.56
469.78	4.66
469.983	4.67
470.185	4.74
470.387	4.68
470.59	4.79
470.792	4.81
470.994	4.8
471.196	4.91
471.399	4.98
471.601	5
471.803	5.17
472.005	5.18
472.208	5.31
472.41	5.27
472.612	5.37
472.814	5.32
473.016	5.37
473.218	5.45
473.421	5.37
473.623	5.46
473.825	5.52
474.027	5.37
474.229	5.45
474.431	5.43
474.633	5.49
474.835	5.41
475.037	5.41
475.239	5.35
475.441	5.27
475.643	5.26
475.845	5.19
476.047	5.22
476.249	5.2
476.451	5.19
476.653	5.25
476.855	5.26
477.057	5.26
477.258	5.28
477.46	5.32
477.662	5.45
477.864	5.48
478.066	5.53
478.268	5.53
478.469	5.54
478.671	5.47
478.873	5.42
479.075	5.46
479.276	5.4
479.478	5.38
479.68	5.35
479.882	5.22
480.083	5.22
480.285	5.22
480.487	5.2
480.688	5.22
480.89	5.23
481.091	5.2
481.293	5.16
481.495	5.2
481.696	5.22
481.898	5.19
482.099	5.17
482.301	5.11
482.502	5.08
482.704	5.08
482.905	5.06
483.107	5.04
483.308	5.04
483.51	5.04
483.711	5.03
483.913	5
484.114	5.01
484.315	5.05
484.517	5.12
484.718	5.14
484.92	5.13
485.121	5.13
485.322	5.13
485.524	5.15
485.725	5.13
485.926	5.13
486.127	5.12
486.329	5.14
486.53	5.13
486.731	5.09
486.932	5.08
487.134	5.12
487.335	5.09
487.536	5.11
487.737	5.11
487.938	5.13
488.139	5.14
488.341	5.15
488.542	5.14
488.743	5.14
488.944	5.13
489.145	5.14
489.346	5.12
489.547	5.19
489.748	5.15
489.949	5.16
490.15	5.15
490.351	5.15
490.552	5.17
490.753	5.2
490.954	5.21
491.155	5.23
491.356	5.27
491.557	5.24
491.758	5.26
491.959	5.36
492.159	5.31
492.36	5.41
492.561	5.4
492.762	5.45
492.963	5.43
493.164	5.48
493.364	5.57
493.565	5.51
493.766	5.57
493.967	5.61
494.167	5.57
494.368	5.69
494.569	5.62
494.769	5.69
494.97	5.63
495.171	5.62
495.371	5.56
495.572	5.55
495.773	5.66
495.973	5.74
496.174	5.78
496.375	5.79
496.575	5.81
496.776	5.84
496.976	5.88
497.177	5.96
497.377	6.02
497.578	6.11
497.778	6.12
497.979	6.08
498.179	6.01
498.38	6.08
498.58	6.07
498.78	6.06
498.981	6.13
499.181	6.12
499.382	6.2
499.582	6.24
499.782	6.34
499.983	6.38
500.183	6.47
500.383	6.58
500.584	6.6
500.784	6.71
500.984	6.85
501.184	6.77
501.385	6.83
501.585	6.88
501.785	6.99
501.985	6.98
502.185	7.04
502.386	7.02
502.586	7.06
502.786	7.04
502.986	7.08
503.186	6.96
503.386	7.09
503.586	7.18
503.786	7.08
503.987	7.04
504.187	7.11
504.387	7.13
504.587	7.19
504.787	7.27
504.987	7.33
505.187	7.35
505.387	7.58
505.587	7.68
505.786	7.65
505.986	7.73
506.186	7.9
506.386	7.87
506.586	7.99
506.786	8.04
506.986	8.07
507.186	8.1
507.386	8.17
507.585	8.15
507.785	8.13
507.985	8.16
508.185	8.28
508.384	8.28
508.584	8.34
508.784	8.36
508.984	8.48
509.183	8.47
509.383	8.55
509.583	8.61
509.782	8.61
509.982	8.74
510.182	8.78
510.381	8.8
510.581	8.82
510.781	8.87
510.98	8.95
511.18	8.98
511.379	9.05
511.579	9.02
511.778	9.06
511.978	9.13
512.177	9.09
512.377	9.17
512.576	9.29
512.776	9.33
512.975	9.42
513.175	9.39
513.374	9.39
513.573	9.55
513.773	9.75
513.972	9.8
514.172	9.9
514.371	9.92
514.57	9.95
514.77	9.84
514.969	9.96
515.168	9.95
515.367	10.08
515.567	10.17
515.766	10.13
515.965	10.13
516.164	10.21
516.364	10.28
516.563	10.37
516.762	10.5
516.961	10.6
517.16	10.66
517.359	10.71
517.559	10.77
517.758	10.78
517.957	10.8
518.156	10.9
518.355	10.96
518.554	11.01
518.753	11.03
518.952	11.03
519.151	11.09
519.35	11.12
519.549	11.18
519.748	11.21
519.947	11.31
520.146	11.42
520.345	11.46
520.544	11.59
520.743	11.57
520.942	11.71
521.141	11.78
521.339	11.86
521.538	11.91
521.737	12.05
521.936	12.16
522.135	12.23
522.333	12.35
522.532	12.34
522.731	12.39
522.93	12.55
523.129	12.61
523.327	12.62
523.526	12.64
523.725	12.74
523.923	12.74
524.122	12.82
524.321	12.82
524.519	12.86
524.718	12.89
524.917	12.91
525.115	12.95
525.314	12.96
525.512	13.05
525.711	13.11
525.909	13.11
526.108	13.13
526.306	13.12
526.505	13.14
526.703	13.14
526.902	13.16
527.1	13.16
527.299	13.18
527.497	13.17
527.696	13.18
527.894	13.2
528.092	13.23
528.291	13.26
528.489	13.28
528.688	13.36
528.886	13.43
529.084	13.48
529.283	13.52
529.481	13.61
529.679	13.73
529.877	13.78
530.076	13.86
530.274	13.94
530.472	14.03
530.67	14.12
530.869	14.18
531.067	14.24
531.265	14.3
531.463	14.31
531.661	14.29
531.859	14.32
532.057	14.36
532.255	14.36
532.454	14.36
532.652	14.37
532.85	14.39
533.048	14.41
533.246	14.5
533.444	14.56
533.642	14.66
533.84	14.72
534.038	14.8
534.236	14.85
534.434	14.92
534.632	14.93
534.83	15
535.027	15.03
535.225	15.07
535.423	15.02
535.621	15.04
535.819	15.07
536.017	15.13
536.215	15.17
536.412	15.29
536.61	15.29
536.808	15.4
537.006	15.44
537.203	15.59
537.401	15.66
537.599	15.69
537.797	15.75
537.994	15.79
538.192	15.81
538.39	15.85
538.587	15.84
538.785	15.92
538.983	15.95
539.18	15.91
539.378	15.86
539.575	15.78
539.773	15.79
539.97	15.78
540.168	15.79
540.366	15.85
540.563	15.86
540.761	15.83
540.958	15.85
541.155	15.87
541.353	15.97
541.55	16.03
541.748	16.19
541.945	16.28
542.143	16.32
542.34	16.42
542.537	16.39
542.735	16.47
542.932	16.66
543.129	16.76
543.327	16.83
543.524	16.85
543.721	16.91
543.919	16.89
544.116	16.95
544.313	17.1
544.51	17.13
544.708	17.17
544.905	17.25
545.102	17.2
545.299	17.24
545.496	17.33
545.693	17.32
545.891	17.35
546.088	17.31
546.285	17.35
546.482	17.38
546.679	17.5
546.876	17.7
547.073	17.78
547.27	17.88
547.467	17.97
547.664	17.98
547.861	18.19
548.058	18.3
548.255	18.52
548.452	18.57
548.649	18.6
548.846	18.52
549.043	18.43
549.24	18.4
549.437	18.48
549.633	18.49
549.83	18.57
550.027	18.51
550.224	18.65
550.421	18.68
550.618	18.68
550.814	18.82
551.011	18.97
551.208	19.06
551.405	19.16
551.601	19.11
551.798	19.14
551.995	19.19
552.191	19.27
552.388	19.22
552.585	19.27
552.781	19.43
552.978	19.51
553.175	19.51
553.371	19.51
553.568	19.61
553.764	19.8
553.961	19.83
554.157	19.79
554.354	19.88
554.55	19.99
554.747	20.05
554.943	19.93
555.14	19.89
555.336	20
555.533	20.13
555.729	20.08
555.926	20.13
556.122	20.24
556.318	20.42
556.515	20.42
556.711	20.46
556.907	20.43
557.104	20.65
557.3	20.75
557.496	20.66
557.693	20.74
557.889	20.75
558.085	20.74
558.281	20.94
558.478	20.94
558.674	21.12
558.87	21.18
559.066	21.25
559.262	21.26
559.459	21.23
559.655	21.42
559.851	21.49
560.047	21.54
560.243	21.62
560.439	21.54
560.635	21.52
560.831	21.52
561.027	21.41
561.223	21.57
561.419	21.64
561.615	21.69
561.811	21.68
562.007	21.52
562.203	21.53
562.399	21.49
562.595	21.48
562.791	21.66
562.987	21.86
563.183	22.03
563.379	22
563.575	22.06
563.771	22.21
563.966	22.22
564.162	22.36
564.358	22.36
564.554	22.44
564.75	22.52
564.945	22.51
565.141	22.41
565.337	22.53
565.533	22.54
565.728	22.46
565.924	22.48
566.12	22.6
566.315	22.74
566.511	22.98
566.707	23
566.902	23.06
567.098	23.11
567.293	23.16
567.489	23.19
567.684	23.23
567.88	23.32
568.076	23.28
568.271	23.28
568.467	23.34
568.662	23.3
568.858	23.46
569.053	23.5
569.248	23.56
569.444	23.63
569.639	23.46
569.835	23.52
570.03	23.63
570.225	23.69
570.421	23.78
570.616	23.7
570.812	23.73
571.007	23.7
571.202	23.76
571.397	23.78
571.593	23.77
571.788	23.97
571.983	24.07
572.178	24.05
572.374	24.09
572.569	24.1
572.764	24.15
572.959	24.11
573.154	24.08
573.35	24.16
573.545	24.2
573.74	24.28
573.935	24.24
574.13	24.21
574.325	24.24
574.52	24.33
574.715	24.41
574.91	24.41
575.105	24.54
575.3	24.65
575.495	24.69
575.69	24.8
575.885	24.9
576.08	24.87
576.275	24.97
576.47	25.02
576.665	25.08
576.86	25.09
577.055	25.27
577.25	25.39
577.444	25.53
577.639	25.55
577.834	25.62
578.029	25.67
578.224	25.97
578.418	26.15
578.613	26.31
578.808	26.31
579.003	26.34
579.197	26.25
579.392	26.3
579.587	26.24
579.781	26.31
579.976	26.29
580.171	26.22
580.365	26.01
580.56	26.12
580.755	26.11
580.949	26.09
581.144	26.11
581.338	26.17
581.533	26.18
581.727	26.26
581.922	26.23
582.116	26.36
582.311	26.47
582.505	26.76
582.7	26.6
582.894	26.59
583.089	26.64
583.283	26.78
583.478	26.9
583.672	26.93
583.866	26.95
584.061	27.09
584.255	27
584.449	27.11
584.644	27.09
584.838	27.13
585.032	27.12
585.226	27.13
585.421	27.05
585.615	27.12
585.809	27.09
586.003	27.15
586.198	27.11
586.392	27.16
586.586	26.99
586.78	26.94
586.974	26.8
587.168	26.87
587.363	27.06
587.557	27.18
587.751	27.2
587.945	27.23
588.139	27.28
588.333	27.23
588.527	27.23
588.721	27.49
588.915	27.52
589.109	27.85
589.303	27.93
589.497	28.08
589.691	28.07
589.885	28.05
590.079	28.06
590.273	28.16
590.466	28.29
590.66	28.38
590.854	28.37
591.048	28.35
591.242	28.28
591.436	28.28
591.629	28.08
591.823	28.07
592.017	28
592.211	28.17
592.404	28.13
592.598	28.17
592.792	28.15
592.986	28.17
593.179	28.26
593.373	28.24
593.567	28.24
593.76	28.42
593.954	28.44
594.147	28.59
594.341	28.53
594.535	28.63
594.728	28.63
594.922	28.64
595.115	28.57
595.309	28.56
595.502	28.55
595.696	28.6
595.889	28.53
596.083	28.68
596.276	28.59
596.47	28.54
596.663	28.47
596.856	28.48
597.05	28.46
597.243	28.65
597.437	28.78
597.63	29.09
597.823	29.23
598.017	29.38
598.21	29.35
598.403	29.65
598.596	29.91
598.79	30.03
598.983	29.99
599.176	30.12
599.369	30.01
599.563	30.1
599.756	29.92
599.949	29.79
600.142	29.64
600.335	29.68
600.528	29.55
600.722	29.49
600.915	29.22
601.108	29.32
601.301	29.34
601.494	29.27
601.687	29.3
601.88	29.36
602.073	29.35
602.266	29.38
602.459	29.16
602.652	29.16
602.845	29.18
603.038	29.33
603.231	29.36
603.424	29.23
603.617	29.22
603.809	28.99
604.002	28.93
604.195	28.97
604.388	28.95
604.581	29.19
604.774	29.22
604.966	29.33
605.159	29.43
605.352	29.4
605.545	29.63
605.737	29.77
605.93	29.94
606.123	30.05
606.316	30.12
606.508	30.07
606.701	30.01
606.894	30.05
607.086	30
607.279	29.96
607.471	29.89
607.664	29.81
607.857	29.81
608.049	29.86
608.242	29.77
608.434	29.75
608.627	29.93
608.819	29.95
609.012	29.98
609.204	29.79
609.397	29.89
609.589	30.05
609.782	30.14
609.974	30.16
610.166	30.22
610.359	30.26
610.551	30.33
610.743	30.14
610.936	30.08
611.128	30.09
611.32	30.33
611.513	30.24
611.705	30.12
611.897	30.11
612.09	30.18
612.282	30.17
612.474	30.27
612.666	30.41
612.858	30.52
613.051	30.69
613.243	30.61
613.435	30.8
613.627	30.79
613.819	31.09
614.011	31.17
614.203	31.06
614.395	31.09
614.588	31.1
614.78	31.18
614.972	31.29
615.164	31.38
615.356	31.38
615.548	31.35
615.74	31.58
615.932	31.47
616.124	31.44
616.315	31.48
616.507	31.56
616.699	31.45
616.891	31.28
617.083	31.45
617.275	31.54
617.467	31.62
617.659	31.51
617.85	31.46
618.042	31.44
618.234	31.5
618.426	31.52
618.618	31.62
618.809	31.7
619.001	31.75
619.193	31.63
619.384	31.42
619.576	31.43
619.768	31.48
619.959	31.45
620.151	31.67
620.343	31.53
620.534	31.38
620.726	31.3
620.917	31.33
621.109	31.33
621.301	31.22
621.492	31.23
621.684	31.43
621.875	31.47
622.067	31.43
622.258	31.28
622.45	31.44
622.641	31.51
622.832	31.52
623.024	31.6
623.215	31.7
623.407	31.86
623.598	31.82
623.789	31.64
623.981	31.69
624.172	31.67
624.363	31.55
624.555	31.55
624.746	31.55
624.937	31.59
625.129	31.46
625.32	31.5
625.511	31.49
625.702	31.55
625.893	31.63
626.085	31.51
626.276	31.44
626.467	31.5
626.658	31.56
626.849	31.66
627.04	31.65
627.231	31.76
627.422	31.66
627.614	31.65
627.805	31.9
627.996	31.99
628.187	32.14
628.378	32.38
628.569	32.4
628.76	32.35
628.951	32.54
629.142	32.56
629.332	32.61
629.523	32.8
629.714	32.85
629.905	32.59
630.096	32.53
630.287	32.46
630.478	32.29
630.669	32.38
630.859	32.36
631.05	32.08
631.241	32.18
631.432	31.93
631.623	31.76
631.813	31.8
632.004	31.78
632.195	31.67
632.385	31.64
632.576	31.7
632.767	31.58
632.957	31.69
633.148	31.9
633.339	31.91
633.529	32.22
633.72	32.36
633.91	32.22
634.101	32.42
634.292	32.44
634.482	32.41
634.673	32.69
634.863	32.9
635.054	32.83
635.244	33.04
635.435	32.98
635.625	33.01
635.815	32.81
636.006	32.89
636.196	32.91
636.387	33.08
636.577	33.25
636.767	33.17
636.958	33.23
637.148	33.4
637.338	33.1
637.529	33.2
637.719	33.15
637.909	33.26
638.099	33.54
638.29	33.5
638.48	33.5
638.67	33.31
638.86	33.08
639.05	32.85
639.241	32.75
639.431	32.71
639.621	32.56
639.811	32.52
640.001	32.63
640.191	32.57
640.381	32.65
640.571	32.56
640.761	32.88
640.951	33.08
641.141	33.21
641.331	33.21
641.521	33.5
641.711	33.75
641.901	33.67
642.091	33.42
642.281	33.39
642.471	33.1
642.661	33.3
642.851	33.13
643.041	33.01
643.231	32.82
643.42	32.68
643.61	32.54
643.8	32.54
643.99	32.68
644.18	32.76
644.369	32.66
644.559	32.91
644.749	32.89
644.939	33
645.128	33
645.318	33.19
645.508	33.4
645.697	33.4
645.887	33.08
646.076	33.27
646.266	33.52
646.456	33.65
646.645	33.78
646.835	33.63
647.024	33.6
647.214	33.65
647.403	33.79
647.593	33.9
647.782	33.9
647.972	33.98
648.161	33.76
648.351	33.55
648.54	33.66
648.73	33.55
648.919	33.57
649.108	33.5
649.298	33.38
649.487	33.27
649.677	33.27
649.866	33.24
650.055	33.32
650.244	33.34
650.434	33.41
650.623	33.18
650.812	33.13
651.002	33.24
651.191	33.14
651.38	33.42
651.569	33.41
651.758	33.29
651.947	33.26
652.137	33.27
652.326	33.19
652.515	33.25
652.704	33.23
652.893	33.4
653.082	33.39
653.271	33.38
653.46	33.25
653.649	33.33
653.838	33.51
654.027	33.7
654.216	33.72
654.405	34.07
654.594	34.3
654.783	34.49
654.972	34.3
655.161	34.26
655.35	34.35
655.539	34.47
655.728	34.23
655.916	34.14
656.105	34
656.294	33.93
656.483	33.78
656.672	33.59
656.86	33.44
657.049	33.5
657.238	33.57
657.427	33.46
657.615	33.5
657.804	33.73
657.993	33.66
658.181	33.76
658.37	33.79
658.559	33.81
658.747	33.74
658.936	34.04
659.125	34.33
659.313	34.31
659.502	34.38
659.69	34.23
659.879	34.23
660.067	34.4
660.256	34.55
660.444	34.71
660.633	34.65
660.821	34.84
661.01	34.71
661.198	34.36
661.387	34.42
661.575	34.71
661.763	34.98
661.952	34.88
662.14	34.7
662.328	34.54
662.517	34.56
662.705	34.78
662.893	34.75
663.082	34.52
663.27	34.8
663.458	34.97
663.646	34.79
663.834	34.44
664.023	34.55
664.211	35.01
664.399	35
664.587	34.99
664.775	34.8
664.963	34.95
665.152	35.01
665.34	35.07
665.528	34.85
665.716	34.91
665.904	35.12
666.092	35.12
666.28	34.87
666.468	35.04
666.656	34.91
666.844	34.83
667.032	34.61
667.22	34.91
667.408	34.96
667.596	34.92
667.784	35.1
667.971	35.11
668.159	34.98
668.347	34.93
668.535	34.76
668.723	34.73
668.911	34.79
669.098	34.89
669.286	34.71
669.474	34.33
669.662	34.53
669.849	34.29
670.037	34.51
670.225	34.79
670.413	34.87
670.6	35.05
670.788	34.95
670.976	35.33
671.163	35.15
671.351	35.34
671.538	35.59
671.726	35.28
671.913	35.24
672.101	35.09
672.289	34.95
672.476	35.08
672.664	35.19
672.851	35.42
673.039	35.11
673.226	35.11
673.413	35.07
673.601	35.03
673.788	35.5
673.976	35.64
674.163	35.73
674.35	35.78
674.538	35.76
674.725	35.56
674.912	35.51
675.1	35.49
675.287	35.73
675.474	35.51
675.662	35.24
675.849	34.97
676.036	34.81
676.223	34.75
676.411	34.77
676.598	34.59
676.785	34.63
676.972	34.97
677.159	35.13
677.346	35.09
677.533	35.16
677.721	35.26
677.908	35.27
678.095	35.32
678.282	35.5
678.469	35.6
678.656	35.56
678.843	35.4
679.03	35.32
679.217	35.29
679.404	35.31
679.591	35.34
679.778	35.6
679.964	35.75
680.151	35.9
680.338	35.73
680.525	35.58
680.712	35.61
680.899	35.87
681.086	35.68
681.272	35.77
681.459	35.87
681.646	36.02
681.833	35.98
682.02	35.91
682.206	35.83
682.393	35.82
682.58	35.9
682.766	36.08
682.953	36.05
683.14	36.02
683.326	36.06
683.513	36.02
683.7	35.8
683.886	35.99
684.073	35.89
684.259	36.09
684.446	36.19
684.632	36.27
684.819	36.11
685.005	36.18
685.192	36.28
685.378	35.81
685.565	35.91
685.751	35.91
685.938	35.78
686.124	35.92
686.31	35.94
686.497	35.94
686.683	35.92
686.87	36.22
687.056	36.1
687.242	36.12
687.429	36.56
687.615	36.27
687.801	36.73
687.987	36.71
688.174	36.79
688.36	36.73
688.546	36.61
688.732	36.61
688.918	36.3
689.105	36.45
689.291	36.35
689.477	36.27
689.663	36.39
689.849	35.96
690.035	35.67
690.221	35.49
690.407	35.45
690.593	35.49
690.779	35.52
690.965	35.58
691.151	35.47
691.337	35.61
691.523	35.69
691.709	35.8
691.895	35.9
692.081	36.29
692.267	36.54
692.453	36.44
692.639	36.49
692.825	36.54
693.011	36.57
693.196	36.87
693.382	37.01
693.568	37.05
693.754	36.84
693.94	36.51
694.125	36.54
694.311	36.6
694.497	36.54
694.682	36.47
694.868	36.1
695.054	36.09
695.239	35.93
695.425	35.89
695.611	35.87
695.796	35.84
695.982	36.13
696.168	35.81
696.353	35.74
696.539	35.79
696.724	35.93
696.91	35.96
697.095	35.99
697.281	35.8
697.466	35.78
697.652	35.68
697.837	35.74
698.023	35.62
698.208	35.66
698.393	35.54
698.579	35.45
698.764	35.4
698.949	35.66
699.135	35.4
699.32	35.58
699.505	35.4
699.691	35.58
699.876	35.47
700.061	35.54
700.246	35.48
700.432	35.78
700.617	36.12
700.802	35.89
700.987	35.85
701.172	36.08
701.358	35.7
701.543	35.94
701.728	35.92
701.913	36.06
702.098	36.05
702.283	36.26
702.468	35.84
702.653	35.49
702.838	35.92
703.023	35.69
703.208	36
703.393	36.25
703.578	36.23
703.763	36.3
703.948	36.61
704.133	37.04
704.318	36.83
704.503	36.77
704.688	37.06
704.873	36.89
705.057	37.12
705.242	37.02
705.427	36.88
705.612	36.69
705.797	36.53
705.981	36.29
706.166	36.09
706.351	36.27
706.536	36.43
706.72	36.55
706.905	36.6
707.09	36.3
707.274	36.06
707.459	36.15
707.644	36.66
707.828	36.69
708.013	36.82
708.197	36.87
708.382	37.23
708.567	37.45
708.751	37.1
708.936	37.11
709.12	37.5
709.305	37.63
709.489	37.86
709.673	37.2
709.858	37.01
710.042	36.9
710.227	36.99
710.411	36.71
710.596	36.38
710.78	36.57
710.964	36.34
711.149	36.2
711.333	36.42
711.517	36.35
711.702	36.67
711.886	36.59
712.07	36.61
712.254	36.58
712.438	36.47
712.623	36.5
712.807	36.25
712.991	36.61
713.175	36.64
713.359	36.5
713.544	36.55
713.728	36.1
713.912	36.19
714.096	36.2
714.28	36.28
714.464	36.45
714.648	36.42
714.832	36.71
715.016	36.65
715.2	36.61
715.384	37.08
715.568	37.05
715.752	37.8
715.936	37.91
716.12	38.03
716.304	37.7
716.488	37.55
716.671	37.96
716.855	37.59
717.039	37.34
717.223	37.39
717.407	36.88
717.59	36.47
717.774	36.03
717.958	35.97
718.142	35.8
718.325	36.17
718.509	36.13
718.693	36.17
718.877	36.64
719.06	36.93
719.244	36.94
719.428	36.68
719.611	37.33
719.795	37.44
719.978	37.81
720.162	37.72
720.345	37.3
720.529	37.18
720.713	36.78
720.896	36.76
721.08	36.63
721.263	36.09
721.446	36.14
721.63	36.44
721.813	36.34
721.997	35.63
722.18	35.63
722.364	36.14
722.547	36.27
722.73	36.27
722.914	36.22
723.097	36.32
723.28	36.69
723.464	36.62
723.647	36.03
723.83	36.05
724.013	36.39
724.197	36.29
724.38	36.16
724.563	36.29
724.746	36.54
724.929	36.63
725.112	36.68
725.296	36.89
725.479	37.21
725.662	37.4
725.845	37.56
726.028	37.43
726.211	37.56
726.394	37.26
726.577	37.13
726.76	37.17
726.943	36.76
727.126	36.58
727.309	36.39
727.492	36.51
727.675	36.13
727.858	36.31
728.041	36.44
728.224	36.66
728.407	36.87
728.589	37.01
728.772	36.45
728.955	36.48
729.138	36.51
729.321	36.74
729.503	36.52
729.686	36.96
729.869	36.87
730.052	36.84
730.234	36.79
730.417	36.77
730.6	36.39
730.782	36.54
730.965	37.34
731.148	37.21
731.33	37.23
731.513	36.96
731.695	37.05
731.878	37.29
732.061	37.32
732.243	37.42
732.426	37.15
732.608	37.06
732.791	37.35
732.973	36.78
733.156	36.79
733.338	36.76
733.52	37.51
733.703	37.74
733.885	37.59
734.068	37.37
734.25	37.12
734.432	37.2
734.615	37.64
734.797	37.47
734.979	37.7
735.162	37.52
735.344	37.25
735.526	37.03
735.708	36.23
735.891	36.24
736.073	36.79
736.255	36.68
736.437	36.56
736.619	36.64
736.802	37.13
736.984	36.62
737.166	37.03
737.348	37.42
737.53	37.11
737.712	37.63
737.894	37.33
738.076	36.92
738.258	37.14
738.44	37.31
738.622	37.58
738.804	37.08
738.986	37.61
739.168	37.29
739.35	37.06
739.532	37.01
739.714	36.95
739.896	36.93
740.078	37.14
740.259	37.2
740.441	37.45
740.623	37.2
740.805	37.42
740.987	37.51
741.168	38.04
741.35	37.66
741.532	37.6
741.714	37.65
741.895	37.66
742.077	38.02
742.259	37.76
742.44	37.59
742.622	38.3
742.804	37.6
742.985	37.42
743.167	36.96
743.348	37.66
743.53	38.24
743.711	37.71
743.893	38.06
744.075	37.75
744.256	38.05
744.438	37.61
744.619	36.74
744.8	36.99
744.982	36.63
745.163	36.73
745.345	36.59
745.526	36.49
745.707	36.73
745.889	36.84
746.07	36.81
746.252	36.55
746.433	36.74
746.614	36.75
746.795	36.81
746.977	37.12
747.158	36.79
747.339	36.23
747.52	36.27
747.702	36.34
747.883	36.28
748.064	36.59
748.245	36.92
748.426	36.82
748.607	36.58
748.788	36.58
748.97	36.96
749.151	37.03
749.332	37.52
749.513	37.37
749.694	37.75
749.875	37.55
750.056	36.69
750.237	36.31
750.418	36.55
750.599	36.66
750.78	37.27
750.96	36.43
751.141	37.07
751.322	36.53
751.503	36.06
751.684	36.02
751.865	36.23
752.046	36.94
752.226	36.89
752.407	37.17
752.588	37.5
752.769	37.17
752.949	36.65
753.13	35.88
753.311	36.82
753.492	37.03
753.672	36.17
753.853	35.82
754.034	34.96
754.214	35.21
754.395	34.77
754.575	34.7
754.756	35.12
754.937	36.72
755.117	37.31
755.298	36.82
755.478	36.94
755.659	37.52
755.839	37.11
756.02	37.77
756.2	37.48
756.381	37.84
756.561	38.97
756.741	38.21
756.922	37.24
757.102	37.33
757.283	37.18
757.463	37.76
757.643	38.03
757.823	38.28
758.004	38.96
758.184	39.17
758.364	39.3
758.545	38.22
758.725	38.5
758.905	39.22
759.085	38.98
759.265	39.36
759.446	38.44
759.626	38.12
759.806	37.96
759.986	37.53
760.166	37.46
760.346	37.15
760.526	37.37
760.706	37.84
760.886	37.06
761.066	37.6
761.246	37.88
761.426	38.31
761.606	38.04
761.786	38.28
761.966	38.04
762.146	38.47
762.326	38.26
762.506	38.23
762.686	37.65
762.866	37.92
763.046	37.51
763.225	37.3
763.405	37.1
763.585	36.91
763.765	36.56
763.945	36.53
764.124	36.39
764.304	36.5
764.484	36.41
764.664	36.66
764.843	36.88
765.023	37.07
765.203	36.79
765.382	37.11
765.562	37.03
765.741	37.43
765.921	37.49
766.101	37.52
766.28	37.35
766.46	37.16
766.639	36.96
766.819	37.2
766.998	36.97
767.178	37.18
767.357	36.64
767.537	37.06
767.716	37.31
767.896	37.34
768.075	36.47
768.254	36.89
768.434	37.02
768.613	37.17
768.792	36.8
768.972	36.95
769.151	36.76
769.33	36.86
769.51	37.16
769.689	36.84
769.868	37.08
770.047	37.74
770.226	37.76
770.406	37.9
770.585	37.66
770.764	36.99
770.943	36.71
771.122	36.56
771.301	37.06
771.48	36.59
771.66	37.47
771.839	36.29
772.018	36.08
772.197	36.3
772.376	35.31
772.555	36.19
772.734	35.89
772.913	35.88
773.092	35.83
773.271	35.93
773.449	36.01
773.628	35.24
773.807	36.6
773.986	36.7
774.165	36.84
774.344	38.01
774.523	37.97
774.701	39.37
774.88	39.3
775.059	38.91
775.238	38.13
775.417	38.29
775.595	37.81
775.774	36.92
775.953	37.03
776.131	37.67
776.31	37.48
776.489	37.4
776.667	37.09
776.846	37.49
777.025	38
777.203	38.05
777.382	39.3
777.56	39.59
777.739	40.5
777.917	40.54
778.096	39.28
778.274	39.37
778.453	38.04
778.631	38.73
778.81	38.55
778.988	39.03
779.166	39.98
779.345	39.4
779.523	38.95
779.702	38.2
779.88	39.09
780.058	39.65
780.237	39.59
780.415	40.17
780.593	39.5
780.771	39.6
780.95	39.03
781.128	38.73
781.306	38.83
781.484	39.31
781.662	40.32
781.841	38.78
782.019	38.56
782.197	38.31
782.375	39.47
782.553	39.17
782.731	39.51
782.909	38.85
783.087	39.08
783.265	38.41
783.443	38.07
783.621	37.15
783.799	37.7
783.977	38.15
784.155	38.17
784.333	37.67
784.511	37.53
784.689	36.89
784.867	37.66
785.045	36.78
785.223	36.79
785.4	36.69
785.578	36.92
785.756	37.68
785.934	37.75
786.112	38.07
786.289	38.25
786.467	38.25
786.645	38.43
786.823	38.16
787	38.44
787.178	38.3
787.356	38.42
787.533	37.59
787.711	37.16
787.889	37.11
788.066	36.86
788.244	36.51
788.421	35.68
788.599	35.42
788.776	36.18
788.954	35.98
789.131	35.52
789.309	35.84
789.486	36.76
789.664	36.29
789.841	35.43
790.019	35.05
790.196	35.4
790.373	36.55
790.551	36.9
790.728	36.25
790.906	36.95
791.083	37.21
791.26	37.97
791.437	37.67
791.615	38.13
791.792	38.45
791.969	38.87
792.146	38.25
792.324	37.6
792.501	37.74
792.678	38.11
792.855	37.03
793.032	37.57
793.209	36.68
793.387	36.65
793.564	36.79
793.741	36.52
793.918	37.11
794.095	36.88
794.272	37.17
794.449	36.81
794.626	36.48
794.803	37.33
794.98	37.28
795.157	37.52
795.334	37.89
795.511	37.18
795.688	37.64
795.864	36.84
796.041	37.39
796.218	37.77
796.395	37.74
796.572	38.37
796.749	38.64
796.925	38.57
797.102	38.39
797.279	37.98
797.456	37.61
797.632	37.04
797.809	36.91
797.986	35.87
798.162	35.66
798.339	35.67
798.516	35.04
798.692	33.71
798.869	34.44
799.046	34.27
799.222	34.93
799.399	36.13
799.575	35.76
799.752	35.96
799.928	36.17
800.105	36.95
800.281	36.51
800.458	37.22
800.634	37.85
800.811	37.11
800.987	37.21
801.163	36.91
801.34	36.67
801.516	38.25
801.692	37.94
801.869	38.47
802.045	37.06
802.221	37.77
802.398	38.18
802.574	38.36
802.75	38.29
802.926	39.19
803.103	39.51
803.279	38.07
803.455	38.4
803.631	39.1
803.807	39.41
803.983	40.66
804.16	41.52
804.336	40.45
804.512	40.49
804.688	40.47
804.864	40.29
805.04	40.14
805.216	40.52
805.392	38.75
805.568	38.49
805.744	38.13
805.92	37.41
806.096	36.1
806.272	35.33
806.448	35.38
806.623	36.13
806.799	34.9
806.975	34.41
807.151	35.27
807.327	36.65
807.503	37.09
807.678	37.99
807.854	37.63
808.03	38.5
808.206	39.02
808.381	38.42
808.557	37.83
808.733	38.31
808.908	38.94
809.084	38.49
809.26	38.05
809.435	37.75
809.611	37.4
809.787	38.19
809.962	37.68
810.138	38.67
810.313	39.07
810.489	39.06
810.664	39.97
810.84	39.12
811.015	38.74
811.191	37.54
811.366	37.41
811.542	37
811.717	36.85
811.892	36.14
812.068	35.76
812.243	35.97
812.419	36.69
812.594	36.91
812.769	36.93
812.944	37.76
813.12	38.57
813.295	38.65
813.47	38.22
813.645	37.8
813.821	38.84
813.996	37.21
814.171	36.46
814.346	36.26
814.521	35.88
814.697	37.02
814.872	36.01
815.047	35.27
815.222	35.77
815.397	35.08
815.572	35.32
815.747	35.06
815.922	36.36
816.097	36.81
816.272	35.66
816.447	34.09
816.622	34.35
816.797	35.49
816.972	36.8
817.147	35.94
817.322	38.12
817.496	37.27
817.671	36.85
817.846	37.3
818.021	38.43
818.196	38.58
818.371	38.86
818.545	38.37
818.72	39.29
818.895	38.83
819.069	39.46
819.244	38.48
819.419	39.35
819.594	39.7
819.768	39.41
819.943	38.8
820.117	39.17
820.292	38.54
820.467	37.31
820.641	36.53
820.816	36.41
820.99	36.49
821.165	36.42
821.339	35.93
821.514	35.51
821.688	35.54
821.863	35.38
822.037	35.19
822.212	35.26
822.386	35.51
822.56	35.44
822.735	35.55
822.909	35.42
823.084	35.42
823.258	35.49
823.432	35.61
823.606	35.57
823.781	35.59
823.955	35.77
824.129	36.19
824.303	36.47
824.478	36.74
824.652	36.34
824.826	36.04
825	36.14
825.174	36.37
825.348	36.69
825.523	36.49
825.697	36.26
825.871	36.34
826.045	35.83
826.219	35.69
826.393	35.61
826.567	35.78
826.741	36.09
826.915	36.01
827.089	35.68
827.263	35.54
827.437	35.76
827.611	35.91
827.784	35.39
827.958	35.74
828.132	35.92
828.306	36.06
828.48	36.71
828.654	36.84
828.827	36.67
829.001	36.94
829.175	37.24
829.349	37.57
829.522	38.03
829.696	38.61
829.87	38.92
830.044	38.46
830.217	39
830.391	38.3
830.565	38.39
830.738	38.74
830.912	39.34
831.085	38.45
831.259	37.87
831.432	38.24
831.606	38.19
831.779	37.58
831.953	36.94
832.126	36.29
832.3	35.9
832.473	35.66
832.647	35.91
832.82	35.77
832.994	36.38
833.167	36.57
833.34	35.9
833.514	35.66
833.687	35.57
833.86	37.18
834.034	36.92
834.207	37.8
834.38	38.34
834.553	37.86
834.727	38.47
834.9	38.96
835.073	38.78
835.246	39.85
835.419	40.21
835.593	40.66
835.766	38.61
835.939	38.87
836.112	38.48
836.285	36.42
836.458	37.64
836.631	36.27
836.804	35.65
836.977	36.92
837.15	35.91
837.323	35.52
837.496	36.32
837.669	37.85
837.842	38.46
838.015	39.25
838.188	41.18
838.361	39.85
838.533	39.72
838.706	39.99
838.879	38.08
839.052	39.06
839.225	37.98
839.398	35.74
839.57	35.4
839.743	34.98
839.916	35.09
840.088	36.21
840.261	36.77
840.434	36.31
840.607	35.9
840.779	37.63
840.952	36.7
841.124	38.2
841.297	41.53
841.47	43.09
841.642	44.07
841.815	43.23
841.987	43.42
842.16	45.11
842.332	45.58
842.505	47.45
842.677	46.74
842.85	45.58
843.022	47.73
843.194	44.5
843.367	44.59
843.539	44.52
843.712	45.39
843.884	44.41
844.056	43.21
844.229	45.73
844.401	42.71
844.573	43.51
844.745	46.09
844.918	42.15
845.09	47.01
845.262	46.71
845.434	46.25
845.606	44.85
845.779	43.78
845.951	41.37
846.123	41.08
846.295	41.88
846.467	39.25
846.639	37.45
846.811	41.69
846.983	36.92
847.155	35.98
847.327	36.91
847.499	37.21
847.671	40.32
847.843	45.21
848.015	46.25
848.187	49.85
848.359	52.1
848.531	50.77
848.703	50.51
848.875	49.68
849.047	48.35
849.218	45.14
849.39	47.61
849.562	43.17
849.734	40.35
849.905	39.54
850.077	34.93
850.249	31.31
850.421	30.94
850.592	29.24
850.764	30.43
850.936	34.01
851.107	32.15
851.279	27.83
851.451	33.88
851.622	33.88
851.794	37.38
851.965	38.54
852.137	41.43
852.308	42.21
852.48	41.37
852.651	41.29
852.823	37.13
852.994	37.5
853.166	38.05
853.337	38.13
853.509	36.33
853.68	32.86
853.851	32.92
854.023	32.5
854.194	38.73
854.365	40.97
854.537	39.48
854.708	38.67
854.879	41.31
855.05	40.9
855.222	41.72
855.393	43.14
855.564	43.36
855.735	44.48
855.906	46.05
856.078	43.84
856.249	46.13
856.42	43.89
856.591	48.84
856.762	49.73
856.933	49.74
857.104	42.63
857.275	43.06
857.446	45.57
857.617	45.51
857.788	44.69
857.959	45.17
858.13	42.06
858.301	48.65
858.472	42.2
858.643	39.02
858.814	39.97
858.985	43.87
859.155	44.66
859.326	44.21
859.497	43.91
859.668	45.49
859.839	44.81
860.009	43.51
860.18	42.6
860.351	44.18
860.522	47.59
860.692	51.12
860.863	49.37
861.034	48.37
861.204	44.55
861.375	42.89
861.546	36.07
861.716	35.29
861.887	34.48
862.057	33.79
862.228	36.81
862.398	36.71
862.569	33.65
862.739	30.93
862.91	31.86
863.08	36.51
863.251	40.21
863.421	41.89
863.592	46.44
863.762	53.3
863.932	53.03
864.103	52.49
864.273	56.37
864.443	56.16
864.614	54.3
864.784	52.6
864.954	48.44
865.125	49.65
865.295	52.14
865.465	48.85
865.635	44.48
865.805	45.81
865.976	45.89
866.146	39.92
866.316	40.78
866.486	49.52
866.656	49.85
866.826	52.69
866.996	44.64
867.166	47.04
867.336	43.34
867.506	45.88
867.676	46.16
867.846	44.37
868.016	48.45
868.186	47.85
868.356	45.01
868.526	43.06
868.696	42.26
868.866	44.96
869.036	35.09
869.206	38.2
869.376	31.72
869.545	24.71
869.715	22.55
869.885	25.88
870.055	27.53
870.224	30.2
870.394	29.98
870.564	33.46
870.734	37.13
870.903	41.37
871.073	47.71
871.243	49.75
871.412	58.55
871.582	61.25
871.751	56.18
871.921	55.57
872.091	53.76
872.26	56.66
872.43	55.22
872.599	50.98
872.769	51.7
872.938	43.65
873.108	46.2
873.277	45.95
873.446	45.02
873.616	46.68
873.785	50.41
873.955	45.75
874.124	44.93
874.293	39.99
874.463	42.34
874.632	41.48
874.801	39.84
874.971	32.97
875.14	25.4
875.309	26.7
875.478	23.72
875.647	16.38
875.817	21.5
875.986	22.41
876.155	26.5
876.324	31.19
876.493	34.69
876.662	36.9
876.831	42.66
877	46.24
877.17	44.77
877.339	44.43
877.508	51.07
877.677	47.11
877.846	47.03
878.015	42.66
878.184	36.67
878.352	36.89
878.521	37.6
878.69	31.87
878.859	33.32
879.028	35.56
879.197	38.31
879.366	31.46
879.534	32.29
879.703	33.23
879.872	35.88
880.041	37.01
880.21	36.87
880.378	36.35
880.547	36.75
880.716	36.16
880.884	36.06
881.053	35.7
881.222	37.66
881.39	38.1
881.559	37.32
881.727	37.14
881.896	36.86
882.065	36.56
882.233	37.18
882.402	36.97
882.57	36.86
882.739	36.97
882.907	36.75
883.076	35.94
883.244	35.33
883.412	35.51
883.581	35.38
883.749	35.63
883.918	35.5
884.086	34.92
884.254	35.77
884.423	35.86
884.591	36.03
884.759	35.69
884.927	35.12
885.096	36.01
885.264	36.87
885.432	38.11
885.6	38.14
885.769	37.98
885.937	37.2
886.105	37.07
886.273	38.19
886.441	38.16
886.609	39.69
886.777	41.71
886.945	42.25
887.113	42.2
887.281	38.35
887.449	39.97
887.617	39.89
887.785	45.07
887.953	45.78
888.121	45.54
888.289	42.87
888.457	41.29
888.625	41.88
888.793	43.49
888.961	41.08
889.129	48.83
889.296	48.16
889.464	50.99
889.632	46.72
889.8	47.06
889.967	46.93
890.135	51.44
