Data from 2938473_Reflection_1.txt Node
Date: Wed Jun 17 13:26:22 EDT 2015
User: robert
Spectrometer: USB4E03002
Autoset integration time: false
Trigger mode: 4
Integration Time (sec): 1.000000E-1
Scans to average: 10
Electric dark correction enabled: true
Nonlinearity correction enabled: false
Boxcar width: 5
Stray light correction enabled: false
XAxis mode: Wavelengths
Stop averaging: false
Number of Pixels in Spectrum: 3648
>>>>>Begin Spectral Data<<<<<
177.575	746.11
177.794	224.07
178.014	117.63
178.233	99.34
178.452	31.14
178.672	109.21
178.891	19.75
179.11	-272.83
179.33	-202.86
179.549	-489.33
179.768	-766.12
179.987	-447.05
180.207	-268.49
180.426	-368.21
180.645	-390.81
180.864	-52.91
181.084	-56.35
181.303	-57.99
181.522	-25.22
181.741	-58.17
181.96	-51.59
182.179	-91.46
182.398	-246.67
182.618	210.43
182.837	322.8
183.056	160.63
183.275	104.02
183.494	88.02
183.713	79.8
183.932	99.57
184.151	130.25
184.37	115.53
184.589	136.93
184.808	153.06
185.027	172.47
185.246	163
185.465	236.74
185.684	264.14
185.903	1962.62
186.122	278.82
186.341	199.86
186.56	146.6
186.779	207.1
186.998	251.55
187.216	303
187.435	125.56
187.654	106.75
187.873	131.36
188.092	596.21
188.311	339.58
188.53	-220.44
188.748	15.54
188.967	31.36
189.186	59.41
189.405	45.53
189.623	-19.51
189.842	-31.59
190.061	-98.01
190.28	-128.08
190.498	-201.06
190.717	-425.61
190.936	-911.7
191.154	1309.87
191.373	-8714
191.592	-3148.46
191.81	1048.11
192.029	859.21
192.248	374.15
192.466	385.7
192.685	438.17
192.904	912.78
193.122	2176.8
193.341	3697.13
193.559	-354.03
193.778	-291.32
193.996	-293.98
194.215	-87.95
194.433	-118.24
194.652	-103.89
194.87	-171.81
195.089	-131.2
195.307	306.01
195.526	293.15
195.744	169.52
195.963	205.26
196.181	205.53
196.399	181.64
196.618	162.83
196.836	143.54
197.055	154.58
197.273	167.7
197.491	250.85
197.71	284.24
197.928	227.75
198.146	186.43
198.365	133.43
198.583	78.4
198.801	44.17
199.019	54.82
199.238	29.29
199.456	52.55
199.674	53.02
199.892	34.64
200.111	60.83
200.329	72.04
200.547	37
200.765	61.18
200.983	94.97
201.202	105.79
201.42	114.63
201.638	186.14
201.856	175.22
202.074	166.05
202.292	277.94
202.51	256.49
202.728	128.75
202.946	130.28
203.165	113.79
203.383	135.01
203.601	114.57
203.819	82.09
204.037	53.46
204.255	66.13
204.473	80.32
204.691	85.12
204.909	94.65
205.127	131.13
205.345	195.47
205.562	305.45
205.78	378.54
205.998	556.3
206.216	560.38
206.434	1476.08
206.652	236.32
206.87	333.43
207.088	267.81
207.306	177.99
207.523	179.77
207.741	192.36
207.959	232.94
208.177	173.92
208.395	171.9
208.612	168.86
208.83	192.19
209.048	269.37
209.266	219.68
209.483	340.88
209.701	387.23
209.919	199.79
210.136	313.25
210.354	211.08
210.572	365.54
210.79	233.1
211.007	174.78
211.225	220.44
211.442	117.92
211.66	100
211.878	71.3
212.095	189.15
212.313	208.58
212.53	136.7
212.748	102.57
212.966	111.51
213.183	122.37
213.401	108.3
213.618	111.75
213.836	84.76
214.053	96.24
214.271	112
214.488	12.4
214.705	8.43
214.923	32.21
215.14	42.97
215.358	33.74
215.575	28.71
215.793	57.59
216.01	42.55
216.227	56.63
216.445	56.27
216.662	55.05
216.879	61.28
217.097	66.21
217.314	60.06
217.531	62.27
217.749	40.43
217.966	31.73
218.183	1.7
218.4	4.02
218.618	19.33
218.835	14.52
219.052	6.85
219.269	6.56
219.487	8.41
219.704	8.03
219.921	-0.97
220.138	10.99
220.355	7.04
220.572	7.93
220.79	12.54
221.007	6.03
221.224	3.95
221.441	18.41
221.658	20.42
221.875	22.04
222.092	26.46
222.309	22.72
222.526	21.39
222.743	29.15
222.96	36.04
223.177	35.35
223.394	37.5
223.611	37.91
223.828	39.09
224.045	43.2
224.262	40.39
224.479	36.88
224.696	37.68
224.913	35.69
225.13	36.75
225.347	31.43
225.564	27.23
225.781	23.28
225.997	21.37
226.214	19.12
226.431	16.01
226.648	15.76
226.865	15.45
227.082	15.8
227.298	15.83
227.515	14.16
227.732	14.37
227.949	13.65
228.165	12.02
228.382	12.3
228.599	11.61
228.816	11.67
229.032	10.26
229.249	11.49
229.466	10.79
229.682	12.45
229.899	11.87
230.116	11.34
230.332	13.73
230.549	14.38
230.765	15.03
230.982	16.41
231.199	15.78
231.415	19.16
231.632	18.74
231.848	19.23
232.065	15.97
232.281	16.25
232.498	17.05
232.714	16.12
232.931	19.74
233.147	16.85
233.364	15.82
233.58	16.06
233.797	15.45
234.013	14.39
234.23	13.99
234.446	14.28
234.662	14.87
234.879	15.41
235.095	16.35
235.312	14.75
235.528	16.52
235.744	16.81
235.961	16.81
236.177	15.88
236.393	17.27
236.61	17.64
236.826	17.68
237.042	16.06
237.258	16.83
237.475	15.91
237.691	16.29
237.907	16.77
238.123	17.09
238.339	17.49
238.556	16.77
238.772	15.03
238.988	13.97
239.204	13.48
239.42	14.44
239.636	13.21
239.853	12.12
240.069	9.94
240.285	9.73
240.501	8.96
240.717	8.67
240.933	8.45
241.149	8.99
241.365	8.96
241.581	9.29
241.797	8.99
242.013	8.55
242.229	7.99
242.445	9.34
242.661	8.86
242.877	8.64
243.093	8.13
243.309	8.33
243.525	7.76
243.741	8.2
243.957	8.38
244.173	7.86
244.388	9.09
244.604	9.45
244.82	9.33
245.036	9.18
245.252	8.73
245.468	8.96
245.683	8.67
245.899	8.48
246.115	8.33
246.331	8.14
246.547	8.02
246.762	7.54
246.978	7.69
247.194	7.35
247.409	7.42
247.625	8.62
247.841	8.57
248.057	9.1
248.272	9.44
248.488	9.69
248.703	9.75
248.919	9.84
249.135	9.27
249.35	9.65
249.566	10.11
249.782	9.87
249.997	9.11
250.213	8.62
250.428	8.39
250.644	8.97
250.859	9.34
251.075	9.29
251.29	9.88
251.506	9.98
251.721	9.82
251.937	9.81
252.152	11.12
252.368	11.15
252.583	12.02
252.798	12.55
253.014	11.84
253.229	12.39
253.445	11.68
253.66	11.8
253.875	11.6
254.091	12.41
254.306	12.01
254.521	10.22
254.737	8.53
254.952	8.7
255.167	8.91
255.383	7.9
255.598	6.82
255.813	7.44
256.028	7
256.244	7.49
256.459	6.63
256.674	6.35
256.889	6.4
257.104	6.52
257.32	6.95
257.535	6.36
257.75	6.72
257.965	6.9
258.18	7.02
258.395	7.06
258.61	6.77
258.826	6.7
259.041	6.96
259.256	6.99
259.471	7.21
259.686	6.67
259.901	6.76
260.116	6.85
260.331	6.42
260.546	6.15
260.761	5.8
260.976	6.14
261.191	6.01
261.406	5.84
261.621	5.51
261.836	6.14
262.05	5.89
262.265	5.37
262.48	5.88
262.695	6.2
262.91	6.88
263.125	7.23
263.34	7.76
263.555	7.46
263.769	7.88
263.984	8.23
264.199	7.79
264.414	7.89
264.629	8.57
264.843	7.71
265.058	7.61
265.273	7.23
265.488	6.93
265.702	6.32
265.917	6.82
266.132	6.05
266.346	6.12
266.561	6.16
266.776	6.29
266.99	5.7
267.205	6.45
267.42	6.27
267.634	6.57
267.849	7.1
268.063	6.94
268.278	6.76
268.492	6.97
268.707	6.54
268.922	6.22
269.136	6.09
269.351	6.16
269.565	6.16
269.78	6.7
269.994	6.24
270.209	6.14
270.423	6.31
270.637	6.37
270.852	6.35
271.066	6.44
271.281	6.62
271.495	6.87
271.709	7.53
271.924	7.29
272.138	6.78
272.353	7.02
272.567	6.75
272.781	7.05
272.996	7.19
273.21	7.25
273.424	7.7
273.638	7.83
273.853	7.4
274.067	7.1
274.281	7.43
274.495	7.47
274.71	7.3
274.924	7.51
275.138	7.25
275.352	6.83
275.566	6.77
275.781	6.3
275.995	6.26
276.209	6.77
276.423	6.5
276.637	5.52
276.851	5.62
277.065	5.77
277.279	5.24
277.493	5.5
277.707	5.65
277.921	6.19
278.135	6.72
278.349	6.76
278.563	6.31
278.777	6.33
278.991	7.02
279.205	7.14
279.419	7.29
279.633	7.85
279.847	7.63
280.061	7.55
280.275	7.27
280.489	7.08
280.703	6.78
280.917	6.62
281.131	6.56
281.344	6.78
281.558	6.3
281.772	5.91
281.986	5.53
282.2	5.46
282.414	5.55
282.627	5.22
282.841	5.23
283.055	5.81
283.269	6.57
283.482	6.43
283.696	6.03
283.91	6.45
284.123	6.87
284.337	7.01
284.551	7.21
284.764	7.45
284.978	7.59
285.192	7.72
285.405	7.62
285.619	7.16
285.833	7.53
286.046	7.61
286.26	7.82
286.473	7.57
286.687	7.99
286.9	7.5
287.114	7.51
287.327	7.69
287.541	7.23
287.754	7.17
287.968	7.33
288.181	7.29
288.395	7.59
288.608	6.92
288.822	6.6
289.035	6.49
289.248	6.62
289.462	6.5
289.675	6.46
289.889	7.05
290.102	6.95
290.315	6.45
290.529	6.34
290.742	6.19
290.955	6.47
291.169	6.8
291.382	6.59
291.595	6.82
291.808	6.97
292.022	6.5
292.235	6.55
292.448	6.85
292.661	7.69
292.875	8.01
293.088	7.77
293.301	8.24
293.514	7.94
293.727	8.21
293.94	8.36
294.153	8.35
294.367	8.43
294.58	8.25
294.793	7.77
295.006	7.64
295.219	7.3
295.432	7.25
295.645	6.76
295.858	6.75
296.071	6.51
296.284	6.35
296.497	6.17
296.71	6.1
296.923	6
297.136	5.92
297.349	5.51
297.562	5.71
297.775	5.65
297.988	6.11
298.201	6.31
298.414	6.29
298.626	6.24
298.839	6.45
299.052	6.85
299.265	6.92
299.478	7.25
299.691	7.51
299.903	6.96
300.116	7.06
300.329	7.45
300.542	7.77
300.755	8.11
300.967	8.33
301.18	7.77
301.393	7.48
301.605	6.88
301.818	6.62
302.031	6.51
302.243	6.89
302.456	7.24
302.669	6.38
302.881	6.4
303.094	6.42
303.307	6.13
303.519	6.52
303.732	6.67
303.944	6.91
304.157	7.51
304.37	7.57
304.582	7.91
304.795	7.94
305.007	8.09
305.22	7.39
305.432	7.12
305.645	7.43
305.857	7.34
306.069	7.22
306.282	6.89
306.494	6.18
306.707	6.19
306.919	5.45
307.132	4.56
307.344	4.97
307.556	5.19
307.769	5.14
307.981	5.87
308.193	6.24
308.406	6.42
308.618	6.82
308.83	7.28
309.043	7.34
309.255	7.82
309.467	8.29
309.679	8.1
309.892	8.57
310.104	8.55
310.316	7.89
310.528	7.48
310.74	7.6
310.953	7.76
311.165	7.17
311.377	7.08
311.589	7.55
311.801	7.77
312.013	7.92
312.225	7.7
312.437	7.29
312.649	7.31
312.862	7.54
313.074	7.8
313.286	7.54
313.498	8.26
313.71	7.89
313.922	7.75
314.134	7.52
314.346	7.78
314.558	8.19
314.77	8.85
314.982	8.73
315.193	8.7
315.405	8.42
315.617	8.7
315.829	8.59
316.041	9.24
316.253	8.79
316.465	8.6
316.677	8.37
316.888	7.56
317.1	7.45
317.312	7.67
317.524	8.41
317.736	8.52
317.947	8.87
318.159	9.11
318.371	8.83
318.583	8.9
318.794	8.87
319.006	9.23
319.218	9.62
319.43	9.87
319.641	9.81
319.853	9.39
320.064	9.44
320.276	9.47
320.488	9.07
320.699	9.58
320.911	9.86
321.123	10.54
321.334	10.49
321.546	10.69
321.757	10.81
321.969	11.67
322.18	11.06
322.392	10.95
322.603	10.96
322.815	10.99
323.026	10.55
323.238	10.26
323.449	9.58
323.661	9.01
323.872	9.17
324.083	9.21
324.295	8.47
324.506	8.48
324.718	8.37
324.929	7.65
325.14	7.59
325.352	7.58
325.563	7.58
325.774	8.16
325.986	8.59
326.197	8.48
326.408	8.51
326.62	8.69
326.831	9.24
327.042	9.61
327.253	9.72
327.464	9.95
327.676	10.64
327.887	10.66
328.098	10.28
328.309	10.29
328.52	10.49
328.732	10.32
328.943	10.31
329.154	10.48
329.365	10.7
329.576	10.71
329.787	11.22
329.998	11.19
330.209	11.27
330.42	11.81
330.631	11.12
330.842	11.09
331.053	11.2
331.264	10.63
331.475	10.48
331.686	10.17
331.897	10.89
332.108	10.56
332.319	10.45
332.53	10.7
332.741	10.41
332.952	11.12
333.163	11.26
333.374	11.13
333.585	11.73
333.795	11.58
334.006	11.43
334.217	10.9
334.428	10.65
334.639	10.67
334.849	10.39
335.06	10.23
335.271	10.25
335.482	9.41
335.692	9.43
335.903	9.58
336.114	9.31
336.325	9.6
336.535	9.35
336.746	10.04
336.957	9.81
337.167	9.82
337.378	10.25
337.589	10.27
337.799	10.73
338.01	10.98
338.22	10.92
338.431	11.84
338.642	11.65
338.852	11.77
339.063	10.87
339.273	11.01
339.484	10.73
339.694	10.14
339.905	10.17
340.115	10.17
340.326	9.76
340.536	10.01
340.746	9.11
340.957	9.12
341.167	9.34
341.378	9.56
341.588	9.66
341.799	9.6
342.009	9.61
342.219	9.18
342.43	9.3
342.64	9.75
342.85	9.04
343.061	9.46
343.271	9.89
343.481	9.74
343.691	9.68
343.902	9.2
344.112	9.54
344.322	9.89
344.532	10.04
344.743	9.76
344.953	9.45
345.163	9.71
345.373	9.32
345.583	8.67
345.793	8.34
346.004	8.82
346.214	8.95
346.424	9.23
346.634	8.93
346.844	9.12
347.054	9.35
347.264	9.67
347.474	9.76
347.684	10.01
347.894	10.08
348.104	10.58
348.314	10.18
348.524	9.91
348.734	9.33
348.944	9.78
349.154	9.83
349.364	9.59
349.574	9.31
349.784	9.28
349.994	9.42
350.204	9.55
350.413	9.88
350.623	9.91
350.833	10.14
351.043	10.23
351.253	10.05
351.463	9.68
351.672	9.4
351.882	9.26
352.092	9.07
352.302	9
352.511	8.76
352.721	8.77
352.931	8.34
353.141	8.39
353.35	8.65
353.56	8.67
353.77	9.07
353.979	9.62
354.189	9.32
354.399	9.51
354.608	9.66
354.818	9.58
355.027	9.34
355.237	9.93
355.447	10.01
355.656	9.85
355.866	9.55
356.075	9.07
356.285	9.01
356.494	9.24
356.704	9.21
356.913	9.33
357.123	9.32
357.332	9.23
357.542	8.9
357.751	8.72
357.96	8.87
358.17	8.96
358.379	9.04
358.589	8.6
358.798	8.6
359.007	8.71
359.217	8.31
359.426	8.31
359.635	8.32
359.845	8.41
360.054	8.31
360.263	7.96
360.472	8.27
360.682	8.64
360.891	9.01
361.1	8.99
361.309	8.71
361.519	8.85
361.728	8.86
361.937	8.8
362.146	8.79
362.355	9.02
362.564	9.12
362.774	8.84
362.983	8.59
363.192	8.22
363.401	8.41
363.61	8.32
363.819	8.48
364.028	8.59
364.237	8.55
364.446	8.66
364.655	8.6
364.864	8.95
365.073	8.89
365.282	8.88
365.491	9.22
365.7	9
365.909	9.41
366.118	9.29
366.327	9.39
366.536	9.53
366.745	9.58
366.954	9.29
367.162	9.1
367.371	8.9
367.58	8.5
367.789	8.26
367.998	8.41
368.207	8.11
368.415	7.93
368.624	7.6
368.833	7.4
369.042	7.04
369.25	7.19
369.459	7.15
369.668	7.07
369.877	7.15
370.085	6.9
370.294	6.93
370.503	6.94
370.711	7.19
370.92	7.15
371.129	7.13
371.337	7.03
371.546	6.84
371.754	6.58
371.963	6.86
372.171	6.98
372.38	6.99
372.589	6.56
372.797	6.34
373.006	6
373.214	6.27
373.423	6.46
373.631	6.6
373.84	6.61
374.048	6.89
374.256	6.69
374.465	6.65
374.673	6.88
374.882	6.96
375.09	6.84
375.298	6.71
375.507	6.5
375.715	6.69
375.923	6.59
376.132	6.91
376.34	6.65
376.548	6.5
376.757	6.49
376.965	6.1
377.173	6.28
377.381	6.39
377.59	6.78
377.798	6.99
378.006	6.71
378.214	6.84
378.423	6.67
378.631	6.5
378.839	6.55
379.047	6.56
379.255	6.93
379.463	6.87
379.671	7.03
379.879	6.69
380.088	6.57
380.296	6.52
380.504	6.45
380.712	6.46
380.92	6.57
381.128	6.99
381.336	6.61
381.544	6.46
381.752	6.03
381.96	5.98
382.168	5.97
382.376	5.87
382.584	5.7
382.791	5.68
382.999	5.62
383.207	5.71
383.415	5.42
383.623	5.87
383.831	5.63
384.039	5.98
384.247	5.87
384.454	5.76
384.662	5.56
384.87	5.65
385.078	5.53
385.285	5.63
385.493	5.89
385.701	5.88
385.909	5.59
386.116	5.76
386.324	5.72
386.532	5.68
386.739	5.84
386.947	6.2
387.155	6.12
387.362	6.11
387.57	5.76
387.778	5.51
387.985	5.41
388.193	5.5
388.4	5.49
388.608	5.57
388.816	5.61
389.023	5.5
389.231	5.52
389.438	5.51
389.646	5.46
389.853	5.56
390.061	5.37
390.268	5.27
390.475	5.28
390.683	5.26
390.89	5.2
391.098	5.06
391.305	5.14
391.512	4.81
391.72	4.85
391.927	4.79
392.135	4.8
392.342	4.85
392.549	5.07
392.756	4.84
392.964	4.76
393.171	4.78
393.378	4.7
393.586	4.67
393.793	4.73
394	4.72
394.207	4.81
394.414	4.93
394.622	4.78
394.829	4.6
395.036	4.53
395.243	4.55
395.45	4.41
395.657	4.59
395.864	4.59
396.072	4.63
396.279	4.6
396.486	4.39
396.693	4.15
396.9	4.4
397.107	4.39
397.314	4.7
397.521	4.98
397.728	4.85
397.935	4.92
398.142	4.76
398.349	4.85
398.556	4.65
398.763	4.91
398.97	4.79
399.177	4.62
399.383	4.66
399.59	4.39
399.797	4.36
400.004	4.4
400.211	4.23
400.418	4.15
400.625	4.02
400.831	4.03
401.038	4
401.245	4.06
401.452	4.19
401.658	4.24
401.865	4.5
402.072	4.11
402.279	4.11
402.485	4.06
402.692	4.22
402.899	4.32
403.105	4.44
403.312	4.44
403.519	4.6
403.725	4.49
403.932	4.47
404.138	4.5
404.345	4.71
404.552	4.68
404.758	4.86
404.965	4.77
405.171	4.56
405.378	4.52
405.584	4.32
405.791	4.16
405.997	4.37
406.204	4.43
406.41	4.27
406.617	4.22
406.823	4.27
407.029	4.27
407.236	4.35
407.442	4.55
407.649	4.53
407.855	4.53
408.061	4.65
408.268	4.51
408.474	4.31
408.68	4.33
408.887	4.26
409.093	4.49
409.299	4.32
409.505	4.13
409.712	3.95
409.918	3.85
410.124	3.96
410.33	3.97
410.537	3.94
410.743	4.07
410.949	3.98
411.155	4.24
411.361	3.98
411.567	4.1
411.773	4.27
411.98	4.44
412.186	4.6
412.392	4.62
412.598	4.41
412.804	4.52
413.01	4.34
413.216	4.47
413.422	4.36
413.628	4.25
413.834	4.3
414.04	4.22
414.246	4.09
414.452	3.99
414.658	4.1
414.864	4.2
415.07	4.14
415.275	4.33
415.481	4.32
415.687	4.22
415.893	4.41
416.099	4.36
416.305	4.39
416.511	4.43
416.716	4.54
416.922	4.49
417.128	4.64
417.334	4.57
417.539	4.48
417.745	4.41
417.951	4.41
418.157	4.26
418.362	4.26
418.568	4.33
418.774	4.34
418.979	4.34
419.185	4.32
419.391	4.19
419.596	4.31
419.802	4.28
420.008	4.32
420.213	3.91
420.419	4.01
420.624	3.98
420.83	3.9
421.035	3.86
421.241	3.83
421.446	3.76
421.652	3.83
421.857	3.76
422.063	3.79
422.268	3.75
422.474	4.2
422.679	4.14
422.885	4.05
423.09	4.03
423.295	4.04
423.501	4.03
423.706	4.11
423.911	4.1
424.117	4.15
424.322	4.23
424.527	4.3
424.733	4.25
424.938	4.37
425.143	4.5
425.349	4.48
425.554	4.54
425.759	4.59
425.964	4.57
426.169	4.46
426.375	4.35
426.58	4.23
426.785	4.14
426.99	4.15
427.195	4.07
427.4	4.06
427.605	4.14
427.811	4.1
428.016	3.99
428.221	3.99
428.426	4.07
428.631	4.01
428.836	4.04
429.041	4.03
429.246	3.95
429.451	3.95
429.656	3.95
429.861	4.01
430.066	3.98
430.271	4.14
430.476	4.07
430.681	4.16
430.886	4.3
431.09	4.26
431.295	4.25
431.5	4.38
431.705	4.37
431.91	4.4
432.115	4.29
432.32	4.27
432.524	4.21
432.729	4.32
432.934	4.3
433.139	4.24
433.343	4.35
433.548	4.39
433.753	4.4
433.958	4.39
434.162	4.41
434.367	4.56
434.572	4.61
434.776	4.56
434.981	4.53
435.186	4.57
435.39	4.62
435.595	4.64
435.799	4.6
436.004	4.57
436.209	4.59
436.413	4.51
436.618	4.3
436.822	4.31
437.027	4.3
437.231	4.25
437.436	4.13
437.64	4.05
437.845	4.08
438.049	3.98
438.253	4
438.458	3.93
438.662	3.94
438.867	4.07
439.071	4.14
439.275	4.17
439.48	4.17
439.684	4.17
439.888	4.19
440.093	4.08
440.297	4.22
440.501	4.23
440.706	4.29
440.91	4.28
441.114	4.25
441.318	4.17
441.523	4.2
441.727	4.25
441.931	4.25
442.135	4.24
442.339	4.22
442.543	4.14
442.748	4.05
442.952	4.02
443.156	4.1
443.36	4.15
443.564	4.15
443.768	4.12
443.972	4.08
444.176	4.05
444.38	4.07
444.584	4.04
444.788	4.04
444.992	4.04
445.196	4.01
445.4	3.98
445.604	3.93
445.808	3.99
446.012	3.92
446.216	3.92
446.42	3.96
446.624	3.95
446.828	3.99
447.032	4.03
447.235	4.09
447.439	4.1
447.643	4.06
447.847	4.09
448.051	3.98
448.254	3.97
448.458	3.99
448.662	3.98
448.866	4.02
449.069	4.08
449.273	3.95
449.477	4
449.681	4.05
449.884	4.11
450.088	3.97
450.292	4.07
450.495	4.23
450.699	4.09
450.902	4.17
451.106	4.15
451.31	4.16
451.513	4.3
451.717	4.13
451.92	4.11
452.124	4.11
452.327	4.25
452.531	4.22
452.734	4.03
452.938	4.1
453.141	4
453.345	4
453.548	3.88
453.752	3.8
453.955	3.83
454.158	3.86
454.362	3.84
454.565	3.81
454.769	3.78
454.972	3.84
455.175	3.93
455.379	3.92
455.582	3.89
455.785	3.9
455.988	3.89
456.192	3.96
456.395	3.93
456.598	3.91
456.801	3.93
457.005	3.96
457.208	3.97
457.411	3.93
457.614	3.9
457.817	3.87
458.021	3.88
458.224	3.9
458.427	3.89
458.63	3.87
458.833	3.91
459.036	3.89
459.239	3.87
459.442	3.87
459.645	3.92
459.848	4.03
460.051	4.1
460.254	4.17
460.457	4.23
460.66	4.22
460.863	4.24
461.066	4.31
461.269	4.28
461.472	4.25
461.675	4.28
461.878	4.29
462.081	4.24
462.284	4.17
462.486	4.07
462.689	4.04
462.892	4.15
463.095	4.17
463.298	3.99
463.5	4.07
463.703	4.06
463.906	4.05
464.109	3.94
464.311	3.94
464.514	4
464.717	4.13
464.92	4.03
465.122	4.04
465.325	4
465.528	4.18
465.73	4.17
465.933	4.29
466.135	4.3
466.338	4.25
466.541	4.27
466.743	4.28
466.946	4.19
467.148	4.21
467.351	4.1
467.553	4.16
467.756	4.04
467.958	4
468.161	4.01
468.363	4.01
468.566	4.09
468.768	4
468.971	3.93
469.173	3.87
469.375	3.87
469.578	3.9
469.78	3.98
469.983	3.99
470.185	3.99
470.387	4.05
470.59	4.17
470.792	4.2
470.994	4.17
471.196	4.22
471.399	4.31
471.601	4.36
471.803	4.41
472.005	4.36
472.208	4.33
472.41	4.37
472.612	4.24
472.814	4.15
473.016	4.1
473.218	4.19
473.421	4.16
473.623	4.21
473.825	4.16
474.027	4.07
474.229	4.06
474.431	4.16
474.633	4.19
474.835	4.21
475.037	4.24
475.239	4.2
475.441	4.14
475.643	4.17
475.845	4.21
476.047	4.26
476.249	4.25
476.451	4.19
476.653	4.11
476.855	4.07
477.057	4.06
477.258	4.04
477.46	4.1
477.662	4.22
477.864	4.21
478.066	4.14
478.268	4.13
478.469	4.11
478.671	3.99
478.873	3.96
479.075	3.95
479.276	3.9
479.478	3.86
479.68	3.86
479.882	3.81
480.083	3.76
480.285	3.8
480.487	3.82
480.688	3.91
480.89	4.06
481.091	4.1
481.293	4.1
481.495	4.14
481.696	4.13
481.898	4.09
482.099	4.11
482.301	4.13
482.502	4.09
482.704	4.09
482.905	4.06
483.107	4
483.308	3.95
483.51	3.94
483.711	3.88
483.913	3.89
484.114	3.91
484.315	3.91
484.517	3.9
484.718	3.9
484.92	3.88
485.121	3.87
485.322	3.9
485.524	3.96
485.725	3.97
485.926	3.99
486.127	3.97
486.329	3.96
486.53	3.91
486.731	3.9
486.932	3.9
487.134	3.88
487.335	3.89
487.536	3.87
487.737	3.83
487.938	3.83
488.139	3.87
488.341	3.9
488.542	3.95
488.743	4.02
488.944	4.02
489.145	4.03
489.346	4.08
489.547	4.12
489.748	4.13
489.949	4.2
490.15	4.19
490.351	4.17
490.552	4.14
490.753	4.11
490.954	4.05
491.155	4.06
491.356	4.01
491.557	4.01
491.758	3.94
491.959	3.94
492.159	3.91
492.36	3.91
492.561	3.87
492.762	3.88
492.963	3.82
493.164	3.87
493.364	3.92
493.565	4.09
493.766	4.04
493.967	4.12
494.167	4.19
494.368	4.2
494.569	4.27
494.769	4.33
494.97	4.36
495.171	4.51
495.371	4.5
495.572	4.52
495.773	4.48
495.973	4.47
496.174	4.44
496.375	4.48
496.575	4.46
496.776	4.47
496.976	4.47
497.177	4.5
497.377	4.5
497.578	4.48
497.778	4.47
497.979	4.53
498.179	4.64
498.38	4.69
498.58	4.63
498.78	4.68
498.981	4.64
499.181	4.71
499.382	4.72
499.582	4.6
499.782	4.72
499.983	4.76
500.183	4.65
500.383	4.69
500.584	4.63
500.784	4.68
500.984	4.64
501.184	4.64
501.385	4.71
501.585	4.72
501.785	4.85
501.985	4.77
502.185	4.71
502.386	4.75
502.586	4.69
502.786	4.77
502.986	4.83
503.186	4.86
503.386	4.86
503.586	4.77
503.786	4.7
503.987	4.69
504.187	4.69
504.387	4.76
504.587	4.81
504.787	4.85
504.987	4.84
505.187	4.78
505.387	4.88
505.587	4.95
505.786	5.03
505.986	5.14
506.186	5
506.386	5.06
506.586	5.08
506.786	5.07
506.986	5.13
507.186	5.17
507.386	5.22
507.585	5.24
507.785	5.26
507.985	5.24
508.185	5.28
508.384	5.42
508.584	5.44
508.784	5.5
508.984	5.61
509.183	5.58
509.383	5.62
509.583	5.68
509.782	5.67
509.982	5.71
510.182	5.72
510.381	5.77
510.581	5.81
510.781	5.91
510.98	5.91
511.18	5.91
511.379	5.95
511.579	5.96
511.778	5.91
511.978	5.94
512.177	5.91
512.377	5.93
512.576	5.84
512.776	5.83
512.975	5.78
513.175	5.74
513.374	5.74
513.573	5.76
513.773	5.78
513.972	5.96
514.172	6.05
514.371	6.18
514.57	6.24
514.77	6.4
514.969	6.51
515.168	6.52
515.367	6.63
515.567	6.7
515.766	6.82
515.965	6.81
516.164	6.77
516.364	6.77
516.563	6.81
516.762	6.84
516.961	6.81
517.16	6.79
517.359	6.84
517.559	6.87
517.758	6.87
517.957	6.85
518.156	6.93
518.355	6.92
518.554	6.97
518.753	6.97
518.952	6.91
519.151	6.93
519.35	7.02
519.549	7
519.748	7.01
519.947	7.03
520.146	7.1
520.345	7.07
520.544	7.05
520.743	7.04
520.942	7
521.141	7.09
521.339	7.07
521.538	6.95
521.737	7.08
521.936	7.06
522.135	7.03
522.333	7.09
522.532	7.09
522.731	7.19
522.93	7.2
523.129	7.3
523.327	7.35
523.526	7.4
523.725	7.54
523.923	7.51
524.122	7.56
524.321	7.65
524.519	7.58
524.718	7.67
524.917	7.71
525.115	7.76
525.314	7.77
525.512	7.87
525.711	7.94
525.909	7.99
526.108	8.08
526.306	8.1
526.505	8.17
526.703	8.26
526.902	8.25
527.1	8.3
527.299	8.32
527.497	8.32
527.696	8.3
527.894	8.3
528.092	8.27
528.291	8.23
528.489	8.22
528.688	8.19
528.886	8.17
529.084	8.21
529.283	8.17
529.481	8.17
529.679	8.2
529.877	8.2
530.076	8.29
530.274	8.35
530.472	8.42
530.67	8.53
530.869	8.55
531.067	8.62
531.265	8.63
531.463	8.67
531.661	8.68
531.859	8.73
532.057	8.76
532.255	8.76
532.454	8.75
532.652	8.73
532.85	8.7
533.048	8.75
533.246	8.75
533.444	8.73
533.642	8.76
533.84	8.82
534.038	8.85
534.236	8.87
534.434	8.88
534.632	8.94
534.83	9.08
535.027	9.14
535.225	9.14
535.423	9.13
535.621	9.19
535.819	9.16
536.017	9.18
536.215	9.21
536.412	9.27
536.61	9.3
536.808	9.31
537.006	9.2
537.203	9.19
537.401	9.22
537.599	9.24
537.797	9.33
537.994	9.44
538.192	9.49
538.39	9.57
538.587	9.6
538.785	9.65
538.983	9.69
539.18	9.86
539.378	9.93
539.575	9.98
539.773	10.02
539.97	10
540.168	9.99
540.366	9.99
540.563	9.94
540.761	9.93
540.958	9.94
541.155	9.95
541.353	9.9
541.55	9.91
541.748	9.89
541.945	9.92
542.143	9.96
542.34	10
542.537	9.99
542.735	10.01
542.932	10.04
543.129	10.06
543.327	10.06
543.524	10.13
543.721	10.18
543.919	10.21
544.116	10.24
544.313	10.37
544.51	10.37
544.708	10.48
544.905	10.55
545.102	10.61
545.299	10.64
545.496	10.68
545.693	10.68
545.891	10.69
546.088	10.72
546.285	10.74
546.482	10.65
546.679	10.76
546.876	10.75
547.073	10.75
547.27	10.81
547.467	10.87
547.664	10.92
547.861	11.07
548.058	11.14
548.255	11.14
548.452	11.22
548.649	11.35
548.846	11.34
549.043	11.36
549.24	11.49
549.437	11.58
549.633	11.63
549.83	11.76
550.027	11.75
550.224	11.78
550.421	12
550.618	12.01
550.814	11.94
551.011	12.04
551.208	12.13
551.405	12.18
551.601	12.14
551.798	12.16
551.995	12.1
552.191	12.11
552.388	12.13
552.585	12.1
552.781	12.16
552.978	12.21
553.175	12.21
553.371	12.28
553.568	12.27
553.764	12.4
553.961	12.48
554.157	12.64
554.354	12.72
554.55	12.83
554.747	12.87
554.943	12.95
555.14	13.08
555.336	13.2
555.533	13.31
555.729	13.44
555.926	13.49
556.122	13.4
556.318	13.37
556.515	13.54
556.711	13.53
556.907	13.6
557.104	13.61
557.3	13.7
557.496	13.73
557.693	13.64
557.889	13.67
558.085	13.7
558.281	13.85
558.478	14.03
558.674	13.95
558.87	14.05
559.066	14
559.262	14.08
559.459	14.03
559.655	14.14
559.851	14.34
560.047	14.39
560.243	14.43
560.439	14.53
560.635	14.51
560.831	14.64
561.027	14.65
561.223	14.75
561.419	14.81
561.615	14.86
561.811	14.91
562.007	14.8
562.203	14.87
562.399	15.04
562.595	15.13
562.791	15.31
562.987	15.36
563.183	15.5
563.379	15.65
563.575	15.79
563.771	15.94
563.966	16.04
564.162	16.2
564.358	16.24
564.554	16.21
564.75	16.23
564.945	16.32
565.141	16.32
565.337	16.36
565.533	16.4
565.728	16.27
565.924	16.34
566.12	16.29
566.315	16.32
566.511	16.33
566.707	16.45
566.902	16.5
567.098	16.42
567.293	16.54
567.489	16.54
567.684	16.58
567.88	16.82
568.076	16.81
568.271	17
568.467	17.15
568.662	17.35
568.858	17.46
569.053	17.57
569.248	17.65
569.444	17.66
569.639	17.71
569.835	17.83
570.03	17.8
570.225	17.86
570.421	17.79
570.616	17.78
570.812	17.83
571.007	17.86
571.202	17.91
571.397	17.97
571.593	18.09
571.788	18.25
571.983	18.34
572.178	18.41
572.374	18.61
572.569	18.68
572.764	18.81
572.959	18.88
573.154	18.94
573.35	19.04
573.545	19.07
573.74	19.15
573.935	19.19
574.13	19.22
574.325	19.39
574.52	19.4
574.715	19.51
574.91	19.48
575.105	19.58
575.3	19.6
575.495	19.54
575.69	19.71
575.885	19.74
576.08	19.82
576.275	19.83
576.47	19.88
576.665	19.85
576.86	19.89
577.055	19.98
577.25	19.98
577.444	19.94
577.639	20.1
577.834	20.05
578.029	20.14
578.224	20.16
578.418	20.39
578.613	20.43
578.808	20.45
579.003	20.55
579.197	20.54
579.392	20.5
579.587	20.66
579.781	20.72
579.976	20.89
580.171	20.88
580.365	20.95
580.56	20.81
580.755	20.82
580.949	20.98
581.144	20.97
581.338	21.1
581.533	21.15
581.727	21.23
581.922	21.19
582.116	21.18
582.311	21.29
582.505	21.45
582.7	21.54
582.894	21.68
583.089	21.66
583.283	21.72
583.478	21.88
583.672	22.03
583.866	22
584.061	22.02
584.255	21.96
584.449	21.95
584.644	21.83
584.838	21.86
585.032	21.82
585.226	21.9
585.421	21.95
585.615	21.93
585.809	22.02
586.003	22.09
586.198	22.24
586.392	22.51
586.586	22.58
586.78	22.7
586.974	22.88
587.168	23.1
587.363	23.21
587.557	23.36
587.751	23.58
587.945	23.56
588.139	23.61
588.333	23.74
588.527	23.76
588.721	23.83
588.915	23.87
589.109	23.78
589.303	23.66
589.497	23.65
589.691	23.65
589.885	23.45
590.079	23.47
590.273	23.54
590.466	23.53
590.66	23.37
590.854	23.45
591.048	23.43
591.242	23.59
591.436	23.58
591.629	23.71
591.823	23.69
592.017	23.79
592.211	23.75
592.404	23.9
592.598	23.84
592.792	24.14
592.986	24.07
593.179	24.06
593.373	24
593.567	24.08
593.76	24.1
593.954	24.21
594.147	24.28
594.341	24.37
594.535	24.31
594.728	24.38
594.922	24.14
595.115	24.19
595.309	24.25
595.502	24.31
595.696	24.47
595.889	24.41
596.083	24.36
596.276	24.27
596.47	24.32
596.663	24.28
596.856	24.26
597.05	24.45
597.243	24.54
597.437	24.63
597.63	24.71
597.823	24.55
598.017	24.59
598.21	24.75
598.403	24.96
598.596	24.94
598.79	25.01
598.983	25.1
599.176	25.17
599.369	25.08
599.563	24.96
599.756	24.87
599.949	24.87
600.142	24.87
600.335	24.9
600.528	24.94
600.722	25.08
600.915	25.29
601.108	25.39
601.301	25.48
601.494	25.62
601.687	25.75
601.88	25.78
602.073	25.97
602.266	26.02
602.459	25.97
602.652	26.05
602.845	26.1
603.038	26.07
603.231	26.05
603.424	26.04
603.617	25.96
603.809	25.96
604.002	26.02
604.195	26
604.388	26
604.581	26.07
604.774	25.93
604.966	25.82
605.159	25.77
605.352	25.84
605.545	25.8
605.737	25.98
605.93	26.11
606.123	26.14
606.316	26.36
606.508	26.49
606.701	26.59
606.894	26.85
607.086	27.02
607.279	27.04
607.471	27.02
607.664	27.07
607.857	27.01
608.049	27.03
608.242	27.02
608.434	26.96
608.627	26.94
608.819	26.84
609.012	26.76
609.204	26.76
609.397	26.71
609.589	26.69
609.782	26.82
609.974	26.89
610.166	26.93
610.359	27.02
610.551	26.98
610.743	26.78
610.936	26.94
611.128	26.92
611.32	26.99
611.513	27.14
611.705	27.13
611.897	27.06
612.09	27.12
612.282	26.99
612.474	27.07
612.666	27.17
612.858	27.54
613.051	27.52
613.243	27.58
613.435	27.43
613.627	27.37
613.819	27.57
614.011	27.73
614.203	27.74
614.395	28.01
614.588	27.81
614.78	27.59
614.972	27.52
615.164	27.33
615.356	27.29
615.548	27.34
615.74	27.35
615.932	27.18
616.124	26.78
616.315	26.89
616.507	26.87
616.699	27.05
616.891	27.01
617.083	27.2
617.275	27.26
617.467	27.25
617.659	27.28
617.85	27.39
618.042	27.54
618.234	27.66
618.426	27.54
618.618	27.44
618.809	27.33
619.001	27.3
619.193	27.16
619.384	27.47
619.576	27.6
619.768	27.69
619.959	27.8
620.151	27.7
620.343	27.73
620.534	27.68
620.726	27.66
620.917	27.8
621.109	28
621.301	28.14
621.492	27.98
621.684	28
621.875	28.08
622.067	28
622.258	28.12
622.45	28.32
622.641	28.42
622.832	28.33
623.024	28.31
623.215	28.34
623.407	28.2
623.598	28.23
623.789	28.17
623.981	28.13
624.172	28.06
624.363	28.09
624.555	28.06
624.746	28.07
624.937	28.2
625.129	28.4
625.32	28.56
625.511	28.68
625.702	28.53
625.893	28.63
626.085	28.51
626.276	28.52
626.467	28.5
626.658	28.41
626.849	28.37
627.04	28.45
627.231	28.25
627.422	28.15
627.614	28.11
627.805	28.32
627.996	28.2
628.187	28.34
628.378	28.48
628.569	28.6
628.76	28.76
628.951	28.8
629.142	28.69
629.332	28.67
629.523	28.68
629.714	28.84
629.905	28.84
630.096	28.84
630.287	28.74
630.478	28.76
630.669	28.74
630.859	28.8
631.05	28.92
631.241	28.98
631.432	29.24
631.623	29.33
631.813	29.27
632.004	29.22
632.195	29.43
632.385	29.45
632.576	29.58
632.767	29.43
632.957	29.46
633.148	29.54
633.339	29.58
633.529	29.46
633.72	29.38
633.91	29.36
634.101	29.5
634.292	29.46
634.482	29.57
634.673	29.6
634.863	29.73
635.054	29.6
635.244	29.33
635.435	29.51
635.625	29.46
635.815	29.61
636.006	29.75
636.196	29.64
636.387	29.71
636.577	29.67
636.767	29.56
636.958	29.55
637.148	29.65
637.338	29.82
637.529	29.8
637.719	30.08
637.909	30.13
638.099	30.12
638.29	30.11
638.48	30.03
638.67	30.15
638.86	30.07
639.05	30.14
639.241	30.25
639.431	30.49
639.621	30.64
639.811	30.56
640.001	30.42
640.191	30.28
640.381	30.34
640.571	30.37
640.761	30.28
640.951	30.28
641.141	30.34
641.331	30.34
641.521	30.18
641.711	30.04
641.901	29.92
642.091	29.91
642.281	30.09
642.471	30.02
642.661	30.09
642.851	30.2
643.041	30.3
643.231	30.25
643.42	30.36
643.61	30.46
643.8	30.53
643.99	30.62
644.18	30.53
644.369	30.43
644.559	30.62
644.749	30.75
644.939	30.79
645.128	30.86
645.318	30.89
645.508	30.8
645.697	30.82
645.887	30.86
646.076	30.97
646.266	31.26
646.456	31.55
646.645	31.43
646.835	31.28
647.024	31.12
647.214	31.03
647.403	31.02
647.593	30.98
647.782	30.96
647.972	30.86
648.161	30.82
648.351	30.71
648.54	30.62
648.73	30.92
648.919	30.92
649.108	31.12
649.298	31.14
649.487	31.31
649.677	31.23
649.866	31.12
650.055	31.12
650.244	31.2
650.434	31.17
650.623	31.23
650.812	31.06
651.002	31.23
651.191	31.2
651.38	31.32
651.569	31.11
651.758	31.18
651.947	31.24
652.137	31.3
652.326	31.26
652.515	31.41
652.704	31.33
652.893	31.26
653.082	31.44
653.271	31.44
653.46	31.42
653.649	31.61
653.838	31.6
654.027	31.82
654.216	31.73
654.405	31.65
654.594	31.67
654.783	31.77
654.972	32.01
655.161	31.9
655.35	31.89
655.539	31.77
655.728	31.59
655.916	31.92
656.105	31.69
656.294	31.75
656.483	31.78
656.672	31.61
656.86	31.43
657.049	31.32
657.238	31.17
657.427	31.28
657.615	31.55
657.804	31.71
657.993	31.51
658.181	31.66
658.37	31.76
658.559	31.91
658.747	32.02
658.936	32.1
659.125	32.09
659.313	32.24
659.502	32.26
659.69	32.22
659.879	32.25
660.067	32.42
660.256	32.39
660.444	32.35
660.633	32.32
660.821	32.41
661.01	32.47
661.198	32.71
661.387	32.58
661.575	32.47
661.763	32.46
661.952	32.31
662.14	32.43
662.328	32.51
662.517	32.63
662.705	32.51
662.893	32.3
663.082	32.4
663.27	32.31
663.458	32.48
663.646	32.49
663.834	32.45
664.023	32.53
664.211	32.31
664.399	32.14
664.587	32.13
664.775	32.18
664.963	32.34
665.152	32.26
665.34	32.49
665.528	32.44
665.716	32.5
665.904	32.68
666.092	32.69
666.28	32.48
666.468	32.54
666.656	32.67
666.844	32.95
667.032	32.91
667.22	32.93
667.408	32.75
667.596	32.64
667.784	32.65
667.971	32.66
668.159	32.66
668.347	32.73
668.535	32.91
668.723	32.68
668.911	32.25
669.098	32.52
669.286	32.32
669.474	32.27
669.662	32.43
669.849	32.59
670.037	32.47
670.225	32.81
670.413	33.12
670.6	32.97
670.788	33.29
670.976	33.49
671.163	33.38
671.351	33.65
671.538	33.85
671.726	33.93
671.913	33.88
672.101	33.85
672.289	33.76
672.476	33.34
672.664	33.74
672.851	33.67
673.039	33.83
673.226	33.85
673.413	33.66
673.601	33.71
673.788	33.61
673.976	33.4
674.163	33.61
674.35	33.47
674.538	33.81
674.725	33.69
674.912	33.35
675.1	33.26
675.287	33.05
675.474	33.3
675.662	33.19
675.849	33.25
676.036	33.36
676.223	33.31
676.411	33.31
676.598	33.1
676.785	32.95
676.972	33
677.159	32.96
677.346	33.11
677.533	33.2
677.721	32.99
677.908	32.88
678.095	33.1
678.282	33.08
678.469	33.02
678.656	33.37
678.843	33.37
679.03	33.52
679.217	33.68
679.404	33.65
679.591	33.39
679.778	33.4
679.964	33.57
680.151	33.51
680.338	33.46
680.525	33.56
680.712	33.32
680.899	33.57
681.086	33.43
681.272	33.46
681.459	33.32
681.646	33.67
681.833	33.58
682.02	33.42
682.206	33.37
682.393	33.6
682.58	33.62
682.766	33.64
682.953	33.37
683.14	33.5
683.326	33.63
683.513	33.86
683.7	33.65
683.886	33.77
684.073	33.83
684.259	33.67
684.446	33.64
684.632	33.47
684.819	33.42
685.005	33.49
685.192	33.49
685.378	33.3
685.565	33.25
685.751	33.02
685.938	33.06
686.124	33.08
686.31	33.16
686.497	32.98
686.683	33.3
686.87	33.5
687.056	33.44
687.242	33.38
687.429	33.14
687.615	33.18
687.801	33.36
687.987	33.56
688.174	33.9
688.36	34.06
688.546	34.25
688.732	34.2
688.918	34.09
689.105	34
689.291	34.3
689.477	34.85
689.663	34.86
689.849	35.02
690.035	34.98
690.221	34.8
690.407	35.13
690.593	35.16
690.779	34.85
690.965	35.12
691.151	35.47
691.337	35.06
691.523	34.95
691.709	34.96
691.895	34.91
692.081	34.8
692.267	34.83
692.453	34.37
692.639	34.01
692.825	34.45
693.011	34.2
693.196	34.38
693.382	34.46
693.568	34.36
693.754	34.42
693.94	34.39
694.125	34.34
694.311	34.01
694.497	34.12
694.682	34.24
694.868	34.02
695.054	34.21
695.239	34.02
695.425	34.18
695.611	33.89
695.796	33.81
695.982	33.81
696.168	34.07
696.353	34.36
696.539	34.33
696.724	34.49
696.91	34.53
697.095	34.59
697.281	34.33
697.466	34.15
697.652	34.41
697.837	34.53
698.023	34.48
698.208	34.41
698.393	34.35
698.579	34.31
698.764	34.22
698.949	34.28
699.135	34.14
699.32	34.36
699.505	34.45
699.691	34.19
699.876	34.09
700.061	33.95
700.246	33.87
700.432	34.02
700.617	34
700.802	33.86
700.987	33.53
701.172	33.97
701.358	33.98
701.543	34.1
701.728	34.34
701.913	34.29
702.098	34.69
702.283	35.2
702.468	35.52
702.653	35.75
702.838	36.13
703.023	36.56
703.208	36.3
703.393	35.93
703.578	36.16
703.763	36.18
703.948	36.27
704.133	36.05
704.318	35.6
704.503	35.15
704.688	35.13
704.873	35
705.057	34.55
705.242	34.37
705.427	34.73
705.612	34.89
705.797	34.88
705.981	34.93
706.166	35.43
706.351	35.47
706.536	35.36
706.72	35.56
706.905	35.55
707.09	35.87
707.274	35.86
707.459	35.61
707.644	35.61
707.828	35.41
708.013	35.38
708.197	34.94
708.382	35.47
708.567	35.17
708.751	35.05
708.936	35.43
709.12	35.34
709.305	35.28
709.489	35.38
709.673	35.09
709.858	35.31
710.042	35.56
710.227	35.81
710.411	35.25
710.596	35.57
710.78	35.75
710.964	35.3
711.149	35.42
711.333	35.41
711.517	35.61
711.702	35.43
711.886	35.43
712.07	35.34
712.254	35.27
712.438	35.55
712.623	35.57
712.807	35.59
712.991	35.79
713.175	35.81
713.359	35.47
713.544	35.45
713.728	35.69
713.912	35.52
714.096	35.15
714.28	34.89
714.464	34.91
714.648	34.92
714.832	34.7
715.016	34.77
715.2	34.98
715.384	35.27
715.568	35.05
715.752	34.92
715.936	35.14
716.12	35.42
716.304	35.76
716.488	35.49
716.671	35.66
716.855	35.53
717.039	35.21
717.223	34.66
717.407	34.66
717.59	34.96
717.774	35.01
717.958	35.51
718.142	35.48
718.325	35.61
718.509	35.53
718.693	35.49
718.877	35.69
719.06	36.17
719.244	36.16
719.428	36.2
719.611	35.94
719.795	36.08
719.978	35.38
720.162	35.63
720.345	35.28
720.529	35.5
720.713	35.66
720.896	35.57
721.08	35.14
721.263	35.52
721.446	35.52
721.63	35.64
721.813	35.55
721.997	35.65
722.18	35.4
722.364	35.73
722.547	35.58
722.73	35.25
722.914	35.34
723.097	35.31
723.28	35.54
723.464	35.76
723.647	35.72
723.83	35.92
724.013	36.07
724.197	36.35
724.38	36.42
724.563	36.84
724.746	36.89
724.929	37.4
725.112	37.55
725.296	37.78
725.479	37.8
725.662	37.95
725.845	37.91
726.028	37.3
726.211	37.17
726.394	36.95
726.577	36.69
726.76	37.24
726.943	36.71
727.126	36.79
727.309	36.42
727.492	36.16
727.675	36.04
727.858	36.55
728.041	37.4
728.224	37.18
728.407	37.32
728.589	37.54
728.772	37.08
728.955	37.32
729.138	37.08
729.321	36.97
729.503	37.23
729.686	37.52
729.869	37.02
730.052	36.69
730.234	36.74
730.417	36.72
730.6	36.63
730.782	36.71
730.965	36.76
731.148	37.24
731.33	37.44
731.513	37.72
731.695	37.14
731.878	37.16
732.061	36.95
732.243	37.47
732.426	37.14
732.608	37.23
732.791	37.41
732.973	36.97
733.156	36.68
733.338	36.38
733.52	35.99
733.703	36.39
733.885	36.46
734.068	36.72
734.25	36.56
734.432	36.39
734.615	35.88
734.797	35.4
734.979	35.79
735.162	35.77
735.344	35.76
735.526	36.05
735.708	35.94
735.891	35.43
736.073	35.36
736.255	34.92
736.437	35.5
736.619	35.62
736.802	35.84
736.984	35.91
737.166	36.59
737.348	36.69
737.53	36.66
737.712	36.82
737.894	37.3
738.076	37.54
738.258	37.78
738.44	37.41
738.622	37.35
738.804	37.52
738.986	37.34
739.168	36.66
739.35	36.82
739.532	36.99
739.714	37.22
739.896	36.91
740.078	36.98
740.259	36.72
740.441	36.99
740.623	37.36
740.805	37.36
740.987	37.6
741.168	37.74
741.35	38.08
741.532	37.48
741.714	37.17
741.895	37.44
742.077	36.94
742.259	37.1
742.44	37.19
742.622	36.88
742.804	36.19
742.985	35.67
743.167	35.68
743.348	35.42
743.53	35.48
743.711	35.45
743.893	35.37
744.075	35.87
744.256	36
744.438	36.37
744.619	36.35
744.8	36.79
744.982	37.46
745.163	37.97
745.345	38.28
745.526	38.42
745.707	38.79
745.889	38.26
746.07	37.61
746.252	38.11
746.433	37.71
746.614	37.79
746.795	37.84
746.977	37.89
747.158	37.38
747.339	37.48
747.52	37.08
747.702	37.09
747.883	37.55
748.064	38.35
748.245	37.7
748.426	37.38
748.607	37.28
748.788	37.54
748.97	37.2
749.151	36.72
749.332	36.06
749.513	36.12
749.694	35.43
749.875	34.81
750.056	34.2
750.237	33.72
750.418	34.75
750.599	34.88
750.78	34.62
750.96	35.19
751.141	35.42
751.322	35.55
751.503	35.77
751.684	35.94
751.865	36.8
752.046	37.02
752.226	37.56
752.407	36.62
752.588	36.89
752.769	36.78
752.949	35.92
753.13	35.83
753.311	35.09
753.492	35.14
753.672	35.71
753.853	35.26
754.034	34.87
754.214	35.27
754.395	35.06
754.575	34.84
754.756	35.16
754.937	35.42
755.117	35.33
755.298	36.04
755.478	36.02
755.659	35.69
755.839	36.29
756.02	36.79
756.2	36.48
756.381	36.54
756.561	36.48
756.741	35.71
756.922	35.08
757.102	35.16
757.283	35.76
757.463	35.87
757.643	36.12
757.823	36.54
758.004	36.73
758.184	36.39
758.364	36.81
758.545	37.02
758.725	37.49
758.905	38.29
759.085	39.31
759.265	38.79
759.446	38.33
759.626	38.02
759.806	37.79
759.986	37.76
760.166	38.2
760.346	38.62
760.526	38.31
760.706	38.42
760.886	38.27
761.066	37.77
761.246	38.47
761.426	39.25
761.606	38.99
761.786	38.19
761.966	37.8
762.146	37.31
762.326	37.22
762.506	37.49
762.686	37.62
762.866	37.92
763.046	37.54
763.225	36.94
763.405	36.65
763.585	36.87
763.765	36.77
763.945	36.79
764.124	37.12
764.304	36.65
764.484	36.21
764.664	36.45
764.843	36.26
765.023	36.81
765.203	37.19
765.382	37.54
765.562	37.53
765.741	37.46
765.921	37.43
766.101	37.37
766.28	37.25
766.46	37.61
766.639	36.81
766.819	36.06
766.998	35.65
767.178	34.93
767.357	34.6
767.537	34.9
767.716	35.57
767.896	35.92
768.075	35.7
768.254	35.99
768.434	37.05
768.613	37.52
768.792	38.17
768.972	38.55
769.151	39.48
769.33	38.69
769.51	38.64
769.689	38.69
769.868	38.99
770.047	39.46
770.226	39.09
770.406	37.93
770.585	37.34
770.764	36.8
770.943	35.8
771.122	35.54
771.301	35.84
771.48	35.33
771.66	34.88
771.839	33.96
772.018	33.63
772.197	33.89
772.376	34.13
772.555	34.77
772.734	34.97
772.913	36.2
773.092	35.7
773.271	36.19
773.449	36.75
773.628	36.24
773.807	36.45
773.986	36.45
774.165	36.55
774.344	35.81
774.523	35.3
774.701	34.85
774.88	34.23
775.059	34.15
775.238	33.77
775.417	32.87
775.595	34.66
775.774	34.1
775.953	33.86
776.131	34.15
776.31	34.73
776.489	34.86
776.667	35.35
776.846	35.34
777.025	35.81
777.203	35.76
777.382	36.26
777.56	35.07
777.739	34.58
777.917	34.52
778.096	34.66
778.274	34.87
778.453	35.58
778.631	36.06
778.81	35.87
778.988	35.54
779.166	36.01
779.345	37.13
779.523	36.94
779.702	38.63
779.88	39.36
780.058	39.32
780.237	39.37
780.415	39.06
780.593	38.13
780.771	38.43
780.95	40.09
781.128	39.59
781.306	38.9
781.484	40.62
781.662	39.97
781.841	39.5
782.019	39.7
782.197	38.91
782.375	38.55
782.553	38.86
782.731	39.35
782.909	37.88
783.087	38.78
783.265	39.06
783.443	37.59
783.621	37.25
783.799	37.01
783.977	37.29
784.155	38.16
784.333	38.2
784.511	38.05
784.689	37.07
784.867	37.46
785.045	36.61
785.223	35.87
785.4	34.68
785.578	34.63
785.756	35.03
785.934	35.17
786.112	35.46
786.289	36.07
786.467	36.64
786.645	36.89
786.823	36.48
787	37.37
787.178	37.55
787.356	38.75
787.533	38.81
787.711	38.51
787.889	37.59
788.066	37.04
788.244	36.42
788.421	37.34
788.599	37.87
788.776	38.12
788.954	38.18
789.131	38.3
789.309	38.19
789.486	38.58
789.664	38.97
789.841	39.4
790.019	40.57
790.196	40.3
790.373	38.58
790.551	38.89
790.728	38.14
790.906	37.28
791.083	36.84
791.26	37.45
791.437	37.61
791.615	37.48
791.792	38.17
791.969	37.67
792.146	38.23
792.324	38.69
792.501	38.03
792.678	38.89
792.855	39.83
793.032	39.4
793.209	39.11
793.387	39.69
793.564	40.17
793.741	39.72
793.918	39.81
794.095	39.26
794.272	39.33
794.449	39.02
794.626	39.09
794.803	37.65
794.98	38.75
795.157	38.25
795.334	37.03
795.511	35.75
795.688	35.55
795.864	35.38
796.041	35.42
796.218	35.76
796.395	35.03
796.572	34.95
796.749	35.48
796.925	34.53
797.102	34.8
797.279	35.01
797.456	36.33
797.632	36.24
797.809	35.87
797.986	36.9
798.162	36.65
798.339	37.05
798.516	37.14
798.692	37.45
798.869	37.55
799.046	37.34
799.222	37.73
799.399	37.2
799.575	37.49
799.752	38.05
799.928	38.04
800.105	38
800.281	38.96
800.458	38.88
800.634	38.38
800.811	37.92
800.987	38.58
801.163	38.28
801.34	38.2
801.516	37.8
801.692	36.9
801.869	35.68
802.045	36.32
802.221	36.61
802.398	36.13
802.574	35.78
802.75	36.99
802.926	37.31
803.103	37.49
803.279	38.09
803.455	37.21
803.631	37.32
803.807	37.75
803.983	37.19
804.16	36.27
804.336	35.66
804.512	36.57
804.688	36.92
804.864	36.88
805.04	38.01
805.216	38.02
805.392	38.9
805.568	40.74
805.744	41.83
805.92	42.03
806.096	41.71
806.272	42.99
806.448	42.05
806.623	42.39
806.799	42.28
806.975	41
807.151	40.33
807.327	40.03
807.503	38.31
807.678	38.33
807.854	38.34
808.03	37.93
808.206	37.94
808.381	38.41
808.557	37.66
808.733	37.54
808.908	38.61
809.084	39.33
809.26	40.72
809.435	41.74
809.611	41.8
809.787	42.12
809.962	42.68
810.138	41.84
810.313	42.53
810.489	41.57
810.664	40.93
810.84	39.31
811.015	39.35
811.191	38.54
811.366	37.58
811.542	36.48
811.717	35.85
811.892	36.01
812.068	36.45
812.243	35.13
812.419	35.53
812.594	35.45
812.769	35.94
812.944	34.47
813.12	33.48
813.295	35.27
813.47	36.82
813.645	37.51
813.821	37.54
813.996	37.89
814.171	39.03
814.346	38.25
814.521	38.6
814.697	38.36
814.872	40.25
815.047	41.08
815.222	39.49
815.397	36.9
815.572	37.19
815.747	36.55
815.922	37.44
816.097	37.7
816.272	38.74
816.447	38.62
816.622	39.12
816.797	39.22
816.972	38.91
817.147	40.25
817.322	41.74
817.496	41.5
817.671	43.42
817.846	41.79
818.021	41.33
818.196	41.56
818.371	42.14
818.545	41.76
818.72	41.12
818.895	40.62
819.069	39.6
819.244	39.58
819.419	39.18
819.594	38.6
819.768	40.18
819.943	40.28
820.117	39.78
820.292	40.09
820.467	40.38
820.641	40.2
820.816	40.35
820.99	40.32
821.165	40.17
821.339	39.91
821.514	39.65
821.688	39.3
821.863	39.13
822.037	38.89
822.212	38.85
822.386	38.8
822.56	38.54
822.735	38.58
822.909	38.28
823.084	38.07
823.258	37.95
823.432	37.83
823.606	37.41
823.781	37.06
823.955	37.27
824.129	36.7
824.303	36.25
824.478	36.34
824.652	35.87
824.826	35.83
825	35.9
825.174	35.84
825.348	35.95
825.523	36.17
825.697	36.67
825.871	36.5
826.045	36.51
826.219	36.84
826.393	36.7
826.567	36.85
826.741	37.36
826.915	36.97
827.089	37.38
827.263	37.85
827.437	37.82
827.611	37.26
827.784	37
827.958	37.03
828.132	36.89
828.306	36.9
828.48	36.99
828.654	36.26
828.827	36.65
829.001	36.73
829.175	35.86
829.349	36.04
829.522	36.86
829.696	37.55
829.87	38.31
830.044	38.65
830.217	38.73
830.391	39.5
830.565	40.09
830.738	40.25
830.912	39.47
831.085	39.1
831.259	39.66
831.432	39.59
831.606	39.37
831.779	37.77
831.953	37.65
832.126	37.65
832.3	37.22
832.473	37.25
832.647	37.36
832.82	37.77
832.994	38.25
833.167	37.7
833.34	37.84
833.514	37.89
833.687	38.29
833.86	38.26
834.034	37.76
834.207	37.58
834.38	37.17
834.553	36.78
834.727	36.14
834.9	35.65
835.073	35.13
835.246	34.86
835.419	35.56
835.593	35.56
835.766	35.37
835.939	36.51
836.112	37.12
836.285	37.07
836.458	37.58
836.631	38.18
836.804	38.08
836.977	39.23
837.15	39.41
837.323	38.04
837.496	38.24
837.669	37.25
837.842	36.33
838.015	34.59
838.188	34.8
838.361	34.7
838.533	33.91
838.706	34.92
838.879	35.48
839.052	36.17
839.225	37.99
839.398	39.56
839.57	41.68
839.743	40.83
839.916	39.93
840.088	39.06
840.261	39.28
840.434	40.25
840.607	41.28
840.779	40.94
840.952	41.14
841.124	38.48
841.297	37.5
841.47	35.01
841.642	37.91
841.815	40.31
841.987	41.6
842.16	42.26
842.332	42
842.505	42.08
842.677	42.38
842.85	41.7
843.022	44.02
843.194	45.56
843.367	47.8
843.539	43.72
843.712	41.26
843.884	40.7
844.056	41.91
844.229	42.34
844.401	40.8
844.573	39.67
844.745	37.97
844.918	37.48
845.09	35.46
845.262	36.28
845.434	39.71
845.606	41.05
845.779	42.44
845.951	41.51
846.123	41.09
846.295	43.43
846.467	44.15
846.639	46.82
846.811	45.97
846.983	44.84
847.155	45.56
847.327	48.23
847.499	48.56
847.671	47.23
847.843	41.13
848.015	43.99
848.187	41.42
848.359	40.27
848.531	41.39
848.703	42.1
848.875	44.78
849.047	41.5
849.218	38.69
849.39	35.58
849.562	37.39
849.734	42.65
849.905	40.2
850.077	43.28
850.249	43
850.421	45.84
850.592	45.02
850.764	45.75
850.936	47.96
851.107	47.83
851.279	50.76
851.451	52.77
851.622	55.33
851.794	54.59
851.965	52.3
852.137	53.71
852.308	49.02
852.48	50.13
852.651	46.3
852.823	47.17
852.994	47.31
853.166	46.84
853.337	44.96
853.509	40.25
853.68	39.66
853.851	38.75
854.023	38.93
854.194	39.37
854.365	39.73
854.537	41.98
854.708	41.65
854.879	39.43
855.05	39.95
855.222	39.66
855.393	44.99
855.564	47.38
855.735	48.04
855.906	46.67
856.078	47.28
856.249	43.79
856.42	43.48
856.591	42.77
856.762	43.45
856.933	40.21
857.104	41.71
857.275	38.78
857.446	37.37
857.617	36.24
857.788	35.78
857.959	36.13
858.13	42.81
858.301	44.09
858.472	43.68
858.643	44.27
858.814	48.91
858.985	44.24
859.155	47.53
859.326	49.5
859.497	50.76
859.668	53.83
859.839	49.62
860.009	43.32
860.18	42.45
860.351	42.16
860.522	40.28
860.692	39.05
860.863	44.24
861.034	41.11
861.204	43.21
861.375	40.69
861.546	43.1
861.716	44.06
861.887	49.49
862.057	48.01
862.228	49.88
862.398	50.67
862.569	50.13
862.739	50.25
862.91	51.79
863.08	47.72
863.251	48.36
863.421	45.73
863.592	47.18
863.762	47.17
863.932	48.6
864.103	43.82
864.273	46.05
864.443	46.99
864.614	45.21
864.784	44.58
864.954	43.5
865.125	47.25
865.295	49.13
865.465	48.15
865.635	46.45
865.805	47.99
865.976	51.32
866.146	48.43
866.316	47.88
866.486	52.79
866.656	55.68
866.826	54.92
866.996	49.06
867.166	49.9
867.336	49.3
867.506	48.11
867.676	46.24
867.846	40.24
868.016	41.76
868.186	42.26
868.356	36.74
868.526	31.57
868.696	34
868.866	36.36
869.036	31
869.206	31.73
869.376	25.62
869.545	25.93
869.715	24.97
869.885	27.56
870.055	27.69
870.224	32.48
870.394	33.83
870.564	40.18
870.734	39.32
870.903	38.51
871.073	38.13
871.243	41.6
871.412	38.3
871.582	43.63
871.751	42.85
871.921	46.83
872.091	43.28
872.26	45.43
872.43	40.49
872.599	42.67
872.769	45.37
872.938	47.73
873.108	46.99
873.277	49.6
873.446	52.29
873.616	55.19
873.785	53.2
873.955	50.48
874.124	49.05
874.293	48.65
874.463	49.75
874.632	51.44
874.801	50.34
874.971	53.75
875.14	52.83
875.309	49.72
875.478	45.56
875.647	44.96
875.817	44.04
875.986	46.97
876.155	45.89
876.324	45.1
876.493	42.85
876.662	43.02
876.831	39.52
877	43.67
877.17	45.93
877.339	43.54
877.508	41.85
877.677	45.75
877.846	42.46
878.015	43.45
878.184	42.99
878.352	44.89
878.521	44.53
878.69	46.94
878.859	47.36
879.028	45.73
879.197	46.22
879.366	45.97
879.534	47.99
879.703	46.15
879.872	44.42
880.041	44.19
880.21	42.42
880.378	42.91
880.547	42.56
880.716	40.96
880.884	40.14
881.053	40.39
881.222	41.25
881.39	39.51
881.559	39.13
881.727	39.43
881.896	38.97
882.065	39.18
882.233	38.95
882.402	38.12
882.57	37.64
882.739	38.09
882.907	38.06
883.076	36.94
883.244	37.06
883.412	37.42
883.581	37.05
883.749	37.24
883.918	36.53
884.086	36.4
884.254	36.61
884.423	39
884.591	38.37
884.759	38.5
884.927	39.14
885.096	39.74
885.264	41.03
885.432	42
885.6	40.68
885.769	40.3
885.937	41.22
886.105	42.43
886.273	39.65
886.441	40.24
886.609	41.65
886.777	42.31
886.945	42.33
887.113	41.72
887.281	42.32
887.449	44.17
887.617	44.83
887.785	43.31
887.953	44.87
888.121	43.2
888.289	47.81
888.457	45.36
888.625	45.71
888.793	48.46
888.961	48.22
889.129	49.77
889.296	54.21
889.464	59.36
889.632	61.39
889.8	59.78
889.967	64.95
890.135	59.07
