Data from 2938513_Reflection_3.txt Node
Date: Tue Jun 16 22:41:29 EDT 2015
User: robert
Spectrometer: USB4E03002
Autoset integration time: false
Trigger mode: 4
Integration Time (sec): 1.000000E-1
Scans to average: 10
Electric dark correction enabled: true
Nonlinearity correction enabled: false
Boxcar width: 5
Stray light correction enabled: false
XAxis mode: Wavelengths
Stop averaging: false
Number of Pixels in Spectrum: 3648
>>>>>Begin Spectral Data<<<<<
177.575	63.62
177.794	51.28
178.014	45.39
178.233	59.92
178.452	75.38
178.672	100.34
178.891	-279.92
179.11	309.09
179.33	669.35
179.549	68.86
179.768	44.02
179.987	88.67
180.207	51.27
180.426	23.35
180.645	24.58
180.864	-16.94
181.084	66.06
181.303	76.12
181.522	91.29
181.741	95.29
181.96	74.01
182.179	81.24
182.398	115.19
182.618	113.37
182.837	113.05
183.056	110.19
183.275	155
183.494	137.09
183.713	-67.03
183.932	-136.2
184.151	-105.83
184.37	-1674.76
184.589	192.27
184.808	94.81
185.027	106.34
185.246	80.13
185.465	122.46
185.684	87.78
185.903	127.35
186.122	110.7
186.341	91.7
186.56	104.44
186.779	131.22
186.998	226.99
187.216	331.5
187.435	201.22
187.654	208.78
187.873	276.32
188.092	225.03
188.311	142.94
188.53	29.79
188.748	-51.03
188.967	-1602.15
189.186	-35.75
189.405	23.5
189.623	6.46
189.842	-6.33
190.061	-15.61
190.28	-28.38
190.498	12.82
190.717	45.11
190.936	79.84
191.154	76.94
191.373	77.65
191.592	84.44
191.81	72.99
192.029	80.76
192.248	94.89
192.466	118.8
192.685	108.61
192.904	159.8
193.122	142.87
193.341	75.63
193.559	5.22
193.778	60.73
193.996	64.63
194.215	108.38
194.433	51.6
194.652	1.01
194.87	-243.37
195.089	12.49
195.307	37.73
195.526	33.08
195.744	86.94
195.963	85.23
196.181	111.39
196.399	108.74
196.618	120.19
196.836	131.28
197.055	113.05
197.273	128.09
197.491	157.86
197.71	110.34
197.928	139.43
198.146	114.59
198.365	91.13
198.583	60.38
198.801	76.29
199.019	53.02
199.238	39.73
199.456	-64.62
199.674	-8.91
199.892	-2.65
200.111	33.92
200.329	40.68
200.547	42.1
200.765	46.41
200.983	67.24
201.202	44.21
201.42	47.66
201.638	24.39
201.856	51.92
202.074	37.43
202.292	41.75
202.51	58.49
202.728	52.61
202.946	57.37
203.165	51.4
203.383	18.18
203.601	57.49
203.819	117.13
204.037	135.29
204.255	83.13
204.473	101.22
204.691	88.38
204.909	92
205.127	131.69
205.345	126.81
205.562	99.86
205.78	95.55
205.998	91.38
206.216	13.51
206.434	27.63
206.652	75.21
206.87	132.24
207.088	152.67
207.306	139.48
207.523	66.65
207.741	52.53
207.959	82.88
208.177	52.01
208.395	30.14
208.612	61.1
208.83	56.94
209.048	45.21
209.266	36.31
209.483	33.8
209.701	22.06
209.919	45.97
210.136	55.29
210.354	52.23
210.572	73.03
210.79	74.66
211.007	65.5
211.225	69.09
211.442	75.49
211.66	72.34
211.878	67.33
212.095	41.63
212.313	35.77
212.53	36.3
212.748	32.25
212.966	26.79
213.183	33.1
213.401	39.92
213.618	36.05
213.836	33.97
214.053	31.69
214.271	26.55
214.488	52.07
214.705	53.17
214.923	53.38
215.14	47.61
215.358	26.86
215.575	9.61
215.793	5.28
216.01	8.5
216.227	15.46
216.445	7.39
216.662	23.71
216.879	28.68
217.097	21.23
217.314	12.57
217.531	28.68
217.749	23.29
217.966	46.83
218.183	44.18
218.4	44.53
218.618	30.91
218.835	31.1
219.052	11.66
219.269	3.76
219.487	3.29
219.704	5.77
219.921	0.75
220.138	2.07
220.355	-2.46
220.572	-2.84
220.79	-6.35
221.007	-3.99
221.224	-2.38
221.441	4.31
221.658	6.55
221.875	13.95
222.092	9.43
222.309	7.21
222.526	13.62
222.743	11.56
222.96	8.86
223.177	10.62
223.394	16.69
223.611	22.68
223.828	26.56
224.045	27.82
224.262	23.12
224.479	24.6
224.696	22.31
224.913	18.24
225.13	17.35
225.347	18.85
225.564	18.32
225.781	15.29
225.997	13.97
226.214	11.09
226.431	10.02
226.648	9.45
226.865	8.86
227.082	9.88
227.298	11.32
227.515	10.52
227.732	10.27
227.949	9.93
228.165	9.01
228.382	7.72
228.599	7.97
228.816	7.16
229.032	8.44
229.249	8.12
229.466	7.62
229.682	5.14
229.899	5.37
230.116	5.01
230.332	4.5
230.549	4.69
230.765	3.56
230.982	1.87
231.199	4.16
231.415	1.24
231.632	0.23
231.848	1.22
232.065	3.54
232.281	4.81
232.498	4.93
232.714	6.73
232.931	7.45
233.147	8.83
233.364	9.29
233.58	7.28
233.797	8.8
234.013	8.71
234.23	6.15
234.446	4.39
234.662	2.04
234.879	2.88
235.095	2.74
235.312	3.2
235.528	4.59
235.744	6.32
235.961	7.02
236.177	7.83
236.393	9.54
236.61	10.21
236.826	12.38
237.042	13.16
237.258	11.56
237.475	9.71
237.691	10.5
237.907	10.46
238.123	8.47
238.339	8.96
238.556	8.57
238.772	8.52
238.988	9.65
239.204	10.5
239.42	10.47
239.636	11.06
239.853	10.56
240.069	10.18
240.285	9.43
240.501	9.27
240.717	8.72
240.933	8.83
241.149	9.43
241.365	8.43
241.581	7.31
241.797	6.51
242.013	5.97
242.229	6.45
242.445	6.2
242.661	6.2
242.877	6.6
243.093	7.32
243.309	7.22
243.525	6.33
243.741	6.79
243.957	7.54
244.173	7.63
244.388	7.55
244.604	7.55
244.82	6.81
245.036	6.44
245.252	6.52
245.468	6.08
245.683	6.11
245.899	6.21
246.115	6.35
246.331	5.99
246.547	5.65
246.762	5.56
246.978	5.64
247.194	5.79
247.409	6.14
247.625	6.23
247.841	6.37
248.057	6.21
248.272	5.99
248.488	5.86
248.703	5.62
248.919	6.82
249.135	7.04
249.35	6.87
249.566	7.3
249.782	6.53
249.997	6.43
250.213	6.77
250.428	6.23
250.644	6.16
250.859	5.57
251.075	6.13
251.29	5.04
251.506	4.73
251.721	4.42
251.937	4.04
252.152	4.41
252.368	3.9
252.583	3.77
252.798	4.61
253.014	5.81
253.229	6.22
253.445	5.54
253.66	5.92
253.875	6.28
254.091	6.29
254.306	6.68
254.521	6.29
254.737	6.03
254.952	5.44
255.167	4.74
255.383	3.15
255.598	3.64
255.813	3.57
256.028	3.61
256.244	3.64
256.459	3.43
256.674	2.98
256.889	3.63
257.104	3.37
257.32	3.38
257.535	3.48
257.75	3.51
257.965	3.68
258.18	3.9
258.395	4.14
258.61	4.09
258.826	4.29
259.041	4.81
259.256	4.38
259.471	4.63
259.686	4.56
259.901	4.45
260.116	4.48
260.331	4.49
260.546	4.62
260.761	4.29
260.976	4.58
261.191	4.02
261.406	3.14
261.621	3.32
261.836	3.75
262.05	4.55
262.265	4.67
262.48	5.8
262.695	5.56
262.91	5.12
263.125	5.09
263.34	5.31
263.555	5.35
263.769	5.97
263.984	5.82
264.199	5.53
264.414	4.96
264.629	4.81
264.843	4.36
265.058	4.65
265.273	4.75
265.488	5.77
265.702	5.17
265.917	5.76
266.132	5.25
266.346	5.59
266.561	5.51
266.776	5.61
266.99	6.14
267.205	5.97
267.42	5.6
267.634	5.49
267.849	4.62
268.063	4.72
268.278	4.36
268.492	4.75
268.707	4.6
268.922	4.19
269.136	4.43
269.351	4.24
269.565	4.25
269.78	4.03
269.994	4.37
270.209	4.36
270.423	4.27
270.637	4.45
270.852	4.31
271.066	4.06
271.281	4.31
271.495	4.12
271.709	3.75
271.924	3.39
272.138	3.27
272.353	3.27
272.567	3.49
272.781	3.3
272.996	2.83
273.21	2.77
273.424	3.35
273.638	3.09
273.853	2.85
274.067	3.35
274.281	3.53
274.495	4.28
274.71	4.18
274.924	4.26
275.138	4.25
275.352	4.97
275.566	5.33
275.781	5.23
275.995	5.17
276.209	4.9
276.423	5.06
276.637	5.27
276.851	5.1
277.065	4.9
277.279	4.98
277.493	5.42
277.707	4.78
277.921	4.87
278.135	5
278.349	5.46
278.563	5.73
278.777	5.68
278.991	5.99
279.205	6.45
279.419	6.12
279.633	6.13
279.847	6.19
280.061	6.34
280.275	6.22
280.489	5.96
280.703	5.82
280.917	5.96
281.131	5.64
281.344	5.27
281.558	4.72
281.772	5.07
281.986	4.75
282.2	4.93
282.414	5.07
282.627	5.12
282.841	5.4
283.055	5.41
283.269	5.07
283.482	4.95
283.696	5.21
283.91	4.97
284.123	5.12
284.337	5.23
284.551	5.08
284.764	4.89
284.978	4.54
285.192	4.33
285.405	4.45
285.619	4.84
285.833	5.04
286.046	5.01
286.26	4.95
286.473	4.8
286.687	5.08
286.9	5.06
287.114	5.38
287.327	5.53
287.541	5.69
287.754	5.15
287.968	5.15
288.181	5.4
288.395	5.27
288.608	5.62
288.822	5.68
289.035	5.23
289.248	5.57
289.462	5.54
289.675	5.79
289.889	5.47
290.102	5.97
290.315	5.82
290.529	5.96
290.742	6.41
290.955	6.59
291.169	7.08
291.382	7.57
291.595	7.22
291.808	7.44
292.022	7.47
292.235	7.98
292.448	8.07
292.661	8.28
292.875	8.49
293.088	8.15
293.301	8.28
293.514	7.94
293.727	8
293.94	8.18
294.153	8.28
294.367	8.29
294.58	8.39
294.793	8.59
295.006	8.65
295.219	8.64
295.432	8.53
295.645	8.55
295.858	8.75
296.071	8.65
296.284	8.63
296.497	8.77
296.71	8.79
296.923	8.91
297.136	9.06
297.349	9.29
297.562	9.04
297.775	9.59
297.988	9.64
298.201	9.64
298.414	9.83
298.626	9.93
298.839	9.94
299.052	9.87
299.265	9.87
299.478	9.8
299.691	9.89
299.903	10.09
300.116	10.3
300.329	10.2
300.542	10.56
300.755	10.76
300.967	10.82
301.18	10.95
301.393	11.22
301.605	11.63
301.818	11.82
302.031	11.78
302.243	12.17
302.456	11.9
302.669	12.67
302.881	12.34
303.094	12.95
303.307	13
303.519	13.15
303.732	13.86
303.944	13.77
304.157	13.77
304.37	13.8
304.582	13.65
304.795	13.64
305.007	13.45
305.22	13.89
305.432	13.27
305.645	13.8
305.857	13.81
306.069	12.98
306.282	12.97
306.494	12.81
306.707	12.93
306.919	13.04
307.132	12.91
307.344	12.92
307.556	13.32
307.769	13.54
307.981	13.53
308.193	13.41
308.406	13.7
308.618	13.51
308.83	14.28
309.043	14.51
309.255	14.51
309.467	14.97
309.679	15.07
309.892	14.72
310.104	14.83
310.316	14.79
310.528	15.09
310.74	15.18
310.953	15.89
311.165	15.57
311.377	15.8
311.589	16.04
311.801	15.76
312.013	16.25
312.225	16.35
312.437	16.28
312.649	16.48
312.862	16.36
313.074	16.63
313.286	16.6
313.498	16.7
313.71	16.59
313.922	17.03
314.134	16.97
314.346	16.31
314.558	16.66
314.77	17.09
314.982	17.38
315.193	17.63
315.405	18.12
315.617	18.31
315.829	18.18
316.041	17.92
316.253	17.92
316.465	18.5
316.677	18.74
316.888	19.06
317.1	18.92
317.312	18.7
317.524	18.52
317.736	18.31
317.947	18.12
318.159	18.63
318.371	19.03
318.583	18.64
318.794	18.47
319.006	18.62
319.218	18.11
319.43	18.14
319.641	18.32
319.853	18.62
320.064	18.68
320.276	18.24
320.488	18.15
320.699	18.05
320.911	18.42
321.123	19.06
321.334	19.33
321.546	20.08
321.757	19.97
321.969	20.34
322.18	19.8
322.392	19.67
322.603	20.21
322.815	19.84
323.026	19.91
323.238	19.82
323.449	20.06
323.661	19.74
323.872	19.78
324.083	20.16
324.295	20.33
324.506	21.33
324.718	21.43
324.929	21.5
325.14	22.22
325.352	22.73
325.563	22.85
325.774	23.06
325.986	23.73
326.197	23.92
326.408	24.35
326.62	24.74
326.831	24.71
327.042	25.14
327.253	25.34
327.464	25.4
327.676	25.48
327.887	26.11
328.098	26.28
328.309	26.89
328.52	27.34
328.732	27.2
328.943	26.74
329.154	27.1
329.365	27.36
329.576	27.46
329.787	27.66
329.998	27.45
330.209	27.65
330.42	28.11
330.631	27.64
330.842	27.61
331.053	28.16
331.264	28.2
331.475	28.79
331.686	28.81
331.897	29.05
332.108	29.41
332.319	30.1
332.53	30.12
332.741	29.75
332.952	29.95
333.163	29.47
333.374	29.31
333.585	29.73
333.795	28.88
334.006	28.79
334.217	28.66
334.428	28.62
334.639	28.68
334.849	28.86
335.06	29.01
335.271	29.09
335.482	29.48
335.692	29.73
335.903	29.75
336.114	30.22
336.325	30.24
336.535	30.68
336.746	30.32
336.957	30.56
337.167	30.42
337.378	30.55
337.589	30.47
337.799	30.57
338.01	30.57
338.22	30.68
338.431	30.72
338.642	30.61
338.852	30.74
339.063	31.21
339.273	30.92
339.484	30.78
339.694	30.66
339.905	30.87
340.115	30.98
340.326	30.7
340.536	30.8
340.746	30.58
340.957	30.61
341.167	30.28
341.378	30.18
341.588	30.23
341.799	30.1
342.009	29.96
342.219	29.71
342.43	29.43
342.64	29.65
342.85	29.94
343.061	30.48
343.271	30.78
343.481	30.73
343.691	30.72
343.902	30.32
344.112	30.51
344.322	30.39
344.532	30.34
344.743	30.47
344.953	30.16
345.163	30.15
345.373	29.53
345.583	29.4
345.793	29.5
346.004	29.61
346.214	29.59
346.424	29.41
346.634	29.83
346.844	29.92
347.054	30.02
347.264	30.58
347.474	29.82
347.684	29.88
347.894	30.02
348.104	30.06
348.314	29.81
348.524	30.18
348.734	30.01
348.944	29.85
349.154	29.86
349.364	30.01
349.574	29.91
349.784	30.09
349.994	30.29
350.204	30.35
350.413	30.61
350.623	30.68
350.833	30.64
351.043	30.79
351.253	30.98
351.463	31.04
351.672	30.45
351.882	30.11
352.092	30.32
352.302	30.31
352.511	30.2
352.721	29.89
352.931	29.85
353.141	29.82
353.35	30.02
353.56	29.66
353.77	29.56
353.979	29.68
354.189	29.97
354.399	29.6
354.608	29.53
354.818	29.46
355.027	29.81
355.237	29.82
355.447	29.93
355.656	29.89
355.866	29.87
356.075	30.12
356.285	30.32
356.494	30.14
356.704	30.11
356.913	30.02
357.123	29.89
357.332	29.47
357.542	29.38
357.751	29.19
357.96	29.16
358.17	29.05
358.379	29.04
358.589	29.04
358.798	28.7
359.007	28.71
359.217	28.8
359.426	28.7
359.635	28.72
359.845	28.75
360.054	28.82
360.263	28.81
360.472	29.22
360.682	29.3
360.891	28.9
361.1	29.25
361.309	29.23
361.519	29.23
361.728	29.38
361.937	29.53
362.146	29.42
362.355	29.3
362.564	29.07
362.774	28.8
362.983	28.6
363.192	29.01
363.401	28.98
363.61	29.28
363.819	29.04
364.028	28.86
364.237	28.8
364.446	29.03
364.655	28.94
364.864	29.21
365.073	28.95
365.282	28.67
365.491	28.56
365.7	28.66
365.909	28.48
366.118	28.51
366.327	28.31
366.536	28.12
366.745	27.9
366.954	27.86
367.162	27.61
367.371	27.84
367.58	27.79
367.789	27.73
367.998	27.13
368.207	26.88
368.415	26.98
368.624	27.06
368.833	27.15
369.042	27.25
369.25	27.11
369.459	27.29
369.668	26.9
369.877	26.74
370.085	26.66
370.294	26.92
370.503	27.05
370.711	26.95
370.92	27.15
371.129	27.09
371.337	26.86
371.546	26.95
371.754	26.65
371.963	26.93
372.171	26.84
372.38	26.67
372.589	26.69
372.797	26.65
373.006	26.62
373.214	26.42
373.423	26.06
373.631	26.06
373.84	25.98
374.048	26.07
374.256	25.83
374.465	26.18
374.673	26.2
374.882	26.18
375.09	25.87
375.298	25.71
375.507	25.6
375.715	25.79
375.923	25.82
376.132	25.93
376.34	25.61
376.548	25.58
376.757	25.43
376.965	25.41
377.173	25.22
377.381	25.31
377.59	25.51
377.798	25.48
378.006	25.5
378.214	25.57
378.423	25.76
378.631	26.19
378.839	26.31
379.047	26.08
379.255	26
379.463	25.92
379.671	26.31
379.879	26.04
380.088	26.16
380.296	25.99
380.504	25.72
380.712	25.31
380.92	25.08
381.128	25
381.336	25.06
381.544	25.03
381.752	25.05
381.96	24.5
382.168	24.59
382.376	24.53
382.584	24.39
382.791	24.36
382.999	24.39
383.207	24.41
383.415	24.19
383.623	24.14
383.831	24.3
384.039	24.07
384.247	24.14
384.454	24.16
384.662	24.08
384.87	24.24
385.078	24.22
385.285	24.17
385.493	23.98
385.701	24.11
385.909	24.21
386.116	24.11
386.324	24.46
386.532	24.43
386.739	24.35
386.947	24.47
387.155	24.44
387.362	24.33
387.57	24.21
387.778	24.39
387.985	24.43
388.193	24.44
388.4	24.4
388.608	24.46
388.816	24.59
389.023	24.74
389.231	24.69
389.438	24.73
389.646	24.72
389.853	24.79
390.061	24.74
390.268	24.81
390.475	24.77
390.683	24.74
390.89	24.43
391.098	24.3
391.305	24.38
391.512	24.29
391.72	24.13
391.927	24.18
392.135	24.07
392.342	23.84
392.549	23.73
392.756	23.69
392.964	23.67
393.171	23.66
393.378	23.69
393.586	23.36
393.793	23.22
394	23.29
394.207	23.44
394.414	23.54
394.622	23.75
394.829	23.74
395.036	23.51
395.243	23.42
395.45	23.44
395.657	23.22
395.864	23.29
396.072	23.35
396.279	23.34
396.486	23.06
396.693	23.16
396.9	22.86
397.107	22.75
397.314	22.72
397.521	22.71
397.728	22.75
397.935	22.95
398.142	22.98
398.349	23.13
398.556	23.06
398.763	23.2
398.97	22.96
399.177	23.21
399.383	23.29
399.59	23.45
399.797	23.29
400.004	23.15
400.211	23.18
400.418	23.1
400.625	22.94
400.831	22.85
401.038	22.63
401.245	22.43
401.452	22.4
401.658	22.21
401.865	22.16
402.072	22.33
402.279	22.42
402.485	22.39
402.692	22.4
402.899	22.28
403.105	22.3
403.312	22.36
403.519	22.62
403.725	22.56
403.932	22.6
404.138	22.35
404.345	22.29
404.552	22.31
404.758	22.15
404.965	22.01
405.171	21.94
405.378	21.97
405.584	21.98
405.791	21.88
405.997	21.77
406.204	21.65
406.41	22
406.617	21.89
406.823	21.92
407.029	21.94
407.236	22.01
407.442	22.16
407.649	22.03
407.855	22.06
408.061	22.07
408.268	21.97
408.474	22.04
408.68	21.74
408.887	21.77
409.093	21.63
409.299	21.66
409.505	21.45
409.712	21.37
409.918	21.32
410.124	21.37
410.33	21.2
410.537	21.17
410.743	21.17
410.949	21.39
411.155	21.41
411.361	21.38
411.567	21.24
411.773	21.47
411.98	21.53
412.186	21.57
412.392	21.4
412.598	21.58
412.804	21.67
413.01	21.71
413.216	21.58
413.422	21.55
413.628	21.55
413.834	21.65
414.04	21.5
414.246	21.32
414.452	21.25
414.658	21.21
414.864	21.08
415.07	21.11
415.275	21.02
415.481	20.89
415.687	20.9
415.893	21.02
416.099	20.93
416.305	20.95
416.511	20.98
416.716	20.88
416.922	20.84
417.128	20.76
417.334	20.69
417.539	20.63
417.745	20.66
417.951	20.6
418.157	20.43
418.362	20.33
418.568	20.2
418.774	20.11
418.979	20.08
419.185	20.11
419.391	20.2
419.596	20.09
419.802	20.1
420.008	20.07
420.213	20.35
420.419	20.4
420.624	20.46
420.83	20.48
421.035	20.56
421.241	20.56
421.446	20.38
421.652	20.26
421.857	20.23
422.063	20.13
422.268	20.07
422.474	19.66
422.679	19.56
422.885	19.49
423.09	19.41
423.295	19.32
423.501	19.28
423.706	19.38
423.911	19.33
424.117	19.45
424.322	19.43
424.527	19.44
424.733	19.49
424.938	19.49
425.143	19.45
425.349	19.5
425.554	19.51
425.759	19.52
425.964	19.48
426.169	19.47
426.375	19.35
426.58	19.33
426.785	19.38
426.99	19.35
427.195	19.35
427.4	19.38
427.605	19.34
427.811	19.34
428.016	19.52
428.221	19.51
428.426	19.47
428.631	19.41
428.836	19.56
429.041	19.58
429.246	19.52
429.451	19.47
429.656	19.49
429.861	19.5
430.066	19.51
430.271	19.41
430.476	19.45
430.681	19.43
430.886	19.47
431.09	19.39
431.295	19.23
431.5	19.26
431.705	19.23
431.91	19.17
432.115	19.15
432.32	19.2
432.524	19.15
432.729	19.14
432.934	19.18
433.139	19.14
433.343	19.14
433.548	19.15
433.753	19.09
433.958	19.09
434.162	19.08
434.367	19.09
434.572	18.87
434.776	18.85
434.981	18.79
435.186	18.75
435.39	18.77
435.595	18.74
435.799	18.67
436.004	18.84
436.209	18.9
436.413	18.97
436.618	18.96
436.822	19.13
437.027	19.11
437.231	19.07
437.436	19.07
437.64	19.01
437.845	19.05
438.049	19.2
438.253	19.16
438.458	19.09
438.662	19.09
438.867	19.09
439.071	19.02
439.275	19.07
439.48	19.08
439.684	19.14
439.888	19.1
440.093	19.12
440.297	19.1
440.501	18.96
440.706	19.06
440.91	19
441.114	19.06
441.318	19.14
441.523	19.09
441.727	19.12
441.931	19.06
442.135	19.13
442.339	19.03
442.543	18.93
442.748	18.99
442.952	19.01
443.156	19.04
443.36	18.98
443.564	18.87
443.768	18.83
443.972	18.73
444.176	18.77
444.38	18.71
444.584	18.72
444.788	18.73
444.992	18.66
445.196	18.58
445.4	18.45
445.604	18.41
445.808	18.42
446.012	18.4
446.216	18.42
446.42	18.39
446.624	18.37
446.828	18.42
447.032	18.45
447.235	18.51
447.439	18.49
447.643	18.59
447.847	18.57
448.051	18.55
448.254	18.6
448.458	18.63
448.662	18.58
448.866	18.52
449.069	18.53
449.273	18.47
449.477	18.49
449.681	18.49
449.884	18.48
450.088	18.53
450.292	18.58
450.495	18.5
450.699	18.47
450.902	18.39
451.106	18.36
451.31	18.23
451.513	18.26
451.717	18.17
451.92	18.13
452.124	18.02
452.327	17.89
452.531	17.8
452.734	17.82
452.938	17.81
453.141	17.87
453.345	17.92
453.548	17.93
453.752	17.78
453.955	17.82
454.158	17.79
454.362	17.85
454.565	18.01
454.769	18.05
454.972	18.03
455.175	18.03
455.379	18.02
455.582	18.08
455.785	18.18
455.988	18.3
456.192	18.35
456.395	18.32
456.598	18.35
456.801	18.29
457.005	18.31
457.208	18.28
457.411	18.18
457.614	18.12
457.817	18.12
458.021	18.03
458.224	17.96
458.427	17.85
458.63	17.83
458.833	17.86
459.036	17.85
459.239	17.78
459.442	17.77
459.645	17.86
459.848	17.81
460.051	17.77
460.254	17.76
460.457	17.93
460.66	17.99
460.863	18.15
461.066	18.12
461.269	18.15
461.472	18.15
461.675	18.27
461.878	18.23
462.081	18.41
462.284	18.43
462.486	18.45
462.689	18.37
462.892	18.49
463.095	18.44
463.298	18.4
463.5	18.41
463.703	18.54
463.906	18.57
464.109	18.68
464.311	18.67
464.514	18.72
464.717	18.83
464.92	18.83
465.122	18.74
465.325	18.71
465.528	18.83
465.73	18.79
465.933	18.75
466.135	18.73
466.338	18.71
466.541	18.73
466.743	18.76
466.946	18.77
467.148	18.76
467.351	18.85
467.553	18.84
467.756	18.74
467.958	18.8
468.161	18.83
468.363	18.9
468.566	19.04
468.768	19.17
468.971	19.17
469.173	19.12
469.375	19.12
469.578	19.05
469.78	19.1
469.983	19.13
470.185	19.14
470.387	19.21
470.59	19.08
470.792	18.98
470.994	18.84
471.196	18.84
471.399	18.84
471.601	18.88
471.803	18.92
472.005	18.9
472.208	18.83
472.41	18.79
472.612	18.76
472.814	18.78
473.016	18.83
473.218	18.89
473.421	18.92
473.623	18.92
473.825	18.87
474.027	18.88
474.229	18.93
474.431	18.97
474.633	19.05
474.835	19.04
475.037	19.08
475.239	19.08
475.441	19.05
475.643	18.99
475.845	18.95
476.047	18.99
476.249	18.95
476.451	18.88
476.653	18.9
476.855	18.84
477.057	18.85
477.258	18.84
477.46	18.76
477.662	18.7
477.864	18.74
478.066	18.76
478.268	18.74
478.469	18.76
478.671	18.84
478.873	18.84
479.075	18.8
479.276	18.83
479.478	18.88
479.68	18.86
479.882	18.91
480.083	18.88
480.285	18.88
480.487	18.83
480.688	18.84
480.89	18.71
481.091	18.69
481.293	18.66
481.495	18.61
481.696	18.57
481.898	18.5
482.099	18.45
482.301	18.42
482.502	18.39
482.704	18.36
482.905	18.33
483.107	18.33
483.308	18.29
483.51	18.29
483.711	18.26
483.913	18.23
484.114	18.27
484.315	18.24
484.517	18.27
484.718	18.28
484.92	18.3
485.121	18.32
485.322	18.33
485.524	18.36
485.725	18.38
485.926	18.4
486.127	18.39
486.329	18.34
486.53	18.37
486.731	18.32
486.932	18.32
487.134	18.29
487.335	18.3
487.536	18.35
487.737	18.38
487.938	18.36
488.139	18.37
488.341	18.44
488.542	18.5
488.743	18.52
488.944	18.58
489.145	18.62
489.346	18.67
489.547	18.66
489.748	18.65
489.949	18.65
490.15	18.68
490.351	18.68
490.552	18.66
490.753	18.66
490.954	18.66
491.155	18.64
491.356	18.66
491.557	18.66
491.758	18.67
491.959	18.75
492.159	18.75
492.36	18.71
492.561	18.76
492.762	18.78
492.963	18.8
493.164	18.85
493.364	18.84
493.565	18.89
493.766	18.97
493.967	19
494.167	18.93
494.368	18.96
494.569	19.04
494.769	19.01
494.97	19.08
495.171	19.17
495.371	19.24
495.572	19.34
495.773	19.3
495.973	19.36
496.174	19.44
496.375	19.5
496.575	19.49
496.776	19.53
496.976	19.6
497.177	19.59
497.377	19.55
497.578	19.65
497.778	19.69
497.979	19.68
498.179	19.72
498.38	19.79
498.58	19.91
498.78	20.04
498.981	20.09
499.181	20.07
499.382	20.21
499.582	20.28
499.782	20.29
499.983	20.3
500.183	20.45
500.383	20.43
500.584	20.44
500.784	20.43
500.984	20.39
501.184	20.44
501.385	20.52
501.585	20.6
501.785	20.72
501.985	20.69
502.185	20.81
502.386	20.97
502.586	20.99
502.786	20.97
502.986	21.17
503.186	21.29
503.386	21.31
503.586	21.42
503.786	21.43
503.987	21.39
504.187	21.58
504.387	21.66
504.587	21.59
504.787	21.72
504.987	21.85
505.187	21.71
505.387	21.82
505.587	21.96
505.786	22.07
505.986	22.12
506.186	22.26
506.386	22.18
506.586	22.25
506.786	22.35
506.986	22.51
507.186	22.54
507.386	22.66
507.585	22.68
507.785	22.76
507.985	22.86
508.185	22.99
508.384	23.08
508.584	23.3
508.784	23.35
508.984	23.45
509.183	23.41
509.383	23.47
509.583	23.67
509.782	23.77
509.982	23.82
510.182	23.83
510.381	23.84
510.581	23.94
510.781	24
510.98	24.12
511.18	24.17
511.379	24.31
511.579	24.44
511.778	24.41
511.978	24.43
512.177	24.49
512.377	24.55
512.576	24.67
512.776	24.75
512.975	24.85
513.175	24.94
513.374	25.06
513.573	25.23
513.773	25.3
513.972	25.42
514.172	25.57
514.371	25.69
514.57	25.85
514.77	26.01
514.969	26.09
515.168	26.23
515.367	26.32
515.567	26.43
515.766	26.46
515.965	26.6
516.164	26.67
516.364	26.82
516.563	26.96
516.762	27.03
516.961	27.07
517.16	27.15
517.359	27.23
517.559	27.26
517.758	27.39
517.957	27.49
518.156	27.54
518.355	27.65
518.554	27.7
518.753	27.69
518.952	27.76
519.151	27.86
519.35	27.97
519.549	28.04
519.748	28.19
519.947	28.25
520.146	28.34
520.345	28.5
520.544	28.63
520.743	28.77
520.942	28.91
521.141	29.04
521.339	29.11
521.538	29.18
521.737	29.27
521.936	29.45
522.135	29.53
522.333	29.59
522.532	29.67
522.731	29.75
522.93	29.88
523.129	29.98
523.327	30.11
523.526	30.28
523.725	30.48
523.923	30.53
524.122	30.51
524.321	30.58
524.519	30.67
524.718	30.8
524.917	30.87
525.115	30.89
525.314	31
525.512	31.13
525.711	31.19
525.909	31.23
526.108	31.33
526.306	31.46
526.505	31.52
526.703	31.58
526.902	31.62
527.1	31.68
527.299	31.69
527.497	31.69
527.696	31.65
527.894	31.64
528.092	31.61
528.291	31.63
528.489	31.61
528.688	31.63
528.886	31.63
529.084	31.64
529.283	31.65
529.481	31.72
529.679	31.82
529.877	31.99
530.076	32.12
530.274	32.31
530.472	32.46
530.67	32.58
530.869	32.73
531.067	32.89
531.265	32.93
531.463	33.01
531.661	33.05
531.859	33.12
532.057	33.19
532.255	33.24
532.454	33.25
532.652	33.27
532.85	33.26
533.048	33.3
533.246	33.27
533.444	33.38
533.642	33.45
533.84	33.57
534.038	33.6
534.236	33.6
534.434	33.71
534.632	33.74
534.83	33.91
535.027	34.07
535.225	34.17
535.423	34.24
535.621	34.28
535.819	34.34
536.017	34.39
536.215	34.48
536.412	34.56
536.61	34.55
536.808	34.65
537.006	34.64
537.203	34.63
537.401	34.7
537.599	34.8
537.797	34.91
537.994	35
538.192	35.08
538.39	35.14
538.587	35.17
538.785	35.21
538.983	35.3
539.18	35.39
539.378	35.42
539.575	35.38
539.773	35.43
539.97	35.37
540.168	35.35
540.366	35.35
540.563	35.33
540.761	35.34
540.958	35.37
541.155	35.37
541.353	35.29
541.55	35.3
541.748	35.3
541.945	35.25
542.143	35.27
542.34	35.27
542.537	35.24
542.735	35.3
542.932	35.28
543.129	35.28
543.327	35.3
543.524	35.38
543.721	35.39
543.919	35.48
544.116	35.61
544.313	35.69
544.51	35.75
544.708	35.87
544.905	35.91
545.102	35.96
545.299	36.05
545.496	36.01
545.693	36.08
545.891	36.12
546.088	36.12
546.285	36.04
546.482	35.99
546.679	36.04
546.876	35.95
547.073	35.98
547.27	35.97
547.467	35.89
547.664	35.97
547.861	35.88
548.058	35.92
548.255	35.96
548.452	36.02
548.649	36.13
548.846	36.21
549.043	36.32
549.24	36.35
549.437	36.52
549.633	36.62
549.83	36.73
550.027	36.82
550.224	36.78
550.421	36.95
550.618	37.17
550.814	37.23
551.011	37.17
551.208	37.3
551.405	37.32
551.601	37.37
551.798	37.22
551.995	37.23
552.191	37.18
552.388	37.25
552.585	37.15
552.781	36.95
552.978	36.91
553.175	36.95
553.371	36.83
553.568	36.86
553.764	36.88
553.961	37.03
554.157	37.02
554.354	37.04
554.55	37.1
554.747	37.16
554.943	37.24
555.14	37.49
555.336	37.56
555.533	37.76
555.729	37.8
555.926	37.69
556.122	37.82
556.318	37.73
556.515	37.91
556.711	37.91
556.907	38.07
557.104	38.19
557.3	38.02
557.496	37.93
557.693	37.9
557.889	37.93
558.085	37.95
558.281	37.9
558.478	38.1
558.674	38
558.87	38.1
559.066	38.04
559.262	37.95
559.459	38.02
559.655	38.19
559.851	38.08
560.047	38.07
560.243	38.11
560.439	38.19
560.635	38.14
560.831	38.23
561.027	38.19
561.223	38.16
561.419	38.21
561.615	38.2
561.811	38.34
562.007	38.47
562.203	38.42
562.399	38.5
562.595	38.54
562.791	38.56
562.987	38.57
563.183	38.61
563.379	38.71
563.575	38.77
563.771	38.83
563.966	38.72
564.162	38.76
564.358	38.83
564.554	38.94
564.75	38.81
564.945	38.94
565.141	38.99
565.337	39.04
565.533	39
565.728	38.88
565.924	38.86
566.12	38.84
566.315	38.87
566.511	38.86
566.707	38.77
566.902	38.85
567.098	38.73
567.293	38.76
567.489	38.71
567.684	38.69
567.88	38.75
568.076	38.83
568.271	38.97
568.467	38.9
568.662	38.99
568.858	39.08
569.053	39.25
569.248	39.41
569.444	39.56
569.639	39.65
569.835	39.72
570.03	39.85
570.225	39.85
570.421	39.77
570.616	39.75
570.812	39.81
571.007	39.89
571.202	39.83
571.397	39.69
571.593	39.55
571.788	39.52
571.983	39.58
572.178	39.46
572.374	39.53
572.569	39.48
572.764	39.63
572.959	39.69
573.154	39.63
573.35	39.56
573.545	39.71
573.74	39.66
573.935	39.7
574.13	39.6
574.325	39.72
574.52	39.65
574.715	39.75
574.91	39.72
575.105	39.6
575.3	39.54
575.495	39.67
575.69	39.59
575.885	39.63
576.08	39.56
576.275	39.5
576.47	39.43
576.665	39.42
576.86	39.43
577.055	39.51
577.25	39.53
577.444	39.56
577.639	39.65
577.834	39.73
578.029	39.79
578.224	39.88
578.418	40.01
578.613	40.11
578.808	40.19
579.003	40.29
579.197	40.13
579.392	40.27
579.587	40.27
579.781	40.11
579.976	40.17
580.171	40.39
580.365	40.39
580.56	40.42
580.755	40.55
580.949	40.65
581.144	40.61
581.338	40.83
581.533	40.78
581.727	40.95
581.922	40.97
582.116	40.89
582.311	40.75
582.505	40.89
582.7	40.97
582.894	40.89
583.089	40.87
583.283	40.79
583.478	40.78
583.672	40.85
583.866	40.76
584.061	40.86
584.255	40.9
584.449	41.02
584.644	40.94
584.838	40.89
585.032	41.01
585.226	41.01
585.421	41.16
585.615	40.95
585.809	40.82
586.003	40.86
586.198	40.93
586.392	40.89
586.586	40.68
586.78	40.62
586.974	40.59
587.168	40.45
587.363	40.59
587.557	40.4
587.751	40.57
587.945	40.58
588.139	40.51
588.333	40.5
588.527	40.53
588.721	40.58
588.915	40.64
589.109	40.72
589.303	40.78
589.497	40.69
589.691	40.83
589.885	40.89
590.079	40.94
590.273	41.1
590.466	40.95
590.66	40.9
590.854	41.05
591.048	41.26
591.242	41.22
591.436	41.22
591.629	41.24
591.823	41.37
592.017	41.34
592.211	41.33
592.404	41.37
592.598	41.45
592.792	41.52
592.986	41.47
593.179	41.33
593.373	41.5
593.567	41.6
593.76	41.58
593.954	41.44
594.147	41.54
594.341	41.7
594.535	41.64
594.728	41.74
594.922	41.86
595.115	41.83
595.309	41.83
595.502	41.72
595.696	41.54
595.889	41.56
596.083	41.55
596.276	41.36
596.47	41.25
596.663	41.29
596.856	41.16
597.05	41.1
597.243	41.1
597.437	41.02
597.63	41.05
597.823	41.23
598.017	41.15
598.21	41.26
598.403	41.26
598.596	41.31
598.79	41.41
598.983	41.36
599.176	41.41
599.369	41.48
599.563	41.52
599.756	41.57
599.949	41.62
600.142	41.73
600.335	41.72
600.528	41.98
600.722	42.04
600.915	42.05
601.108	42.16
601.301	42.09
601.494	41.96
601.687	41.93
601.88	41.86
602.073	41.87
602.266	41.82
602.459	41.72
602.652	41.64
602.845	41.61
603.038	41.59
603.231	41.66
603.424	41.64
603.617	41.74
603.809	41.85
604.002	41.83
604.195	41.73
604.388	41.7
604.581	41.82
604.774	41.76
604.966	41.78
605.159	41.76
605.352	41.7
605.545	41.59
605.737	41.73
605.93	41.84
606.123	41.89
606.316	41.94
606.508	42.09
606.701	42.01
606.894	42.06
607.086	42.08
607.279	42
607.471	42.15
607.664	42.37
607.857	42.18
608.049	42.07
608.242	42.06
608.434	42.15
608.627	42.15
608.819	42.25
609.012	42.29
609.204	42.2
609.397	42.26
609.589	42.19
609.782	42.2
609.974	42.18
610.166	42.11
610.359	42.27
610.551	42.14
610.743	42.09
610.936	42.02
611.128	41.98
611.32	42.03
611.513	42.08
611.705	42.01
611.897	41.92
612.09	42.07
612.282	42.07
612.474	41.79
612.666	41.92
612.858	41.98
613.051	42.09
613.243	42.03
613.435	42.08
613.627	41.95
613.819	42.09
614.011	42.02
614.203	42.05
614.395	42.15
614.588	42.39
614.78	42.26
614.972	42.25
615.164	42.17
615.356	42.38
615.548	42.23
615.74	42.36
615.932	42.3
616.124	42.43
616.315	42.4
616.507	42.39
616.699	42.38
616.891	42.46
617.083	42.55
617.275	42.52
617.467	42.37
617.659	42.34
617.85	42.24
618.042	42.18
618.234	42.09
618.426	42.11
618.618	42.13
618.809	42.02
619.001	41.82
619.193	41.59
619.384	41.51
619.576	41.43
619.768	41.56
619.959	41.72
620.151	41.63
620.343	41.81
620.534	41.86
620.726	41.78
620.917	41.98
621.109	42.09
621.301	42.15
621.492	42.21
621.684	42.24
621.875	42.4
622.067	42.35
622.258	42.46
622.45	42.34
622.641	42.11
622.832	42.21
623.024	42.16
623.215	42.19
623.407	42.27
623.598	42.27
623.789	42.49
623.981	42.41
624.172	42.43
624.363	42.3
624.555	42.41
624.746	42.67
624.937	42.56
625.129	42.6
625.32	42.69
625.511	42.62
625.702	42.58
625.893	42.48
626.085	42.53
626.276	42.47
626.467	42.53
626.658	42.51
626.849	42.36
627.04	42.58
627.231	42.44
627.422	42.32
627.614	42.36
627.805	42.64
627.996	42.55
628.187	42.42
628.378	42.46
628.569	42.49
628.76	42.38
628.951	42.42
629.142	42.18
629.332	42.19
629.523	42.3
629.714	42.57
629.905	42.33
630.096	42.4
630.287	42.54
630.478	42.56
630.669	42.68
630.859	42.74
631.05	42.65
631.241	42.63
631.432	42.75
631.623	42.62
631.813	42.41
632.004	42.48
632.195	42.58
632.385	42.61
632.576	42.62
632.767	42.48
632.957	42.47
633.148	42.64
633.339	42.71
633.529	42.49
633.72	42.48
633.91	42.52
634.101	42.4
634.292	42.4
634.482	42.26
634.673	42.13
634.863	42.34
635.054	42.4
635.244	42.36
635.435	42.25
635.625	42.29
635.815	42.36
636.006	42.26
636.196	42.32
636.387	42.37
636.577	42.39
636.767	42.51
636.958	42.29
637.148	42.18
637.338	42.14
637.529	42.37
637.719	42.52
637.909	42.44
638.099	42.59
638.29	42.69
638.48	42.51
638.67	42.44
638.86	42.28
639.05	42.23
639.241	42.28
639.431	42.22
639.621	42.1
639.811	42.19
640.001	42.16
640.191	41.97
640.381	41.89
640.571	42.02
640.761	42.24
640.951	42.46
641.141	42.56
641.331	42.56
641.521	42.87
641.711	43
641.901	42.86
642.091	43
642.281	43.29
642.471	43.34
642.661	43.2
642.851	43.07
643.041	42.91
643.231	42.88
643.42	42.75
643.61	42.25
643.8	42.18
643.99	42.15
644.18	42.27
644.369	42.04
644.559	42.06
644.749	42.09
644.939	42.17
645.128	42.46
645.318	42.41
645.508	42.53
645.697	42.69
645.887	42.89
646.076	42.91
646.266	42.78
646.456	42.66
646.645	42.66
646.835	42.52
647.024	42.27
647.214	41.96
647.403	42.1
647.593	42.12
647.782	42.22
647.972	42.01
648.161	42.13
648.351	42.06
648.54	42.31
648.73	42.19
648.919	42.5
649.108	42.64
649.298	42.68
649.487	42.66
649.677	42.64
649.866	42.7
650.055	42.82
650.244	42.98
650.434	43.19
650.623	43.06
650.812	43.14
651.002	43.01
651.191	43.1
651.38	43.19
651.569	43.12
651.758	43.03
651.947	43.05
652.137	42.93
652.326	42.65
652.515	42.59
652.704	42.8
652.893	42.5
653.082	42.61
653.271	42.52
653.46	42.39
653.649	42.65
653.838	42.74
654.027	42.74
654.216	42.76
654.405	42.97
654.594	42.88
654.783	42.81
654.972	43.11
655.161	43.27
655.35	43.14
655.539	43.23
655.728	43.06
655.916	43.09
656.105	43.17
656.294	43.19
656.483	42.87
656.672	42.79
656.86	42.63
657.049	42.69
657.238	42.55
657.427	42.75
657.615	42.84
657.804	42.79
657.993	42.83
658.181	42.58
658.37	42.52
658.559	42.6
658.747	42.72
658.936	42.63
659.125	42.39
659.313	42.33
659.502	42.12
659.69	42
659.879	42.06
660.067	41.78
660.256	42.03
660.444	42.16
660.633	42.06
660.821	42.04
661.01	42.23
661.198	42.6
661.387	42.74
661.575	42.85
661.763	43.02
661.952	42.98
662.14	43.13
662.328	42.98
662.517	42.78
662.705	43.1
662.893	43.16
663.082	43.16
663.27	42.83
663.458	42.58
663.646	42.68
663.834	42.61
664.023	42.47
664.211	42.57
664.399	42.73
664.587	42.78
664.775	42.57
664.963	42.52
665.152	42.59
665.34	42.82
665.528	42.81
665.716	42.76
665.904	42.75
666.092	42.98
666.28	42.91
666.468	42.51
666.656	42.53
666.844	42.62
667.032	42.61
667.22	42.29
667.408	42.09
667.596	42.28
667.784	42.43
667.971	42.46
668.159	42.17
668.347	42.32
668.535	42.46
668.723	42.34
668.911	42.32
669.098	42.19
669.286	42.57
669.474	42.58
669.662	42.5
669.849	42.46
670.037	42.17
670.225	42.25
670.413	42.06
670.6	41.98
670.788	42.14
670.976	42.19
671.163	42.4
671.351	42.11
671.538	42.25
671.726	42.24
671.913	42.09
672.101	42.49
672.289	42.59
672.476	42.76
672.664	42.9
672.851	42.57
673.039	42.38
673.226	42.14
673.413	42.27
673.601	42.05
673.788	41.91
673.976	42.13
674.163	41.8
674.35	41.9
674.538	41.92
674.725	41.71
674.912	41.9
675.1	41.82
675.287	41.96
675.474	42.08
675.662	42.47
675.849	42.41
676.036	42.35
676.223	42.55
676.411	42.59
676.598	42.45
676.785	42.81
676.972	43.12
677.159	43.51
677.346	43.51
677.533	43.64
677.721	43.44
677.908	43.42
678.095	43.34
678.282	43.35
678.469	43.16
678.656	43.25
678.843	43.19
679.03	42.95
679.217	42.7
679.404	42.7
679.591	42.42
679.778	42.39
679.964	42.56
680.151	42.44
680.338	42.64
680.525	42.62
680.712	42.58
680.899	42.62
681.086	42.54
681.272	42.65
681.459	42.53
681.646	42.59
681.833	42.72
682.02	42.61
682.206	42.71
682.393	42.48
682.58	42.66
682.766	42.56
682.953	42.32
683.14	42.58
683.326	42.84
683.513	42.99
683.7	42.88
683.886	42.79
684.073	43
684.259	43.04
684.446	42.93
684.632	42.7
684.819	42.96
685.005	43.11
685.192	43.01
685.378	42.84
685.565	42.76
685.751	42.73
685.938	42.88
686.124	42.82
686.31	42.76
686.497	42.66
686.683	43.05
686.87	42.87
687.056	42.92
687.242	42.86
687.429	42.85
687.615	42.85
687.801	43.21
687.987	43.08
688.174	42.88
688.36	43.07
688.546	43.18
688.732	42.99
688.918	42.97
689.105	42.76
689.291	42.95
689.477	43.2
689.663	43.25
689.849	43.1
690.035	43.05
690.221	43.3
690.407	43.42
690.593	43.47
690.779	43.39
690.965	43.3
691.151	43.3
691.337	43.06
691.523	42.79
691.709	42.81
691.895	42.94
692.081	42.75
692.267	42.76
692.453	42.68
692.639	42.53
692.825	42.61
693.011	42.87
693.196	43.19
693.382	43.26
693.568	43.38
693.754	43.47
693.94	43.31
694.125	43.54
694.311	43.53
694.497	43.3
694.682	43.38
694.868	43.51
695.054	43.27
695.239	43.22
695.425	43.19
695.611	43.24
695.796	43
695.982	43.34
696.168	43.45
696.353	43.39
696.539	43.36
696.724	43.22
696.91	43.13
697.095	43.43
697.281	43.39
697.466	43.45
697.652	43.27
697.837	43.35
698.023	43.07
698.208	42.91
698.393	42.94
698.579	42.86
698.764	42.98
698.949	43.1
699.135	42.88
699.32	43.08
699.505	42.93
699.691	42.93
699.876	43.1
700.061	43.32
700.246	43.21
700.432	43.04
700.617	42.89
700.802	42.92
700.987	42.5
701.172	42.59
701.358	42.61
701.543	42.96
701.728	42.94
701.913	42.39
702.098	42.3
702.283	42.59
702.468	43.12
702.653	43.87
702.838	43.73
703.023	44.22
703.208	43.82
703.393	43.48
703.578	43.09
703.763	43.12
703.948	43.44
704.133	42.98
704.318	42.76
704.503	42.32
704.688	42.1
704.873	42.59
705.057	42.43
705.242	42.91
705.427	42.8
705.612	42.81
705.797	42.81
705.981	42.93
706.166	43.27
706.351	43.47
706.536	43.59
706.72	43.41
706.905	42.93
707.09	42.79
707.274	42.75
707.459	42.43
707.644	42.56
707.828	42.49
708.013	42.59
708.197	43.05
708.382	42.62
708.567	42.48
708.751	42.57
708.936	42.9
709.12	42.84
709.305	42.68
709.489	43.02
709.673	43.15
709.858	43.14
710.042	42.76
710.227	42.06
710.411	42.2
710.596	42.15
710.78	42.28
710.964	42.01
711.149	42.18
711.333	42.31
711.517	42.49
711.702	42.12
711.886	42.48
712.07	42.67
712.254	42.34
712.438	42.81
712.623	42.7
712.807	42.08
712.991	41.91
713.175	41.93
713.359	41.99
713.544	41.72
713.728	41.87
713.912	41.41
714.096	41.27
714.28	41.61
714.464	41.53
714.648	41.74
714.832	41.96
715.016	42.16
715.2	41.8
715.384	41.43
715.568	41.25
715.752	41.06
715.936	41.31
716.12	41.44
716.304	41.56
716.488	41.63
716.671	41.48
716.855	41.45
717.039	41.6
717.223	42.14
717.407	42.72
717.59	43.04
717.774	43.42
717.958	43.16
718.142	43.42
718.325	43.33
718.509	43.13
718.693	43.37
718.877	43.94
719.06	43.79
719.244	43.33
719.428	43.08
719.611	43.13
719.795	43.42
719.978	43.22
720.162	42.79
720.345	43.13
720.529	43.21
720.713	43.34
720.896	43.14
721.08	42.93
721.263	43.37
721.446	43.12
721.63	42.96
721.813	42.43
721.997	42.72
722.18	42.92
722.364	42.93
722.547	42.6
722.73	42.18
722.914	41.94
723.097	42.17
723.28	42.2
723.464	42.44
723.647	42.43
723.83	42.41
724.013	42.57
724.197	42.71
724.38	42.64
724.563	42.91
724.746	43.17
724.929	43.44
725.112	43.55
725.296	43.13
725.479	43.25
725.662	43.34
725.845	43.38
726.028	42.98
726.211	43.1
726.394	43.1
726.577	42.95
726.76	43.02
726.943	43.16
727.126	43.17
727.309	43.26
727.492	42.81
727.675	42.92
727.858	43.25
728.041	43.62
728.224	43.32
728.407	43.1
728.589	42.64
728.772	42.48
728.955	42.3
729.138	42.13
729.321	42.26
729.503	42.48
729.686	42.44
729.869	42.18
730.052	42.37
730.234	42.44
730.417	42.68
730.6	42.92
730.782	42.98
730.965	42.85
731.148	42.56
731.33	42.3
731.513	42.38
731.695	42.19
731.878	41.89
732.061	41.91
732.243	41.78
732.426	41.45
732.608	41.51
732.791	41.5
732.973	41.5
733.156	42.08
733.338	42.03
733.52	42.07
733.703	42.2
733.885	42.33
734.068	41.85
734.25	41.73
734.432	42.12
734.615	42.9
734.797	42.83
734.979	43.04
735.162	42.68
735.344	42.85
735.526	42.73
735.708	43.03
735.891	43.65
736.073	43.96
736.255	44.26
736.437	44.18
736.619	43.57
736.802	43.78
736.984	43.22
737.166	43.11
737.348	43.79
737.53	43.79
737.712	43.54
737.894	43.44
738.076	43.38
738.258	43.04
738.44	42.84
738.622	42.94
738.804	43.12
738.986	43.6
739.168	43.51
739.35	42.71
739.532	42.18
739.714	41.93
739.896	41.41
740.078	41.52
740.259	42
740.441	42.36
740.623	42.32
740.805	41.98
740.987	42.01
741.168	42.85
741.35	43.44
741.532	43.98
741.714	44.15
741.895	44.61
742.077	44.39
742.259	43.89
742.44	44.05
742.622	44
742.804	43.85
742.985	43.82
743.167	43.34
743.348	43.36
743.53	42.96
743.711	43.2
743.893	42.53
744.075	42.77
744.256	42.97
744.438	42.23
744.619	42.03
744.8	41.98
744.982	41.63
745.163	41.39
745.345	41.21
745.526	41.63
745.707	41.4
745.889	42.46
746.07	42.04
746.252	42.3
746.433	42.89
746.614	42.96
746.795	42.95
746.977	43.42
747.158	43.42
747.339	43.72
747.52	43.59
747.702	43.88
747.883	43.13
748.064	43.31
748.245	43.17
748.426	42.92
748.607	42.65
748.788	43.17
748.97	42.25
749.151	42.46
749.332	41.85
749.513	41.91
749.694	41.57
749.875	41.92
750.056	41.93
750.237	42.32
750.418	42.58
750.599	43.54
750.78	43.06
750.96	43.35
751.141	42.87
751.322	42.39
751.503	42.03
751.684	41.96
751.865	41.2
752.046	40.85
752.226	40.99
752.407	40.44
752.588	39.67
752.769	39.94
752.949	40.17
753.13	40.06
753.311	41.24
753.492	42.14
753.672	42.35
753.853	42.88
754.034	43.2
754.214	42.45
754.395	42.96
754.575	43.54
754.756	43.56
754.937	43.68
755.117	44.23
755.298	43.79
755.478	43.16
755.659	42.69
755.839	42.26
756.02	42.56
756.2	42.79
756.381	42.29
756.561	41.76
756.741	41.82
756.922	42.22
757.102	42.54
757.283	42.66
757.463	42.73
757.643	42.61
757.823	43.22
758.004	43.28
758.184	43.01
758.364	42.61
758.545	43.17
758.725	42.68
758.905	42.62
759.085	41.92
759.265	41.72
759.446	41.78
759.626	41.68
759.806	41.94
759.986	41.34
760.166	41.43
760.346	42.12
760.526	41.82
760.706	41.89
760.886	42.07
761.066	42.52
761.246	42.02
761.426	42.23
761.606	42.69
761.786	42.16
761.966	42.35
762.146	42.75
762.326	42.49
762.506	42.18
762.686	41.97
762.866	41.52
763.046	41.57
763.225	41.59
763.405	41.32
763.585	41.37
763.765	41.34
763.945	41.16
764.124	40.91
764.304	40.91
764.484	41.39
764.664	41.19
764.843	41.7
765.023	41.54
765.203	41.76
765.382	41.66
765.562	41.79
765.741	41.78
765.921	42.34
766.101	41.99
766.28	41.95
766.46	41.36
766.639	41.86
766.819	41.33
766.998	41.65
767.178	41.6
767.357	42.25
767.537	41.92
767.716	42.21
767.896	41.56
768.075	42.14
768.254	42.57
768.434	43.16
768.613	43.65
768.792	43.26
768.972	42.86
769.151	42.84
769.33	42.72
769.51	42.75
769.689	42.65
769.868	42.39
770.047	42.28
770.226	42.4
770.406	42.56
770.585	42.64
770.764	43.23
770.943	42.98
771.122	42.91
771.301	41.67
771.48	41.75
771.66	41.58
771.839	41.98
772.018	42.45
772.197	42.05
772.376	41.67
772.555	40.87
772.734	40.38
772.913	40.55
773.092	40.5
773.271	42.31
773.449	42.32
773.628	42.24
773.807	42.72
773.986	41.51
774.165	41.66
774.344	41.36
774.523	41.92
774.701	42.24
774.88	42.42
775.059	42.98
775.238	42.34
775.417	42.46
775.595	42.73
775.774	42.59
775.953	43.73
776.131	43.99
776.31	44.51
776.489	44.63
776.667	44.69
776.846	44.65
777.025	44.33
777.203	43.99
777.382	43.1
777.56	42.63
777.739	42.04
777.917	41.66
778.096	40.81
778.274	40.19
778.453	39.93
778.631	40.4
778.81	40.1
778.988	38.96
779.166	38.83
779.345	40.13
779.523	40.74
779.702	41.83
779.88	41.36
780.058	42.01
780.237	42.56
780.415	43.15
780.593	42.47
780.771	42.65
780.95	44.01
781.128	43.83
781.306	42.45
781.484	42.51
781.662	41.63
781.841	42.92
782.019	42.7
782.197	42.26
782.375	41.63
782.553	41.98
782.731	42.68
782.909	42.21
783.087	43
783.265	43.82
783.443	43.56
783.621	44.19
783.799	43.77
783.977	43.84
784.155	43.69
784.333	43.64
784.511	43.7
784.689	42.97
784.867	44.09
785.045	43.55
785.223	43.4
785.4	43.16
785.578	42.34
785.756	41.97
785.934	41.84
786.112	42.64
786.289	42.56
786.467	42.29
786.645	41.76
786.823	40.91
787	40.85
787.178	40.77
787.356	40.99
787.533	41.17
787.711	40.89
787.889	40.32
788.066	39.29
788.244	40.46
788.421	40.28
788.599	40.99
788.776	40.99
788.954	40.92
789.131	41.57
789.309	41.34
789.486	42.41
789.664	42.88
789.841	44.69
790.019	45.23
790.196	43.54
790.373	43.62
790.551	43.7
790.728	43.61
790.906	43.42
791.083	42.83
791.26	43
791.437	42.51
791.615	42.05
791.792	40.19
791.969	39.34
792.146	39.81
792.324	39.74
792.501	39.45
792.678	39.39
792.855	39.69
793.032	39.34
793.209	39.08
793.387	38.72
793.564	38.93
793.741	38.93
793.918	39.85
794.095	40.61
794.272	41.59
794.449	41.52
794.626	42.04
794.803	42.58
794.98	43.21
795.157	42.77
795.334	43.27
795.511	44.12
795.688	44.99
795.864	44.61
796.041	44.8
796.218	44.17
796.395	43.43
796.572	43.18
796.749	42.91
796.925	43.3
797.102	44.04
797.279	42.9
797.456	42.18
797.632	41.89
797.809	41.99
797.986	41.27
798.162	41.3
798.339	41.99
798.516	41.91
798.692	42.16
798.869	41.51
799.046	41.66
799.222	42.69
799.399	43.47
799.575	43.17
799.752	43.64
799.928	43.97
800.105	43.51
800.281	43.68
800.458	44.1
800.634	44.17
800.811	43.8
800.987	43.65
801.163	43.36
801.34	42.45
801.516	43.53
801.692	44.54
801.869	43.56
802.045	43.89
802.221	44.07
802.398	44.39
802.574	44.2
802.75	43.29
802.926	43.29
803.103	43.41
803.279	43.12
803.455	42.67
803.631	41.93
803.807	41.86
803.983	42.17
804.16	41.63
804.336	41.29
804.512	40.71
804.688	42.33
804.864	42.25
805.04	41.72
805.216	41.84
805.392	41.27
805.568	41.36
805.744	40.95
805.92	40.67
806.096	41.35
806.272	40.6
806.448	40.86
806.623	41.54
806.799	41.94
806.975	41.75
807.151	41.18
807.327	41.59
807.503	41.13
807.678	41.72
807.854	41.39
808.03	42.6
808.206	43.54
808.381	43.17
808.557	43.03
808.733	41.86
808.908	41
809.084	41.15
809.26	40.14
809.435	39.9
809.611	40.13
809.787	40.55
809.962	38.34
810.138	36.11
810.313	37.39
810.489	36.38
810.664	36.5
810.84	36.98
811.015	38.4
811.191	39.1
811.366	39.85
811.542	40.57
811.717	41.1
811.892	41.92
812.068	44
812.243	43.81
812.419	44.13
812.594	43.76
812.769	44.83
812.944	44.52
813.12	45
813.295	44.42
813.47	43.7
813.645	42.37
813.821	40.89
813.996	40.51
814.171	40.35
814.346	40.87
814.521	41.18
814.697	41.47
814.872	40.46
815.047	39.57
815.222	40.4
815.397	40.68
815.572	41.4
815.747	41.89
815.922	41.72
816.097	41.57
816.272	39.98
816.447	39.52
816.622	39.17
816.797	39.61
816.972	40.22
817.147	39.12
817.322	39.63
817.496	40.28
817.671	40.32
817.846	40.9
818.021	40.6
818.196	41.61
818.371	42.85
818.545	42.76
818.72	42.48
818.895	42.59
819.069	42.26
819.244	42.14
819.419	41.2
819.594	41.18
819.768	40.54
819.943	40.84
820.117	40.26
820.292	40.12
820.467	40.12
820.641	40.34
820.816	40.28
820.99	40.77
821.165	40.46
821.339	40.46
821.514	40.72
821.688	40.54
821.863	40.53
822.037	40.71
822.212	40.69
822.386	40.59
822.56	40.43
822.735	40.57
822.909	40.56
823.084	40.4
823.258	40.49
823.432	40.13
823.606	40.06
823.781	39.99
823.955	39.96
824.129	40.02
824.303	40.18
824.478	40.33
824.652	40.02
824.826	39.49
825	39.8
825.174	39.82
825.348	39.99
825.523	40.3
825.697	40.28
825.871	40.21
826.045	40.03
826.219	40.1
826.393	39.95
826.567	40.2
826.741	40.8
826.915	40.62
827.089	40.55
827.263	40.35
827.437	39.94
827.611	39.23
827.784	39.23
827.958	39.61
828.132	38.66
828.306	38.48
828.48	38.47
828.654	37.95
828.827	38.11
829.001	38
829.175	38.35
829.349	39.06
829.522	40.19
829.696	40.51
829.87	40.09
830.044	41.16
830.217	41.35
830.391	41.03
830.565	41.63
830.738	41.24
830.912	41.1
831.085	41.29
831.259	41.65
831.432	41.38
831.606	42.22
831.779	41.15
831.953	41.24
832.126	41.12
832.3	40.56
832.473	41.13
832.647	40.84
832.82	40.89
832.994	40.02
833.167	39.69
833.34	39.5
833.514	38.72
833.687	39.21
833.86	38.75
834.034	38.26
834.207	38.73
834.38	38.59
834.553	39.53
834.727	39.4
834.9	40.59
835.073	40.38
835.246	40.27
835.419	39.41
835.593	39.52
835.766	39.59
835.939	40.73
836.112	39.21
836.285	38.89
836.458	38.54
836.631	38.48
836.804	37.82
836.977	38.59
837.15	38.59
837.323	39.63
837.496	39.66
837.669	40.56
837.842	38.92
838.015	40.73
838.188	40.53
838.361	39.4
838.533	39.72
838.706	39.15
838.879	39.11
839.052	39.24
839.225	39.01
839.398	39.76
839.57	40.33
839.743	42.03
839.916	41.32
840.088	39.92
840.261	40.37
840.434	40.73
840.607	42.16
840.779	41.38
840.952	40.95
841.124	41.04
841.297	40.46
841.47	40.03
841.642	40.88
841.815	40.34
841.987	41.8
842.16	41.33
842.332	41.71
842.505	40.27
842.677	41.45
842.85	42.05
843.022	41.86
843.194	41.68
843.367	42.45
843.539	40.35
843.712	41.92
843.884	39.25
844.056	42.15
844.229	41.18
844.401	43.02
844.573	43.02
844.745	41.98
844.918	43.2
845.09	42.1
845.262	40.01
845.434	39.5
845.606	35.96
845.779	36.35
845.951	33.22
846.123	32.98
846.295	29.57
846.467	27.98
846.639	28.24
846.811	25.4
846.983	26.83
847.155	27.18
847.327	27.92
847.499	32.95
847.671	36.57
847.843	38.24
848.015	36.23
848.187	39.02
848.359	37.98
848.531	38.82
848.703	40.55
848.875	41.7
849.047	42.65
849.218	45.69
849.39	45.32
849.562	41.79
849.734	40.42
849.905	41.69
850.077	42.08
850.249	43.83
850.421	42.93
850.592	45.21
850.764	44.91
850.936	44.79
851.107	42.76
851.279	43.74
851.451	41.39
851.622	43.67
851.794	44.76
851.965	40.67
852.137	43.41
852.308	42.86
852.48	38.71
852.651	38.04
852.823	35.72
852.994	32.09
853.166	31.08
853.337	35.27
853.509	32.61
853.68	34.02
853.851	37.76
854.023	35.21
854.194	37.66
854.365	39.75
854.537	40.91
854.708	40.82
854.879	40.9
855.05	40.09
855.222	39.78
855.393	41.71
855.564	37.24
855.735	36.68
855.906	36.49
856.078	35.01
856.249	36.62
856.42	36.25
856.591	36.62
856.762	40.46
856.933	43.33
857.104	44.92
857.275	42.17
857.446	43.28
857.617	40.34
857.788	37.77
857.959	40.55
858.13	38.72
858.301	42.92
858.472	44.62
858.643	44.4
858.814	40.72
858.985	38.75
859.155	35.63
859.326	39.48
859.497	45.7
859.668	49.77
859.839	47.84
860.009	47.87
860.18	39.98
860.351	37.75
860.522	36.38
860.692	38.57
860.863	40.63
861.034	47.02
861.204	43.59
861.375	42.16
861.546	36.82
861.716	34.01
861.887	37.84
862.057	40.06
862.228	43.12
862.398	43.18
862.569	41.83
862.739	40.38
862.91	38.33
863.08	44.23
863.251	42.91
863.421	47.29
863.592	46.08
863.762	43.25
863.932	46.05
864.103	45.57
864.273	43.91
864.443	42.14
864.614	43.88
864.784	39.76
864.954	36.59
865.125	37.49
865.295	37.43
865.465	39.89
865.635	39.39
865.805	37.19
865.976	34.66
866.146	37.08
866.316	38.96
866.486	33.26
866.656	36.43
866.826	37.71
866.996	32.92
867.166	32.72
867.336	36.51
867.506	35.02
867.676	38.03
867.846	40.05
868.016	40.24
868.186	43.52
868.356	46.48
868.526	48.14
868.696	44.33
868.866	50.46
869.036	46.81
869.206	43
869.376	44.66
869.545	39.09
869.715	34.08
869.885	32.91
870.055	33.93
870.224	35.72
870.394	32.46
870.564	36.5
870.734	34.51
870.903	39.97
871.073	45.08
871.243	48.05
871.412	48.09
871.582	51.48
871.751	49.94
871.921	46.95
872.091	47.35
872.26	49.55
872.43	50.77
872.599	51.12
872.769	48.88
872.938	42.71
873.108	40.26
873.277	39.16
873.446	39.79
873.616	38.28
873.785	41.62
873.955	38.92
874.124	41.17
874.293	43.38
874.463	42.73
874.632	42.11
874.801	45.77
874.971	45.65
875.14	45.6
875.309	43.5
875.478	46.69
875.647	44.52
875.817	46.71
875.986	43.71
876.155	38.65
876.324	39.02
876.493	40.56
876.662	41.07
876.831	38.64
877	41.39
877.17	45.19
877.339	50.5
877.508	50.13
877.677	48.96
877.846	50.23
878.015	51.48
878.184	50.18
878.352	49.75
878.521	47.03
878.69	46.62
878.859	45.09
879.028	43.51
879.197	39.34
879.366	36.79
879.534	37.1
879.703	36.34
879.872	37.08
880.041	37.52
880.21	36.94
880.378	37.91
880.547	37.62
880.716	38.65
880.884	38.25
881.053	38.82
881.222	39.38
881.39	38.63
881.559	38.98
881.727	38.9
881.896	39.18
882.065	38.88
882.233	38.74
882.402	39.11
882.57	38.64
882.739	38.39
882.907	38.24
883.076	38.44
883.244	39.61
883.412	38.92
883.581	39.21
883.749	39.51
883.918	39.29
884.086	40.27
884.254	40.19
884.423	40.52
884.591	41.03
884.759	40.74
884.927	40.42
885.096	39.6
885.264	40.23
885.432	39.33
885.6	38.51
885.769	38.37
885.937	35.85
886.105	35.85
886.273	36.41
886.441	36.29
886.609	35.06
886.777	35.06
886.945	35.14
887.113	37.5
887.281	36.31
887.449	36.63
887.617	38.6
887.785	37.8
887.953	37.68
888.121	36.39
888.289	36.59
888.457	38.67
888.625	38.47
888.793	35.52
888.961	33.7
889.129	34.56
889.296	36.24
889.464	36.32
889.632	38.62
889.8	40.13
889.967	40.34
890.135	41.84
