Data from 2938473_Reflection_3.txt Node
Date: Wed Jun 17 13:26:49 EDT 2015
User: robert
Spectrometer: USB4E03002
Autoset integration time: false
Trigger mode: 4
Integration Time (sec): 1.000000E-1
Scans to average: 10
Electric dark correction enabled: true
Nonlinearity correction enabled: false
Boxcar width: 5
Stray light correction enabled: false
XAxis mode: Wavelengths
Stop averaging: false
Number of Pixels in Spectrum: 3648
>>>>>Begin Spectral Data<<<<<
177.575	247.9
177.794	85.4
178.014	70.96
178.233	100.66
178.452	99.3
178.672	116.58
178.891	51.85
179.11	-179.62
179.33	-245.84
179.549	-416.53
179.768	-506.12
179.987	-377.29
180.207	-194.19
180.426	-411.71
180.645	-622.46
180.864	-124.26
181.084	-85.37
181.303	-84.68
181.522	-42.49
181.741	-29.61
181.96	-25.49
182.179	-64.39
182.398	-95.7
182.618	225.74
182.837	300.08
183.056	144.49
183.275	101.08
183.494	89.6
183.713	85.49
183.932	103.02
184.151	165.82
184.37	151.28
184.589	126.4
184.808	144.57
185.027	168.99
185.246	157.01
185.465	146.2
185.684	219.68
185.903	2410.16
186.122	360.53
186.341	215.53
186.56	166.21
186.779	244.9
186.998	514.92
187.216	741.22
187.435	311.95
187.654	351.19
187.873	501.5
188.092	2787.05
188.311	889.53
188.53	-629.42
188.748	-290.76
188.967	-246.79
189.186	-421.62
189.405	-281.26
189.623	-199.64
189.842	-71.22
190.061	-106.64
190.28	-149.6
190.498	-177.11
190.717	-418.37
190.936	-561.5
191.154	960.05
191.373	-6634
191.592	-2586.05
191.81	813.84
192.029	645.16
192.248	340.04
192.466	275.91
192.685	307.71
192.904	669.74
193.122	2160.78
193.341	4288.89
193.559	-457.97
193.778	-499.82
193.996	-395.06
194.215	-103.06
194.433	-180.55
194.652	-193.72
194.87	-285.43
195.089	-476.09
195.307	889.71
195.526	872.6
195.744	331.25
195.963	275.56
196.181	245.1
196.399	200.88
196.618	196.9
196.836	164.14
197.055	150.13
197.273	203
197.491	279.68
197.71	302.77
197.928	218.21
198.146	208.88
198.365	175.66
198.583	133.75
198.801	138.67
199.019	160.73
199.238	216.46
199.456	205.14
199.674	153.17
199.892	97.52
200.111	125.17
200.329	170.91
200.547	193.64
200.765	250.91
200.983	257.14
201.202	308.71
201.42	260.9
201.638	302.55
201.856	325.32
202.074	331.87
202.292	435.48
202.51	377.52
202.728	246.93
202.946	139.12
203.165	130.15
203.383	138.93
203.601	96.2
203.819	125.46
204.037	68.22
204.255	64
204.473	81.56
204.691	83.48
204.909	74.02
205.127	57
205.345	108.74
205.562	97.29
205.78	83.45
205.998	163.56
206.216	139.45
206.434	508.52
206.652	128.26
206.87	166.8
207.088	145.69
207.306	115.99
207.523	120.02
207.741	154.73
207.959	198.44
208.177	136.61
208.395	121.27
208.612	116.86
208.83	107.73
209.048	108.98
209.266	108.34
209.483	40.2
209.701	-42.72
209.919	-35.79
210.136	-181.4
210.354	-90.55
210.572	-194.48
210.79	-187.12
211.007	-202.88
211.225	-511.04
211.442	-26.42
211.66	-2.67
211.878	65.67
212.095	208.75
212.313	219.59
212.53	186.36
212.748	191.18
212.966	162.19
213.183	184.99
213.401	174.45
213.618	160.93
213.836	165.15
214.053	174.49
214.271	214.36
214.488	88.39
214.705	99.4
214.923	81.22
215.14	67.08
215.358	70.3
215.575	61.4
215.793	76.92
216.01	67.62
216.227	60.15
216.445	52.48
216.662	39.23
216.879	42.42
217.097	36.47
217.314	35.6
217.531	48.32
217.749	36.78
217.966	46.43
218.183	39.53
218.4	49.46
218.618	56.94
218.835	55.61
219.052	46.31
219.269	51.32
219.487	56.99
219.704	61.55
219.921	55.81
220.138	57.49
220.355	55.09
220.572	56.82
220.79	50.82
221.007	46.47
221.224	32.77
221.441	49.36
221.658	38.84
221.875	43.37
222.092	32.43
222.309	31.49
222.526	35.41
222.743	30.08
222.96	31.7
223.177	30.14
223.394	32.89
223.611	36.84
223.828	39.56
224.045	38.63
224.262	28.51
224.479	23.96
224.696	23.1
224.913	18.59
225.13	17.55
225.347	16.91
225.564	19.26
225.781	16.62
225.997	15.2
226.214	10.29
226.431	7.71
226.648	8.83
226.865	8.81
227.082	9.42
227.298	9.56
227.515	8.53
227.732	8.31
227.949	6.19
228.165	6.81
228.382	7.2
228.599	7.05
228.816	7.82
229.032	7.47
229.249	10.18
229.466	8.21
229.682	9.77
229.899	10.53
230.116	9.47
230.332	12.23
230.549	10.82
230.765	9.82
230.982	12.44
231.199	11.65
231.415	12.13
231.632	8.42
231.848	9.67
232.065	7.09
232.281	8.01
232.498	8.29
232.714	6.8
232.931	7.87
233.147	9.59
233.364	8.64
233.58	9.45
233.797	11.22
234.013	12.31
234.23	12.59
234.446	13.18
234.662	13.35
234.879	13.4
235.095	12.63
235.312	12.69
235.528	9.92
235.744	9.46
235.961	9.27
236.177	7.26
236.393	7.22
236.61	7.72
236.826	8.14
237.042	8.34
237.258	8.03
237.475	8.67
237.691	10.26
237.907	11.07
238.123	11.41
238.339	14.61
238.556	14.87
238.772	12.31
238.988	10.5
239.204	10.14
239.42	9.04
239.636	8.77
239.853	8.69
240.069	5.95
240.285	5.52
240.501	5.28
240.717	3.7
240.933	3.38
241.149	4.4
241.365	4.88
241.581	4.92
241.797	5.13
242.013	5.11
242.229	5.04
242.445	6.58
242.661	7.11
242.877	7.32
243.093	7.24
243.309	7.61
243.525	7.8
243.741	7.71
243.957	6.91
244.173	6.45
244.388	6.65
244.604	6.53
244.82	6.34
245.036	5.66
245.252	5.03
245.468	5.18
245.683	4.61
245.899	4.22
246.115	4.23
246.331	4.37
246.547	4.32
246.762	4.51
246.978	4.54
247.194	4.4
247.409	4.87
247.625	5.47
247.841	5.69
248.057	6.7
248.272	6.44
248.488	6.53
248.703	6.69
248.919	6.66
249.135	5.62
249.35	5.82
249.566	6.26
249.782	5.26
249.997	4.44
250.213	4.14
250.428	3.64
250.644	4.67
250.859	4.83
251.075	5.02
251.29	5.37
251.506	5.32
251.721	5.17
251.937	5.11
252.152	6.73
252.368	8.24
252.583	8.95
252.798	10.44
253.014	10.5
253.229	10.49
253.445	10.57
253.66	11.23
253.875	11.34
254.091	11.53
254.306	11
254.521	10.69
254.737	9.1
254.952	7.82
255.167	6.1
255.383	5.12
255.598	5.09
255.813	5.77
256.028	5.37
256.244	5.5
256.459	4.91
256.674	4.55
256.889	4.15
257.104	4.14
257.32	4.67
257.535	4.64
257.75	5
257.965	4.97
258.18	4.45
258.395	4.12
258.61	4.24
258.826	4.35
259.041	4.74
259.256	4.74
259.471	4.76
259.686	4.6
259.901	4.31
260.116	4.3
260.331	3.81
260.546	4
260.761	4.27
260.976	3.8
261.191	3.43
261.406	3.21
261.621	3.38
261.836	3.38
262.05	3.03
262.265	2.87
262.48	2.88
262.695	3.11
262.91	4.26
263.125	4.23
263.34	5.1
263.555	5.31
263.769	4.85
263.984	5.03
264.199	4.93
264.414	4.25
264.629	5.34
264.843	5.28
265.058	5.75
265.273	4.65
265.488	4.67
265.702	4.43
265.917	4.37
266.132	4.63
266.346	4.04
266.561	4.29
266.776	5.22
266.99	4.73
267.205	4.71
267.42	4.68
267.634	4.85
267.849	4.96
268.063	4.87
268.278	5.05
268.492	5.09
268.707	5.17
268.922	5.33
269.136	4.55
269.351	4.73
269.565	4.98
269.78	5.39
269.994	5.25
270.209	5.46
270.423	5.22
270.637	5.48
270.852	5.19
271.066	5.14
271.281	5.36
271.495	5.75
271.709	5.69
271.924	5.21
272.138	4.99
272.353	5.06
272.567	4.56
272.781	4.94
272.996	4.9
273.21	5.45
273.424	5.73
273.638	5.42
273.853	5.29
274.067	5.07
274.281	5.32
274.495	4.78
274.71	4.79
274.924	5.19
275.138	4.85
275.352	4.3
275.566	3.47
275.781	3.4
275.995	3.54
276.209	4.03
276.423	4.47
276.637	4.22
276.851	5.19
277.065	5.32
277.279	4.9
277.493	4.99
277.707	5.12
277.921	5.47
278.135	5.29
278.349	4.93
278.563	5.04
278.777	4.77
278.991	5.12
279.205	4.74
279.419	4.5
279.633	4.82
279.847	5.22
280.061	5.1
280.275	5.07
280.489	5.14
280.703	5.47
280.917	5.15
281.131	5.16
281.344	5.33
281.558	4.93
281.772	4.65
281.986	3.95
282.2	3.6
282.414	3.8
282.627	3.44
282.841	3.5
283.055	3.46
283.269	3.6
283.482	3.56
283.696	3.33
283.91	3.33
284.123	3.75
284.337	3.83
284.551	4.07
284.764	4.11
284.978	4.31
285.192	4.56
285.405	4.49
285.619	4.35
285.833	4.67
286.046	4.86
286.26	5.65
286.473	5.71
286.687	6.35
286.9	6.02
287.114	6.23
287.327	6.5
287.541	6.19
287.754	6.42
287.968	6.68
288.181	7.03
288.395	6.65
288.608	6.36
288.822	6.39
289.035	6.57
289.248	6.7
289.462	6.36
289.675	6.41
289.889	7.21
290.102	7.26
290.315	7
290.529	6.25
290.742	6.33
290.955	5.92
291.169	6.44
291.382	6.5
291.595	6.98
291.808	7.57
292.022	7.37
292.235	6.84
292.448	6.8
292.661	6.81
292.875	7.49
293.088	7.5
293.301	7.86
293.514	6.92
293.727	7.06
293.94	6.74
294.153	6.76
294.367	7.04
294.58	7.18
294.793	7.24
295.006	7.55
295.219	7.5
295.432	7.53
295.645	7.33
295.858	7.61
296.071	7.42
296.284	7.77
296.497	7.18
296.71	6.89
296.923	6.75
297.136	6.62
297.349	6.37
297.562	6.33
297.775	7.08
297.988	7.5
298.201	7.68
298.414	7.72
298.626	7.95
298.839	8.94
299.052	9.41
299.265	9.49
299.478	9.82
299.691	10.45
299.903	10.82
300.116	10.15
300.329	10.83
300.542	10.93
300.755	11.12
300.967	10.86
301.18	10.43
301.393	10.21
301.605	9.76
301.818	9.75
302.031	9.26
302.243	8.81
302.456	9.41
302.669	8.72
302.881	9.21
303.094	9.48
303.307	9.63
303.519	10.11
303.732	10.46
303.944	10.89
304.157	10.95
304.37	11.31
304.582	11.62
304.795	11.43
305.007	11.19
305.22	10.86
305.432	11.08
305.645	10.78
305.857	10.91
306.069	11.22
306.282	11.54
306.494	11.19
306.707	11.19
306.919	10.36
307.132	9.52
307.344	9.93
307.556	9.8
307.769	9.12
307.981	9.63
308.193	9.79
308.406	9.59
308.618	9.79
308.83	10.28
309.043	10.3
309.255	10.84
309.467	11.4
309.679	11.47
309.892	11.83
310.104	12.11
310.316	12.03
310.528	11.82
310.74	11.87
310.953	11.64
311.165	10.94
311.377	10.92
311.589	11.27
311.801	11.63
312.013	11.72
312.225	11.72
312.437	11.74
312.649	11.43
312.862	11.42
313.074	11.61
313.286	12.09
313.498	12.53
313.71	12.38
313.922	12.68
314.134	12.4
314.346	12.56
314.558	13.02
314.77	13.55
314.982	14.39
315.193	14.29
315.405	14.53
315.617	14.16
315.829	14.84
316.041	15.56
316.253	15.59
316.465	15.53
316.677	15.71
316.888	15.31
317.1	15.45
317.312	15.03
317.524	15.66
317.736	15.81
317.947	16.09
318.159	15.77
318.371	15.63
318.583	15.4
318.794	15.72
319.006	15.94
319.218	15.5
319.43	15.4
319.641	15.63
319.853	15.55
320.064	15.61
320.276	15.87
320.488	16.34
320.699	16.64
320.911	17.25
321.123	18.02
321.334	18.15
321.546	18.6
321.757	18.91
321.969	19.01
322.18	18.93
322.392	18.87
322.603	19.16
322.815	18.89
323.026	18.86
323.238	18.61
323.449	18.14
323.661	18.01
323.872	18.94
324.083	19.09
324.295	19.87
324.506	20.28
324.718	21.03
324.929	21.21
325.14	22.05
325.352	22.82
325.563	23.63
325.774	24.59
325.986	25.32
326.197	25.8
326.408	26.49
326.62	26.8
326.831	27.47
327.042	28.22
327.253	28.91
327.464	29.33
327.676	30.01
327.887	30.59
328.098	31.14
328.309	31.83
328.52	32.51
328.732	33.27
328.943	34.08
329.154	34.77
329.365	35.05
329.576	35.76
329.787	36.97
329.998	37.5
330.209	38.17
330.42	39.16
330.631	39.57
330.842	39.95
331.053	40.58
331.264	40.51
331.475	41.17
331.686	41.66
331.897	42.67
332.108	42.28
332.319	42.5
332.53	42.78
332.741	42.64
332.952	43.23
333.163	43.42
333.374	43.53
333.585	43.8
333.795	43.62
334.006	44.11
334.217	43.61
334.428	44.21
334.639	45.08
334.849	45.07
335.06	44.98
335.271	44.86
335.482	44.87
335.692	44.89
335.903	45.43
336.114	45.92
336.325	46.21
336.535	46.55
336.746	47.13
336.957	46.84
337.167	47.19
337.378	48.08
337.589	48.7
337.799	48.9
338.01	49.5
338.22	49.61
338.431	49.81
338.642	50.06
338.852	50.05
339.063	49.76
339.273	49.71
339.484	49.89
339.694	49.81
339.905	49.74
340.115	50.21
340.326	50.27
340.536	50.09
340.746	50.03
340.957	49.67
341.167	49.43
341.378	49.24
341.588	49.69
341.799	49.59
342.009	49.15
342.219	49.35
342.43	49.3
342.64	48.98
342.85	49.09
343.061	49.08
343.271	49.41
343.481	49.63
343.691	50
343.902	49.7
344.112	49.93
344.322	50.01
344.532	49.91
344.743	49.57
344.953	49.5
345.163	49.55
345.373	49.64
345.583	49.01
345.793	49.06
346.004	49.17
346.214	49.17
346.424	48.93
346.634	48.99
346.844	48.92
347.054	48.94
347.264	49.15
347.474	49
347.684	49
347.894	49.28
348.104	49
348.314	48.44
348.524	48.27
348.734	48.07
348.944	48.33
349.154	48.27
349.364	48.87
349.574	48.9
349.784	48.86
349.994	49.06
350.204	48.94
350.413	48.99
350.623	49.53
350.833	49.57
351.043	49.55
351.253	49.43
351.463	49.61
351.672	49.16
351.882	49.06
352.092	49.17
352.302	49.05
352.511	49.41
352.721	49.84
352.931	49.63
353.141	49.75
353.35	49.76
353.56	49.95
353.77	50.08
353.979	49.66
354.189	49.6
354.399	49.64
354.608	49.7
354.818	49.37
355.027	49.42
355.237	49.56
355.447	49.62
355.656	49.71
355.866	49.39
356.075	49.06
356.285	49.19
356.494	48.88
356.704	49.06
356.913	49.14
357.123	49.31
357.332	49.2
357.542	49.04
357.751	49.01
357.96	48.98
358.17	49.15
358.379	49.34
358.589	49.47
358.798	49.46
359.007	49.6
359.217	49.26
359.426	48.95
359.635	48.79
359.845	48.53
360.054	48.4
360.263	48.12
360.472	47.92
360.682	47.6
360.891	47.51
361.1	47.67
361.309	47.23
361.519	47.17
361.728	47.01
361.937	46.93
362.146	46.9
362.355	46.84
362.564	47
362.774	46.67
362.983	46.5
363.192	46.25
363.401	46.08
363.61	45.82
363.819	45.73
364.028	45.68
364.237	45.49
364.446	45.3
364.655	45.02
364.864	44.97
365.073	45.11
365.282	45.17
365.491	44.86
365.7	44.76
365.909	45.01
366.118	44.88
366.327	44.75
366.536	44.8
366.745	44.96
366.954	44.83
367.162	44.26
367.371	44.04
367.58	43.5
367.789	43.88
367.998	43.54
368.207	42.99
368.415	42.55
368.624	42.42
368.833	41.95
369.042	41.56
369.25	41.6
369.459	41.63
369.668	41.28
369.877	41.36
370.085	40.88
370.294	41
370.503	40.88
370.711	41.14
370.92	41.04
371.129	40.98
371.337	40.78
371.546	40.31
371.754	40.17
371.963	40.56
372.171	40.43
372.38	40.16
372.589	39.99
372.797	39.86
373.006	39.49
373.214	39.4
373.423	39.23
373.631	39.26
373.84	39.32
374.048	39.2
374.256	38.77
374.465	38.77
374.673	38.97
374.882	38.74
375.09	38.59
375.298	38.57
375.507	38.31
375.715	38.08
375.923	37.9
376.132	37.69
376.34	37.66
376.548	37.58
376.757	37.37
376.965	37.01
377.173	36.98
377.381	37.19
377.59	37.24
377.798	37.17
378.006	37.32
378.214	37.41
378.423	37.36
378.631	37.26
378.839	37.32
379.047	37.47
379.255	37.61
379.463	37.47
379.671	37.26
379.879	36.97
380.088	37.2
380.296	37.27
380.504	36.96
380.712	37
380.92	36.8
381.128	36.62
381.336	36.16
381.544	35.8
381.752	35.6
381.96	35.32
382.168	35.17
382.376	34.72
382.584	34.26
382.791	34.04
382.999	33.89
383.207	33.61
383.415	33.33
383.623	33.13
383.831	32.9
384.039	32.65
384.247	32.45
384.454	32.45
384.662	32.44
384.87	32.51
385.078	32.47
385.285	32.3
385.493	32.51
385.701	32.48
385.909	32.45
386.116	32.56
386.324	32.46
386.532	32.16
386.739	31.97
386.947	31.84
387.155	31.77
387.362	31.57
387.57	31.35
387.778	31.3
387.985	31.05
388.193	31.06
388.4	30.83
388.608	30.88
388.816	31.18
389.023	30.95
389.231	31.12
389.438	30.88
389.646	30.92
389.853	30.82
390.061	30.48
390.268	30.58
390.475	30.57
390.683	30.66
390.89	30.65
391.098	30.42
391.305	30.48
391.512	30.28
391.72	30.29
391.927	30.14
392.135	30.24
392.342	30.14
392.549	30.28
392.756	30.01
392.964	29.89
393.171	29.73
393.378	29.63
393.586	29.57
393.793	29.29
394	29.23
394.207	29.05
394.414	28.92
394.622	29.02
394.829	28.62
395.036	28.6
395.243	28.53
395.45	28.49
395.657	28.54
395.864	28.73
396.072	28.91
396.279	28.67
396.486	28.76
396.693	28.73
396.9	28.78
397.107	28.8
397.314	28.81
397.521	28.83
397.728	28.76
397.935	28.6
398.142	28.14
398.349	28.08
398.556	28.24
398.763	28.23
398.97	28.04
399.177	27.85
399.383	27.95
399.59	27.93
399.797	27.99
400.004	28.08
400.211	28.28
400.418	28.48
400.625	28.44
400.831	28.19
401.038	28.21
401.245	28.37
401.452	28.3
401.658	28.14
401.865	28.16
402.072	27.94
402.279	27.91
402.485	27.83
402.692	27.73
402.899	27.78
403.105	27.99
403.312	28.05
403.519	27.94
403.725	28.03
403.932	28.02
404.138	27.94
404.345	27.85
404.552	27.78
404.758	27.7
404.965	27.71
405.171	27.56
405.378	27.29
405.584	27.19
405.791	27.16
405.997	27.13
406.204	27.2
406.41	27.14
406.617	27.13
406.823	27.15
407.029	27.21
407.236	27.2
407.442	27.31
407.649	27.45
407.855	27.38
408.061	27.43
408.268	27.28
408.474	27.24
408.68	27.44
408.887	27.64
409.093	27.67
409.299	27.6
409.505	27.4
409.712	27.14
409.918	26.92
410.124	26.84
410.33	26.93
410.537	26.88
410.743	26.81
410.949	26.54
411.155	26.49
411.361	26.28
411.567	26.18
411.773	26.42
411.98	26.48
412.186	26.66
412.392	26.63
412.598	26.46
412.804	26.6
413.01	26.4
413.216	26.41
413.422	26.32
413.628	26.39
413.834	26.42
414.04	26.26
414.246	26.31
414.452	26.28
414.658	26.38
414.864	26.4
415.07	26.3
415.275	26.37
415.481	26.4
415.687	26.36
415.893	26.33
416.099	26.25
416.305	26.25
416.511	26.21
416.716	26.24
416.922	26.09
417.128	26.02
417.334	25.97
417.539	25.92
417.745	25.78
417.951	25.68
418.157	25.53
418.362	25.51
418.568	25.44
418.774	25.29
418.979	25.24
419.185	25.27
419.391	25.2
419.596	25.19
419.802	25.08
420.008	25.07
420.213	24.59
420.419	24.62
420.624	24.57
420.83	24.45
421.035	24.43
421.241	24.31
421.446	24.19
421.652	24.12
421.857	23.96
422.063	23.96
422.268	23.86
422.474	24.27
422.679	24.15
422.885	24.12
423.09	24.16
423.295	24.15
423.501	24.19
423.706	24.24
423.911	24.22
424.117	24.34
424.322	24.4
424.527	24.42
424.733	24.44
424.938	24.57
425.143	24.53
425.349	24.43
425.554	24.48
425.759	24.37
425.964	24.35
426.169	24.33
426.375	24.31
426.58	24.25
426.785	24.32
426.99	24.4
427.195	24.31
427.4	24.24
427.605	24.39
427.811	24.23
428.016	24.25
428.221	24.15
428.426	24.12
428.631	23.94
428.836	23.9
429.041	23.83
429.246	23.72
429.451	23.63
429.656	23.79
429.861	23.77
430.066	23.9
430.271	24
430.476	24
430.681	24.12
430.886	24.08
431.09	23.99
431.295	23.96
431.5	23.98
431.705	23.99
431.91	23.85
432.115	23.79
432.32	23.83
432.524	23.75
432.729	23.82
432.934	23.75
433.139	23.9
433.343	24.02
433.548	23.99
433.753	23.94
433.958	24
434.162	24.05
434.367	24.17
434.572	24.22
434.776	24.21
434.981	24.23
435.186	24.38
435.39	24.43
435.595	24.52
435.799	24.57
436.004	24.61
436.209	24.64
436.413	24.56
436.618	24.46
436.822	24.35
437.027	24.32
437.231	24.23
437.436	24.08
437.64	23.94
437.845	23.93
438.049	23.91
438.253	23.85
438.458	23.74
438.662	23.85
438.867	23.83
439.071	23.9
439.275	23.84
439.48	23.81
439.684	23.74
439.888	23.77
440.093	23.59
440.297	23.57
440.501	23.6
440.706	23.62
440.91	23.61
441.114	23.61
441.318	23.42
441.523	23.52
441.727	23.62
441.931	23.69
442.135	23.63
442.339	23.76
442.543	23.8
442.748	23.78
442.952	23.77
443.156	23.78
443.36	23.88
443.564	23.95
443.768	23.91
443.972	23.8
444.176	23.72
444.38	23.76
444.584	23.68
444.788	23.64
444.992	23.64
445.196	23.61
445.4	23.51
445.604	23.35
445.808	23.35
446.012	23.32
446.216	23.33
446.42	23.37
446.624	23.35
446.828	23.36
447.032	23.32
447.235	23.37
447.439	23.34
447.643	23.36
447.847	23.41
448.051	23.38
448.254	23.36
448.458	23.35
448.662	23.3
448.866	23.34
449.069	23.37
449.273	23.36
449.477	23.3
449.681	23.36
449.884	23.4
450.088	23.35
450.292	23.26
450.495	23.27
450.699	23.34
450.902	23.38
451.106	23.31
451.31	23.2
451.513	23.36
451.717	23.25
451.92	23.3
452.124	23.25
452.327	23.36
452.531	23.37
452.734	23.32
452.938	23.21
453.141	23.31
453.345	23.29
453.548	23.32
453.752	23.21
453.955	23.25
454.158	23.24
454.362	23.27
454.565	23.18
454.769	23.3
454.972	23.3
455.175	23.39
455.379	23.2
455.582	23.25
455.785	23.26
455.988	23.18
456.192	23.17
456.395	23.14
456.598	23.15
456.801	23.23
457.005	23.15
457.208	23.28
457.411	23.19
457.614	23.24
457.817	23.2
458.021	23.25
458.224	23.32
458.427	23.36
458.63	23.3
458.833	23.19
459.036	23.13
459.239	23.09
459.442	22.95
459.645	22.98
459.848	22.99
460.051	23.02
460.254	23.09
460.457	23.02
460.66	22.96
460.863	23.02
461.066	23.14
461.269	23.17
461.472	23.35
461.675	23.41
461.878	23.41
462.081	23.39
462.284	23.45
462.486	23.33
462.689	23.42
462.892	23.53
463.095	23.67
463.298	23.69
463.5	23.67
463.703	23.7
463.906	23.79
464.109	23.81
464.311	23.87
464.514	23.81
464.717	23.92
464.92	23.9
465.122	23.85
465.325	23.73
465.528	23.77
465.73	23.9
465.933	23.83
466.135	23.82
466.338	23.78
466.541	23.77
466.743	23.77
466.946	23.57
467.148	23.63
467.351	23.66
467.553	23.8
467.756	23.79
467.958	23.75
468.161	23.74
468.363	23.73
468.566	23.91
468.768	23.94
468.971	23.96
469.173	24.01
469.375	23.93
469.578	23.89
469.78	23.9
469.983	23.93
470.185	24.01
470.387	24.16
470.59	24.21
470.792	24.22
470.994	24.18
471.196	24.2
471.399	24.28
471.601	24.41
471.803	24.51
472.005	24.41
472.208	24.42
472.41	24.44
472.612	24.4
472.814	24.48
473.016	24.39
473.218	24.59
473.421	24.63
473.623	24.64
473.825	24.58
474.027	24.59
474.229	24.64
474.431	24.68
474.633	24.64
474.835	24.5
475.037	24.53
475.239	24.4
475.441	24.35
475.643	24.35
475.845	24.44
476.047	24.5
476.249	24.39
476.451	24.37
476.653	24.27
476.855	24.26
477.057	24.25
477.258	24.09
477.46	24.2
477.662	24.22
477.864	24.16
478.066	24.08
478.268	24.06
478.469	24.12
478.671	24.03
478.873	23.94
479.075	23.97
479.276	23.93
479.478	23.92
479.68	23.88
479.882	23.79
480.083	23.78
480.285	23.92
480.487	23.93
480.688	24.02
480.89	24.11
481.091	24.22
481.293	24.15
481.495	24.16
481.696	24.14
481.898	24.11
482.099	24.04
482.301	23.98
482.502	23.84
482.704	23.77
482.905	23.68
483.107	23.58
483.308	23.45
483.51	23.41
483.711	23.35
483.913	23.3
484.114	23.27
484.315	23.33
484.517	23.35
484.718	23.39
484.92	23.42
485.121	23.44
485.322	23.55
485.524	23.69
485.725	23.7
485.926	23.76
486.127	23.77
486.329	23.76
486.53	23.7
486.731	23.65
486.932	23.62
487.134	23.58
487.335	23.58
487.536	23.52
487.737	23.48
487.938	23.52
488.139	23.52
488.341	23.55
488.542	23.66
488.743	23.75
488.944	23.85
489.145	23.97
489.346	24.07
489.547	24.17
489.748	24.18
489.949	24.24
490.15	24.23
490.351	24.25
490.552	24.23
490.753	24.17
490.954	24.15
491.155	24.13
491.356	24.1
491.557	24.09
491.758	24.1
491.959	24.15
492.159	24.13
492.36	24.2
492.561	24.22
492.762	24.32
492.963	24.37
493.164	24.45
493.364	24.57
493.565	24.72
493.766	24.8
493.967	24.88
494.167	24.98
494.368	25.07
494.569	25.11
494.769	25.16
494.97	25.18
495.171	25.27
495.371	25.34
495.572	25.34
495.773	25.37
495.973	25.42
496.174	25.4
496.375	25.44
496.575	25.46
496.776	25.52
496.976	25.57
497.177	25.71
497.377	25.77
497.578	25.71
497.778	25.73
497.979	25.78
498.179	25.81
498.38	25.84
498.58	25.86
498.78	25.96
498.981	26.02
499.181	26.09
499.382	26.09
499.582	26.13
499.782	26.31
499.983	26.52
500.183	26.53
500.383	26.7
500.584	26.81
500.784	26.89
500.984	26.87
501.184	27.02
501.385	27.09
501.585	27.25
501.785	27.39
501.985	27.44
502.185	27.5
502.386	27.56
502.586	27.63
502.786	27.69
502.986	27.85
503.186	27.97
503.386	27.87
503.586	27.96
503.786	28.03
503.987	28.05
504.187	28.14
504.387	28.2
504.587	28.36
504.787	28.45
504.987	28.54
505.187	28.64
505.387	28.71
505.587	28.92
505.786	28.99
505.986	29.02
506.186	29.15
506.386	29.24
506.586	29.33
506.786	29.38
506.986	29.52
507.186	29.63
507.386	29.62
507.585	29.67
507.785	29.74
507.985	29.81
508.185	29.94
508.384	30.04
508.584	30.13
508.784	30.27
508.984	30.34
509.183	30.41
509.383	30.5
509.583	30.66
509.782	30.92
509.982	31.12
510.182	31.23
510.381	31.28
510.581	31.39
510.781	31.54
510.98	31.67
511.18	31.78
511.379	31.86
511.579	31.98
511.778	32.05
511.978	32.09
512.177	32.18
512.377	32.33
512.576	32.59
512.776	32.74
512.975	32.83
513.175	32.88
513.374	33
513.573	33.17
513.773	33.35
513.972	33.59
514.172	33.75
514.371	33.93
514.57	34.08
514.77	34.2
514.969	34.35
515.168	34.53
515.367	34.71
515.567	34.88
515.766	35.11
515.965	35.14
516.164	35.29
516.364	35.41
516.563	35.41
516.762	35.55
516.961	35.66
517.16	35.71
517.359	35.76
517.559	35.85
517.758	35.9
517.957	35.87
518.156	36.04
518.355	36.07
518.554	36.14
518.753	36.32
518.952	36.3
519.151	36.34
519.35	36.48
519.549	36.6
519.748	36.73
519.947	36.9
520.146	37.03
520.345	37.1
520.544	37.26
520.743	37.38
520.942	37.5
521.141	37.79
521.339	37.92
521.538	38.03
521.737	38.27
521.936	38.43
522.135	38.58
522.333	38.85
522.532	39.04
522.731	39.22
522.93	39.5
523.129	39.63
523.327	39.68
523.526	39.8
523.725	39.99
523.923	40.02
524.122	40.15
524.321	40.32
524.519	40.35
524.718	40.4
524.917	40.48
525.115	40.51
525.314	40.75
525.512	40.96
525.711	41.16
525.909	41.28
526.108	41.47
526.306	41.59
526.505	41.66
526.703	41.81
526.902	41.88
527.1	41.92
527.299	41.91
527.497	41.87
527.696	41.82
527.894	41.75
528.092	41.68
528.291	41.62
528.489	41.53
528.688	41.51
528.886	41.44
529.084	41.45
529.283	41.48
529.481	41.62
529.679	41.71
529.877	41.91
530.076	42.18
530.274	42.5
530.472	42.72
530.67	43.01
530.869	43.25
531.067	43.47
531.265	43.67
531.463	43.76
531.661	43.81
531.859	43.84
532.057	43.79
532.255	43.78
532.454	43.71
532.652	43.69
532.85	43.63
533.048	43.56
533.246	43.57
533.444	43.54
533.642	43.55
533.84	43.61
534.038	43.77
534.236	43.9
534.434	44.06
534.632	44.12
534.83	44.34
535.027	44.49
535.225	44.61
535.423	44.64
535.621	44.76
535.819	44.73
536.017	44.74
536.215	44.71
536.412	44.68
536.61	44.64
536.808	44.71
537.006	44.61
537.203	44.69
537.401	44.74
537.599	44.91
537.797	45.03
537.994	45.35
538.192	45.7
538.39	45.97
538.587	46.25
538.785	46.38
538.983	46.5
539.18	46.68
539.378	46.74
539.575	46.75
539.773	46.69
539.97	46.63
540.168	46.53
540.366	46.37
540.563	46.25
540.761	46.15
540.958	46.09
541.155	46.02
541.353	45.91
541.55	45.83
541.748	45.87
541.945	45.85
542.143	45.92
542.34	46
542.537	46.04
542.735	46.14
542.932	46.24
543.129	46.36
543.327	46.49
543.524	46.67
543.721	46.82
543.919	46.87
544.116	47.06
544.313	47.09
544.51	47.13
544.708	47.2
544.905	47.23
545.102	47.23
545.299	47.24
545.496	47.27
545.693	47.21
545.891	47.2
546.088	47.16
546.285	47.02
546.482	47.01
546.679	47.07
546.876	47.07
547.073	47.1
547.27	47.08
547.467	47.04
547.664	47.14
547.861	47.24
548.058	47.32
548.255	47.45
548.452	47.6
548.649	47.66
548.846	47.76
549.043	47.77
549.24	47.82
549.437	47.89
549.633	48.06
549.83	48.18
550.027	48.3
550.224	48.24
550.421	48.32
550.618	48.36
550.814	48.38
551.011	48.36
551.208	48.55
551.405	48.6
551.601	48.57
551.798	48.53
551.995	48.41
552.191	48.36
552.388	48.42
552.585	48.35
552.781	48.27
552.978	48.33
553.175	48.35
553.371	48.24
553.568	48.26
553.764	48.38
553.961	48.37
554.157	48.44
554.354	48.42
554.55	48.47
554.747	48.57
554.943	48.65
555.14	48.65
555.336	48.68
555.533	48.76
555.729	48.84
555.926	49.04
556.122	49.16
556.318	49.06
556.515	49.15
556.711	49.07
556.907	49.05
557.104	49.13
557.3	49.1
557.496	49.05
557.693	49.07
557.889	49.05
558.085	48.83
558.281	48.84
558.478	49.07
558.674	49.03
558.87	49.28
559.066	49.26
559.262	49.44
559.459	49.58
559.655	49.65
559.851	49.61
560.047	49.6
560.243	49.72
560.439	49.68
560.635	49.51
560.831	49.57
561.027	49.48
561.223	49.56
561.419	49.42
561.615	49.33
561.811	49.38
562.007	49.46
562.203	49.47
562.399	49.7
562.595	49.84
562.791	50
562.987	50.1
563.183	50.21
563.379	50.3
563.575	50.38
563.771	50.55
563.966	50.7
564.162	50.72
564.358	50.82
564.554	50.61
564.75	50.68
564.945	50.72
565.141	50.67
565.337	50.64
565.533	50.56
565.728	50.46
565.924	50.38
566.12	50.29
566.315	50.31
566.511	50.2
566.707	50.29
566.902	50.18
567.098	50.03
567.293	50.14
567.489	50.1
567.684	50.15
567.88	50.32
568.076	50.35
568.271	50.58
568.467	50.55
568.662	50.59
568.858	50.61
569.053	50.67
569.248	50.84
569.444	50.84
569.639	50.94
569.835	50.95
570.03	50.87
570.225	50.85
570.421	50.56
570.616	50.62
570.812	50.59
571.007	50.61
571.202	50.59
571.397	50.54
571.593	50.53
571.788	50.47
571.983	50.39
572.178	50.43
572.374	50.49
572.569	50.57
572.764	50.62
572.959	50.65
573.154	50.71
573.35	50.78
573.545	50.79
573.74	50.87
573.935	50.88
574.13	50.92
574.325	50.99
574.52	50.97
574.715	50.95
574.91	50.84
575.105	50.8
575.3	50.73
575.495	50.59
575.69	50.69
575.885	50.59
576.08	50.56
576.275	50.58
576.47	50.53
576.665	50.49
576.86	50.49
577.055	50.55
577.25	50.59
577.444	50.47
577.639	50.66
577.834	50.59
578.029	50.72
578.224	50.73
578.418	50.91
578.613	51.03
578.808	51.06
579.003	51.22
579.197	51.3
579.392	51.47
579.587	51.67
579.781	51.64
579.976	51.62
580.171	51.53
580.365	51.44
580.56	51.34
580.755	51.26
580.949	51.51
581.144	51.44
581.338	51.56
581.533	51.53
581.727	51.42
581.922	51.52
582.116	51.6
582.311	51.65
582.505	51.95
582.7	52.06
582.894	52.18
583.089	52.06
583.283	52.11
583.478	52.18
583.672	52.29
583.866	52.46
584.061	52.4
584.255	52.49
584.449	52.46
584.644	52.43
584.838	52.37
585.032	52.3
585.226	52.51
585.421	52.6
585.615	52.6
585.809	52.63
586.003	52.61
586.198	52.74
586.392	52.85
586.586	52.96
586.78	52.99
586.974	53.17
587.168	53.31
587.363	53.2
587.557	53.36
587.751	53.4
587.945	53.48
588.139	53.76
588.333	53.85
588.527	53.77
588.721	54.01
588.915	54.16
589.109	54.11
589.303	54.22
589.497	54.37
589.691	54.39
589.885	54.34
590.079	54.08
590.273	53.96
590.466	54.18
590.66	54.24
590.854	54.14
591.048	54.03
591.242	54.25
591.436	54.33
591.629	54.42
591.823	54.28
592.017	54.32
592.211	54.54
592.404	54.67
592.598	54.5
592.792	54.54
592.986	54.62
593.179	54.76
593.373	54.7
593.567	54.6
593.76	54.48
593.954	54.63
594.147	54.75
594.341	54.88
594.535	54.77
594.728	54.87
594.922	54.96
595.115	54.98
595.309	55.01
595.502	55.03
595.696	55.06
595.889	55.1
596.083	54.97
596.276	55
596.47	54.94
596.663	54.93
596.856	54.77
597.05	54.74
597.243	54.62
597.437	54.56
597.63	54.56
597.823	54.58
598.017	54.62
598.21	54.8
598.403	54.76
598.596	54.92
598.79	54.94
598.983	55.24
599.176	55.41
599.369	55.67
599.563	55.75
599.756	55.72
599.949	55.81
600.142	55.86
600.335	56
600.528	56.06
600.722	56.12
600.915	56.48
601.108	56.34
601.301	56.27
601.494	56.3
601.687	56.22
601.88	56.34
602.073	56.41
602.266	56.42
602.459	56.47
602.652	56.51
602.845	56.51
603.038	56.47
603.231	56.53
603.424	56.47
603.617	56.29
603.809	56.32
604.002	56.22
604.195	56.02
604.388	55.93
604.581	55.84
604.774	55.72
604.966	55.68
605.159	55.4
605.352	55.33
605.545	55.44
605.737	55.58
605.93	55.57
606.123	55.75
606.316	56.04
606.508	56.22
606.701	56.34
606.894	56.5
607.086	56.55
607.279	56.77
607.471	56.83
607.664	56.7
607.857	56.71
608.049	56.86
608.242	56.77
608.434	56.6
608.627	56.5
608.819	56.24
609.012	56.1
609.204	56.08
609.397	55.96
609.589	55.71
609.782	55.81
609.974	55.83
610.166	55.82
610.359	55.82
610.551	56.01
610.743	55.85
610.936	55.95
611.128	56.25
611.32	56.21
611.513	56.25
611.705	56.6
611.897	56.77
612.09	56.73
612.282	56.58
612.474	56.68
612.666	56.59
612.858	56.89
613.051	57.01
613.243	56.7
613.435	56.73
613.627	56.76
613.819	56.73
614.011	56.65
614.203	56.6
614.395	56.63
614.588	56.49
614.78	56.52
614.972	56.53
615.164	56.55
615.356	56.6
615.548	56.5
615.74	56.49
615.932	56.51
616.124	56.4
616.315	56.51
616.507	56.68
616.699	56.82
616.891	56.62
617.083	56.5
617.275	56.3
617.467	56.25
617.659	56.38
617.85	56.37
618.042	56.35
618.234	56.2
618.426	56.13
618.618	56.1
618.809	55.91
619.001	56.01
619.193	56.14
619.384	56.31
619.576	56.32
619.768	56.28
619.959	56.5
620.151	56.48
620.343	56.57
620.534	56.69
620.726	56.56
620.917	56.6
621.109	56.81
621.301	56.82
621.492	57.06
621.684	57.24
621.875	57.44
622.067	57.49
622.258	57.67
622.45	57.77
622.641	57.77
622.832	57.83
623.024	57.69
623.215	57.8
623.407	57.86
623.598	57.67
623.789	57.58
623.981	57.39
624.172	57.33
624.363	57.28
624.555	57.33
624.746	57.4
624.937	57.41
625.129	57.81
625.32	57.78
625.511	57.69
625.702	57.62
625.893	57.74
626.085	57.73
626.276	57.72
626.467	57.68
626.658	57.53
626.849	57.48
627.04	57.56
627.231	57.29
627.422	57.29
627.614	57.42
627.805	57.51
627.996	57.56
628.187	57.63
628.378	57.49
628.569	57.46
628.76	57.7
628.951	57.71
629.142	57.45
629.332	57.62
629.523	57.55
629.714	57.38
629.905	57.27
630.096	57.21
630.287	57.07
630.478	57.04
630.669	57.03
630.859	57.01
631.05	57.06
631.241	57.15
631.432	57.07
631.623	56.92
631.813	57.01
632.004	57.02
632.195	57
632.385	57.24
632.576	57.4
632.767	57.52
632.957	57.44
633.148	57.39
633.339	57.51
633.529	57.59
633.72	57.66
633.91	57.69
634.101	57.68
634.292	57.68
634.482	57.55
634.673	57.51
634.863	57.37
635.054	57.27
635.244	57.09
635.435	57.09
635.625	56.93
635.815	56.86
636.006	56.92
636.196	56.93
636.387	56.98
636.577	56.98
636.767	56.93
636.958	57
637.148	57.13
637.338	57.32
637.529	57.27
637.719	57.43
637.909	57.45
638.099	57.19
638.29	57.08
638.48	56.89
638.67	56.8
638.86	56.74
639.05	56.75
639.241	56.61
639.431	56.61
639.621	56.67
639.811	56.68
640.001	56.81
640.191	56.82
640.381	56.92
640.571	57.06
640.761	57.27
640.951	57.43
641.141	57.54
641.331	57.6
641.521	57.52
641.711	57.66
641.901	57.52
642.091	57.42
642.281	57.59
642.471	57.96
642.661	57.85
642.851	57.83
643.041	57.94
643.231	57.97
643.42	58.04
643.61	58.36
643.8	58.5
643.99	58.81
644.18	58.89
644.369	58.86
644.559	58.75
644.749	58.93
644.939	59
645.128	58.72
645.318	58.51
645.508	58.41
645.697	57.92
645.887	57.79
646.076	57.48
646.266	57.58
646.456	57.84
646.645	57.64
646.835	57.8
647.024	57.53
647.214	57.8
647.403	57.92
647.593	57.92
647.782	58.28
647.972	58.12
648.161	58.26
648.351	58.02
648.54	57.83
648.73	58.11
648.919	57.83
649.108	58.08
649.298	57.95
649.487	57.89
649.677	57.95
649.866	57.88
650.055	57.97
650.244	57.98
650.434	58.12
650.623	58.21
650.812	58.06
651.002	58.13
651.191	58.08
651.38	58.02
651.569	58
651.758	58.03
651.947	57.97
652.137	57.95
652.326	57.87
652.515	57.69
652.704	57.62
652.893	57.45
653.082	57.33
653.271	57.37
653.46	57.4
653.649	57.54
653.838	57.3
654.027	57.42
654.216	57.42
654.405	57.29
654.594	57.44
654.783	57.37
654.972	57.5
655.161	57.64
655.35	57.47
655.539	57.39
655.728	57.13
655.916	57.81
656.105	57.62
656.294	57.73
656.483	58.21
656.672	58.31
656.86	58.54
657.049	58.56
657.238	58.52
657.427	58.55
657.615	58.71
657.804	58.74
657.993	58.37
658.181	58.27
658.37	58.3
658.559	58.22
658.747	58.25
658.936	58
659.125	57.86
659.313	57.89
659.502	57.93
659.69	57.93
659.879	58.08
660.067	57.9
660.256	57.91
660.444	57.7
660.633	57.42
660.821	57.32
661.01	57.64
661.198	57.78
661.387	57.62
661.575	57.53
661.763	57.54
661.952	57.37
662.14	57.59
662.328	57.98
662.517	58.14
662.705	58.26
662.893	58.14
663.082	58.13
663.27	58.26
663.458	58.34
663.646	58.4
663.834	58.47
664.023	58.45
664.211	58.56
664.399	58.24
664.587	58.46
664.775	58.44
664.963	58.45
665.152	58.18
665.34	58.33
665.528	58.56
665.716	58.52
665.904	58.56
666.092	58.6
666.28	58.55
666.468	58.72
666.656	58.57
666.844	58.66
667.032	58.69
667.22	58.9
667.408	58.83
667.596	58.69
667.784	58.65
667.971	58.58
668.159	58.77
668.347	58.57
668.535	58.58
668.723	58.51
668.911	58.41
669.098	58.51
669.286	58.35
669.474	58.21
669.662	58.12
669.849	58.37
670.037	58.32
670.225	58.25
670.413	58.73
670.6	58.65
670.788	58.83
670.976	58.84
671.163	58.73
671.351	58.64
671.538	58.65
671.726	58.92
671.913	58.93
672.101	58.95
672.289	59.03
672.476	58.82
672.664	59.04
672.851	59.05
673.039	59.06
673.226	58.99
673.413	59.16
673.601	59.02
673.788	58.77
673.976	58.33
674.163	58.37
674.35	58.41
674.538	58.24
674.725	58.01
674.912	57.89
675.1	57.82
675.287	58.08
675.474	57.96
675.662	58.19
675.849	58.34
676.036	58.6
676.223	58.43
676.411	58.63
676.598	58.68
676.785	58.67
676.972	58.72
677.159	58.87
677.346	58.64
677.533	59.09
677.721	58.93
677.908	59.01
678.095	59.16
678.282	59.32
678.469	59.13
678.656	59.18
678.843	59.32
679.03	59.09
679.217	59.11
679.404	59.29
679.591	58.88
679.778	58.81
679.964	58.85
680.151	58.82
680.338	58.8
680.525	58.64
680.712	58.62
680.899	58.54
681.086	58.87
681.272	59.1
681.459	59.25
681.646	59.57
681.833	59.54
682.02	59.37
682.206	59.32
682.393	59.23
682.58	59.2
682.766	58.95
682.953	59.08
683.14	58.75
683.326	58.73
683.513	58.48
683.7	58.09
683.886	58.25
684.073	58.38
684.259	58.61
684.446	58.73
684.632	58.78
684.819	59.3
685.005	59.12
685.192	59.34
685.378	59.17
685.565	59.39
685.751	59.46
685.938	59.56
686.124	59.34
686.31	59.11
686.497	59.12
686.683	59.44
686.87	59.17
687.056	59.32
687.242	59.02
687.429	58.96
687.615	58.52
687.801	58.67
687.987	58.43
688.174	58.64
688.36	58.68
688.546	58.75
688.732	58.61
688.918	58.69
689.105	58.4
689.291	58.64
689.477	58.29
689.663	58.35
689.849	58.54
690.035	58.62
690.221	58.72
690.407	58.69
690.593	58.57
690.779	58.43
690.965	58.68
691.151	58.84
691.337	58.73
691.523	59.26
691.709	59.49
691.895	59.53
692.081	59.66
692.267	59.56
692.453	59.46
692.639	59.81
692.825	59.79
693.011	59.49
693.196	59.71
693.382	59.89
693.568	59.51
693.754	59.74
693.94	59.47
694.125	59.54
694.311	59.47
694.497	59.63
694.682	59.33
694.868	59.38
695.054	59.18
695.239	59.25
695.425	59.16
695.611	59.52
695.796	59.14
695.982	59.29
696.168	59.21
696.353	59.15
696.539	59.2
696.724	59.31
696.91	59.27
697.095	59.47
697.281	59.28
697.466	59.22
697.652	59.18
697.837	59.54
698.023	59.37
698.208	59.38
698.393	59.4
698.579	59.44
698.764	59.47
698.949	59.55
699.135	59.49
699.32	59.61
699.505	59.68
699.691	59.44
699.876	58.97
700.061	58.95
700.246	58.95
700.432	58.95
700.617	58.64
700.802	58.25
700.987	58.19
701.172	58.73
701.358	58.72
701.543	58.66
701.728	58.88
701.913	58.92
702.098	59
702.283	59.16
702.468	59.43
702.653	59.77
702.838	60.25
703.023	60.29
703.208	60.13
703.393	60.18
703.578	60.41
703.763	60.77
703.948	60.91
704.133	61.12
704.318	60.74
704.503	60.82
704.688	61.05
704.873	60.58
705.057	60.37
705.242	59.69
705.427	59.78
705.612	59.9
705.797	59.44
705.981	59.15
706.166	59.25
706.351	59.96
706.536	59.57
706.72	59.35
706.905	59.53
707.09	59.71
707.274	59.96
707.459	59.75
707.644	59.63
707.828	59.55
708.013	59.91
708.197	59.55
708.382	59.04
708.567	58.83
708.751	58.62
708.936	58.72
709.12	58.85
709.305	58.78
709.489	58.6
709.673	58.49
709.858	58.75
710.042	58.89
710.227	59.38
710.411	59.29
710.596	59.35
710.78	59.62
710.964	59.6
711.149	59.51
711.333	59.29
711.517	59.65
711.702	59.68
711.886	59.67
712.07	59.5
712.254	59.23
712.438	59.3
712.623	59.82
712.807	59.66
712.991	59.99
713.175	59.97
713.359	60.2
713.544	60.19
713.728	60.49
713.912	60.14
714.096	60.25
714.28	60.15
714.464	60.38
714.648	60.18
714.832	60.08
715.016	59.97
715.2	60.23
715.384	60.22
715.568	60.17
715.752	59.91
715.936	60
716.12	60.04
716.304	60.26
716.488	60.18
716.671	60.16
716.855	59.99
717.039	60.04
717.223	59.78
717.407	59.73
717.59	60.13
717.774	60.28
717.958	60.82
718.142	60.76
718.325	60.76
718.509	60.89
718.693	61.1
718.877	61.36
719.06	61.53
719.244	61.57
719.428	61.6
719.611	60.85
719.795	60.57
719.978	60.31
720.162	60.56
720.345	60.59
720.529	60.52
720.713	60.35
720.896	60.62
721.08	60.37
721.263	60.43
721.446	60.86
721.63	60.78
721.813	61.01
721.997	60.78
722.18	60.37
722.364	60.2
722.547	60.35
722.73	60.15
722.914	60.05
723.097	59.49
723.28	59.92
723.464	59.6
723.647	59.87
723.83	60.27
724.013	60.7
724.197	60.76
724.38	61.01
724.563	61.04
724.746	61.14
724.929	61.48
725.112	61.91
725.296	61.52
725.479	61.68
725.662	62.04
725.845	61.77
726.028	61.68
726.211	61.66
726.394	61.41
726.577	61.29
726.76	61.67
726.943	61.29
727.126	61.23
727.309	61.19
727.492	60.63
727.675	60.47
727.858	60.6
728.041	60.72
728.224	60.85
728.407	60.65
728.589	60.26
728.772	59.75
728.955	60.07
729.138	60.25
729.321	59.82
729.503	60.34
729.686	60.22
729.869	60.09
730.052	60.11
730.234	60.17
730.417	60.41
730.6	61.04
730.782	61.03
730.965	60.81
731.148	60.95
731.33	61.15
731.513	61.11
731.695	60.92
731.878	60.92
732.061	60.51
732.243	60.67
732.426	60.61
732.608	60.43
732.791	60.77
732.973	60.48
733.156	60.39
733.338	60.43
733.52	60.39
733.703	60.56
733.885	60.22
734.068	60.63
734.25	60.3
734.432	59.81
734.615	59.47
734.797	59.1
734.979	58.82
735.162	58.42
735.344	58.5
735.526	58.77
735.708	58.91
735.891	59.31
736.073	59.23
736.255	58.9
736.437	59.68
736.619	59.79
736.802	59.53
736.984	60.4
737.166	60.89
737.348	61.21
737.53	61.01
737.712	60.76
737.894	60.06
738.076	59.7
738.258	60.08
738.44	60.21
738.622	60.13
738.804	60.48
738.986	60.12
739.168	59.84
739.35	59.52
739.532	59.37
739.714	59.99
739.896	60.34
740.078	60.8
740.259	60.56
740.441	60.24
740.623	60.15
740.805	60.24
740.987	60.8
741.168	60.81
741.35	60.61
741.532	60.82
741.714	60.21
741.895	59.95
742.077	59.99
742.259	59.64
742.44	60.02
742.622	60.1
742.804	60.3
742.985	59.37
743.167	59.28
743.348	59.31
743.53	59.59
743.711	59.73
743.893	59.73
744.075	59.38
744.256	60.28
744.438	59.46
744.619	59.51
744.8	59.33
744.982	59.62
745.163	59.73
745.345	59.99
745.526	59.45
745.707	59.49
745.889	59.58
746.07	59.89
746.252	59.9
746.433	60.29
746.614	60.26
746.795	60.11
746.977	60.54
747.158	60.83
747.339	60.39
747.52	60.59
747.702	60.74
747.883	60.53
748.064	60.16
748.245	59.71
748.426	59.42
748.607	59.63
748.788	59.51
748.97	59.23
749.151	59.03
749.332	59.01
749.513	58.65
749.694	58.16
749.875	58.54
750.056	58.28
750.237	58.14
750.418	58.69
750.599	58.6
750.78	59.1
750.96	59.63
751.141	59.59
751.322	60.1
751.503	60.3
751.684	60.77
751.865	60.77
752.046	60.99
752.226	61.38
752.407	60.83
752.588	60.98
752.769	60.7
752.949	59.98
753.13	60.05
753.311	59.24
753.492	59.44
753.672	59.29
753.853	58.64
754.034	58.71
754.214	58.46
754.395	58.48
754.575	58.72
754.756	58.7
754.937	58.24
755.117	58.12
755.298	59.18
755.478	58.79
755.659	59.04
755.839	59.84
756.02	59.3
756.2	59.62
756.381	59.88
756.561	59.49
756.741	59.46
756.922	59.59
757.102	59.34
757.283	59.69
757.463	60.1
757.643	59.52
757.823	59.48
758.004	60.14
758.184	59.79
758.364	60.64
758.545	60.7
758.725	60.46
758.905	61.21
759.085	61.47
759.265	60.87
759.446	60.04
759.626	60.63
759.806	60.66
759.986	60.71
760.166	61.2
760.346	60.98
760.526	60.92
760.706	61.27
760.886	61.01
761.066	61.2
761.246	61.19
761.426	61.92
761.606	61.51
761.786	61.07
761.966	60.73
762.146	60.17
762.326	59.55
762.506	59.6
762.686	59.78
762.866	59.76
763.046	59.3
763.225	59.28
763.405	59.16
763.585	59.04
763.765	59.23
763.945	59.15
764.124	59.28
764.304	59.41
764.484	59.21
764.664	58.98
764.843	59.21
765.023	59.49
765.203	59.55
765.382	59.55
765.562	59.66
765.741	59.6
765.921	60.39
766.101	60.45
766.28	60.21
766.46	60.51
766.639	60.02
766.819	59.6
766.998	59.71
767.178	58.9
767.357	59.12
767.537	59.13
767.716	59.31
767.896	59.09
768.075	59.09
768.254	59.61
768.434	59.41
768.613	60.15
768.792	60.38
768.972	60.26
769.151	61.15
769.33	60.13
769.51	60.22
769.689	60.68
769.868	60.94
770.047	61.38
770.226	60.1
770.406	60.04
770.585	59.76
770.764	59.08
770.943	58.8
771.122	58.69
771.301	59.2
771.48	59.99
771.66	59.42
771.839	59.19
772.018	58.45
772.197	59.41
772.376	59.19
772.555	59.54
772.734	59.97
772.913	60.59
773.092	60.83
773.271	61.29
773.449	60.39
773.628	59.69
773.807	59.07
773.986	59.77
774.165	60.01
774.344	60.07
774.523	59.76
774.701	59.42
774.88	59.23
775.059	59.21
775.238	58.88
775.417	59.21
775.595	59.95
775.774	60.88
775.953	60.1
776.131	60.35
776.31	60.42
776.489	60.26
776.667	60.98
776.846	60.64
777.025	60.86
777.203	60.52
777.382	60.42
777.56	60.72
777.739	59.65
777.917	60.38
778.096	59.95
778.274	60.1
778.453	59.53
778.631	59.68
778.81	59.08
778.988	58.37
779.166	58.47
779.345	59
779.523	58.78
779.702	59.11
779.88	58.78
780.058	59
780.237	59.78
780.415	60.56
780.593	59.8
780.771	60.54
780.95	61.46
781.128	62.11
781.306	61.31
781.484	62.05
781.662	62.5
781.841	62.69
782.019	62.8
782.197	62.52
782.375	62.7
782.553	63.61
782.731	64
782.909	63.11
783.087	63.33
783.265	63.34
783.443	62.33
783.621	61.74
783.799	61.8
783.977	61.84
784.155	61.54
784.333	62.26
784.511	62.15
784.689	61.42
784.867	61.1
785.045	60.56
785.223	60.16
785.4	59.42
785.578	59.44
785.756	60.2
785.934	60.85
786.112	60.88
786.289	59.98
786.467	59.89
786.645	60.23
786.823	60.6
787	60.46
787.178	60.92
787.356	61.56
787.533	60.79
787.711	59.84
787.889	57.78
788.066	57.44
788.244	57.07
788.421	57.3
788.599	56.92
788.776	56.72
788.954	57.68
789.131	57.44
789.309	57.38
789.486	58.26
789.664	59.01
789.841	61.2
790.019	61.35
790.196	61.62
790.373	61.17
790.551	61.72
790.728	61.72
790.906	61.27
791.083	61.07
791.26	61.12
791.437	60.89
791.615	60.16
791.792	59.24
791.969	59.1
792.146	59.83
792.324	59.97
792.501	59.87
792.678	59.83
792.855	59.06
793.032	59.33
793.209	59.84
793.387	60.07
793.564	59.83
793.741	60.23
793.918	60.92
794.095	60.74
794.272	60.54
794.449	59.62
794.626	60.48
794.803	60.83
794.98	61.94
795.157	61.07
795.334	60.48
795.511	61.35
795.688	60.76
795.864	60.29
796.041	59.7
796.218	59.41
796.395	59.85
796.572	59.25
796.749	59.73
796.925	58.55
797.102	59.94
797.279	60.71
797.456	60.75
797.632	59.87
797.809	60
797.986	60.74
798.162	60.45
798.339	60.64
798.516	60.28
798.692	59.5
798.869	59.33
799.046	58.82
799.222	58.49
799.399	57.7
799.575	59.4
799.752	59.62
799.928	59.13
800.105	60.27
800.281	61.62
800.458	62.89
800.634	62.8
800.811	63.56
800.987	62.64
801.163	62.21
801.34	62.76
801.516	62.01
801.692	60.79
801.869	59.63
802.045	58.9
802.221	57.68
802.398	57.1
802.574	56.36
802.75	56.37
802.926	57.57
803.103	58.47
803.279	57.38
803.455	57.33
803.631	58.4
803.807	60.34
803.983	61.29
804.16	62.19
804.336	61.36
804.512	62.22
804.688	62.45
804.864	61.66
805.04	60.5
805.216	62.42
805.392	62.57
805.568	62.98
805.744	62.42
805.92	62.12
806.096	61.7
806.272	61.55
806.448	61.89
806.623	62.17
806.799	62.14
806.975	62.66
807.151	61
807.327	60.63
807.503	59.23
807.678	59.75
807.854	59.77
808.03	59.33
808.206	60.52
808.381	60.48
808.557	59.95
808.733	60.2
808.908	60.89
809.084	61.82
809.26	63.2
809.435	64.62
809.611	64.06
809.787	63.77
809.962	63.86
810.138	64.65
810.313	63.15
810.489	62.89
810.664	63.25
810.84	63.19
811.015	62.21
811.191	61.04
811.366	60.52
811.542	60.35
811.717	61.08
811.892	62.19
812.068	61.54
812.243	62.32
812.419	62.26
812.594	63.41
812.769	62.35
812.944	62.6
813.12	62.69
813.295	62.97
813.47	64.1
813.645	62.57
813.821	61.29
813.996	60.71
814.171	61.76
814.346	62.83
814.521	61.42
814.697	63.49
814.872	64.61
815.047	64.72
815.222	63.72
815.397	62.58
815.572	62.94
815.747	63.15
815.922	63.39
816.097	63.16
816.272	62.78
816.447	62.85
816.622	61.47
816.797	61.17
816.972	60.1
817.147	60.68
817.322	61.14
817.496	61.84
817.671	63.74
817.846	63.75
818.021	62.67
818.196	61.9
818.371	61.96
818.545	62.29
818.72	62.36
818.895	62.47
819.069	62.26
819.244	62.61
819.419	61.27
819.594	59.61
819.768	59.57
819.943	60.58
820.117	60.57
820.292	61.07
820.467	60.28
820.641	60.45
820.816	60.27
820.99	60.14
821.165	59.64
821.339	60.04
821.514	59.84
821.688	59.63
821.863	59.46
822.037	59.06
822.212	58.83
822.386	58.79
822.56	58.45
822.735	58.45
822.909	58.15
823.084	57.96
823.258	57.65
823.432	57.33
823.606	56.99
823.781	56.42
823.955	56.82
824.129	56.36
824.303	56.37
824.478	56.64
824.652	56.37
824.826	56.48
825	56.63
825.174	56.77
825.348	57.05
825.523	57.29
825.697	57.67
825.871	57.67
826.045	57.79
826.219	58
826.393	57.51
826.567	57.37
826.741	57.91
826.915	58.04
827.089	58.08
827.263	58.79
827.437	58.89
827.611	58.84
827.784	58.41
827.958	58.45
828.132	58.16
828.306	58.52
828.48	59.02
828.654	58.25
828.827	58.45
829.001	58.63
829.175	57.88
829.349	57.8
829.522	59.19
829.696	59.95
829.87	60.84
830.044	60.8
830.217	60.47
830.391	61.93
830.565	62.65
830.738	62.08
830.912	61.8
831.085	61.5
831.259	62.11
831.432	61.3
831.606	60.7
831.779	60.03
831.953	61.35
832.126	61.91
832.3	60.65
832.473	61.52
832.647	61.52
832.82	61.76
832.994	61.36
833.167	60.77
833.34	60.13
833.514	60.26
833.687	60.43
833.86	59.83
834.034	59.92
834.207	60.08
834.38	59.56
834.553	60.55
834.727	60.54
834.9	60.38
835.073	60.97
835.246	60.68
835.419	60.38
835.593	60.01
835.766	60.05
835.939	58.55
836.112	57.84
836.285	57.41
836.458	55.18
836.631	54.23
836.804	53.94
836.977	53.58
837.15	54.5
837.323	54.16
837.496	54.89
837.669	54.66
837.842	57.91
838.015	59.12
838.188	58.49
838.361	58.92
838.533	57.72
838.706	58.84
838.879	59.08
839.052	60.69
839.225	63.2
839.398	61.87
839.57	63.6
839.743	62.77
839.916	62.21
840.088	61.65
840.261	62.04
840.434	63.62
840.607	63.68
840.779	64.45
840.952	62.68
841.124	60.39
841.297	61.55
841.47	58.89
841.642	59.73
841.815	60.01
841.987	62.64
842.16	64.33
842.332	65.11
842.505	66.67
842.677	65.65
842.85	64.39
843.022	64.46
843.194	64.12
843.367	64.77
843.539	62.49
843.712	62.63
843.884	62.79
844.056	62.6
844.229	62.27
844.401	57.66
844.573	55.52
844.745	57.04
844.918	60.69
845.09	62.13
845.262	62.47
845.434	63.46
845.606	65.47
845.779	65.04
845.951	62.4
846.123	61.71
846.295	67.57
846.467	68.75
846.639	72.05
846.811	65.25
846.983	62.51
847.155	64.29
847.327	66.61
847.499	64.75
847.671	63.38
847.843	65.43
848.015	65.02
848.187	62.74
848.359	65.01
848.531	64.33
848.703	67.73
848.875	71.04
849.047	69.03
849.218	67.13
849.39	66.49
849.562	65.38
849.734	66.71
849.905	68.93
850.077	70.03
850.249	67.63
850.421	68.84
850.592	69.41
850.764	69.48
850.936	67.4
851.107	69.1
851.279	68.74
851.451	74.67
851.622	71.87
851.794	68.97
851.965	69.32
852.137	70.15
852.308	68.44
852.48	69.19
852.651	66.17
852.823	69.5
852.994	67.95
853.166	66.72
853.337	65.69
853.509	66.46
853.68	66.95
853.851	67.34
854.023	67.26
854.194	67.41
854.365	65.73
854.537	67.51
854.708	73.73
854.879	71.13
855.05	76.96
855.222	76.23
855.393	74.1
855.564	74.23
855.735	70.32
855.906	73.79
856.078	73.53
856.249	74.92
856.42	75.9
856.591	69.97
856.762	70.84
856.933	69.15
857.104	65.11
857.275	70.77
857.446	72.5
857.617	76.51
857.788	75.63
857.959	73.52
858.13	74.52
858.301	70.17
858.472	69
858.643	67.5
858.814	66.76
858.985	66.54
859.155	67.28
859.326	67.98
859.497	69.06
859.668	65.71
859.839	68.75
860.009	68.14
860.18	74.23
860.351	76.8
860.522	78.75
860.692	79.14
860.863	77.94
861.034	75.52
861.204	75.14
861.375	74.81
861.546	75.19
861.716	73.5
861.887	77.79
862.057	73.65
862.228	72.94
862.398	72.18
862.569	73.41
862.739	79.19
862.91	75.19
863.08	74.12
863.251	71.94
863.421	69.56
863.592	68.97
863.762	66.91
863.932	68.87
864.103	67.61
864.273	68.26
864.443	67.06
864.614	64.46
864.784	64.97
864.954	65.63
865.125	67.57
865.295	69.33
865.465	70.26
865.635	66.46
865.805	67.49
865.976	73.32
866.146	75.15
866.316	75.89
866.486	77.94
866.656	77.92
866.826	77.74
866.996	79.46
867.166	79.02
867.336	80.12
867.506	84.23
867.676	82.28
867.846	78.47
868.016	80.56
868.186	79.58
868.356	79.24
868.526	78.65
868.696	77.38
868.866	75.67
869.036	77.26
869.206	73.96
869.376	68.5
869.545	68.75
869.715	65.95
869.885	61.82
870.055	62.59
870.224	67.1
870.394	71.45
870.564	69.52
870.734	70.5
870.903	69.05
871.073	68.09
871.243	68.02
871.412	69.13
871.582	70.39
871.751	71.63
871.921	68.52
872.091	64.73
872.26	63.8
872.43	64.77
872.599	63.39
872.769	64.86
872.938	66.7
873.108	69.82
873.277	69.61
873.446	71.08
873.616	70.07
873.785	76.92
873.955	72.89
874.124	69.91
874.293	74.07
874.463	74.64
874.632	75.13
874.801	73.96
874.971	73.07
875.14	72.03
875.309	68.24
875.478	67.39
875.647	63.78
875.817	67.25
875.986	72.08
876.155	67.55
876.324	71.98
876.493	70.61
876.662	71.54
876.831	68.15
877	68.74
877.17	72.94
877.339	70.5
877.508	70.35
877.677	65.47
877.846	62.75
878.015	64.68
878.184	61.44
878.352	61.75
878.521	65.96
878.69	70.36
878.859	72.89
879.028	72.13
879.197	75.42
879.366	76.06
879.534	76.95
879.703	72.46
879.872	70.21
880.041	67.81
880.21	66.56
880.378	65.23
880.547	64.04
880.716	62.96
880.884	61.67
881.053	60.56
881.222	60.03
881.39	59.75
881.559	59.56
881.727	59.16
881.896	59.21
882.065	58.78
882.233	58.04
882.402	57.18
882.57	56.7
882.739	56.3
882.907	55.77
883.076	54.88
883.244	54.41
883.412	54.1
883.581	53.76
883.749	52.71
883.918	52.53
884.086	51.96
884.254	52.4
884.423	51.92
884.591	52.75
884.759	53.16
884.927	52.98
885.096	52.72
885.264	54.68
885.432	56.58
885.6	56.43
885.769	55.91
885.937	56.73
886.105	55.85
886.273	57.81
886.441	58.1
886.609	59.46
886.777	59.99
886.945	60.8
887.113	61.45
887.281	59.44
887.449	63.05
887.617	65.47
887.785	66.17
887.953	69.27
888.121	67.38
888.289	68.61
888.457	66.6
888.625	66.9
888.793	68.5
888.961	66.34
889.129	67.22
889.296	66.85
889.464	67.66
889.632	67.28
889.8	65.36
889.967	66.31
890.135	60.77
