Data from 2938534_Reflection_3.txt Node
Date: Mon Jun 15 23:59:22 EDT 2015
User: robert
Spectrometer: USB4E03002
Autoset integration time: false
Trigger mode: 4
Integration Time (sec): 1.000000E-1
Scans to average: 10
Electric dark correction enabled: true
Nonlinearity correction enabled: false
Boxcar width: 6
Stray light correction enabled: false
XAxis mode: Wavelengths
Stop averaging: false
Number of Pixels in Spectrum: 3648
>>>>>Begin Spectral Data<<<<<
177.575	-46.84
177.794	-66.33
178.014	19.29
178.233	30.24
178.452	40.49
178.672	-17.76
178.891	0
179.11	2.78
179.33	83.54
179.549	20.64
179.768	-8.62
179.987	-17.84
180.207	-33.41
180.426	-69.97
180.645	-22.87
180.864	15.85
181.084	12.45
181.303	20.31
181.522	-10.67
181.741	100.62
181.96	181.82
182.179	89.73
182.398	307.03
182.618	454.69
182.837	760.49
183.056	-7642.86
183.275	-331.73
183.494	-16.25
183.713	50.59
183.932	24.54
184.151	113.93
184.37	85.28
184.589	215.35
184.808	133.23
185.027	139.48
185.246	121.99
185.465	119.2
185.684	134.4
185.903	136.7
186.122	162.86
186.341	99.82
186.56	93.92
186.779	97.49
186.998	113.35
187.216	116.71
187.435	102.07
187.654	112.74
187.873	112.28
188.092	119.67
188.311	78.47
188.53	76.03
188.748	94.77
188.967	57.61
189.186	220
189.405	171.91
189.623	180.5
189.842	91.29
190.061	91.12
190.28	91.25
190.498	121.72
190.717	103.76
190.936	89.6
191.154	77.44
191.373	62.83
191.592	26.47
191.81	32.21
192.029	16.72
192.248	-77.27
192.466	1170
192.685	38.46
192.904	31.67
193.122	-185.45
193.341	-117.07
193.559	-75.58
193.778	89.74
193.996	408.06
194.215	140.75
194.433	199.3
194.652	200
194.87	216.47
195.089	268.53
195.307	216.72
195.526	167.13
195.744	330.41
195.963	212.21
196.181	182.89
196.399	153.38
196.618	164.29
196.836	213.3
197.055	212.73
197.273	477.63
197.491	297.54
197.71	275.4
197.928	191.13
198.146	33.33
198.365	-15.22
198.583	68.1
198.801	66.67
199.019	32
199.238	71.43
199.456	45.98
199.674	168.22
199.892	126.16
200.111	887.1
200.329	-370.83
200.547	-60.47
200.765	-86.67
200.983	95.65
201.202	62.45
201.42	93.07
201.638	128.89
201.856	98.68
202.074	116.16
202.292	146.38
202.51	208.15
202.728	316.67
202.946	642.73
203.165	308.61
203.383	579.03
203.601	386.67
203.819	2833.33
204.037	404.97
204.255	467.35
204.473	206.13
204.691	-672.5
204.909	-172.41
205.127	90.28
205.345	222.47
205.562	476.19
205.78	218.86
205.998	191.1
206.216	143.69
206.434	111.67
206.652	150.45
206.87	210.2
207.088	154.8
207.306	179.1
207.523	153.94
207.741	170
207.959	55.24
208.177	105.45
208.395	46.69
208.612	62.34
208.83	62.63
209.048	39.96
209.266	70.66
209.483	100.53
209.701	127.35
209.919	102.11
210.136	124.36
210.354	71.68
210.572	52
210.79	45.93
211.007	38.01
211.225	56.87
211.442	78.2
211.66	101.63
211.878	73.72
212.095	49.18
212.313	49.79
212.53	32.14
212.748	30.97
212.966	15.47
213.183	7.1
213.401	13.29
213.618	21.91
213.836	46.21
214.053	41.45
214.271	38.49
214.488	40.09
214.705	68.9
214.923	48.1
215.14	23.97
215.358	35.59
215.575	21.75
215.793	39.06
216.01	61.83
216.227	82.13
216.445	77.15
216.662	57.23
216.879	41.55
217.097	34.71
217.314	30.92
217.531	27.71
217.749	30.14
217.966	24.85
218.183	30.84
218.4	34.25
218.618	17.29
218.835	-2.4
219.052	10.14
219.269	9.95
219.487	6.65
219.704	19.35
219.921	4.48
220.138	7.54
220.355	1.94
220.572	15.82
220.79	16.66
221.007	15.05
221.224	-2.55
221.441	0.69
221.658	6.84
221.875	-13.9
222.092	-6.74
222.309	-2.23
222.526	9.1
222.743	15.12
222.96	6.41
223.177	0.48
223.394	-5.39
223.611	-10.29
223.828	-16.3
224.045	-3.04
224.262	1.67
224.479	3.56
224.696	11.43
224.913	11.27
225.13	11.41
225.347	8.04
225.564	9.23
225.781	11.11
225.997	13.92
226.214	11.53
226.431	12.67
226.648	13.08
226.865	12.79
227.082	13.03
227.298	13.11
227.515	12.08
227.732	11.08
227.949	11.11
228.165	11.44
228.382	11.22
228.599	12.04
228.816	11.33
229.032	13.23
229.249	12.24
229.466	12.72
229.682	14.17
229.899	13.51
230.116	12.28
230.332	13.49
230.549	14.05
230.765	14.56
230.982	15.58
231.199	15.32
231.415	13.7
231.632	13.82
231.848	13.91
232.065	15.79
232.281	15.67
232.498	12.93
232.714	14.91
232.931	15.57
233.147	13.78
233.364	13.45
233.58	14.53
233.797	13.39
234.013	12.63
234.23	12.67
234.446	11.57
234.662	10.29
234.879	8.83
235.095	8.43
235.312	8.69
235.528	8.44
235.744	7.61
235.961	8.45
236.177	8.5
236.393	9.77
236.61	10.56
236.826	13.06
237.042	12.33
237.258	12.72
237.475	13.33
237.691	12.53
237.907	12.61
238.123	13.5
238.339	12.19
238.556	12.75
238.772	12.74
238.988	14.01
239.204	12.2
239.42	11.09
239.636	10.54
239.853	11.45
240.069	12.67
240.285	12.37
240.501	12.9
240.717	11.67
240.933	11.35
241.149	11.97
241.365	12.1
241.581	12.12
241.797	11.49
242.013	11.57
242.229	12.47
242.445	12.29
242.661	11.42
242.877	10.93
243.093	11.17
243.309	11
243.525	11.84
243.741	11.67
243.957	10.77
244.173	9.99
244.388	10.17
244.604	9.98
244.82	9.9
245.036	9.39
245.252	9.05
245.468	9.26
245.683	8.91
245.899	8.95
246.115	8.79
246.331	8.93
246.547	8.68
246.762	9.07
246.978	9.65
247.194	9.25
247.409	9.16
247.625	8.87
247.841	8.84
248.057	9.52
248.272	9.84
248.488	10.41
248.703	9.48
248.919	9.21
249.135	9.19
249.35	8.58
249.566	7.83
249.782	7.07
249.997	6.95
250.213	7.39
250.428	7.77
250.644	7.85
250.859	7.41
251.075	7.15
251.29	6.1
251.506	6.19
251.721	6.51
251.937	6.14
252.152	6.4
252.368	6.89
252.583	6.63
252.798	6.86
253.014	6.48
253.229	6.31
253.445	5.57
253.66	5.84
253.875	6.33
254.091	8.15
254.306	8.9
254.521	9.06
254.737	8.57
254.952	10.25
255.167	9.84
255.383	9.21
255.598	9.02
255.813	9.54
256.028	9.31
256.244	9.15
256.459	9.01
256.674	8.63
256.889	7.65
257.104	7.72
257.32	7.75
257.535	7.65
257.75	7.29
257.965	7.01
258.18	7.66
258.395	7.35
258.61	6.85
258.826	6.86
259.041	7.22
259.256	7.14
259.471	7.15
259.686	7.31
259.901	7.36
260.116	7.45
260.331	7.7
260.546	7.56
260.761	7.51
260.976	7
261.191	7.17
261.406	7.25
261.621	7.34
261.836	6.71
262.05	6.43
262.265	6.17
262.48	6.1
262.695	5.59
262.91	5.55
263.125	5.47
263.34	5.48
263.555	6.17
263.769	6
263.984	6.6
264.199	7.41
264.414	7.71
264.629	7.91
264.843	7.97
265.058	7.94
265.273	7.48
265.488	6.91
265.702	6.92
265.917	6.64
266.132	6.59
266.346	6.46
266.561	6.61
266.776	6.25
266.99	5.83
267.205	5.08
267.42	5.06
267.634	5.1
267.849	5.43
268.063	5.56
268.278	6.12
268.492	6.01
268.707	6.53
268.922	6.61
269.136	6.07
269.351	6.24
269.565	6.14
269.78	6.49
269.994	7.06
270.209	7.18
270.423	7
270.637	6.52
270.852	6.57
271.066	6.55
271.281	6.48
271.495	6.31
271.709	6.28
271.924	6.85
272.138	6.56
272.353	6.89
272.567	6.82
272.781	6.43
272.996	6.42
273.21	6.6
273.424	6.99
273.638	7.71
273.853	8.19
274.067	7.97
274.281	8.31
274.495	8.44
274.71	7.96
274.924	8.11
275.138	8.12
275.352	7.67
275.566	7.45
275.781	7.14
275.995	6.98
276.209	6.68
276.423	5.88
276.637	5.29
276.851	5.45
277.065	4.99
277.279	5.58
277.493	5.49
277.707	5.61
277.921	5.17
278.135	5.26
278.349	5.83
278.563	6.15
278.777	6.39
278.991	6.16
279.205	6.38
279.419	6.27
279.633	6.35
279.847	6.56
280.061	5.97
280.275	6.79
280.489	5.83
280.703	6.48
280.917	6.78
281.131	6.49
281.344	6.18
281.558	5.9
281.772	6.31
281.986	6.22
282.2	6.38
282.414	6.55
282.627	6.23
282.841	5.93
283.055	5.75
283.269	6.33
283.482	5.85
283.696	5.72
283.91	5.67
284.123	5.82
284.337	6.47
284.551	6.55
284.764	6.67
284.978	6.91
285.192	6.93
285.405	7.24
285.619	7.31
285.833	7.11
286.046	7.12
286.26	7.34
286.473	7.41
286.687	7.36
286.9	7.52
287.114	6.9
287.327	7.04
287.541	6.81
287.754	6.55
287.968	6.11
288.181	6.06
288.395	6.22
288.608	5.92
288.822	6.16
289.035	6.58
289.248	6.56
289.462	6.95
289.675	6.75
289.889	6.86
290.102	6.74
290.315	7.01
290.529	6.85
290.742	7.31
290.955	7.22
291.169	7.58
291.382	7.54
291.595	7.26
291.808	6.87
292.022	7.09
292.235	6.94
292.448	7.15
292.661	7.17
292.875	7.15
293.088	6.95
293.301	7.19
293.514	7.03
293.727	7.38
293.94	7.27
294.153	7.82
294.367	7.65
294.58	7.66
294.793	7.44
295.006	7.36
295.219	7.31
295.432	7.16
295.645	7.08
295.858	7.31
296.071	7.35
296.284	7.15
296.497	7.07
296.71	7.17
296.923	6.97
297.136	6.93
297.349	7.03
297.562	7.12
297.775	7.07
297.988	6.9
298.201	6.96
298.414	7.03
298.626	6.75
298.839	6.61
299.052	6.83
299.265	6.64
299.478	6.53
299.691	6.42
299.903	7.02
300.116	7.04
300.329	6.86
300.542	7.18
300.755	7.38
300.967	7.54
301.18	7.79
301.393	8.06
301.605	8.01
301.818	8.29
302.031	8.05
302.243	7.61
302.456	7.32
302.669	7.1
302.881	7.17
303.094	7.26
303.307	7.31
303.519	7.49
303.732	7.1
303.944	6.68
304.157	6.44
304.37	6.58
304.582	6.41
304.795	6.6
305.007	6.77
305.22	7.22
305.432	7.63
305.645	7.13
305.857	7.04
306.069	7.1
306.282	6.84
306.494	7.27
306.707	7.24
306.919	7.23
307.132	6.95
307.344	6.66
307.556	6.64
307.769	6.84
307.981	6.7
308.193	6.51
308.406	6.83
308.618	6.73
308.83	6.33
309.043	6.2
309.255	6.19
309.467	6.35
309.679	6.46
309.892	6.44
310.104	6.33
310.316	6.34
310.528	6.53
310.74	6.62
310.953	6.26
311.165	6.29
311.377	6.34
311.589	6.63
311.801	7.29
312.013	7.16
312.225	7.04
312.437	7.12
312.649	6.96
312.862	7
313.074	7.07
313.286	6.38
313.498	6.06
313.71	6.41
313.922	5.96
314.134	6.17
314.346	6.07
314.558	5.52
314.77	5.81
314.982	6.22
315.193	6.37
315.405	6.93
315.617	7.54
315.829	7.42
316.041	7.63
316.253	8.14
316.465	8.01
316.677	8.35
316.888	8.46
317.1	8.41
317.312	8.42
317.524	7.94
317.736	7.99
317.947	7.65
318.159	7.54
318.371	7.6
318.583	7.41
318.794	7.52
319.006	7.28
319.218	7.24
319.43	7.14
319.641	7.21
319.853	7.49
320.064	7.64
320.276	8.05
320.488	7.84
320.699	7.81
320.911	7.98
321.123	7.74
321.334	8.33
321.546	8.54
321.757	8.47
321.969	9.04
322.18	8.81
322.392	8.98
322.603	8.83
322.815	8.78
323.026	8.37
323.238	8.19
323.449	8.37
323.661	8.35
323.872	7.99
324.083	7.99
324.295	8.11
324.506	8.44
324.718	8.29
324.929	8.16
325.14	7.79
325.352	7.72
325.563	7.67
325.774	7.85
325.986	7.73
326.197	7.74
326.408	7.62
326.62	7.99
326.831	7.66
327.042	7.48
327.253	6.7
327.464	6.29
327.676	6.42
327.887	6.56
328.098	6.59
328.309	6.73
328.52	6.81
328.732	7.15
328.943	7.2
329.154	7.48
329.365	7.47
329.576	7.8
329.787	8.08
329.998	8.7
330.209	8.79
330.42	9
330.631	8.96
330.842	9.11
331.053	9.01
331.264	9.13
331.475	8.99
331.686	8.9
331.897	8.9
332.108	8.78
332.319	8.33
332.53	8.16
332.741	8.25
332.952	8.47
333.163	8.41
333.374	8.57
333.585	8.27
333.795	8.4
334.006	8.37
334.217	8.32
334.428	8.46
334.639	8.54
334.849	8.86
335.06	9.13
335.271	9.32
335.482	9.42
335.692	9.32
335.903	9.27
336.114	9.11
336.325	9.18
336.535	8.94
336.746	9.24
336.957	9.3
337.167	9
337.378	8.84
337.589	8.68
337.799	8.61
338.01	8.17
338.22	7.99
338.431	8.05
338.642	8.24
338.852	8.1
339.063	8.04
339.273	8.17
339.484	7.84
339.694	7.81
339.905	7.88
340.115	7.87
340.326	7.79
340.536	7.86
340.746	7.95
340.957	7.98
341.167	7.92
341.378	7.94
341.588	7.99
341.799	8.09
342.009	7.9
342.219	7.63
342.43	7.9
342.64	7.95
342.85	8.08
343.061	8.09
343.271	8.1
343.481	8.1
343.691	8.14
343.902	8.17
344.112	8.06
344.322	8.19
344.532	8.08
344.743	8.3
344.953	8.29
345.163	8.34
345.373	8.73
345.583	9.1
345.793	8.66
346.004	8.64
346.214	8.49
346.424	8.37
346.634	8.26
346.844	8.06
347.054	7.97
347.264	7.86
347.474	7.71
347.684	8.05
347.894	7.81
348.104	7.42
348.314	7.01
348.524	7.18
348.734	7.23
348.944	7.47
349.154	7.33
349.364	7.44
349.574	7.37
349.784	7.56
349.994	8.23
350.204	8.08
350.413	8.21
350.623	8.46
350.833	8.6
351.043	8.53
351.253	8.72
351.463	8.51
351.672	8.67
351.882	8.84
352.092	8.76
352.302	8.61
352.511	8.21
352.721	7.43
352.931	7.48
353.141	7.34
353.35	7.05
353.56	6.9
353.77	6.82
353.979	6.98
354.189	7.05
354.399	6.98
354.608	7.1
354.818	6.98
355.027	6.9
355.237	7.28
355.447	7.65
355.656	7.72
355.866	7.68
356.075	7.72
356.285	7.76
356.494	7.85
356.704	7.56
356.913	7.48
357.123	7.48
357.332	7.07
357.542	7.21
357.751	7.73
357.96	7.53
358.17	7.48
358.379	7.63
358.589	7.33
358.798	7.35
359.007	7.36
359.217	7.2
359.426	7.24
359.635	7.34
359.845	7.33
360.054	7.63
360.263	7.55
360.472	7.5
360.682	7.55
360.891	7.47
361.1	7.52
361.309	7.78
361.519	7.71
361.728	7.76
361.937	7.66
362.146	7.75
362.355	7.59
362.564	7.4
362.774	7.45
362.983	7.64
363.192	7.67
363.401	7.64
363.61	7.85
363.819	7.55
364.028	7.44
364.237	7.5
364.446	7.48
364.655	7.75
364.864	7.95
365.073	7.98
365.282	7.98
365.491	7.92
365.7	7.73
365.909	7.51
366.118	7.41
366.327	7.05
366.536	7.1
366.745	7.43
366.954	7.19
367.162	6.9
367.371	6.98
367.58	6.92
367.789	6.99
367.998	7.27
368.207	7.2
368.415	7.04
368.624	7.15
368.833	7.06
369.042	7.38
369.25	7.36
369.459	6.85
369.668	6.99
369.877	7.18
370.085	7.11
370.294	7.07
370.503	7.16
370.711	6.89
370.92	6.66
371.129	6.83
371.337	6.74
371.546	6.79
371.754	6.71
371.963	6.85
372.171	7.11
372.38	7.21
372.589	7.06
372.797	7.09
373.006	6.81
373.214	6.5
373.423	6.62
373.631	6.75
373.84	6.85
374.048	6.82
374.256	6.82
374.465	6.77
374.673	6.67
374.882	6.55
375.09	6.46
375.298	6.48
375.507	6.23
375.715	6.32
375.923	6.46
376.132	6.26
376.34	6.23
376.548	6.12
376.757	6.16
376.965	5.9
377.173	5.74
377.381	5.55
377.59	5.65
377.798	5.76
378.006	5.69
378.214	5.56
378.423	5.52
378.631	5.35
378.839	5.54
379.047	5.43
379.255	5.4
379.463	5.28
379.671	5.57
379.879	5.67
380.088	5.66
380.296	5.64
380.504	5.43
380.712	5.5
380.92	5.68
381.128	5.71
381.336	5.87
381.544	5.92
381.752	6.03
381.96	6.02
382.168	6.11
382.376	6.05
382.584	6.21
382.791	6.16
382.999	6.17
383.207	6.13
383.415	6.02
383.623	5.82
383.831	5.68
384.039	5.56
384.247	5.45
384.454	5.43
384.662	5.24
384.87	5.02
385.078	4.86
385.285	4.67
385.493	4.92
385.701	4.73
385.909	4.73
386.116	4.79
386.324	4.89
386.532	4.95
386.739	4.84
386.947	4.86
387.155	4.81
387.362	5.01
387.57	5.37
387.778	5.56
387.985	5.42
388.193	5.3
388.4	5.47
388.608	5.52
388.816	5.56
389.023	5.72
389.231	5.77
389.438	5.99
389.646	5.92
389.853	5.82
390.061	5.73
390.268	5.62
390.475	5.53
390.683	5.5
390.89	5.45
391.098	5.43
391.305	5.31
391.512	5.3
391.72	5.1
391.927	4.91
392.135	4.73
392.342	4.74
392.549	4.78
392.756	4.85
392.964	4.74
393.171	4.61
393.378	4.83
393.586	4.9
393.793	4.7
394	4.72
394.207	4.75
394.414	4.82
394.622	4.91
394.829	4.86
395.036	4.76
395.243	4.85
395.45	4.73
395.657	4.73
395.864	4.66
396.072	4.49
396.279	4.42
396.486	4.56
396.693	4.68
396.9	4.68
397.107	4.66
397.314	4.7
397.521	4.76
397.728	4.82
397.935	4.76
398.142	4.72
398.349	4.62
398.556	4.8
398.763	4.98
398.97	5.01
399.177	5.07
399.383	4.93
399.59	4.8
399.797	4.84
400.004	4.77
400.211	4.85
400.418	4.72
400.625	4.78
400.831	4.74
401.038	4.86
401.245	4.71
401.452	4.52
401.658	4.53
401.865	4.27
402.072	4.39
402.279	4.44
402.485	4.31
402.692	4.4
402.899	4.36
403.105	4.46
403.312	4.43
403.519	4.4
403.725	4.33
403.932	4.34
404.138	4.41
404.345	4.37
404.552	4.57
404.758	4.44
404.965	4.33
405.171	4.42
405.378	4.35
405.584	4.38
405.791	4.45
405.997	4.32
406.204	4.45
406.41	4.33
406.617	4.44
406.823	4.5
407.029	4.51
407.236	4.36
407.442	4.42
407.649	4.48
407.855	4.39
408.061	4.3
408.268	4.29
408.474	4.15
408.68	4.17
408.887	4.12
409.093	4.3
409.299	4.37
409.505	4.3
409.712	4.35
409.918	4.56
410.124	4.54
410.33	4.46
410.537	4.43
410.743	4.46
410.949	4.35
411.155	4.42
411.361	4.32
411.567	4.33
411.773	4.22
411.98	4.07
412.186	3.96
412.392	3.95
412.598	3.76
412.804	3.81
413.01	3.88
413.216	4.02
413.422	4.1
413.628	4.04
413.834	4.08
414.04	4.23
414.246	4.25
414.452	4.14
414.658	4.09
414.864	4.09
415.07	4.02
415.275	3.97
415.481	3.91
415.687	3.91
415.893	3.92
416.099	3.86
416.305	3.97
416.511	3.93
416.716	3.83
416.922	3.74
417.128	3.78
417.334	3.82
417.539	3.81
417.745	3.77
417.951	3.83
418.157	3.8
418.362	3.75
418.568	3.6
418.774	3.58
418.979	3.58
419.185	3.52
419.391	3.51
419.596	3.53
419.802	3.61
420.008	4.28
420.213	4.24
420.419	4.23
420.624	4.2
420.83	4.17
421.035	4.13
421.241	4.16
421.446	4.17
421.652	4.08
421.857	4.14
422.063	4.12
422.268	4.13
422.474	4.05
422.679	3.33
422.885	3.39
423.09	3.42
423.295	3.41
423.501	3.47
423.706	3.56
423.911	3.57
424.117	3.63
424.322	3.64
424.527	3.57
424.733	3.54
424.938	3.51
425.143	3.46
425.349	3.47
425.554	3.4
425.759	3.34
425.964	3.33
426.169	3.27
426.375	3.23
426.58	3.26
426.785	3.2
426.99	3.21
427.195	3.2
427.4	3.24
427.605	3.18
427.811	3.32
428.016	3.36
428.221	3.36
428.426	3.37
428.631	3.39
428.836	3.38
429.041	3.37
429.246	3.31
429.451	3.28
429.656	3.27
429.861	3.37
430.066	3.34
430.271	3.34
430.476	3.32
430.681	3.36
430.886	3.44
431.09	3.35
431.295	3.37
431.5	3.38
431.705	3.32
431.91	3.39
432.115	3.4
432.32	3.37
432.524	3.32
432.729	3.41
432.934	3.47
433.139	3.4
433.343	3.37
433.548	3.31
433.753	3.37
433.958	3.26
434.162	3.26
434.367	3.29
434.572	3.23
434.776	3.2
434.981	3.34
435.186	3.24
435.39	3.04
435.595	2.99
435.799	2.98
436.004	3.1
436.209	3.02
436.413	3.03
436.618	3.13
436.822	3.18
437.027	3.14
437.231	3.12
437.436	3.11
437.64	3.04
437.845	3.07
438.049	3.18
438.253	3.19
438.458	3.16
438.662	3.04
438.867	3.07
439.071	2.99
439.275	2.93
439.48	2.94
439.684	2.89
439.888	2.94
440.093	2.94
440.297	2.97
440.501	3.02
440.706	3
440.91	2.99
441.114	3.01
441.318	3.04
441.523	3.02
441.727	3.09
441.931	3.1
442.135	2.95
442.339	3.01
442.543	2.97
442.748	2.98
442.952	2.99
443.156	3.03
443.36	3.02
443.564	3
443.768	3.07
443.972	3
444.176	3.07
444.38	3.02
444.584	2.98
444.788	3.07
444.992	3.08
445.196	3.07
445.4	3.04
445.604	2.96
445.808	2.88
446.012	2.92
446.216	2.93
446.42	2.93
446.624	2.97
446.828	2.89
447.032	2.92
447.235	2.89
447.439	2.89
447.643	2.85
447.847	2.82
448.051	2.89
448.254	2.97
448.458	3.05
448.662	3.01
448.866	3.06
449.069	3.02
449.273	3.02
449.477	3.06
449.681	3.06
449.884	3.22
450.088	3.26
450.292	3.25
450.495	3.31
450.699	3.13
450.902	3.01
451.106	2.91
451.31	2.99
451.513	3.02
451.717	3.02
451.92	3.04
452.124	3.15
452.327	3.11
452.531	3
452.734	3
452.938	2.93
453.141	2.91
453.345	2.99
453.548	2.99
453.752	3.05
453.955	2.95
454.158	2.85
454.362	2.82
454.565	2.86
454.769	2.73
454.972	2.81
455.175	2.84
455.379	2.84
455.582	2.92
455.785	2.86
455.988	2.84
456.192	2.81
456.395	2.72
456.598	2.7
456.801	2.8
457.005	2.79
457.208	2.76
457.411	2.8
457.614	2.74
457.817	2.75
458.021	2.6
458.224	2.65
458.427	2.66
458.63	2.68
458.833	2.73
459.036	2.73
459.239	2.7
459.442	2.62
459.645	2.63
459.848	2.62
460.051	2.59
460.254	2.66
460.457	2.63
460.66	2.71
460.863	2.74
461.066	2.78
461.269	2.76
461.472	2.77
461.675	2.86
461.878	2.94
462.081	2.95
462.284	2.95
462.486	2.86
462.689	2.84
462.892	2.81
463.095	2.8
463.298	2.8
463.5	2.83
463.703	2.77
463.906	2.72
464.109	2.81
464.311	2.77
464.514	2.81
464.717	2.86
464.92	2.86
465.122	2.82
465.325	2.9
465.528	2.95
465.73	3.01
465.933	3.07
466.135	3.07
466.338	3.12
466.541	3.26
466.743	3.2
466.946	3.25
467.148	3.25
467.351	3.29
467.553	3.27
467.756	3.37
467.958	3.35
468.161	3.21
468.363	3.24
468.566	3.19
468.768	3.18
468.971	3.19
469.173	3.11
469.375	3.12
469.578	3.04
469.78	3.08
469.983	3.04
470.185	3.05
470.387	3.08
470.59	3.13
470.792	3.21
470.994	3.18
471.196	3.18
471.399	3.13
471.601	3.05
471.803	3.11
472.005	3.07
472.208	3.16
472.41	3.14
472.612	3.12
472.814	3.11
473.016	3.1
473.218	2.97
473.421	2.94
473.623	2.93
473.825	2.91
474.027	2.86
474.229	2.89
474.431	2.81
474.633	2.83
474.835	2.78
475.037	2.76
475.239	2.73
475.441	2.73
475.643	2.71
475.845	2.76
476.047	2.8
476.249	2.69
476.451	2.71
476.653	2.7
476.855	2.68
477.057	2.71
477.258	2.71
477.46	2.72
477.662	2.7
477.864	2.69
478.066	2.75
478.268	2.8
478.469	2.85
478.671	2.76
478.873	2.86
479.075	2.88
479.276	2.9
479.478	2.82
479.68	2.76
479.882	2.7
480.083	2.7
480.285	2.68
480.487	2.68
480.688	2.65
480.89	2.66
481.091	2.59
481.293	2.62
481.495	2.6
481.696	2.59
481.898	2.6
482.099	2.66
482.301	2.7
482.502	2.72
482.704	2.73
482.905	2.75
483.107	2.78
483.308	2.77
483.51	2.75
483.711	2.78
483.913	2.79
484.114	2.81
484.315	2.82
484.517	2.82
484.718	2.81
484.92	2.82
485.121	2.82
485.322	2.8
485.524	2.78
485.725	2.75
485.926	2.75
486.127	2.74
486.329	2.74
486.53	2.75
486.731	2.75
486.932	2.74
487.134	2.74
487.335	2.7
487.536	2.72
487.737	2.7
487.938	2.68
488.139	2.7
488.341	2.71
488.542	2.74
488.743	2.75
488.944	2.78
489.145	2.77
489.346	2.8
489.547	2.77
489.748	2.79
489.949	2.84
490.15	2.82
490.351	2.85
490.552	2.87
490.753	2.88
490.954	2.93
491.155	2.91
491.356	2.9
491.557	2.91
491.758	2.95
491.959	2.93
492.159	2.98
492.36	2.99
492.561	3.03
492.762	3.07
492.963	3.13
493.164	3.17
493.364	3.21
493.565	3.13
493.766	3.16
493.967	3.22
494.167	3.25
494.368	3.22
494.569	3.2
494.769	3.28
494.97	3.27
495.171	3.18
495.371	3.14
495.572	3.11
495.773	3.14
495.973	3.1
496.174	3.19
496.375	3.23
496.575	3.25
496.776	3.26
496.976	3.31
497.177	3.41
497.377	3.38
497.578	3.41
497.778	3.52
497.979	3.56
498.179	3.57
498.38	3.59
498.58	3.64
498.78	3.58
498.981	3.61
499.181	3.59
499.382	3.56
499.582	3.54
499.782	3.52
499.983	3.52
500.183	3.52
500.383	3.44
500.584	3.46
500.784	3.48
500.984	3.44
501.184	3.49
501.385	3.56
501.585	3.47
501.785	3.5
501.985	3.43
502.185	3.42
502.386	3.41
502.586	3.48
502.786	3.56
502.986	3.61
503.186	3.59
503.386	3.61
503.586	3.63
503.786	3.62
503.987	3.58
504.187	3.64
504.387	3.62
504.587	3.7
504.787	3.72
504.987	3.71
505.187	3.66
505.387	3.65
505.587	3.73
505.786	3.82
505.986	3.82
506.186	3.89
506.386	3.96
506.586	4.02
506.786	4.1
506.986	4.11
507.186	4.12
507.386	4.16
507.585	4.24
507.785	4.31
507.985	4.36
508.185	4.31
508.384	4.26
508.584	4.27
508.784	4.27
508.984	4.24
509.183	4.28
509.383	4.27
509.583	4.31
509.782	4.38
509.982	4.43
510.182	4.43
510.381	4.44
510.581	4.42
510.781	4.39
510.98	4.43
511.18	4.41
511.379	4.42
511.579	4.44
511.778	4.38
511.978	4.37
512.177	4.35
512.377	4.31
512.576	4.28
512.776	4.4
512.975	4.38
513.175	4.37
513.374	4.52
513.573	4.6
513.773	4.69
513.972	4.7
514.172	4.7
514.371	4.8
514.57	4.81
514.77	4.89
514.969	4.94
515.168	4.98
515.367	4.84
515.567	4.81
515.766	4.85
515.965	4.83
516.164	4.79
516.364	4.86
516.563	4.88
516.762	4.94
516.961	4.96
517.16	5
517.359	4.98
517.559	4.98
517.758	4.96
517.957	5.03
518.156	5.08
518.355	5.1
518.554	5.1
518.753	5.21
518.952	5.22
519.151	5.29
519.35	5.29
519.549	5.34
519.748	5.35
519.947	5.42
520.146	5.51
520.345	5.5
520.544	5.53
520.743	5.62
520.942	5.64
521.141	5.73
521.339	5.67
521.538	5.66
521.737	5.68
521.936	5.74
522.135	5.74
522.333	5.86
522.532	5.83
522.731	5.85
522.93	5.9
523.129	5.88
523.327	5.88
523.526	5.88
523.725	5.88
523.923	5.91
524.122	5.93
524.321	5.91
524.519	5.89
524.718	5.9
524.917	5.88
525.115	5.95
525.314	5.95
525.512	5.94
525.711	6
525.909	5.98
526.108	6.02
526.306	6
526.505	5.98
526.703	6
526.902	6.03
527.1	6.05
527.299	6.06
527.497	6.1
527.696	6.11
527.894	6.13
528.092	6.23
528.291	6.27
528.489	6.33
528.688	6.37
528.886	6.43
529.084	6.51
529.283	6.51
529.481	6.56
529.679	6.64
529.877	6.69
530.076	6.68
530.274	6.69
530.472	6.72
530.67	6.71
530.869	6.72
531.067	6.68
531.265	6.67
531.463	6.68
531.661	6.73
531.859	6.78
532.057	6.8
532.255	6.76
532.454	6.76
532.652	6.82
532.85	6.88
533.048	6.91
533.246	6.91
533.444	6.93
533.642	6.97
533.84	7.09
534.038	7.11
534.236	7.12
534.434	7.19
534.632	7.21
534.83	7.33
535.027	7.37
535.225	7.41
535.423	7.37
535.621	7.38
535.819	7.44
536.017	7.5
536.215	7.55
536.412	7.53
536.61	7.63
536.808	7.66
537.006	7.67
537.203	7.7
537.401	7.68
537.599	7.72
537.797	7.77
537.994	7.85
538.192	7.85
538.39	7.83
538.587	7.76
538.785	7.76
538.983	7.73
539.18	7.69
539.378	7.7
539.575	7.69
539.773	7.7
539.97	7.72
540.168	7.75
540.366	7.74
540.563	7.79
540.761	7.85
540.958	7.87
541.155	7.95
541.353	8.02
541.55	8.07
541.748	8.12
541.945	8.16
542.143	8.27
542.34	8.35
542.537	8.44
542.735	8.49
542.932	8.56
543.129	8.6
543.327	8.64
543.524	8.71
543.721	8.73
543.919	8.75
544.116	8.85
544.313	8.89
544.51	8.99
544.708	9.01
544.905	8.98
545.102	8.95
545.299	8.98
545.496	8.99
545.693	9.04
545.891	9.06
546.088	9.14
546.285	9.14
546.482	9.19
546.679	9.13
546.876	9.19
547.073	9.16
547.27	9.18
547.467	9.3
547.664	9.35
547.861	9.42
548.058	9.49
548.255	9.54
548.452	9.64
548.649	9.66
548.846	9.83
549.043	9.88
549.24	10.01
549.437	9.98
549.633	10.08
549.83	9.96
550.027	10
550.224	10.03
550.421	10.04
550.618	10.16
550.814	10.15
551.011	10.14
551.208	10.19
551.405	10.13
551.601	10.18
551.798	10.26
551.995	10.35
552.191	10.29
552.388	10.45
552.585	10.45
552.781	10.59
552.978	10.67
553.175	10.71
553.371	10.77
553.568	10.81
553.764	10.8
553.961	10.99
554.157	11
554.354	11.06
554.55	11.12
554.747	11.34
554.943	11.42
555.14	11.55
555.336	11.56
555.533	11.61
555.729	11.63
555.926	11.66
556.122	11.75
556.318	11.81
556.515	11.78
556.711	11.99
556.907	11.96
557.104	11.92
557.3	11.9
557.496	11.97
557.693	12.04
557.889	12.18
558.085	12.1
558.281	12.18
558.478	12.16
558.674	12.13
558.87	12.24
559.066	12.35
559.262	12.24
559.459	12.27
559.655	12.34
559.851	12.44
560.047	12.5
560.243	12.49
560.439	12.42
560.635	12.61
560.831	12.62
561.027	12.74
561.223	12.9
561.419	12.99
561.615	13
561.811	13.09
562.007	13.19
562.203	13.31
562.399	13.16
562.595	13.23
562.791	13.29
562.987	13.35
563.183	13.43
563.379	13.45
563.575	13.48
563.771	13.45
563.966	13.47
564.162	13.51
564.358	13.48
564.554	13.58
564.75	13.61
564.945	13.74
565.141	13.73
565.337	13.83
565.533	13.82
565.728	13.82
565.924	13.83
566.12	13.95
566.315	14.05
566.511	14.19
566.707	14.29
566.902	14.34
567.098	14.34
567.293	14.44
567.489	14.52
567.684	14.5
567.88	14.46
568.076	14.55
568.271	14.61
568.467	14.69
568.662	14.7
568.858	14.73
569.053	14.66
569.248	14.63
569.444	14.72
569.639	14.82
569.835	14.72
570.03	14.8
570.225	14.92
570.421	15.06
570.616	15.14
570.812	15.16
571.007	15.25
571.202	15.26
571.397	15.3
571.593	15.37
571.788	15.46
571.983	15.46
572.178	15.4
572.374	15.59
572.569	15.68
572.764	15.76
572.959	15.73
573.154	15.78
573.35	15.83
573.545	15.88
573.74	16.02
573.935	16.03
574.13	16
574.325	16.04
574.52	16.15
574.715	16.28
574.91	16.24
575.105	16.29
575.3	16.27
575.495	16.38
575.69	16.35
575.885	16.36
576.08	16.34
576.275	16.32
576.47	16.49
576.665	16.57
576.86	16.6
577.055	16.66
577.25	16.81
577.444	16.82
577.639	16.8
577.834	16.88
578.029	16.88
578.224	17.15
578.418	17.35
578.613	17.44
578.808	17.48
579.003	17.48
579.197	17.67
579.392	17.73
579.587	17.76
579.781	17.75
579.976	17.92
580.171	17.94
580.365	18.02
580.56	18.12
580.755	18.02
580.949	17.96
581.144	17.98
581.338	17.96
581.533	17.91
581.727	17.75
581.922	17.81
582.116	17.86
582.311	17.84
582.505	17.85
582.7	17.85
582.894	17.85
583.089	17.68
583.283	17.71
583.478	17.8
583.672	17.73
583.866	17.74
584.061	17.87
584.255	17.91
584.449	17.98
584.644	17.96
584.838	17.91
585.032	17.87
585.226	18.16
585.421	18.1
585.615	18.34
585.809	18.29
586.003	18.21
586.198	18.33
586.392	18.37
586.586	18.3
586.78	18.46
586.974	18.43
587.168	18.41
587.363	18.5
587.557	18.55
587.751	18.4
587.945	18.49
588.139	18.53
588.333	18.55
588.527	18.63
588.721	18.71
588.915	18.78
589.109	18.81
589.303	18.87
589.497	18.89
589.691	19.01
589.885	19.03
590.079	19
590.273	19.1
590.466	19.19
590.66	19.11
590.854	19.31
591.048	19.3
591.242	19.27
591.436	19.28
591.629	19.3
591.823	19.21
592.017	19.21
592.211	19.22
592.404	19.19
592.598	19.22
592.792	19.24
592.986	19.2
593.179	19.21
593.373	19.21
593.567	19.31
593.76	19.37
593.954	19.33
594.147	19.38
594.341	19.3
594.535	19.21
594.728	19.19
594.922	19.24
595.115	19.23
595.309	19.12
595.502	19.1
595.696	19.16
595.889	19.1
596.083	19.18
596.276	19.07
596.47	19.16
596.663	19.17
596.856	19.34
597.05	19.54
597.243	19.59
597.437	19.65
597.63	19.78
597.823	19.84
598.017	19.93
598.21	19.91
598.403	19.95
598.596	19.84
598.79	20.04
598.983	20.06
599.176	19.98
599.369	19.88
599.563	19.83
599.756	19.74
599.949	19.71
600.142	19.67
600.335	19.63
600.528	19.8
600.722	19.8
600.915	19.75
601.108	19.82
601.301	19.77
601.494	19.79
601.687	19.85
601.88	19.86
602.073	19.85
602.266	19.88
602.459	19.94
602.652	20.01
602.845	20.05
603.038	19.9
603.231	19.94
603.424	19.92
603.617	19.87
603.809	19.84
604.002	19.89
604.195	19.9
604.388	19.92
604.581	19.97
604.774	20.06
604.966	20
605.159	19.9
605.352	19.97
605.545	20.03
605.737	20.01
605.93	20.1
606.123	20.12
606.316	20.29
606.508	20.2
606.701	20.25
606.894	20.21
607.086	20.11
607.279	20.08
607.471	20.15
607.664	20.17
607.857	20.14
608.049	20.26
608.242	20.32
608.434	20.4
608.627	20.47
608.819	20.42
609.012	20.52
609.204	20.63
609.397	20.77
609.589	20.89
609.782	20.9
609.974	20.85
610.166	20.93
610.359	21.08
610.551	21.02
610.743	21.06
610.936	20.87
611.128	20.87
611.32	20.74
611.513	20.62
611.705	20.58
611.897	20.43
612.09	20.41
612.282	20.45
612.474	20.48
612.666	20.44
612.858	20.26
613.051	20.21
613.243	20.19
613.435	20.41
613.627	20.52
613.819	20.71
614.011	20.8
614.203	20.8
614.395	20.76
614.588	20.72
614.78	20.7
614.972	20.82
615.164	20.87
615.356	20.99
615.548	21.08
615.74	21.07
615.932	21.01
616.124	20.79
616.315	20.76
616.507	20.68
616.699	20.53
616.891	20.53
617.083	20.58
617.275	20.48
617.467	20.49
617.659	20.59
617.85	20.5
618.042	20.5
618.234	20.46
618.426	20.59
618.618	20.65
618.809	20.69
619.001	20.9
619.193	21.13
619.384	21.27
619.576	21.25
619.768	21.49
619.959	21.57
620.151	21.41
620.343	21.49
620.534	21.51
620.726	21.73
620.917	21.55
621.109	21.6
621.301	21.61
621.492	21.42
621.684	21.28
621.875	21.25
622.067	21.19
622.258	20.95
622.45	20.84
622.641	20.98
622.832	20.96
623.024	20.91
623.215	20.88
623.407	20.97
623.598	20.95
623.789	21
623.981	20.95
624.172	21.02
624.363	21.12
624.555	21.2
624.746	21.35
624.937	21.36
625.129	21.31
625.32	21.37
625.511	21.44
625.702	21.24
625.893	21.23
626.085	21.29
626.276	21.24
626.467	21.32
626.658	21.35
626.849	21.25
627.04	21.25
627.231	21.21
627.422	21.19
627.614	21.17
627.805	21.16
627.996	21.09
628.187	21.19
628.378	21.32
628.569	21.34
628.76	21.47
628.951	21.6
629.142	21.55
629.332	21.75
629.523	21.72
629.714	21.82
629.905	21.93
630.096	22.16
630.287	22.22
630.478	22.32
630.669	22.49
630.859	22.33
631.05	22.3
631.241	22.21
631.432	22.12
631.623	22.22
631.813	22.07
632.004	22.12
632.195	22.09
632.385	22.05
632.576	21.88
632.767	21.69
632.957	21.68
633.148	21.49
633.339	21.59
633.529	21.56
633.72	21.42
633.91	21.53
634.101	21.54
634.292	21.63
634.482	21.71
634.673	21.74
634.863	21.67
635.054	21.74
635.244	21.97
635.435	22
635.625	22.09
635.815	22.19
636.006	22.31
636.196	22.49
636.387	22.74
636.577	22.8
636.767	22.82
636.958	22.8
637.148	22.85
637.338	22.89
637.529	23.01
637.719	22.96
637.909	22.82
638.099	22.94
638.29	22.73
638.48	22.62
638.67	22.77
638.86	22.46
639.05	22.25
639.241	22.2
639.431	22.29
639.621	22.11
639.811	22.2
640.001	22.09
640.191	22.12
640.381	22.1
640.571	22.02
640.761	22.04
640.951	22.03
641.141	21.82
641.331	21.69
641.521	21.76
641.711	21.62
641.901	21.66
642.091	21.79
642.281	21.84
642.471	21.82
642.661	21.63
642.851	21.59
643.041	21.76
643.231	21.91
643.42	21.94
643.61	22.05
643.8	22.16
643.99	22.12
644.18	22.33
644.369	22.19
644.559	22.06
644.749	21.94
644.939	21.92
645.128	22
645.318	22.24
645.508	22.19
645.697	22.07
645.887	22.02
646.076	22.03
646.266	22.22
646.456	22.34
646.645	22.45
646.835	22.33
647.024	22.42
647.214	22.47
647.403	22.56
647.593	22.72
647.782	22.59
647.972	22.7
648.161	22.87
648.351	22.98
648.54	23
648.73	22.98
648.919	23.06
649.108	22.78
649.298	23.02
649.487	22.96
649.677	23
649.866	22.87
650.055	22.83
650.244	22.9
650.434	22.64
650.623	22.58
650.812	22.46
651.002	22.34
651.191	22.11
651.38	22.09
651.569	22.31
651.758	22.28
651.947	22.33
652.137	22.34
652.326	22.42
652.515	22.4
652.704	22.49
652.893	22.63
653.082	22.63
653.271	22.97
653.46	23
653.649	23.24
653.838	23.28
654.027	23.1
654.216	23.04
654.405	23.21
654.594	23.29
654.783	23.39
654.972	23.54
655.161	23.43
655.35	23.29
655.539	23.43
655.728	23.24
655.916	23.31
656.105	23.1
656.294	22.91
656.483	22.91
656.672	23.07
656.86	23.09
657.049	22.87
657.238	22.91
657.427	22.92
657.615	22.9
657.804	22.93
657.993	22.7
658.181	22.77
658.37	22.73
658.559	22.95
658.747	22.91
658.936	22.7
659.125	22.64
659.313	22.58
659.502	22.7
659.69	22.5
659.879	22.49
660.067	22.61
660.256	22.61
660.444	22.76
660.633	22.65
660.821	22.73
661.01	22.5
661.198	22.6
661.387	22.99
661.575	23.01
661.763	22.98
661.952	23.02
662.14	23.25
662.328	23.12
662.517	23.06
662.705	23.16
662.893	23.23
663.082	23.13
663.27	23.11
663.458	23.13
663.646	23.38
663.834	23.39
664.023	23.66
664.211	23.71
664.399	23.82
664.587	23.77
664.775	23.88
664.963	23.99
665.152	23.82
665.34	23.74
665.528	23.9
665.716	23.97
665.904	24.08
666.092	23.78
666.28	23.97
666.468	23.7
666.656	23.52
666.844	23.4
667.032	23.44
667.22	23.25
667.408	23.13
667.596	23.33
667.784	23.27
667.971	23.39
668.159	23.38
668.347	23.43
668.535	23.64
668.723	23.28
668.911	23.52
669.098	23.8
669.286	23.76
669.474	23.75
669.662	24
669.849	24.19
670.037	24.19
670.225	24.22
670.413	23.94
670.6	24.01
670.788	24.05
670.976	24.07
671.163	24.37
671.351	23.97
671.538	23.94
671.726	23.96
671.913	23.8
672.101	23.75
672.289	23.77
672.476	23.63
672.664	23.7
672.851	23.88
673.039	23.78
673.226	23.66
673.413	23.61
673.601	23.37
673.788	23.82
673.976	23.62
674.163	23.77
674.35	24
674.538	23.79
674.725	23.5
674.912	23.66
675.1	23.68
675.287	23.72
675.474	23.73
675.662	23.74
675.849	23.78
676.036	23.97
676.223	23.55
676.411	23.35
676.598	23.56
676.785	23.26
676.972	23.43
677.159	23.45
677.346	23.37
677.533	23.42
677.721	23.32
677.908	23.29
678.095	23.39
678.282	23.44
678.469	23.44
678.656	23.55
678.843	23.83
679.03	23.72
679.217	23.82
679.404	23.63
679.591	23.96
679.778	24.07
679.964	23.93
680.151	24.08
680.338	24.06
680.525	24.12
680.712	23.94
680.899	23.75
681.086	23.71
681.272	23.73
681.459	23.68
681.646	23.77
681.833	23.99
682.02	23.84
682.206	23.82
682.393	23.91
682.58	23.82
682.766	23.78
682.953	23.65
683.14	23.79
683.326	24.09
683.513	24.35
683.7	24.44
683.886	24.57
684.073	24.64
684.259	24.53
684.446	24.66
684.632	24.6
684.819	24.8
685.005	24.99
685.192	25.14
685.378	25.02
685.565	25.04
685.751	24.98
685.938	25.02
686.124	24.84
686.31	24.74
686.497	24.65
686.683	24.83
686.87	24.48
687.056	24.61
687.242	24.44
687.429	24.13
687.615	24.3
687.801	24.32
687.987	24.22
688.174	24.34
688.36	24.01
688.546	24.12
688.732	24.06
688.918	24.06
689.105	23.82
689.291	23.97
689.477	23.83
689.663	24.07
689.849	24.28
690.035	24.24
690.221	24.54
690.407	24.68
690.593	24.59
690.779	24.7
690.965	24.56
691.151	24.45
691.337	24.63
691.523	24.66
691.709	24.78
691.895	24.83
692.081	24.71
692.267	24.54
692.453	24.32
692.639	24.3
692.825	24.44
693.011	24.46
693.196	24.5
693.382	24.59
693.568	24.54
693.754	24.35
693.94	24.56
694.125	24.48
694.311	24.46
694.497	24.05
694.682	23.96
694.868	23.85
695.054	23.76
695.239	23.6
695.425	23.8
695.611	23.74
695.796	23.9
695.982	24.27
696.168	24.39
696.353	24.39
696.539	24.35
696.724	24.08
696.91	24.76
697.095	24.83
697.281	24.93
697.466	24.76
697.652	24.9
697.837	24.75
698.023	24.75
698.208	24.47
698.393	24.28
698.579	24.17
698.764	24.19
698.949	24.33
699.135	24.51
699.32	24.02
699.505	24.13
699.691	24.18
699.876	24.32
700.061	24
700.246	24.03
700.432	23.92
700.617	24.14
700.802	24.34
700.987	24.46
701.172	24.37
701.358	24.29
701.543	24.24
701.728	24.51
701.913	24.31
702.098	24.18
702.283	24.17
702.468	24.21
702.653	24.06
702.838	24.72
703.023	24.58
703.208	24.39
703.393	24.47
703.578	24.48
703.763	24.55
703.948	24.82
704.133	24.92
704.318	25.19
704.503	25.23
704.688	25.29
704.873	25.43
705.057	25.8
705.242	25.29
705.427	25.38
705.612	25.75
705.797	25.83
705.981	25.84
706.166	25.37
706.351	25.52
706.536	25.34
706.72	25.31
706.905	25.11
707.09	24.95
707.274	25.17
707.459	24.97
707.644	24.98
707.828	25.25
708.013	25.1
708.197	25.09
708.382	24.97
708.567	25.19
708.751	25.15
708.936	25.28
709.12	25.09
709.305	25.55
709.489	25.78
709.673	25.71
709.858	25.55
710.042	25.68
710.227	25.49
710.411	25.2
710.596	25.09
710.78	25.58
710.964	25.72
711.149	25.64
711.333	25.66
711.517	25.9
711.702	25.99
711.886	25.88
712.07	25.72
712.254	25.73
712.438	25.59
712.623	25.46
712.807	25.63
712.991	25.6
713.175	25.32
713.359	25.67
713.544	25.21
713.728	24.99
713.912	24.87
714.096	24.76
714.28	25.02
714.464	25.07
714.648	25.04
714.832	25.08
715.016	25.09
715.2	24.87
715.384	24.97
715.568	24.81
715.752	24.36
715.936	24.5
716.12	24.87
716.304	24.93
716.488	24.83
716.671	24.71
716.855	24.85
717.039	25.28
717.223	24.99
717.407	25.17
717.59	25.32
717.774	25.33
717.958	25.57
718.142	25.65
718.325	25.62
718.509	24.97
718.693	25.41
718.877	25.1
719.06	25.01
719.244	24.72
719.428	24.69
719.611	25.3
719.795	25.45
719.978	25.64
720.162	25.61
720.345	25.73
720.529	25.73
720.713	26.29
720.896	26.59
721.08	25.83
721.263	25.76
721.446	25.67
721.63	25.84
721.813	25.28
721.997	24.71
722.18	25.03
722.364	25.23
722.547	25.21
722.73	25.04
722.914	25.3
723.097	24.9
723.28	25.13
723.464	25.01
723.647	25.47
723.83	25.36
724.013	25.05
724.197	24.91
724.38	25.68
724.563	25.27
724.746	25.21
724.929	25.27
725.112	25.05
725.296	24.83
725.479	25.1
725.662	24.89
725.845	25.52
726.028	25.26
726.211	25.38
726.394	25.7
726.577	25.97
726.76	25.61
726.943	25.36
727.126	25.18
727.309	24.97
727.492	25.11
727.675	25.26
727.858	25.27
728.041	25.12
728.224	24.75
728.407	24.86
728.589	24.55
728.772	24.63
728.955	24.96
729.138	24.83
729.321	24.82
729.503	24.67
729.686	24.58
729.869	24.2
730.052	24.12
730.234	23.74
730.417	23.8
730.6	23.63
730.782	23.66
730.965	23.66
731.148	23.64
731.33	23.69
731.513	23.27
731.695	23.53
731.878	23.72
732.061	23.78
732.243	24.17
732.426	24.15
732.608	24.37
732.791	24.09
732.973	24.45
733.156	24.24
733.338	24.5
733.52	24.42
733.703	24.06
733.885	24.76
734.068	24.59
734.25	24.15
734.432	24.27
734.615	24.3
734.797	24.46
734.979	24.66
735.162	25.35
735.344	25.29
735.526	25.33
735.708	25.62
735.891	26.09
736.073	25.61
736.255	25.23
736.437	25.33
736.619	25.7
736.802	25.4
736.984	25.89
737.166	25.63
737.348	25.35
737.53	25.1
737.712	25.05
737.894	25.42
738.076	25.26
738.258	24.73
738.44	25.25
738.622	25.62
738.804	25.38
738.986	25.05
739.168	25.38
739.35	24.69
739.532	24.42
739.714	24.38
739.896	24.51
740.078	24.12
740.259	23.88
740.441	23.72
740.623	24.09
740.805	24.27
740.987	24.34
741.168	24.76
741.35	24.95
741.532	25.02
741.714	24.52
741.895	25.26
742.077	25.97
742.259	25.73
742.44	26.32
742.622	26.41
742.804	26.25
742.985	25.7
743.167	25.66
743.348	25.05
743.53	24.98
743.711	25.73
743.893	26.06
744.075	26.43
744.256	25.63
744.438	25.12
744.619	25.28
744.8	25.22
744.982	24.94
745.163	24.68
745.345	24.64
745.526	24.38
745.707	24.26
745.889	24.09
746.07	23.71
746.252	23.15
746.433	23.33
746.614	23.76
746.795	23.65
746.977	23.25
747.158	23.37
747.339	23.47
747.52	24.23
747.702	24.79
747.883	25.03
748.064	25.26
748.245	25.37
748.426	25.15
748.607	25.33
748.788	25.47
748.97	25.44
749.151	25.97
749.332	26.25
749.513	26.07
749.694	26.19
749.875	25.85
750.056	25.75
750.237	25.94
750.418	26.56
750.599	26.37
750.78	26.66
750.96	26.63
751.141	27.04
751.322	27.58
751.503	27.49
751.684	27.84
751.865	27.32
752.046	26.6
752.226	26.93
752.407	26.65
752.588	26.27
752.769	26.5
752.949	26.98
753.13	27.25
753.311	26.69
753.492	26.22
753.672	25.74
753.853	25.47
754.034	25.28
754.214	25.97
754.395	27.43
754.575	27.21
754.756	27.38
754.937	28.01
755.117	27.7
755.298	27.27
755.478	26.69
755.659	27.31
755.839	27.34
756.02	27.26
756.2	27.63
756.381	27.6
756.561	27.45
756.741	26.82
756.922	26.56
757.102	26.17
757.283	26.08
757.463	26.19
757.643	26.69
757.823	26.08
758.004	26.35
758.184	26.12
758.364	26.2
758.545	26.47
758.725	26.8
758.905	26.93
759.085	26.72
759.265	27.18
759.446	27.39
759.626	26.73
759.806	26.42
759.986	25.94
760.166	25.96
760.346	25.51
760.526	25.37
760.706	24.92
760.886	24.21
761.066	23.69
761.246	23.44
761.426	23.5
761.606	23.46
761.786	23.84
761.966	23.83
762.146	23.78
762.326	23.61
762.506	24.17
762.686	24.25
762.866	24.6
763.046	25.13
763.225	24.89
763.405	24.97
763.585	25.25
763.765	25.6
763.945	25.71
764.124	25.51
764.304	25.81
764.484	25.83
764.664	26.19
764.843	26.3
765.023	26.5
765.203	26.49
765.382	26.65
765.562	26.92
765.741	27.11
765.921	26.81
766.101	26.73
766.28	26.52
766.46	26.49
766.639	26.25
766.819	26.4
766.998	26.59
767.178	26.36
767.357	26.02
767.537	26.19
767.716	25.97
767.896	26.18
768.075	26.41
768.254	26.36
768.434	26.28
768.613	26.08
768.792	26.53
768.972	26.42
769.151	25.83
769.33	25.22
769.51	25.17
769.689	25.07
769.868	24.6
770.047	24.21
770.226	23.4
770.406	23.07
770.585	22.98
770.764	22.67
770.943	22.69
771.122	22.01
771.301	22.22
771.48	22.56
771.66	22.52
771.839	22.33
772.018	22.86
772.197	23.64
772.376	24.58
772.555	25.41
772.734	25.11
772.913	25.49
773.092	25.87
773.271	26.51
773.449	26.95
773.628	26.48
773.807	26.29
773.986	27.13
774.165	27.83
774.344	28.14
774.523	28.43
774.701	27.59
774.88	27.4
775.059	27.54
775.238	27.04
775.417	26.76
775.595	26.23
775.774	25.56
775.953	25.28
776.131	25.29
776.31	25.1
776.489	24.96
776.667	23.78
776.846	23.44
777.025	23.29
777.203	23.22
777.382	23.21
777.56	23.17
777.739	22.64
777.917	23.16
778.096	22.93
778.274	23.58
778.453	24.37
778.631	24.58
778.81	24.91
778.988	25.5
779.166	24.63
779.345	24.34
779.523	24.11
779.702	24.63
779.88	24.79
780.058	25.94
780.237	25.54
780.415	26.87
780.593	27.77
780.771	27.41
780.95	27.03
781.128	26.69
781.306	26.87
781.484	27.15
781.662	26.99
781.841	27.37
782.019	27.49
782.197	26.89
782.375	26.15
782.553	26.21
782.731	25.85
782.909	25.21
783.087	25.38
783.265	24.89
783.443	24.82
783.621	25.25
783.799	24.38
783.977	24.32
784.155	24.65
784.333	23.49
784.511	24.2
784.689	25.2
784.867	25.63
785.045	26.03
785.223	26.02
785.4	25.64
785.578	26.57
785.756	25.92
785.934	25.51
786.112	26.52
786.289	27.37
786.467	27.09
786.645	27.85
786.823	28.1
787	27.46
787.178	27.31
787.356	26.85
787.533	26.9
787.711	27.13
787.889	26.45
788.066	26.75
788.244	26.69
788.421	26.75
788.599	26.25
788.776	26.45
788.954	26.65
789.131	26.52
789.309	25.64
789.486	25.13
789.664	25.03
789.841	24.75
790.019	25.12
790.196	25.84
790.373	26.59
790.551	26.29
790.728	26.15
790.906	27.54
791.083	27.21
791.26	27.48
791.437	28.24
791.615	28.51
791.792	29.32
791.969	29.32
792.146	29.7
792.324	29.01
792.501	28.33
792.678	27.11
792.855	27.4
793.032	26.35
793.209	25.51
793.387	25.51
793.564	24.62
793.741	23.71
793.918	24.65
794.095	24.14
794.272	24.26
794.449	23.69
794.626	24.15
794.803	24.02
794.98	23.96
795.157	24.34
795.334	25.4
795.511	25.47
795.688	25.47
795.864	25.95
796.041	25.98
796.218	25.43
796.395	25.53
796.572	25.73
796.749	25.03
796.925	24.32
797.102	24.32
797.279	24.35
797.456	23.95
797.632	24.16
797.809	23.28
797.986	23.82
798.162	23.33
798.339	23.85
798.516	24.21
798.692	24.25
798.869	24.21
799.046	25.66
799.222	26.12
799.399	25.96
799.575	26.61
799.752	25.93
799.928	25.85
800.105	26.23
800.281	26.06
800.458	26.8
800.634	27.47
800.811	27.69
800.987	28.23
801.163	28.47
801.34	27.01
801.516	27.57
801.692	27.56
801.869	29.04
802.045	29.96
802.221	29.15
802.398	29.2
802.574	30.19
802.75	29.55
802.926	28.89
803.103	28.55
803.279	27.14
803.455	26.86
803.631	27.94
803.807	28.3
803.983	29.31
804.16	27.99
804.336	28.11
804.512	29.1
804.688	28.91
804.864	27.85
805.04	28.73
805.216	27.92
805.392	28.1
805.568	28.58
805.744	28.13
805.92	28.36
806.096	27.39
806.272	27.25
806.448	27.32
806.623	26.93
806.799	26.28
806.975	26.76
807.151	25.97
807.327	25.12
807.503	26.24
807.678	26.55
807.854	27.29
808.03	27.35
808.206	27.08
808.381	27.49
808.557	27.05
808.733	26.32
808.908	25.29
809.084	25.06
809.26	24.8
809.435	25.14
809.611	25.31
809.787	24.22
809.962	24.04
810.138	23.55
810.313	23.81
810.489	23.83
810.664	24.5
810.84	24.34
811.015	24.95
811.191	25.71
811.366	27.08
811.542	27.25
811.717	27.65
811.892	27.38
812.068	27.77
812.243	28.37
812.419	27.28
812.594	27.29
812.769	27.23
812.944	26.83
813.12	27.33
813.295	26.03
813.47	26.97
813.645	26.88
813.821	25.55
813.996	25.13
814.171	26.1
814.346	26.47
814.521	26.15
814.697	27.53
814.872	27.45
815.047	27.69
815.222	28.01
815.397	28.24
815.572	28.67
815.747	28.3
815.922	26.18
816.097	27.75
816.272	26.84
816.447	25.93
816.622	25.04
816.797	24.85
816.972	24.88
817.147	25.39
817.322	26.06
817.496	25.76
817.671	25.46
817.846	24.84
818.021	23.49
818.196	24.79
818.371	24.27
818.545	25.78
818.72	25.98
818.895	26.65
819.069	25.84
819.244	25.48
819.419	25.35
819.594	24.82
819.768	24.86
819.943	24.59
820.117	25.68
820.292	26.12
820.467	26.14
820.641	26.53
820.816	26.4
820.99	26.42
821.165	26.52
821.339	26.63
821.514	26.43
821.688	26.34
821.863	26.54
822.037	26.3
822.212	26.32
822.386	26.42
822.56	26.56
822.735	26.5
822.909	26.38
823.084	26.37
823.258	26.45
823.432	26.26
823.606	26.56
823.781	26.64
823.955	26.8
824.129	26.63
824.303	27
824.478	27.58
824.652	27.33
824.826	27.09
825	27.27
825.174	27.06
825.348	27.34
825.523	26.92
825.697	27.19
825.871	26.83
826.045	26.64
826.219	26.67
826.393	26.64
826.567	26.88
826.741	26.34
826.915	26.32
827.089	26.87
827.263	26.69
827.437	27.23
827.611	26.81
827.784	27.56
827.958	27.48
828.132	27.73
828.306	28.25
828.48	28.31
828.654	27.73
828.827	27.09
829.001	27.22
829.175	28.14
829.349	28.25
829.522	28.96
829.696	29.01
829.87	29.51
830.044	29.85
830.217	29.67
830.391	29.13
830.565	28.81
830.738	28.23
830.912	29.02
831.085	29.71
831.259	29.87
831.432	28.11
831.606	27.16
831.779	26.61
831.953	26.71
832.126	27.04
832.3	25.77
832.473	26.39
832.647	25.94
832.82	26.61
832.994	27.37
833.167	27.59
833.34	27.27
833.514	27.64
833.687	28.06
833.86	28.46
834.034	28.16
834.207	27.96
834.38	27.96
834.553	28.34
834.727	27.86
834.9	28.52
835.073	28.13
835.246	28.12
835.419	28.28
835.593	28.59
835.766	28.14
835.939	28.66
836.112	28.61
836.285	29.47
836.458	29.71
836.631	29.02
836.804	28.82
836.977	29.04
837.15	29.1
837.323	28.37
837.496	27.01
837.669	27.04
837.842	27.18
838.015	26.86
838.188	26.01
838.361	25.49
838.533	24.98
838.706	24.74
838.879	26.17
839.052	26.54
839.225	27.65
839.398	28.52
839.57	31.01
839.743	31.9
839.916	32.97
840.088	33.1
840.261	33.6
840.434	33.28
840.607	33.61
840.779	33.43
840.952	32.27
841.124	32.18
841.297	32.65
841.47	30.98
841.642	30.27
841.815	30.45
841.987	29.31
842.16	27.77
842.332	26.38
842.505	26.12
842.677	26.52
842.85	26.66
843.022	28.95
843.194	30.32
843.367	29.78
843.539	29.9
843.712	30.18
843.884	28.79
844.056	27.9
844.229	29.93
844.401	31.53
844.573	32.27
844.745	32.88
844.918	32.35
845.09	34.19
845.262	31.29
845.434	30.08
845.606	29.17
845.779	30.03
845.951	31.26
846.123	33.27
846.295	33.79
846.467	35.36
846.639	34.7
846.811	34.21
846.983	33.91
847.155	34.93
847.327	32.59
847.499	35.04
847.671	35.96
847.843	38.36
848.015	36.91
848.187	35.13
848.359	35.09
848.531	33.68
848.703	34.61
848.875	30.48
849.047	31.4
849.218	29.38
849.39	31.04
849.562	35.1
849.734	35.65
849.905	35.31
850.077	32.59
850.249	32.69
850.421	35.06
850.592	36.88
850.764	40.17
850.936	32.68
851.107	35.98
851.279	34.68
851.451	35.45
851.622	34.32
851.794	31.53
851.965	29.45
852.137	32.18
852.308	34.51
852.48	35.86
852.651	34.24
852.823	32.77
852.994	27.36
853.166	34.17
853.337	33.93
853.509	35.59
853.68	34.6
853.851	35.51
854.023	35.75
854.194	36.65
854.365	37.25
854.537	35.37
854.708	34.67
854.879	37.19
855.05	37.57
855.222	39.47
855.393	40.21
855.564	41.07
855.735	40.19
855.906	42.16
856.078	40.12
856.249	40.41
856.42	41.73
856.591	38.7
856.762	35.91
856.933	36.48
857.104	36.84
857.275	36.21
857.446	36.66
857.617	31.25
857.788	32.04
857.959	35.55
858.13	32.12
858.301	32.85
858.472	33.57
858.643	28.15
858.814	27.94
858.985	30.55
859.155	29.05
859.326	28.71
859.497	25.26
859.668	26.08
859.839	26.35
860.009	24.86
860.18	20.12
860.351	22.98
860.522	20.38
860.692	14.95
860.863	21.52
861.034	23.49
861.204	24.79
861.375	21.9
861.546	20.51
861.716	25.37
861.887	28.9
862.057	25.76
862.228	29.45
862.398	28.99
862.569	28.35
862.739	26.66
862.91	29.99
863.08	28.07
863.251	28.38
863.421	28.67
863.592	32.65
863.762	30.98
863.932	30.7
864.103	26.95
864.273	32.39
864.443	25.7
864.614	25.65
864.784	28.08
864.954	30.03
865.125	29.54
865.295	30.62
865.465	32.9
865.635	30.34
865.805	30.48
865.976	32.75
866.146	31.52
866.316	30.58
866.486	33.3
866.656	31.8
866.826	37.45
866.996	38.2
867.166	41.52
867.336	42.87
867.506	38.77
867.676	40.6
867.846	40.1
868.016	39.83
868.186	38.9
868.356	38.8
868.526	39.98
868.696	35.06
868.866	39.38
869.036	34.98
869.206	32.34
869.376	31.34
869.545	27.68
869.715	28.14
869.885	23.19
870.055	25.92
870.224	27.54
870.394	30.32
870.564	29.86
870.734	28.55
870.903	30.45
871.073	32.64
871.243	33.78
871.412	36.63
871.582	37.01
871.751	40.61
871.921	42.55
872.091	42.94
872.26	39.93
872.43	36.76
872.599	37.05
872.769	39.18
872.938	38.93
873.108	37.75
873.277	35.8
873.446	37.27
873.616	33.02
873.785	29.68
873.955	32.26
874.124	31.02
874.293	28.19
874.463	30.87
874.632	34.81
874.801	30.66
874.971	28.24
875.14	29.87
875.309	31.36
875.478	30.97
875.647	27.94
875.817	28.96
875.986	30.63
876.155	25.78
876.324	24.67
876.493	24.39
876.662	24.57
876.831	24.43
877	29.29
877.17	31.1
877.339	30.73
877.508	31.52
877.677	30.34
877.846	30.86
878.015	32.92
878.184	33.62
878.352	35.41
878.521	38.79
878.69	40.11
878.859	40.09
879.028	36.54
879.197	33.82
879.366	34.81
879.534	33.25
879.703	29.75
879.872	30.92
880.041	29.46
880.21	28.17
880.378	28.78
880.547	29.32
880.716	28.64
880.884	29.14
881.053	28.52
881.222	28.29
881.39	28.89
881.559	27.83
881.727	27.41
881.896	28.31
882.065	28.71
882.233	29.83
882.402	30.42
882.57	30.16
882.739	29.76
882.907	30.16
883.076	29.77
883.244	30.35
883.412	31.12
883.581	30.72
883.749	30.76
883.918	32.07
884.086	31.28
884.254	31.23
884.423	30.76
884.591	29.03
884.759	28.57
884.927	28.59
885.096	27.84
885.264	28.86
885.432	28.49
885.6	27.12
885.769	27.57
885.937	27.28
886.105	25.71
886.273	27.21
886.441	26
886.609	24.36
886.777	25.62
886.945	27.65
887.113	28.53
887.281	28.73
887.449	28.54
887.617	28.38
887.785	28.2
887.953	29.16
888.121	27.66
888.289	30.59
888.457	32.15
888.625	31.52
888.793	32.23
888.961	31.85
889.129	29.06
889.296	27.98
889.464	26.81
889.632	22.81
889.8	20.84
889.967	24.04
890.135	18.61
