Data from 2938444_Reflection_3.txt Node
Date: Fri Jun 19 18:14:25 EDT 2015
User: robert
Spectrometer: USB4E03002
Autoset integration time: false
Trigger mode: 4
Integration Time (sec): 1.000000E-1
Scans to average: 10
Electric dark correction enabled: true
Nonlinearity correction enabled: false
Boxcar width: 5
Stray light correction enabled: false
XAxis mode: Wavelengths
Stop averaging: false
Number of Pixels in Spectrum: 3648
>>>>>Begin Spectral Data<<<<<
177.575	-413
177.794	-361.43
178.014	-797.67
178.233	2827.43
178.452	1306.42
178.672	181.86
178.891	-327.54
179.11	499.6
179.33	718.77
179.549	-286.89
179.768	599.48
179.987	297.37
180.207	-1073.71
180.426	988.1
180.645	312.07
180.864	100.25
181.084	38.53
181.303	-40.09
181.522	-49.07
181.741	-43.21
181.96	-104.99
182.179	-73.71
182.398	-215.68
182.618	-40.43
182.837	-12.54
183.056	-81.6
183.275	1830
183.494	167.34
183.713	172.65
183.932	-348.71
184.151	-7.13
184.37	-196.39
184.589	-17.44
184.808	-32.17
185.027	-8.65
185.246	13.09
185.465	-84.1
185.684	-197.65
185.903	-427.77
186.122	-54.72
186.341	-101.79
186.56	-358.61
186.779	-105.26
186.998	-90.87
187.216	251.2
187.435	81.63
187.654	75.97
187.873	-344.64
188.092	1445.1
188.311	550.72
188.53	-232.35
188.748	-126.3
188.967	-40.46
189.186	-93.86
189.405	-130.95
189.623	-1612.62
189.842	489.6
190.061	1140.56
190.28	-30.74
190.498	-23.91
190.717	-33.33
190.936	-164.96
191.154	-7.5
191.373	-303.17
191.592	59.4
191.81	67.17
192.029	67.1
192.248	53.7
192.466	67.98
192.685	34.35
192.904	-11.38
193.122	12.49
193.341	6.16
193.559	7.32
193.778	50.01
193.996	-25.25
194.215	16.1
194.433	17.93
194.652	-5.21
194.87	0.47
195.089	46.52
195.307	66.17
195.526	47.03
195.744	55.79
195.963	34.45
196.181	-2.05
196.399	9.67
196.618	-514.32
196.836	787.92
197.055	224.44
197.273	410.67
197.491	134.76
197.71	129.77
197.928	82.08
198.146	79.2
198.365	0.88
198.583	40.67
198.801	72.33
199.019	-30.55
199.238	-160.78
199.456	804.44
199.674	322.2
199.892	-116.14
200.111	276.31
200.329	-1201.91
200.547	467.12
200.765	1018.07
200.983	-436.64
201.202	-99.6
201.42	-187.55
201.638	-167.17
201.856	-52.41
202.074	-64.29
202.292	-206.57
202.51	-64.58
202.728	-291.94
202.946	-149.48
203.165	-265.4
203.383	-295.13
203.601	-417.57
203.819	-532.01
204.037	-213.58
204.255	-681.79
204.473	1649.8
204.691	1001.68
204.909	-2899.55
205.127	-328.48
205.345	-290.92
205.562	-140.53
205.78	-154.39
205.998	-84.91
206.216	-52.8
206.434	-170.78
206.652	40.81
206.87	17.57
207.088	55.53
207.306	47.12
207.523	113.19
207.741	179.9
207.959	637.11
208.177	201.77
208.395	801.13
208.612	489.85
208.83	286.17
209.048	211.53
209.266	369.89
209.483	150.91
209.701	196.61
209.919	59.27
210.136	30.65
210.354	0.46
210.572	11.97
210.79	30.02
211.007	-23.2
211.225	-0.11
211.442	-5.65
211.66	12.66
211.878	-43.61
212.095	-165.74
212.313	-148.46
212.53	-148.63
212.748	-91.15
212.966	-64.41
213.183	-81.61
213.401	-42.66
213.618	-47.63
213.836	-46.63
214.053	-20.57
214.271	-2.22
214.488	63.11
214.705	66.65
214.923	57.1
215.14	52.27
215.358	48.72
215.575	49.2
215.793	42.52
216.01	33.36
216.227	27.26
216.445	-6.06
216.662	-34.91
216.879	-104.11
217.097	-60.51
217.314	-83.4
217.531	-82.69
217.749	-431.16
217.966	-408.85
218.183	-590.14
218.4	-276.57
218.618	-209.44
218.835	-313.86
219.052	-320.84
219.269	-112.01
219.487	-80.91
219.704	-54.77
219.921	-13.85
220.138	48.33
220.355	58
220.572	68.54
220.79	74.53
221.007	59.68
221.224	60.67
221.441	53.41
221.658	58.64
221.875	53.61
222.092	43.15
222.309	46.52
222.526	36.89
222.743	41.28
222.96	35.96
223.177	39.78
223.394	40.33
223.611	45.13
223.828	44.91
224.045	39.81
224.262	42.79
224.479	42.35
224.696	37.97
224.913	29.07
225.13	21.87
225.347	24.39
225.564	22.16
225.781	21.47
225.997	18.59
226.214	15.65
226.431	16.87
226.648	17.67
226.865	17.13
227.082	14.85
227.298	16.18
227.515	15.25
227.732	14.49
227.949	15.82
228.165	15.89
228.382	14.69
228.599	14.43
228.816	12.95
229.032	11.78
229.249	10.1
229.466	10.79
229.682	9.85
229.899	11.98
230.116	11.49
230.332	9.64
230.549	10.56
230.765	13.72
230.982	15.17
231.199	15.07
231.415	17.99
231.632	24.4
231.848	24.62
232.065	25.94
232.281	27.1
232.498	25.48
232.714	26.73
232.931	26.38
233.147	25.36
233.364	25.84
233.58	26.22
233.797	24.81
234.013	22.95
234.23	19.64
234.446	18.53
234.662	17.7
234.879	18.85
235.095	18.12
235.312	17.98
235.528	15.82
235.744	15.85
235.961	15.03
236.177	15.2
236.393	11.96
236.61	15.72
236.826	15.2
237.042	13.4
237.258	11.65
237.475	8.53
237.691	10.11
237.907	12.52
238.123	11.26
238.339	11.13
238.556	12.98
238.772	15.78
238.988	14.16
239.204	13.06
239.42	14.34
239.636	15.53
239.853	15.16
240.069	13.41
240.285	12.53
240.501	13.12
240.717	13.6
240.933	11.04
241.149	10.98
241.365	10.73
241.581	12.34
241.797	11.09
242.013	10.63
242.229	12.49
242.445	12.29
242.661	12.93
242.877	12.78
243.093	12.27
243.309	13.12
243.525	11.85
243.741	11.87
243.957	11.4
244.173	13.26
244.388	13.23
244.604	12.7
244.82	13.3
245.036	13.33
245.252	12.78
245.468	12.7
245.683	12.93
245.899	12.68
246.115	13.48
246.331	13.51
246.547	12.53
246.762	12.51
246.978	11.67
247.194	10.96
247.409	10.27
247.625	10.35
247.841	9.79
248.057	9.79
248.272	10.12
248.488	9.36
248.703	10.1
248.919	10.57
249.135	9.51
249.35	10.14
249.566	11.35
249.782	11.05
249.997	11.45
250.213	12.07
250.428	11.59
250.644	12.18
250.859	11.72
251.075	9.94
251.29	9.59
251.506	10.35
251.721	10.95
251.937	11.06
252.152	12.48
252.368	11.42
252.583	12.23
252.798	12.72
253.014	11.76
253.229	10.16
253.445	10.92
253.66	9.89
253.875	8.66
254.091	6.83
254.306	5.6
254.521	4.13
254.737	5.33
254.952	4.1
255.167	4.94
255.383	4.87
255.598	8.57
255.813	8.06
256.028	9.41
256.244	9.26
256.459	10.2
256.674	10.5
256.889	10.74
257.104	10.62
257.32	10.64
257.535	10.22
257.75	9.74
257.965	8.8
258.18	9.01
258.395	8.58
258.61	8.84
258.826	8.46
259.041	7.81
259.256	7.55
259.471	6.99
259.686	6.54
259.901	6.32
260.116	6.82
260.331	6.98
260.546	7.08
260.761	7.01
260.976	7.13
261.191	6.84
261.406	7.48
261.621	8.27
261.836	9.69
262.05	9.64
262.265	9.57
262.48	8.66
262.695	8.77
262.91	9.01
263.125	10.27
263.34	10.47
263.555	11.34
263.769	11.4
263.984	10.77
264.199	9.77
264.414	9.37
264.629	9.32
264.843	9.48
265.058	9.29
265.273	8.46
265.488	7.73
265.702	6.74
265.917	6.5
266.132	6.82
266.346	6.14
266.561	6.33
266.776	7.81
266.99	7.96
267.205	8.24
267.42	8.74
267.634	9.5
267.849	9.41
268.063	9.38
268.278	10.04
268.492	9.55
268.707	10.01
268.922	10.47
269.136	9.45
269.351	9.52
269.565	8.98
269.78	7.57
269.994	7.61
270.209	8.5
270.423	9.07
270.637	8.72
270.852	8.78
271.066	8.87
271.281	8.62
271.495	8.44
271.709	7.71
271.924	8.08
272.138	8.43
272.353	8.3
272.567	7.32
272.781	6.81
272.996	6.53
273.21	6.81
273.424	7.17
273.638	7.22
273.853	7.41
274.067	8.06
274.281	7.19
274.495	8.01
274.71	7.47
274.924	7.48
275.138	8.15
275.352	7.87
275.566	7.37
275.781	6.86
275.995	7.37
276.209	8.37
276.423	8.29
276.637	9.13
276.851	8.66
277.065	8.81
277.279	8.58
277.493	8.9
277.707	9.86
277.921	10.91
278.135	10.8
278.349	10.05
278.563	9.64
278.777	9.45
278.991	9.13
279.205	9.64
279.419	8.64
279.633	8.89
279.847	8.27
280.061	8.4
280.275	8.16
280.489	8.33
280.703	8.2
280.917	8.03
281.131	8.18
281.344	8.53
281.558	8.52
281.772	9.43
281.986	9.44
282.2	9.27
282.414	8.54
282.627	8.42
282.841	9.24
283.055	9.61
283.269	9.48
283.482	9.6
283.696	9.81
283.91	9.58
284.123	9.77
284.337	10.05
284.551	9.79
284.764	10.11
284.978	9.49
285.192	8.91
285.405	8.75
285.619	8.44
285.833	8.66
286.046	8.4
286.26	8.11
286.473	8.33
286.687	7.95
286.9	9.11
287.114	8.99
287.327	9.15
287.541	9.27
287.754	9.53
287.968	9.81
288.181	9.81
288.395	10.08
288.608	10.11
288.822	9.68
289.035	9.83
289.248	9.41
289.462	9.32
289.675	9.91
289.889	10.35
290.102	10.36
290.315	11.31
290.529	11.17
290.742	11.21
290.955	11.29
291.169	11.3
291.382	11.16
291.595	11.19
291.808	11.58
292.022	10.74
292.235	9.27
292.448	9.46
292.661	8.82
292.875	8.82
293.088	9.19
293.301	9.62
293.514	9.38
293.727	9.83
293.94	9.61
294.153	9.75
294.367	10.4
294.58	11.16
294.793	11.26
295.006	11.23
295.219	11.2
295.432	10.74
295.645	10.76
295.858	10.45
296.071	10.14
296.284	10.39
296.497	10.56
296.71	10.55
296.923	10.82
297.136	10.56
297.349	10.63
297.562	10.58
297.775	11.08
297.988	10.98
298.201	12.27
298.414	12.42
298.626	12.06
298.839	11.51
299.052	11.75
299.265	11.66
299.478	11.28
299.691	11.39
299.903	11.78
300.116	11
300.329	11.4
300.542	10.95
300.755	10.42
300.967	11.27
301.18	12.07
301.393	11.51
301.605	11.26
301.818	11.57
302.031	11.14
302.243	11.08
302.456	11.26
302.669	11.44
302.881	12.16
303.094	12.95
303.307	12.25
303.519	11.29
303.732	11.17
303.944	11.32
304.157	11.38
304.37	11.41
304.582	11.51
304.795	11.85
305.007	12.22
305.22	11.61
305.432	11.24
305.645	11.29
305.857	11.46
306.069	12.55
306.282	11.89
306.494	11.89
306.707	12.48
306.919	13.11
307.132	12.62
307.344	12.66
307.556	12.07
307.769	13.06
307.981	13.36
308.193	13.58
308.406	12.47
308.618	13.21
308.83	13.16
309.043	11.99
309.255	11.74
309.467	12.22
309.679	11.12
309.892	11.8
310.104	10.91
310.316	10.9
310.528	10.61
310.74	11.15
310.953	10.93
311.165	11.4
311.377	11.96
311.589	11.7
311.801	11.86
312.013	12.78
312.225	12.52
312.437	13.35
312.649	13.63
312.862	13.13
313.074	12.98
313.286	12.69
313.498	11.91
313.71	12.51
313.922	12.14
314.134	12.52
314.346	11.77
314.558	11.3
314.77	11.15
314.982	11
315.193	12.59
315.405	12.63
315.617	12.9
315.829	12.85
316.041	13.26
316.253	13.98
316.465	13.64
316.677	14.5
316.888	14.54
317.1	14.22
317.312	14.73
317.524	13.13
317.736	13.69
317.947	14.4
318.159	15.27
318.371	14.86
318.583	15.18
318.794	14.76
319.006	14.62
319.218	15.31
319.43	15.09
319.641	13.88
319.853	15.52
320.064	15.19
320.276	14.61
320.488	14.16
320.699	13.62
320.911	13.14
321.123	13.69
321.334	14.49
321.546	13.59
321.757	14.18
321.969	14.88
322.18	13.47
322.392	13.69
322.603	13.47
322.815	13.24
323.026	13.67
323.238	13.21
323.449	13
323.661	11.84
323.872	12.32
324.083	12.84
324.295	12.89
324.506	13.36
324.718	13.51
324.929	14.13
325.14	14.72
325.352	15.37
325.563	15.85
325.774	15.97
325.986	16.15
326.197	15.93
326.408	15.68
326.62	15.82
326.831	16.03
327.042	15.09
327.253	15.11
327.464	14.51
327.676	14.43
327.887	15.08
328.098	15.15
328.309	15.57
328.52	16.56
328.732	16.67
328.943	16.41
329.154	16.98
329.365	18.54
329.576	18.97
329.787	20.01
329.998	19.17
330.209	19.18
330.42	19.65
330.631	19.43
330.842	19.23
331.053	18.37
331.264	18.21
331.475	18.83
331.686	19.05
331.897	18.55
332.108	17.94
332.319	18.16
332.53	17.7
332.741	18.02
332.952	17.47
333.163	17.37
333.374	18.62
333.585	19.3
333.795	19.09
334.006	18.74
334.217	19.29
334.428	19.66
334.639	20.34
334.849	20.83
335.06	19.81
335.271	21.5
335.482	20.99
335.692	20.71
335.903	20.98
336.114	20.67
336.325	20.91
336.535	21.14
336.746	20.99
336.957	20.72
337.167	20.68
337.378	21.91
337.589	21.61
337.799	22.25
338.01	22.03
338.22	21.96
338.431	21.76
338.642	20.88
338.852	20.05
339.063	20.52
339.273	20.17
339.484	20.05
339.694	18.93
339.905	18.71
340.115	19.19
340.326	19.32
340.536	18.99
340.746	19.39
340.957	20.37
341.167	20.38
341.378	19.75
341.588	20.24
341.799	20.54
342.009	21.04
342.219	20.63
342.43	20.37
342.64	20.36
342.85	20.06
343.061	19.85
343.271	19.62
343.481	19.95
343.691	20.43
343.902	20.17
344.112	19.97
344.322	19.83
344.532	20.06
344.743	20.4
344.953	19.73
345.163	19.9
345.373	19.63
345.583	19.84
345.793	19.88
346.004	19.81
346.214	19.37
346.424	19.05
346.634	18.52
346.844	18.79
347.054	18.1
347.264	18.71
347.474	19.18
347.684	19.2
347.894	18.5
348.104	18.31
348.314	18.77
348.524	19.22
348.734	18.76
348.944	18.77
349.154	18.57
349.364	18.69
349.574	18.7
349.784	18.39
349.994	19.46
350.204	19.53
350.413	19.48
350.623	19.13
350.833	19.05
351.043	19.59
351.253	19.89
351.463	20.13
351.672	20.32
351.882	20.46
352.092	20.41
352.302	20.21
352.511	21.09
352.721	20.85
352.931	19.64
353.141	19.73
353.35	19.74
353.56	20.18
353.77	19.51
353.979	19.37
354.189	18.7
354.399	19.39
354.608	18.77
354.818	18.23
355.027	18.59
355.237	19.01
355.447	19.35
355.656	19.83
355.866	19.28
356.075	19.8
356.285	19.79
356.494	20.19
356.704	19.42
356.913	19.53
357.123	19.6
357.332	19.91
357.542	20.94
357.751	20.32
357.96	20.22
358.17	19.86
358.379	19.6
358.589	19.4
358.798	19.62
359.007	19.53
359.217	19.83
359.426	19.76
359.635	19.74
359.845	19.03
360.054	18.98
360.263	18.93
360.472	19.64
360.682	19.31
360.891	19.25
361.1	19.04
361.309	19.02
361.519	18.41
361.728	18.33
361.937	17.7
362.146	18.01
362.355	17.91
362.564	17.3
362.774	16.83
362.983	16.89
363.192	17.11
363.401	17.26
363.61	17.44
363.819	17.85
364.028	17.75
364.237	17.77
364.446	17.37
364.655	17.65
364.864	18.12
365.073	18.24
365.282	18.29
365.491	17.99
365.7	18.1
365.909	17.56
366.118	17.23
366.327	17.14
366.536	17.39
366.745	17.68
366.954	18.04
367.162	17.67
367.371	17.53
367.58	17.39
367.789	17.2
367.998	16.62
368.207	16.84
368.415	16.67
368.624	16.4
368.833	16.14
369.042	15.73
369.25	15.27
369.459	15.19
369.668	14.75
369.877	14.81
370.085	15.47
370.294	15.35
370.503	15.52
370.711	15.68
370.92	15.95
371.129	15.91
371.337	15.85
371.546	15.82
371.754	15.94
371.963	16.25
372.171	16.12
372.38	15.59
372.589	15.66
372.797	15.15
373.006	15.2
373.214	14.97
373.423	14.65
373.631	14.45
373.84	13.89
374.048	14.03
374.256	14.03
374.465	14.17
374.673	13.74
374.882	13.57
375.09	13.54
375.298	13.02
375.507	13.31
375.715	13.55
375.923	13.52
376.132	13.57
376.34	12.85
376.548	12.62
376.757	12.13
376.965	12.29
377.173	12.6
377.381	12.39
377.59	12.37
377.798	11.9
378.006	11.39
378.214	11.47
378.423	11.67
378.631	11.85
378.839	11.67
379.047	11.84
379.255	12.08
379.463	11.7
379.671	11.98
379.879	12.17
380.088	12.31
380.296	12.48
380.504	12.29
380.712	12.16
380.92	11.97
381.128	12.19
381.336	12.02
381.544	11.68
381.752	11.48
381.96	11.55
382.168	11.55
382.376	11.22
382.584	10.97
382.791	11.12
382.999	11.18
383.207	10.92
383.415	10.55
383.623	10.64
383.831	10.7
384.039	10.7
384.247	10.39
384.454	10.09
384.662	10.17
384.87	10.44
385.078	10.12
385.285	10.04
385.493	10.43
385.701	10.45
385.909	10.32
386.116	9.98
386.324	9.81
386.532	9.73
386.739	9.82
386.947	9.7
387.155	9.22
387.362	9.14
387.57	8.99
387.778	8.69
387.985	8.58
388.193	8.67
388.4	8.72
388.608	8.73
388.816	8.7
389.023	8.73
389.231	8.66
389.438	8.85
389.646	9.11
389.853	8.78
390.061	8.84
390.268	8.91
390.475	8.57
390.683	8.49
390.89	8.19
391.098	8.2
391.305	7.96
391.512	7.84
391.72	7.64
391.927	7.27
392.135	7.42
392.342	7.27
392.549	7.01
392.756	6.98
392.964	6.87
393.171	7.1
393.378	7.04
393.586	7.17
393.793	7.22
394	7.15
394.207	7.09
394.414	7.07
394.622	7.07
394.829	7.2
395.036	7.28
395.243	7.27
395.45	7.35
395.657	7.33
395.864	7.07
396.072	7.04
396.279	7.07
396.486	7.23
396.693	7.11
396.9	7.08
397.107	7
397.314	6.94
397.521	6.88
397.728	6.68
397.935	6.61
398.142	6.71
398.349	6.47
398.556	6.46
398.763	6.14
398.97	6.04
399.177	6.09
399.383	6.08
399.59	6
399.797	6.1
400.004	6.17
400.211	6.21
400.418	6.35
400.625	6.48
400.831	6.51
401.038	6.63
401.245	6.85
401.452	6.65
401.658	6.72
401.865	6.78
402.072	6.73
402.279	6.6
402.485	6.63
402.692	6.45
402.899	6.26
403.105	6.22
403.312	6.32
403.519	6.15
403.725	6.22
403.932	6.18
404.138	6.04
404.345	5.97
404.552	6.07
404.758	5.96
404.965	6
405.171	6.23
405.378	6.15
405.584	6.06
405.791	6.06
405.997	6.06
406.204	5.99
406.41	6.09
406.617	5.99
406.823	5.93
407.029	5.95
407.236	5.72
407.442	5.57
407.649	5.55
407.855	5.6
408.061	5.62
408.268	5.54
408.474	5.45
408.68	5.37
408.887	5.45
409.093	5.29
409.299	5.12
409.505	5.08
409.712	4.94
409.918	5.12
410.124	5.02
410.33	5.01
410.537	5.04
410.743	5.19
410.949	5.24
411.155	5.26
411.361	5.27
411.567	5.36
411.773	5.55
411.98	5.74
412.186	5.53
412.392	5.42
412.598	5.44
412.804	5.32
413.01	5.2
413.216	5.1
413.422	5.14
413.628	5.04
413.834	4.99
414.04	4.99
414.246	4.84
414.452	5.02
414.658	5.07
414.864	4.99
415.07	4.93
415.275	4.94
415.481	4.87
415.687	4.88
415.893	5.02
416.099	5.18
416.305	5.12
416.511	5.15
416.716	4.95
416.922	4.99
417.128	5.01
417.334	5.08
417.539	5.04
417.745	5.12
417.951	5.08
418.157	5.04
418.362	4.93
418.568	4.89
418.774	4.94
418.979	5.03
419.185	4.96
419.391	4.86
419.596	4.81
419.802	4.83
420.008	4.82
420.213	5.44
420.419	5.49
420.624	5.46
420.83	5.46
421.035	5.41
421.241	5.31
421.446	5.34
421.652	5.38
421.857	5.37
422.063	5.33
422.268	5.31
422.474	4.62
422.679	4.64
422.885	4.66
423.09	4.65
423.295	4.62
423.501	4.67
423.706	4.68
423.911	4.69
424.117	4.71
424.322	4.71
424.527	4.78
424.733	4.81
424.938	4.72
425.143	4.65
425.349	4.66
425.554	4.65
425.759	4.64
425.964	4.55
426.169	4.47
426.375	4.5
426.58	4.49
426.785	4.29
426.99	4.34
427.195	4.39
427.4	4.3
427.605	4.2
427.811	4.33
428.016	4.26
428.221	4.3
428.426	4.44
428.631	4.44
428.836	4.44
429.041	4.51
429.246	4.4
429.451	4.36
429.656	4.43
429.861	4.48
430.066	4.44
430.271	4.4
430.476	4.49
430.681	4.41
430.886	4.29
431.09	4.33
431.295	4.33
431.5	4.29
431.705	4.22
431.91	4.24
432.115	4.29
432.32	4.21
432.524	4.24
432.729	4.1
432.934	4.22
433.139	4.28
433.343	4.26
433.548	4.25
433.753	4.37
433.958	4.45
434.162	4.54
434.367	4.6
434.572	4.64
434.776	4.7
434.981	4.79
435.186	4.76
435.39	4.75
435.595	4.83
435.799	4.94
436.004	4.9
436.209	4.84
436.413	4.86
436.618	4.81
436.822	4.79
437.027	4.75
437.231	4.7
437.436	4.71
437.64	4.66
437.845	4.61
438.049	4.49
438.253	4.45
438.458	4.46
438.662	4.38
438.867	4.37
439.071	4.41
439.275	4.4
439.48	4.45
439.684	4.42
439.888	4.43
440.093	4.48
440.297	4.57
440.501	4.6
440.706	4.62
440.91	4.67
441.114	4.61
441.318	4.61
441.523	4.59
441.727	4.58
441.931	4.45
442.135	4.57
442.339	4.49
442.543	4.42
442.748	4.37
442.952	4.39
443.156	4.35
443.36	4.45
443.564	4.41
443.768	4.38
443.972	4.31
444.176	4.35
444.38	4.2
444.584	4.21
444.788	4.23
444.992	4.24
445.196	4.16
445.4	4.15
445.604	4.04
445.808	4.04
446.012	3.99
446.216	4.01
446.42	3.98
446.624	4.04
446.828	3.96
447.032	4
447.235	3.97
447.439	3.98
447.643	3.98
447.847	3.99
448.051	3.96
448.254	4.09
448.458	4.08
448.662	4.14
448.866	4.09
449.069	4.13
449.273	4.1
449.477	4.04
449.681	4.13
449.884	4.17
450.088	4.25
450.292	4.26
450.495	4.27
450.699	4.37
450.902	4.24
451.106	4.26
451.31	4.24
451.513	4.13
451.717	4.19
451.92	4.15
452.124	4.08
452.327	4.06
452.531	4.06
452.734	4.04
452.938	3.92
453.141	3.97
453.345	4.06
453.548	4.05
453.752	4.08
453.955	4.14
454.158	4.19
454.362	4.29
454.565	4.28
454.769	4.3
454.972	4.42
455.175	4.38
455.379	4.41
455.582	4.3
455.785	4.36
455.988	4.29
456.192	4.2
456.395	4.05
456.598	3.99
456.801	4.05
457.005	3.98
457.208	3.92
457.411	4.04
457.614	4.05
457.817	4.03
458.021	4.01
458.224	4.09
458.427	4.13
458.63	4.17
458.833	4.14
459.036	4.08
459.239	4.05
459.442	3.91
459.645	3.9
459.848	3.9
460.051	3.94
460.254	3.99
460.457	4.02
460.66	4
460.863	4.06
461.066	4.05
461.269	4.04
461.472	4.22
461.675	4.33
461.878	4.28
462.081	4.27
462.284	4.26
462.486	4.09
462.689	4.02
462.892	4.03
463.095	3.96
463.298	4.06
463.5	4.11
463.703	4.06
463.906	3.97
464.109	3.94
464.311	4
464.514	4.07
464.717	4.17
464.92	4.08
465.122	4.15
465.325	4.16
465.528	4.18
465.73	4.18
465.933	4.2
466.135	4.32
466.338	4.44
466.541	4.44
466.743	4.45
466.946	4.54
467.148	4.69
467.351	4.66
467.553	4.7
467.756	4.67
467.958	4.68
468.161	4.6
468.363	4.58
468.566	4.49
468.768	4.42
468.971	4.38
469.173	4.26
469.375	4.21
469.578	4.17
469.78	4.17
469.983	4.24
470.185	4.24
470.387	4.28
470.59	4.41
470.792	4.53
470.994	4.65
471.196	4.71
471.399	4.84
471.601	4.92
471.803	5.06
472.005	5.17
472.208	5.05
472.41	5.06
472.612	5.13
472.814	5.02
473.016	5
473.218	4.93
473.421	4.87
473.623	4.9
473.825	4.83
474.027	4.7
474.229	4.54
474.431	4.63
474.633	4.61
474.835	4.55
475.037	4.53
475.239	4.41
475.441	4.47
475.643	4.44
475.845	4.37
476.047	4.27
476.249	4.35
476.451	4.34
476.653	4.3
476.855	4.34
477.057	4.42
477.258	4.5
477.46	4.59
477.662	4.51
477.864	4.56
478.066	4.5
478.268	4.55
478.469	4.45
478.671	4.45
478.873	4.48
479.075	4.46
479.276	4.4
479.478	4.39
479.68	4.32
479.882	4.34
480.083	4.34
480.285	4.35
480.487	4.32
480.688	4.33
480.89	4.4
481.091	4.38
481.293	4.34
481.495	4.33
481.696	4.28
481.898	4.26
482.099	4.24
482.301	4.21
482.502	4.22
482.704	4.22
482.905	4.24
483.107	4.19
483.308	4.2
483.51	4.23
483.711	4.23
483.913	4.27
484.114	4.3
484.315	4.32
484.517	4.32
484.718	4.34
484.92	4.38
485.121	4.38
485.322	4.41
485.524	4.4
485.725	4.37
485.926	4.35
486.127	4.34
486.329	4.34
486.53	4.34
486.731	4.38
486.932	4.35
487.134	4.33
487.335	4.34
487.536	4.37
487.737	4.36
487.938	4.4
488.139	4.43
488.341	4.44
488.542	4.45
488.743	4.47
488.944	4.49
489.145	4.5
489.346	4.58
489.547	4.55
489.748	4.51
489.949	4.5
490.15	4.48
490.351	4.49
490.552	4.53
490.753	4.57
490.954	4.6
491.155	4.6
491.356	4.62
491.557	4.64
491.758	4.7
491.959	4.73
492.159	4.77
492.36	4.81
492.561	4.87
492.762	4.85
492.963	4.82
493.164	4.84
493.364	4.84
493.565	4.89
493.766	4.79
493.967	4.71
494.167	4.72
494.368	4.71
494.569	4.76
494.769	4.65
494.97	4.63
495.171	4.61
495.371	4.57
495.572	4.63
495.773	4.65
495.973	4.69
496.174	4.75
496.375	4.79
496.575	4.82
496.776	4.8
496.976	4.94
497.177	5
497.377	5.03
497.578	5.07
497.778	5.08
497.979	5.12
498.179	5.14
498.38	5.09
498.58	5.14
498.78	5.22
498.981	5.25
499.181	5.21
499.382	5.24
499.582	5.29
499.782	5.38
499.983	5.39
500.183	5.35
500.383	5.53
500.584	5.57
500.784	5.55
500.984	5.59
501.184	5.62
501.385	5.65
501.585	5.72
501.785	5.67
501.985	5.65
502.185	5.59
502.386	5.61
502.586	5.53
502.786	5.64
502.986	5.72
503.186	5.69
503.386	5.69
503.586	5.77
503.786	5.68
503.987	5.78
504.187	5.83
504.387	5.89
504.587	5.94
504.787	5.9
504.987	5.86
505.187	5.87
505.387	5.92
505.587	5.9
505.786	5.87
505.986	5.94
506.186	5.99
506.386	6.01
506.586	6.07
506.786	6.08
506.986	6.11
507.186	6.09
507.386	6.12
507.585	6.08
507.785	6.15
507.985	6.1
508.185	6.07
508.384	5.96
508.584	5.98
508.784	5.97
508.984	6.08
509.183	6.16
509.383	6.27
509.583	6.22
509.782	6.27
509.982	6.37
510.182	6.5
510.381	6.61
510.581	6.77
510.781	6.78
510.98	6.87
511.18	6.84
511.379	6.86
511.579	6.92
511.778	6.99
511.978	7.04
512.177	7.08
512.377	7.14
512.576	7.11
512.776	7.12
512.975	7.13
513.175	7.1
513.374	7.18
513.573	7.26
513.773	7.22
513.972	7.25
514.172	7.33
514.371	7.32
514.57	7.22
514.77	7.33
514.969	7.42
515.168	7.5
515.367	7.56
515.567	7.7
515.766	7.71
515.965	7.75
516.164	7.76
516.364	7.76
516.563	7.72
516.762	7.79
516.961	7.78
517.16	7.78
517.359	7.78
517.559	7.78
517.758	7.72
517.957	7.77
518.156	7.86
518.355	7.89
518.554	7.95
518.753	8.04
518.952	8.1
519.151	8.13
519.35	8.15
519.549	8.17
519.748	8.19
519.947	8.2
520.146	8.2
520.345	8.1
520.544	8.21
520.743	8.23
520.942	8.29
521.141	8.35
521.339	8.41
521.538	8.42
521.737	8.52
521.936	8.6
522.135	8.63
522.333	8.6
522.532	8.67
522.731	8.69
522.93	8.65
523.129	8.59
523.327	8.65
523.526	8.66
523.725	8.65
523.923	8.65
524.122	8.66
524.321	8.72
524.519	8.77
524.718	8.8
524.917	8.79
525.115	8.86
525.314	8.93
525.512	8.92
525.711	8.9
525.909	8.94
526.108	8.9
526.306	8.86
526.505	8.84
526.703	8.82
526.902	8.83
527.1	8.85
527.299	8.89
527.497	8.92
527.696	8.97
527.894	9.07
528.092	9.1
528.291	9.2
528.489	9.28
528.688	9.34
528.886	9.44
529.084	9.53
529.283	9.59
529.481	9.59
529.679	9.63
529.877	9.65
530.076	9.59
530.274	9.6
530.472	9.59
530.67	9.65
530.869	9.63
531.067	9.57
531.265	9.55
531.463	9.56
531.661	9.65
531.859	9.65
532.057	9.67
532.255	9.73
532.454	9.79
532.652	9.84
532.85	9.9
533.048	10
533.246	10.12
533.444	10.22
533.642	10.28
533.84	10.28
534.038	10.33
534.236	10.36
534.434	10.38
534.632	10.44
534.83	10.43
535.027	10.43
535.225	10.43
535.423	10.4
535.621	10.46
535.819	10.48
536.017	10.58
536.215	10.65
536.412	10.71
536.61	10.83
536.808	10.89
537.006	11.01
537.203	11.05
537.401	11.08
537.599	11.16
537.797	11.12
537.994	11.11
538.192	11.04
538.39	11
538.587	10.99
538.785	10.96
538.983	10.91
539.18	10.83
539.378	10.8
539.575	10.76
539.773	10.76
539.97	10.75
540.168	10.82
540.366	10.89
540.563	10.93
540.761	10.98
540.958	11.01
541.155	11.09
541.353	11.19
541.55	11.25
541.748	11.38
541.945	11.51
542.143	11.61
542.34	11.63
542.537	11.62
542.735	11.7
542.932	11.79
543.129	11.78
543.327	11.83
543.524	11.8
543.721	11.82
543.919	11.84
544.116	11.84
544.313	11.86
544.51	11.93
544.708	11.98
544.905	12.01
545.102	11.98
545.299	12.02
545.496	12
545.693	12.09
545.891	12.21
546.088	12.29
546.285	12.26
546.482	12.39
546.679	12.45
546.876	12.65
547.073	12.69
547.27	12.78
547.467	12.93
547.664	13.05
547.861	13.12
548.058	13.14
548.255	13.17
548.452	13.31
548.649	13.34
548.846	13.44
549.043	13.33
549.24	13.48
549.437	13.43
549.633	13.41
549.83	13.44
550.027	13.48
550.224	13.55
550.421	13.64
550.618	13.66
550.814	13.62
551.011	13.6
551.208	13.75
551.405	13.79
551.601	13.98
551.798	14.09
551.995	14.13
552.191	14.21
552.388	14.34
552.585	14.43
552.781	14.51
552.978	14.65
553.175	14.63
553.371	14.6
553.568	14.62
553.764	14.61
553.961	14.6
554.157	14.72
554.354	14.78
554.55	14.77
554.747	14.79
554.943	14.75
555.14	14.81
555.336	15.04
555.533	15.24
555.729	15.22
555.926	15.31
556.122	15.38
556.318	15.48
556.515	15.51
556.711	15.57
556.907	15.5
557.104	15.58
557.3	15.57
557.496	15.56
557.693	15.52
557.889	15.6
558.085	15.59
558.281	15.69
558.478	15.83
558.674	15.88
558.87	15.89
559.066	16.09
559.262	16.3
559.459	16.39
559.655	16.5
559.851	16.55
560.047	16.65
560.243	16.63
560.439	16.76
560.635	16.56
560.831	16.67
561.027	16.71
561.223	16.69
561.419	16.59
561.615	16.51
561.811	16.5
562.007	16.61
562.203	16.59
562.399	16.75
562.595	16.73
562.791	16.85
562.987	16.89
563.183	16.95
563.379	16.99
563.575	17.11
563.771	17.24
563.966	17.18
564.162	17.21
564.358	17.3
564.554	17.34
564.75	17.46
564.945	17.54
565.141	17.56
565.337	17.66
565.533	17.66
565.728	17.76
565.924	17.77
566.12	17.93
566.315	18.05
566.511	18.18
566.707	18.34
566.902	18.34
567.098	18.41
567.293	18.48
567.489	18.61
567.684	18.66
567.88	18.67
568.076	18.83
568.271	18.89
568.467	18.77
568.662	18.81
568.858	18.81
569.053	18.87
569.248	18.85
569.444	18.85
569.639	18.8
569.835	18.89
570.03	18.94
570.225	18.97
570.421	19.04
570.616	19.21
570.812	19.29
571.007	19.27
571.202	19.29
571.397	19.4
571.593	19.46
571.788	19.49
571.983	19.62
572.178	19.61
572.374	19.78
572.569	19.8
572.764	19.86
572.959	19.78
573.154	19.86
573.35	19.96
573.545	20.04
573.74	20.13
573.935	20.18
574.13	20.23
574.325	20.38
574.52	20.31
574.715	20.4
574.91	20.45
575.105	20.6
575.3	20.68
575.495	20.77
575.69	20.73
575.885	20.77
576.08	20.9
576.275	20.92
576.47	20.93
576.665	21.01
576.86	21.08
577.055	21.13
577.25	21.16
577.444	21.32
577.639	21.35
577.834	21.39
578.029	21.6
578.224	21.56
578.418	21.69
578.613	21.86
578.808	21.84
579.003	21.88
579.197	21.81
579.392	21.83
579.587	21.81
579.781	21.81
579.976	21.93
580.171	21.93
580.365	22.06
580.56	21.84
580.755	21.78
580.949	21.89
581.144	21.87
581.338	21.9
581.533	22.11
581.727	22.09
581.922	22.09
582.116	22.15
582.311	22.06
582.505	22.02
582.7	22.25
582.894	22.2
583.089	22.08
583.283	22.17
583.478	22.28
583.672	22.13
583.866	22.15
584.061	22.07
584.255	21.93
584.449	22.08
584.644	22.26
584.838	22.24
585.032	22.41
585.226	22.64
585.421	22.65
585.615	22.62
585.809	22.57
586.003	22.58
586.198	22.7
586.392	22.9
586.586	22.8
586.78	22.7
586.974	22.8
587.168	22.69
587.363	22.53
587.557	22.61
587.751	22.68
587.945	22.87
588.139	22.87
588.333	22.96
588.527	22.94
588.721	22.95
588.915	23.08
589.109	22.99
589.303	23.12
589.497	23.11
589.691	23.08
589.885	23.19
590.079	23.15
590.273	23.2
590.466	23.13
590.66	23.09
590.854	23.24
591.048	23.09
591.242	23.09
591.436	23
591.629	23.16
591.823	23.13
592.017	23.01
592.211	22.99
592.404	23.05
592.598	23
592.792	23.2
592.986	23.08
593.179	23.19
593.373	23.23
593.567	23.27
593.76	23.29
593.954	23.37
594.147	23.53
594.341	23.42
594.535	23.42
594.728	23.53
594.922	23.5
595.115	23.54
595.309	23.54
595.502	23.62
595.696	23.66
595.889	23.66
596.083	23.65
596.276	23.6
596.47	23.76
596.663	23.64
596.856	23.76
597.05	23.75
597.243	23.79
597.437	23.78
597.63	23.72
597.823	23.72
598.017	23.73
598.21	23.77
598.403	23.67
598.596	23.62
598.79	23.83
598.983	23.7
599.176	23.72
599.369	23.69
599.563	23.67
599.756	23.75
599.949	23.75
600.142	23.77
600.335	23.7
600.528	23.86
600.722	23.94
600.915	23.83
601.108	23.85
601.301	23.77
601.494	23.8
601.687	23.91
601.88	23.8
602.073	23.8
602.266	23.77
602.459	23.84
602.652	23.78
602.845	23.74
603.038	23.95
603.231	23.97
603.424	23.93
603.617	24.05
603.809	23.99
604.002	24.06
604.195	24.22
604.388	24.23
604.581	24.25
604.774	24.37
604.966	24.3
605.159	24.04
605.352	24.17
605.545	24.27
605.737	24.22
605.93	24.32
606.123	24.45
606.316	24.36
606.508	24.33
606.701	24.3
606.894	24.28
607.086	24.32
607.279	24.58
607.471	24.41
607.664	24.31
607.857	24.29
608.049	24.42
608.242	24.34
608.434	24.41
608.627	24.55
608.819	24.52
609.012	24.45
609.204	24.59
609.397	24.57
609.589	24.68
609.782	24.83
609.974	24.83
610.166	24.6
610.359	24.66
610.551	24.56
610.743	24.47
610.936	24.54
611.128	24.63
611.32	24.74
611.513	24.64
611.705	24.56
611.897	24.67
612.09	24.75
612.282	24.81
612.474	24.67
612.666	24.68
612.858	24.94
613.051	24.92
613.243	24.71
613.435	24.6
613.627	24.73
613.819	24.58
614.011	24.72
614.203	24.6
614.395	24.87
614.588	25.04
614.78	25.08
614.972	24.84
615.164	24.86
615.356	25.17
615.548	25.21
615.74	25.12
615.932	25.23
616.124	24.98
616.315	25.31
616.507	24.98
616.699	24.85
616.891	24.83
617.083	24.85
617.275	25.06
617.467	24.87
617.659	24.84
617.85	24.91
618.042	24.92
618.234	25.01
618.426	24.7
618.618	24.76
618.809	24.87
619.001	24.75
619.193	24.97
619.384	24.81
619.576	24.82
619.768	24.65
619.959	24.6
620.151	24.68
620.343	24.6
620.534	24.73
620.726	24.78
620.917	24.62
621.109	24.74
621.301	24.66
621.492	24.61
621.684	24.72
621.875	24.9
622.067	25.01
622.258	25.06
622.45	25.18
622.641	25.1
622.832	25.07
623.024	25.41
623.215	25.63
623.407	25.61
623.598	25.62
623.789	25.42
623.981	25.38
624.172	25.27
624.363	25.24
624.555	25.15
624.746	25.24
624.937	25.21
625.129	25.04
625.32	24.86
625.511	24.98
625.702	25.14
625.893	25.2
626.085	25.19
626.276	25.25
626.467	25.26
626.658	25.32
626.849	25.34
627.04	25.51
627.231	25.67
627.422	25.73
627.614	25.74
627.805	25.55
627.996	25.58
628.187	25.59
628.378	25.51
628.569	25.4
628.76	25.42
628.951	25.41
629.142	25.34
629.332	25.13
629.523	25.13
629.714	25.04
629.905	25.06
630.096	25.16
630.287	25.21
630.478	25.29
630.669	25.38
630.859	25.56
631.05	25.45
631.241	25.38
631.432	25.49
631.623	25.49
631.813	25.33
632.004	25.25
632.195	25.11
632.385	25.01
632.576	25.05
632.767	25.11
632.957	25.07
633.148	25.14
633.339	25.24
633.529	25.27
633.72	25.12
633.91	25.24
634.101	25.38
634.292	25.52
634.482	25.62
634.673	25.72
634.863	25.9
635.054	25.76
635.244	25.7
635.435	25.65
635.625	25.6
635.815	25.88
636.006	25.98
636.196	25.92
636.387	25.79
636.577	25.83
636.767	25.66
636.958	25.36
637.148	25.35
637.338	25.46
637.529	25.43
637.719	25.49
637.909	25.43
638.099	25.31
638.29	25.29
638.48	25.54
638.67	25.54
638.86	25.61
639.05	25.98
639.241	26.09
639.431	25.93
639.621	25.94
639.811	25.7
640.001	25.6
640.191	25.47
640.381	25.66
640.571	25.4
640.761	25.29
640.951	25.14
641.141	24.83
641.331	24.88
641.521	25.1
641.711	25.16
641.901	25.22
642.091	25.23
642.281	25.45
642.471	25.18
642.661	25.37
642.851	25.5
643.041	25.56
643.231	25.68
643.42	25.66
643.61	25.62
643.8	25.55
643.99	25.78
644.18	25.87
644.369	26.01
644.559	26.25
644.749	26.28
644.939	26.04
645.128	26.07
645.318	25.9
645.508	26.01
645.697	25.8
645.887	25.87
646.076	25.85
646.266	25.82
646.456	25.65
646.645	25.65
646.835	25.58
647.024	25.66
647.214	25.78
647.403	25.89
647.593	25.68
647.782	25.89
647.972	25.92
648.161	26.02
648.351	25.85
648.54	25.85
648.73	25.75
648.919	25.64
649.108	25.65
649.298	25.34
649.487	25.32
649.677	25.45
649.866	25.41
650.055	25.46
650.244	25.42
650.434	25.75
650.623	25.52
650.812	25.52
651.002	25.66
651.191	25.91
651.38	26.17
651.569	26.36
651.758	26.29
651.947	26.36
652.137	26.39
652.326	26.32
652.515	26.07
652.704	26.39
652.893	26.44
653.082	26.23
653.271	26.1
653.46	25.88
653.649	25.67
653.838	25.81
654.027	25.65
654.216	25.51
654.405	25.33
654.594	25.29
654.783	25.04
654.972	25.03
655.161	25.15
655.35	25.22
655.539	25.51
655.728	25.62
655.916	25.29
656.105	25.24
656.294	25.47
656.483	25.56
656.672	25.73
656.86	25.92
657.049	26.01
657.238	26.12
657.427	26.09
657.615	25.96
657.804	25.92
657.993	26.2
658.181	26.42
658.37	26.23
658.559	26.19
658.747	26.23
658.936	26.16
659.125	26.46
659.313	26.45
659.502	26.33
659.69	26.59
659.879	26.55
660.067	26.33
660.256	26.17
660.444	26.24
660.633	26.3
660.821	26.18
661.01	26.12
661.198	25.65
661.387	25.56
661.575	25.68
661.763	25.37
661.952	25.42
662.14	25.55
662.328	25.47
662.517	25.39
662.705	25.66
662.893	25.86
663.082	25.87
663.27	25.93
663.458	25.93
663.646	26.01
663.834	26.25
664.023	26.3
664.211	26.54
664.399	26.91
664.587	26.87
664.775	26.54
664.963	26.18
665.152	26.3
665.34	26.47
665.528	26.58
665.716	26.8
665.904	26.67
666.092	26.51
666.28	26.34
666.468	26.14
666.656	26.38
666.844	26.47
667.032	26.69
667.22	26.48
667.408	26.41
667.596	26.26
667.784	25.86
667.971	25.78
668.159	25.68
668.347	25.55
668.535	25.52
668.723	25.42
668.911	25.54
669.098	25.47
669.286	25.74
669.474	25.74
669.662	25.86
669.849	26
670.037	26.22
670.225	26.52
670.413	26.34
670.6	26.44
670.788	26.66
670.976	26.48
671.163	26.81
671.351	26.49
671.538	26.36
671.726	26.05
671.913	26.01
672.101	25.73
672.289	25.43
672.476	25.77
672.664	25.83
672.851	25.52
673.039	25.75
673.226	25.55
673.413	25.64
673.601	25.4
673.788	25.8
673.976	26.01
674.163	26.24
674.35	26.54
674.538	26.57
674.725	26.57
674.912	26.53
675.1	26.48
675.287	26.44
675.474	26.82
675.662	27.08
675.849	26.97
676.036	26.84
676.223	26.77
676.411	26.54
676.598	26.44
676.785	26.47
676.972	26.74
677.159	26.94
677.346	26.9
677.533	26.75
677.721	26.62
677.908	26.52
678.095	26.66
678.282	26.52
678.469	26.58
678.656	26.6
678.843	26.6
679.03	26.44
679.217	26.29
679.404	26.41
679.591	26.32
679.778	26.56
679.964	26.56
680.151	26.63
680.338	26.86
680.525	26.81
680.712	26.81
680.899	26.6
681.086	26.5
681.272	26.15
681.459	26.12
681.646	26.07
681.833	26.01
682.02	26.18
682.206	25.56
682.393	25.37
682.58	25.72
682.766	25.78
682.953	25.97
683.14	26.02
683.326	26.45
683.513	26.36
683.7	26.69
683.886	26.4
684.073	26.42
684.259	27.05
684.446	26.92
684.632	26.72
684.819	26.56
685.005	26.53
685.192	26.63
685.378	26.67
685.565	26.61
685.751	26.42
685.938	26.69
686.124	26.62
686.31	26.52
686.497	26.77
686.683	26.74
686.87	27.01
687.056	27.01
687.242	26.9
687.429	26.59
687.615	26.58
687.801	26.25
687.987	26.11
688.174	26.17
688.36	26.05
688.546	25.79
688.732	26
688.918	25.68
689.105	25.72
689.291	25.49
689.477	25.77
689.663	25.83
689.849	26.07
690.035	26.29
690.221	26.48
690.407	26.54
690.593	26.64
690.779	26.77
690.965	26.84
691.151	26.57
691.337	26.94
691.523	27.05
691.709	27.12
691.895	27.43
692.081	27.49
692.267	27.21
692.453	27.13
692.639	26.99
692.825	26.4
693.011	26.36
693.196	26.65
693.382	26.54
693.568	26.14
693.754	25.98
693.94	26.04
694.125	26.05
694.311	26.1
694.497	25.97
694.682	26.16
694.868	26.28
695.054	26.44
695.239	26.36
695.425	26.28
695.611	26.39
695.796	26.52
695.982	26.28
696.168	25.82
696.353	25.81
696.539	25.9
696.724	25.78
696.91	26.02
697.095	25.97
697.281	25.96
697.466	26.2
697.652	26.3
697.837	26.2
698.023	26.14
698.208	26.38
698.393	26.67
698.579	26.69
698.764	26.84
698.949	26.79
699.135	26.81
699.32	26.89
699.505	26.76
699.691	26.7
699.876	26.77
700.061	26.8
700.246	26.59
700.432	26.44
700.617	26.4
700.802	26.5
700.987	26.44
701.172	26.6
701.358	26.78
701.543	26.66
701.728	26.51
701.913	26.3
702.098	26.32
702.283	26.92
702.468	26.81
702.653	26.68
702.838	26.57
703.023	26.72
703.208	26.67
703.393	26.68
703.578	26.72
703.763	27.02
703.948	27.51
704.133	27.79
704.318	27.64
704.503	27.34
704.688	27.42
704.873	27.06
705.057	27.07
705.242	27.03
705.427	26.74
705.612	27.15
705.797	27.04
705.981	26.64
706.166	26.4
706.351	26.41
706.536	26.56
706.72	26.52
706.905	27.19
707.09	27.11
707.274	26.94
707.459	26.87
707.644	26.62
707.828	27.02
708.013	27.03
708.197	27.49
708.382	27.2
708.567	27.03
708.751	27.31
708.936	27.42
709.12	27.51
709.305	27.62
709.489	27.66
709.673	27.73
709.858	26.98
710.042	27.34
710.227	26.85
710.411	27.2
710.596	27.55
710.78	27.14
710.964	26.44
711.149	26.6
711.333	26.27
711.517	26.4
711.702	26.25
711.886	26.42
712.07	26.07
712.254	26.43
712.438	26.01
712.623	25.43
712.807	26.11
712.991	26.42
713.175	26.13
713.359	26.6
713.544	26.65
713.728	26.95
713.912	26.99
714.096	26.72
714.28	26.52
714.464	26.92
714.648	27.3
714.832	26.75
715.016	26.62
715.2	26.78
715.384	26.25
715.568	26.44
715.752	26.29
715.936	26.46
716.12	26.79
716.304	26.57
716.488	26.35
716.671	26.49
716.855	26.74
717.039	26.58
717.223	26.56
717.407	26.93
717.59	26.45
717.774	26.26
717.958	26.42
718.142	26.47
718.325	26.5
718.509	26.37
718.693	26.44
718.877	26.62
719.06	26.8
719.244	26.73
719.428	26.85
719.611	27.08
719.795	27.21
719.978	26.97
720.162	27.06
720.345	26.96
720.529	27.01
720.713	26.93
720.896	26.63
721.08	26.44
721.263	26.38
721.446	26.24
721.63	26.15
721.813	26.24
721.997	25.98
722.18	25.61
722.364	25.77
722.547	25.26
722.73	25.34
722.914	25.62
723.097	26.32
723.28	26.55
723.464	26.77
723.647	26.5
723.83	26.25
724.013	26.81
724.197	27.17
724.38	26.87
724.563	27.03
724.746	26.6
724.929	26.37
725.112	25.88
725.296	25.66
725.479	25.53
725.662	25.73
725.845	26.34
726.028	26.19
726.211	26.17
726.394	26.52
726.577	26.92
726.76	26.86
726.943	26.93
727.126	26.79
727.309	26.97
727.492	26.8
727.675	26.77
727.858	26.36
728.041	26.46
728.224	26.48
728.407	26.32
728.589	26.32
728.772	26.98
728.955	27.21
729.138	27.7
729.321	27.69
729.503	27.89
729.686	27.78
729.869	27.7
730.052	27.64
730.234	27.69
730.417	27.59
730.6	27.54
730.782	26.92
730.965	26.89
731.148	26.74
731.33	26.89
731.513	26.41
731.695	26.83
731.878	27.19
732.061	27.01
732.243	26.75
732.426	27.21
732.608	27.67
732.791	27.71
732.973	27.44
733.156	27.57
733.338	27.34
733.52	27.52
733.703	27.19
733.885	27.15
734.068	26.67
734.25	26.74
734.432	26.19
734.615	25.84
734.797	26.28
734.979	25.87
735.162	25.45
735.344	25.14
735.526	25.3
735.708	25.61
735.891	25.39
736.073	26.02
736.255	26.58
736.437	26.9
736.619	26.59
736.802	26.33
736.984	26.68
737.166	26.94
737.348	26.53
737.53	26.69
737.712	26.16
737.894	26.1
738.076	26.09
738.258	25.85
738.44	26.03
738.622	26.39
738.804	26.59
738.986	26.87
739.168	27.3
739.35	27.72
739.532	27.49
739.714	27.9
739.896	27.65
740.078	27.45
740.259	27.51
740.441	27.23
740.623	26.9
740.805	26.48
740.987	26.41
741.168	25.81
741.35	26.11
741.532	26.42
741.714	26.1
741.895	26.06
742.077	26.41
742.259	26.39
742.44	26.53
742.622	26.72
742.804	26.33
742.985	26.38
743.167	26.37
743.348	25.92
743.53	25.71
743.711	25.92
743.893	25.98
744.075	25.61
744.256	25.69
744.438	25.35
744.619	25.1
744.8	25.44
744.982	25.02
745.163	25.57
745.345	25.65
745.526	26.1
745.707	25.77
745.889	26.09
746.07	25.89
746.252	25.57
746.433	25.53
746.614	25.55
746.795	25.15
746.977	25.31
747.158	24.01
747.339	23.83
747.52	23.43
747.702	24.08
747.883	23.95
748.064	25.08
748.245	24.57
748.426	25.28
748.607	25.6
748.788	25.94
748.97	26.27
749.151	27.26
749.332	27.53
749.513	27.58
749.694	27.26
749.875	26.91
750.056	26.07
750.237	27.08
750.418	26.01
750.599	25.88
750.78	26.12
750.96	25.8
751.141	25.9
751.322	26.07
751.503	26.1
751.684	26.4
751.865	26.24
752.046	26.26
752.226	25.53
752.407	26.12
752.588	26.1
752.769	25.87
752.949	26.26
753.13	26.1
753.311	26
753.492	25.8
753.672	25.66
753.853	26.61
754.034	26.83
754.214	27.25
754.395	27.07
754.575	27.44
754.756	27.99
754.937	27.59
755.117	27.65
755.298	27.64
755.478	28.09
755.659	27.92
755.839	27.59
756.02	26.81
756.2	26.33
756.381	26.29
756.561	25.91
756.741	25.67
756.922	25.86
757.102	25.09
757.283	24.82
757.463	24.41
757.643	24.66
757.823	24.97
758.004	25.25
758.184	25.82
758.364	26.68
758.545	26.37
758.725	26.66
758.905	26.22
759.085	26.89
759.265	27.68
759.446	27.3
759.626	27.3
759.806	26.59
759.986	27.2
760.166	26.72
760.346	26.27
760.526	26.79
760.706	26.65
760.886	26.65
761.066	27.02
761.246	26.43
761.426	26.62
761.606	26.7
761.786	27.2
761.966	27.1
762.146	27.12
762.326	27.3
762.506	26.78
762.686	26.84
762.866	27.14
763.046	26.89
763.225	26.79
763.405	26.96
763.585	26.59
763.765	26.27
763.945	26
764.124	26.16
764.304	25.85
764.484	26.21
764.664	26.22
764.843	26.24
765.023	26.3
765.203	26.04
765.382	26.31
765.562	26.49
765.741	26.53
765.921	26.53
766.101	26.85
766.28	26.91
766.46	26.95
766.639	26.4
766.819	26.43
766.998	26.51
767.178	27.56
767.357	27.38
767.537	27.65
767.716	28.66
767.896	28.78
768.075	28.3
768.254	28.08
768.434	28.17
768.613	29.26
768.792	28.74
768.972	28.96
769.151	28.24
769.33	28.39
769.51	27.89
769.689	27.12
769.868	27.05
770.047	27.28
770.226	27.29
770.406	27.08
770.585	26.3
770.764	27.2
770.943	26.39
771.122	26.33
771.301	26.53
771.48	26.76
771.66	26.4
771.839	25.91
772.018	25.36
772.197	25.44
772.376	26.24
772.555	26.46
772.734	25.65
772.913	26.18
773.092	26.86
773.271	25.98
773.449	25.77
773.628	25.85
773.807	26.74
773.986	27
774.165	26.19
774.344	26.03
774.523	25.3
774.701	25.88
774.88	25.66
775.059	25.76
775.238	25.6
775.417	25.78
775.595	25.75
775.774	25.66
775.953	24.87
776.131	25.78
776.31	24.96
776.489	25.62
776.667	25.48
776.846	25.69
777.025	25.15
777.203	25.16
777.382	24.81
777.56	24.69
777.739	24.96
777.917	25.8
778.096	25.67
778.274	25.84
778.453	25.38
778.631	24.85
778.81	23.55
778.988	23.39
779.166	24.55
779.345	25.22
779.523	25.8
779.702	25.64
779.88	25.06
780.058	24.27
780.237	24.24
780.415	24.96
780.593	25.38
780.771	26.23
780.95	25.91
781.128	25.11
781.306	24.46
781.484	24.38
781.662	24.14
781.841	24.42
782.019	25.4
782.197	25.41
782.375	24.97
782.553	25.11
782.731	24.62
782.909	25.68
783.087	25.75
783.265	26.71
783.443	26.8
783.621	26.87
783.799	26.95
783.977	27.66
784.155	28.13
784.333	28.18
784.511	28.32
784.689	28.62
784.867	29
785.045	29.9
785.223	29.5
785.4	28.72
785.578	29.18
785.756	28.7
785.934	28.19
786.112	28.24
786.289	28.18
786.467	27.29
786.645	27.48
786.823	26.8
787	25.96
787.178	25.41
787.356	25.31
787.533	24.82
787.711	24.87
787.889	24.26
788.066	23.52
788.244	23.69
788.421	24.14
788.599	24.59
788.776	24.48
788.954	24.99
789.131	25.54
789.309	26.2
789.486	25.82
789.664	25.42
789.841	25.89
790.019	26.12
790.196	26.09
790.373	25.77
790.551	25.95
790.728	25.33
790.906	24.4
791.083	23.6
791.26	23.34
791.437	23.02
791.615	24.3
791.792	23.8
791.969	23.51
792.146	23.4
792.324	23.99
792.501	24.31
792.678	24.66
792.855	25.37
793.032	26.65
793.209	25.98
793.387	26.89
793.564	26.75
793.741	28.04
793.918	28.01
794.095	27.73
794.272	28.17
794.449	27.6
794.626	28.44
794.803	28.07
794.98	27.82
795.157	28
795.334	27.67
795.511	26.86
795.688	26.39
795.864	27.21
796.041	27.04
796.218	26.38
796.395	25.72
796.572	25.72
796.749	26.52
796.925	26.09
797.102	27.09
797.279	27.01
797.456	27.55
797.632	27.54
797.809	26.83
797.986	27.63
798.162	27.83
798.339	28.05
798.516	28.31
798.692	28.12
798.869	28.35
799.046	27.05
799.222	27.06
799.399	27.7
799.575	27.56
799.752	28.41
799.928	27.38
800.105	26.84
800.281	26.65
800.458	25.79
800.634	24.89
800.811	24.95
800.987	26.33
801.163	26.8
801.34	25.66
801.516	26.15
801.692	25.22
801.869	26.81
802.045	26.73
802.221	26.74
802.398	26.78
802.574	27.05
802.75	25.95
802.926	25.3
803.103	24.9
803.279	25.65
803.455	25.19
803.631	25.12
803.807	23.03
803.983	24.1
804.16	24.15
804.336	24.27
804.512	24.96
804.688	25.24
804.864	24.76
805.04	25.02
805.216	24.01
805.392	23.36
805.568	23.63
805.744	25.11
805.92	23.81
806.096	24.41
806.272	23.77
806.448	22.72
806.623	23.05
806.799	24.41
806.975	24.35
807.151	24.85
807.327	24.82
807.503	24.61
807.678	24.91
807.854	26.71
808.03	25.03
808.206	25.22
808.381	26.12
808.557	26.27
808.733	25.55
808.908	24.26
809.084	25.02
809.26	25.6
809.435	25.86
809.611	24.68
809.787	23.75
809.962	25.81
810.138	27.02
810.313	26.35
810.489	26.82
810.664	26.31
810.84	28.47
811.015	28.34
811.191	27.54
811.366	26.97
811.542	27.35
811.717	27.51
811.892	27.4
812.068	26.22
812.243	25.42
812.419	24.45
812.594	25.06
812.769	24.47
812.944	24.36
813.12	24.59
813.295	24.99
813.47	25.52
813.645	25.79
813.821	25.03
813.996	25.4
814.171	26.85
814.346	27.62
814.521	28.05
814.697	27.9
814.872	27.1
815.047	27.48
815.222	29.07
815.397	28.1
815.572	26.64
815.747	26.21
815.922	25.52
816.097	24.73
816.272	25.36
816.447	24.53
816.622	26.84
816.797	27.19
816.972	27.24
817.147	26.09
817.322	26.6
817.496	27.2
817.671	28.65
817.846	28.79
818.021	28.93
818.196	28.3
818.371	27.75
818.545	25.66
818.72	26.99
818.895	27.07
819.069	26.41
819.244	25.24
819.419	26.1
819.594	25.36
819.768	26.17
819.943	25.94
820.117	25.69
820.292	26.22
820.467	26.58
820.641	25.79
820.816	25.65
820.99	26.24
821.165	26.51
821.339	26.29
821.514	26.12
821.688	26.11
821.863	26.07
822.037	26.04
822.212	25.89
822.386	25.6
822.56	25.8
822.735	26.04
822.909	26.3
823.084	26.1
823.258	26.16
823.432	26.19
823.606	26.36
823.781	26.62
823.955	26.88
824.129	26.92
824.303	27.41
824.478	27.64
824.652	27.72
824.826	27.12
825	27.23
825.174	26.88
825.348	27.01
825.523	26.5
825.697	26.49
825.871	26.31
826.045	26.86
826.219	26.87
826.393	26.48
826.567	26.49
826.741	26.57
826.915	26.73
827.089	27.16
827.263	27.46
827.437	27.8
827.611	27.49
827.784	27.57
827.958	27.29
828.132	26.95
828.306	27.26
828.48	27.29
828.654	27.53
828.827	27.65
829.001	27.2
829.175	27.4
829.349	26.02
829.522	26.41
829.696	25.93
829.87	26.25
830.044	26.59
830.217	26.15
830.391	25.91
830.565	25.57
830.738	26.03
830.912	27.04
831.085	25.93
831.259	26.88
831.432	26.54
831.606	27.55
831.779	25.93
831.953	24.8
832.126	25.15
832.3	25.4
832.473	25.22
832.647	25.16
832.82	24.88
832.994	25.4
833.167	26.07
833.34	26.52
833.514	25.71
833.687	26.57
833.86	27.63
834.034	27.59
834.207	27.29
834.38	27.22
834.553	27.59
834.727	27.71
834.9	27.18
835.073	27.02
835.246	26.73
835.419	27.69
835.593	27.45
835.766	26.97
835.939	25.7
836.112	25.42
836.285	25.48
836.458	25.5
836.631	24.47
836.804	25.43
836.977	26.35
837.15	27.28
837.323	26.4
837.496	27.37
837.669	26.66
837.842	28.14
838.015	28.78
838.188	28.55
838.361	27.94
838.533	28.56
838.706	28.22
838.879	27.59
839.052	27.41
839.225	27.05
839.398	25.34
839.57	26.94
839.743	26.54
839.916	26.96
840.088	29.6
840.261	30.09
840.434	30.79
840.607	32.32
840.779	31.34
840.952	29.9
841.124	31.43
841.297	33.05
841.47	32.7
841.642	34.13
841.815	33.53
841.987	29.2
842.16	27.91
842.332	26.37
842.505	26.82
842.677	26.21
842.85	27.52
843.022	27.95
843.194	26.11
843.367	26.04
843.539	24.73
843.712	24.1
843.884	26.64
844.056	26.8
844.229	27.58
844.401	23.34
844.573	21.04
844.745	20.42
844.918	17.96
845.09	18.84
845.262	17.24
845.434	16.39
845.606	16.11
845.779	15.66
845.951	17.26
846.123	18.18
846.295	19.64
846.467	23.05
846.639	21.56
846.811	23.97
846.983	22.74
847.155	23.63
847.327	26.84
847.499	26.58
847.671	26.03
847.843	23.71
848.015	23.03
848.187	23.77
848.359	25.06
848.531	26.12
848.703	27.39
848.875	28.74
849.047	25.43
849.218	20.93
849.39	21.59
849.562	22.69
849.734	26.12
849.905	27.43
850.077	27.93
850.249	28.23
850.421	30.57
850.592	29.34
850.764	32.83
850.936	36.3
851.107	41.26
851.279	40.57
851.451	43.09
851.622	38.71
851.794	38.44
851.965	38.04
852.137	34.13
852.308	31.37
852.48	31.73
852.651	28.04
852.823	30.82
852.994	31.68
853.166	30.31
853.337	30.05
853.509	27.47
853.68	26.62
853.851	26.35
854.023	25.46
854.194	26.92
854.365	27.17
854.537	29.87
854.708	28
854.879	25.01
855.05	30.22
855.222	26.36
855.393	31.42
855.564	32.03
855.735	31.43
855.906	35.89
856.078	28.24
856.249	25.54
856.42	20.58
856.591	21.55
856.762	22.66
856.933	20.21
857.104	18.83
857.275	23.37
857.446	25.68
857.617	24.76
857.788	25.8
857.959	33.78
858.13	38.35
858.301	36.24
858.472	34.63
858.643	30.1
858.814	27.6
858.985	28.92
859.155	23.13
859.326	20.07
859.497	21.14
859.668	23.57
859.839	20.86
860.009	19.87
860.18	22.41
860.351	18.74
860.522	25.21
860.692	25.02
860.863	27.9
861.034	26.6
861.204	28.24
861.375	29.38
861.546	26.11
861.716	28.54
861.887	25.59
862.057	26.77
862.228	28.35
862.398	26.15
862.569	30.16
862.739	29.67
862.91	33.62
863.08	36
863.251	32.62
863.421	30.07
863.592	29.03
863.762	32.22
863.932	32.74
864.103	34.32
864.273	30.31
864.443	24.76
864.614	22.12
864.784	21.86
864.954	16.11
865.125	19.28
865.295	23.78
865.465	23.47
865.635	22.86
865.805	21.02
865.976	19.27
866.146	23.37
866.316	26.32
866.486	30.89
866.656	29.42
866.826	30.82
866.996	30.22
867.166	26.57
867.336	25.63
867.506	22.16
867.676	20.28
867.846	21.55
868.016	16.86
868.186	14.07
868.356	13.74
868.526	16.47
868.696	14.36
868.866	16.65
869.036	21.45
869.206	20.28
869.376	18.45
869.545	24.29
869.715	22.09
869.885	24.01
870.055	27.07
870.224	28.21
870.394	28.37
870.564	32.11
870.734	29.82
870.903	26.03
871.073	26.57
871.243	27.95
871.412	26.45
871.582	30.14
871.751	32.22
871.921	38.57
872.091	33.87
872.26	33.3
872.43	36.18
872.599	37.79
872.769	40.21
872.938	41.03
873.108	40.93
873.277	39.96
873.446	38.85
873.616	39.38
873.785	32.89
873.955	34.27
874.124	34.27
874.293	33.67
874.463	30.01
874.632	27.4
874.801	27.38
874.971	30.42
875.14	29.46
875.309	25.39
875.478	24.77
875.647	28.45
875.817	23.3
875.986	21.25
876.155	20.45
876.324	23.94
876.493	27.42
876.662	28.67
876.831	28.62
877	28.31
877.17	30.16
877.339	30.94
877.508	30.18
877.677	32.69
877.846	34.46
878.015	33.08
878.184	30.7
878.352	28.91
878.521	30.94
878.69	28.64
878.859	26.9
879.028	30.05
879.197	28.66
879.366	27.14
879.534	27.91
879.703	25.7
879.872	25.47
880.041	27.03
880.21	27.08
880.378	25.18
880.547	24.93
880.716	24.67
880.884	24.74
881.053	24.69
881.222	26.18
881.39	26.11
881.559	26.25
881.727	25.72
881.896	26.15
882.065	25.84
882.233	25.92
882.402	25.59
882.57	27.05
882.739	26.55
882.907	26.36
883.076	25.4
883.244	26.79
883.412	27.54
883.581	28.25
883.749	27.6
883.918	27.2
884.086	27.21
884.254	28.48
884.423	27.97
884.591	27.39
884.759	27.55
884.927	28.08
885.096	25.26
885.264	25.57
885.432	25.9
885.6	25.24
885.769	25.94
885.937	26.69
886.105	26.02
886.273	26.21
886.441	27.59
886.609	28.51
886.777	27.42
886.945	27.53
887.113	24.64
887.281	24.82
887.449	25.57
887.617	27.04
887.785	25.74
887.953	25.43
888.121	21.81
888.289	20.45
888.457	20.88
888.625	21.88
888.793	21.11
888.961	21.78
889.129	15.85
889.296	16.98
889.464	15.61
889.632	14.94
889.8	12.1
889.967	14.57
890.135	16.13
