Data from 2938472_Reflection_1.txt Node
Date: Wed Jun 17 13:29:13 EDT 2015
User: robert
Spectrometer: USB4E03002
Autoset integration time: false
Trigger mode: 4
Integration Time (sec): 1.000000E-1
Scans to average: 10
Electric dark correction enabled: true
Nonlinearity correction enabled: false
Boxcar width: 5
Stray light correction enabled: false
XAxis mode: Wavelengths
Stop averaging: false
Number of Pixels in Spectrum: 3648
>>>>>Begin Spectral Data<<<<<
177.575	64.56
177.794	48.34
178.014	7.42
178.233	24.46
178.452	31.39
178.672	15.24
178.891	-52.98
179.11	61.97
179.33	62.65
179.549	50.21
179.768	53.87
179.987	46.9
180.207	39.98
180.426	43.49
180.645	54.13
180.864	50.18
181.084	69.01
181.303	186.74
181.522	-189.14
181.741	35.35
181.96	13.94
182.179	-6.16
182.398	8.29
182.618	-6.88
182.837	32.08
183.056	26.05
183.275	5.89
183.494	46.95
183.713	44.13
183.932	89.16
184.151	57.86
184.37	61.16
184.589	112.93
184.808	88.76
185.027	135.99
185.246	174.97
185.465	154.1
185.684	211.43
185.903	267.82
186.122	423.97
186.341	1807.81
186.56	2092.19
186.779	390.49
186.998	1597.04
187.216	-115.93
187.435	-325.72
187.654	5577.91
187.873	-730.25
188.092	182.05
188.311	488.98
188.53	363.19
188.748	371.43
188.967	685.93
189.186	-13.13
189.405	-6290.32
189.623	375.82
189.842	176.8
190.061	143.2
190.28	234.33
190.498	-63.57
190.717	-182.72
190.936	974.09
191.154	473.37
191.373	190.71
191.592	180.16
191.81	208.37
192.029	56.44
192.248	234.45
192.466	-62.51
192.685	117.1
192.904	52.41
193.122	100.19
193.341	87.12
193.559	135.73
193.778	214.8
193.996	270.45
194.215	1639.64
194.433	533.65
194.652	249.97
194.87	122.51
195.089	148.56
195.307	574.23
195.526	187.15
195.744	85.41
195.963	-65.64
196.181	-18
196.399	18.54
196.618	7.88
196.836	27.66
197.055	160.38
197.273	362.95
197.491	231.37
197.71	206.3
197.928	281.32
198.146	378.91
198.365	562.7
198.583	5605.6
198.801	-269.38
199.019	-459.73
199.238	-410.8
199.456	-52.9
199.674	-57.08
199.892	-324.38
200.111	-321.53
200.329	464.98
200.547	5502.74
200.765	-105.47
200.983	-204.02
201.202	193.27
201.42	334.5
201.638	407.35
201.856	214.22
202.074	146.7
202.292	306.03
202.51	277.26
202.728	270.78
202.946	236.07
203.165	267.32
203.383	229.65
203.601	181.4
203.819	148.13
204.037	153.29
204.255	274.25
204.473	4361.59
204.691	374.61
204.909	795.1
205.127	431.94
205.345	474.73
205.562	134.08
205.78	216.67
205.998	-392.09
206.216	-669.15
206.434	-526.13
206.652	277.53
206.87	173.7
207.088	197.45
207.306	81.3
207.523	54.92
207.741	64.32
207.959	100.63
208.177	78.82
208.395	77.83
208.612	92.69
208.83	96.67
209.048	93.84
209.266	105.41
209.483	103.11
209.701	95.78
209.919	199.64
210.136	145.18
210.354	109.95
210.572	83.72
210.79	71.52
211.007	58.08
211.225	58.11
211.442	46.31
211.66	39.15
211.878	11.29
212.095	30.24
212.313	24.76
212.53	32
212.748	41.04
212.966	67.58
213.183	60.03
213.401	45.37
213.618	56.41
213.836	64.9
214.053	67.8
214.271	114.4
214.488	105.56
214.705	107.43
214.923	90.14
215.14	55.55
215.358	29.39
215.575	1.78
215.793	-153.96
216.01	-22.74
216.227	17.67
216.445	32.68
216.662	35.48
216.879	30.88
217.097	18.1
217.314	17.87
217.531	26.31
217.749	33.82
217.966	44.48
218.183	53.44
218.4	44.39
218.618	41.76
218.835	42.19
219.052	42.45
219.269	35.36
219.487	39.07
219.704	46.87
219.921	42.32
220.138	37.37
220.355	34.72
220.572	48.9
220.79	56.67
221.007	45.75
221.224	44.06
221.441	49.12
221.658	53.57
221.875	60.5
222.092	55.32
222.309	57.83
222.526	56.73
222.743	47.92
222.96	36.2
223.177	34.57
223.394	34.72
223.611	32.85
223.828	32.99
224.045	30.79
224.262	25.67
224.479	20.55
224.696	17.69
224.913	14.8
225.13	14.73
225.347	13.48
225.564	12.09
225.781	12.81
225.997	12.97
226.214	11.36
226.431	11.88
226.648	12.5
226.865	12.61
227.082	12.35
227.298	14.32
227.515	14.27
227.732	14.22
227.949	13.49
228.165	11.7
228.382	13.18
228.599	13.93
228.816	14.11
229.032	13.15
229.249	13.17
229.466	14.37
229.682	11.61
229.899	12.99
230.116	11.44
230.332	12.74
230.549	15.23
230.765	13.38
230.982	10.76
231.199	9.83
231.415	9.65
231.632	10.5
231.848	9.52
232.065	10.02
232.281	7.65
232.498	10.09
232.714	10
232.931	10.24
233.147	11.38
233.364	11.47
233.58	10.51
233.797	11.61
234.013	11.75
234.23	13.12
234.446	12.58
234.662	13.41
234.879	15.15
235.095	17.05
235.312	17.64
235.528	14.5
235.744	14.81
235.961	15.85
236.177	14.65
236.393	11.46
236.61	9.58
236.826	11.36
237.042	11.82
237.258	8.72
237.475	7.96
237.691	10.33
237.907	11.25
238.123	14.15
238.339	13.85
238.556	14.4
238.772	14.92
238.988	14.99
239.204	14.43
239.42	14.19
239.636	14
239.853	12.25
240.069	11.03
240.285	11.18
240.501	9.84
240.717	9.39
240.933	9.42
241.149	10.34
241.365	10.5
241.581	10.29
241.797	10.2
242.013	10.55
242.229	11.52
242.445	11.46
242.661	11.75
242.877	12.73
243.093	12.85
243.309	12.6
243.525	12.31
243.741	12.58
243.957	13.04
244.173	13.19
244.388	12.49
244.604	12.05
244.82	12.1
245.036	11.51
245.252	11.25
245.468	11.66
245.683	11.98
245.899	11.44
246.115	11.34
246.331	11.17
246.547	10.98
246.762	10.93
246.978	10.95
247.194	10.47
247.409	10.09
247.625	10.08
247.841	10.21
248.057	9.24
248.272	9.71
248.488	9.13
248.703	8.92
248.919	8.28
249.135	8.05
249.35	7.69
249.566	8.32
249.782	8.43
249.997	8.14
250.213	8.03
250.428	9.04
250.644	8.77
250.859	9.24
251.075	9.71
251.29	10.28
251.506	11.11
251.721	11.57
251.937	11.36
252.152	11.61
252.368	12.55
252.583	11.63
252.798	11.46
253.014	12.56
253.229	11.82
253.445	11
253.66	11.1
253.875	10.45
254.091	9.41
254.306	9.69
254.521	10.15
254.737	9.2
254.952	10.36
255.167	9.18
255.383	8.56
255.598	9.55
255.813	9.81
256.028	9.63
256.244	9.88
256.459	10.05
256.674	9.79
256.889	9.57
257.104	8.84
257.32	8.7
257.535	8.74
257.75	8.58
257.965	8.19
258.18	7.68
258.395	7.72
258.61	7.8
258.826	7.45
259.041	7.24
259.256	7.11
259.471	7.69
259.686	7.16
259.901	7.18
260.116	7.12
260.331	7.21
260.546	7.54
260.761	7.63
260.976	7.17
261.191	7.77
261.406	8.25
261.621	8.93
261.836	8.47
262.05	8.95
262.265	9.3
262.48	9.18
262.695	8.89
262.91	8.83
263.125	8.46
263.34	8.94
263.555	8.59
263.769	8.46
263.984	8.04
264.199	7.88
264.414	6.95
264.629	7.36
264.843	7.75
265.058	7.26
265.273	7.71
265.488	7.45
265.702	7.1
265.917	7.06
266.132	6.53
266.346	6.3
266.561	6.16
266.776	6.89
266.99	6.83
267.205	7.02
267.42	7.91
267.634	8.07
267.849	7.77
268.063	7.2
268.278	7.08
268.492	8.05
268.707	8.67
268.922	8.51
269.136	8.21
269.351	7.47
269.565	6.81
269.78	5.95
269.994	5.5
270.209	5.63
270.423	5.96
270.637	6.31
270.852	5.9
271.066	5.08
271.281	5.07
271.495	5.36
271.709	5.84
271.924	5.81
272.138	6.21
272.353	6.61
272.567	6.13
272.781	6.24
272.996	5.87
273.21	6.04
273.424	6.51
273.638	7.21
273.853	7.38
274.067	7.19
274.281	7.2
274.495	7.53
274.71	7.13
274.924	7.72
275.138	7.68
275.352	8.29
275.566	8.29
275.781	8.45
275.995	7.43
276.209	7.21
276.423	6.98
276.637	6.88
276.851	6.43
277.065	6.06
277.279	6.56
277.493	6.84
277.707	5.94
277.921	5.43
278.135	5.15
278.349	5.59
278.563	5.41
278.777	5.57
278.991	5.59
279.205	5.75
279.419	6.09
279.633	5.4
279.847	5.5
280.061	6.1
280.275	6.2
280.489	6.19
280.703	6.65
280.917	6.75
281.131	6.8
281.344	6.57
281.558	6.46
281.772	6.36
281.986	6.6
282.2	6.22
282.414	5.78
282.627	5.85
282.841	5.71
283.055	5.45
283.269	5.47
283.482	5.54
283.696	5.86
283.91	5.74
284.123	5.99
284.337	6.38
284.551	6.62
284.764	6.83
284.978	6.71
285.192	6.94
285.405	6.96
285.619	7
285.833	6.88
286.046	7.07
286.26	7.49
286.473	7.65
286.687	7.33
286.9	7.49
287.114	7.77
287.327	8.24
287.541	8.59
287.754	8.9
287.968	8.84
288.181	8.5
288.395	8.29
288.608	7.84
288.822	7.79
289.035	8.05
289.248	8.03
289.462	8.14
289.675	7.62
289.889	7.55
290.102	7.11
290.315	7.19
290.529	7.7
290.742	7.94
290.955	8.16
291.169	7.87
291.382	7.55
291.595	7.38
291.808	7.29
292.022	7.56
292.235	7.89
292.448	7.89
292.661	7.89
292.875	7.63
293.088	7.54
293.301	7.71
293.514	8.02
293.727	7.87
293.94	7.73
294.153	7.86
294.367	7.89
294.58	7.61
294.793	8.05
295.006	8.41
295.219	8.59
295.432	8.63
295.645	8.57
295.858	8.38
296.071	8.64
296.284	8.99
296.497	8.91
296.71	9
296.923	9.17
297.136	8.91
297.349	8.47
297.562	8.56
297.775	8.93
297.988	9
298.201	9.45
298.414	9.33
298.626	9.09
298.839	9.17
299.052	9.22
299.265	8.7
299.478	8.86
299.691	9.01
299.903	8.87
300.116	8.48
300.329	8.45
300.542	8.06
300.755	8.26
300.967	8.18
301.18	8.35
301.393	8.52
301.605	8.69
301.818	8.38
302.031	8.74
302.243	8.97
302.456	9.04
302.669	8.98
302.881	9.04
303.094	9.11
303.307	9.15
303.519	8.89
303.732	8.66
303.944	8.83
304.157	9.03
304.37	9.13
304.582	8.83
304.795	8.95
305.007	9.11
305.22	9.13
305.432	9.09
305.645	8.93
305.857	8.96
306.069	9.12
306.282	9.16
306.494	9.44
306.707	9.28
306.919	9.83
307.132	9.56
307.344	10.07
307.556	10.2
307.769	10.23
307.981	10.59
308.193	10.2
308.406	10.16
308.618	9.97
308.83	9.85
309.043	9.74
309.255	9.55
309.467	9.45
309.679	9.2
309.892	8.83
310.104	8.8
310.316	8.83
310.528	9.29
310.74	9.06
310.953	9.17
311.165	8.65
311.377	8.94
311.589	8.75
311.801	9.2
312.013	8.8
312.225	9.12
312.437	9.33
312.649	9.1
312.862	8.94
313.074	9.02
313.286	9.11
313.498	9.29
313.71	9.02
313.922	8.89
314.134	8.45
314.346	8.65
314.558	8.62
314.77	8.23
314.982	8.2
315.193	8.28
315.405	8.05
315.617	7.89
315.829	8.48
316.041	8.36
316.253	8.87
316.465	9.43
316.677	9.59
316.888	9.77
317.1	10.14
317.312	10.42
317.524	9.99
317.736	10.45
317.947	10.98
318.159	10.68
318.371	10.55
318.583	9.97
318.794	9.6
319.006	9.41
319.218	9
319.43	9.1
319.641	8.94
319.853	9.23
320.064	9.33
320.276	8.89
320.488	9.14
320.699	8.86
320.911	9.94
321.123	9.8
321.334	10.17
321.546	10.44
321.757	9.83
321.969	9.59
322.18	9.53
322.392	9.29
322.603	9.68
322.815	9.26
323.026	9.97
323.238	9.29
323.449	9.21
323.661	8.63
323.872	9.09
324.083	9.55
324.295	9.77
324.506	9.89
324.718	9.84
324.929	9.5
325.14	10.19
325.352	9.89
325.563	10.26
325.774	10.25
325.986	10.29
326.197	10.03
326.408	9.91
326.62	9.71
326.831	9.35
327.042	9.6
327.253	9.72
327.464	9.14
327.676	9.28
327.887	8.58
328.098	8.94
328.309	9.1
328.52	8.65
328.732	8.34
328.943	8.73
329.154	9.27
329.365	9.14
329.576	8.96
329.787	9.27
329.998	9.15
330.209	9.69
330.42	9.23
330.631	9.58
330.842	9.59
331.053	9.69
331.264	9.12
331.475	8.88
331.686	9.05
331.897	9.27
332.108	8.83
332.319	9.08
332.53	8.97
332.741	9.28
332.952	8.98
333.163	9.14
333.374	9.46
333.585	9.71
333.795	9.77
334.006	9.31
334.217	9.07
334.428	9.6
334.639	9.21
334.849	9.3
335.06	9.08
335.271	8.98
335.482	9.28
335.692	8.88
335.903	9.2
336.114	8.96
336.325	8.92
336.535	9.32
336.746	8.73
336.957	8.42
337.167	8
337.378	7.64
337.589	8.05
337.799	7.53
338.01	7.94
338.22	7.91
338.431	7.84
338.642	8.28
338.852	7.72
339.063	8.12
339.273	8.39
339.484	8.42
339.694	8.9
339.905	8.77
340.115	9.07
340.326	8.57
340.536	7.96
340.746	7.88
340.957	7.99
341.167	7.73
341.378	7.75
341.588	7.68
341.799	7.78
342.009	7.5
342.219	7.04
342.43	6.95
342.64	7.27
342.85	7.49
343.061	7.69
343.271	7.19
343.481	7.57
343.691	7.43
343.902	7.51
344.112	7.65
344.322	7.9
344.532	7.96
344.743	8.15
344.953	7.88
345.163	8.05
345.373	8.14
345.583	8.31
345.793	8.19
346.004	8.12
346.214	8.32
346.424	8.06
346.634	8.07
346.844	7.98
347.054	7.6
347.264	7.74
347.474	7.94
347.684	7.93
347.894	7.7
348.104	7.69
348.314	7.58
348.524	7.38
348.734	7.52
348.944	7.22
349.154	7.45
349.364	7.78
349.574	7.73
349.784	7.51
349.994	7.5
350.204	7.73
350.413	7.8
350.623	8.07
350.833	7.84
351.043	7.85
351.253	8.09
351.463	7.93
351.672	7.77
351.882	7.72
352.092	7.32
352.302	7.27
352.511	7.07
352.721	7.09
352.931	6.85
353.141	7.05
353.35	6.82
353.56	6.69
353.77	6.84
353.979	6.75
354.189	6.79
354.399	7.17
354.608	7.09
354.818	7.2
355.027	7.4
355.237	6.98
355.447	6.83
355.656	6.73
355.866	6.53
356.075	6.5
356.285	6.38
356.494	6.29
356.704	6.06
356.913	6.09
357.123	6.13
357.332	5.83
357.542	6.6
357.751	6.85
357.96	7.1
358.17	7.61
358.379	7.47
358.589	7.63
358.798	7.64
359.007	7.63
359.217	7.43
359.426	7.32
359.635	7.33
359.845	6.96
360.054	6.84
360.263	6.94
360.472	6.55
360.682	6.68
360.891	6.61
361.1	6.74
361.309	6.67
361.519	6.68
361.728	6.55
361.937	6.61
362.146	6.79
362.355	6.64
362.564	6.47
362.774	6.6
362.983	6.5
363.192	6.47
363.401	6.42
363.61	6.32
363.819	6.63
364.028	6.7
364.237	6.55
364.446	6.41
364.655	6.43
364.864	6.52
365.073	6.46
365.282	6.65
365.491	6.77
365.7	6.66
365.909	6.73
366.118	6.36
366.327	6.51
366.536	6.73
366.745	6.72
366.954	6.69
367.162	6.62
367.371	6.79
367.58	6.7
367.789	6.55
367.998	6.64
368.207	6.72
368.415	6.75
368.624	6.61
368.833	6.37
369.042	6.53
369.25	6.4
369.459	6.49
369.668	6.35
369.877	6.19
370.085	5.96
370.294	5.82
370.503	5.8
370.711	5.83
370.92	5.81
371.129	5.47
371.337	5.19
371.546	5.22
371.754	5.1
371.963	4.99
372.171	5.1
372.38	5.14
372.589	5.29
372.797	5.18
373.006	5.29
373.214	5.42
373.423	5.71
373.631	5.77
373.84	5.87
374.048	6.09
374.256	6.07
374.465	6.01
374.673	6.26
374.882	6.26
375.09	6.42
375.298	6.46
375.507	6.51
375.715	6.53
375.923	6.57
376.132	6.74
376.34	6.6
376.548	6.76
376.757	6.78
376.965	6.55
377.173	6.23
377.381	6.06
377.59	5.92
377.798	5.74
378.006	5.65
378.214	5.84
378.423	5.85
378.631	5.54
378.839	5.46
379.047	5.43
379.255	5.57
379.463	5.74
379.671	6.05
379.879	5.94
380.088	5.93
380.296	6.02
380.504	5.69
380.712	5.63
380.92	5.77
381.128	5.66
381.336	5.48
381.544	5.41
381.752	5.34
381.96	5.18
382.168	5.44
382.376	5.4
382.584	5.15
382.791	5.15
382.999	4.99
383.207	5.02
383.415	5.12
383.623	5.32
383.831	5.18
384.039	5.15
384.247	5.16
384.454	4.81
384.662	4.84
384.87	5.11
385.078	5.02
385.285	5.09
385.493	5.07
385.701	5.07
385.909	4.87
386.116	5.22
386.324	5.24
386.532	5
386.739	5.21
386.947	5.06
387.155	5.14
387.362	5.26
387.57	5.23
387.778	5.08
387.985	5.08
388.193	5.12
388.4	4.84
388.608	4.91
388.816	4.89
389.023	4.89
389.231	5.04
389.438	4.79
389.646	4.8
389.853	4.84
390.061	4.94
390.268	4.74
390.475	4.84
390.683	4.71
390.89	4.6
391.098	4.75
391.305	4.87
391.512	4.79
391.72	4.76
391.927	4.6
392.135	4.66
392.342	4.53
392.549	4.71
392.756	4.63
392.964	4.94
393.171	4.97
393.378	5
393.586	4.75
393.793	4.81
394	4.89
394.207	5.13
394.414	4.92
394.622	5.02
394.829	4.89
395.036	4.76
395.243	4.65
395.45	4.54
395.657	4.37
395.864	4.61
396.072	4.77
396.279	4.79
396.486	4.65
396.693	4.69
396.9	4.65
397.107	4.82
397.314	4.86
397.521	4.69
397.728	4.84
397.935	4.82
398.142	4.47
398.349	4.3
398.556	4.36
398.763	4.38
398.97	4.46
399.177	4.4
399.383	4.32
399.59	4.49
399.797	4.66
400.004	4.69
400.211	4.67
400.418	4.9
400.625	4.95
400.831	4.83
401.038	4.79
401.245	4.71
401.452	4.64
401.658	4.66
401.865	4.68
402.072	4.61
402.279	4.32
402.485	4.3
402.692	4.39
402.899	4.26
403.105	4.2
403.312	4.38
403.519	4.35
403.725	4.65
403.932	4.59
404.138	4.37
404.345	4.26
404.552	4.35
404.758	4.47
404.965	4.33
405.171	4.44
405.378	4.47
405.584	4.33
405.791	4.43
405.997	4.19
406.204	4.01
406.41	4.24
406.617	4.34
406.823	4.39
407.029	4.06
407.236	4.04
407.442	4.08
407.649	4.15
407.855	4.38
408.061	4.22
408.268	4.05
408.474	4.35
408.68	4.14
408.887	4.2
409.093	4.15
409.299	4.47
409.505	4.5
409.712	4.36
409.918	4.35
410.124	4.18
410.33	4.21
410.537	4.36
410.743	4.23
410.949	4.17
411.155	4.11
411.361	4.32
411.567	4.16
411.773	4.15
411.98	4.15
412.186	4.22
412.392	4.13
412.598	4.03
412.804	3.96
413.01	3.92
413.216	4.01
413.422	3.96
413.628	3.89
413.834	4.09
414.04	3.95
414.246	3.98
414.452	3.93
414.658	4
414.864	4.12
415.07	4.26
415.275	4.23
415.481	4.07
415.687	4.17
415.893	4.04
416.099	4
416.305	4.16
416.511	4.17
416.716	4.07
416.922	4.03
417.128	4.1
417.334	4.11
417.539	4.07
417.745	4.15
417.951	4.06
418.157	4.08
418.362	3.96
418.568	3.88
418.774	3.9
418.979	3.95
419.185	3.85
419.391	3.82
419.596	3.71
419.802	3.74
420.008	3.72
420.213	3.75
420.419	3.74
420.624	3.81
420.83	3.79
421.035	3.71
421.241	3.74
421.446	3.83
421.652	3.81
421.857	3.9
422.063	3.99
422.268	4.03
422.474	3.96
422.679	3.99
422.885	4
423.09	4.07
423.295	4.04
423.501	3.98
423.706	3.94
423.911	3.86
424.117	3.83
424.322	3.69
424.527	3.66
424.733	3.74
424.938	3.72
425.143	3.68
425.349	3.68
425.554	3.85
425.759	3.84
425.964	3.88
426.169	3.98
426.375	4.05
426.58	4
426.785	3.98
426.99	3.92
427.195	3.79
427.4	3.68
427.605	3.56
427.811	3.38
428.016	3.39
428.221	3.3
428.426	3.34
428.631	3.23
428.836	3.4
429.041	3.47
429.246	3.46
429.451	3.5
429.656	3.58
429.861	3.66
430.066	3.65
430.271	3.68
430.476	3.81
430.681	3.77
430.886	3.74
431.09	3.73
431.295	3.65
431.5	3.68
431.705	3.75
431.91	3.79
432.115	3.79
432.32	3.75
432.524	3.65
432.729	3.62
432.934	3.46
433.139	3.51
433.343	3.39
433.548	3.42
433.753	3.38
433.958	3.43
434.162	3.42
434.367	3.34
434.572	3.31
434.776	3.42
434.981	3.42
435.186	3.6
435.39	3.51
435.595	3.59
435.799	3.64
436.004	3.6
436.209	3.53
436.413	3.51
436.618	3.55
436.822	3.71
437.027	3.69
437.231	3.67
437.436	3.51
437.64	3.48
437.845	3.43
438.049	3.26
438.253	3.33
438.458	3.46
438.662	3.47
438.867	3.47
439.071	3.46
439.275	3.47
439.48	3.44
439.684	3.6
439.888	3.62
440.093	3.7
440.297	3.92
440.501	3.9
440.706	3.78
440.91	3.78
441.114	3.83
441.318	3.76
441.523	3.69
441.727	3.71
441.931	3.65
442.135	3.61
442.339	3.48
442.543	3.32
442.748	3.35
442.952	3.33
443.156	3.34
443.36	3.28
443.564	3.38
443.768	3.38
443.972	3.39
444.176	3.39
444.38	3.47
444.584	3.57
444.788	3.57
444.992	3.51
445.196	3.5
445.4	3.49
445.604	3.45
445.808	3.41
446.012	3.45
446.216	3.45
446.42	3.45
446.624	3.38
446.828	3.32
447.032	3.33
447.235	3.36
447.439	3.47
447.643	3.45
447.847	3.48
448.051	3.51
448.254	3.57
448.458	3.58
448.662	3.57
448.866	3.62
449.069	3.59
449.273	3.67
449.477	3.68
449.681	3.55
449.884	3.65
450.088	3.68
450.292	3.52
450.495	3.37
450.699	3.39
450.902	3.45
451.106	3.49
451.31	3.51
451.513	3.46
451.717	3.42
451.92	3.46
452.124	3.32
452.327	3.29
452.531	3.39
452.734	3.52
452.938	3.46
453.141	3.41
453.345	3.38
453.548	3.46
453.752	3.45
453.955	3.47
454.158	3.44
454.362	3.48
454.565	3.54
454.769	3.6
454.972	3.59
455.175	3.47
455.379	3.5
455.582	3.44
455.785	3.38
455.988	3.4
456.192	3.39
456.395	3.32
456.598	3.36
456.801	3.42
457.005	3.37
457.208	3.36
457.411	3.47
457.614	3.4
457.817	3.48
458.021	3.49
458.224	3.47
458.427	3.5
458.63	3.57
458.833	3.59
459.036	3.46
459.239	3.38
459.442	3.33
459.645	3.38
459.848	3.44
460.051	3.42
460.254	3.5
460.457	3.46
460.66	3.46
460.863	3.45
461.066	3.42
461.269	3.53
461.472	3.59
461.675	3.51
461.878	3.38
462.081	3.46
462.284	3.48
462.486	3.43
462.689	3.48
462.892	3.43
463.095	3.46
463.298	3.48
463.5	3.36
463.703	3.45
463.906	3.54
464.109	3.56
464.311	3.47
464.514	3.34
464.717	3.23
464.92	3.29
465.122	3.26
465.325	3.29
465.528	3.35
465.73	3.36
465.933	3.33
466.135	3.32
466.338	3.31
466.541	3.34
466.743	3.42
466.946	3.57
467.148	3.51
467.351	3.64
467.553	3.53
467.756	3.46
467.958	3.55
468.161	3.52
468.363	3.53
468.566	3.58
468.768	3.52
468.971	3.49
469.173	3.38
469.375	3.36
469.578	3.26
469.78	3.29
469.983	3.15
470.185	3.03
470.387	3.04
470.59	3.11
470.792	3.08
470.994	3.08
471.196	3.1
471.399	3.12
471.601	3.14
471.803	3.15
472.005	3.28
472.208	3.41
472.41	3.53
472.612	3.53
472.814	3.45
473.016	3.47
473.218	3.47
473.421	3.57
473.623	3.52
473.825	3.65
474.027	3.67
474.229	3.54
474.431	3.5
474.633	3.51
474.835	3.5
475.037	3.56
475.239	3.58
475.441	3.56
475.643	3.56
475.845	3.54
476.047	3.42
476.249	3.36
476.451	3.42
476.653	3.55
476.855	3.54
477.057	3.58
477.258	3.57
477.46	3.51
477.662	3.43
477.864	3.29
478.066	3.38
478.268	3.44
478.469	3.5
478.671	3.42
478.873	3.33
479.075	3.27
479.276	3.24
479.478	3.23
479.68	3.2
479.882	3.25
480.083	3.33
480.285	3.26
480.487	3.21
480.688	3.15
480.89	3.23
481.091	3.21
481.293	3.25
481.495	3.21
481.696	3.18
481.898	3.2
482.099	3.2
482.301	3.17
482.502	3.17
482.704	3.17
482.905	3.18
483.107	3.16
483.308	3.16
483.51	3.15
483.711	3.2
483.913	3.24
484.114	3.24
484.315	3.22
484.517	3.28
484.718	3.28
484.92	3.27
485.121	3.29
485.322	3.25
485.524	3.27
485.725	3.28
485.926	3.24
486.127	3.22
486.329	3.25
486.53	3.3
486.731	3.24
486.932	3.28
487.134	3.33
487.335	3.3
487.536	3.33
487.737	3.34
487.938	3.29
488.139	3.32
488.341	3.31
488.542	3.32
488.743	3.33
488.944	3.34
489.145	3.29
489.346	3.26
489.547	3.27
489.748	3.25
489.949	3.21
490.15	3.21
490.351	3.2
490.552	3.23
490.753	3.22
490.954	3.2
491.155	3.22
491.356	3.26
491.557	3.27
491.758	3.3
491.959	3.32
492.159	3.38
492.36	3.41
492.561	3.43
492.762	3.42
492.963	3.43
493.164	3.44
493.364	3.42
493.565	3.34
493.766	3.37
493.967	3.36
494.167	3.4
494.368	3.42
494.569	3.49
494.769	3.52
494.97	3.53
495.171	3.54
495.371	3.52
495.572	3.57
495.773	3.62
495.973	3.61
496.174	3.58
496.375	3.57
496.575	3.51
496.776	3.47
496.976	3.47
497.177	3.42
497.377	3.47
497.578	3.47
497.778	3.38
497.979	3.32
498.179	3.33
498.38	3.39
498.58	3.34
498.78	3.41
498.981	3.34
499.181	3.39
499.382	3.53
499.582	3.44
499.782	3.46
499.983	3.56
500.183	3.73
500.383	3.74
500.584	3.67
500.784	3.75
500.984	3.71
501.184	3.81
501.385	3.79
501.585	3.74
501.785	3.73
501.985	3.74
502.185	3.7
502.386	3.69
502.586	3.68
502.786	3.76
502.986	3.8
503.186	3.86
503.386	3.88
503.586	3.9
503.786	3.98
503.987	4.05
504.187	4.14
504.387	4.11
504.587	4.12
504.787	4.15
504.987	4.17
505.187	4.13
505.387	4.11
505.587	4.09
505.786	4.12
505.986	4.12
506.186	4.12
506.386	4.1
506.586	4.22
506.786	4.17
506.986	4.1
507.186	4.11
507.386	4.17
507.585	4.13
507.785	4.19
507.985	4.15
508.185	4.05
508.384	4.03
508.584	3.97
508.784	3.91
508.984	3.94
509.183	3.96
509.383	3.91
509.583	3.87
509.782	3.94
509.982	3.98
510.182	4.01
510.381	4.1
510.581	4.15
510.781	4.22
510.98	4.25
511.18	4.28
511.379	4.39
511.579	4.52
511.778	4.62
511.978	4.68
512.177	4.72
512.377	4.83
512.576	4.83
512.776	4.87
512.975	4.89
513.175	4.93
513.374	4.96
513.573	4.92
513.773	4.87
513.972	4.86
514.172	4.82
514.371	4.83
514.57	4.72
514.77	4.74
514.969	4.75
515.168	4.77
515.367	4.79
515.567	4.85
515.766	4.84
515.965	4.85
516.164	4.83
516.364	4.84
516.563	4.75
516.762	4.83
516.961	4.85
517.16	4.79
517.359	4.76
517.559	4.74
517.758	4.72
517.957	4.75
518.156	4.75
518.355	4.74
518.554	4.74
518.753	4.81
518.952	4.84
519.151	4.87
519.35	5
519.549	5.14
519.748	5.19
519.947	5.31
520.146	5.32
520.345	5.38
520.544	5.45
520.743	5.61
520.942	5.66
521.141	5.63
521.339	5.57
521.538	5.62
521.737	5.67
521.936	5.72
522.135	5.63
522.333	5.58
522.532	5.59
522.731	5.61
522.93	5.59
523.129	5.57
523.327	5.55
523.526	5.59
523.725	5.57
523.923	5.51
524.122	5.52
524.321	5.49
524.519	5.62
524.718	5.64
524.917	5.63
525.115	5.61
525.314	5.63
525.512	5.64
525.711	5.67
525.909	5.69
526.108	5.66
526.306	5.66
526.505	5.7
526.703	5.68
526.902	5.68
527.1	5.7
527.299	5.69
527.497	5.71
527.696	5.76
527.894	5.8
528.092	5.84
528.291	5.92
528.489	5.96
528.688	6.04
528.886	6.12
529.084	6.19
529.283	6.25
529.481	6.32
529.679	6.35
529.877	6.38
530.076	6.35
530.274	6.36
530.472	6.31
530.67	6.29
530.869	6.26
531.067	6.22
531.265	6.21
531.463	6.2
531.661	6.2
531.859	6.23
532.057	6.26
532.255	6.3
532.454	6.29
532.652	6.38
532.85	6.4
533.048	6.43
533.246	6.49
533.444	6.53
533.642	6.59
533.84	6.64
534.038	6.62
534.236	6.67
534.434	6.69
534.632	6.7
534.83	6.7
535.027	6.74
535.225	6.74
535.423	6.71
535.621	6.71
535.819	6.72
536.017	6.8
536.215	6.85
536.412	6.8
536.61	6.81
536.808	6.82
537.006	6.79
537.203	6.85
537.401	6.87
537.599	6.95
537.797	6.99
537.994	6.98
538.192	6.98
538.39	7.02
538.587	7.06
538.785	7.07
538.983	7.12
539.18	7.17
539.378	7.14
539.575	7.17
539.773	7.14
539.97	7.16
540.168	7.2
540.366	7.22
540.563	7.24
540.761	7.3
540.958	7.33
541.155	7.37
541.353	7.44
541.55	7.5
541.748	7.55
541.945	7.64
542.143	7.64
542.34	7.66
542.537	7.68
542.735	7.69
542.932	7.68
543.129	7.73
543.327	7.73
543.524	7.7
543.721	7.75
543.919	7.77
544.116	7.71
544.313	7.81
544.51	7.9
544.708	7.96
544.905	8.05
545.102	8.11
545.299	8.13
545.496	8.2
545.693	8.26
545.891	8.29
546.088	8.29
546.285	8.35
546.482	8.44
546.679	8.42
546.876	8.46
547.073	8.52
547.27	8.6
547.467	8.72
547.664	8.75
547.861	8.82
548.058	8.88
548.255	8.93
548.452	9.02
548.649	9.01
548.846	9.11
549.043	9.23
549.24	9.18
549.437	9.2
549.633	9.25
549.83	9.2
550.027	9.17
550.224	9.11
550.421	9.21
550.618	9.31
550.814	9.39
551.011	9.41
551.208	9.39
551.405	9.46
551.601	9.42
551.798	9.43
551.995	9.46
552.191	9.47
552.388	9.52
552.585	9.6
552.781	9.61
552.978	9.52
553.175	9.49
553.371	9.48
553.568	9.53
553.764	9.6
553.961	9.65
554.157	9.71
554.354	9.83
554.55	9.93
554.747	9.97
554.943	9.92
555.14	10.04
555.336	10.16
555.533	10.16
555.729	10.2
555.926	10.34
556.122	10.29
556.318	10.37
556.515	10.33
556.711	10.39
556.907	10.47
557.104	10.66
557.3	10.82
557.496	10.96
557.693	10.98
557.889	11.03
558.085	11.01
558.281	11.12
558.478	11.13
558.674	11.36
558.87	11.38
559.066	11.3
559.262	11.21
559.459	11.16
559.655	11
559.851	11.11
560.047	11.12
560.243	11.22
560.439	11.31
560.635	11.49
560.831	11.44
561.027	11.51
561.223	11.64
561.419	11.82
561.615	11.82
561.811	11.96
562.007	12.1
562.203	12.23
562.399	12.27
562.595	12.35
562.791	12.3
562.987	12.4
563.183	12.47
563.379	12.52
563.575	12.57
563.771	12.68
563.966	12.75
564.162	12.75
564.358	12.84
564.554	12.86
564.75	12.83
564.945	12.9
565.141	13.04
565.337	13.01
565.533	13.16
565.728	13.16
565.924	13.23
566.12	13.3
566.315	13.38
566.511	13.42
566.707	13.57
566.902	13.72
567.098	13.86
567.293	13.81
567.489	13.96
567.684	13.81
567.88	13.94
568.076	14.03
568.271	14.02
568.467	13.95
568.662	14
568.858	14.04
569.053	14.1
569.248	14.09
569.444	14.24
569.639	14.35
569.835	14.44
570.03	14.43
570.225	14.41
570.421	14.57
570.616	14.77
570.812	14.76
571.007	14.78
571.202	14.88
571.397	15.02
571.593	14.97
571.788	15.03
571.983	15.12
572.178	15.18
572.374	15.25
572.569	15.31
572.764	15.31
572.959	15.46
573.154	15.6
573.35	15.63
573.545	15.61
573.74	15.67
573.935	15.7
574.13	15.78
574.325	15.89
574.52	16.06
574.715	16.08
574.91	16.16
575.105	16.2
575.3	16.13
575.495	16.12
575.69	16.21
575.885	16.27
576.08	16.26
576.275	16.34
576.47	16.36
576.665	16.36
576.86	16.31
577.055	16.34
577.25	16.45
577.444	16.56
577.639	16.72
577.834	16.8
578.029	16.88
578.224	17
578.418	17.09
578.613	17.11
578.808	17.18
579.003	17.44
579.197	17.47
579.392	17.44
579.587	17.45
579.781	17.55
579.976	17.67
580.171	17.83
580.365	18.01
580.56	17.94
580.755	18.13
580.949	18.11
581.144	18.05
581.338	18
581.533	18.1
581.727	18.14
581.922	18.1
582.116	17.96
582.311	17.94
582.505	17.92
582.7	18.03
582.894	18.03
583.089	18.05
583.283	18.1
583.478	18.38
583.672	18.53
583.866	18.63
584.061	18.55
584.255	18.63
584.449	18.64
584.644	18.63
584.838	18.66
585.032	18.73
585.226	18.88
585.421	19.08
585.615	18.99
585.809	18.98
586.003	19.08
586.198	19.2
586.392	19.31
586.586	19.42
586.78	19.51
586.974	19.62
587.168	19.59
587.363	19.57
587.557	19.52
587.751	19.65
587.945	19.58
588.139	19.56
588.333	19.67
588.527	19.78
588.721	19.78
588.915	19.81
589.109	19.87
589.303	19.87
589.497	19.88
589.691	19.92
589.885	20.07
590.079	20.21
590.273	20.21
590.466	20.3
590.66	20.28
590.854	20.36
591.048	20.25
591.242	20.12
591.436	20.21
591.629	20.27
591.823	20.35
592.017	20.31
592.211	20.42
592.404	20.57
592.598	20.5
592.792	20.57
592.986	20.58
593.179	20.68
593.373	20.93
593.567	21.07
593.76	21.23
593.954	21.27
594.147	21.31
594.341	21.3
594.535	21.34
594.728	21.52
594.922	21.5
595.115	21.7
595.309	21.67
595.502	21.52
595.696	21.55
595.889	21.53
596.083	21.56
596.276	21.5
596.47	21.49
596.663	21.54
596.856	21.53
597.05	21.64
597.243	21.53
597.437	21.72
597.63	21.81
597.823	21.74
598.017	21.79
598.21	21.88
598.403	22.08
598.596	22.14
598.79	22.09
598.983	22
599.176	21.9
599.369	21.89
599.563	21.97
599.756	22.01
599.949	22.11
600.142	22.15
600.335	22.23
600.528	22.23
600.722	22.26
600.915	22.15
601.108	22.41
601.301	22.65
601.494	22.75
601.687	22.59
601.88	22.71
602.073	22.71
602.266	22.69
602.459	22.7
602.652	22.75
602.845	22.74
603.038	22.9
603.231	22.86
603.424	22.7
603.617	22.76
603.809	22.84
604.002	22.8
604.195	22.82
604.388	22.79
604.581	22.8
604.774	22.86
604.966	22.95
605.159	22.89
605.352	22.75
605.545	22.87
605.737	22.77
605.93	22.82
606.123	22.91
606.316	22.94
606.508	23.1
606.701	23.01
606.894	22.84
607.086	22.83
607.279	22.83
607.471	23.04
607.664	23.04
607.857	23.17
608.049	23.12
608.242	23.13
608.434	23.19
608.627	23.23
608.819	23.3
609.012	23.28
609.204	23.44
609.397	23.63
609.589	23.67
609.782	23.73
609.974	23.7
610.166	23.9
610.359	24.1
610.551	24.2
610.743	24.21
610.936	24.37
611.128	24.56
611.32	24.42
611.513	24.41
611.705	24.38
611.897	24.54
612.09	24.5
612.282	24.51
612.474	24.34
612.666	24.36
612.858	24.24
613.051	24.08
613.243	24.26
613.435	24.34
613.627	24.45
613.819	24.46
614.011	24.4
614.203	24.39
614.395	24.42
614.588	24.46
614.78	24.42
614.972	24.54
615.164	24.76
615.356	24.67
615.548	24.75
615.74	24.58
615.932	24.72
616.124	24.74
616.315	24.98
616.507	25.01
616.699	25.05
616.891	25.2
617.083	25.21
617.275	25.11
617.467	25.15
617.659	25.13
617.85	25.22
618.042	25.19
618.234	25.18
618.426	25.04
618.618	25.17
618.809	25.17
619.001	25.04
619.193	25.16
619.384	25.31
619.576	25.32
619.768	25.44
619.959	25.41
620.151	25.41
620.343	25.44
620.534	25.42
620.726	25.25
620.917	25.26
621.109	25.39
621.301	25.27
621.492	25.27
621.684	25.42
621.875	25.53
622.067	25.48
622.258	25.62
622.45	25.68
622.641	25.71
622.832	25.75
623.024	25.86
623.215	25.83
623.407	25.96
623.598	26.17
623.789	25.93
623.981	25.77
624.172	25.9
624.363	25.83
624.555	25.8
624.746	25.95
624.937	26.09
625.129	26.16
625.32	26.06
625.511	26.11
625.702	25.87
625.893	26.11
626.085	25.96
626.276	25.99
626.467	26.13
626.658	26.14
626.849	26.05
627.04	26.1
627.231	26
627.422	26.08
627.614	26.06
627.805	25.92
627.996	25.8
628.187	26.21
628.378	26.31
628.569	26.05
628.76	26.12
628.951	26.21
629.142	26.03
629.332	26.07
629.523	26.15
629.714	26.14
629.905	26.49
630.096	26.5
630.287	26.36
630.478	26.17
630.669	26.3
630.859	26.17
631.05	26.11
631.241	26.11
631.432	26.21
631.623	26.19
631.813	26.16
632.004	26.11
632.195	26.17
632.385	26.22
632.576	26.41
632.767	26.43
632.957	26.48
633.148	26.34
633.339	26.46
633.529	26.37
633.72	26.36
633.91	26.37
634.101	26.35
634.292	26.37
634.482	26.2
634.673	26.05
634.863	26.06
635.054	26.06
635.244	26.47
635.435	26.42
635.625	26.46
635.815	26.47
636.006	26.46
636.196	26.33
636.387	26.28
636.577	26.46
636.767	26.53
636.958	26.52
637.148	26.7
637.338	26.7
637.529	26.81
637.719	26.86
637.909	27.14
638.099	27.44
638.29	27.71
638.48	27.68
638.67	27.65
638.86	27.69
639.05	27.85
639.241	27.76
639.431	27.56
639.621	27.39
639.811	27.46
640.001	27.19
640.191	26.89
640.381	26.89
640.571	27.01
640.761	27.11
640.951	27.19
641.141	27.09
641.331	27.28
641.521	27.19
641.711	27.26
641.901	27.03
642.091	27.17
642.281	27.25
642.471	27.43
642.661	27.43
642.851	27.29
643.041	27.39
643.231	27.48
643.42	27.34
643.61	27.61
643.8	27.81
643.99	27.99
644.18	27.88
644.369	27.98
644.559	27.63
644.749	27.72
644.939	27.86
645.128	27.81
645.318	27.93
645.508	28.05
645.697	28.01
645.887	27.79
646.076	27.85
646.266	28.12
646.456	28.15
646.645	28.64
646.835	28.55
647.024	28.52
647.214	28.54
647.403	28.44
647.593	28.31
647.782	28.35
647.972	28.28
648.161	28.4
648.351	28.25
648.54	28.24
648.73	28.08
648.919	27.99
649.108	28.06
649.298	28.25
649.487	28.3
649.677	28.52
649.866	28.54
650.055	28.78
650.244	28.72
650.434	28.68
650.623	28.59
650.812	28.53
651.002	28.65
651.191	28.53
651.38	28.46
651.569	28.62
651.758	28.57
651.947	28.68
652.137	28.75
652.326	28.78
652.515	28.97
652.704	29.21
652.893	29.14
653.082	29.25
653.271	29.6
653.46	29.49
653.649	29.44
653.838	29.35
654.027	29.17
654.216	29.39
654.405	29.46
654.594	29.26
654.783	29.43
654.972	29.68
655.161	29.66
655.35	29.55
655.539	29.35
655.728	29.23
655.916	29.37
656.105	29.6
656.294	29.57
656.483	29.66
656.672	29.9
656.86	29.88
657.049	29.8
657.238	29.8
657.427	29.73
657.615	30.22
657.804	30.06
657.993	29.95
658.181	29.92
658.37	29.92
658.559	29.91
658.747	29.94
658.936	29.85
659.125	29.9
659.313	29.92
659.502	30.1
659.69	30
659.879	30.22
660.067	30.47
660.256	30.58
660.444	30.55
660.633	30.6
660.821	30.42
661.01	30.33
661.198	30.31
661.387	30.41
661.575	30.32
661.763	30.35
661.952	30.35
662.14	30.26
662.328	30.26
662.517	30.23
662.705	30.32
662.893	30.47
663.082	30.62
663.27	30.62
663.458	30.57
663.646	30.39
663.834	30.26
664.023	30.2
664.211	30.08
664.399	29.95
664.587	29.79
664.775	29.56
664.963	29.5
665.152	29.4
665.34	29.21
665.528	29.33
665.716	29.49
665.904	29.58
666.092	29.83
666.28	30.17
666.468	30.22
666.656	30.38
666.844	30.63
667.032	30.76
667.22	30.89
667.408	31.03
667.596	31.11
667.784	31.26
667.971	31.25
668.159	31.07
668.347	30.86
668.535	30.93
668.723	31.05
668.911	30.96
669.098	31.19
669.286	31.18
669.474	31.31
669.662	31.3
669.849	31.25
670.037	31.14
670.225	31.28
670.413	31.52
670.6	31.84
670.788	31.83
670.976	31.84
671.163	31.54
671.351	31.63
671.538	31.67
671.726	31.55
671.913	31.39
672.101	31.38
672.289	31.5
672.476	31.32
672.664	30.93
672.851	30.86
673.039	30.55
673.226	30.8
673.413	30.63
673.601	30.58
673.788	30.54
673.976	30.74
674.163	30.92
674.35	30.8
674.538	30.88
674.725	31.06
674.912	31.34
675.1	31.44
675.287	31.25
675.474	31.66
675.662	31.74
675.849	31.76
676.036	31.73
676.223	31.67
676.411	31.65
676.598	31.58
676.785	31.66
676.972	31.57
677.159	32.13
677.346	32.33
677.533	32.34
677.721	31.98
677.908	32.01
678.095	31.95
678.282	31.94
678.469	32.16
678.656	32.17
678.843	32.04
679.03	31.8
679.217	31.41
679.404	31.18
679.591	31.03
679.778	31.3
679.964	31.5
680.151	31.33
680.338	31.5
680.525	31.45
680.712	31.4
680.899	31.49
681.086	31.71
681.272	31.96
681.459	32.36
681.646	32.36
681.833	32.55
682.02	32.52
682.206	32.94
682.393	32.83
682.58	33.09
682.766	32.99
682.953	32.83
683.14	32.81
683.326	32.88
683.513	32.91
683.7	33.09
683.886	33.17
684.073	33.34
684.259	33.16
684.446	33.13
684.632	33.08
684.819	33.39
685.005	33.37
685.192	33.48
685.378	33.43
685.565	32.91
685.751	33.06
685.938	32.79
686.124	32.68
686.31	33.02
686.497	33.04
686.683	32.76
686.87	32.91
687.056	32.91
687.242	32.83
687.429	32.88
687.615	33.25
687.801	32.85
687.987	32.9
688.174	32.97
688.36	32.9
688.546	32.96
688.732	32.97
688.918	32.77
689.105	32.92
689.291	32.87
689.477	32.88
689.663	32.69
689.849	32.91
690.035	33.07
690.221	33.08
690.407	32.91
690.593	32.99
690.779	33.36
690.965	33.28
691.151	33.3
691.337	33.46
691.523	33.4
691.709	33.76
691.895	33.72
692.081	33.53
692.267	33.44
692.453	33.62
692.639	33.63
692.825	33.35
693.011	33.5
693.196	33.73
693.382	33.75
693.568	33.83
693.754	33.59
693.94	33.41
694.125	33.64
694.311	33.71
694.497	33.97
694.682	33.81
694.868	33.94
695.054	34.23
695.239	34.07
695.425	34.11
695.611	34.17
695.796	34.33
695.982	34.6
696.168	34.42
696.353	34.3
696.539	34.31
696.724	34.48
696.91	34.32
697.095	34.06
697.281	34.05
697.466	33.89
697.652	33.71
697.837	33.55
698.023	33.41
698.208	33.43
698.393	33.43
698.579	33.25
698.764	33.23
698.949	33.15
699.135	33.2
699.32	33.08
699.505	33.1
699.691	33.13
699.876	33.25
700.061	33.01
700.246	32.93
700.432	32.82
700.617	32.55
700.802	32.43
700.987	32.59
701.172	32.65
701.358	32.8
701.543	33.27
701.728	33.55
701.913	33.73
702.098	34.08
702.283	34.46
702.468	34.41
702.653	34.56
702.838	34.62
703.023	34.81
703.208	34.93
703.393	34.94
703.578	34.55
703.763	34.1
703.948	34.02
704.133	34.19
704.318	33.93
704.503	34.3
704.688	34.62
704.873	34.59
705.057	34.62
705.242	34.39
705.427	34.51
705.612	34.71
705.797	34.55
705.981	34.4
706.166	34.2
706.351	34.29
706.536	34.06
706.72	33.74
706.905	34.07
707.09	33.82
707.274	33.93
707.459	33.72
707.644	33.51
707.828	34.03
708.013	34.05
708.197	34.07
708.382	34.27
708.567	34.45
708.751	34.83
708.936	34.92
709.12	34.86
709.305	35.02
709.489	35.05
709.673	35.17
709.858	34.91
710.042	35.09
710.227	35.09
710.411	35.01
710.596	34.99
710.78	34.63
710.964	34.32
711.149	34.44
711.333	34.27
711.517	34.48
711.702	34.77
711.886	34.89
712.07	34.79
712.254	34.77
712.438	34.76
712.623	34.92
712.807	34.99
712.991	35.27
713.175	35.08
713.359	34.95
713.544	34.73
713.728	34.08
713.912	33.84
714.096	33.85
714.28	33.73
714.464	33.68
714.648	33.6
714.832	33.49
715.016	33.33
715.2	33.75
715.384	33.98
715.568	34.13
715.752	34.63
715.936	34.75
716.12	34.71
716.304	35.01
716.488	34.8
716.671	34.59
716.855	35
717.039	34.48
717.223	34.17
717.407	33.95
717.59	33.74
717.774	33.46
717.958	33.36
718.142	33.69
718.325	33.53
718.509	34.01
718.693	34.37
718.877	34.13
719.06	35.06
719.244	35.18
719.428	35.86
719.611	35.98
719.795	36.34
719.978	36.38
720.162	36.08
720.345	35.9
720.529	35.6
720.713	35.52
720.896	35.46
721.08	35.38
721.263	35.34
721.446	34.7
721.63	35
721.813	34.5
721.997	34.84
722.18	34.89
722.364	35.29
722.547	35.32
722.73	34.85
722.914	35.33
723.097	34.5
723.28	34.5
723.464	34.39
723.647	34.04
723.83	34.07
724.013	34.15
724.197	34.37
724.38	34.02
724.563	34.14
724.746	34.23
724.929	33.88
725.112	33.94
725.296	34.02
725.479	34.27
725.662	34.37
725.845	34.75
726.028	34.81
726.211	34.74
726.394	34.87
726.577	34.53
726.76	35.26
726.943	34.75
727.126	34.85
727.309	34.69
727.492	34.59
727.675	34.78
727.858	34.74
728.041	34.83
728.224	34.52
728.407	34.82
728.589	34.81
728.772	34.34
728.955	35.15
729.138	35.63
729.321	35.96
729.503	35.71
729.686	35.63
729.869	35.61
730.052	35.41
730.234	35.75
730.417	35.5
730.6	35.54
730.782	35.4
730.965	35.32
731.148	35.29
731.33	35.52
731.513	36.02
731.695	35.73
731.878	35.53
732.061	35.74
732.243	35.68
732.426	35.82
732.608	36.11
732.791	36.45
732.973	36.31
733.156	35.76
733.338	35.37
733.52	35.08
733.703	35.1
733.885	34.87
734.068	34.42
734.25	34.09
734.432	34.06
734.615	34.02
734.797	34.59
734.979	34.86
735.162	35.53
735.344	35.98
735.526	35.96
735.708	36.1
735.891	36.99
736.073	36.86
736.255	37.05
736.437	37.19
736.619	37.44
736.802	36.71
736.984	36.09
737.166	35.61
737.348	35.23
737.53	34.87
737.712	35.19
737.894	34.62
738.076	34.52
738.258	34.49
738.44	34.49
738.622	33.97
738.804	33.54
738.986	34.84
739.168	35.5
739.35	35.49
739.532	35.82
739.714	35.73
739.896	36.01
740.078	36.96
740.259	37.36
740.441	37.69
740.623	37.84
740.805	38.12
740.987	37.18
741.168	37.02
741.35	37.23
741.532	37.04
741.714	37.19
741.895	37
742.077	36.56
742.259	36.21
742.44	36.1
742.622	36.39
742.804	36.67
742.985	36.76
743.167	36.89
743.348	36.29
743.53	36.72
743.711	36.29
743.893	35.88
744.075	35.89
744.256	35.48
744.438	35.17
744.619	35.48
744.8	36.05
744.982	35.59
745.163	34.92
745.345	35.42
745.526	34.79
745.707	34.07
745.889	34.44
746.07	33.93
746.252	34.86
746.433	34.79
746.614	34.29
746.795	33.7
746.977	33.79
747.158	33.69
747.339	34.07
747.52	34.56
747.702	36.06
747.883	36.5
748.064	37.19
748.245	36.98
748.426	36.74
748.607	37.09
748.788	37.11
748.97	37.43
749.151	37.38
749.332	36.48
749.513	36.42
749.694	35.88
749.875	36.06
750.056	35.8
750.237	35.81
750.418	35.9
750.599	35.6
750.78	35.16
750.96	35.26
751.141	35.55
751.322	35.73
751.503	35.87
751.684	36.13
751.865	36.24
752.046	36
752.226	35.73
752.407	35.81
752.588	35.64
752.769	35.46
752.949	35.05
753.13	35.5
753.311	36.4
753.492	36.34
753.672	36.86
753.853	35.88
754.034	36.34
754.214	36.42
754.395	36.61
754.575	36.32
754.756	36.23
754.937	37.04
755.117	36.81
755.298	36.11
755.478	36.07
755.659	35.68
755.839	35.99
756.02	35.86
756.2	35.93
756.381	35.63
756.561	36.23
756.741	36.63
756.922	36.15
757.102	35.55
757.283	35.74
757.463	36.05
757.643	35.34
757.823	35.17
758.004	35.44
758.184	35.25
758.364	35.57
758.545	34.97
758.725	35.49
758.905	34.92
759.085	35.55
759.265	35.34
759.446	35.2
759.626	35.6
759.806	35.77
759.986	36.03
760.166	36
760.346	36.28
760.526	36.9
760.706	36.93
760.886	36.92
761.066	37.06
761.246	37.31
761.426	37.52
761.606	37.31
761.786	37.35
761.966	36.94
762.146	36.83
762.326	36.46
762.506	36.27
762.686	36.35
762.866	36.1
763.046	35.74
763.225	35.59
763.405	35.1
763.585	35.34
763.765	35.48
763.945	35.56
764.124	35.51
764.304	35.63
764.484	35.43
764.664	34.92
764.843	35.4
765.023	35.22
765.203	35.27
765.382	35.71
765.562	35.48
765.741	35.3
765.921	35.27
766.101	35.39
766.28	35.37
766.46	35.7
766.639	36.23
766.819	36.76
766.998	37.35
767.178	37.34
767.357	37.26
767.537	37.2
767.716	37.06
767.896	36.69
768.075	36.71
768.254	37.02
768.434	37.47
768.613	37.04
768.792	36.31
768.972	36.53
769.151	36.18
769.33	35.62
769.51	35.7
769.689	36.47
769.868	36.69
770.047	36.68
770.226	36.34
770.406	35.99
770.585	35.96
770.764	35.48
770.943	35.29
771.122	35.38
771.301	36.23
771.48	36.83
771.66	35.95
771.839	35.41
772.018	35.79
772.197	35.73
772.376	35.32
772.555	36.16
772.734	37.24
772.913	36.58
773.092	36.22
773.271	35.21
773.449	34.87
773.628	35.39
773.807	36.49
773.986	36.11
774.165	36.23
774.344	36.34
774.523	36.55
774.701	36.16
774.88	36.71
775.059	38.34
775.238	39.41
775.417	39.13
775.595	38.54
775.774	38.08
775.953	38.3
776.131	38.73
776.31	38.26
776.489	37.34
776.667	37.11
776.846	37.37
777.025	36.73
777.203	36.5
777.382	35.93
777.56	36.09
777.739	35.91
777.917	36.26
778.096	35.85
778.274	37.27
778.453	36.84
778.631	38.33
778.81	38.43
778.988	38.09
779.166	38.11
779.345	38.99
779.523	39.29
779.702	38.94
779.88	37.68
780.058	37.5
780.237	36.17
780.415	37.13
780.593	37.07
780.771	37.43
780.95	36.97
781.128	37.21
781.306	37.84
781.484	37.26
781.662	37.87
781.841	38.12
782.019	37.69
782.197	38.29
782.375	37.95
782.553	36.74
782.731	35.95
782.909	36.64
783.087	37.73
783.265	36.87
783.443	36.41
783.621	36.57
783.799	38.11
783.977	38.65
784.155	38.95
784.333	38.1
784.511	38.81
784.689	38.75
784.867	38.27
785.045	37.08
785.223	36.78
785.4	37.92
785.578	37.43
785.756	36.16
785.934	35.7
786.112	35.17
786.289	36.13
786.467	35.86
786.645	36.86
786.823	36.95
787	37.3
787.178	37.6
787.356	37.34
787.533	37.14
787.711	38.54
787.889	38.57
788.066	38.94
788.244	38.77
788.421	38.64
788.599	38.61
788.776	38.38
788.954	38.23
789.131	38.68
789.309	38.51
789.486	39.19
789.664	37.83
789.841	38.74
790.019	38.34
790.196	38.79
790.373	38.48
790.551	37.58
790.728	38.13
790.906	37.77
791.083	37.4
791.26	37.49
791.437	37.7
791.615	38.47
791.792	38.18
791.969	38.82
792.146	38.19
792.324	39.38
792.501	38.42
792.678	39.01
792.855	39.08
793.032	38.39
793.209	38.76
793.387	39.13
793.564	38.34
793.741	38.73
793.918	38.45
794.095	38.76
794.272	38.22
794.449	39.05
794.626	39.04
794.803	39.46
794.98	40.48
795.157	40.06
795.334	39.17
795.511	39.6
795.688	40.21
795.864	40.16
796.041	39.53
796.218	39.29
796.395	39.77
796.572	39.3
796.749	38.65
796.925	38.44
797.102	38.76
797.279	38.32
797.456	39.09
797.632	37.94
797.809	37.77
797.986	37.88
798.162	37.15
798.339	36.95
798.516	37.14
798.692	37.25
798.869	37.96
799.046	38.15
799.222	38.84
799.399	37.85
799.575	37.85
799.752	38.3
799.928	37.97
800.105	38.03
800.281	38.2
800.458	37.62
800.634	37.5
800.811	36.99
800.987	36.14
801.163	36.69
801.34	36.76
801.516	37.14
801.692	37.24
801.869	37.42
802.045	38.83
802.221	39.13
802.398	39.82
802.574	40.18
802.75	38.14
802.926	39.57
803.103	38.46
803.279	39
803.455	38.59
803.631	38.67
803.807	38.61
803.983	37.47
804.16	38.09
804.336	38.78
804.512	38.41
804.688	40.42
804.864	38.83
805.04	39.8
805.216	38.89
805.392	38.92
805.568	38.45
805.744	39.26
805.92	40
806.096	37.82
806.272	36.7
806.448	37.23
806.623	38
806.799	38.91
806.975	38.93
807.151	39.36
807.327	39.29
807.503	38.88
807.678	39.02
807.854	39.46
808.03	41.03
808.206	41.06
808.381	41.07
808.557	40.26
808.733	38.82
808.908	37.24
809.084	38.11
809.26	38.14
809.435	39.13
809.611	38.32
809.787	36.66
809.962	35.26
810.138	36.16
810.313	35.73
810.489	35.19
810.664	37.51
810.84	38.99
811.015	38.77
811.191	39.24
811.366	38.53
811.542	38.46
811.717	38.77
811.892	38.78
812.068	38.34
812.243	38.23
812.419	38
812.594	36.14
812.769	35.91
812.944	34.97
813.12	33.41
813.295	33.91
813.47	34.79
813.645	36.23
813.821	37.33
813.996	36.99
814.171	38.04
814.346	38.62
814.521	39.84
814.697	41.65
814.872	41.4
815.047	43.04
815.222	43.1
815.397	41.94
815.572	41.24
815.747	40.2
815.922	39.38
816.097	38.16
816.272	38.3
816.447	38.38
816.622	36.33
816.797	36.19
816.972	35.93
817.147	35.91
817.322	37.26
817.496	35.91
817.671	36.62
817.846	37.6
818.021	38.23
818.196	37.43
818.371	37.56
818.545	37.48
818.72	38.75
818.895	38.79
819.069	37.96
819.244	37.17
819.419	37.87
819.594	38.4
819.768	37.84
819.943	37.76
820.117	37.9
820.292	37.11
820.467	37.04
820.641	36.41
820.816	36.5
820.99	36.8
821.165	36.89
821.339	36.82
821.514	36.46
821.688	36.69
821.863	36.88
822.037	36.91
822.212	36.96
822.386	37.13
822.56	37.34
822.735	37.31
822.909	37.34
823.084	37.32
823.258	37.09
823.432	37.06
823.606	37.02
823.781	36.83
823.955	36.86
824.129	37.16
824.303	37.14
824.478	36.66
824.652	36.42
824.826	36.66
825	36.62
825.174	37.09
825.348	37.19
825.523	36.98
825.697	36.61
825.871	36.8
826.045	36.61
826.219	36.41
826.393	36.62
826.567	36.96
826.741	37.22
826.915	37.28
827.089	37.16
827.263	37.06
827.437	37.52
827.611	37.91
827.784	37.84
827.958	38.14
828.132	38.17
828.306	38.66
828.48	38.78
828.654	38.25
828.827	38.31
829.001	38.32
829.175	39.22
829.349	39.16
829.522	38.84
829.696	38.92
829.87	38.11
830.044	37.39
830.217	37.32
830.391	37.32
830.565	36.62
830.738	36.26
830.912	36.38
831.085	35.96
831.259	36.27
831.432	36.62
831.606	36.57
831.779	36.5
831.953	36.8
832.126	36.8
832.3	36.24
832.473	36.27
832.647	36.67
832.82	36.1
832.994	36.17
833.167	36.31
833.34	37.22
833.514	36.79
833.687	37.22
833.86	38.23
834.034	37.51
834.207	37.69
834.38	38.09
834.553	38.56
834.727	39
834.9	38.82
835.073	38.7
835.246	38.04
835.419	38.3
835.593	38.44
835.766	37.5
835.939	38.61
836.112	37.97
836.285	38.2
836.458	37.62
836.631	38.55
836.804	38.43
836.977	37.83
837.15	38.33
837.323	39
837.496	39.12
837.669	40.75
837.842	40.77
838.015	41.12
838.188	40.25
838.361	40.95
838.533	41.96
838.706	42.52
838.879	42.6
839.052	41.71
839.225	43.18
839.398	41.85
839.57	40.1
839.743	38.69
839.916	40.83
840.088	42.3
840.261	42.28
840.434	39.76
840.607	39.32
840.779	39.29
840.952	38.34
841.124	35.68
841.297	37.33
841.47	38.02
841.642	40.04
841.815	37.9
841.987	36.04
842.16	35.8
842.332	35.85
842.505	38.58
842.677	39.7
842.85	42.79
843.022	44.86
843.194	42.99
843.367	42.62
843.539	43.73
843.712	44.83
843.884	46.66
844.056	48.64
844.229	50.07
844.401	46.18
844.573	43.01
844.745	42.13
844.918	41.09
845.09	44.78
845.262	49.32
845.434	46.32
845.606	44
845.779	43.81
845.951	41.09
846.123	38.89
846.295	39.16
846.467	41.08
846.639	41.87
846.811	42.27
846.983	42.42
847.155	38.9
847.327	36.3
847.499	39.74
847.671	37.4
847.843	39.79
848.015	43.87
848.187	48.16
848.359	52.57
848.531	52.77
848.703	51.37
848.875	46.56
849.047	48.76
849.218	54.01
849.39	50.62
849.562	53.61
849.734	50.34
849.905	47.78
850.077	48.3
850.249	42.42
850.421	42.84
850.592	44.2
850.764	47.38
850.936	47.36
851.107	46.41
851.279	49.09
851.451	49.72
851.622	52.3
851.794	53.91
851.965	50.68
852.137	51.9
852.308	48.11
852.48	49.09
852.651	49.48
852.823	49.08
852.994	48.23
853.166	47.44
853.337	46.51
853.509	45.6
853.68	50.33
853.851	49.04
854.023	49.74
854.194	50.19
854.365	50.06
854.537	49.71
854.708	52.53
854.879	50.77
855.05	49.78
855.222	46.65
855.393	47.42
855.564	45.01
855.735	43.67
855.906	44.43
856.078	47.08
856.249	46.32
856.42	43.13
856.591	38.83
856.762	34.91
856.933	36.46
857.104	41.23
857.275	43.12
857.446	42.68
857.617	44.76
857.788	44.57
857.959	47.18
858.13	46.51
858.301	50.78
858.472	49.86
858.643	54.47
858.814	49.84
858.985	50.09
859.155	50.84
859.326	44.35
859.497	46.8
859.668	45.52
859.839	40.6
860.009	41.1
860.18	40.29
860.351	36.72
860.522	39.88
860.692	45.18
860.863	45.18
861.034	43.64
861.204	49.66
861.375	45.74
861.546	50.22
861.716	54.58
861.887	51.26
862.057	57.57
862.228	61.62
862.398	59.01
862.569	61.27
862.739	62.86
862.91	60.43
863.08	60.72
863.251	61.89
863.421	62.72
863.592	60.26
863.762	59.4
863.932	55.1
864.103	54.67
864.273	51.28
864.443	47.36
864.614	44.31
864.784	46.31
864.954	42.87
865.125	44.81
865.295	40.56
865.465	41.66
865.635	46.91
865.805	52.2
865.976	47.21
866.146	52.39
866.316	49.9
866.486	52.41
866.656	53.82
866.826	55.28
866.996	52.02
867.166	51.58
867.336	50.84
867.506	49.27
867.676	41.83
867.846	48.59
868.016	48.42
868.186	46.56
868.356	44.73
868.526	38.77
868.696	40.42
868.866	38.49
869.036	37.2
869.206	33.12
869.376	30.08
869.545	33.96
869.715	34.78
869.885	33.11
870.055	38.56
870.224	37.46
870.394	43.63
870.564	44.67
870.734	51.68
870.903	47.28
871.073	49.14
871.243	49.63
871.412	48.49
871.582	44.17
871.751	44.48
871.921	41.92
872.091	44.92
872.26	46.19
872.43	42.94
872.599	43.78
872.769	46.56
872.938	47.12
873.108	46.62
873.277	46.67
873.446	48.13
873.616	47.77
873.785	50.52
873.955	51.21
874.124	48.03
874.293	48.69
874.463	39.33
874.632	42.17
874.801	42.33
874.971	43.09
875.14	41.2
875.309	42.06
875.478	40.81
875.647	40.15
875.817	38.81
875.986	38.86
876.155	42.39
876.324	45.25
876.493	46.71
876.662	49.29
876.831	50.22
877	53.23
877.17	54.18
877.339	62.15
877.508	60.58
877.677	59.37
877.846	58.36
878.015	52.68
878.184	50.59
878.352	46.81
878.521	41.13
878.69	40.38
878.859	37.89
879.028	31.96
879.197	26.5
879.366	25.18
879.534	25.22
879.703	26.47
879.872	28.15
880.041	28.32
880.21	29.01
880.378	30.06
880.547	30.6
880.716	32.45
880.884	33.68
881.053	33.63
881.222	35.63
881.39	35.95
881.559	36.02
881.727	35.42
881.896	35.9
882.065	36.16
882.233	37.27
882.402	37.81
882.57	37.78
882.739	38.19
882.907	38.36
883.076	38.56
883.244	38.79
883.412	38.38
883.581	38.81
883.749	38.61
883.918	39.06
884.086	38.2
884.254	37.8
884.423	38.13
884.591	38.24
884.759	39.22
884.927	37.3
885.096	37.09
885.264	38.1
885.432	38.88
885.6	40.8
885.769	38.99
885.937	40.35
886.105	40.48
886.273	42.02
886.441	43.34
886.609	44.38
886.777	47.11
886.945	48.54
887.113	50.25
887.281	50.29
887.449	49.16
887.617	52.11
887.785	50.79
887.953	54.06
888.121	50.23
888.289	46.96
888.457	45.55
888.625	44.09
888.793	43.59
888.961	43.94
889.129	44.44
889.296	45.19
889.464	45.06
889.632	47.11
889.8	41.5
889.967	45.74
890.135	50.2
