Data from 2938475_Reflection_3.txt Node
Date: Wed Jun 17 13:21:09 EDT 2015
User: robert
Spectrometer: USB4E03002
Autoset integration time: false
Trigger mode: 4
Integration Time (sec): 1.000000E-1
Scans to average: 10
Electric dark correction enabled: true
Nonlinearity correction enabled: false
Boxcar width: 5
Stray light correction enabled: false
XAxis mode: Wavelengths
Stop averaging: false
Number of Pixels in Spectrum: 3648
>>>>>Begin Spectral Data<<<<<
177.575	298.35
177.794	35.3
178.014	67.97
178.233	167.11
178.452	91.95
178.672	175.27
178.891	72.38
179.11	-103.96
179.33	-106.66
179.549	-312.89
179.768	-623.62
179.987	-443.91
180.207	-159.34
180.426	-170.68
180.645	-319.2
180.864	-14.92
181.084	-19.88
181.303	-6.82
181.522	32.06
181.741	57.42
181.96	83.56
182.179	190
182.398	1036.13
182.618	-577.54
182.837	-432.86
183.056	-66.31
183.275	-7.46
183.494	-9.64
183.713	-14.95
183.932	0.54
184.151	-1.11
184.37	0.77
184.589	10.49
184.808	52.54
185.027	53.59
185.246	61.75
185.465	3.13
185.684	37.48
185.903	374.1
186.122	100.16
186.341	90.57
186.56	75.85
186.779	73.32
186.998	183.73
187.216	236.94
187.435	102.83
187.654	64.58
187.873	113.93
188.092	544.87
188.311	244.71
188.53	-81.95
188.748	15.89
188.967	19.24
189.186	-95.16
189.405	-141.01
189.623	-45.92
189.842	21.11
190.061	-13.26
190.28	-2.92
190.498	75.48
190.717	100.63
190.936	141.9
191.154	335.72
191.373	-2797.33
191.592	-865.96
191.81	137.51
192.029	140.46
192.248	128.34
192.466	98.46
192.685	131.88
192.904	457.57
193.122	1141.89
193.341	1872.04
193.559	-136.26
193.778	-79.95
193.996	-77.3
194.215	-25.67
194.433	-84.42
194.652	-98.66
194.87	-155.27
195.089	-172.23
195.307	327.69
195.526	181.32
195.744	121.43
195.963	67.1
196.181	79.08
196.399	70.13
196.618	63.41
196.836	23.05
197.055	16.78
197.273	26.38
197.491	57.6
197.71	46.93
197.928	59.56
198.146	53.82
198.365	64.65
198.583	41.42
198.801	53.98
199.019	79.94
199.238	128.48
199.456	129.34
199.674	127.94
199.892	98.2
200.111	99.49
200.329	134.13
200.547	165.52
200.765	134.19
200.983	146.34
201.202	144.96
201.42	85.12
201.638	97.59
201.856	84.59
202.074	102.05
202.292	172.14
202.51	156.88
202.728	110.5
202.946	78.85
203.165	78.58
203.383	96.4
203.601	57.4
203.819	46.99
204.037	37.89
204.255	31.05
204.473	24.75
204.691	27.27
204.909	12.18
205.127	-23.12
205.345	-34.37
205.562	-49.77
205.78	-142.92
205.998	-99.85
206.216	-11.96
206.434	115.39
206.652	43.07
206.87	41.39
207.088	29.8
207.306	40.57
207.523	61.51
207.741	62.79
207.959	69.67
208.177	73.88
208.395	46.21
208.612	35.99
208.83	26.91
209.048	23.72
209.266	51.44
209.483	8.75
209.701	-43.73
209.919	-81.21
210.136	-126.21
210.354	-34.42
210.572	-123.62
210.79	-57.95
211.007	-93
211.225	-506.95
211.442	-28.56
211.66	-7.34
211.878	-0.38
212.095	9.37
212.313	-2.38
212.53	-10.52
212.748	-31.13
212.966	-14.38
213.183	10.83
213.401	17.89
213.618	16.86
213.836	-12.08
214.053	-26.24
214.271	-27.78
214.488	-28.85
214.705	-14.97
214.923	-4.24
215.14	0.1
215.358	-2.57
215.575	-27.15
215.793	6.27
216.01	16.72
216.227	23.75
216.445	33.66
216.662	32.03
216.879	31.98
217.097	39.04
217.314	35.84
217.531	44.15
217.749	31.03
217.966	33.86
218.183	10.84
218.4	9.93
218.618	9.91
218.835	0.62
219.052	-0.66
219.269	4.16
219.487	3.86
219.704	4.54
219.921	-8.55
220.138	-4.29
220.355	-8.54
220.572	-8.98
220.79	-12.28
221.007	-16.18
221.224	-28.04
221.441	-27.33
221.658	-11.99
221.875	-4.59
222.092	-7.44
222.309	-8.27
222.526	-5.74
222.743	6.75
222.96	12.83
223.177	17.48
223.394	21.97
223.611	19.72
223.828	16.37
224.045	12.77
224.262	8.43
224.479	6.14
224.696	7.12
224.913	11.45
225.13	8.86
225.347	6.65
225.564	8.14
225.781	7.47
225.997	9.66
226.214	9.83
226.431	6.28
226.648	5.62
226.865	6.87
227.082	7.85
227.298	7.05
227.515	7.37
227.732	6.69
227.949	5.52
228.165	4.43
228.382	4.81
228.599	4.49
228.816	4.7
229.032	3.95
229.249	4.78
229.466	3.15
229.682	4.66
229.899	3.18
230.116	4.44
230.332	5.6
230.549	6.91
230.765	6.89
230.982	8.26
231.199	8.41
231.415	12.57
231.632	11.61
231.848	12.37
232.065	9.32
232.281	8.93
232.498	8.71
232.714	5.89
232.931	7.32
233.147	6.25
233.364	5.97
233.58	5.01
233.797	5.15
234.013	7.24
234.23	7.45
234.446	7.95
234.662	9.27
234.879	10.5
235.095	11.58
235.312	10.56
235.528	9.42
235.744	10.88
235.961	12.39
236.177	10.56
236.393	8.63
236.61	9.56
236.826	7.61
237.042	7.32
237.258	7.6
237.475	9.1
237.691	9.83
237.907	10.31
238.123	8.58
238.339	9.6
238.556	8.93
238.772	7.77
238.988	7.56
239.204	8.02
239.42	8.4
239.636	7.63
239.853	6.43
240.069	4.74
240.285	3.9
240.501	3.47
240.717	2.81
240.933	3.2
241.149	3.7
241.365	3.45
241.581	3.62
241.797	2.79
242.013	2.58
242.229	1.99
242.445	3.33
242.661	4.28
242.877	4.75
243.093	4.51
243.309	4.31
243.525	4.4
243.741	4.47
243.957	4.26
244.173	4.28
244.388	4.86
244.604	5.09
244.82	4.37
245.036	3.96
245.252	3.96
245.468	4.4
245.683	4.22
245.899	4.07
246.115	3.93
246.331	4.06
246.547	3.7
246.762	3.49
246.978	3.83
247.194	4.05
247.409	4.43
247.625	4.58
247.841	3.73
248.057	3.78
248.272	3.21
248.488	3.43
248.703	2.9
248.919	3.84
249.135	2.98
249.35	3.05
249.566	2.89
249.782	2.53
249.997	2.9
250.213	3.56
250.428	3.91
250.644	4.39
250.859	3.96
251.075	4.63
251.29	4.62
251.506	5.29
251.721	5.56
251.937	6.04
252.152	6.66
252.368	6.57
252.583	6.54
252.798	6.93
253.014	7.48
253.229	8.19
253.445	8.16
253.66	8.74
253.875	7.77
254.091	7.04
254.306	7.1
254.521	6.37
254.737	4.62
254.952	4.98
255.167	4.2
255.383	3.81
255.598	3.54
255.813	3.01
256.028	2.51
256.244	2.85
256.459	3.37
256.674	2.82
256.889	2.85
257.104	3.05
257.32	3.4
257.535	3.33
257.75	3.6
257.965	3.77
258.18	3.89
258.395	3.92
258.61	4.1
258.826	3.9
259.041	4.34
259.256	4.54
259.471	4.98
259.686	4.55
259.901	4.49
260.116	4.49
260.331	3.91
260.546	3.71
260.761	3.45
260.976	3.27
261.191	2.73
261.406	2
261.621	1.36
261.836	1.2
262.05	1.39
262.265	1.03
262.48	1.33
262.695	1.84
262.91	3
263.125	3.2
263.34	3.31
263.555	3.54
263.769	3.9
263.984	4.81
264.199	4.08
264.414	3.78
264.629	4.47
264.843	3.42
265.058	3.14
265.273	2.46
265.488	1.94
265.702	2.07
265.917	1.97
266.132	1.78
266.346	1.29
266.561	1.41
266.776	2.13
266.99	1.88
267.205	2.34
267.42	2.32
267.634	2.68
267.849	3.42
268.063	3.08
268.278	3.49
268.492	3.52
268.707	3.24
268.922	3.34
269.136	2.88
269.351	2.84
269.565	3.12
269.78	3.57
269.994	3.02
270.209	2.96
270.423	2.73
270.637	3.02
270.852	3.33
271.066	3.16
271.281	3.16
271.495	3.17
271.709	3.07
271.924	2.86
272.138	2.67
272.353	3.01
272.567	2.63
272.781	2.91
272.996	2.53
273.21	2.74
273.424	3.61
273.638	3.76
273.853	3.65
274.067	4.12
274.281	4.38
274.495	4.48
274.71	4.61
274.924	5.19
275.138	5.4
275.352	4.97
275.566	4.23
275.781	3.47
275.995	3.58
276.209	4.17
276.423	4.01
276.637	3.56
276.851	3.36
277.065	3.29
277.279	3.31
277.493	2.94
277.707	3.34
277.921	3.36
278.135	3.69
278.349	3.37
278.563	3.05
278.777	3.28
278.991	3.42
279.205	3.86
279.419	3.77
279.633	3.57
279.847	3.54
280.061	3.34
280.275	3.66
280.489	3.42
280.703	3.2
280.917	3.52
281.131	3.43
281.344	4.07
281.558	3.67
281.772	2.87
281.986	2.47
282.2	2.65
282.414	3.09
282.627	2.63
282.841	2.57
283.055	3.04
283.269	2.74
283.482	2.48
283.696	1.69
283.91	2
284.123	2.7
284.337	2.62
284.551	2.61
284.764	2.54
284.978	3
285.192	3.29
285.405	3.19
285.619	3.19
285.833	3.5
286.046	3.77
286.26	4.25
286.473	4.26
286.687	4.91
286.9	4.52
287.114	4.62
287.327	4.45
287.541	4.4
287.754	4.43
287.968	4.59
288.181	4.61
288.395	4.59
288.608	4.03
288.822	3.73
289.035	3.95
289.248	4.2
289.462	4.04
289.675	3.62
289.889	3.87
290.102	4.44
290.315	4.21
290.529	3.88
290.742	3.84
290.955	3.94
291.169	4.41
291.382	4.42
291.595	5.07
291.808	5.14
292.022	5.32
292.235	5.08
292.448	4.7
292.661	5.23
292.875	5.92
293.088	6
293.301	5.92
293.514	5.84
293.727	5.62
293.94	5.36
294.153	5.33
294.367	5.91
294.58	6.03
294.793	5.97
295.006	5.56
295.219	5.46
295.432	5.33
295.645	5.43
295.858	5.2
296.071	5.29
296.284	5.23
296.497	5.21
296.71	4.78
296.923	4.41
297.136	4.49
297.349	4.31
297.562	4.64
297.775	4.74
297.988	4.87
298.201	5.15
298.414	5.22
298.626	5.56
298.839	5.77
299.052	6
299.265	6.63
299.478	6.43
299.691	7.11
299.903	6.6
300.116	6.47
300.329	6.87
300.542	6.97
300.755	6.71
300.967	6.46
301.18	6.34
301.393	6.12
301.605	5.58
301.818	5.95
302.031	5.99
302.243	5.98
302.456	6.37
302.669	6.07
302.881	6.23
303.094	6.43
303.307	6.56
303.519	7.16
303.732	7.35
303.944	8
304.157	7.65
304.37	7.43
304.582	7.38
304.795	7.45
305.007	6.87
305.22	6.7
305.432	6.99
305.645	7.2
305.857	7.07
306.069	7.46
306.282	7.4
306.494	7.79
306.707	7.84
306.919	7.5
307.132	7.16
307.344	7.82
307.556	8.09
307.769	7.76
307.981	8.48
308.193	8.57
308.406	8.54
308.618	8.35
308.83	8.5
309.043	8.6
309.255	8.76
309.467	9.15
309.679	8.89
309.892	8.59
310.104	8.48
310.316	7.81
310.528	7.35
310.74	7.31
310.953	7.52
311.165	6.96
311.377	7
311.589	7.18
311.801	6.91
312.013	7.13
312.225	7.6
312.437	7.91
312.649	7.69
312.862	8.32
313.074	8.7
313.286	8.74
313.498	9.32
313.71	9.28
313.922	9.5
314.134	9.6
314.346	9.72
314.558	9.79
314.77	9.82
314.982	10.23
315.193	9.89
315.405	9.88
315.617	9.71
315.829	9.4
316.041	9.79
316.253	10.03
316.465	10.37
316.677	10.22
316.888	9.31
317.1	9.37
317.312	9.31
317.524	9.47
317.736	8.99
317.947	9.41
318.159	10.01
318.371	10.08
318.583	9.75
318.794	9.42
319.006	9.34
319.218	9.69
319.43	9.63
319.641	9.42
319.853	9.34
320.064	9.58
320.276	10
320.488	9.43
320.699	9.18
320.911	9.27
321.123	9.75
321.334	9.75
321.546	10.11
321.757	10.13
321.969	10.5
322.18	10.38
322.392	10.38
322.603	10.39
322.815	10.31
323.026	10.2
323.238	10.23
323.449	9.6
323.661	9.52
323.872	9.69
324.083	9.57
324.295	9.7
324.506	9.71
324.718	9.5
324.929	8.66
325.14	8.89
325.352	9.02
325.563	8.94
325.774	9.43
325.986	9.79
326.197	9.88
326.408	10.35
326.62	9.52
326.831	9.44
327.042	9.6
327.253	9.5
327.464	9.72
327.676	9.7
327.887	9.6
328.098	9.5
328.309	9.48
328.52	9.25
328.732	8.91
328.943	9.57
329.154	9.82
329.365	9.85
329.576	9.85
329.787	10.14
329.998	10.41
330.209	10.59
330.42	10.37
330.631	9.65
330.842	9.72
331.053	9.52
331.264	9.49
331.475	9.32
331.686	9.29
331.897	9.81
332.108	9.08
332.319	8.82
332.53	8.98
332.741	9.13
332.952	9.48
333.163	9.23
333.374	9.47
333.585	9.19
333.795	9.18
334.006	8.98
334.217	9.1
334.428	9.1
334.639	8.83
334.849	8.5
335.06	7.96
335.271	8.41
335.482	8.06
335.692	8
335.903	8.5
336.114	8.79
336.325	9.21
336.535	8.98
336.746	9.56
336.957	10.11
337.167	10.41
337.378	11.22
337.589	10.9
337.799	11.56
338.01	11.65
338.22	11.52
338.431	11.54
338.642	11.37
338.852	11.38
339.063	11.3
339.273	11.2
339.484	10.66
339.694	10.29
339.905	10.62
340.115	10.53
340.326	10.43
340.536	10.95
340.746	10.87
340.957	11.27
341.167	11.06
341.378	10.99
341.588	10.64
341.799	10.53
342.009	10.33
342.219	10.2
342.43	10.28
342.64	10.48
342.85	9.73
343.061	9.82
343.271	9.88
343.481	10.4
343.691	10.26
343.902	10.12
344.112	11.07
344.322	11.4
344.532	11.26
344.743	10.83
344.953	10.16
345.163	10.24
345.373	9.98
345.583	8.98
345.793	8.52
346.004	8.76
346.214	8.8
346.424	7.8
346.634	7.64
346.844	7.7
347.054	7.63
347.264	8.55
347.474	8.81
347.684	8.69
347.894	8.9
348.104	8.77
348.314	8.51
348.524	8.42
348.734	8.86
348.944	9.1
349.154	9
349.364	9.69
349.574	9.51
349.784	9.55
349.994	9.88
350.204	10.27
350.413	10.51
350.623	10.43
350.833	10.4
351.043	10.06
351.253	10.03
351.463	10.58
351.672	10.44
351.882	10.05
352.092	10.01
352.302	10.23
352.511	10.21
352.721	10.66
352.931	10.89
353.141	11.2
353.35	11.25
353.56	11.04
353.77	10.64
353.979	10.39
354.189	10.25
354.399	10.37
354.608	10.23
354.818	10.35
355.027	10.2
355.237	10.16
355.447	10.17
355.656	10.45
355.866	10.59
356.075	10.64
356.285	10.72
356.494	11.18
356.704	11
356.913	11.4
357.123	10.95
357.332	10.72
357.542	10.67
357.751	10.52
357.96	10.43
358.17	10.5
358.379	10.65
358.589	10.7
358.798	10.3
359.007	10.62
359.217	10.25
359.426	10.68
359.635	10.92
359.845	10.94
360.054	11.05
360.263	10.96
360.472	11.05
360.682	11.15
360.891	11.28
361.1	11.42
361.309	11.27
361.519	11.35
361.728	11.28
361.937	11.24
362.146	11.29
362.355	11.53
362.564	11.76
362.774	11.8
362.983	11.84
363.192	11.52
363.401	11.76
363.61	11.67
363.819	12.03
364.028	12.27
364.237	12.23
364.446	12.48
364.655	12.39
364.864	12.31
365.073	12.4
365.282	12.22
365.491	12.52
365.7	12.43
365.909	12.69
366.118	12.4
366.327	12.36
366.536	12.13
366.745	12.13
366.954	11.81
367.162	11.95
367.371	11.62
367.58	11.53
367.789	11.5
367.998	11.55
368.207	11.36
368.415	11.46
368.624	11.23
368.833	11.26
369.042	10.91
369.25	11.41
369.459	11.46
369.668	11.47
369.877	11.42
370.085	11.33
370.294	11.27
370.503	11.24
370.711	10.98
370.92	10.99
371.129	10.94
371.337	11.15
371.546	10.63
371.754	10.43
371.963	10.96
372.171	10.93
372.38	10.84
372.589	10.78
372.797	10.75
373.006	10.7
373.214	10.94
373.423	11.06
373.631	11.24
373.84	11.53
374.048	11.58
374.256	11.09
374.465	11.37
374.673	11.9
374.882	12.02
375.09	12.21
375.298	12.31
375.507	12.39
375.715	12.48
375.923	12.23
376.132	12.33
376.34	12.33
376.548	12.41
376.757	12.42
376.965	12
377.173	12.07
377.381	11.92
377.59	12.2
377.798	12.24
378.006	12.15
378.214	12.04
378.423	11.89
378.631	12.1
378.839	12.21
379.047	12.11
379.255	12.24
379.463	12.43
379.671	12.62
379.879	12.47
380.088	12.59
380.296	12.97
380.504	13.32
380.712	13.62
380.92	13.57
381.128	13.51
381.336	13.47
381.544	13.49
381.752	13.52
381.96	13.49
382.168	13.55
382.376	13.22
382.584	13.06
382.791	12.71
382.999	12.7
383.207	12.73
383.415	12.84
383.623	12.93
383.831	12.88
384.039	12.69
384.247	12.71
384.454	12.83
384.662	12.81
384.87	12.87
385.078	12.96
385.285	12.94
385.493	13.29
385.701	13.52
385.909	13.69
386.116	13.9
386.324	14.08
386.532	13.99
386.739	13.87
386.947	14.19
387.155	14.2
387.362	14.45
387.57	14.45
387.778	14.28
387.985	14.04
388.193	14.06
388.4	14.13
388.608	14.28
388.816	14.6
389.023	14.78
389.231	14.85
389.438	15.02
389.646	15.18
389.853	15.19
390.061	14.94
390.268	15.08
390.475	15.18
390.683	15.2
390.89	15.32
391.098	15.12
391.305	15.16
391.512	15
391.72	14.99
391.927	14.82
392.135	14.98
392.342	15.15
392.549	15.3
392.756	15.11
392.964	15.16
393.171	15.08
393.378	15.24
393.586	15.3
393.793	15.46
394	15.73
394.207	15.8
394.414	15.87
394.622	15.94
394.829	15.93
395.036	16.02
395.243	16.01
395.45	15.98
395.657	16.23
395.864	16.15
396.072	16.26
396.279	16.12
396.486	16.13
396.693	16.04
396.9	16.3
397.107	16.37
397.314	16.63
397.521	16.93
397.728	16.92
397.935	16.89
398.142	16.95
398.349	16.94
398.556	16.85
398.763	16.93
398.97	17.1
399.177	17.04
399.383	17.19
399.59	17.04
399.797	17.1
400.004	17.3
400.211	17.08
400.418	16.94
400.625	16.93
400.831	17.03
401.038	17.18
401.245	17.11
401.452	17.18
401.658	17.19
401.865	17.35
402.072	17.13
402.279	17.21
402.485	17.3
402.692	17.67
402.899	17.7
403.105	17.63
403.312	17.71
403.519	17.82
403.725	17.84
403.932	17.83
404.138	17.86
404.345	17.77
404.552	17.69
404.758	17.82
404.965	17.7
405.171	17.69
405.378	17.74
405.584	17.67
405.791	17.55
405.997	17.59
406.204	17.6
406.41	17.47
406.617	17.54
406.823	17.39
407.029	17.35
407.236	17.4
407.442	17.54
407.649	17.58
407.855	17.56
408.061	17.75
408.268	17.68
408.474	17.55
408.68	17.74
408.887	17.78
409.093	18.11
409.299	18.15
409.505	18.09
409.712	18.04
409.918	18.08
410.124	18.06
410.33	18
410.537	18.06
410.743	18.23
410.949	18.01
411.155	18.13
411.361	17.92
411.567	17.87
411.773	17.94
411.98	17.99
412.186	17.94
412.392	18.06
412.598	18.05
412.804	17.98
413.01	17.75
413.216	17.94
413.422	17.94
413.628	18.02
413.834	18.07
414.04	18.05
414.246	17.97
414.452	17.92
414.658	17.91
414.864	17.77
415.07	17.91
415.275	17.97
415.481	17.91
415.687	17.87
415.893	17.84
416.099	17.77
416.305	17.68
416.511	17.68
416.716	17.75
416.922	17.69
417.128	17.79
417.334	17.68
417.539	17.72
417.745	17.64
417.951	17.55
418.157	17.56
418.362	17.46
418.568	17.48
418.774	17.46
418.979	17.41
419.185	17.43
419.391	17.35
419.596	17.35
419.802	17.28
420.008	17.28
420.213	17.29
420.419	17.24
420.624	17.26
420.83	17.2
421.035	17.11
421.241	17.08
421.446	16.98
421.652	17.03
421.857	17.02
422.063	16.96
422.268	16.94
422.474	16.92
422.679	16.81
422.885	16.84
423.09	16.85
423.295	16.87
423.501	16.91
423.706	16.9
423.911	16.85
424.117	16.87
424.322	16.98
424.527	16.95
424.733	16.9
424.938	17.02
425.143	17.01
425.349	17.01
425.554	17.02
425.759	16.99
425.964	17.09
426.169	16.94
426.375	16.74
426.58	16.62
426.785	16.77
426.99	16.81
427.195	16.68
427.4	16.6
427.605	16.54
427.811	16.47
428.016	16.33
428.221	16.31
428.426	16.47
428.631	16.51
428.836	16.46
429.041	16.38
429.246	16.4
429.451	16.47
429.656	16.64
429.861	16.69
430.066	16.7
430.271	16.82
430.476	16.69
430.681	16.67
430.886	16.75
431.09	16.72
431.295	16.71
431.5	16.74
431.705	16.72
431.91	16.64
432.115	16.65
432.32	16.7
432.524	16.7
432.729	16.71
432.934	16.66
433.139	16.62
433.343	16.74
433.548	16.72
433.753	16.63
433.958	16.62
434.162	16.71
434.367	16.84
434.572	16.84
434.776	16.83
434.981	16.83
435.186	16.96
435.39	16.99
435.595	16.98
435.799	16.97
436.004	17.02
436.209	17.1
436.413	16.95
436.618	16.77
436.822	16.69
437.027	16.66
437.231	16.78
437.436	16.72
437.64	16.61
437.845	16.59
438.049	16.49
438.253	16.47
438.458	16.33
438.662	16.34
438.867	16.38
439.071	16.46
439.275	16.45
439.48	16.35
439.684	16.24
439.888	16.25
440.093	16.14
440.297	16.24
440.501	16.25
440.706	16.32
440.91	16.34
441.114	16.36
441.318	16.36
441.523	16.42
441.727	16.52
441.931	16.68
442.135	16.71
442.339	16.75
442.543	16.71
442.748	16.63
442.952	16.59
443.156	16.57
443.36	16.56
443.564	16.52
443.768	16.42
443.972	16.38
444.176	16.31
444.38	16.35
444.584	16.36
444.788	16.28
444.992	16.36
445.196	16.27
445.4	16.24
445.604	16.22
445.808	16.17
446.012	16.13
446.216	16.09
446.42	16.05
446.624	15.93
446.828	15.92
447.032	16.01
447.235	15.91
447.439	15.92
447.643	15.84
447.847	15.85
448.051	15.87
448.254	15.91
448.458	15.86
448.662	15.9
448.866	16.04
449.069	16.13
449.273	16.05
449.477	16.1
449.681	16.19
449.884	16.29
450.088	16.2
450.292	16.16
450.495	16.19
450.699	16.26
450.902	16.2
451.106	16.16
451.31	15.99
451.513	16.07
451.717	16.02
451.92	16.05
452.124	16.09
452.327	16.17
452.531	16.12
452.734	16.14
452.938	16.03
453.141	16
453.345	16
453.548	16.1
453.752	16.07
453.955	16.05
454.158	16.03
454.362	16
454.565	15.9
454.769	15.98
454.972	15.91
455.175	15.97
455.379	15.98
455.582	15.93
455.785	15.94
455.988	16
456.192	15.99
456.395	15.95
456.598	15.94
456.801	16.05
457.005	16.05
457.208	16.18
457.411	16.17
457.614	16.16
457.817	16.09
458.021	16.09
458.224	16.04
458.427	16.01
458.63	16.05
458.833	16.05
459.036	15.97
459.239	15.99
459.442	15.84
459.645	15.84
459.848	15.85
460.051	16
460.254	15.99
460.457	15.97
460.66	16.05
460.863	16
461.066	16.03
461.269	16.08
461.472	16.06
461.675	16.19
461.878	16.22
462.081	16.28
462.284	16.21
462.486	16.1
462.689	16.22
462.892	16.32
463.095	16.47
463.298	16.42
463.5	16.41
463.703	16.3
463.906	16.38
464.109	16.28
464.311	16.29
464.514	16.23
464.717	16.35
464.92	16.29
465.122	16.2
465.325	16.11
465.528	16.22
465.73	16.24
465.933	16.36
466.135	16.19
466.338	16.19
466.541	16.16
466.743	16.19
466.946	16.26
467.148	16.3
467.351	16.35
467.553	16.37
467.756	16.29
467.958	16.28
468.161	16.32
468.363	16.35
468.566	16.45
468.768	16.44
468.971	16.43
469.173	16.27
469.375	16.18
469.578	16.14
469.78	16.24
469.983	16.21
470.185	16.28
470.387	16.32
470.59	16.44
470.792	16.47
470.994	16.46
471.196	16.45
471.399	16.56
471.601	16.67
471.803	16.67
472.005	16.61
472.208	16.7
472.41	16.67
472.612	16.54
472.814	16.48
473.016	16.34
473.218	16.41
473.421	16.5
473.623	16.51
473.825	16.36
474.027	16.37
474.229	16.4
474.431	16.34
474.633	16.38
474.835	16.44
475.037	16.48
475.239	16.52
475.441	16.54
475.643	16.49
475.845	16.57
476.047	16.65
476.249	16.63
476.451	16.61
476.653	16.65
476.855	16.64
477.057	16.61
477.258	16.58
477.46	16.62
477.662	16.63
477.864	16.6
478.066	16.5
478.268	16.52
478.469	16.53
478.671	16.44
478.873	16.43
479.075	16.45
479.276	16.44
479.478	16.47
479.68	16.52
479.882	16.51
480.083	16.52
480.285	16.61
480.487	16.6
480.688	16.63
480.89	16.68
481.091	16.65
481.293	16.6
481.495	16.59
481.696	16.52
481.898	16.45
482.099	16.41
482.301	16.39
482.502	16.3
482.704	16.26
482.905	16.2
483.107	16.1
483.308	16.03
483.51	16
483.711	15.99
483.913	15.98
484.114	16
484.315	16.04
484.517	16.06
484.718	16.05
484.92	16.08
485.121	16.11
485.322	16.2
485.524	16.27
485.725	16.31
485.926	16.27
486.127	16.29
486.329	16.26
486.53	16.23
486.731	16.19
486.932	16.17
487.134	16.14
487.335	16.13
487.536	16.08
487.737	16.06
487.938	16.04
488.139	16.08
488.341	16.09
488.542	16.15
488.743	16.2
488.944	16.25
489.145	16.29
489.346	16.28
489.547	16.34
489.748	16.35
489.949	16.38
490.15	16.34
490.351	16.31
490.552	16.27
490.753	16.24
490.954	16.18
491.155	16.16
491.356	16.14
491.557	16.22
491.758	16.17
491.959	16.2
492.159	16.23
492.36	16.28
492.561	16.27
492.762	16.28
492.963	16.23
493.164	16.25
493.364	16.18
493.565	16.34
493.766	16.27
493.967	16.4
494.167	16.36
494.368	16.28
494.569	16.3
494.769	16.41
494.97	16.48
495.171	16.55
495.371	16.55
495.572	16.58
495.773	16.58
495.973	16.57
496.174	16.48
496.375	16.61
496.575	16.65
496.776	16.68
496.976	16.68
497.177	16.77
497.377	16.8
497.578	16.77
497.778	16.85
497.979	16.77
498.179	16.87
498.38	16.92
498.58	16.84
498.78	16.87
498.981	16.81
499.181	16.86
499.382	16.76
499.582	16.69
499.782	16.81
499.983	16.81
500.183	16.82
500.383	16.84
500.584	16.82
500.784	16.84
500.984	16.85
501.184	16.91
501.385	16.9
501.585	16.94
501.785	17.02
501.985	16.96
502.185	16.97
502.386	17.01
502.586	16.99
502.786	17.02
502.986	16.97
503.186	16.88
503.386	16.87
503.586	16.87
503.786	16.81
503.987	16.8
504.187	16.87
504.387	16.86
504.587	16.84
504.787	16.9
504.987	16.94
505.187	17.02
505.387	17.11
505.587	17.19
505.786	17.07
505.986	17.07
506.186	17.05
506.386	17.01
506.586	17.05
506.786	17.01
506.986	16.92
507.186	16.94
507.386	16.89
507.585	16.83
507.785	16.8
507.985	16.85
508.185	16.89
508.384	16.89
508.584	16.93
508.784	16.9
508.984	16.94
509.183	17.01
509.383	17
509.583	17.07
509.782	17.15
509.982	17.19
510.182	17.2
510.381	17.22
510.581	17.24
510.781	17.28
510.98	17.33
511.18	17.36
511.379	17.37
511.579	17.38
511.778	17.41
511.978	17.42
512.177	17.39
512.377	17.47
512.576	17.47
512.776	17.48
512.975	17.39
513.175	17.33
513.374	17.28
513.573	17.21
513.773	17.28
513.972	17.3
514.172	17.33
514.371	17.37
514.57	17.32
514.77	17.41
514.969	17.42
515.168	17.5
515.367	17.61
515.567	17.66
515.766	17.74
515.965	17.6
516.164	17.58
516.364	17.61
516.563	17.59
516.762	17.62
516.961	17.55
517.16	17.51
517.359	17.52
517.559	17.48
517.758	17.46
517.957	17.38
518.156	17.45
518.355	17.35
518.554	17.36
518.753	17.32
518.952	17.29
519.151	17.28
519.35	17.41
519.549	17.4
519.748	17.4
519.947	17.37
520.146	17.41
520.345	17.4
520.544	17.5
520.743	17.41
520.942	17.44
521.141	17.49
521.339	17.48
521.538	17.39
521.737	17.4
521.936	17.44
522.135	17.5
522.333	17.55
522.532	17.55
522.731	17.57
522.93	17.68
523.129	17.68
523.327	17.71
523.526	17.75
523.725	17.85
523.923	17.79
524.122	17.78
524.321	17.82
524.519	17.8
524.718	17.8
524.917	17.77
525.115	17.79
525.314	17.84
525.512	17.87
525.711	17.86
525.909	17.88
526.108	17.93
526.306	17.95
526.505	17.9
526.703	17.95
526.902	17.93
527.1	17.94
527.299	17.91
527.497	17.84
527.696	17.79
527.894	17.76
528.092	17.71
528.291	17.68
528.489	17.63
528.688	17.68
528.886	17.65
529.084	17.68
529.283	17.69
529.481	17.69
529.679	17.76
529.877	17.85
530.076	17.95
530.274	18.01
530.472	18.06
530.67	18.18
530.869	18.19
531.067	18.21
531.265	18.22
531.463	18.2
531.661	18.2
531.859	18.17
532.057	18.1
532.255	18.05
532.454	18.04
532.652	18.01
532.85	17.93
533.048	17.93
533.246	17.97
533.444	17.94
533.642	17.98
533.84	17.98
534.038	18.05
534.236	18.1
534.434	18.2
534.632	18.14
534.83	18.21
535.027	18.25
535.225	18.28
535.423	18.28
535.621	18.3
535.819	18.31
536.017	18.33
536.215	18.34
536.412	18.36
536.61	18.28
536.808	18.4
537.006	18.36
537.203	18.43
537.401	18.41
537.599	18.44
537.797	18.54
537.994	18.68
538.192	18.78
538.39	18.86
538.587	18.85
538.785	18.95
538.983	18.93
539.18	18.95
539.378	18.94
539.575	18.94
539.773	18.86
539.97	18.79
540.168	18.69
540.366	18.63
540.563	18.58
540.761	18.61
540.958	18.58
541.155	18.58
541.353	18.58
541.55	18.54
541.748	18.53
541.945	18.58
542.143	18.63
542.34	18.67
542.537	18.72
542.735	18.76
542.932	18.78
543.129	18.78
543.327	18.81
543.524	18.85
543.721	18.97
543.919	19.03
544.116	19.12
544.313	19.18
544.51	19.16
544.708	19.21
544.905	19.24
545.102	19.23
545.299	19.25
545.496	19.25
545.693	19.26
545.891	19.23
546.088	19.29
546.285	19.21
546.482	19.15
546.679	19.24
546.876	19.18
547.073	19.24
547.27	19.37
547.467	19.43
547.664	19.55
547.861	19.62
548.058	19.68
548.255	19.61
548.452	19.76
548.649	19.91
548.846	19.92
549.043	20.06
549.24	20.06
549.437	20.08
549.633	20.16
549.83	20.2
550.027	20.26
550.224	20.28
550.421	20.34
550.618	20.26
550.814	20.26
551.011	20.36
551.208	20.31
551.405	20.4
551.601	20.35
551.798	20.29
551.995	20.28
552.191	20.28
552.388	20.28
552.585	20.25
552.781	20.31
552.978	20.33
553.175	20.34
553.371	20.44
553.568	20.36
553.764	20.35
553.961	20.42
554.157	20.44
554.354	20.43
554.55	20.51
554.747	20.61
554.943	20.57
555.14	20.57
555.336	20.57
555.533	20.71
555.729	20.83
555.926	20.94
556.122	20.87
556.318	20.85
556.515	20.97
556.711	20.95
556.907	21.01
557.104	21.11
557.3	21.16
557.496	21.25
557.693	21.07
557.889	21.04
558.085	20.95
558.281	21.04
558.478	21.19
558.674	21.19
558.87	21.38
559.066	21.37
559.262	21.4
559.459	21.49
559.655	21.47
559.851	21.58
560.047	21.59
560.243	21.67
560.439	21.68
560.635	21.62
560.831	21.6
561.027	21.48
561.223	21.54
561.419	21.6
561.615	21.58
561.811	21.62
562.007	21.68
562.203	21.81
562.399	21.97
562.595	22.1
562.791	22.18
562.987	22.26
563.183	22.44
563.379	22.45
563.575	22.53
563.771	22.57
563.966	22.72
564.162	22.69
564.358	22.71
564.554	22.69
564.75	22.67
564.945	22.68
565.141	22.7
565.337	22.61
565.533	22.68
565.728	22.57
565.924	22.54
566.12	22.48
566.315	22.57
566.511	22.56
566.707	22.63
566.902	22.68
567.098	22.7
567.293	22.71
567.489	22.7
567.684	22.67
567.88	22.83
568.076	22.84
568.271	22.83
568.467	22.9
568.662	22.95
568.858	22.91
569.053	23.07
569.248	23.21
569.444	23.32
569.639	23.43
569.835	23.42
570.03	23.3
570.225	23.41
570.421	23.38
570.616	23.38
570.812	23.29
571.007	23.42
571.202	23.35
571.397	23.25
571.593	23.19
571.788	23.16
571.983	23.28
572.178	23.47
572.374	23.58
572.569	23.67
572.764	23.76
572.959	23.87
573.154	23.85
573.35	23.82
573.545	23.83
573.74	23.87
573.935	23.85
574.13	23.86
574.325	23.84
574.52	23.76
574.715	23.7
574.91	23.63
575.105	23.65
575.3	23.68
575.495	23.68
575.69	23.78
575.885	23.84
576.08	23.94
576.275	23.91
576.47	23.95
576.665	23.93
576.86	24.04
577.055	24.12
577.25	24.09
577.444	23.94
577.639	24.15
577.834	24.16
578.029	24.22
578.224	24.14
578.418	24.27
578.613	24.24
578.808	24.22
579.003	24.32
579.197	24.28
579.392	24.3
579.587	24.46
579.781	24.36
579.976	24.43
580.171	24.46
580.365	24.5
580.56	24.43
580.755	24.51
580.949	24.58
581.144	24.55
581.338	24.56
581.533	24.63
581.727	24.67
581.922	24.68
582.116	24.61
582.311	24.61
582.505	24.82
582.7	24.93
582.894	24.95
583.089	24.83
583.283	24.84
583.478	24.93
583.672	25.01
583.866	25.07
584.061	25.02
584.255	24.96
584.449	24.87
584.644	24.69
584.838	24.62
585.032	24.47
585.226	24.53
585.421	24.48
585.615	24.51
585.809	24.59
586.003	24.56
586.198	24.65
586.392	24.9
586.586	24.97
586.78	25.07
586.974	25.15
587.168	25.32
587.363	25.38
587.557	25.48
587.751	25.54
587.945	25.59
588.139	25.64
588.333	25.66
588.527	25.59
588.721	25.63
588.915	25.7
589.109	25.74
589.303	25.73
589.497	25.79
589.691	25.75
589.885	25.69
590.079	25.57
590.273	25.59
590.466	25.58
590.66	25.51
590.854	25.48
591.048	25.4
591.242	25.28
591.436	25.3
591.629	25.32
591.823	25.24
592.017	25.21
592.211	25.18
592.404	25.18
592.598	25.13
592.792	25.3
592.986	25.39
593.179	25.56
593.373	25.62
593.567	25.61
593.76	25.75
593.954	25.85
594.147	25.92
594.341	25.98
594.535	25.88
594.728	25.9
594.922	25.76
595.115	25.72
595.309	25.66
595.502	25.73
595.696	25.73
595.889	25.64
596.083	25.6
596.276	25.59
596.47	25.53
596.663	25.69
596.856	25.58
597.05	25.75
597.243	25.74
597.437	25.72
597.63	25.78
597.823	25.78
598.017	25.79
598.21	25.86
598.403	25.96
598.596	25.99
598.79	26.02
598.983	26.22
599.176	26.15
599.369	26.15
599.563	26.25
599.756	26.05
599.949	26.07
600.142	26.07
600.335	25.97
600.528	25.89
600.722	25.89
600.915	25.91
601.108	25.92
601.301	26.1
601.494	26.17
601.687	26.14
601.88	26.19
602.073	26.2
602.266	26.27
602.459	26.35
602.652	26.32
602.845	26.37
603.038	26.32
603.231	26.32
603.424	26.15
603.617	26.08
603.809	26.07
604.002	26.08
604.195	26.07
604.388	25.99
604.581	26.01
604.774	26.1
604.966	26.08
605.159	26.03
605.352	26.06
605.545	26.04
605.737	25.99
605.93	26.09
606.123	26.22
606.316	26.36
606.508	26.3
606.701	26.19
606.894	26.07
607.086	26.22
607.279	26.24
607.471	26.26
607.664	26.33
607.857	26.31
608.049	26.28
608.242	26.21
608.434	26.1
608.627	26.26
608.819	26.28
609.012	26.27
609.204	26.26
609.397	26.17
609.589	26.05
609.782	26.22
609.974	26.41
610.166	26.53
610.359	26.41
610.551	26.44
610.743	26.17
610.936	26.35
611.128	26.44
611.32	26.42
611.513	26.63
611.705	26.77
611.897	26.66
612.09	26.44
612.282	26.31
612.474	26.43
612.666	26.41
612.858	26.62
613.051	26.37
613.243	26.34
613.435	26.27
613.627	26.02
613.819	26.12
614.011	26.17
614.203	26.34
614.395	26.19
614.588	25.98
614.78	25.98
614.972	25.92
615.164	25.93
615.356	25.9
615.548	25.83
615.74	25.95
615.932	25.87
616.124	25.69
616.315	25.66
616.507	25.83
616.699	26.06
616.891	25.98
617.083	26.12
617.275	26.11
617.467	26.1
617.659	26.15
617.85	26.23
618.042	26.2
618.234	26.15
618.426	26.2
618.618	26.27
618.809	26.23
619.001	26.24
619.193	26.23
619.384	26.49
619.576	26.51
619.768	26.66
619.959	26.77
620.151	26.72
620.343	26.78
620.534	26.59
620.726	26.41
620.917	26.49
621.109	26.7
621.301	26.74
621.492	26.55
621.684	26.62
621.875	26.37
622.067	26.1
622.258	26.22
622.45	26.26
622.641	26.37
622.832	26.36
623.024	26.26
623.215	26.41
623.407	26.34
623.598	26.46
623.789	26.56
623.981	26.67
624.172	26.76
624.363	26.77
624.555	26.63
624.746	26.71
624.937	26.64
625.129	26.7
625.32	26.59
625.511	26.65
625.702	26.49
625.893	26.42
626.085	26.32
626.276	26.33
626.467	26.33
626.658	26.43
626.849	26.39
627.04	26.47
627.231	26.36
627.422	26.36
627.614	26.36
627.805	26.5
627.996	26.56
628.187	26.59
628.378	26.61
628.569	26.56
628.76	26.65
628.951	26.58
629.142	26.51
629.332	26.64
629.523	26.63
629.714	26.74
629.905	26.79
630.096	26.61
630.287	26.71
630.478	26.64
630.669	26.44
630.859	26.37
631.05	26.52
631.241	26.64
631.432	26.74
631.623	26.73
631.813	26.67
632.004	26.53
632.195	26.59
632.385	26.65
632.576	26.82
632.767	26.93
632.957	26.95
633.148	27.03
633.339	27.08
633.529	27.09
633.72	27.07
633.91	27.06
634.101	27.2
634.292	27.2
634.482	27.22
634.673	27.01
634.863	27.01
635.054	26.94
635.244	26.7
635.435	26.72
635.625	26.53
635.815	26.65
636.006	26.64
636.196	26.6
636.387	26.85
636.577	26.91
636.767	27.01
636.958	27.11
637.148	27.15
637.338	27.29
637.529	27.16
637.719	27.39
637.909	27.22
638.099	27.11
638.29	27.16
638.48	26.92
638.67	26.82
638.86	26.81
639.05	26.84
639.241	26.72
639.431	26.84
639.621	27.01
639.811	26.94
640.001	27
640.191	27.04
640.381	27.13
640.571	27.19
640.761	27.16
640.951	27.11
641.141	27.14
641.331	27.34
641.521	27.21
641.711	27.15
641.901	27.16
642.091	27.09
642.281	27.16
642.471	27.1
642.661	27.08
642.851	27.12
643.041	27.25
643.231	27.31
643.42	27.33
643.61	27.53
643.8	27.51
643.99	27.57
644.18	27.51
644.369	27.44
644.559	27.62
644.749	27.52
644.939	27.73
645.128	27.64
645.318	27.64
645.508	27.63
645.697	27.46
645.887	27.42
646.076	27.21
646.266	27.33
646.456	27.55
646.645	27.32
646.835	27.52
647.024	27.27
647.214	27.33
647.403	27.28
647.593	27.33
647.782	27.24
647.972	27.26
648.161	27.33
648.351	27.18
648.54	27.12
648.73	27.05
648.919	26.97
649.108	26.9
649.298	26.92
649.487	26.94
649.677	26.76
649.866	26.71
650.055	26.75
650.244	26.82
650.434	26.97
650.623	26.98
650.812	27.05
651.002	27.1
651.191	27.12
651.38	27.08
651.569	26.9
651.758	27.22
651.947	27.34
652.137	27.41
652.326	27.49
652.515	27.47
652.704	27.46
652.893	27.35
653.082	27.38
653.271	27.39
653.46	27.48
653.649	27.48
653.838	27.13
654.027	27.08
654.216	26.95
654.405	26.76
654.594	26.7
654.783	26.44
654.972	26.38
655.161	26.21
655.35	26.4
655.539	26.24
655.728	26.45
655.916	26.64
656.105	26.58
656.294	26.66
656.483	26.69
656.672	26.69
656.86	26.52
657.049	26.49
657.238	26.44
657.427	26.25
657.615	26.36
657.804	26.24
657.993	26.06
658.181	26.29
658.37	26.25
658.559	26.4
658.747	26.54
658.936	26.63
659.125	26.83
659.313	26.86
659.502	26.93
659.69	26.9
659.879	26.98
660.067	27.12
660.256	26.97
660.444	26.88
660.633	26.54
660.821	26.56
661.01	26.8
661.198	26.72
661.387	26.92
661.575	26.84
661.763	26.84
661.952	26.81
662.14	27.05
662.328	26.96
662.517	27.07
662.705	27.33
662.893	27.2
663.082	27.18
663.27	27.07
663.458	26.86
663.646	26.83
663.834	26.79
664.023	26.74
664.211	26.74
664.399	26.71
664.587	26.5
664.775	26.52
664.963	26.37
665.152	26.37
665.34	26.76
665.528	26.91
665.716	26.98
665.904	27.28
666.092	27.25
666.28	26.94
666.468	26.96
666.656	27.26
666.844	27.4
667.032	27.4
667.22	27.35
667.408	27.36
667.596	27.48
667.784	27.53
667.971	27.18
668.159	27.29
668.347	27.26
668.535	27.53
668.723	27.36
668.911	27.11
669.098	27.3
669.286	27.43
669.474	27
669.662	27.07
669.849	27.18
670.037	27.22
670.225	27.29
670.413	27.57
670.6	27.11
670.788	27.41
670.976	27.44
671.163	27.21
671.351	26.97
671.538	27.14
671.726	27.08
671.913	26.87
672.101	26.91
672.289	26.8
672.476	26.47
672.664	26.76
672.851	26.61
673.039	26.64
673.226	26.43
673.413	26.48
673.601	26.76
673.788	26.68
673.976	26.87
674.163	26.88
674.35	26.96
674.538	27.13
674.725	27.03
674.912	27
675.1	27.23
675.287	27.76
675.474	27.7
675.662	27.54
675.849	27.47
676.036	27.26
676.223	27.16
676.411	27.21
676.598	27.42
676.785	27.59
676.972	27.48
677.159	27.34
677.346	27.11
677.533	27.17
677.721	27.11
677.908	27.09
678.095	27.27
678.282	27.22
678.469	27.13
678.656	27.04
678.843	26.92
679.03	26.77
679.217	26.64
679.404	26.65
679.591	26.65
679.778	26.55
679.964	26.62
680.151	26.56
680.338	26.68
680.525	26.57
680.712	26.52
680.899	26.79
681.086	26.98
681.272	27.16
681.459	27.19
681.646	27.4
681.833	27.54
682.02	27.48
682.206	27.63
682.393	27.61
682.58	27.71
682.766	27.52
682.953	27.36
683.14	27.39
683.326	27.47
683.513	27.64
683.7	27.4
683.886	27.17
684.073	27.16
684.259	26.97
684.446	27.1
684.632	27.29
684.819	27.39
685.005	27.33
685.192	27.19
685.378	26.93
685.565	26.66
685.751	26.72
685.938	26.8
686.124	26.78
686.31	26.6
686.497	26.46
686.683	26.29
686.87	26.21
687.056	26.16
687.242	26.14
687.429	26.16
687.615	26.06
687.801	26.16
687.987	26.31
688.174	26.27
688.36	26.52
688.546	26.81
688.732	26.64
688.918	26.89
689.105	26.99
689.291	27.06
689.477	27.04
689.663	27.12
689.849	27.08
690.035	26.76
690.221	26.91
690.407	27.01
690.593	26.81
690.779	26.74
690.965	26.61
691.151	26.95
691.337	26.71
691.523	26.98
691.709	27.22
691.895	27.3
692.081	27.49
692.267	27.56
692.453	27.1
692.639	27.23
692.825	27.55
693.011	27.62
693.196	27.41
693.382	27.58
693.568	27.48
693.754	27.54
693.94	27.52
694.125	27.39
694.311	27.11
694.497	27.48
694.682	27.07
694.868	26.91
695.054	26.79
695.239	26.71
695.425	27.05
695.611	26.7
695.796	26.44
695.982	26.4
696.168	26.51
696.353	26.74
696.539	26.66
696.724	27.06
696.91	27.08
697.095	27.12
697.281	27.06
697.466	26.92
697.652	27.12
697.837	27.22
698.023	27.26
698.208	27.37
698.393	27.29
698.579	27.45
698.764	27.45
698.949	27.58
699.135	27.54
699.32	27.43
699.505	27.46
699.691	27.33
699.876	27.35
700.061	27.22
700.246	27.13
700.432	27.18
700.617	26.86
700.802	26.61
700.987	26.54
701.172	26.81
701.358	27
701.543	27.03
701.728	27.4
701.913	27.23
702.098	27.28
702.283	27.47
702.468	27.82
702.653	27.9
702.838	28.11
703.023	28.11
703.208	28.14
703.393	27.93
703.578	27.91
703.763	27.4
703.948	27.31
704.133	27.5
704.318	27.34
704.503	26.92
704.688	27.08
704.873	26.93
705.057	26.67
705.242	26.34
705.427	26.66
705.612	26.81
705.797	27.02
705.981	27.32
706.166	26.95
706.351	26.98
706.536	26.96
706.72	26.96
706.905	26.96
707.09	26.97
707.274	26.85
707.459	26.67
707.644	26.67
707.828	26.54
708.013	26.5
708.197	26.76
708.382	26.75
708.567	26.48
708.751	26.35
708.936	26.51
709.12	26.75
709.305	26.65
709.489	26.57
709.673	26.51
709.858	26.5
710.042	26.54
710.227	26.59
710.411	26.68
710.596	26.85
710.78	26.93
710.964	26.6
711.149	26.4
711.333	26.45
711.517	26.69
711.702	26.85
711.886	27.02
712.07	26.75
712.254	26.61
712.438	26.64
712.623	26.71
712.807	26.95
712.991	27.37
713.175	27.59
713.359	27.61
713.544	27.19
713.728	27.12
713.912	26.92
714.096	26.97
714.28	27.35
714.464	27.34
714.648	27.31
714.832	27.23
715.016	27.07
715.2	26.87
715.384	26.96
715.568	27.17
715.752	26.88
715.936	26.82
716.12	26.91
716.304	26.36
716.488	26.1
716.671	25.89
716.855	25.8
717.039	25.55
717.223	25.41
717.407	25.62
717.59	25.56
717.774	25.88
717.958	26.15
718.142	26.14
718.325	26.49
718.509	26.65
718.693	27.08
718.877	27.26
719.06	27.42
719.244	27.68
719.428	27.48
719.611	27.49
719.795	27.2
719.978	26.99
720.162	27.03
720.345	27.1
720.529	26.96
720.713	26.96
720.896	26.77
721.08	26.75
721.263	26.79
721.446	26.89
721.63	26.74
721.813	26.46
721.997	27.06
722.18	26.87
722.364	26.85
722.547	26.9
722.73	26.79
722.914	26.89
723.097	26.88
723.28	27.05
723.464	26.93
723.647	27.27
723.83	28.01
724.013	27.99
724.197	28.07
724.38	28.16
724.563	28.22
724.746	27.95
724.929	28.2
725.112	27.92
725.296	28.11
725.479	27.97
725.662	27.42
725.845	27.13
726.028	26.67
726.211	26.45
726.394	26.32
726.577	26.42
726.76	26.93
726.943	26.44
727.126	26.51
727.309	26.01
727.492	26.17
727.675	26.8
727.858	26.91
728.041	27.24
728.224	28
728.407	28.15
728.589	28.15
728.772	27.41
728.955	27.35
729.138	27.51
729.321	27.17
729.503	27.38
729.686	27.27
729.869	26.99
730.052	27.18
730.234	27.19
730.417	27.15
730.6	26.91
730.782	27.61
730.965	27.82
731.148	27.99
731.33	28.23
731.513	28.2
731.695	27.95
731.878	28.04
732.061	27.83
732.243	27.52
732.426	27.2
732.608	27.44
732.791	26.88
732.973	26.51
733.156	26.47
733.338	26.44
733.52	26.2
733.703	26.7
733.885	26.79
734.068	26.74
734.25	26.75
734.432	26.63
734.615	26.49
734.797	26.56
734.979	26.93
735.162	26.98
735.344	26.78
735.526	27
735.708	26.06
735.891	25.79
736.073	25.58
736.255	25.36
736.437	25.82
736.619	25.65
736.802	26.09
736.984	26.22
737.166	26.25
737.348	27.21
737.53	27.25
737.712	27.86
737.894	27.87
738.076	27.99
738.258	27.64
738.44	27.62
738.622	28.09
738.804	27.2
738.986	26.91
739.168	27.31
739.35	26.85
739.532	26.43
739.714	26.51
739.896	26.58
740.078	26.65
740.259	27.04
740.441	26.92
740.623	26.88
740.805	28.13
740.987	28.18
741.168	27.88
741.35	27.6
741.532	27.83
741.714	27.8
741.895	27.96
742.077	27.97
742.259	28.46
742.44	28.42
742.622	27.8
742.804	27.17
742.985	27.13
743.167	27.12
743.348	27.4
743.53	27.54
743.711	27.3
743.893	27.14
744.075	27.41
744.256	27.19
744.438	27.3
744.619	28.07
744.8	28.73
744.982	28.96
745.163	28.58
745.345	28.42
745.526	28.43
745.707	29.19
745.889	29.2
746.07	28.78
746.252	28.81
746.433	28.74
746.614	28.33
746.795	27.79
746.977	27.54
747.158	28.07
747.339	28.3
747.52	28.39
747.702	28.05
747.883	27.98
748.064	28.31
748.245	28.01
748.426	27.81
748.607	27.68
748.788	27.7
748.97	27.78
749.151	27.18
749.332	27.31
749.513	26.93
749.694	26.89
749.875	26.5
750.056	26.02
750.237	25.63
750.418	25.77
750.599	26.75
750.78	27.03
750.96	27.56
751.141	27.71
751.322	27.36
751.503	27.3
751.684	27.14
751.865	27.61
752.046	27.54
752.226	28.12
752.407	27.72
752.588	26.88
752.769	26.53
752.949	25.48
753.13	25.13
753.311	25.36
753.492	25.16
753.672	25.3
753.853	25.31
754.034	25.2
754.214	24.86
754.395	25.45
754.575	25.12
754.756	25.59
754.937	26.25
755.117	26.5
755.298	26.06
755.478	26.22
755.659	25.87
755.839	26.22
756.02	26.34
756.2	26.49
756.381	26.31
756.561	26.83
756.741	26.16
756.922	25.43
757.102	26.48
757.283	26.99
757.463	27.11
757.643	27.65
757.823	27.2
758.004	27.17
758.184	27.35
758.364	27.58
758.545	27.59
758.725	27.34
758.905	27.57
759.085	26.93
759.265	26.51
759.446	26.22
759.626	25.54
759.806	26.05
759.986	26.8
760.166	26.6
760.346	26.42
760.526	25.87
760.706	26.58
760.886	26.63
761.066	26.42
761.246	26.99
761.426	27.69
761.606	27.49
761.786	27.36
761.966	26.81
762.146	26.54
762.326	26.75
762.506	27.29
762.686	26.9
762.866	27.4
763.046	27.3
763.225	27.06
763.405	27.08
763.585	27.23
763.765	27.25
763.945	27.25
764.124	27.98
764.304	27.62
764.484	27.46
764.664	27.51
764.843	27.7
765.023	27.53
765.203	27.12
765.382	26.77
765.562	26.99
765.741	26.47
765.921	26.73
766.101	25.97
766.28	26.22
766.46	25.88
766.639	26
766.819	25.36
766.998	26.19
767.178	26.88
767.357	27.25
767.537	27.17
767.716	27.66
767.896	27.84
768.075	27.79
768.254	27.36
768.434	28.21
768.613	28.05
768.792	28.1
768.972	27.92
769.151	27.59
769.33	27.06
769.51	27.61
769.689	28
769.868	28.24
770.047	29.05
770.226	29.37
770.406	28.45
770.585	28.22
770.764	27.82
770.943	27.49
771.122	27.97
771.301	27.79
771.48	27.45
771.66	27.16
771.839	26.67
772.018	25.79
772.197	25.77
772.376	26.14
772.555	27.27
772.734	27.27
772.913	27.5
773.092	27.07
773.271	27.52
773.449	27.24
773.628	26.55
773.807	25.86
773.986	26.08
774.165	26.23
774.344	26.15
774.523	25.92
774.701	26.35
774.88	26.39
775.059	26.69
775.238	26.53
775.417	26.16
775.595	26.6
775.774	26.93
775.953	26.11
776.131	26.33
776.31	26
776.489	24.99
776.667	24.71
776.846	25.14
777.025	24.75
777.203	24.11
777.382	25.26
777.56	25.62
777.739	25.47
777.917	26.28
778.096	26.24
778.274	27.05
778.453	27.45
778.631	27.77
778.81	26.82
778.988	27.04
779.166	27.67
779.345	27.71
779.523	27.09
779.702	26.87
779.88	28.01
780.058	27.77
780.237	28.02
780.415	28.1
780.593	28
780.771	27.98
780.95	28.56
781.128	28.1
781.306	28.18
781.484	28.92
781.662	30.21
781.841	28.93
782.019	28.9
782.197	27.86
782.375	27.67
782.553	27.24
782.731	27.55
782.909	27.09
783.087	27.91
783.265	27.37
783.443	26.49
783.621	25.75
783.799	26
783.977	26.77
784.155	27.47
784.333	27.84
784.511	28.33
784.689	27.48
784.867	27.48
785.045	27.09
785.223	26.27
785.4	25.35
785.578	25.47
785.756	25.47
785.934	26.02
786.112	25.82
786.289	25.53
786.467	25.67
786.645	26.59
786.823	26.65
787	27.25
787.178	28.15
787.356	29.39
787.533	28.83
787.711	28.76
787.889	27.22
788.066	27.12
788.244	27.57
788.421	27.71
788.599	27.94
788.776	27.78
788.954	27.96
789.131	27.31
789.309	26.78
789.486	27.37
789.664	27.65
789.841	28.65
790.019	28.74
790.196	28.21
790.373	28.66
790.551	28.8
790.728	28.77
790.906	27.85
791.083	28.11
791.26	29.36
791.437	29.49
791.615	28.9
791.792	28.9
791.969	29.52
792.146	30.22
792.324	28.66
792.501	28.11
792.678	27.8
792.855	28.07
793.032	28.19
793.209	27.03
793.387	26.83
793.564	26.64
793.741	27.15
793.918	26.2
794.095	26.28
794.272	26.54
794.449	26.98
794.626	27.07
794.803	26.94
794.98	27
795.157	27.29
795.334	26.93
795.511	27.05
795.688	26.38
795.864	26.71
796.041	26.04
796.218	26.97
796.395	26.5
796.572	26.74
796.749	26.68
796.925	27.09
797.102	27.43
797.279	27.84
797.456	28.35
797.632	27.8
797.809	27.18
797.986	27.65
798.162	26.81
798.339	26.13
798.516	25.71
798.692	25.22
798.869	24.21
799.046	24.19
799.222	24
799.399	23.58
799.575	23.2
799.752	24.09
799.928	23.76
800.105	24.34
800.281	25.71
800.458	26.57
800.634	27.19
800.811	28.2
800.987	26.96
801.163	27.04
801.34	26.94
801.516	26.73
801.692	26.72
801.869	27.05
802.045	27.45
802.221	28.09
802.398	28.34
802.574	28.1
802.75	27.14
802.926	29.21
803.103	28.99
803.279	28.98
803.455	29.9
803.631	29.98
803.807	30.32
803.983	29.41
804.16	27.78
804.336	26.49
804.512	25.79
804.688	26.28
804.864	25.27
805.04	25.07
805.216	25.67
805.392	26.13
805.568	25.44
805.744	25.44
805.92	25.86
806.096	25.52
806.272	25.9
806.448	26.88
806.623	27.56
806.799	27.47
806.975	28.24
807.151	27.98
807.327	26.93
807.503	26.37
807.678	26.18
807.854	26.03
808.03	26.21
808.206	27.53
808.381	28.17
808.557	27.73
808.733	27.83
808.908	27.95
809.084	28.57
809.26	30.01
809.435	30.29
809.611	31.42
809.787	31.37
809.962	30.87
810.138	29.23
810.313	28.54
810.489	27.52
810.664	27.06
810.84	27.07
811.015	26.17
811.191	23.96
811.366	25.1
811.542	23.13
811.717	23.88
811.892	26.04
812.068	26.38
812.243	26.44
812.419	27.52
812.594	27.56
812.769	26.92
812.944	27.54
813.12	27.72
813.295	28.46
813.47	29.21
813.645	27.51
813.821	26.14
813.996	26.78
814.171	26.58
814.346	26.5
814.521	25.12
814.697	25.56
814.872	27.21
815.047	28.72
815.222	27.7
815.397	27.18
815.572	28.5
815.747	28.76
815.922	28.58
816.097	29.74
816.272	28.82
816.447	30.33
816.622	28.93
816.797	28.46
816.972	27.51
817.147	27.92
817.322	29.41
817.496	29.15
817.671	29.69
817.846	29.39
818.021	29
818.196	29.79
818.371	30.89
818.545	31.95
818.72	31.22
818.895	31.79
819.069	31.27
819.244	30.06
819.419	29.08
819.594	28.17
819.768	29.01
819.943	28.74
820.117	28.15
820.292	27.94
820.467	27.81
820.641	27.81
820.816	27.52
820.99	27.42
821.165	27.37
821.339	27.55
821.514	27.4
821.688	27.22
821.863	27.11
822.037	27.31
822.212	27.24
822.386	27.26
822.56	27.23
822.735	27.45
822.909	27.53
823.084	27.73
823.258	27.58
823.432	27.86
823.606	27.71
823.781	27.61
823.955	27.35
824.129	27.16
824.303	27.34
824.478	27.34
824.652	26.87
824.826	26.73
825	26.56
825.174	26.74
825.348	26.52
825.523	26.64
825.697	26.87
825.871	27.22
826.045	27.21
826.219	27.22
826.393	27.2
826.567	27.4
826.741	27.68
826.915	27.69
827.089	28.18
827.263	28.45
827.437	28.17
827.611	28.15
827.784	27.66
827.958	27.4
828.132	27.14
828.306	27.07
828.48	26.72
828.654	26.34
828.827	25.88
829.001	25.26
829.175	25.15
829.349	25.42
829.522	26.23
829.696	27.2
829.87	27.29
830.044	27.54
830.217	27.39
830.391	29.32
830.565	29.42
830.738	29.49
830.912	30.36
831.085	29.92
831.259	29.83
831.432	29.24
831.606	28.69
831.779	29.3
831.953	28.92
832.126	28.76
832.3	28.01
832.473	28.8
832.647	29.35
832.82	28.41
832.994	28.05
833.167	28.53
833.34	27.86
833.514	27.61
833.687	27.04
833.86	27.54
834.034	26.61
834.207	26.17
834.38	25.46
834.553	25.8
834.727	26.36
834.9	26.62
835.073	26.28
835.246	26.73
835.419	27.26
835.593	28.36
835.766	27.32
835.939	29.16
836.112	29.57
836.285	29.57
836.458	28.62
836.631	27.64
836.804	26.74
836.977	25.03
837.15	25.34
837.323	24.17
837.496	22.81
837.669	22.66
837.842	21.41
838.015	21.19
838.188	20.76
838.361	20.9
838.533	20.49
838.706	21.99
838.879	23.99
839.052	22.02
839.225	24.33
839.398	24.3
839.57	25.58
839.743	26.28
839.916	24.5
840.088	23.49
840.261	23.16
840.434	24.46
840.607	24.35
840.779	24.11
840.952	25.68
841.124	23.2
841.297	24.62
841.47	24.31
841.642	23.78
841.815	25.29
841.987	27.31
842.16	27.57
842.332	27.72
842.505	26.78
842.677	27.17
842.85	22.95
843.022	23.34
843.194	20.25
843.367	19.14
843.539	17.4
843.712	16.95
843.884	16.51
844.056	15.67
844.229	13.33
844.401	14.41
844.573	14.58
844.745	16.33
844.918	18.91
845.09	20.03
845.262	19.4
845.434	18.88
845.606	20.04
845.779	20.88
845.951	20.89
846.123	19.77
846.295	19.2
846.467	17.8
846.639	19.5
846.811	17.72
846.983	17.06
847.155	21.14
847.327	26.44
847.499	26.53
847.671	27.1
847.843	28.28
848.015	31.61
848.187	33.13
848.359	34.13
848.531	35.52
848.703	36.41
848.875	38.47
849.047	37.14
849.218	34.8
849.39	34.68
849.562	31.4
849.734	32.3
849.905	31.32
850.077	30.84
850.249	34.26
850.421	31.7
850.592	31.13
850.764	33.14
850.936	28.3
851.107	29.54
851.279	28.49
851.451	30.14
851.622	30.9
851.794	31.56
851.965	31.96
852.137	26.8
852.308	29.78
852.48	31.99
852.651	28.58
852.823	31.53
852.994	29.3
853.166	30.36
853.337	30.55
853.509	27.24
853.68	27.22
853.851	23.37
854.023	23.98
854.194	20.95
854.365	18.78
854.537	21.1
854.708	23.26
854.879	23.77
855.05	22.6
855.222	24.02
855.393	26.08
855.564	24.47
855.735	25.68
855.906	27.51
856.078	30.05
856.249	28.49
856.42	26.17
856.591	25.74
856.762	26.24
856.933	24.76
857.104	26.72
857.275	24.05
857.446	28.39
857.617	29.62
857.788	30.02
857.959	30.34
858.13	33.25
858.301	31.85
858.472	31.26
858.643	29.35
858.814	30.91
858.985	26.61
859.155	33.93
859.326	29.02
859.497	32.47
859.668	30.07
859.839	26.66
860.009	20.46
860.18	21.51
860.351	23.63
860.522	22.93
860.692	24.18
860.863	28.2
861.034	25.28
861.204	25.67
861.375	23.6
861.546	27.41
861.716	28.94
861.887	33.22
862.057	32.81
862.228	31.05
862.398	31.83
862.569	30.06
862.739	30.38
862.91	30.74
863.08	29.67
863.251	27.88
863.421	26.51
863.592	27.8
863.762	30.47
863.932	34.08
864.103	35.5
864.273	37.23
864.443	37.25
864.614	33.06
864.784	29.03
864.954	24.76
865.125	26.37
865.295	28.26
865.465	30.09
865.635	27.03
865.805	25.41
865.976	26.05
866.146	25.36
866.316	25.36
866.486	29.86
866.656	33.09
866.826	33.82
866.996	32.84
867.166	26.92
867.336	25.11
867.506	21.35
867.676	21.35
867.846	17.99
868.016	18.62
868.186	19.03
868.356	17.39
868.526	14.51
868.696	19.36
868.866	22.47
869.036	24.82
869.206	20.69
869.376	26.52
869.545	22.9
869.715	23.03
869.885	21.65
870.055	23.6
870.224	25.28
870.394	29.57
870.564	32.72
870.734	29.64
870.903	25.29
871.073	25.94
871.243	23.87
871.412	23.89
871.582	23.39
871.751	24.6
871.921	21.46
872.091	18.11
872.26	18.08
872.43	15.27
872.599	15.55
872.769	19.37
872.938	18.94
873.108	18.26
873.277	19.66
873.446	19.94
873.616	17.48
873.785	20.8
873.955	19.74
874.124	19.05
874.293	18.49
874.463	16.18
874.632	20.15
874.801	23.81
874.971	26.4
875.14	27.76
875.309	26.54
875.478	31.98
875.647	32.45
875.817	34.35
875.986	35.58
876.155	34.49
876.324	38.91
876.493	41.17
876.662	41.23
876.831	39.44
877	39.83
877.17	41.62
877.339	37.48
877.508	38.3
877.677	34.91
877.846	30.57
878.015	29.39
878.184	24.86
878.352	20.94
878.521	19.05
878.69	21.81
878.859	24.11
879.028	24.39
879.197	27.45
879.366	26.01
879.534	28.42
879.703	30.37
879.872	30.65
880.041	31.38
880.21	28.01
880.378	28.94
880.547	28.75
880.716	27.31
880.884	27.32
881.053	27.05
881.222	27.06
881.39	27.43
881.559	26.93
881.727	27.36
881.896	26.99
882.065	28.16
882.233	27.92
882.402	27.19
882.57	27.05
882.739	27.17
882.907	27.67
883.076	27.46
883.244	26.73
883.412	26.82
883.581	27.04
883.749	26.61
883.918	26.27
884.086	26.06
884.254	26.28
884.423	27.6
884.591	27.87
884.759	27.4
884.927	27.44
885.096	27.8
885.264	28.23
885.432	27.73
885.6	29.03
885.769	27.64
885.937	27.18
886.105	27.18
886.273	25.53
886.441	23.98
886.609	22.68
886.777	21.93
886.945	21.33
887.113	21.35
887.281	21.43
887.449	20.41
887.617	23.2
887.785	25.8
887.953	25.68
888.121	24.05
888.289	27.51
888.457	25.84
888.625	28.26
888.793	27.72
888.961	25.91
889.129	27.38
889.296	27.67
889.464	29.42
889.632	26.87
889.8	26.06
889.967	29.06
890.135	23.86
