Data from 2938505_Reflection_2.txt Node
Date: Tue Jun 16 23:06:07 EDT 2015
User: robert
Spectrometer: USB4E03002
Autoset integration time: false
Trigger mode: 4
Integration Time (sec): 1.000000E-1
Scans to average: 10
Electric dark correction enabled: true
Nonlinearity correction enabled: false
Boxcar width: 5
Stray light correction enabled: false
XAxis mode: Wavelengths
Stop averaging: false
Number of Pixels in Spectrum: 3648
>>>>>Begin Spectral Data<<<<<
177.575	1936
177.794	-9.59
178.014	55.38
178.233	84.1
178.452	61.15
178.672	108.51
178.891	17.27
179.11	2625
179.33	350
179.549	708.29
179.768	87.16
179.987	15.26
180.207	33.68
180.426	34.91
180.645	77.1
180.864	78.57
181.084	93.21
181.303	68.84
181.522	68.93
181.741	40.39
181.96	39.83
182.179	25.24
182.398	28.39
182.618	52.2
182.837	66.8
183.056	56.43
183.275	41.16
183.494	45.54
183.713	41.81
183.932	42.42
184.151	64.56
184.37	61.88
184.589	73.04
184.808	82.44
185.027	70.02
185.246	75.32
185.465	68.9
185.684	75.01
185.903	84.3
186.122	101.01
186.341	110.36
186.56	126.98
186.779	405.81
186.998	203.39
187.216	150.61
187.435	147.34
187.654	201.97
187.873	182.77
188.092	162.37
188.311	165.81
188.53	151.15
188.748	157.85
188.967	127.33
189.186	81.56
189.405	71.19
189.623	87.57
189.842	89.61
190.061	88.44
190.28	95.83
190.498	90.46
190.717	79.62
190.936	73.89
191.154	71.83
191.373	81.65
191.592	98.57
191.81	119.17
192.029	113.06
192.248	124.61
192.466	117.87
192.685	119.93
192.904	114.13
193.122	105.27
193.341	119.02
193.559	106.29
193.778	92.6
193.996	83.65
194.215	70.93
194.433	79.71
194.652	81.67
194.87	85.23
195.089	90.97
195.307	95.99
195.526	116.58
195.744	78.22
195.963	108.21
196.181	134.86
196.399	101.32
196.618	83.05
196.836	98.57
197.055	96.88
197.273	85.07
197.491	71.72
197.71	68.26
197.928	44.54
198.146	69.86
198.365	67.16
198.583	78.5
198.801	94.84
199.019	111.6
199.238	100.25
199.456	82.26
199.674	83.53
199.892	89.53
200.111	102.93
200.329	125.31
200.547	138.49
200.765	144.1
200.983	160.76
201.202	199.5
201.42	273.86
201.638	253.31
201.856	369.32
202.074	300.26
202.292	322.9
202.51	261.58
202.728	308.29
202.946	222.09
203.165	207.77
203.383	177.06
203.601	137.52
203.819	86.92
204.037	60.19
204.255	19.42
204.473	23.28
204.691	-16.94
204.909	-6.25
205.127	-8.25
205.345	0.41
205.562	0.88
205.78	10.73
205.998	11.29
206.216	9.32
206.434	-9.56
206.652	11.09
206.87	36.15
207.088	66.18
207.306	65.64
207.523	65.3
207.741	78.9
207.959	64.12
208.177	73.56
208.395	65.85
208.612	76.03
208.83	78.96
209.048	87.86
209.266	71.78
209.483	59.51
209.701	63.43
209.919	63.13
210.136	64.42
210.354	54.71
210.572	40.88
210.79	48.5
211.007	39.16
211.225	38.65
211.442	36.68
211.66	36.68
211.878	36.85
212.095	17.61
212.313	17.93
212.53	14.94
212.748	0.08
212.966	11.17
213.183	17.84
213.401	28.99
213.618	34.75
213.836	46.39
214.053	48.61
214.271	51.96
214.488	61.98
214.705	68.22
214.923	70.25
215.14	86.27
215.358	76.65
215.575	83.55
215.793	71.34
216.01	70.59
216.227	70.91
216.445	70.24
216.662	71.66
216.879	74
217.097	59.84
217.314	57.45
217.531	49.43
217.749	50.28
217.966	56.78
218.183	55.67
218.4	56.42
218.618	44.11
218.835	51.26
219.052	48.68
219.269	33.37
219.487	50.7
219.704	45.48
219.921	48.46
220.138	50.57
220.355	24.12
220.572	28.3
220.79	34.8
221.007	38.29
221.224	30.56
221.441	25.32
221.658	33.07
221.875	28.33
222.092	32.59
222.309	36.16
222.526	35.51
222.743	37.21
222.96	41.55
223.177	40.28
223.394	40.06
223.611	43.01
223.828	45.77
224.045	43.3
224.262	44
224.479	41.23
224.696	38.2
224.913	33.66
225.13	34.34
225.347	28.25
225.564	23.42
225.781	22.07
225.997	19.8
226.214	18.37
226.431	16.45
226.648	15.99
226.865	14.98
227.082	14.16
227.298	14.37
227.515	13.52
227.732	13.1
227.949	13.59
228.165	12.59
228.382	11.93
228.599	11.75
228.816	12.62
229.032	12.23
229.249	12.62
229.466	12.29
229.682	10.56
229.899	11.28
230.116	11.25
230.332	10.92
230.549	12.97
230.765	13.42
230.982	14.85
231.199	14.08
231.415	15.43
231.632	15.99
231.848	16.75
232.065	19.18
232.281	18.98
232.498	19.82
232.714	19.75
232.931	18.01
233.147	18.87
233.364	17.55
233.58	18.08
233.797	16.05
234.013	14.48
234.23	15.77
234.446	15.36
234.662	16.32
234.879	15.46
235.095	14
235.312	13.56
235.528	11.45
235.744	11.31
235.961	10.32
236.177	11.22
236.393	11.99
236.61	10.59
236.826	9.89
237.042	7.67
237.258	7.3
237.475	8.53
237.691	9.02
237.907	9.54
238.123	10.02
238.339	10.29
238.556	8.77
238.772	10.48
238.988	11
239.204	11.67
239.42	11.24
239.636	11.1
239.853	10.71
240.069	11.53
240.285	11.55
240.501	11.34
240.717	11.71
240.933	11.52
241.149	11.02
241.365	10.85
241.581	11.12
241.797	11.92
242.013	12.23
242.229	12.91
242.445	12.39
242.661	12.78
242.877	12.53
243.093	12.23
243.309	13.3
243.525	13.11
243.741	12.68
243.957	12.32
244.173	11.93
244.388	11.82
244.604	11.46
244.82	11.19
245.036	10.89
245.252	10.59
245.468	10.35
245.683	9.58
245.899	9.69
246.115	9.74
246.331	9.4
246.547	9.34
246.762	9.27
246.978	8.78
247.194	8.83
247.409	8.94
247.625	9.23
247.841	9.53
248.057	10.51
248.272	9.66
248.488	9.93
248.703	10.12
248.919	9.61
249.135	9.6
249.35	9.99
249.566	10.1
249.782	9.35
249.997	9.4
250.213	8.81
250.428	8.64
250.644	9.46
250.859	9.34
251.075	9.62
251.29	9.85
251.506	10.01
251.721	9.71
251.937	9.16
252.152	9.82
252.368	10.19
252.583	10.57
252.798	9.48
253.014	9.28
253.229	8.92
253.445	10.12
253.66	10.83
253.875	10.19
254.091	11.2
254.306	13.09
254.521	12.45
254.737	11.55
254.952	11.62
255.167	11.82
255.383	11.2
255.598	10.58
255.813	9.14
256.028	8.43
256.244	8.18
256.459	7.73
256.674	6.99
256.889	6.87
257.104	7.34
257.32	7.15
257.535	7.17
257.75	6.97
257.965	6.87
258.18	7.33
258.395	6.97
258.61	7.48
258.826	7.3
259.041	7.6
259.256	7.9
259.471	7.87
259.686	7.88
259.901	7.97
260.116	8.21
260.331	8.66
260.546	8.22
260.761	8.65
260.976	8.24
261.191	8.84
261.406	8.59
261.621	8.11
261.836	8.41
262.05	9.32
262.265	9.75
262.48	9.89
262.695	10.63
262.91	11.05
263.125	11.31
263.34	11.37
263.555	11.31
263.769	11.09
263.984	11.39
264.199	10.95
264.414	9.5
264.629	8.52
264.843	8.42
265.058	7.29
265.273	6.8
265.488	6.65
265.702	6.58
265.917	6.37
266.132	6.11
266.346	6.21
266.561	5.92
266.776	6.37
266.99	6.97
267.205	6.7
267.42	6.99
267.634	6.94
267.849	7.19
268.063	6.88
268.278	6.9
268.492	6.96
268.707	7.19
268.922	6.92
269.136	6.92
269.351	7.31
269.565	7.43
269.78	7.38
269.994	7.2
270.209	6.98
270.423	7.2
270.637	7.5
270.852	7.32
271.066	7.1
271.281	7.19
271.495	7.08
271.709	6.37
271.924	6.75
272.138	6.82
272.353	6.95
272.567	7.2
272.781	7.18
272.996	6.6
273.21	6.8
273.424	6.56
273.638	6.44
273.853	6.69
274.067	7.35
274.281	7.61
274.495	7.93
274.71	7.96
274.924	7.89
275.138	8.07
275.352	8.74
275.566	8.65
275.781	8.39
275.995	9.15
276.209	9.08
276.423	8.78
276.637	8.92
276.851	8.21
277.065	8.69
277.279	9.68
277.493	9.8
277.707	9.5
277.921	9.37
278.135	9.73
278.349	9.02
278.563	9.22
278.777	9.25
278.991	8.55
279.205	8.77
279.419	8.26
279.633	7.49
279.847	7.28
280.061	7.35
280.275	7.28
280.489	8.06
280.703	8.31
280.917	8.24
281.131	7.94
281.344	7.94
281.558	8.47
281.772	8.45
281.986	8.48
282.2	8.12
282.414	7.78
282.627	7.9
282.841	7.25
283.055	7.18
283.269	7.22
283.482	7.46
283.696	7.36
283.91	6.9
284.123	7.2
284.337	6.96
284.551	7.19
284.764	7.69
284.978	8.1
285.192	7.88
285.405	7.99
285.619	8.04
285.833	8.1
286.046	8.32
286.26	8.23
286.473	7.9
286.687	8.16
286.9	8.31
287.114	8.05
287.327	8.03
287.541	8.05
287.754	7.81
287.968	7.37
288.181	7.1
288.395	7.32
288.608	7.69
288.822	7.7
289.035	7.53
289.248	7.52
289.462	7.45
289.675	7.04
289.889	7.32
290.102	7.28
290.315	7.27
290.529	7.75
290.742	7.27
290.955	7.35
291.169	7.76
291.382	7.89
291.595	7.47
291.808	7.66
292.022	7.6
292.235	7.36
292.448	7.09
292.661	7.53
292.875	7.58
293.088	7.78
293.301	7.4
293.514	7.34
293.727	7.45
293.94	7.41
294.153	7.22
294.367	7.27
294.58	7.06
294.793	7.16
295.006	7.23
295.219	6.82
295.432	6.93
295.645	6.93
295.858	6.69
296.071	6.7
296.284	6.96
296.497	6.97
296.71	7.25
296.923	7.27
297.136	7.49
297.349	7.54
297.562	7.58
297.775	7.08
297.988	6.98
298.201	7.32
298.414	7.3
298.626	6.92
298.839	6.93
299.052	6.78
299.265	7.1
299.478	7.23
299.691	6.79
299.903	7.1
300.116	7.5
300.329	7.61
300.542	7.7
300.755	7.93
300.967	8.24
301.18	8.48
301.393	8.29
301.605	8.3
301.818	8.39
302.031	8.52
302.243	8.31
302.456	8.53
302.669	8.71
302.881	8.42
303.094	8.3
303.307	8.54
303.519	8.51
303.732	8.65
303.944	8.98
304.157	9.07
304.37	9.18
304.582	9.25
304.795	9.12
305.007	9.52
305.22	8.67
305.432	8.26
305.645	8.16
305.857	8.02
306.069	8.07
306.282	7.38
306.494	7.05
306.707	7.11
306.919	7.54
307.132	7.47
307.344	7.1
307.556	8.02
307.769	8.1
307.981	8.05
308.193	8.18
308.406	8.11
308.618	8.3
308.83	8.63
309.043	8.85
309.255	8.66
309.467	8.92
309.679	8.9
309.892	8.96
310.104	8.95
310.316	8.99
310.528	9.1
310.74	9.03
310.953	9.29
311.165	9.07
311.377	8.97
311.589	9.11
311.801	8.78
312.013	8.71
312.225	8.35
312.437	8.24
312.649	8.69
312.862	8.43
313.074	8.79
313.286	8.25
313.498	8.14
313.71	8.18
313.922	8.5
314.134	8.51
314.346	8.41
314.558	8.85
314.77	9.26
314.982	8.77
315.193	8.79
315.405	8.72
315.617	9.07
315.829	9.15
316.041	8.81
316.253	8.13
316.465	8.18
316.677	7.96
316.888	7.68
317.1	7.9
317.312	8.03
317.524	8.13
317.736	7.77
317.947	7.74
318.159	7.95
318.371	7.63
318.583	7.71
318.794	7.79
319.006	8.29
319.218	8.11
319.43	8.06
319.641	7.99
319.853	8.08
320.064	8.27
320.276	8.19
320.488	8.21
320.699	8.44
320.911	8.46
321.123	8.5
321.334	8.73
321.546	9.29
321.757	9.15
321.969	9.13
322.18	8.78
322.392	9.06
322.603	9.3
322.815	9.08
323.026	9.37
323.238	9.17
323.449	9.44
323.661	9.56
323.872	9.43
324.083	9.04
324.295	9.03
324.506	9.74
324.718	9.62
324.929	9.7
325.14	9.67
325.352	9.95
325.563	10.44
325.774	10.36
325.986	10.1
326.197	10.23
326.408	10.67
326.62	10.5
326.831	10.08
327.042	9.71
327.253	9.74
327.464	10.14
327.676	9.72
327.887	9.42
328.098	9.06
328.309	9
328.52	9.49
328.732	9.67
328.943	9.61
329.154	9.81
329.365	10.11
329.576	10
329.787	9.71
329.998	9.98
330.209	10.26
330.42	10.71
330.631	10.89
330.842	10.17
331.053	9.58
331.264	9.7
331.475	9.54
331.686	9.85
331.897	9.53
332.108	9.45
332.319	9.44
332.53	9.42
332.741	9.31
332.952	9.29
333.163	9.4
333.374	9.53
333.585	9.79
333.795	9.52
334.006	9.14
334.217	9.79
334.428	9.79
334.639	9.67
334.849	9.46
335.06	9.69
335.271	9.75
335.482	9.87
335.692	10.13
335.903	10.28
336.114	10.41
336.325	10.34
336.535	9.95
336.746	10
336.957	10.1
337.167	9.92
337.378	9.63
337.589	9.57
337.799	9.71
338.01	9.12
338.22	9.09
338.431	9.11
338.642	9.31
338.852	9.29
339.063	9.22
339.273	9.14
339.484	9.56
339.694	9.44
339.905	9.63
340.115	8.85
340.326	9.31
340.536	8.96
340.746	8.93
340.957	9.13
341.167	9.06
341.378	9.27
341.588	9.19
341.799	9.01
342.009	8.9
342.219	8.47
342.43	9.07
342.64	8.82
342.85	8.71
343.061	8.69
343.271	8.19
343.481	8.32
343.691	8.58
343.902	8.75
344.112	8.6
344.322	8.91
344.532	9.13
344.743	8.8
344.953	9.03
345.163	9.11
345.373	8.98
345.583	9.32
345.793	9.64
346.004	9.5
346.214	9.38
346.424	9.72
346.634	9.61
346.844	9.5
347.054	9.58
347.264	9.48
347.474	9.64
347.684	9.66
347.894	9.54
348.104	9.11
348.314	8.63
348.524	8.58
348.734	8.55
348.944	8.41
349.154	8.4
349.364	8.42
349.574	8.27
349.784	8.03
349.994	7.8
350.204	7.86
350.413	7.99
350.623	8.25
350.833	8.02
351.043	7.62
351.253	7.55
351.463	7.45
351.672	7.82
351.882	7.74
352.092	7.97
352.302	8.36
352.511	8.48
352.721	8.43
352.931	8.38
353.141	8.55
353.35	8.48
353.56	8.64
353.77	8.8
353.979	8.31
354.189	8.69
354.399	8.71
354.608	8.57
354.818	8.1
355.027	7.83
355.237	7.9
355.447	7.9
355.656	8.06
355.866	7.96
356.075	7.86
356.285	7.94
356.494	7.62
356.704	7.31
356.913	7.39
357.123	7.71
357.332	7.8
357.542	7.87
357.751	7.78
357.96	7.93
358.17	7.74
358.379	7.72
358.589	7.68
358.798	7.79
359.007	7.65
359.217	7.84
359.426	7.84
359.635	7.8
359.845	7.7
360.054	7.8
360.263	7.71
360.472	7.71
360.682	7.78
360.891	7.72
361.1	7.79
361.309	7.95
361.519	7.82
361.728	7.79
361.937	8.08
362.146	7.94
362.355	8.13
362.564	8.07
362.774	8.1
362.983	7.99
363.192	8.17
363.401	8.07
363.61	8
363.819	7.93
364.028	7.92
364.237	7.72
364.446	7.72
364.655	7.35
364.864	7.43
365.073	7.67
365.282	7.68
365.491	7.57
365.7	7.64
365.909	7.88
366.118	7.68
366.327	7.62
366.536	7.48
366.745	7.8
366.954	7.98
367.162	8.17
367.371	8.17
367.58	8.14
367.789	8.44
367.998	8.17
368.207	8.05
368.415	7.91
368.624	7.9
368.833	8.07
369.042	7.82
369.25	7.78
369.459	7.16
369.668	6.96
369.877	6.98
370.085	6.84
370.294	7.13
370.503	7.43
370.711	7.5
370.92	7.26
371.129	7.16
371.337	7.16
371.546	6.84
371.754	7.07
371.963	7.04
372.171	6.96
372.38	6.75
372.589	6.33
372.797	6.02
373.006	6.18
373.214	6.5
373.423	6.59
373.631	6.63
373.84	6.86
374.048	7.02
374.256	7.19
374.465	7.11
374.673	7.24
374.882	7.57
375.09	7.52
375.298	7.45
375.507	7.18
375.715	7.1
375.923	7.13
376.132	6.98
376.34	6.78
376.548	6.61
376.757	6.86
376.965	6.82
377.173	6.84
377.381	6.78
377.59	6.75
377.798	6.9
378.006	6.91
378.214	6.89
378.423	7.01
378.631	7.08
378.839	7.3
379.047	7.39
379.255	7.5
379.463	7.4
379.671	7.45
379.879	7.45
380.088	7.57
380.296	7.42
380.504	7.2
380.712	7.23
380.92	7.23
381.128	7.2
381.336	7.13
381.544	7.02
381.752	6.78
381.96	6.74
382.168	6.72
382.376	6.64
382.584	6.83
382.791	6.95
382.999	6.89
383.207	7.11
383.415	7.08
383.623	6.91
383.831	6.82
384.039	6.97
384.247	6.84
384.454	6.81
384.662	6.64
384.87	6.45
385.078	6.31
385.285	6.37
385.493	6.22
385.701	5.9
385.909	5.85
386.116	5.68
386.324	5.7
386.532	5.84
386.739	5.93
386.947	6.11
387.155	6.03
387.362	6.2
387.57	6.23
387.778	6.08
387.985	6.15
388.193	6.11
388.4	6.34
388.608	6.35
388.816	6.35
389.023	6.43
389.231	6.56
389.438	6.56
389.646	6.56
389.853	6.41
390.061	6.42
390.268	6.4
390.475	6.57
390.683	6.48
390.89	6.31
391.098	6.31
391.305	6.02
391.512	5.91
391.72	5.76
391.927	5.73
392.135	5.81
392.342	5.85
392.549	6.02
392.756	5.92
392.964	5.8
393.171	6
393.378	5.81
393.586	5.8
393.793	5.8
394	6.05
394.207	5.99
394.414	5.8
394.622	5.61
394.829	5.59
395.036	5.46
395.243	5.51
395.45	5.35
395.657	5.52
395.864	5.65
396.072	5.67
396.279	5.73
396.486	5.68
396.693	5.81
396.9	5.94
397.107	5.76
397.314	5.8
397.521	5.88
397.728	5.81
397.935	5.84
398.142	5.71
398.349	5.49
398.556	5.4
398.763	5.34
398.97	5.29
399.177	5.17
399.383	4.99
399.59	5.04
399.797	5.02
400.004	4.86
400.211	4.82
400.418	4.98
400.625	4.98
400.831	4.89
401.038	4.89
401.245	4.78
401.452	4.89
401.658	5.15
401.865	5.1
402.072	5.04
402.279	5.22
402.485	5.31
402.692	5.17
402.899	5.23
403.105	5.32
403.312	5.37
403.519	5.51
403.725	5.46
403.932	5.28
404.138	5.2
404.345	5.01
404.552	5.07
404.758	4.86
404.965	4.88
405.171	4.74
405.378	4.76
405.584	4.67
405.791	4.54
405.997	4.57
406.204	4.58
406.41	4.68
406.617	4.97
406.823	4.75
407.029	4.82
407.236	4.78
407.442	4.83
407.649	4.66
407.855	4.76
408.061	4.81
408.268	4.71
408.474	4.75
408.68	4.59
408.887	4.57
409.093	4.73
409.299	4.74
409.505	4.96
409.712	4.97
409.918	5.04
410.124	4.94
410.33	4.88
410.537	4.9
410.743	4.98
410.949	4.99
411.155	4.95
411.361	4.88
411.567	4.72
411.773	4.53
411.98	4.69
412.186	4.58
412.392	4.73
412.598	4.77
412.804	4.76
413.01	4.73
413.216	4.74
413.422	4.7
413.628	4.53
413.834	4.61
414.04	4.59
414.246	4.59
414.452	4.62
414.658	4.56
414.864	4.55
415.07	4.48
415.275	4.29
415.481	4.37
415.687	4.28
415.893	4.41
416.099	4.38
416.305	4.26
416.511	4.22
416.716	4.15
416.922	4.1
417.128	4.07
417.334	4.08
417.539	4.22
417.745	4.26
417.951	4.28
418.157	4.21
418.362	4.15
418.568	4.29
418.774	4.2
418.979	4.16
419.185	4.17
419.391	4.2
419.596	4.19
419.802	4.04
420.008	3.91
420.213	4.57
420.419	4.6
420.624	4.57
420.83	4.48
421.035	4.52
421.241	4.53
421.446	4.45
421.652	4.33
421.857	4.25
422.063	4.31
422.268	4.35
422.474	3.67
422.679	3.65
422.885	3.71
423.09	3.76
423.295	3.73
423.501	3.75
423.706	3.84
423.911	3.94
424.117	4.01
424.322	3.97
424.527	3.96
424.733	4.04
424.938	4.1
425.143	4.11
425.349	4.12
425.554	4.15
425.759	4.13
425.964	4.13
426.169	4.11
426.375	4.21
426.58	4.35
426.785	4.35
426.99	4.2
427.195	4.2
427.4	4.25
427.605	4.24
427.811	4.1
428.016	4.06
428.221	3.88
428.426	3.77
428.631	3.66
428.836	3.56
429.041	3.58
429.246	3.62
429.451	3.54
429.656	3.46
429.861	3.43
430.066	3.51
430.271	3.51
430.476	3.63
430.681	3.68
430.886	3.71
431.09	3.78
431.295	3.75
431.5	3.7
431.705	3.62
431.91	3.68
432.115	3.73
432.32	3.74
432.524	3.69
432.729	3.6
432.934	3.67
433.139	3.61
433.343	3.5
433.548	3.56
433.753	3.57
433.958	3.6
434.162	3.51
434.367	3.36
434.572	3.36
434.776	3.53
434.981	3.53
435.186	3.43
435.39	3.54
435.595	3.61
435.799	3.58
436.004	3.67
436.209	3.66
436.413	3.64
436.618	3.69
436.822	3.66
437.027	3.53
437.231	3.57
437.436	3.65
437.64	3.6
437.845	3.51
438.049	3.4
438.253	3.37
438.458	3.46
438.662	3.46
438.867	3.5
439.071	3.51
439.275	3.55
439.48	3.47
439.684	3.47
439.888	3.37
440.093	3.46
440.297	3.51
440.501	3.52
440.706	3.49
440.91	3.5
441.114	3.49
441.318	3.47
441.523	3.49
441.727	3.64
441.931	3.55
442.135	3.54
442.339	3.51
442.543	3.49
442.748	3.56
442.952	3.59
443.156	3.55
443.36	3.56
443.564	3.5
443.768	3.39
443.972	3.32
444.176	3.37
444.38	3.47
444.584	3.45
444.788	3.48
444.992	3.35
445.196	3.29
445.4	3.34
445.604	3.29
445.808	3.31
446.012	3.4
446.216	3.43
446.42	3.35
446.624	3.24
446.828	3.23
447.032	3.19
447.235	3.2
447.439	3.29
447.643	3.24
447.847	3.34
448.051	3.34
448.254	3.37
448.458	3.36
448.662	3.45
448.866	3.57
449.069	3.6
449.273	3.65
449.477	3.66
449.681	3.58
449.884	3.52
450.088	3.32
450.292	3.22
450.495	3.2
450.699	3.06
450.902	2.97
451.106	2.95
451.31	2.98
451.513	2.95
451.717	2.9
451.92	2.92
452.124	2.97
452.327	3.03
452.531	3.07
452.734	3.08
452.938	3.15
453.141	3.21
453.345	3.26
453.548	3.2
453.752	3.21
453.955	3.29
454.158	3.24
454.362	3.12
454.565	3.15
454.769	3.15
454.972	3.05
455.175	3
455.379	2.94
455.582	2.89
455.785	2.95
455.988	2.91
456.192	2.9
456.395	2.85
456.598	3.09
456.801	3.07
457.005	3.07
457.208	3.06
457.411	3.24
457.614	3.24
457.817	3.23
458.021	3.18
458.224	3.21
458.427	3.21
458.63	3.29
458.833	3.19
459.036	3.22
459.239	3.21
459.442	3.21
459.645	3.1
459.848	3.17
460.051	3.12
460.254	3.15
460.457	3.19
460.66	3.16
460.863	3.04
461.066	3.03
461.269	3.01
461.472	2.98
461.675	3.02
461.878	3.01
462.081	3.01
462.284	3.19
462.486	3.21
462.689	3.15
462.892	3.21
463.095	3.27
463.298	3.39
463.5	3.45
463.703	3.46
463.906	3.46
464.109	3.47
464.311	3.49
464.514	3.44
464.717	3.38
464.92	3.44
465.122	3.41
465.325	3.28
465.528	3.24
465.73	3.19
465.933	3.35
466.135	3.31
466.338	3.33
466.541	3.29
466.743	3.25
466.946	3.36
467.148	3.33
467.351	3.39
467.553	3.41
467.756	3.44
467.958	3.47
468.161	3.47
468.363	3.46
468.566	3.52
468.768	3.44
468.971	3.4
469.173	3.32
469.375	3.39
469.578	3.4
469.78	3.56
469.983	3.48
470.185	3.5
470.387	3.37
470.59	3.29
470.792	3.27
470.994	3.28
471.196	3.37
471.399	3.32
471.601	3.27
471.803	3.29
472.005	3.14
472.208	3.13
472.41	3.13
472.612	3.18
472.814	3.31
473.016	3.27
473.218	3.24
473.421	3.27
473.623	3.29
473.825	3.27
474.027	3.24
474.229	3.26
474.431	3.21
474.633	3.15
474.835	3.19
475.037	3.21
475.239	3.2
475.441	3.23
475.643	3.15
475.845	3.18
476.047	3.16
476.249	3.09
476.451	3.02
476.653	3.16
476.855	3.25
477.057	3.31
477.258	3.24
477.46	3.2
477.662	3.3
477.864	3.29
478.066	3.32
478.268	3.3
478.469	3.37
478.671	3.46
478.873	3.32
479.075	3.3
479.276	3.11
479.478	3.12
479.68	3.16
479.882	3.14
480.083	3.21
480.285	3.19
480.487	3.19
480.688	3.13
480.89	3.1
481.091	3.11
481.293	3.06
481.495	3.11
481.696	3.1
481.898	3.09
482.099	3.06
482.301	3.03
482.502	3.03
482.704	3.06
482.905	3.1
483.107	3.15
483.308	3.18
483.51	3.2
483.711	3.21
483.913	3.23
484.114	3.26
484.315	3.31
484.517	3.31
484.718	3.34
484.92	3.31
485.121	3.27
485.322	3.24
485.524	3.23
485.725	3.25
485.926	3.24
486.127	3.25
486.329	3.23
486.53	3.23
486.731	3.22
486.932	3.19
487.134	3.18
487.335	3.21
487.536	3.16
487.737	3.12
487.938	3.13
488.139	3.13
488.341	3.13
488.542	3.17
488.743	3.1
488.944	3.12
489.145	3.16
489.346	3.2
489.547	3.14
489.748	3.19
489.949	3.19
490.15	3.18
490.351	3.17
490.552	3.17
490.753	3.15
490.954	3.16
491.155	3.14
491.356	3.15
491.557	3.14
491.758	3.22
491.959	3.25
492.159	3.33
492.36	3.36
492.561	3.38
492.762	3.41
492.963	3.42
493.164	3.4
493.364	3.47
493.565	3.41
493.766	3.4
493.967	3.33
494.167	3.34
494.368	3.35
494.569	3.29
494.769	3.33
494.97	3.33
495.171	3.33
495.371	3.36
495.572	3.38
495.773	3.42
495.973	3.42
496.174	3.4
496.375	3.39
496.575	3.5
496.776	3.53
496.976	3.54
497.177	3.52
497.377	3.56
497.578	3.66
497.778	3.65
497.979	3.73
498.179	3.78
498.38	3.82
498.58	3.79
498.78	3.65
498.981	3.69
499.181	3.7
499.382	3.67
499.582	3.68
499.782	3.67
499.983	3.69
500.183	3.6
500.383	3.61
500.584	3.61
500.784	3.67
500.984	3.7
501.184	3.73
501.385	3.74
501.585	3.74
501.785	3.73
501.985	3.77
502.185	3.84
502.386	3.94
502.586	3.91
502.786	3.93
502.986	3.91
503.186	3.94
503.386	3.89
503.586	3.92
503.786	4.01
503.987	3.97
504.187	3.98
504.387	3.98
504.587	3.93
504.787	4.02
504.987	4.03
505.187	4.03
505.387	3.98
505.587	4.03
505.786	3.99
505.986	4.02
506.186	4.14
506.386	4.2
506.586	4.2
506.786	4.3
506.986	4.24
507.186	4.29
507.386	4.33
507.585	4.38
507.785	4.43
507.985	4.46
508.185	4.41
508.384	4.4
508.584	4.36
508.784	4.37
508.984	4.35
509.183	4.46
509.383	4.42
509.583	4.37
509.782	4.39
509.982	4.35
510.182	4.39
510.381	4.48
510.581	4.55
510.781	4.53
510.98	4.49
511.18	4.54
511.379	4.5
511.579	4.61
511.778	4.7
511.978	4.73
512.177	4.79
512.377	4.82
512.576	4.8
512.776	4.71
512.975	4.78
513.175	4.9
513.374	4.87
513.573	4.88
513.773	4.91
513.972	4.94
514.172	5.02
514.371	5.09
514.57	5.08
514.77	5.15
514.969	5.29
515.168	5.36
515.367	5.37
515.567	5.4
515.766	5.48
515.965	5.43
516.164	5.5
516.364	5.45
516.563	5.49
516.762	5.52
516.961	5.53
517.16	5.52
517.359	5.51
517.559	5.49
517.758	5.48
517.957	5.52
518.156	5.59
518.355	5.56
518.554	5.56
518.753	5.61
518.952	5.64
519.151	5.69
519.35	5.68
519.549	5.7
519.748	5.74
519.947	5.8
520.146	5.78
520.345	5.83
520.544	5.81
520.743	5.96
520.942	5.87
521.141	5.82
521.339	5.86
521.538	5.86
521.737	5.82
521.936	5.82
522.135	5.84
522.333	5.98
522.532	5.93
522.731	5.98
522.93	5.95
523.129	6.05
523.327	6.13
523.526	6.14
523.725	6.21
523.923	6.23
524.122	6.27
524.321	6.3
524.519	6.29
524.718	6.33
524.917	6.37
525.115	6.43
525.314	6.41
525.512	6.46
525.711	6.46
525.909	6.48
526.108	6.55
526.306	6.59
526.505	6.61
526.703	6.6
526.902	6.62
527.1	6.64
527.299	6.63
527.497	6.66
527.696	6.65
527.894	6.69
528.092	6.72
528.291	6.74
528.489	6.75
528.688	6.75
528.886	6.79
529.084	6.84
529.283	6.84
529.481	6.87
529.679	6.88
529.877	6.95
530.076	7.01
530.274	7.03
530.472	7.03
530.67	7.07
530.869	7.16
531.067	7.15
531.265	7.17
531.463	7.25
531.661	7.27
531.859	7.33
532.057	7.33
532.255	7.34
532.454	7.38
532.652	7.42
532.85	7.44
533.048	7.43
533.246	7.48
533.444	7.49
533.642	7.54
533.84	7.54
534.038	7.58
534.236	7.64
534.434	7.68
534.632	7.71
534.83	7.72
535.027	7.78
535.225	7.8
535.423	7.83
535.621	7.89
535.819	7.89
536.017	7.94
536.215	7.91
536.412	7.94
536.61	7.92
536.808	7.98
537.006	8.1
537.203	8.15
537.401	8.2
537.599	8.25
537.797	8.24
537.994	8.28
538.192	8.37
538.39	8.43
538.587	8.52
538.785	8.61
538.983	8.61
539.18	8.59
539.378	8.57
539.575	8.64
539.773	8.66
539.97	8.7
540.168	8.74
540.366	8.75
540.563	8.8
540.761	8.81
540.958	8.85
541.155	8.88
541.353	8.89
541.55	8.92
541.748	8.93
541.945	8.95
542.143	8.99
542.34	9.01
542.537	9.04
542.735	9.07
542.932	9.13
543.129	9.12
543.327	9.16
543.524	9.31
543.721	9.36
543.919	9.44
544.116	9.5
544.313	9.48
544.51	9.53
544.708	9.54
544.905	9.68
545.102	9.69
545.299	9.8
545.496	9.84
545.693	9.85
545.891	9.9
546.088	9.88
546.285	9.98
546.482	10.1
546.679	10.15
546.876	10.22
547.073	10.14
547.27	10.13
547.467	10.14
547.664	10.24
547.861	10.29
548.058	10.3
548.255	10.39
548.452	10.33
548.649	10.49
548.846	10.56
549.043	10.69
549.24	10.79
549.437	10.9
549.633	11.02
549.83	11.02
550.027	11.09
550.224	11.28
550.421	11.37
550.618	11.54
550.814	11.62
551.011	11.68
551.208	11.77
551.405	11.84
551.601	11.94
551.798	11.95
551.995	12.03
552.191	12.01
552.388	12
552.585	12.05
552.781	12.12
552.978	12.12
553.175	12.17
553.371	12.16
553.568	12.17
553.764	12.15
553.961	12.24
554.157	12.41
554.354	12.51
554.55	12.67
554.747	12.77
554.943	12.85
555.14	12.82
555.336	12.96
555.533	13.11
555.729	13.2
555.926	13.32
556.122	13.3
556.318	13.24
556.515	13.33
556.711	13.37
556.907	13.48
557.104	13.42
557.3	13.67
557.496	13.61
557.693	13.71
557.889	13.83
558.085	13.77
558.281	13.88
558.478	13.98
558.674	14.03
558.87	14.09
559.066	14.06
559.262	14.25
559.459	14.27
559.655	14.41
559.851	14.35
560.047	14.45
560.243	14.53
560.439	14.61
560.635	14.75
560.831	14.88
561.027	14.87
561.223	15.05
561.419	15.1
561.615	15.2
561.811	15.3
562.007	15.47
562.203	15.46
562.399	15.7
562.595	15.81
562.791	15.86
562.987	15.87
563.183	15.94
563.379	15.87
563.575	15.96
563.771	15.96
563.966	16.04
564.162	16.19
564.358	16.29
564.554	16.4
564.75	16.4
564.945	16.48
565.141	16.53
565.337	16.72
565.533	16.85
565.728	16.94
565.924	17.01
566.12	16.96
566.315	17.01
566.511	17.15
566.707	17.12
566.902	17.29
567.098	17.23
567.293	17.43
567.489	17.48
567.684	17.5
567.88	17.53
568.076	17.61
568.271	17.79
568.467	17.83
568.662	17.86
568.858	18.04
569.053	18.13
569.248	18.33
569.444	18.25
569.639	18.37
569.835	18.6
570.03	18.69
570.225	18.86
570.421	19.01
570.616	19.06
570.812	19.13
571.007	19.05
571.202	19.09
571.397	19.11
571.593	19.2
571.788	19.23
571.983	19.23
572.178	19.33
572.374	19.35
572.569	19.29
572.764	19.41
572.959	19.47
573.154	19.56
573.35	19.63
573.545	19.8
573.74	19.84
573.935	19.78
574.13	19.81
574.325	19.76
574.52	19.81
574.715	19.92
574.91	19.94
575.105	19.98
575.3	20.02
575.495	19.99
575.69	20.01
575.885	20.13
576.08	20.16
576.275	20.27
576.47	20.32
576.665	20.3
576.86	20.32
577.055	20.35
577.25	20.4
577.444	20.56
577.639	20.79
577.834	20.71
578.029	20.7
578.224	20.93
578.418	21.02
578.613	21.18
578.808	21.32
579.003	21.46
579.197	21.5
579.392	21.57
579.587	21.61
579.781	21.61
579.976	21.74
580.171	21.92
580.365	21.88
580.56	21.81
580.755	21.97
580.949	21.99
581.144	21.9
581.338	22.04
581.533	22.08
581.727	22.2
581.922	22.06
582.116	22.13
582.311	22.06
582.505	22.21
582.7	22.31
582.894	22.33
583.089	22.38
583.283	22.51
583.478	22.36
583.672	22.38
583.866	22.39
584.061	22.53
584.255	22.59
584.449	22.71
584.644	22.67
584.838	22.78
585.032	22.59
585.226	22.64
585.421	22.6
585.615	22.82
585.809	22.94
586.003	22.93
586.198	22.88
586.392	22.75
586.586	22.81
586.78	22.82
586.974	22.87
587.168	22.98
587.363	22.95
587.557	22.99
587.751	22.93
587.945	22.99
588.139	23.08
588.333	23.28
588.527	23.4
588.721	23.44
588.915	23.5
589.109	23.43
589.303	23.63
589.497	23.71
589.691	23.81
589.885	23.9
590.079	23.84
590.273	23.77
590.466	23.75
590.66	23.74
590.854	23.85
591.048	23.88
591.242	23.91
591.436	23.83
591.629	23.86
591.823	23.86
592.017	23.93
592.211	24.11
592.404	24.16
592.598	24.18
592.792	24.37
592.986	24.35
593.179	24.47
593.373	24.46
593.567	24.39
593.76	24.35
593.954	24.41
594.147	24.39
594.341	24.4
594.535	24.53
594.728	24.51
594.922	24.65
595.115	24.75
595.309	24.57
595.502	24.63
595.696	24.71
595.889	24.71
596.083	24.73
596.276	24.78
596.47	24.69
596.663	24.65
596.856	24.68
597.05	24.53
597.243	24.39
597.437	24.49
597.63	24.51
597.823	24.58
598.017	24.66
598.21	24.8
598.403	24.88
598.596	25.06
598.79	24.92
598.983	24.91
599.176	24.9
599.369	24.92
599.563	24.89
599.756	24.96
599.949	24.87
600.142	24.98
600.335	24.94
600.528	24.82
600.722	24.83
600.915	25.06
601.108	25.19
601.301	25.29
601.494	25.37
601.687	25.45
601.88	25.43
602.073	25.43
602.266	25.33
602.459	25.41
602.652	25.35
602.845	25.31
603.038	25.29
603.231	25.27
603.424	25.23
603.617	25.2
603.809	25.29
604.002	25.17
604.195	25.18
604.388	25.26
604.581	25.28
604.774	25.43
604.966	25.38
605.159	25.38
605.352	25.49
605.545	25.51
605.737	25.58
605.93	25.59
606.123	25.95
606.316	26.07
606.508	25.9
606.701	25.82
606.894	25.67
607.086	25.69
607.279	25.64
607.471	25.65
607.664	25.74
607.857	25.82
608.049	25.73
608.242	25.59
608.434	25.56
608.627	25.69
608.819	25.71
609.012	25.75
609.204	25.86
609.397	25.92
609.589	25.79
609.782	25.64
609.974	25.62
610.166	25.79
610.359	25.87
610.551	25.91
610.743	26.03
610.936	26.01
611.128	26.11
611.32	26.13
611.513	26.13
611.705	26.21
611.897	26.48
612.09	26.35
612.282	26.24
612.474	26.22
612.666	26.11
612.858	26.09
613.051	26.13
613.243	26.18
613.435	26.3
613.627	26.38
613.819	26.49
614.011	26.28
614.203	26.37
614.395	26.58
614.588	26.62
614.78	26.77
614.972	26.65
615.164	26.7
615.356	26.68
615.548	26.39
615.74	26.3
615.932	26.22
616.124	26.16
616.315	26.34
616.507	26.27
616.699	26.22
616.891	26.06
617.083	26.18
617.275	26.17
617.467	26.29
617.659	26.61
617.85	26.61
618.042	26.66
618.234	26.85
618.426	26.76
618.618	26.75
618.809	26.73
619.001	26.83
619.193	26.67
619.384	26.71
619.576	26.77
619.768	26.56
619.959	26.52
620.151	26.54
620.343	26.49
620.534	26.45
620.726	26.31
620.917	26.36
621.109	26.47
621.301	26.8
621.492	26.68
621.684	26.56
621.875	26.66
622.067	26.94
622.258	26.9
622.45	27.08
622.641	27.03
622.832	27.19
623.024	27.2
623.215	27.04
623.407	27.02
623.598	27.14
623.789	27.2
623.981	27.27
624.172	27.32
624.363	27.57
624.555	27.31
624.746	27.33
624.937	27.36
625.129	27.31
625.32	27.57
625.511	27.33
625.702	27.46
625.893	27.38
626.085	27.29
626.276	27.21
626.467	27.17
626.658	27.38
626.849	27.48
627.04	27.49
627.231	27.67
627.422	27.56
627.614	27.84
627.805	27.79
627.996	27.79
628.187	27.8
628.378	27.9
628.569	27.72
628.76	27.52
628.951	27.49
629.142	27.39
629.332	27.36
629.523	27.3
629.714	27.29
629.905	27.35
630.096	27.51
630.287	27.6
630.478	27.69
630.669	27.88
630.859	28.08
631.05	28.14
631.241	28.08
631.432	27.99
631.623	28.16
631.813	28.07
632.004	28.04
632.195	27.94
632.385	27.92
632.576	27.86
632.767	27.88
632.957	27.84
633.148	27.85
633.339	27.96
633.529	28.05
633.72	27.92
633.91	27.89
634.101	27.84
634.292	27.91
634.482	27.91
634.673	27.81
634.863	27.83
635.054	27.74
635.244	27.74
635.435	27.89
635.625	27.82
635.815	27.78
636.006	27.73
636.196	27.7
636.387	27.69
636.577	27.77
636.767	27.89
636.958	27.88
637.148	28.16
637.338	28.17
637.529	28.03
637.719	28.12
637.909	28.31
638.099	28.42
638.29	28.31
638.48	28.39
638.67	28.22
638.86	28.05
639.05	28.03
639.241	27.98
639.431	27.99
639.621	27.96
639.811	27.95
640.001	27.93
640.191	28.13
640.381	28.29
640.571	28.21
640.761	28.34
640.951	28.5
641.141	28.36
641.331	28.16
641.521	28.18
641.711	28.22
641.901	28.21
642.091	28.15
642.281	27.94
642.471	27.88
642.661	27.94
642.851	28.22
643.041	28.23
643.231	28.38
643.42	28.43
643.61	28.51
643.8	28.7
643.99	28.77
644.18	28.83
644.369	28.89
644.559	28.94
644.749	28.84
644.939	28.55
645.128	28.56
645.318	28.47
645.508	28.67
645.697	28.51
645.887	28.47
646.076	28.49
646.266	28.33
646.456	28.33
646.645	28.48
646.835	28.4
647.024	28.5
647.214	28.43
647.403	28.46
647.593	28.39
647.782	28.54
647.972	28.54
648.161	28.42
648.351	28.52
648.54	28.52
648.73	28.6
648.919	28.86
649.108	28.95
649.298	29.06
649.487	28.85
649.677	28.78
649.866	28.71
650.055	28.79
650.244	28.89
650.434	28.88
650.623	29.12
650.812	28.94
651.002	28.91
651.191	28.64
651.38	28.73
651.569	28.99
651.758	29.04
651.947	29.07
652.137	28.87
652.326	28.89
652.515	29.05
652.704	29.01
652.893	29.17
653.082	29.13
653.271	29.42
653.46	29.37
653.649	29.33
653.838	29.34
654.027	29.33
654.216	29.37
654.405	29.29
654.594	29.1
654.783	29.08
654.972	28.94
655.161	29.17
655.35	29.05
655.539	29.05
655.728	29.05
655.916	29.03
656.105	29.05
656.294	28.8
656.483	28.86
656.672	28.9
656.86	29
657.049	29.09
657.238	28.79
657.427	28.83
657.615	28.76
657.804	28.79
657.993	28.84
658.181	28.95
658.37	29.31
658.559	29.18
658.747	29.39
658.936	29.22
659.125	29.22
659.313	29.25
659.502	29.2
659.69	29.26
659.879	29.22
660.067	29.19
660.256	28.98
660.444	28.79
660.633	28.98
660.821	28.84
661.01	28.84
661.198	28.69
661.387	28.86
661.575	29.01
661.763	28.96
661.952	28.88
662.14	28.9
662.328	29.09
662.517	29
662.705	29.03
662.893	28.88
663.082	28.81
663.27	28.97
663.458	28.94
663.646	28.71
663.834	28.71
664.023	28.78
664.211	28.76
664.399	28.39
664.587	28.38
664.775	28.21
664.963	28.35
665.152	28.44
665.34	28.32
665.528	28.31
665.716	28.4
665.904	28.75
666.092	28.74
666.28	28.9
666.468	29.35
666.656	29.49
666.844	29.88
667.032	29.97
667.22	29.98
667.408	29.88
667.596	29.92
667.784	29.93
667.971	29.7
668.159	29.69
668.347	29.68
668.535	29.57
668.723	29.52
668.911	29.42
669.098	29.41
669.286	29.35
669.474	29.56
669.662	29.5
669.849	29.45
670.037	29.47
670.225	29.89
670.413	29.67
670.6	29.65
670.788	29.69
670.976	29.84
671.163	29.87
671.351	29.95
671.538	29.56
671.726	29.81
671.913	29.92
672.101	29.67
672.289	29.46
672.476	29.57
672.664	29.7
672.851	29.74
673.039	29.51
673.226	29.47
673.413	29.44
673.601	29.71
673.788	29.55
673.976	29.7
674.163	30.2
674.35	30.33
674.538	30.37
674.725	30.5
674.912	30.57
675.1	30.61
675.287	30.47
675.474	30.56
675.662	30.52
675.849	30.61
676.036	30.57
676.223	30.22
676.411	30.25
676.598	30.23
676.785	30.09
676.972	30.09
677.159	29.92
677.346	30.09
677.533	30.12
677.721	30.1
677.908	29.88
678.095	29.95
678.282	29.95
678.469	29.95
678.656	30.04
678.843	29.9
679.03	29.91
679.217	29.86
679.404	29.69
679.591	29.59
679.778	29.79
679.964	29.66
680.151	29.47
680.338	29.46
680.525	29.27
680.712	29.05
680.899	29.19
681.086	29.17
681.272	29.22
681.459	29.42
681.646	29.55
681.833	29.61
682.02	29.99
682.206	29.92
682.393	30.14
682.58	30.44
682.766	30.93
682.953	30.97
683.14	31.06
683.326	31.44
683.513	31.65
683.7	31.42
683.886	31.43
684.073	31.38
684.259	31.69
684.446	31.67
684.632	31.36
684.819	31.06
685.005	30.95
685.192	31.01
685.378	30.94
685.565	30.65
685.751	30.8
685.938	30.72
686.124	30.68
686.31	30.63
686.497	30.49
686.683	30.45
686.87	30.27
687.056	30.2
687.242	30.09
687.429	29.55
687.615	29.41
687.801	29.31
687.987	29.52
688.174	29.5
688.36	29.47
688.546	29.33
688.732	29.36
688.918	29.76
689.105	29.79
689.291	29.75
689.477	29.98
689.663	30.15
689.849	30.23
690.035	29.98
690.221	30.11
690.407	29.88
690.593	30.21
690.779	30.26
690.965	29.84
691.151	30.09
691.337	30.26
691.523	30.36
691.709	30.29
691.895	30.39
692.081	30.26
692.267	29.93
692.453	30.07
692.639	30.01
692.825	29.83
693.011	30.1
693.196	29.9
693.382	29.84
693.568	29.91
693.754	29.74
693.94	29.86
694.125	29.8
694.311	29.97
694.497	29.99
694.682	29.78
694.868	29.92
695.054	30.21
695.239	30.23
695.425	30.35
695.611	30.25
695.796	30.48
695.982	30.21
696.168	30.57
696.353	30.74
696.539	31.04
696.724	31.01
696.91	31.17
697.095	31.05
697.281	31.09
697.466	30.84
697.652	30.85
697.837	30.81
698.023	30.8
698.208	30.46
698.393	30.34
698.579	30.19
698.764	30.19
698.949	30.06
699.135	29.81
699.32	29.87
699.505	29.95
699.691	30.08
699.876	30.39
700.061	30.65
700.246	30.76
700.432	30.8
700.617	30.87
700.802	30.91
700.987	31.06
701.172	31.2
701.358	31.21
701.543	31.38
701.728	31.2
701.913	31.09
702.098	31.02
702.283	30.98
702.468	30.95
702.653	30.47
702.838	30.77
703.023	30.44
703.208	30.48
703.393	30.43
703.578	30.37
703.763	30.25
703.948	30.2
704.133	30.31
704.318	30.54
704.503	30.77
704.688	31.09
704.873	30.82
705.057	31.13
705.242	31.4
705.427	31.57
705.612	31.5
705.797	31.7
705.981	31.47
706.166	31.28
706.351	31.23
706.536	30.82
706.72	30.56
706.905	30.65
707.09	30.45
707.274	29.83
707.459	29.67
707.644	29.69
707.828	29.86
708.013	30.07
708.197	30.2
708.382	30.08
708.567	30.25
708.751	30.29
708.936	30.53
709.12	30.67
709.305	30.94
709.489	30.79
709.673	30.65
709.858	30.32
710.042	30.57
710.227	30.34
710.411	30.63
710.596	30.87
710.78	31.18
710.964	30.66
711.149	30.55
711.333	30.92
711.517	31.31
711.702	31.53
711.886	31.59
712.07	31.09
712.254	31.04
712.438	31.19
712.623	31.22
712.807	31.05
712.991	31.52
713.175	31.8
713.359	31.26
713.544	31.12
713.728	31.11
713.912	31.12
714.096	31.29
714.28	31.47
714.464	30.98
714.648	30.8
714.832	30.79
715.016	30.69
715.2	30.01
715.384	30.34
715.568	30.15
715.752	30
715.936	29.91
716.12	30.15
716.304	29.89
716.488	30.04
716.671	30.11
716.855	30.23
717.039	30.02
717.223	30.67
717.407	30.62
717.59	30.82
717.774	30.68
717.958	30.65
718.142	30.24
718.325	30.15
718.509	30.15
718.693	29.67
718.877	29.66
719.06	29.92
719.244	30.13
719.428	30.17
719.611	30.01
719.795	30.23
719.978	30.24
720.162	30.23
720.345	30.62
720.529	30.56
720.713	30.83
720.896	30.63
721.08	30.52
721.263	30.17
721.446	30.12
721.63	30.46
721.813	30.41
721.997	30.26
722.18	30.37
722.364	30.66
722.547	31.11
722.73	31.63
722.914	31.71
723.097	32.03
723.28	31.98
723.464	31.89
723.647	31.37
723.83	31.6
724.013	31.77
724.197	31.61
724.38	31.26
724.563	30.85
724.746	30.65
724.929	30.85
725.112	30.36
725.296	30.59
725.479	30.68
725.662	31.05
725.845	30.99
726.028	31.51
726.211	31.86
726.394	31.53
726.577	31.8
726.76	31.23
726.943	31.04
727.126	31.2
727.309	30.72
727.492	30.75
727.675	30.78
727.858	30.54
728.041	30.19
728.224	29.88
728.407	30.19
728.589	30
728.772	30.2
728.955	30.3
729.138	30.45
729.321	30.47
729.503	30.22
729.686	29.85
729.869	30.14
730.052	30.07
730.234	30.06
730.417	30.42
730.6	30.62
730.782	30.78
730.965	30.82
731.148	30.97
731.33	31.49
731.513	31.77
731.695	32.17
731.878	31.83
732.061	32.1
732.243	32.16
732.426	31.74
732.608	31.44
732.791	31.56
732.973	31.53
733.156	31.01
733.338	30.59
733.52	30.9
733.703	31.03
733.885	30.89
734.068	30.55
734.25	30.65
734.432	30.68
734.615	30.83
734.797	31
734.979	31.12
735.162	31.52
735.344	31.55
735.526	30.71
735.708	30.6
735.891	30.76
736.073	30.42
736.255	30.5
736.437	30.55
736.619	30.64
736.802	30.6
736.984	30.39
737.166	30.31
737.348	30.43
737.53	31.02
737.712	30.4
737.894	30.4
738.076	31.01
738.258	31.13
738.44	31.75
738.622	31.48
738.804	31.54
738.986	31.9
739.168	32.1
739.35	31.71
739.532	31.8
739.714	32.61
739.896	32.92
740.078	32.45
740.259	32.26
740.441	31.83
740.623	32.1
740.805	32.08
740.987	31.35
741.168	31.31
741.35	31.87
741.532	31.64
741.714	30.88
741.895	30.54
742.077	31.32
742.259	31.76
742.44	32.05
742.622	32.75
742.804	33.02
742.985	34.05
743.167	34.18
743.348	34.59
743.53	34.16
743.711	34.3
743.893	34.13
744.075	33.59
744.256	32.81
744.438	32.21
744.619	31.31
744.8	30.35
744.982	29.12
745.163	28.63
745.345	28.15
745.526	28.67
745.707	28.93
745.889	29.6
746.07	30.27
746.252	30.19
746.433	29.95
746.614	30.32
746.795	30.37
746.977	30.29
747.158	30.09
747.339	29.97
747.52	29.57
747.702	29.02
747.883	29.35
748.064	28.42
748.245	28.53
748.426	28.74
748.607	28.77
748.788	28.92
748.97	29.69
749.151	29.68
749.332	29.77
749.513	29.41
749.694	29.62
749.875	29.33
750.056	30.24
750.237	30.56
750.418	30.85
750.599	29.98
750.78	30.07
750.96	29.97
751.141	30.8
751.322	30.65
751.503	31.23
751.684	31.51
751.865	31.32
752.046	30.6
752.226	31.24
752.407	31.65
752.588	32.27
752.769	32.76
752.949	33.35
753.13	33.12
753.311	32.64
753.492	32.81
753.672	33.2
753.853	33.2
754.034	33.31
754.214	32.56
754.395	31.84
754.575	32.56
754.756	32.32
754.937	31.59
755.117	31.26
755.298	32.67
755.478	32.53
755.659	31.44
755.839	30.92
756.02	30.8
756.2	30.6
756.381	31.33
756.561	30.7
756.741	30.77
756.922	30.89
757.102	30.52
757.283	30.06
757.463	29.97
757.643	30.67
757.823	30.84
758.004	31.22
758.184	31.24
758.364	30.93
758.545	30.61
758.725	30.6
758.905	30.41
759.085	30.71
759.265	30.71
759.446	31
759.626	31.1
759.806	31.58
759.986	30.93
760.166	31.44
760.346	31.74
760.526	32.04
760.706	31.74
760.886	32.16
761.066	31.91
761.246	31.35
761.426	31.95
761.606	31.99
761.786	32.03
761.966	32.29
762.146	32.08
762.326	32.25
762.506	32.51
762.686	32.26
762.866	32.42
763.046	32.96
763.225	32.91
763.405	32.38
763.585	32.6
763.765	32.21
763.945	31.79
764.124	31.45
764.304	31.03
764.484	30.82
764.664	31.08
764.843	30.69
765.023	30.4
765.203	30.28
765.382	30.72
765.562	30.25
765.741	30.34
765.921	31.01
766.101	31.09
766.28	31.17
766.46	31.06
766.639	31.27
766.819	31.58
766.998	31.46
767.178	31.87
767.357	30.86
767.537	30.98
767.716	31.57
767.896	31.72
768.075	32.33
768.254	32.28
768.434	31.82
768.613	31.89
768.792	31.6
768.972	30.71
769.151	30.5
769.33	31.41
769.51	31.1
769.689	29.88
769.868	29.47
770.047	29.38
770.226	29.74
770.406	29.87
770.585	29.41
770.764	29.21
770.943	30.3
771.122	30.82
771.301	30.2
771.48	30.44
771.66	31.26
771.839	32.09
772.018	31.69
772.197	30.72
772.376	30.89
772.555	31.07
772.734	31.05
772.913	31
773.092	31.14
773.271	30.59
773.449	30.66
773.628	30.48
773.807	30.35
773.986	30.6
774.165	31.79
774.344	32.82
774.523	32.5
774.701	32.75
774.88	32.87
775.059	32.17
775.238	32.71
775.417	32.32
775.595	32.36
775.774	31.74
775.953	32.16
776.131	31.91
776.31	30.47
776.489	30.94
776.667	31.15
776.846	31.13
777.025	31.04
777.203	31.32
777.382	31.38
777.56	31.71
777.739	31.86
777.917	31.63
778.096	31.78
778.274	31.62
778.453	30.97
778.631	31.13
778.81	30.49
778.988	31.01
779.166	31.09
779.345	31.05
779.523	31.42
779.702	31.04
779.88	30.98
780.058	30.56
780.237	31.87
780.415	32.54
780.593	32.38
780.771	33.07
780.95	33.18
781.128	32.24
781.306	32.88
781.484	32.27
781.662	32.36
781.841	32.29
782.019	32.28
782.197	31.28
782.375	32.03
782.553	32.13
782.731	32.06
782.909	31.97
783.087	32.59
783.265	32.55
783.443	32.6
783.621	32.93
783.799	32.53
783.977	32.4
784.155	33.08
784.333	32.23
784.511	31.36
784.689	30.94
784.867	30.54
785.045	31.27
785.223	30.36
785.4	30.66
785.578	30.66
785.756	30.17
785.934	30.02
786.112	29.11
786.289	29.32
786.467	29.77
786.645	30.1
786.823	30.71
787	30.44
787.178	31.61
787.356	30.32
787.533	30.19
787.711	31.64
787.889	32.04
788.066	32.38
788.244	31.91
788.421	32.3
788.599	32.34
788.776	31.94
788.954	31.7
789.131	31.08
789.309	32.46
789.486	32.14
789.664	31.9
789.841	32.02
790.019	32.44
790.196	32.49
790.373	32.45
790.551	32.29
790.728	32.81
790.906	32.82
791.083	32.42
791.26	31.87
791.437	31.96
791.615	31.56
791.792	31.47
791.969	31.3
792.146	30.53
792.324	29.63
792.501	30.1
792.678	29.18
792.855	29.71
793.032	30.46
793.209	30.94
793.387	31.46
793.564	31.53
793.741	30.99
793.918	30.62
794.095	31.42
794.272	32.5
794.449	32.9
794.626	34.06
794.803	34
794.98	33.93
795.157	34.71
795.334	34.96
795.511	35.6
795.688	35.48
795.864	35.32
796.041	35.42
796.218	36.17
796.395	35.66
796.572	35.26
796.749	35.31
796.925	34.75
797.102	33.6
797.279	32.95
797.456	31.9
797.632	32.26
797.809	32.69
797.986	33.46
798.162	31.97
798.339	32.32
798.516	32.01
798.692	31.9
798.869	32.37
799.046	32.21
799.222	31.87
799.399	32.52
799.575	31.97
799.752	31.67
799.928	31.04
800.105	30.94
800.281	29.55
800.458	29.1
800.634	28.3
800.811	27.07
800.987	26.93
801.163	27.96
801.34	26.94
801.516	27.5
801.692	28.25
801.869	28.56
802.045	29.17
802.221	29.59
802.398	31.13
802.574	31.17
802.75	33.26
802.926	33.5
803.103	33.72
803.279	34.04
803.455	34.04
803.631	33.05
803.807	33.59
803.983	33.36
804.16	33.78
804.336	32.77
804.512	33.31
804.688	32.76
804.864	32.44
805.04	31.12
805.216	30.94
805.392	31.13
805.568	32.2
805.744	31.42
805.92	30.49
806.096	29.96
806.272	30.37
806.448	29.81
806.623	29.66
806.799	30.61
806.975	30.4
807.151	30.4
807.327	29.89
807.503	29.81
807.678	30.09
807.854	31.81
808.03	33.06
808.206	33.47
808.381	35.31
808.557	35.12
808.733	34.89
808.908	36.69
809.084	37.79
809.26	38.91
809.435	37.97
809.611	37.49
809.787	37.01
809.962	35.75
810.138	34.73
810.313	34.06
810.489	34.18
810.664	33.59
810.84	33.27
811.015	32.65
811.191	31.55
811.366	31.74
811.542	30.48
811.717	30.72
811.892	31.44
812.068	33
812.243	32.79
812.419	32.75
812.594	33.4
812.769	33.34
812.944	33.16
813.12	33.92
813.295	33.42
813.47	34.67
813.645	33.96
813.821	34.05
813.996	33.62
814.171	33.07
814.346	32.11
814.521	31.52
814.697	31.38
814.872	32.22
815.047	32.51
815.222	33.31
815.397	33.13
815.572	34.21
815.747	33.85
815.922	34.78
816.097	35.38
816.272	35.82
816.447	36.91
816.622	37.05
816.797	35.84
816.972	35.25
817.147	34.68
817.322	33.88
817.496	32.57
817.671	32.78
817.846	31.34
818.021	31.44
818.196	31
818.371	30.34
818.545	30.24
818.72	31.38
818.895	31.28
819.069	32.34
819.244	32.9
819.419	33.26
819.594	33.22
819.768	32.02
819.943	32.2
820.117	32.49
820.292	31.85
820.467	31.41
820.641	30.94
820.816	30.99
820.99	30.55
821.165	30.29
821.339	30.2
821.514	30.17
821.688	30.53
821.863	30.34
822.037	30.34
822.212	30.55
822.386	30.65
822.56	30.76
822.735	30.82
822.909	30.83
823.084	31.07
823.258	31.22
823.432	31.28
823.606	31.1
823.781	31.15
823.955	31.23
824.129	31.01
824.303	31.52
824.478	31.45
824.652	31.5
824.826	31.94
825	31.62
825.174	31.73
825.348	31.36
825.523	31.47
825.697	31.6
825.871	31.52
826.045	31.54
826.219	30.98
826.393	31.03
826.567	30.85
826.741	30.64
826.915	31.26
827.089	31.34
827.263	31.44
827.437	31.62
827.611	31.57
827.784	31.77
827.958	31.95
828.132	31.74
828.306	31.76
828.48	31.77
828.654	31.78
828.827	31.07
829.001	30.59
829.175	31.16
829.349	30.93
829.522	30.86
829.696	30.5
829.87	31.37
830.044	30.98
830.217	30.71
830.391	31.14
830.565	31.27
830.738	32.03
830.912	31.05
831.085	30.69
831.259	30.52
831.432	30.65
831.606	30.8
831.779	30.4
831.953	31.65
832.126	32.47
832.3	32.1
832.473	32.15
832.647	31.53
832.82	31.89
832.994	31.69
833.167	31.28
833.34	30.93
833.514	30.91
833.687	30.52
833.86	30.33
834.034	29.8
834.207	30.13
834.38	29.75
834.553	30.07
834.727	30.94
834.9	31.03
835.073	32
835.246	31.44
835.419	31.46
835.593	31.5
835.766	31.51
835.939	32.16
836.112	31.81
836.285	31.64
836.458	32.25
836.631	31.49
836.804	30.61
836.977	29.06
837.15	31.02
837.323	31.25
837.496	30.81
837.669	31.69
837.842	31.08
838.015	30.37
838.188	32.06
838.361	31.82
838.533	32.07
838.706	33.7
838.879	34.77
839.052	34
839.225	33.64
839.398	36.12
839.57	36.22
839.743	35.83
839.916	37.46
840.088	35.89
840.261	35
840.434	33.62
840.607	33.5
840.779	34
840.952	33.68
841.124	34.18
841.297	33.1
841.47	32.06
841.642	30.93
841.815	30.31
841.987	30
842.16	30.41
842.332	32.66
842.505	33.44
842.677	33.65
842.85	33.74
843.022	32.9
843.194	31.81
843.367	30.8
843.539	33.02
843.712	33.26
843.884	33.5
844.056	34.65
844.229	32.77
844.401	30.94
844.573	31.31
844.745	30.2
844.918	29.68
845.09	30.31
845.262	30.18
845.434	29.97
845.606	31.42
845.779	33.61
845.951	31.54
846.123	32.31
846.295	28.86
846.467	26.48
846.639	31.99
846.811	34.3
846.983	33.46
847.155	34.8
847.327	35.34
847.499	32.07
847.671	32.54
847.843	32.15
848.015	35.24
848.187	42.22
848.359	44.91
848.531	43.83
848.703	41.11
848.875	44.9
849.047	45.14
849.218	41.08
849.39	42.28
849.562	41.09
849.734	44.72
849.905	42.46
850.077	39.28
850.249	38.13
850.421	35.04
850.592	36.81
850.764	33.22
850.936	32.79
851.107	35.45
851.279	35.65
851.451	35.28
851.622	33.57
851.794	36.87
851.965	39.57
852.137	39.99
852.308	39.59
852.48	39.42
852.651	41.77
852.823	38.73
852.994	41.42
853.166	41.24
853.337	41.36
853.509	41.01
853.68	36.27
853.851	37.3
854.023	39.47
854.194	40.87
854.365	41.63
854.537	39.44
854.708	39.27
854.879	39.78
855.05	39.52
855.222	34.24
855.393	31.97
855.564	31.88
855.735	30.62
855.906	30.37
856.078	30.17
856.249	27.82
856.42	28.05
856.591	29.82
856.762	28.66
856.933	28.77
857.104	32.22
857.275	32.27
857.446	35.06
857.617	33.86
857.788	32.66
857.959	30.87
858.13	34.48
858.301	32.17
858.472	33.09
858.643	32.99
858.814	33.65
858.985	37.34
859.155	38.12
859.326	37.51
859.497	37.15
859.668	35.57
859.839	36.32
860.009	35.2
860.18	39.07
860.351	38.97
860.522	37.36
860.692	35.64
860.863	30.84
861.034	28.56
861.204	28.54
861.375	28.72
861.546	25.6
861.716	24.52
861.887	23.76
862.057	23.07
862.228	24.58
862.398	25.34
862.569	27.74
862.739	30.89
862.91	33.01
863.08	33.96
863.251	39.06
863.421	41.71
863.592	41.28
863.762	39.32
863.932	37.67
864.103	38.27
864.273	38.07
864.443	33.73
864.614	35.21
864.784	34.85
864.954	31.53
865.125	26.26
865.295	30.91
865.465	32.25
865.635	32.95
865.805	33.41
865.976	35.91
866.146	38.21
866.316	42.06
866.486	37.23
866.656	38.34
866.826	41.52
866.996	43.93
867.166	40.47
867.336	38.76
867.506	38.7
867.676	40.13
867.846	37.69
868.016	38.61
868.186	34.93
868.356	34.3
868.526	34.43
868.696	37.03
868.866	38.34
869.036	40.23
869.206	43.2
869.376	44.23
869.545	44.59
869.715	44.06
869.885	40.68
870.055	44.81
870.224	50.51
870.394	51.02
870.564	47.26
870.734	48.12
870.903	48.32
871.073	47.42
871.243	47.97
871.412	46.89
871.582	48.54
871.751	46.21
871.921	47.76
872.091	42.23
872.26	41.69
872.43	40.15
872.599	33.68
872.769	32.81
872.938	31.78
873.108	29.6
873.277	31.32
873.446	30.47
873.616	34.78
873.785	32.91
873.955	37.87
874.124	34.18
874.293	37.64
874.463	40.06
874.632	38.01
874.801	34
874.971	34.54
875.14	32.83
875.309	29.2
875.478	31.18
875.647	32.67
875.817	31.75
875.986	36.31
876.155	32.74
876.324	33.94
876.493	34.13
876.662	36.8
876.831	35.51
877	33.86
877.17	34.39
877.339	32.23
877.508	32.87
877.677	31.13
877.846	31.1
878.015	36.07
878.184	33.68
878.352	34.82
878.521	33.63
878.69	36.23
878.859	38.02
879.028	39.16
879.197	37.46
879.366	36.45
879.534	37.26
879.703	36.09
879.872	32.44
880.041	32.96
880.21	33.01
880.378	34.66
880.547	33.45
880.716	32.09
880.884	31.67
881.053	32.26
881.222	31.66
881.39	31.31
881.559	31.33
881.727	31.61
881.896	31.78
882.065	32.61
882.233	32.2
882.402	32.37
882.57	32.13
882.739	31.88
882.907	30.98
883.076	30.77
883.244	30.15
883.412	29.99
883.581	30.03
883.749	29.76
883.918	28.06
884.086	27.92
884.254	26.72
884.423	27.25
884.591	26.86
884.759	27.75
884.927	28.78
885.096	29.45
885.264	29.98
885.432	29.46
885.6	29.67
885.769	30.36
885.937	31.2
886.105	34.43
886.273	35.42
886.441	36.1
886.609	35.42
886.777	33.65
886.945	34.01
887.113	33.95
887.281	36.99
887.449	37.38
887.617	35.93
887.785	33.52
887.953	31.87
888.121	29.85
888.289	31.72
888.457	33.52
888.625	35.52
888.793	36.11
888.961	37.67
889.129	34.94
889.296	33.07
889.464	36.49
889.632	39.2
889.8	38.71
889.967	42.39
890.135	41.12
