Data from 2938555_Reflection_2.txt Node
Date: Sun Jun 14 23:46:23 EDT 2015
User: robert
Spectrometer: USB4E03002
Autoset integration time: false
Trigger mode: 4
Integration Time (sec): 1.000000E-1
Scans to average: 10
Electric dark correction enabled: true
Nonlinearity correction enabled: false
Boxcar width: 5
Stray light correction enabled: false
XAxis mode: Wavelengths
Stop averaging: false
Number of Pixels in Spectrum: 3648
>>>>>Begin Spectral Data<<<<<
177.575	612.39
177.794	-864.69
178.014	573.35
178.233	-304.74
178.452	-72.74
178.672	260.96
178.891	27.4
179.11	255.24
179.33	124.35
179.549	122.81
179.768	157.41
179.987	145.8
180.207	130.07
180.426	114.03
180.645	169.61
180.864	150.55
181.084	112.94
181.303	104.43
181.522	120.13
181.741	172.45
181.96	285.94
182.179	355.26
182.398	437.3
182.618	1064.15
182.837	470.76
183.056	209.46
183.275	290.21
183.494	242.89
183.713	251.48
183.932	256.27
184.151	272.54
184.37	296.91
184.589	359.95
184.808	513.98
185.027	274.89
185.246	-356.15
185.465	-276.08
185.684	-331.26
185.903	-48.19
186.122	434.72
186.341	166.93
186.56	112.23
186.779	141.51
186.998	107.4
187.216	68.73
187.435	102.33
187.654	100.06
187.873	84.1
188.092	96.81
188.311	279.85
188.53	419.27
188.748	-494.31
188.967	-321.96
189.186	-1548.59
189.405	-1856.9
189.623	-1437.56
189.842	-9529.37
190.061	-1787.99
190.28	-2759.75
190.498	515.87
190.717	279.65
190.936	302.31
191.154	243.26
191.373	222.46
191.592	246.16
191.81	216.91
192.029	413.95
192.248	417.07
192.466	577.04
192.685	335.35
192.904	603.61
193.122	-1183.14
193.341	8665.85
193.559	-392.75
193.778	696.11
193.996	196.98
194.215	142.7
194.433	177.86
194.652	154.84
194.87	71.01
195.089	66.44
195.307	19
195.526	-11.08
195.744	11.73
195.963	35.57
196.181	10.97
196.399	47.16
196.618	21.78
196.836	7.38
197.055	23.91
197.273	35.79
197.491	30.97
197.71	85.34
197.928	69.24
198.146	97.79
198.365	-10.24
198.583	-64.32
198.801	77.43
199.019	84.3
199.238	349.47
199.456	97.82
199.674	150.97
199.892	138.22
200.111	145.07
200.329	417.1
200.547	334.5
200.765	229.16
200.983	201.11
201.202	212.58
201.42	214.62
201.638	195.18
201.856	317.36
202.074	226.16
202.292	188.57
202.51	314.26
202.728	205.52
202.946	265.02
203.165	302.14
203.383	472.49
203.601	1870.68
203.819	-324.69
204.037	-4783.33
204.255	-661.94
204.473	-270.83
204.691	-104.7
204.909	-47.93
205.127	-151
205.345	-245.23
205.562	-209.43
205.78	-366.79
205.998	572.14
206.216	-7091.95
206.434	-6195.4
206.652	-301.93
206.87	-594.61
207.088	4454.55
207.306	-4766
207.523	-141.48
207.741	-0.15
207.959	12.46
208.177	20.04
208.395	8.86
208.612	-9.19
208.83	-13.21
209.048	-32.41
209.266	-23
209.483	-26.29
209.701	-44.2
209.919	-58.78
210.136	-101.89
210.354	-100.83
210.572	-237.72
210.79	-380.57
211.007	-701.69
211.225	-4224.28
211.442	787.32
211.66	277.16
211.878	277.23
212.095	-107.08
212.313	-109.76
212.53	-95.19
212.748	-93.93
212.966	-51.47
213.183	-13.06
213.401	-18.98
213.618	-26.8
213.836	-16.72
214.053	-31.87
214.271	-28.89
214.488	-120.14
214.705	-86.63
214.923	-106.79
215.14	-82.06
215.358	-129.9
215.575	-171.69
215.793	-115.97
216.01	-208.34
216.227	-244.9
216.445	-250.55
216.662	-300.74
216.879	-166.6
217.097	-281.42
217.314	-184.14
217.531	-200.06
217.749	-196.32
217.966	-185.18
218.183	-260.82
218.4	-97.69
218.618	-129.17
218.835	-106.96
219.052	-101.26
219.269	-88.05
219.487	-89.72
219.704	-88.07
219.921	-88.81
220.138	-63.91
220.355	-54.32
220.572	-68.05
220.79	-66.14
221.007	-33.94
221.224	-43.84
221.441	-36.71
221.658	-36.51
221.875	-19.46
222.092	-29.48
222.309	-29.12
222.526	-29.28
222.743	-23.98
222.96	-19.25
223.177	-30.41
223.394	-42.16
223.611	-37.98
223.828	-40.45
224.045	-36.59
224.262	-40.31
224.479	-26.65
224.696	-20.5
224.913	-17.12
225.13	-16.49
225.347	-13.86
225.564	-9
225.781	-3.59
225.997	0.04
226.214	4.09
226.431	2.4
226.648	3.29
226.865	4.27
227.082	4.35
227.298	4.39
227.515	5.36
227.732	7.37
227.949	7.3
228.165	5.76
228.382	4.52
228.599	3.02
228.816	5.2
229.032	4.37
229.249	2.86
229.466	3.48
229.682	2.67
229.899	1.97
230.116	0.86
230.332	0.27
230.549	2.48
230.765	0.58
230.982	0.21
231.199	-0.61
231.415	1.82
231.632	3.02
231.848	1.51
232.065	0.94
232.281	-0.45
232.498	-0.74
232.714	0.06
232.931	0.21
233.147	4.14
233.364	5.16
233.58	4.09
233.797	3.97
234.013	3.59
234.23	2.85
234.446	3.61
234.662	4.3
234.879	1.74
235.095	2.23
235.312	-0.45
235.528	-2.87
235.744	-2.83
235.961	-3.01
236.177	-2.44
236.393	-2.36
236.61	-2.55
236.826	-2.94
237.042	-5.11
237.258	-3.58
237.475	-2.9
237.691	-0.37
237.907	-1.05
238.123	1.17
238.339	1.68
238.556	1.14
238.772	0.18
238.988	2.54
239.204	3.01
239.42	3.83
239.636	4.62
239.853	5.1
240.069	5.55
240.285	6.19
240.501	6.1
240.717	5.99
240.933	5.85
241.149	6.22
241.365	6.39
241.581	6.22
241.797	7.02
242.013	6.97
242.229	6.09
242.445	5.86
242.661	6.12
242.877	5.32
243.093	5.99
243.309	6.4
243.525	6.63
243.741	5.16
243.957	5.49
244.173	5.47
244.388	5.5
244.604	5.76
244.82	5.75
245.036	6.12
245.252	5.84
245.468	6.19
245.683	6.2
245.899	6.11
246.115	6.46
246.331	6.57
246.547	6.31
246.762	6.3
246.978	6.65
247.194	6.48
247.409	6.38
247.625	6.89
247.841	5.83
248.057	5.53
248.272	5.8
248.488	5.42
248.703	5.03
248.919	4.92
249.135	4.71
249.35	4.09
249.566	4.19
249.782	3.21
249.997	3.35
250.213	4.26
250.428	4.64
250.644	4.4
250.859	4.63
251.075	4.58
251.29	4.59
251.506	5.23
251.721	4.79
251.937	5.24
252.152	6.23
252.368	5.58
252.583	5.13
252.798	4.49
253.014	3.39
253.229	3.08
253.445	3
253.66	3.43
253.875	0.74
254.091	0.27
254.306	0
254.521	-0.56
254.737	0.34
254.952	0.4
255.167	-0.06
255.383	0.83
255.598	1.31
255.813	1.48
256.028	0.88
256.244	1.78
256.459	2.78
256.674	2.43
256.889	2.81
257.104	2.95
257.32	2.81
257.535	3.46
257.75	3.75
257.965	3.54
258.18	3.38
258.395	3.46
258.61	3.91
258.826	3.9
259.041	3.55
259.256	3.53
259.471	3.18
259.686	3.51
259.901	3.24
260.116	2.63
260.331	2.81
260.546	3.06
260.761	3.24
260.976	2.69
261.191	2.26
261.406	2.73
261.621	2.51
261.836	3.01
262.05	3.49
262.265	3.61
262.48	4.15
262.695	3.92
262.91	3.72
263.125	2.84
263.34	2.51
263.555	2.3
263.769	2.72
263.984	2.86
264.199	2.3
264.414	2.16
264.629	2.31
264.843	2.43
265.058	2.14
265.273	2.4
265.488	2.9
265.702	2.9
265.917	3.32
266.132	2.74
266.346	2.78
266.561	2.97
266.776	2.39
266.99	2.35
267.205	2.32
267.42	2.65
267.634	2.73
267.849	2.64
268.063	3.53
268.278	3.16
268.492	3.52
268.707	3.43
268.922	3.43
269.136	3.31
269.351	3.13
269.565	3.41
269.78	3.67
269.994	3.48
270.209	3.58
270.423	3.46
270.637	3.66
270.852	3.97
271.066	3.77
271.281	3.67
271.495	3.98
271.709	3.94
271.924	3.54
272.138	3.21
272.353	2.95
272.567	3.09
272.781	2.5
272.996	2.41
273.21	2.2
273.424	2.37
273.638	2.54
273.853	2.59
274.067	3.12
274.281	3.61
274.495	3.57
274.71	3.76
274.924	3.28
275.138	3.44
275.352	3.53
275.566	3.54
275.781	3.56
275.995	3.54
276.209	3.46
276.423	3.65
276.637	3.32
276.851	3.64
277.065	4.09
277.279	4.81
277.493	5.15
277.707	4.07
277.921	3.93
278.135	3.87
278.349	3.64
278.563	3.43
278.777	3.4
278.991	3.8
279.205	3.38
279.419	2.95
279.633	2.29
279.847	2.26
280.061	2.8
280.275	2.86
280.489	3.21
280.703	3.7
280.917	3.74
281.131	3.52
281.344	3.24
281.558	3.72
281.772	4.05
281.986	4.21
282.2	4.16
282.414	4.68
282.627	4.4
282.841	4.32
283.055	4.04
283.269	4.08
283.482	4.1
283.696	3.97
283.91	3.63
284.123	3.38
284.337	3.25
284.551	3.55
284.764	3.54
284.978	3.91
285.192	4.21
285.405	4.14
285.619	4.52
285.833	4.4
286.046	4.98
286.26	5.06
286.473	5.29
286.687	5.41
286.9	5.17
287.114	4.92
287.327	4.69
287.541	4.33
287.754	4.44
287.968	3.68
288.181	4.08
288.395	3.82
288.608	3.7
288.822	3.6
289.035	3.94
289.248	3.96
289.462	4.29
289.675	4.12
289.889	4.09
290.102	4.03
290.315	4.32
290.529	3.89
290.742	3.22
290.955	3.48
291.169	3.53
291.382	3.54
291.595	3.36
291.808	2.77
292.022	2.9
292.235	2.9
292.448	2.72
292.661	2.85
292.875	2.74
293.088	3.05
293.301	3.02
293.514	3.13
293.727	3
293.94	2.97
294.153	3.36
294.367	3.42
294.58	3.71
294.793	3.98
295.006	3.82
295.219	3.87
295.432	3.83
295.645	4.1
295.858	3.93
296.071	3.94
296.284	4.23
296.497	4.13
296.71	4.45
296.923	4.12
297.136	4.17
297.349	4.13
297.562	4.15
297.775	4.29
297.988	4.21
298.201	4.39
298.414	4.47
298.626	4.32
298.839	4.58
299.052	3.98
299.265	4.31
299.478	4.03
299.691	4.61
299.903	4.43
300.116	4.72
300.329	4.58
300.542	4.42
300.755	4
300.967	3.69
301.18	3.36
301.393	3.17
301.605	2.94
301.818	3.16
302.031	2.74
302.243	3.21
302.456	3.23
302.669	3.26
302.881	3.49
303.094	4.39
303.307	4.38
303.519	4.64
303.732	5.43
303.944	5.06
304.157	4.95
304.37	5.02
304.582	4.67
304.795	4.31
305.007	4.44
305.22	4.51
305.432	4.02
305.645	4.59
305.857	4.51
306.069	3.6
306.282	3.9
306.494	4.01
306.707	3.98
306.919	4.11
307.132	3.87
307.344	3.68
307.556	3.6
307.769	3.39
307.981	2.82
308.193	2.53
308.406	3.01
308.618	2.97
308.83	3.19
309.043	3.12
309.255	3.29
309.467	3.84
309.679	3.93
309.892	4.11
310.104	4.36
310.316	4.73
310.528	4.96
310.74	5.09
310.953	5.39
311.165	5.31
311.377	5.22
311.589	5.69
311.801	5.6
312.013	5.67
312.225	5.18
312.437	4.82
312.649	5.23
312.862	5.12
313.074	4.7
313.286	4.71
313.498	4.25
313.71	4.2
313.922	3.4
314.134	3.45
314.346	3.23
314.558	2.96
314.77	2.93
314.982	2.6
315.193	2.84
315.405	3.42
315.617	3.16
315.829	3.72
316.041	4.07
316.253	3.94
316.465	3.78
316.677	3.98
316.888	4.59
317.1	5.28
317.312	5.29
317.524	5.11
317.736	4.42
317.947	4.31
318.159	3.88
318.371	3.73
318.583	4.02
318.794	4.09
319.006	4.21
319.218	4.71
319.43	4.63
319.641	4.47
319.853	4.49
320.064	5.36
320.276	5.77
320.488	6.08
320.699	6.41
320.911	6.62
321.123	6.07
321.334	6
321.546	5.71
321.757	5.5
321.969	5.58
322.18	5.38
322.392	4.87
322.603	4.27
322.815	4.29
323.026	4.09
323.238	4.35
323.449	4.68
323.661	4.5
323.872	4.1
324.083	3.91
324.295	3.92
324.506	4.17
324.718	4.41
324.929	4.62
325.14	4.65
325.352	4.43
325.563	4.23
325.774	4.11
325.986	3.94
326.197	4.58
326.408	5.06
326.62	4.91
326.831	4.79
327.042	4.59
327.253	4.7
327.464	4.58
327.676	4.94
327.887	4.68
328.098	4.41
328.309	4.71
328.52	4.21
328.732	3.76
328.943	3.95
329.154	4.11
329.365	4.48
329.576	4.3
329.787	4.21
329.998	3.97
330.209	4.11
330.42	4.58
330.631	4.58
330.842	4.39
331.053	4.3
331.264	4.29
331.475	4.31
331.686	4.06
331.897	4.15
332.108	4.22
332.319	4.59
332.53	4.36
332.741	4.46
332.952	4.24
333.163	4.39
333.374	4.77
333.585	4.56
333.795	4.67
334.006	5.12
334.217	5.59
334.428	5.74
334.639	5.52
334.849	5.85
335.06	5.96
335.271	6.56
335.482	6.69
335.692	6.61
335.903	6.51
336.114	6.2
336.325	5.38
336.535	5.24
336.746	5.37
336.957	5.12
337.167	5.29
337.378	5
337.589	4.57
337.799	4.45
338.01	4.43
338.22	4.65
338.431	4.99
338.642	5.25
338.852	4.75
339.063	4.17
339.273	4.51
339.484	4.17
339.694	3.85
339.905	3.79
340.115	3.6
340.326	3.3
340.536	3.09
340.746	2.96
340.957	3.38
341.167	3.69
341.378	3.84
341.588	3.84
341.799	3.81
342.009	4.22
342.219	4.29
342.43	4.45
342.64	4.44
342.85	4.71
343.061	4.53
343.271	4.2
343.481	4.17
343.691	4.43
343.902	4.26
344.112	3.91
344.322	4.18
344.532	4.11
344.743	4.05
344.953	3.92
345.163	3.89
345.373	3.76
345.583	3.79
345.793	3.56
346.004	3.22
346.214	3.26
346.424	3.7
346.634	3.21
346.844	3.14
347.054	3.13
347.264	3.28
347.474	3.31
347.684	3.93
347.894	3.92
348.104	3.71
348.314	3.86
348.524	3.64
348.734	3.96
348.944	4.32
349.154	4.19
349.364	4.17
349.574	3.92
349.784	4.12
349.994	3.96
350.204	4.05
350.413	4.47
350.623	4.73
350.833	4.86
351.043	4.56
351.253	4.67
351.463	4.74
351.672	4.79
351.882	5
352.092	4.89
352.302	4.44
352.511	4.47
352.721	4.52
352.931	4.28
353.141	4.47
353.35	4.59
353.56	4.33
353.77	4.58
353.979	4.51
354.189	4.53
354.399	4.52
354.608	4.85
354.818	4.72
355.027	4.76
355.237	4.9
355.447	4.86
355.656	4.77
355.866	4.6
356.075	4.5
356.285	4.59
356.494	4.59
356.704	4.35
356.913	4.12
357.123	3.92
357.332	3.79
357.542	3.67
357.751	3.71
357.96	3.58
358.17	3.78
358.379	3.65
358.589	3.71
358.798	4.06
359.007	4.21
359.217	4.4
359.426	4.46
359.635	4.36
359.845	4.43
360.054	4.35
360.263	4.46
360.472	4.43
360.682	4.58
360.891	4.51
361.1	4.17
361.309	4.05
361.519	4.07
361.728	4.18
361.937	4.37
362.146	4.4
362.355	4.34
362.564	4.22
362.774	4.14
362.983	3.84
363.192	3.94
363.401	4.17
363.61	4.26
363.819	4.24
364.028	4.19
364.237	4
364.446	3.82
364.655	3.62
364.864	3.62
365.073	3.4
365.282	3.61
365.491	3.53
365.7	3.56
365.909	3.28
366.118	3.31
366.327	3.4
366.536	3.33
366.745	3.46
366.954	3.76
367.162	3.68
367.371	3.8
367.58	3.8
367.789	3.8
367.998	3.68
368.207	3.79
368.415	3.75
368.624	3.68
368.833	3.72
369.042	3.81
369.25	3.74
369.459	4.11
369.668	4.15
369.877	4.1
370.085	4.27
370.294	4.39
370.503	4.37
370.711	4.3
370.92	4.29
371.129	4.3
371.337	3.98
371.546	3.88
371.754	3.58
371.963	3.45
372.171	3.27
372.38	3.4
372.589	3.17
372.797	3.15
373.006	2.77
373.214	2.87
373.423	2.86
373.631	3.07
373.84	3.09
374.048	3.07
374.256	3.28
374.465	3.21
374.673	2.93
374.882	2.85
375.09	2.99
375.298	3.29
375.507	3.18
375.715	3.29
375.923	2.84
376.132	3.04
376.34	3.05
376.548	3.07
376.757	3.3
376.965	3.24
377.173	3.19
377.381	3.21
377.59	3.38
377.798	3.65
378.006	3.57
378.214	3.9
378.423	3.64
378.631	3.89
378.839	3.66
379.047	3.49
379.255	3.6
379.463	3.76
379.671	3.56
379.879	3.05
380.088	2.71
380.296	2.62
380.504	2.65
380.712	2.76
380.92	2.49
381.128	2.55
381.336	2.86
381.544	2.71
381.752	2.49
381.96	2.49
382.168	2.48
382.376	2.39
382.584	2.29
382.791	2.24
382.999	2.31
383.207	2.39
383.415	2.4
383.623	2.3
383.831	2.3
384.039	2.45
384.247	2.41
384.454	2.7
384.662	2.78
384.87	2.96
385.078	2.98
385.285	2.86
385.493	2.75
385.701	2.86
385.909	2.7
386.116	2.75
386.324	2.57
386.532	2.48
386.739	2.43
386.947	2.42
387.155	2.43
387.362	2.49
387.57	2.46
387.778	2.19
387.985	1.94
388.193	2.14
388.4	2.1
388.608	2.42
388.816	2.52
389.023	2.59
389.231	2.78
389.438	2.6
389.646	2.56
389.853	2.64
390.061	2.85
390.268	2.91
390.475	2.98
390.683	3.13
390.89	2.93
391.098	3.03
391.305	3.07
391.512	2.74
391.72	3.05
391.927	3.15
392.135	2.92
392.342	3.09
392.549	3.14
392.756	2.95
392.964	2.72
393.171	2.72
393.378	2.5
393.586	2.44
393.793	2.64
394	2.41
394.207	2.27
394.414	2.45
394.622	2.4
394.829	2.41
395.036	2.39
395.243	2.5
395.45	2.58
395.657	2.71
395.864	2.67
396.072	2.66
396.279	2.74
396.486	2.91
396.693	2.8
396.9	2.5
397.107	2.54
397.314	2.6
397.521	2.58
397.728	2.65
397.935	2.65
398.142	2.69
398.349	2.71
398.556	2.68
398.763	2.61
398.97	2.78
399.177	2.97
399.383	3.04
399.59	3.19
399.797	3.32
400.004	3.04
400.211	3.1
400.418	3.02
400.625	2.94
400.831	2.92
401.038	2.7
401.245	2.58
401.452	2.64
401.658	2.38
401.865	2.06
402.072	1.78
402.279	1.88
402.485	1.95
402.692	2.17
402.899	2.26
403.105	2.29
403.312	2.35
403.519	2.38
403.725	2.3
403.932	2.43
404.138	2.3
404.345	2.42
404.552	2.43
404.758	2.38
404.965	2.13
405.171	1.94
405.378	1.96
405.584	2.05
405.791	2.07
405.997	2.24
406.204	2.32
406.41	2.54
406.617	2.61
406.823	2.63
407.029	2.58
407.236	2.64
407.442	2.83
407.649	2.64
407.855	2.58
408.061	2.58
408.268	2.5
408.474	2.24
408.68	2.22
408.887	2.15
409.093	2.24
409.299	2.45
409.505	2.53
409.712	2.44
409.918	2.43
410.124	2.4
410.33	2.35
410.537	2.33
410.743	2.53
410.949	2.68
411.155	2.63
411.361	2.66
411.567	2.39
411.773	2.38
411.98	2.57
412.186	2.58
412.392	2.46
412.598	2.35
412.804	2.15
413.01	2.01
413.216	2
413.422	2.11
413.628	1.98
413.834	2.09
414.04	2.05
414.246	2
414.452	1.92
414.658	1.96
414.864	2.21
415.07	2.23
415.275	2.15
415.481	1.96
415.687	1.93
415.893	1.96
416.099	1.91
416.305	1.88
416.511	1.72
416.716	1.89
416.922	2.09
417.128	1.97
417.334	1.98
417.539	2.17
417.745	2.17
417.951	2.1
418.157	2.1
418.362	2.11
418.568	2.12
418.774	2.24
418.979	2.23
419.185	2.21
419.391	2.24
419.596	2.29
419.802	2.24
420.008	2.35
420.213	1.56
420.419	1.5
420.624	1.49
420.83	1.48
421.035	1.41
421.241	1.38
421.446	1.31
421.652	1.37
421.857	1.35
422.063	1.33
422.268	1.26
422.474	2.07
422.679	2.17
422.885	2.13
423.09	2.11
423.295	2.11
423.501	2.23
423.706	2.28
423.911	2.25
424.117	2.18
424.322	2.22
424.527	2.21
424.733	2.22
424.938	2.14
425.143	2.16
425.349	2.25
425.554	2.32
425.759	2.15
425.964	2.02
426.169	1.94
426.375	1.98
426.58	1.91
426.785	1.87
426.99	1.88
427.195	2.02
427.4	1.97
427.605	1.92
427.811	2.03
428.016	2.02
428.221	2.15
428.426	2.15
428.631	2.22
428.836	2.16
429.041	2.27
429.246	2.26
429.451	2.14
429.656	2.17
429.861	2.23
430.066	2.12
430.271	2.18
430.476	2.06
430.681	2.08
430.886	2.01
431.09	2.14
431.295	1.97
431.5	2.06
431.705	2.1
431.91	2.06
432.115	2.01
432.32	1.91
432.524	1.89
432.729	1.93
432.934	1.95
433.139	1.93
433.343	1.84
433.548	1.92
433.753	1.81
433.958	1.77
434.162	1.84
434.367	1.83
434.572	1.93
434.776	1.96
434.981	2.01
435.186	2.04
435.39	2.03
435.595	2.08
435.799	2.13
436.004	2.25
436.209	2.2
436.413	2.12
436.618	2.11
436.822	2.12
437.027	1.96
437.231	1.9
437.436	1.84
437.64	1.87
437.845	1.89
438.049	1.84
438.253	1.76
438.458	1.77
438.662	1.87
438.867	1.77
439.071	1.74
439.275	1.8
439.48	1.77
439.684	1.78
439.888	1.78
440.093	1.76
440.297	1.75
440.501	1.71
440.706	1.71
440.91	1.66
441.114	1.77
441.318	1.68
441.523	1.73
441.727	1.73
441.931	1.71
442.135	1.76
442.339	1.71
442.543	1.68
442.748	1.75
442.952	1.71
443.156	1.72
443.36	1.75
443.564	1.73
443.768	1.66
443.972	1.64
444.176	1.73
444.38	1.65
444.584	1.66
444.788	1.7
444.992	1.66
445.196	1.68
445.4	1.67
445.604	1.57
445.808	1.63
446.012	1.7
446.216	1.76
446.42	1.63
446.624	1.62
446.828	1.65
447.032	1.62
447.235	1.69
447.439	1.66
447.643	1.65
447.847	1.65
448.051	1.65
448.254	1.52
448.458	1.46
448.662	1.53
448.866	1.58
449.069	1.52
449.273	1.65
449.477	1.54
449.681	1.53
449.884	1.46
450.088	1.56
450.292	1.47
450.495	1.55
450.699	1.51
450.902	1.54
451.106	1.61
451.31	1.67
451.513	1.62
451.717	1.66
451.92	1.63
452.124	1.74
452.327	1.65
452.531	1.68
452.734	1.63
452.938	1.66
453.141	1.57
453.345	1.5
453.548	1.5
453.752	1.38
453.955	1.42
454.158	1.45
454.362	1.41
454.565	1.43
454.769	1.46
454.972	1.61
455.175	1.63
455.379	1.69
455.582	1.66
455.785	1.66
455.988	1.8
456.192	1.71
456.395	1.81
456.598	1.8
456.801	1.77
457.005	1.86
457.208	1.76
457.411	1.8
457.614	1.75
457.817	1.72
458.021	1.75
458.224	1.76
458.427	1.88
458.63	1.87
458.833	1.93
459.036	1.99
459.239	1.89
459.442	1.92
459.645	1.89
459.848	1.91
460.051	2.05
460.254	2.11
460.457	2.01
460.66	1.87
460.863	1.78
461.066	1.78
461.269	1.78
461.472	1.87
461.675	1.86
461.878	1.79
462.081	1.83
462.284	1.67
462.486	1.46
462.689	1.55
462.892	1.75
463.095	1.74
463.298	1.72
463.5	1.69
463.703	1.68
463.906	1.66
464.109	1.81
464.311	1.76
464.514	1.78
464.717	1.89
464.92	1.83
465.122	1.66
465.325	1.68
465.528	1.61
465.73	1.58
465.933	1.51
466.135	1.51
466.338	1.48
466.541	1.46
466.743	1.46
466.946	1.44
467.148	1.37
467.351	1.4
467.553	1.47
467.756	1.51
467.958	1.61
468.161	1.67
468.363	1.55
468.566	1.54
468.768	1.54
468.971	1.53
469.173	1.48
469.375	1.52
469.578	1.38
469.78	1.29
469.983	1.3
470.185	1.19
470.387	1.11
470.59	1.15
470.792	1.13
470.994	1.19
471.196	1.24
471.399	1.26
471.601	1.26
471.803	1.25
472.005	1.29
472.208	1.27
472.41	1.28
472.612	1.34
472.814	1.34
473.016	1.26
473.218	1.3
473.421	1.34
473.623	1.41
473.825	1.51
474.027	1.64
474.229	1.6
474.431	1.62
474.633	1.66
474.835	1.64
475.037	1.78
475.239	1.79
475.441	1.75
475.643	1.62
475.845	1.54
476.047	1.53
476.249	1.57
476.451	1.52
476.653	1.54
476.855	1.56
477.057	1.62
477.258	1.56
477.46	1.64
477.662	1.62
477.864	1.75
478.066	1.72
478.268	1.65
478.469	1.61
478.671	1.64
478.873	1.59
479.075	1.59
479.276	1.46
479.478	1.44
479.68	1.48
479.882	1.49
480.083	1.46
480.285	1.56
480.487	1.61
480.688	1.68
480.89	1.7
481.091	1.72
481.293	1.7
481.495	1.71
481.696	1.72
481.898	1.7
482.099	1.69
482.301	1.69
482.502	1.71
482.704	1.72
482.905	1.7
483.107	1.69
483.308	1.68
483.51	1.71
483.711	1.74
483.913	1.72
484.114	1.69
484.315	1.71
484.517	1.68
484.718	1.68
484.92	1.66
485.121	1.62
485.322	1.63
485.524	1.63
485.725	1.6
485.926	1.58
486.127	1.61
486.329	1.63
486.53	1.63
486.731	1.63
486.932	1.59
487.134	1.62
487.335	1.65
487.536	1.7
487.737	1.69
487.938	1.66
488.139	1.71
488.341	1.7
488.542	1.67
488.743	1.66
488.944	1.67
489.145	1.66
489.346	1.62
489.547	1.62
489.748	1.56
489.949	1.67
490.15	1.72
490.351	1.66
490.552	1.71
490.753	1.69
490.954	1.73
491.155	1.76
491.356	1.8
491.557	1.82
491.758	1.8
491.959	1.81
492.159	1.7
492.36	1.59
492.561	1.62
492.762	1.58
492.963	1.64
493.164	1.59
493.364	1.52
493.565	1.43
493.766	1.4
493.967	1.41
494.167	1.4
494.368	1.44
494.569	1.48
494.769	1.5
494.97	1.43
495.171	1.36
495.371	1.37
495.572	1.4
495.773	1.48
495.973	1.53
496.174	1.48
496.375	1.49
496.575	1.48
496.776	1.55
496.976	1.54
497.177	1.6
497.377	1.67
497.578	1.67
497.778	1.6
497.979	1.6
498.179	1.56
498.38	1.67
498.58	1.68
498.78	1.7
498.981	1.66
499.181	1.69
499.382	1.68
499.582	1.66
499.782	1.63
499.983	1.68
500.183	1.7
500.383	1.66
500.584	1.72
500.784	1.69
500.984	1.68
501.184	1.71
501.385	1.64
501.585	1.64
501.785	1.62
501.985	1.69
502.185	1.71
502.386	1.72
502.586	1.69
502.786	1.71
502.986	1.74
503.186	1.8
503.386	1.73
503.586	1.83
503.786	1.87
503.987	1.97
504.187	1.95
504.387	1.94
504.587	1.85
504.787	1.94
504.987	1.84
505.187	1.78
505.387	1.79
505.587	1.8
505.786	1.72
505.986	1.77
506.186	1.71
506.386	1.74
506.586	1.73
506.786	1.78
506.986	1.75
507.186	1.76
507.386	1.79
507.585	1.75
507.785	1.88
507.985	1.98
508.185	2.01
508.384	2.01
508.584	1.99
508.784	1.97
508.984	2.01
509.183	2.02
509.383	2.08
509.583	2.12
509.782	2.14
509.982	1.98
510.182	1.94
510.381	1.92
510.581	1.94
510.781	2
510.98	2.07
511.18	1.99
511.379	2.05
511.579	2.02
511.778	2.1
511.978	2.13
512.177	2.2
512.377	2.22
512.576	2.27
512.776	2.21
512.975	2.21
513.175	2.25
513.374	2.32
513.573	2.2
513.773	2.16
513.972	2.07
514.172	2.01
514.371	2.04
514.57	2
514.77	1.91
514.969	2.01
515.168	1.9
515.367	1.94
515.567	1.85
515.766	1.96
515.965	2.09
516.164	2.18
516.364	2.22
516.563	2.23
516.762	2.29
516.961	2.33
517.16	2.31
517.359	2.44
517.559	2.42
517.758	2.48
517.957	2.44
518.156	2.48
518.355	2.44
518.554	2.4
518.753	2.44
518.952	2.4
519.151	2.41
519.35	2.46
519.549	2.38
519.748	2.36
519.947	2.35
520.146	2.33
520.345	2.25
520.544	2.24
520.743	2.24
520.942	2.2
521.141	2.35
521.339	2.34
521.538	2.34
521.737	2.42
521.936	2.35
522.135	2.42
522.333	2.51
522.532	2.54
522.731	2.55
522.93	2.62
523.129	2.7
523.327	2.65
523.526	2.64
523.725	2.57
523.923	2.65
524.122	2.73
524.321	2.73
524.519	2.79
524.718	2.81
524.917	2.84
525.115	2.8
525.314	2.84
525.512	2.87
525.711	2.92
525.909	2.93
526.108	2.86
526.306	2.89
526.505	2.89
526.703	2.88
526.902	2.9
527.1	2.92
527.299	2.97
527.497	2.98
527.696	2.94
527.894	2.97
528.092	3.03
528.291	3.09
528.489	3.09
528.688	3.1
528.886	3.1
529.084	3.14
529.283	3.18
529.481	3.2
529.679	3.14
529.877	3.21
530.076	3.2
530.274	3.26
530.472	3.23
530.67	3.26
530.869	3.27
531.067	3.27
531.265	3.22
531.463	3.22
531.661	3.22
531.859	3.29
532.057	3.32
532.255	3.34
532.454	3.29
532.652	3.33
532.85	3.38
533.048	3.46
533.246	3.53
533.444	3.56
533.642	3.55
533.84	3.59
534.038	3.63
534.236	3.61
534.434	3.6
534.632	3.68
534.83	3.69
535.027	3.65
535.225	3.65
535.423	3.57
535.621	3.56
535.819	3.62
536.017	3.61
536.215	3.62
536.412	3.66
536.61	3.68
536.808	3.67
537.006	3.7
537.203	3.74
537.401	3.76
537.599	3.86
537.797	3.91
537.994	3.84
538.192	3.86
538.39	3.85
538.587	3.81
538.785	3.82
538.983	3.82
539.18	3.82
539.378	3.87
539.575	3.87
539.773	3.9
539.97	3.95
540.168	4.02
540.366	4.07
540.563	4.11
540.761	4.15
540.958	4.2
541.155	4.27
541.353	4.27
541.55	4.28
541.748	4.34
541.945	4.38
542.143	4.37
542.34	4.41
542.537	4.43
542.735	4.48
542.932	4.59
543.129	4.61
543.327	4.63
543.524	4.65
543.721	4.7
543.919	4.73
544.116	4.72
544.313	4.78
544.51	4.83
544.708	4.89
544.905	4.84
545.102	4.85
545.299	4.91
545.496	4.95
545.693	5.05
545.891	5.1
546.088	5.18
546.285	5.31
546.482	5.4
546.679	5.45
546.876	5.48
547.073	5.6
547.27	5.63
547.467	5.68
547.664	5.69
547.861	5.71
548.058	5.71
548.255	5.77
548.452	5.74
548.649	5.71
548.846	5.74
549.043	5.7
549.24	5.73
549.437	5.78
549.633	5.77
549.83	5.85
550.027	5.9
550.224	6.05
550.421	5.97
550.618	6.1
550.814	6.16
551.011	6.25
551.208	6.44
551.405	6.47
551.601	6.45
551.798	6.54
551.995	6.52
552.191	6.59
552.388	6.53
552.585	6.58
552.781	6.62
552.978	6.69
553.175	6.69
553.371	6.7
553.568	6.75
553.764	6.98
553.961	6.93
554.157	6.99
554.354	7.09
554.55	7.06
554.747	7.13
554.943	7.11
555.14	7.1
555.336	7.07
555.533	6.98
555.729	7.05
555.926	6.96
556.122	7.1
556.318	7.24
556.515	7.24
556.711	7.35
556.907	7.48
557.104	7.53
557.3	7.52
557.496	7.63
557.693	7.75
557.889	7.8
558.085	7.82
558.281	7.84
558.478	7.91
558.674	7.91
558.87	7.93
559.066	7.93
559.262	8.01
559.459	8.09
559.655	8.15
559.851	8.16
560.047	8.23
560.243	8.33
560.439	8.42
560.635	8.32
560.831	8.4
561.027	8.48
561.223	8.52
561.419	8.63
561.615	8.76
561.811	8.85
562.007	8.98
562.203	8.88
562.399	8.83
562.595	8.87
562.791	9.13
562.987	9.14
563.183	9.31
563.379	9.44
563.575	9.41
563.771	9.46
563.966	9.43
564.162	9.5
564.358	9.7
564.554	9.86
564.75	9.86
564.945	9.89
565.141	10.01
565.337	9.98
565.533	9.95
565.728	10
565.924	10.11
566.12	10.27
566.315	10.38
566.511	10.39
566.707	10.35
566.902	10.38
567.098	10.49
567.293	10.53
567.489	10.61
567.684	10.71
567.88	10.73
568.076	10.67
568.271	10.73
568.467	10.66
568.662	10.75
568.858	10.94
569.053	11.19
569.248	11.16
569.444	11.12
569.639	11.19
569.835	11.21
570.03	11.3
570.225	11.38
570.421	11.32
570.616	11.41
570.812	11.44
571.007	11.42
571.202	11.36
571.397	11.32
571.593	11.41
571.788	11.51
571.983	11.55
572.178	11.65
572.374	11.77
572.569	11.83
572.764	11.79
572.959	11.83
573.154	11.94
573.35	12
573.545	12.15
573.74	12.17
573.935	12.15
574.13	12.29
574.325	12.32
574.52	12.35
574.715	12.37
574.91	12.51
575.105	12.52
575.3	12.44
575.495	12.53
575.69	12.47
575.885	12.51
576.08	12.53
576.275	12.54
576.47	12.64
576.665	12.49
576.86	12.57
577.055	12.42
577.25	12.46
577.444	12.52
577.639	12.42
577.834	12.55
578.029	12.63
578.224	12.59
578.418	12.49
578.613	12.32
578.808	12.47
579.003	12.46
579.197	12.55
579.392	12.57
579.587	12.63
579.781	12.6
579.976	12.42
580.171	12.47
580.365	12.5
580.56	12.58
580.755	12.56
580.949	12.6
581.144	12.58
581.338	12.66
581.533	12.68
581.727	12.64
581.922	12.67
582.116	12.88
582.311	13.04
582.505	13.06
582.7	13.17
582.894	13.38
583.089	13.29
583.283	13.3
583.478	13.4
583.672	13.32
583.866	13.36
584.061	13.41
584.255	13.34
584.449	13.13
584.644	13.21
584.838	13.15
585.032	13.14
585.226	13.19
585.421	13.28
585.615	13.33
585.809	13.39
586.003	13.47
586.198	13.65
586.392	13.84
586.586	13.93
586.78	14.05
586.974	14.18
587.168	14.02
587.363	14.19
587.557	14.34
587.751	14.17
587.945	14.16
588.139	14.33
588.333	14.24
588.527	14.2
588.721	14.18
588.915	14.2
589.109	14.14
589.303	14.25
589.497	14.21
589.691	14.17
589.885	14.34
590.079	14.32
590.273	14.13
590.466	14.25
590.66	14.13
590.854	14.14
591.048	14.1
591.242	14.11
591.436	14.26
591.629	14.3
591.823	14.34
592.017	14.43
592.211	14.66
592.404	14.7
592.598	14.61
592.792	14.81
592.986	14.88
593.179	14.92
593.373	14.92
593.567	14.8
593.76	14.67
593.954	14.65
594.147	14.58
594.341	14.63
594.535	14.68
594.728	14.63
594.922	14.59
595.115	14.69
595.309	14.7
595.502	14.73
595.696	14.83
595.889	14.95
596.083	14.8
596.276	14.83
596.47	14.74
596.663	14.68
596.856	14.77
597.05	14.76
597.243	14.61
597.437	14.55
597.63	14.49
597.823	14.38
598.017	14.3
598.21	14.3
598.403	14.18
598.596	14.19
598.79	14.18
598.983	14.02
599.176	14.09
599.369	14.1
599.563	14.19
599.756	14.18
599.949	14.17
600.142	14.24
600.335	14.53
600.528	14.54
600.722	14.64
600.915	14.59
601.108	14.83
601.301	14.8
601.494	14.88
601.687	14.98
601.88	15.13
602.073	15.19
602.266	15.27
602.459	15.22
602.652	15.43
602.845	15.4
603.038	15.56
603.231	15.49
603.424	15.5
603.617	15.34
603.809	15.23
604.002	15.07
604.195	15.12
604.388	15
604.581	15.03
604.774	14.92
604.966	14.85
605.159	14.73
605.352	14.69
605.545	14.58
605.737	14.74
605.93	14.83
606.123	15.08
606.316	15.11
606.508	15.19
606.701	14.98
606.894	14.86
607.086	15.04
607.279	15.21
607.471	15.34
607.664	15.47
607.857	15.4
608.049	15.44
608.242	15.38
608.434	15.34
608.627	15.33
608.819	15.44
609.012	15.56
609.204	15.45
609.397	15.31
609.589	15.21
609.782	15.17
609.974	15.33
610.166	15.17
610.359	15.09
610.551	15.11
610.743	15.16
610.936	15.19
611.128	15.11
611.32	15.26
611.513	15.26
611.705	15.37
611.897	15.45
612.09	15.31
612.282	15.48
612.474	15.48
612.666	15.33
612.858	15.23
613.051	15.28
613.243	15.34
613.435	15.12
613.627	15.28
613.819	15.36
614.011	15.3
614.203	15.3
614.395	15.14
614.588	15.23
614.78	15.49
614.972	15.54
615.164	15.48
615.356	15.44
615.548	15.61
615.74	15.49
615.932	15.37
616.124	15.38
616.315	15.57
616.507	15.7
616.699	15.46
616.891	15.27
617.083	15.32
617.275	15.31
617.467	15.5
617.659	15.42
617.85	15.6
618.042	15.57
618.234	15.67
618.426	15.64
618.618	15.56
618.809	15.79
619.001	15.89
619.193	15.96
619.384	16.08
619.576	15.91
619.768	15.74
619.959	15.6
620.151	15.63
620.343	15.54
620.534	15.48
620.726	15.42
620.917	15.3
621.109	15.37
621.301	15.34
621.492	15.35
621.684	15.5
621.875	15.5
622.067	15.43
622.258	15.39
622.45	15.42
622.641	15.54
622.832	15.62
623.024	15.65
623.215	15.52
623.407	15.44
623.598	15.26
623.789	15.11
623.981	15.33
624.172	15.45
624.363	15.43
624.555	15.48
624.746	15.28
624.937	15.28
625.129	15.36
625.32	15.39
625.511	15.49
625.702	15.47
625.893	15.48
626.085	15.57
626.276	15.48
626.467	15.61
626.658	15.51
626.849	15.53
627.04	15.59
627.231	15.63
627.422	15.53
627.614	15.48
627.805	15.59
627.996	15.66
628.187	15.66
628.378	15.52
628.569	15.51
628.76	15.59
628.951	15.65
629.142	15.74
629.332	15.61
629.523	15.77
629.714	16.03
629.905	15.98
630.096	16.02
630.287	15.8
630.478	16.13
630.669	16.17
630.859	16
631.05	16.09
631.241	16.06
631.432	16.27
631.623	16.26
631.813	15.73
632.004	15.95
632.195	16.07
632.385	16.17
632.576	15.85
632.767	15.79
632.957	16.01
633.148	16
633.339	16
633.529	15.95
633.72	15.9
633.91	16.2
634.101	15.95
634.292	15.78
634.482	15.83
634.673	16.09
634.863	16
635.054	15.88
635.244	15.83
635.435	15.9
635.625	15.8
635.815	15.87
636.006	15.67
636.196	15.64
636.387	15.62
636.577	15.42
636.767	15.32
636.958	15.32
637.148	15.56
637.338	15.41
637.529	15.37
637.719	15.33
637.909	15.38
638.099	15.54
638.29	15.79
638.48	15.82
638.67	15.88
638.86	15.96
639.05	15.95
639.241	15.58
639.431	15.98
639.621	15.88
639.811	15.86
640.001	15.79
640.191	15.91
640.381	15.78
640.571	15.77
640.761	15.85
640.951	15.9
641.141	15.83
641.331	15.99
641.521	15.77
641.711	15.74
641.901	15.85
642.091	15.96
642.281	15.79
642.471	15.89
642.661	15.91
642.851	15.79
643.041	15.74
643.231	15.87
643.42	16.05
643.61	15.9
643.8	15.87
643.99	15.9
644.18	15.74
644.369	15.75
644.559	15.75
644.749	15.83
644.939	15.79
645.128	15.93
645.318	15.63
645.508	15.47
645.697	15.48
645.887	15.48
646.076	15.47
646.266	15.46
646.456	15.46
646.645	15.46
646.835	15.56
647.024	15.56
647.214	15.42
647.403	15.82
647.593	16.01
647.782	16.01
647.972	16.18
648.161	16.09
648.351	16.1
648.54	16.21
648.73	16.1
648.919	15.8
649.108	15.96
649.298	15.88
649.487	15.62
649.677	15.53
649.866	15.46
650.055	15.53
650.244	15.65
650.434	15.61
650.623	15.59
650.812	15.69
651.002	15.68
651.191	15.57
651.38	15.7
651.569	15.84
651.758	15.73
651.947	16.24
652.137	16.21
652.326	16.25
652.515	16.41
652.704	16.46
652.893	16.37
653.082	16.58
653.271	16.69
653.46	16.69
653.649	16.84
653.838	16.78
654.027	16.53
654.216	16.21
654.405	16.15
654.594	16.07
654.783	16.19
654.972	16.03
655.161	16.09
655.35	16.17
655.539	16.06
655.728	15.71
655.916	15.73
656.105	15.51
656.294	15.55
656.483	15.79
656.672	15.83
656.86	15.7
657.049	15.85
657.238	15.95
657.427	15.98
657.615	15.95
657.804	16.25
657.993	16.44
658.181	16.47
658.37	16.56
658.559	16.39
658.747	16.57
658.936	16.69
659.125	16.64
659.313	16.43
659.502	16.32
659.69	16.54
659.879	16.43
660.067	16.21
660.256	16.23
660.444	16.22
660.633	16.05
660.821	15.47
661.01	15.34
661.198	15.35
661.387	15.42
661.575	15.45
661.763	15.29
661.952	15.31
662.14	15.7
662.328	15.85
662.517	15.74
662.705	15.88
662.893	16.2
663.082	16.28
663.27	16.22
663.458	16.23
663.646	16.06
663.834	16.03
664.023	16.1
664.211	15.8
664.399	15.92
664.587	16.19
664.775	16.1
664.963	16.09
665.152	16.07
665.34	15.98
665.528	16.21
665.716	16.27
665.904	16.3
666.092	16.14
666.28	16.1
666.468	15.93
666.656	15.83
666.844	15.98
667.032	15.98
667.22	15.99
667.408	16.15
667.596	15.96
667.784	16.05
667.971	16.03
668.159	16.36
668.347	16.58
668.535	16.54
668.723	16.6
668.911	16.63
669.098	16.93
669.286	16.73
669.474	16.59
669.662	16.53
669.849	16.84
670.037	16.93
670.225	16.67
670.413	16.65
670.6	16.71
670.788	16.55
670.976	16.35
671.163	16.31
671.351	16.68
671.538	16.95
671.726	17.07
671.913	16.87
672.101	16.96
672.289	17.03
672.476	16.89
672.664	16.81
672.851	16.95
673.039	17.01
673.226	16.75
673.413	16.41
673.601	16.34
673.788	16.26
673.976	16.25
674.163	16
674.35	16.03
674.538	16.31
674.725	16.46
674.912	16.34
675.1	16.49
675.287	16.69
675.474	16.82
675.662	16.93
675.849	17.06
676.036	17.13
676.223	17.39
676.411	17.53
676.598	17.3
676.785	17.17
676.972	17.57
677.159	17.64
677.346	17.59
677.533	17.57
677.721	17.15
677.908	16.97
678.095	16.75
678.282	16.73
678.469	16.51
678.656	16.34
678.843	16.39
679.03	15.99
679.217	15.85
679.404	16
679.591	16.05
679.778	16.19
679.964	16.14
680.151	16.36
680.338	16.23
680.525	16.08
680.712	16.26
680.899	16.26
681.086	16.18
681.272	16.15
681.459	15.9
681.646	15.72
681.833	16.02
682.02	16.16
682.206	16.02
682.393	16.14
682.58	16.57
682.766	16.59
682.953	16.62
683.14	16.75
683.326	17.06
683.513	17.06
683.7	17.22
683.886	16.96
684.073	17.16
684.259	17.04
684.446	17
684.632	17.01
684.819	17.01
685.005	17.13
685.192	17.3
685.378	17.15
685.565	17.24
685.751	17.21
685.938	17.45
686.124	17.1
686.31	17.58
686.497	17.59
686.683	17.28
686.87	17.14
687.056	16.95
687.242	16.86
687.429	16.85
687.615	16.73
687.801	16.67
687.987	16.57
688.174	16.71
688.36	16.16
688.546	16.04
688.732	16.03
688.918	16.04
689.105	16.11
689.291	16.24
689.477	15.98
689.663	16.08
689.849	15.83
690.035	15.89
690.221	15.48
690.407	15.61
690.593	15.96
690.779	16.01
690.965	15.89
691.151	15.6
691.337	15.4
691.523	15.53
691.709	15.64
691.895	15.82
692.081	15.94
692.267	16.38
692.453	16.42
692.639	16.2
692.825	16.22
693.011	16.36
693.196	16.45
693.382	16.75
693.568	17.04
693.754	17.02
693.94	17.17
694.125	16.87
694.311	16.63
694.497	16.74
694.682	16.67
694.868	16.79
695.054	16.72
695.239	16.72
695.425	16.66
695.611	16.43
695.796	16.65
695.982	16.72
696.168	16.92
696.353	17.31
696.539	17.37
696.724	17.29
696.91	17.03
697.095	17.05
697.281	17.21
697.466	17.29
697.652	17.34
697.837	17.2
698.023	17.07
698.208	16.84
698.393	16.53
698.579	16.31
698.764	16.32
698.949	16.74
699.135	16.76
699.32	16.5
699.505	16.28
699.691	16.33
699.876	16.16
700.061	16.41
700.246	16.44
700.432	16.76
700.617	16.95
700.802	16.99
700.987	16.6
701.172	16.56
701.358	16.62
701.543	16.67
701.728	16.38
701.913	16.58
702.098	16.2
702.283	15.86
702.468	15.63
702.653	15.73
702.838	15.64
703.023	15.58
703.208	15.81
703.393	16.03
703.578	16.12
703.763	15.95
703.948	15.82
704.133	15.66
704.318	16.44
704.503	16.03
704.688	15.86
704.873	15.98
705.057	16.05
705.242	15.67
705.427	15.65
705.612	15.95
705.797	16.15
705.981	15.87
706.166	16.37
706.351	16.18
706.536	16.64
706.72	16.57
706.905	16.36
707.09	16.39
707.274	16.43
707.459	16.68
707.644	16.4
707.828	16.48
708.013	16.54
708.197	16.52
708.382	16.37
708.567	16.35
708.751	16.43
708.936	16.72
709.12	16.85
709.305	16.92
709.489	16.84
709.673	16.8
709.858	16.63
710.042	16.75
710.227	16.61
710.411	16.55
710.596	16.66
710.78	16.83
710.964	16.49
711.149	16.32
711.333	16.46
711.517	16.26
711.702	16.46
711.886	16.47
712.07	16.22
712.254	16.01
712.438	16.28
712.623	16.17
712.807	16.2
712.991	16.43
713.175	16.56
713.359	16.39
713.544	16.37
713.728	16.65
713.912	16.93
714.096	17.27
714.28	17.12
714.464	16.99
714.648	17.17
714.832	17.07
715.016	16.9
715.2	16.98
715.384	17.42
715.568	17.55
715.752	17.17
715.936	17.13
716.12	17.24
716.304	18.2
716.488	18.51
716.671	17.96
716.855	17.99
717.039	17.97
717.223	17.9
717.407	17.89
717.59	17.69
717.774	17.87
717.958	17.58
718.142	17.56
718.325	16.36
718.509	16.2
718.693	16.72
718.877	16.48
719.06	16.84
719.244	16.7
719.428	16.4
719.611	17.02
719.795	16.98
719.978	16.63
720.162	16.48
720.345	17.01
720.529	16.58
720.713	16.73
720.896	16.78
721.08	16.4
721.263	16.42
721.446	16.47
721.63	16.57
721.813	16.54
721.997	17
722.18	17.06
722.364	17.13
722.547	17.35
722.73	17.31
722.914	17.7
723.097	17.51
723.28	17.56
723.464	17.36
723.647	16.55
723.83	16.29
724.013	16.34
724.197	16.12
724.38	15.88
724.563	15.87
724.746	15.66
724.929	15.01
725.112	15.32
725.296	15.11
725.479	15.11
725.662	15.38
725.845	15.3
726.028	15.41
726.211	14.88
726.394	15.31
726.577	15.23
726.76	15
726.943	15.33
727.126	15.24
727.309	15.4
727.492	15.25
727.675	15.57
727.858	15.91
728.041	16.09
728.224	16.82
728.407	16.68
728.589	16.73
728.772	17.14
728.955	17.49
729.138	17.46
729.321	17.47
729.503	17.76
729.686	16.99
729.869	16.43
730.052	16.02
730.234	15.92
730.417	15.65
730.6	16.07
730.782	15.73
730.965	15.38
731.148	15.59
731.33	15.88
731.513	16
731.695	16.28
731.878	16.61
732.061	16.76
732.243	16.44
732.426	16.77
732.608	16.38
732.791	16.72
732.973	16.54
733.156	16.23
733.338	15.6
733.52	15.08
733.703	14.82
733.885	14.83
734.068	14.67
734.25	15.22
734.432	15.27
734.615	15.09
734.797	15.05
734.979	15.23
735.162	16.07
735.344	16.71
735.526	17.33
735.708	17.57
735.891	17.53
736.073	18.02
736.255	17.7
736.437	17.21
736.619	17.42
736.802	17.14
736.984	17.73
737.166	17.19
737.348	17.17
737.53	16.82
737.712	17.18
737.894	16.92
738.076	16.77
738.258	17.06
738.44	17.26
738.622	17.06
738.804	17.35
738.986	16.85
739.168	16.2
739.35	15.92
739.532	16.07
739.714	15.75
739.896	15.77
740.078	15.5
740.259	15.35
740.441	15.08
740.623	14.84
740.805	14.9
740.987	14.34
741.168	15.08
741.35	14.52
741.532	14.98
741.714	15.05
741.895	15.33
742.077	15.07
742.259	14.85
742.44	15.14
742.622	15.56
742.804	15.08
742.985	15.86
743.167	15.91
743.348	16.43
743.53	15.92
743.711	15.55
743.893	15.78
744.075	16
744.256	15.31
744.438	15.07
744.619	14.96
744.8	14.06
744.982	13.6
745.163	13.08
745.345	12.74
745.526	12.69
745.707	13.1
745.889	12.85
746.07	12.55
746.252	13.54
746.433	14.08
746.614	14.83
746.795	16.37
746.977	16.37
747.158	16.63
747.339	17.47
747.52	17.3
747.702	17.41
747.883	17.1
748.064	17.89
748.245	17.88
748.426	17.55
748.607	16.93
748.788	16.49
748.97	17.28
749.151	17.54
749.332	17.13
749.513	17.35
749.694	17.46
749.875	18.06
750.056	17.7
750.237	16.98
750.418	16.68
750.599	16.48
750.78	16.2
750.96	15.2
751.141	15.23
751.322	15.01
751.503	14.98
751.684	14.36
751.865	13.81
752.046	14.14
752.226	14.16
752.407	15.07
752.588	15.12
752.769	14.86
752.949	15.56
753.13	15.55
753.311	14.68
753.492	14.14
753.672	15.18
753.853	14.74
754.034	14.26
754.214	14.65
754.395	14.15
754.575	13.96
754.756	14.68
754.937	13.7
755.117	13.58
755.298	14.8
755.478	14.95
755.659	15.16
755.839	16.09
756.02	16.42
756.2	16.41
756.381	16.43
756.561	17.13
756.741	16.69
756.922	17.69
757.102	17.66
757.283	17.85
757.463	18.23
757.643	17.41
757.823	17.36
758.004	17.37
758.184	17.99
758.364	18.68
758.545	18.01
758.725	18.36
758.905	18.16
759.085	18.6
759.265	18.28
759.446	18.7
759.626	18.83
759.806	18.69
759.986	18.46
760.166	17.97
760.346	17.21
760.526	17.57
760.706	17.44
760.886	17.09
761.066	16.49
761.246	16.13
761.426	15.71
761.606	16.15
761.786	16.29
761.966	16.67
762.146	17.02
762.326	17.03
762.506	17.16
762.686	17.24
762.866	17.25
763.046	17.82
763.225	18.1
763.405	18.13
763.585	17.87
763.765	18.03
763.945	17.85
764.124	17.57
764.304	17.33
764.484	17.24
764.664	17.45
764.843	17.32
765.023	16.91
765.203	16.75
765.382	16.91
765.562	16.5
765.741	16.39
765.921	16.43
766.101	16.23
766.28	16.45
766.46	16.48
766.639	16.53
766.819	16.66
766.998	16.46
767.178	16.24
767.357	15.61
767.537	15.54
767.716	14.69
767.896	14.35
768.075	14.84
768.254	15.03
768.434	14.62
768.613	13.74
768.792	14.42
768.972	14.06
769.151	15.03
769.33	16.04
769.51	16.08
769.689	17.02
769.868	17.05
770.047	17.67
770.226	18.25
770.406	18.17
770.585	18.37
770.764	17.45
770.943	17.64
771.122	16.25
771.301	15.68
771.48	16.25
771.66	16.06
771.839	16.61
772.018	15.2
772.197	13.57
772.376	14.79
772.555	15.08
772.734	15.49
772.913	15.53
773.092	15.99
773.271	15.97
773.449	15.82
773.628	15.31
773.807	15.74
773.986	16.3
774.165	16.59
774.344	15.98
774.523	15.66
774.701	15.99
774.88	16.66
775.059	16.74
775.238	17.38
775.417	16.68
775.595	17.31
775.774	15.76
775.953	15.34
776.131	16.59
776.31	16.82
776.489	16.77
776.667	16.9
776.846	16.62
777.025	16.72
777.203	16.24
777.382	16.92
777.56	16.64
777.739	17.19
777.917	17.71
778.096	17.45
778.274	17.45
778.453	17.47
778.631	17.15
778.81	17.54
778.988	17.94
779.166	17.4
779.345	17.53
779.523	17.78
779.702	17.94
779.88	17.59
780.058	17.03
780.237	16.18
780.415	16.59
780.593	17.34
780.771	17.74
780.95	17.29
781.128	17.63
781.306	17.19
781.484	17.7
781.662	17.35
781.841	16.88
782.019	17.33
782.197	17.33
782.375	16.94
782.553	16.72
782.731	15.61
782.909	15.85
783.087	15.38
783.265	15.64
783.443	14.83
783.621	15.03
783.799	16.03
783.977	16.72
784.155	17.5
784.333	17.27
784.511	16.11
784.689	16.35
784.867	16.54
785.045	16.31
785.223	15.65
785.4	15.04
785.578	14.81
785.756	15.54
785.934	14.44
786.112	14.75
786.289	14.84
786.467	15.59
786.645	15.97
786.823	16.44
787	17.7
787.178	18.66
787.356	18.68
787.533	19.25
787.711	18.96
787.889	20.12
788.066	19.39
788.244	18.83
788.421	19.04
788.599	19.33
788.776	19.58
788.954	19.47
789.131	19.33
789.309	20.01
789.486	19.87
789.664	19.54
789.841	18.04
790.019	18.78
790.196	20.1
790.373	18.6
790.551	18.23
790.728	17.44
790.906	16.52
791.083	17.36
791.26	16.04
791.437	16.08
791.615	16.45
791.792	17.22
791.969	16.75
792.146	16.37
792.324	17.12
792.501	16.67
792.678	15.95
792.855	17.13
793.032	16.73
793.209	17.67
793.387	17.69
793.564	17.75
793.741	17.96
793.918	17.67
794.095	18.43
794.272	17.15
794.449	17.62
794.626	18.59
794.803	18.48
794.98	18.06
795.157	17.69
795.334	18.51
795.511	17.65
795.688	16.78
795.864	16.66
796.041	16.25
796.218	17.08
796.395	16.56
796.572	15.34
796.749	14.55
796.925	14.54
797.102	14.72
797.279	13.36
797.456	13.41
797.632	14.18
797.809	14.44
797.986	14.56
798.162	15.64
798.339	15.77
798.516	16.67
798.692	17.44
798.869	16.86
799.046	17.24
799.222	17.73
799.399	17.93
799.575	18.06
799.752	18.54
799.928	18.12
800.105	17.95
800.281	16.96
800.458	16.83
800.634	16.26
800.811	16.39
800.987	17.28
801.163	17.34
801.34	17.49
801.516	16.4
801.692	15.95
801.869	15.19
802.045	15.52
802.221	14.97
802.398	16.43
802.574	16.54
802.75	16.07
802.926	15.47
803.103	14.21
803.279	14.23
803.455	15.98
803.631	16.24
803.807	16.26
803.983	15.99
804.16	17.25
804.336	15.06
804.512	15.57
804.688	16.94
804.864	16.52
805.04	17.32
805.216	17.85
805.392	17.3
805.568	17.12
805.744	18.63
805.92	18.57
806.096	18.72
806.272	18.82
806.448	18.92
806.623	18.08
806.799	18.02
806.975	17.5
807.151	15.84
807.327	15.43
807.503	16.29
807.678	15.21
807.854	14.67
808.03	15.07
808.206	16.13
808.381	16.39
808.557	18.24
808.733	19.02
808.908	20.24
809.084	21.14
809.26	21.51
809.435	19.63
809.611	19.91
809.787	20.04
809.962	19.74
810.138	18.64
810.313	16.62
810.489	15.1
810.664	14.51
810.84	14.33
811.015	14.7
811.191	15.4
811.366	16.17
811.542	16.53
811.717	16.82
811.892	16.49
812.068	16.79
812.243	17.02
812.419	16.57
812.594	15.63
812.769	14.92
812.944	13.88
813.12	13.07
813.295	13.28
813.47	11.64
813.645	11.2
813.821	11.53
813.996	11.67
814.171	12.25
814.346	12.43
814.521	13.56
814.697	13.25
814.872	13.49
815.047	13.02
815.222	13.2
815.397	14.2
815.572	13.42
815.747	12.98
815.922	13.88
816.097	14.33
816.272	14.98
816.447	14.03
816.622	15.4
816.797	15.29
816.972	15.03
817.147	13.81
817.322	14.72
817.496	14.27
817.671	15.71
817.846	15.34
818.021	16.18
818.196	16.17
818.371	17.21
818.545	16.94
818.72	17.92
818.895	18.57
819.069	19.86
819.244	20.92
819.419	22.02
819.594	21.76
819.768	21.36
819.943	20.86
820.117	20.47
820.292	20.72
820.467	20.37
820.641	20.08
820.816	20.16
820.99	20.08
821.165	19.28
821.339	19.54
821.514	19.59
821.688	19.65
821.863	19.64
822.037	19.64
822.212	19.64
822.386	19.58
822.56	19.6
822.735	19.25
822.909	19.02
823.084	19.09
823.258	18.7
823.432	18.71
823.606	18.76
823.781	18.61
823.955	18.42
824.129	18.33
824.303	18.34
824.478	18.46
824.652	18.85
824.826	18.99
825	19.05
825.174	19.52
825.348	19.03
825.523	19.32
825.697	19.64
825.871	20
826.045	19.83
826.219	20.13
826.393	19.54
826.567	19.51
826.741	19.06
826.915	18.85
827.089	18.75
827.263	19.21
827.437	18.62
827.611	18.51
827.784	18.11
827.958	18.32
828.132	18.2
828.306	18.4
828.48	18.64
828.654	19.62
828.827	19.64
829.001	19.63
829.175	19.05
829.349	19.3
829.522	19.09
829.696	19.62
829.87	18.14
830.044	17.83
830.217	17.19
830.391	15.87
830.565	15.66
830.738	15.17
830.912	15
831.085	15.29
831.259	15.38
831.432	15.57
831.606	15.04
831.779	15.86
831.953	14.91
832.126	16.04
832.3	16.57
832.473	17.47
832.647	17.09
832.82	17.45
832.994	17.23
833.167	17.65
833.34	17.85
833.514	18.05
833.687	18.38
833.86	19.2
834.034	19.47
834.207	19.28
834.38	18.3
834.553	19.34
834.727	18.29
834.9	17.65
835.073	16.92
835.246	16.16
835.419	15.45
835.593	14.51
835.766	14.33
835.939	13.39
836.112	13.73
836.285	14.25
836.458	13.08
836.631	13.55
836.804	14.62
836.977	15.16
837.15	14.72
837.323	15.59
837.496	16.32
837.669	15.62
837.842	15.57
838.015	15.58
838.188	14.02
838.361	14.32
838.533	15.54
838.706	17.4
838.879	16.06
839.052	16.36
839.225	16.82
839.398	17.8
839.57	16.68
839.743	16.9
839.916	18.21
840.088	18.39
840.261	16.11
840.434	15.66
840.607	14.9
840.779	16.91
840.952	17.43
841.124	16.4
841.297	13.77
841.47	15.71
841.642	15.5
841.815	14.51
841.987	15.03
842.16	17.83
842.332	17.13
842.505	15.48
842.677	13.77
842.85	14.44
843.022	15.36
843.194	16.84
843.367	12.09
843.539	11.76
843.712	12.16
843.884	14.03
844.056	15.03
844.229	15.96
844.401	16.55
844.573	15.22
844.745	15.85
844.918	16.16
845.09	20.09
845.262	24.66
845.434	24.39
845.606	19.17
845.779	16.49
845.951	20.15
846.123	18.71
846.295	14.27
846.467	14.69
846.639	11.98
846.811	11.12
846.983	5.27
847.155	4.02
847.327	3.67
847.499	9.19
847.671	9.49
847.843	5.36
848.015	5.68
848.187	8.88
848.359	11.17
848.531	11.93
848.703	12.16
848.875	10.43
849.047	7.92
849.218	10.07
849.39	10.15
849.562	10.82
849.734	12.98
849.905	12.35
850.077	13.62
850.249	13.68
850.421	9.95
850.592	11.31
850.764	19.05
850.936	22.32
851.107	16.47
851.279	16.8
851.451	18.4
851.622	16.85
851.794	13.85
851.965	10.35
852.137	7.03
852.308	13.5
852.48	12.82
852.651	7.98
852.823	6.87
852.994	12.1
853.166	10.11
853.337	9.17
853.509	9.08
853.68	14.76
853.851	21.77
854.023	23.04
854.194	20.22
854.365	18.92
854.537	18.97
854.708	20.1
854.879	18.62
855.05	20.45
855.222	19.74
855.393	19.41
855.564	19.82
855.735	17.22
855.906	18.23
856.078	17.07
856.249	20.1
856.42	14.27
856.591	14.2
856.762	11.14
856.933	12.28
857.104	11.27
857.275	10.49
857.446	9.45
857.617	9.03
857.788	11.69
857.959	11.48
858.13	4.93
858.301	9.62
858.472	8.78
858.643	10.11
858.814	3.26
858.985	1.39
859.155	-4.51
859.326	-2.24
859.497	-3.75
859.668	-8.31
859.839	-8.73
860.009	-7.34
860.18	-3.49
860.351	-3.23
860.522	3.44
860.692	8.29
860.863	9.68
861.034	9.48
861.204	4.9
861.375	1.34
861.546	2.72
861.716	5.3
861.887	6.24
862.057	1.14
862.228	-1.17
862.398	-4.71
862.569	-7.45
862.739	-8.69
862.91	-1.8
863.08	0.3
863.251	8.05
863.421	10.06
863.592	9.07
863.762	9.68
863.932	9.5
864.103	12.08
864.273	9.34
864.443	13.01
864.614	16.5
864.784	12.73
864.954	12.59
865.125	6.72
865.295	0.53
865.465	-4.49
865.635	-4.28
865.805	-0.66
865.976	-1.83
866.146	3.64
866.316	-1.96
866.486	-1.67
866.656	-3.22
866.826	-4.02
866.996	-1.62
867.166	-1.25
867.336	1.95
867.506	-0.44
867.676	-1.95
867.846	-4.81
868.016	-8.92
868.186	-4.29
868.356	-9.35
868.526	-8.46
868.696	-6.91
868.866	-9.59
869.036	-5.41
869.206	-2.84
869.376	4.16
869.545	8.48
869.715	8.48
869.885	8.73
870.055	12.38
870.224	13.55
870.394	16.26
870.564	11.61
870.734	10.77
870.903	10.58
871.073	8.83
871.243	8.9
871.412	4.85
871.582	7.4
871.751	11.28
871.921	6.02
872.091	5.97
872.26	4.46
872.43	8.64
872.599	9.72
872.769	12.43
872.938	16.78
873.108	10.05
873.277	9.98
873.446	12.7
873.616	16.55
873.785	14.83
873.955	12.59
874.124	11.28
874.293	15.83
874.463	15.15
874.632	13.24
874.801	8.51
874.971	11.16
875.14	11.79
875.309	9.45
875.478	0.02
875.647	2.59
875.817	10.84
875.986	9.31
876.155	5.8
876.324	1.75
876.493	-1.92
876.662	-3.36
876.831	-3.11
877	-1.79
877.17	-4.57
877.339	-4.94
877.508	-9.21
877.677	-7.79
877.846	-4.45
878.015	-3.91
878.184	0.65
878.352	2.78
878.521	-1.08
878.69	2.59
878.859	1.16
879.028	0.82
879.197	0.72
879.366	4.52
879.534	3.86
879.703	4.87
879.872	7.63
880.041	9.74
880.21	10.49
880.378	14.29
880.547	15.02
880.716	14.58
880.884	16.42
881.053	17.73
881.222	17.93
881.39	19.11
881.559	19.11
881.727	19.16
881.896	18.79
882.065	19.59
882.233	19.03
882.402	19.02
882.57	20.28
882.739	20.45
882.907	20.71
883.076	21.18
883.244	20.09
883.412	20.71
883.581	20.35
883.749	21.14
883.918	20.49
884.086	20.54
884.254	19.7
884.423	18.65
884.591	17.04
884.759	16.13
884.927	15.45
885.096	16.2
885.264	14.92
885.432	14.69
885.6	13.66
885.769	14.24
885.937	14.39
886.105	14.54
886.273	14.8
886.441	15.3
886.609	14.38
886.777	13.59
886.945	12
887.113	12.14
887.281	11.81
887.449	13.44
887.617	13.73
887.785	11.14
887.953	10.03
888.121	12.09
888.289	14.37
888.457	15.01
888.625	13
888.793	15.31
888.961	18.05
889.129	17.82
889.296	11.23
889.464	7.93
889.632	10.85
889.8	13.46
889.967	9.18
890.135	6.42
