Data from 2938457_Reflection_2.txt Node
Date: Fri Jun 19 17:42:47 EDT 2015
User: robert
Spectrometer: USB4E03002
Autoset integration time: false
Trigger mode: 4
Integration Time (sec): 1.000000E-1
Scans to average: 10
Electric dark correction enabled: true
Nonlinearity correction enabled: false
Boxcar width: 5
Stray light correction enabled: false
XAxis mode: Wavelengths
Stop averaging: false
Number of Pixels in Spectrum: 3648
>>>>>Begin Spectral Data<<<<<
177.575	-1028.71
177.794	2073.96
178.014	-125.86
178.233	81.83
178.452	262.53
178.672	-138.75
178.891	625
179.11	295.53
179.33	270.3
179.549	484.82
179.768	376.42
179.987	-459.27
180.207	-1368.33
180.426	-143.18
180.645	-41.22
180.864	188.48
181.084	-2457.26
181.303	-152.09
181.522	-59.83
181.741	2.86
181.96	-19.56
182.179	-55.68
182.398	-101.08
182.618	-70.37
182.837	-6.59
183.056	88.01
183.275	78.02
183.494	77.12
183.713	88.2
183.932	221.56
184.151	610.87
184.37	189.19
184.589	118.08
184.808	157.27
185.027	155.78
185.246	-878.5
185.465	136.81
185.684	98.98
185.903	23.97
186.122	13.95
186.341	58.72
186.56	99.01
186.779	96.18
186.998	99.73
187.216	110.22
187.435	81.34
187.654	70.33
187.873	-73.84
188.092	4878.26
188.311	308.21
188.53	-293.16
188.748	-50.86
188.967	-37.82
189.186	-444.92
189.405	444.44
189.623	1795.22
189.842	-246.22
190.061	-86.03
190.28	2.7
190.498	28.53
190.717	52.91
190.936	45.04
191.154	14.66
191.373	25.05
191.592	28.15
191.81	31.08
192.029	52.29
192.248	52.3
192.466	38.37
192.685	39.11
192.904	20.14
193.122	19.61
193.341	16.7
193.559	20.73
193.778	12.65
193.996	10.2
194.215	14.31
194.433	7.43
194.652	3.93
194.87	-26.67
195.089	-13.23
195.307	-4.94
195.526	-2.69
195.744	10.93
195.963	-10.04
196.181	-5.52
196.399	-4.08
196.618	-20.16
196.836	7.5
197.055	25.07
197.273	35.95
197.491	18.89
197.71	29.05
197.928	18.12
198.146	18.69
198.365	40.2
198.583	34.04
198.801	39.58
199.019	56.96
199.238	42.82
199.456	28.13
199.674	30.99
199.892	35.85
200.111	29.16
200.329	49.6
200.547	49.51
200.765	45.83
200.983	78.01
201.202	72.7
201.42	40.5
201.638	37.62
201.856	98.14
202.074	104.83
202.292	56.73
202.51	88.61
202.728	-164.42
202.946	18.52
203.165	65.74
203.383	-74.19
203.601	-77.42
203.819	-12.99
204.037	19.89
204.255	23.66
204.473	-38.08
204.691	-12.14
204.909	-26.61
205.127	-24.14
205.345	-51.33
205.562	-121.91
205.78	15.48
205.998	52.21
206.216	35.84
206.434	34.7
206.652	19.82
206.87	22.96
207.088	21.88
207.306	-224.64
207.523	221.59
207.741	25.68
207.959	-18.53
208.177	-1304.57
208.395	1892.5
208.612	477.43
208.83	-345.77
209.048	-52.44
209.266	-48.56
209.483	-23.23
209.701	-15.66
209.919	-18.19
210.136	-36.82
210.354	2.08
210.572	-5.58
210.79	23.53
211.007	13.42
211.225	-7.83
211.442	-29.89
211.66	-25.07
211.878	-20.39
212.095	95
212.313	100.6
212.53	116.66
212.748	116.06
212.966	116.66
213.183	424.07
213.401	515.87
213.618	2254.74
213.836	-247.97
214.053	-31.29
214.271	214.05
214.488	-30.96
214.705	-28.29
214.923	11.14
215.14	16.04
215.358	53.78
215.575	88.45
215.793	99.04
216.01	89.58
216.227	67.24
216.445	100.22
216.662	73.48
216.879	129.21
217.097	89.71
217.314	65.2
217.531	54.19
217.749	61.06
217.966	39.3
218.183	34.5
218.4	-0.28
218.618	4.51
218.835	-4.56
219.052	17.45
219.269	5.12
219.487	18.73
219.704	26.55
219.921	15.95
220.138	-3.76
220.355	-7.13
220.572	-3.32
220.79	28.54
221.007	26.57
221.224	31.28
221.441	38.52
221.658	38.99
221.875	24.44
222.092	16.52
222.309	19.36
222.526	27.17
222.743	34.69
222.96	23.67
223.177	12.65
223.394	19.33
223.611	15.99
223.828	15.03
224.045	13.27
224.262	18.49
224.479	23.06
224.696	28.62
224.913	19.14
225.13	16.69
225.347	18.61
225.564	16.16
225.781	14.44
225.997	16.52
226.214	12.71
226.431	13.08
226.648	13.56
226.865	11.71
227.082	12.31
227.298	12.31
227.515	12.49
227.732	12.14
227.949	12.14
228.165	13.22
228.382	10.84
228.599	11.56
228.816	9.62
229.032	7.75
229.249	7.31
229.466	5.1
229.682	4.25
229.899	2.6
230.116	-0.98
230.332	-1.07
230.549	-8.19
230.765	-4.06
230.982	-5.41
231.199	-3.09
231.415	1.46
231.632	1.93
231.848	1.96
232.065	5.42
232.281	4
232.498	9.95
232.714	10.61
232.931	14.31
233.147	10.45
233.364	10.62
233.58	10.75
233.797	11.21
234.013	8.68
234.23	7.78
234.446	10.73
234.662	13.65
234.879	13.18
235.095	10.85
235.312	7.35
235.528	9.04
235.744	10.81
235.961	12.67
236.177	10.47
236.393	14.63
236.61	16.68
236.826	14.9
237.042	12.93
237.258	11.05
237.475	11.48
237.691	11.88
237.907	10.26
238.123	9.24
238.339	10.71
238.556	10.34
238.772	8
238.988	9.32
239.204	8.32
239.42	8.06
239.636	10.81
239.853	10.57
240.069	11.29
240.285	12.33
240.501	12.8
240.717	11.8
240.933	11.48
241.149	11.91
241.365	11.92
241.581	12.77
241.797	13.26
242.013	11.76
242.229	12.6
242.445	12.03
242.661	11.88
242.877	11.17
243.093	10.87
243.309	10.65
243.525	10.58
243.741	9.41
243.957	9.34
244.173	9.57
244.388	10.38
244.604	9.45
244.82	9.12
245.036	9.07
245.252	9.21
245.468	9.43
245.683	10.07
245.899	10.05
246.115	10.53
246.331	10.15
246.547	10.15
246.762	9.74
246.978	10.39
247.194	10.6
247.409	11.07
247.625	11.42
247.841	11.2
248.057	10.92
248.272	10.88
248.488	8.79
248.703	7.84
248.919	7.4
249.135	7.21
249.35	6.88
249.566	7.75
249.782	7.33
249.997	6.43
250.213	6.49
250.428	5.46
250.644	6.09
250.859	7.95
251.075	7.96
251.29	8
251.506	8.99
251.721	9.51
251.937	9.4
252.152	7.99
252.368	9.43
252.583	10.09
252.798	10.59
253.014	9.94
253.229	9.06
253.445	10.37
253.66	10.94
253.875	7.64
254.091	6.41
254.306	5.56
254.521	5.12
254.737	4.13
254.952	3.19
255.167	4.27
255.383	5.05
255.598	5.13
255.813	4.76
256.028	4.34
256.244	6.8
256.459	7.13
256.674	7.56
256.889	8.37
257.104	8.11
257.32	8.56
257.535	8.05
257.75	8.38
257.965	8.78
258.18	9.05
258.395	8.96
258.61	8.36
258.826	8.22
259.041	7.91
259.256	8.06
259.471	8.24
259.686	8.32
259.901	8.4
260.116	7.83
260.331	7.1
260.546	7.25
260.761	6.82
260.976	7.12
261.191	6.81
261.406	7.13
261.621	6.89
261.836	7.19
262.05	6.21
262.265	5.17
262.48	6.48
262.695	6.9
262.91	5.83
263.125	6.2
263.34	6.66
263.555	7.88
263.769	7.57
263.984	7.48
264.199	6.75
264.414	7.67
264.629	9.18
264.843	7.98
265.058	7.6
265.273	7.54
265.488	8.41
265.702	8.33
265.917	7.26
266.132	8
266.346	8.68
266.561	8.9
266.776	8.62
266.99	8.31
267.205	8.37
267.42	8.39
267.634	8.78
267.849	7.87
268.063	7.86
268.278	7.68
268.492	7.11
268.707	6.58
268.922	6.26
269.136	5.87
269.351	5.45
269.565	5.99
269.78	6.47
269.994	6.13
270.209	5.89
270.423	5.75
270.637	5.84
270.852	5.98
271.066	5.86
271.281	6.37
271.495	6.08
271.709	7.23
271.924	6.69
272.138	6.49
272.353	6.53
272.567	7.19
272.781	7.64
272.996	7.93
273.21	8.04
273.424	9.02
273.638	8.23
273.853	9.28
274.067	8.7
274.281	9.22
274.495	9.5
274.71	10.2
274.924	9.89
275.138	8.43
275.352	8.78
275.566	9.13
275.781	8.01
275.995	8.81
276.209	9.15
276.423	8.83
276.637	8.43
276.851	7.52
277.065	7.15
277.279	7.54
277.493	8.37
277.707	8.73
277.921	8.1
278.135	8.62
278.349	8.47
278.563	8.01
278.777	7.72
278.991	8.15
279.205	9.02
279.419	8.97
279.633	8.94
279.847	9.23
280.061	9.02
280.275	8.31
280.489	8.39
280.703	8
280.917	8.21
281.131	8.33
281.344	8.2
281.558	8.53
281.772	8.52
281.986	8.09
282.2	7.73
282.414	7.38
282.627	7.46
282.841	7.63
283.055	7.96
283.269	7.97
283.482	7.86
283.696	7.31
283.91	7.11
284.123	6.62
284.337	6.74
284.551	6.79
284.764	7.19
284.978	7.72
285.192	7.21
285.405	7.28
285.619	6.65
285.833	6.81
286.046	7.36
286.26	7.72
286.473	8.05
286.687	8.36
286.9	7.98
287.114	8.07
287.327	8.25
287.541	8.16
287.754	7.77
287.968	8.17
288.181	7.1
288.395	6.92
288.608	6.39
288.822	6.33
289.035	6.2
289.248	6.3
289.462	5.82
289.675	5.17
289.889	4.68
290.102	4.79
290.315	4.9
290.529	6.08
290.742	6.77
290.955	6.73
291.169	6.93
291.382	6.9
291.595	7.22
291.808	7.65
292.022	8.44
292.235	9.32
292.448	9.01
292.661	8.24
292.875	8.51
293.088	7.9
293.301	8.76
293.514	8.92
293.727	9.07
293.94	8.74
294.153	8.49
294.367	8.17
294.58	8.03
294.793	8.19
295.006	9.04
295.219	8.76
295.432	8.59
295.645	8.2
295.858	8.04
296.071	7.95
296.284	8.34
296.497	8.08
296.71	7.99
296.923	8.16
297.136	8.64
297.349	8.2
297.562	7.62
297.775	7.97
297.988	7.53
298.201	7.79
298.414	8.2
298.626	8.33
298.839	8.58
299.052	8.32
299.265	8.11
299.478	7.99
299.691	8.22
299.903	9.14
300.116	9.1
300.329	9.18
300.542	9.36
300.755	8.73
300.967	8.77
301.18	8.55
301.393	9.02
301.605	9.7
301.818	10.01
302.031	9.62
302.243	8.69
302.456	8.66
302.669	8.29
302.881	8.4
303.094	8.83
303.307	8.03
303.519	8.02
303.732	7.91
303.944	7.59
304.157	6.77
304.37	6.67
304.582	7.98
304.795	8.01
305.007	8.42
305.22	7.63
305.432	6.97
305.645	7.71
305.857	8.31
306.069	8.51
306.282	7.94
306.494	8.05
306.707	8.5
306.919	8.18
307.132	7.91
307.344	8.13
307.556	8.65
307.769	8.5
307.981	8.09
308.193	7.93
308.406	8.19
308.618	8.92
308.83	8.98
309.043	8.82
309.255	8.47
309.467	8.73
309.679	8.64
309.892	8.45
310.104	9.47
310.316	9.61
310.528	10.02
310.74	10.07
310.953	9.33
311.165	9.3
311.377	9.16
311.589	9.64
311.801	9.89
312.013	10.32
312.225	10.18
312.437	9.5
312.649	9.38
312.862	8.49
313.074	8.58
313.286	9.28
313.498	8.6
313.71	8.65
313.922	8.98
314.134	8.62
314.346	7.94
314.558	8.22
314.77	8.04
314.982	8.86
315.193	9.79
315.405	9.27
315.617	9.11
315.829	11.05
316.041	11.69
316.253	11.16
316.465	12.2
316.677	12.31
316.888	13.54
317.1	14.05
317.312	13.99
317.524	13.3
317.736	13.51
317.947	13.19
318.159	11.47
318.371	10.78
318.583	11.28
318.794	10.2
319.006	10.68
319.218	9.18
319.43	9.25
319.641	8.5
319.853	9.62
320.064	9.7
320.276	9.75
320.488	11.26
320.699	11.14
320.911	10.05
321.123	11.11
321.334	10.17
321.546	10.36
321.757	10.35
321.969	10.66
322.18	10.13
322.392	10.18
322.603	10.77
322.815	10.5
323.026	11.28
323.238	11.36
323.449	10.92
323.661	11.86
323.872	12.41
324.083	12.05
324.295	12.36
324.506	12.54
324.718	12.63
324.929	12.23
325.14	12.26
325.352	11.66
325.563	12.21
325.774	11.95
325.986	12.01
326.197	12.01
326.408	12.49
326.62	12.22
326.831	11.56
327.042	11.26
327.253	11.26
327.464	11.41
327.676	11.79
327.887	11.46
328.098	11.85
328.309	11.59
328.52	10.58
328.732	9.99
328.943	10.29
329.154	9.84
329.365	10.43
329.576	10.69
329.787	9.89
329.998	9.36
330.209	9.74
330.42	8.86
330.631	8.88
330.842	9.62
331.053	9.56
331.264	9.18
331.475	10.48
331.686	9.7
331.897	10.14
332.108	10.71
332.319	10.64
332.53	10.45
332.741	10.83
332.952	10.42
333.163	10.41
333.374	10.17
333.585	10.34
333.795	9.99
334.006	10.82
334.217	10.93
334.428	10.07
334.639	10.93
334.849	10.92
335.06	11.07
335.271	11.47
335.482	11.42
335.692	11.48
335.903	11.76
336.114	11.56
336.325	10.97
336.535	9.97
336.746	10.43
336.957	10.31
337.167	10.57
337.378	10.48
337.589	10.63
337.799	10.11
338.01	10.06
338.22	9.87
338.431	10.38
338.642	10.05
338.852	9.97
339.063	9.67
339.273	9.1
339.484	8.65
339.694	9.24
339.905	9.19
340.115	9.37
340.326	10.17
340.536	9.93
340.746	8.77
340.957	8.73
341.167	8.81
341.378	9.33
341.588	9.61
341.799	9.7
342.009	9.01
342.219	8.88
342.43	8.96
342.64	8.95
342.85	8.66
343.061	9.11
343.271	9.13
343.481	9.24
343.691	8.7
343.902	8.87
344.112	8.7
344.322	8.18
344.532	7.78
344.743	7.76
344.953	7.29
345.163	7.65
345.373	7.75
345.583	7.81
345.793	7.69
346.004	8.46
346.214	8.09
346.424	8.38
346.634	8.88
346.844	9.15
347.054	9.29
347.264	9.02
347.474	8.87
347.684	9.14
347.894	9.98
348.104	10.1
348.314	9.46
348.524	9.19
348.734	9.26
348.944	9.01
349.154	9.13
349.364	9.17
349.574	9.05
349.784	9.6
349.994	9.17
350.204	8.06
350.413	8.22
350.623	8.15
350.833	8.58
351.043	8.37
351.253	8.89
351.463	8.9
351.672	8.74
351.882	9.24
352.092	8.65
352.302	9.14
352.511	10.23
352.721	10.24
352.931	9.86
353.141	9.59
353.35	9.84
353.56	9.46
353.77	9.3
353.979	9.32
354.189	9.24
354.399	9.29
354.608	8.94
354.818	8.31
355.027	8.69
355.237	9.14
355.447	9.52
355.656	9.53
355.866	10.01
356.075	10.17
356.285	10.11
356.494	10.01
356.704	9.73
356.913	9.54
357.123	9.5
357.332	9.11
357.542	9.08
357.751	9
357.96	8.57
358.17	8.04
358.379	7.95
358.589	8.07
358.798	8.3
359.007	8.74
359.217	8.87
359.426	8.93
359.635	9.4
359.845	9.46
360.054	9.31
360.263	9.09
360.472	9.21
360.682	9.2
360.891	9.13
361.1	9.02
361.309	8.83
361.519	9.24
361.728	8.95
361.937	8.04
362.146	7.43
362.355	7.44
362.564	8.11
362.774	7.84
362.983	7.68
363.192	7.84
363.401	7.19
363.61	7.2
363.819	6.59
364.028	6.37
364.237	6.57
364.446	6.58
364.655	6.86
364.864	6.31
365.073	6.63
365.282	6.29
365.491	5.82
365.7	6.87
365.909	6.73
366.118	6.71
366.327	7.36
366.536	7.48
366.745	7.88
366.954	7.28
367.162	7.5
367.371	7.65
367.58	8.14
367.789	8.38
367.998	7.52
368.207	7.29
368.415	7.15
368.624	6.62
368.833	6.71
369.042	6.95
369.25	7.17
369.459	7.52
369.668	7.44
369.877	7.13
370.085	6.96
370.294	7.3
370.503	7.18
370.711	7.23
370.92	7.38
371.129	7.32
371.337	6.95
371.546	7.13
371.754	6.68
371.963	6.52
372.171	6.44
372.38	6.8
372.589	6.27
372.797	6.81
373.006	6.99
373.214	7.16
373.423	7.05
373.631	7.2
373.84	6.62
374.048	6.73
374.256	6.6
374.465	6.85
374.673	6.55
374.882	6.52
375.09	6.26
375.298	6.42
375.507	6.33
375.715	6.55
375.923	6.55
376.132	6.81
376.34	6.71
376.548	6.63
376.757	6.39
376.965	6.25
377.173	6.5
377.381	6.24
377.59	5.85
377.798	5.57
378.006	5.4
378.214	5.1
378.423	4.83
378.631	4.82
378.839	4.61
379.047	4.78
379.255	5.15
379.463	5.12
379.671	5.21
379.879	5.11
380.088	5.14
380.296	5.17
380.504	5.39
380.712	5.68
380.92	5.39
381.128	5.71
381.336	5.35
381.544	4.99
381.752	5
381.96	4.85
382.168	5.02
382.376	5.09
382.584	5
382.791	5.07
382.999	4.84
383.207	4.94
383.415	4.74
383.623	4.96
383.831	5.09
384.039	5.14
384.247	5.37
384.454	5.54
384.662	5.38
384.87	5.19
385.078	5.22
385.285	4.98
385.493	5.22
385.701	5.2
385.909	5.23
386.116	5.06
386.324	4.85
386.532	4.75
386.739	4.74
386.947	5.13
387.155	5.46
387.362	5.33
387.57	5.27
387.778	5.17
387.985	5.2
388.193	4.95
388.4	4.77
388.608	4.91
388.816	4.8
389.023	4.43
389.231	4.25
389.438	3.98
389.646	3.97
389.853	4.28
390.061	4.02
390.268	3.96
390.475	3.92
390.683	4.09
390.89	3.9
391.098	3.78
391.305	3.92
391.512	3.78
391.72	3.57
391.927	3.47
392.135	3.45
392.342	3.68
392.549	3.46
392.756	3.31
392.964	3.29
393.171	3.34
393.378	3.43
393.586	3.11
393.793	3.08
394	3.37
394.207	3.31
394.414	3.18
394.622	2.73
394.829	2.96
395.036	3.23
395.243	3.02
395.45	3.07
395.657	3.24
395.864	3.66
396.072	3.69
396.279	3.49
396.486	3.71
396.693	3.72
396.9	3.95
397.107	3.92
397.314	3.86
397.521	3.99
397.728	3.89
397.935	3.88
398.142	3.83
398.349	3.87
398.556	4.07
398.763	3.82
398.97	3.66
399.177	3.7
399.383	3.67
399.59	3.56
399.797	3.42
400.004	3.22
400.211	3.15
400.418	3.05
400.625	3.01
400.831	2.77
401.038	2.58
401.245	2.79
401.452	2.73
401.658	2.74
401.865	2.86
402.072	2.99
402.279	3.15
402.485	2.89
402.692	2.76
402.899	2.72
403.105	2.94
403.312	3.16
403.519	3.04
403.725	3.02
403.932	3.06
404.138	3.19
404.345	3.12
404.552	3.02
404.758	3.19
404.965	3.36
405.171	3.28
405.378	3.33
405.584	3.25
405.791	3.36
405.997	3.46
406.204	3.46
406.41	3.32
406.617	3.14
406.823	3.07
407.029	2.92
407.236	2.82
407.442	3.07
407.649	2.87
407.855	3.01
408.061	3.13
408.268	3.07
408.474	3.01
408.68	2.93
408.887	3.19
409.093	3.25
409.299	3.34
409.505	3.29
409.712	3.18
409.918	3.14
410.124	3
410.33	2.84
410.537	2.56
410.743	2.53
410.949	2.52
411.155	2.43
411.361	2.56
411.567	2.34
411.773	2.38
411.98	2.39
412.186	2.53
412.392	2.67
412.598	2.68
412.804	2.99
413.01	2.73
413.216	2.78
413.422	2.95
413.628	2.88
413.834	3.01
414.04	3.03
414.246	2.89
414.452	2.85
414.658	2.84
414.864	2.75
415.07	2.6
415.275	2.82
415.481	2.82
415.687	2.66
415.893	2.8
416.099	2.81
416.305	2.82
416.511	2.94
416.716	2.87
416.922	2.8
417.128	2.77
417.334	2.86
417.539	2.83
417.745	2.8
417.951	2.8
418.157	2.61
418.362	2.68
418.568	2.58
418.774	2.47
418.979	2.47
419.185	2.45
419.391	2.47
419.596	2.41
419.802	2.38
420.008	2.36
420.213	2.42
420.419	2.49
420.624	2.47
420.83	2.53
421.035	2.51
421.241	2.58
421.446	2.64
421.652	2.72
421.857	2.72
422.063	2.85
422.268	2.9
422.474	2.83
422.679	2.77
422.885	2.82
423.09	2.83
423.295	2.92
423.501	2.91
423.706	2.91
423.911	2.85
424.117	2.86
424.322	2.72
424.527	2.65
424.733	2.67
424.938	2.7
425.143	2.63
425.349	2.6
425.554	2.63
425.759	2.69
425.964	2.54
426.169	2.49
426.375	2.49
426.58	2.61
426.785	2.68
426.99	2.69
427.195	2.75
427.4	2.71
427.605	2.63
427.811	2.55
428.016	2.41
428.221	2.54
428.426	2.51
428.631	2.53
428.836	2.51
429.041	2.61
429.246	2.65
429.451	2.54
429.656	2.52
429.861	2.66
430.066	2.62
430.271	2.57
430.476	2.67
430.681	2.64
430.886	2.6
431.09	2.46
431.295	2.4
431.5	2.3
431.705	2.35
431.91	2.42
432.115	2.31
432.32	2.4
432.524	2.42
432.729	2.33
432.934	2.37
433.139	2.35
433.343	2.3
433.548	2.26
433.753	2.34
433.958	2.39
434.162	2.37
434.367	2.31
434.572	2.22
434.776	2.21
434.981	2.16
435.186	2.25
435.39	2.31
435.595	2.41
435.799	2.4
436.004	2.48
436.209	2.45
436.413	2.53
436.618	2.6
436.822	2.59
437.027	2.56
437.231	2.62
437.436	2.58
437.64	2.55
437.845	2.63
438.049	2.67
438.253	2.61
438.458	2.64
438.662	2.47
438.867	2.54
439.071	2.62
439.275	2.57
439.48	2.6
439.684	2.53
439.888	2.55
440.093	2.44
440.297	2.38
440.501	2.38
440.706	2.33
440.91	2.48
441.114	2.46
441.318	2.36
441.523	2.41
441.727	2.35
441.931	2.37
442.135	2.44
442.339	2.55
442.543	2.65
442.748	2.56
442.952	2.62
443.156	2.51
443.36	2.46
443.564	2.5
443.768	2.48
443.972	2.46
444.176	2.51
444.38	2.43
444.584	2.37
444.788	2.31
444.992	2.29
445.196	2.28
445.4	2.23
445.604	2.22
445.808	2.16
446.012	2.17
446.216	2.2
446.42	2.23
446.624	2.19
446.828	2.21
447.032	2.19
447.235	2.19
447.439	2.15
447.643	2.21
447.847	2.18
448.051	2.17
448.254	2.16
448.458	2.12
448.662	2.05
448.866	2.07
449.069	2
449.273	2.06
449.477	2.13
449.681	2.09
449.884	2.15
450.088	2.3
450.292	2.27
450.495	2.2
450.699	2.25
450.902	2.23
451.106	2.31
451.31	2.32
451.513	2.26
451.717	2.22
451.92	2.22
452.124	2.21
452.327	2.24
452.531	2.43
452.734	2.61
452.938	2.58
453.141	2.63
453.345	2.57
453.548	2.52
453.752	2.49
453.955	2.43
454.158	2.5
454.362	2.39
454.565	2.28
454.769	2.11
454.972	1.98
455.175	1.95
455.379	1.91
455.582	1.95
455.785	2
455.988	2.08
456.192	2.1
456.395	2.09
456.598	2.15
456.801	2.23
457.005	2.31
457.208	2.31
457.411	2.3
457.614	2.31
457.817	2.25
458.021	2.28
458.224	2.22
458.427	2.25
458.63	2.2
458.833	2.22
459.036	2.12
459.239	2.14
459.442	2.15
459.645	2.23
459.848	2.21
460.051	2.2
460.254	2.13
460.457	2.13
460.66	2.13
460.863	2.16
461.066	2.19
461.269	2.23
461.472	2.24
461.675	2.38
461.878	2.33
462.081	2.32
462.284	2.26
462.486	2.45
462.689	2.55
462.892	2.49
463.095	2.64
463.298	2.58
463.5	2.74
463.703	2.58
463.906	2.49
464.109	2.48
464.311	2.54
464.514	2.7
464.717	2.66
464.92	2.58
465.122	2.63
465.325	2.47
465.528	2.44
465.73	2.34
465.933	2.43
466.135	2.45
466.338	2.41
466.541	2.46
466.743	2.42
466.946	2.38
467.148	2.4
467.351	2.38
467.553	2.44
467.756	2.46
467.958	2.46
468.161	2.46
468.363	2.45
468.566	2.37
468.768	2.18
468.971	2.12
469.173	2.13
469.375	2.13
469.578	2.19
469.78	2.16
469.983	2.05
470.185	2.05
470.387	2.03
470.59	2.01
470.792	2.06
470.994	2.17
471.196	2.2
471.399	2.16
471.601	2.06
471.803	2
472.005	2.03
472.208	2.15
472.41	2.11
472.612	2.04
472.814	2.01
473.016	2.05
473.218	2.14
473.421	2.07
473.623	2.17
473.825	2.24
474.027	2.3
474.229	2.34
474.431	2.39
474.633	2.34
474.835	2.38
475.037	2.41
475.239	2.4
475.441	2.32
475.643	2.34
475.845	2.37
476.047	2.42
476.249	2.42
476.451	2.39
476.653	2.32
476.855	2.3
477.057	2.28
477.258	2.32
477.46	2.33
477.662	2.34
477.864	2.37
478.066	2.19
478.268	2.16
478.469	2.12
478.671	2.08
478.873	2.04
479.075	2.16
479.276	2.17
479.478	2.09
479.68	2.15
479.882	2.18
480.083	2.18
480.285	2.29
480.487	2.32
480.688	2.33
480.89	2.39
481.091	2.43
481.293	2.38
481.495	2.36
481.696	2.38
481.898	2.37
482.099	2.38
482.301	2.39
482.502	2.35
482.704	2.35
482.905	2.35
483.107	2.32
483.308	2.3
483.51	2.31
483.711	2.33
483.913	2.31
484.114	2.3
484.315	2.26
484.517	2.24
484.718	2.29
484.92	2.25
485.121	2.24
485.322	2.27
485.524	2.28
485.725	2.3
485.926	2.28
486.127	2.3
486.329	2.31
486.53	2.32
486.731	2.32
486.932	2.31
487.134	2.33
487.335	2.35
487.536	2.35
487.737	2.39
487.938	2.34
488.139	2.41
488.341	2.41
488.542	2.42
488.743	2.42
488.944	2.45
489.145	2.42
489.346	2.42
489.547	2.42
489.748	2.42
489.949	2.4
490.15	2.46
490.351	2.45
490.552	2.47
490.753	2.42
490.954	2.45
491.155	2.46
491.356	2.47
491.557	2.48
491.758	2.48
491.959	2.49
492.159	2.45
492.36	2.42
492.561	2.35
492.762	2.35
492.963	2.39
493.164	2.35
493.364	2.32
493.565	2.35
493.766	2.4
493.967	2.39
494.167	2.38
494.368	2.44
494.569	2.46
494.769	2.49
494.97	2.46
495.171	2.48
495.371	2.53
495.572	2.54
495.773	2.51
495.973	2.47
496.174	2.44
496.375	2.47
496.575	2.47
496.776	2.49
496.976	2.47
497.177	2.49
497.377	2.5
497.578	2.42
497.778	2.36
497.979	2.5
498.179	2.52
498.38	2.53
498.58	2.48
498.78	2.5
498.981	2.56
499.181	2.62
499.382	2.57
499.582	2.63
499.782	2.68
499.983	2.78
500.183	2.7
500.383	2.73
500.584	2.77
500.784	2.84
500.984	2.81
501.184	2.82
501.385	2.81
501.585	2.84
501.785	2.72
501.985	2.66
502.185	2.64
502.386	2.63
502.586	2.64
502.786	2.67
502.986	2.7
503.186	2.77
503.386	2.75
503.586	2.72
503.786	2.79
503.987	2.86
504.187	2.94
504.387	2.92
504.587	2.87
504.787	2.88
504.987	2.79
505.187	2.77
505.387	2.69
505.587	2.6
505.786	2.67
505.986	2.61
506.186	2.58
506.386	2.63
506.586	2.64
506.786	2.69
506.986	2.67
507.186	2.77
507.386	2.79
507.585	2.84
507.785	2.94
507.985	2.93
508.185	2.97
508.384	2.99
508.584	2.93
508.784	2.96
508.984	2.92
509.183	2.99
509.383	2.94
509.583	2.95
509.782	2.98
509.982	2.94
510.182	2.87
510.381	2.87
510.581	2.85
510.781	2.91
510.98	2.99
511.18	3.04
511.379	2.98
511.579	2.99
511.778	2.91
511.978	2.89
512.177	2.89
512.377	3.01
512.576	2.95
512.776	3
512.975	2.94
513.175	2.91
513.374	2.87
513.573	2.98
513.773	3
513.972	3.03
514.172	3.05
514.371	3.09
514.57	3.05
514.77	3.12
514.969	3.07
515.168	3.09
515.367	3.11
515.567	3.15
515.766	3.12
515.965	3.11
516.164	3.06
516.364	3.11
516.563	3.13
516.762	3.16
516.961	3.16
517.16	3.27
517.359	3.28
517.559	3.23
517.758	3.22
517.957	3.2
518.156	3.23
518.355	3.28
518.554	3.2
518.753	3.19
518.952	3.15
519.151	3.17
519.35	3.08
519.549	3.12
519.748	3.1
519.947	3.17
520.146	3.25
520.345	3.25
520.544	3.31
520.743	3.37
520.942	3.42
521.141	3.53
521.339	3.58
521.538	3.63
521.737	3.59
521.936	3.6
522.135	3.48
522.333	3.41
522.532	3.5
522.731	3.49
522.93	3.53
523.129	3.51
523.327	3.51
523.526	3.5
523.725	3.54
523.923	3.61
524.122	3.7
524.321	3.79
524.519	3.86
524.718	3.8
524.917	3.88
525.115	3.89
525.314	3.91
525.512	3.9
525.711	3.89
525.909	3.87
526.108	3.86
526.306	3.84
526.505	3.82
526.703	3.82
526.902	3.82
527.1	3.81
527.299	3.79
527.497	3.82
527.696	3.82
527.894	3.85
528.092	3.86
528.291	3.9
528.489	3.89
528.688	3.94
528.886	3.91
529.084	3.95
529.283	3.93
529.481	3.98
529.679	3.95
529.877	3.96
530.076	3.97
530.274	3.95
530.472	3.95
530.67	4.01
530.869	3.98
531.067	3.99
531.265	3.99
531.463	4.03
531.661	4.01
531.859	4.04
532.057	4.08
532.255	4.09
532.454	4.16
532.652	4.13
532.85	4.13
533.048	4.21
533.246	4.24
533.444	4.26
533.642	4.3
533.84	4.35
534.038	4.38
534.236	4.41
534.434	4.42
534.632	4.45
534.83	4.47
535.027	4.46
535.225	4.42
535.423	4.46
535.621	4.53
535.819	4.5
536.017	4.49
536.215	4.52
536.412	4.49
536.61	4.51
536.808	4.49
537.006	4.53
537.203	4.58
537.401	4.56
537.599	4.54
537.797	4.5
537.994	4.52
538.192	4.55
538.39	4.56
538.587	4.67
538.785	4.73
538.983	4.76
539.18	4.83
539.378	4.78
539.575	4.85
539.773	4.9
539.97	4.92
540.168	4.99
540.366	5.04
540.563	5.08
540.761	5.04
540.958	5.07
541.155	5.07
541.353	5.09
541.55	5.17
541.748	5.2
541.945	5.23
542.143	5.25
542.34	5.21
542.537	5.18
542.735	5.2
542.932	5.24
543.129	5.26
543.327	5.34
543.524	5.37
543.721	5.38
543.919	5.41
544.116	5.46
544.313	5.52
544.51	5.58
544.708	5.62
544.905	5.63
545.102	5.72
545.299	5.73
545.496	5.73
545.693	5.75
545.891	5.81
546.088	5.87
546.285	5.83
546.482	5.86
546.679	5.87
546.876	5.92
547.073	5.98
547.27	5.89
547.467	5.86
547.664	5.94
547.861	6.02
548.058	6.02
548.255	6
548.452	6.18
548.649	6.2
548.846	6.27
549.043	6.31
549.24	6.4
549.437	6.41
549.633	6.52
549.83	6.47
550.027	6.48
550.224	6.6
550.421	6.66
550.618	6.64
550.814	6.71
551.011	6.71
551.208	6.72
551.405	6.67
551.601	6.75
551.798	6.8
551.995	6.87
552.191	6.85
552.388	6.9
552.585	6.97
552.781	6.95
552.978	7.01
553.175	7.07
553.371	7.22
553.568	7.26
553.764	7.35
553.961	7.38
554.157	7.4
554.354	7.53
554.55	7.66
554.747	7.72
554.943	7.91
555.14	8.01
555.336	8.18
555.533	8.23
555.729	8.4
555.926	8.49
556.122	8.54
556.318	8.67
556.515	8.74
556.711	8.49
556.907	8.47
557.104	8.38
557.3	8.44
557.496	8.52
557.693	8.54
557.889	8.52
558.085	8.61
558.281	8.72
558.478	8.87
558.674	8.79
558.87	9.05
559.066	9.03
559.262	9.18
559.459	9.11
559.655	9.11
559.851	9.05
560.047	9.09
560.243	9.17
560.439	9.14
560.635	9.07
560.831	9.21
561.027	9.2
561.223	9.29
561.419	9.31
561.615	9.48
561.811	9.45
562.007	9.62
562.203	9.64
562.399	9.71
562.595	9.81
562.791	9.9
562.987	10.07
563.183	10.14
563.379	10.32
563.575	10.47
563.771	10.36
563.966	10.46
564.162	10.49
564.358	10.53
564.554	10.56
564.75	10.64
564.945	10.71
565.141	10.67
565.337	10.67
565.533	10.68
565.728	10.71
565.924	10.82
566.12	10.85
566.315	10.91
566.511	11.08
566.707	11.16
566.902	11.32
567.098	11.38
567.293	11.45
567.489	11.46
567.684	11.55
567.88	11.56
568.076	11.67
568.271	11.76
568.467	11.91
568.662	12.1
568.858	12.07
569.053	12.03
569.248	12.1
569.444	12.2
569.639	12.27
569.835	12.36
570.03	12.51
570.225	12.56
570.421	12.61
570.616	12.46
570.812	12.38
571.007	12.41
571.202	12.52
571.397	12.58
571.593	12.7
571.788	12.91
571.983	12.9
572.178	12.91
572.374	13.01
572.569	13.11
572.764	13.32
572.959	13.5
573.154	13.61
573.35	13.6
573.545	13.63
573.74	13.61
573.935	13.62
574.13	13.66
574.325	13.79
574.52	13.86
574.715	13.91
574.91	13.88
575.105	13.83
575.3	13.93
575.495	13.93
575.69	13.94
575.885	14.03
576.08	14.08
576.275	14.28
576.47	14.23
576.665	14.32
576.86	14.37
577.055	14.58
577.25	14.53
577.444	14.65
577.639	14.79
577.834	14.99
578.029	15.1
578.224	15.18
578.418	15.13
578.613	15.21
578.808	15.26
579.003	15.37
579.197	15.34
579.392	15.45
579.587	15.52
579.781	15.59
579.976	15.54
580.171	15.5
580.365	15.64
580.56	15.81
580.755	15.86
580.949	15.81
581.144	15.92
581.338	16.11
581.533	16.27
581.727	16.26
581.922	16.3
582.116	16.49
582.311	16.55
582.505	16.57
582.7	16.7
582.894	16.75
583.089	16.79
583.283	16.62
583.478	16.68
583.672	16.81
583.866	16.86
584.061	17.03
584.255	17.09
584.449	17.07
584.644	17.21
584.838	17.03
585.032	17.13
585.226	17.12
585.421	17.07
585.615	17.06
585.809	16.88
586.003	17.14
586.198	17.2
586.392	17.23
586.586	17.43
586.78	17.29
586.974	17.38
587.168	17.42
587.363	17.67
587.557	17.88
587.751	17.91
587.945	18.14
588.139	18.06
588.333	18.03
588.527	18.03
588.721	18.08
588.915	18.14
589.109	18.38
589.303	18.34
589.497	18.25
589.691	18.31
589.885	18.4
590.079	18.29
590.273	18.31
590.466	18.28
590.66	18.23
590.854	18.17
591.048	18.24
591.242	18.1
591.436	18.15
591.629	18.19
591.823	18.2
592.017	18.14
592.211	18.23
592.404	18.22
592.598	18.34
592.792	18.43
592.986	18.51
593.179	18.46
593.373	18.5
593.567	18.57
593.76	18.57
593.954	18.66
594.147	18.78
594.341	18.84
594.535	18.82
594.728	18.82
594.922	18.78
595.115	18.79
595.309	18.82
595.502	18.82
595.696	18.93
595.889	19.02
596.083	19.05
596.276	18.99
596.47	19
596.663	19.07
596.856	19.1
597.05	19.15
597.243	19.1
597.437	19.28
597.63	19.32
597.823	19.18
598.017	19.24
598.21	19.17
598.403	19.25
598.596	19.25
598.79	19.32
598.983	19.32
599.176	19.39
599.369	19.61
599.563	19.52
599.756	19.68
599.949	19.83
600.142	19.86
600.335	19.95
600.528	19.97
600.722	20.05
600.915	20.05
601.108	20.15
601.301	20.24
601.494	20.16
601.687	20.27
601.88	20.13
602.073	20.2
602.266	20.26
602.459	20.26
602.652	20.11
602.845	20.14
603.038	20.17
603.231	20.25
603.424	20.19
603.617	20.23
603.809	20.2
604.002	20.24
604.195	20.17
604.388	20.03
604.581	20.16
604.774	20.43
604.966	20.39
605.159	20.52
605.352	20.35
605.545	20.42
605.737	20.32
605.93	20.5
606.123	20.5
606.316	20.63
606.508	20.82
606.701	20.82
606.894	20.72
607.086	20.82
607.279	20.69
607.471	20.8
607.664	20.81
607.857	20.93
608.049	20.76
608.242	20.81
608.434	20.69
608.627	20.62
608.819	20.59
609.012	20.62
609.204	20.53
609.397	20.59
609.589	20.6
609.782	20.61
609.974	20.66
610.166	20.74
610.359	20.86
610.551	20.92
610.743	20.97
610.936	21.06
611.128	21.07
611.32	21.15
611.513	21.29
611.705	21.34
611.897	21.4
612.09	21.45
612.282	21.49
612.474	21.45
612.666	21.64
612.858	21.68
613.051	21.59
613.243	21.66
613.435	21.62
613.627	21.45
613.819	21.32
614.011	21.35
614.203	21.28
614.395	21.27
614.588	21.21
614.78	21
614.972	20.96
615.164	20.93
615.356	20.85
615.548	20.89
615.74	20.95
615.932	21.07
616.124	20.92
616.315	20.97
616.507	20.98
616.699	21.03
616.891	21.18
617.083	21.33
617.275	21.34
617.467	21.41
617.659	21.54
617.85	21.52
618.042	21.44
618.234	21.66
618.426	21.64
618.618	21.64
618.809	21.72
619.001	21.68
619.193	21.67
619.384	21.76
619.576	21.78
619.768	21.53
619.959	21.6
620.151	21.52
620.343	21.45
620.534	21.4
620.726	21.39
620.917	21.41
621.109	21.29
621.301	21.16
621.492	21.1
621.684	21.14
621.875	21.32
622.067	21.49
622.258	21.61
622.45	21.66
622.641	21.66
622.832	21.68
623.024	21.58
623.215	21.81
623.407	21.84
623.598	21.9
623.789	21.8
623.981	21.85
624.172	21.55
624.363	21.66
624.555	21.79
624.746	21.8
624.937	21.91
625.129	22.04
625.32	21.99
625.511	22.06
625.702	22.01
625.893	22.02
626.085	22.07
626.276	22.09
626.467	22.1
626.658	21.99
626.849	22.07
627.04	22.06
627.231	22.04
627.422	22
627.614	22.04
627.805	21.93
627.996	21.86
628.187	21.84
628.378	21.86
628.569	21.78
628.76	21.74
628.951	21.69
629.142	21.56
629.332	21.51
629.523	21.6
629.714	21.44
629.905	21.7
630.096	21.99
630.287	21.99
630.478	22.03
630.669	22.03
630.859	21.98
631.05	21.95
631.241	22.14
631.432	22.12
631.623	21.95
631.813	22
632.004	21.96
632.195	21.81
632.385	21.92
632.576	21.82
632.767	21.82
632.957	22.02
633.148	22.18
633.339	22.23
633.529	22.32
633.72	22.67
633.91	22.81
634.101	22.71
634.292	22.76
634.482	22.78
634.673	23.07
634.863	23.22
635.054	23.26
635.244	23.15
635.435	23.02
635.625	23.08
635.815	22.83
636.006	22.83
636.196	23.1
636.387	22.93
636.577	22.81
636.767	22.92
636.958	23.05
637.148	23.02
637.338	23.19
637.529	23.16
637.719	23.04
637.909	23.15
638.099	23.2
638.29	22.95
638.48	23.32
638.67	23.23
638.86	23.07
639.05	22.73
639.241	22.8
639.431	22.69
639.621	22.77
639.811	22.83
640.001	22.8
640.191	22.85
640.381	22.88
640.571	22.79
640.761	22.92
640.951	22.91
641.141	22.97
641.331	22.86
641.521	22.83
641.711	22.57
641.901	22.74
642.091	22.71
642.281	22.72
642.471	22.74
642.661	22.88
642.851	22.88
643.041	22.95
643.231	23
643.42	23
643.61	23.14
643.8	23.47
643.99	23.42
644.18	23.45
644.369	23.45
644.559	23.54
644.749	23.41
644.939	23.31
645.128	23.26
645.318	23.17
645.508	23.34
645.697	23.19
645.887	23.14
646.076	23
646.266	22.9
646.456	22.95
646.645	22.88
646.835	22.79
647.024	22.8
647.214	22.75
647.403	22.99
647.593	22.81
647.782	22.73
647.972	22.57
648.161	22.73
648.351	22.86
648.54	22.6
648.73	22.57
648.919	22.68
649.108	22.81
649.298	22.96
649.487	22.92
649.677	22.93
649.866	23.29
650.055	23.4
650.244	23.36
650.434	23.51
650.623	23.64
650.812	23.85
651.002	23.8
651.191	23.67
651.38	23.79
651.569	23.88
651.758	23.99
651.947	23.86
652.137	24.05
652.326	23.9
652.515	23.78
652.704	23.84
652.893	23.52
653.082	23.38
653.271	23.66
653.46	23.7
653.649	23.72
653.838	23.78
654.027	23.73
654.216	23.81
654.405	23.89
654.594	23.93
654.783	23.94
654.972	24.11
655.161	24.57
655.35	24.56
655.539	24.44
655.728	24.35
655.916	24.32
656.105	24.29
656.294	24.11
656.483	24.01
656.672	24.05
656.86	23.96
657.049	23.96
657.238	23.77
657.427	23.58
657.615	23.59
657.804	23.44
657.993	23.56
658.181	23.56
658.37	23.54
658.559	23.57
658.747	23.54
658.936	23.61
659.125	23.81
659.313	23.8
659.502	23.82
659.69	23.81
659.879	23.94
660.067	23.85
660.256	23.87
660.444	24.01
660.633	24.16
660.821	24.17
661.01	24.42
661.198	24.47
661.387	24.3
661.575	24.27
661.763	24.08
661.952	24.07
662.14	24.02
662.328	24.13
662.517	24.25
662.705	24.02
662.893	24.25
663.082	23.9
663.27	23.62
663.458	23.73
663.646	23.97
663.834	24.08
664.023	24.06
664.211	24.07
664.399	24.11
664.587	23.95
664.775	24.25
664.963	24.02
665.152	24
665.34	24.08
665.528	24.21
665.716	24
665.904	24.12
666.092	24.26
666.28	24.27
666.468	24.05
666.656	24.11
666.844	23.93
667.032	24.06
667.22	24.22
667.408	24.3
667.596	24.12
667.784	24.26
667.971	24.26
668.159	24.11
668.347	24.24
668.535	24.47
668.723	24.54
668.911	24.61
669.098	24.49
669.286	24.43
669.474	24.23
669.662	24.52
669.849	24.61
670.037	24.61
670.225	24.74
670.413	24.32
670.6	24.09
670.788	24.02
670.976	24.14
671.163	24.28
671.351	24.45
671.538	24.59
671.726	24.58
671.913	24.44
672.101	24.45
672.289	24.33
672.476	24.3
672.664	24.59
672.851	24.46
673.039	24.52
673.226	24.53
673.413	24.4
673.601	24.38
673.788	24.49
673.976	24.49
674.163	24.44
674.35	24.61
674.538	24.79
674.725	24.95
674.912	25.01
675.1	24.69
675.287	24.39
675.474	24.27
675.662	24.6
675.849	24.42
676.036	24.73
676.223	24.76
676.411	24.97
676.598	24.97
676.785	24.85
676.972	24.61
677.159	24.92
677.346	24.89
677.533	24.99
677.721	24.64
677.908	24.54
678.095	24.25
678.282	24.5
678.469	24.25
678.656	24.17
678.843	24.13
679.03	24.38
679.217	24.55
679.404	24.86
679.591	24.81
679.778	24.81
679.964	25.04
680.151	25.14
680.338	24.8
680.525	24.81
680.712	24.8
680.899	24.63
681.086	24.52
681.272	24.2
681.459	23.79
681.646	24.1
681.833	24.19
682.02	24.16
682.206	24.02
682.393	24.35
682.58	24.52
682.766	24.67
682.953	24.92
683.14	25.01
683.326	25.08
683.513	25.52
683.7	25.43
683.886	25.52
684.073	25.61
684.259	25.78
684.446	25.84
684.632	25.75
684.819	25.87
685.005	25.61
685.192	25.78
685.378	25.79
685.565	25.65
685.751	25.47
685.938	25.28
686.124	25.11
686.31	24.9
686.497	24.49
686.683	24.43
686.87	24.35
687.056	24.21
687.242	24.19
687.429	24.31
687.615	24.51
687.801	24.59
687.987	25.18
688.174	25.14
688.36	25.4
688.546	25.8
688.732	25.85
688.918	26.12
689.105	26.15
689.291	25.9
689.477	25.69
689.663	25.53
689.849	25.66
690.035	25.05
690.221	25.25
690.407	25.38
690.593	25.31
690.779	25.36
690.965	25.09
691.151	25.68
691.337	25.88
691.523	25.76
691.709	25.95
691.895	26
692.081	26.17
692.267	26.39
692.453	26.3
692.639	26.12
692.825	25.95
693.011	26.01
693.196	25.66
693.382	25.89
693.568	26.11
693.754	26.04
693.94	26.1
694.125	26.11
694.311	25.77
694.497	25.61
694.682	25.68
694.868	25.95
695.054	26.08
695.239	26.42
695.425	26.29
695.611	26.65
695.796	26.33
695.982	26.27
696.168	25.91
696.353	25.71
696.539	25.84
696.724	25.53
696.91	25.48
697.095	25.62
697.281	25.46
697.466	25.39
697.652	25.25
697.837	25.68
698.023	25.54
698.208	25.86
698.393	26.05
698.579	26.1
698.764	26.48
698.949	26.5
699.135	26.42
699.32	26.32
699.505	26.35
699.691	26.29
699.876	25.84
700.061	25.87
700.246	25.72
700.432	25.93
700.617	25.79
700.802	25.52
700.987	25.48
701.172	25.21
701.358	25.26
701.543	25.55
701.728	25.54
701.913	25.65
702.098	25.57
702.283	25.78
702.468	25.02
702.653	24.96
702.838	25.4
703.023	25.58
703.208	25.68
703.393	25.99
703.578	25.23
703.763	25.12
703.948	25.07
704.133	25.08
704.318	24.7
704.503	24.98
704.688	25.06
704.873	24.74
705.057	24.59
705.242	24.94
705.427	24.55
705.612	25.2
705.797	25.33
705.981	25.59
706.166	25.81
706.351	26.22
706.536	26.35
706.72	26.23
706.905	26.22
707.09	26.04
707.274	25.73
707.459	25.93
707.644	25.66
707.828	25.8
708.013	25.74
708.197	25.58
708.382	25.81
708.567	25.89
708.751	25.74
708.936	25.94
709.12	26.02
709.305	25.86
709.489	25.92
709.673	25.98
709.858	25.89
710.042	25.71
710.227	25.79
710.411	24.99
710.596	25.15
710.78	25.34
710.964	25.19
711.149	25.32
711.333	25.31
711.517	25.1
711.702	25.16
711.886	25.14
712.07	25.42
712.254	25.52
712.438	25.59
712.623	25.75
712.807	25.69
712.991	25.3
713.175	24.92
713.359	24.98
713.544	24.96
713.728	24.8
713.912	24.55
714.096	24.58
714.28	24.5
714.464	24.8
714.648	24.73
714.832	24.63
715.016	24.83
715.2	24.99
715.384	25.21
715.568	25.37
715.752	25.36
715.936	25.67
716.12	25.4
716.304	25.32
716.488	25.38
716.671	24.9
716.855	25.16
717.039	25.43
717.223	25.63
717.407	25.35
717.59	25.57
717.774	25.76
717.958	25.74
718.142	25.78
718.325	25.96
718.509	25.59
718.693	25.78
718.877	25.89
719.06	26.41
719.244	26.62
719.428	26.65
719.611	26.86
719.795	26.83
719.978	26.59
720.162	26.56
720.345	26.17
720.529	26.38
720.713	26.6
720.896	26.69
721.08	25.83
721.263	25.38
721.446	25.64
721.63	24.87
721.813	24.75
721.997	25.27
722.18	25.35
722.364	25.68
722.547	25.63
722.73	25.42
722.914	25.49
723.097	26.13
723.28	26.53
723.464	26.52
723.647	26.79
723.83	27.02
724.013	27.42
724.197	27.14
724.38	26.7
724.563	26.61
724.746	26.57
724.929	26.29
725.112	25.84
725.296	25.49
725.479	25.44
725.662	25.35
725.845	25.21
726.028	24.51
726.211	24.83
726.394	24.97
726.577	25.15
726.76	24.93
726.943	25.43
727.126	25.43
727.309	25.81
727.492	25.43
727.675	25.72
727.858	25.41
728.041	25.58
728.224	25.45
728.407	25.44
728.589	25.72
728.772	26.15
728.955	25.97
729.138	26.16
729.321	25.9
729.503	26.49
729.686	26.38
729.869	26.7
730.052	26.36
730.234	26.54
730.417	26.81
730.6	26.52
730.782	26.3
730.965	25.82
731.148	25.82
731.33	26.25
731.513	26.27
731.695	26.03
731.878	26.07
732.061	25.99
732.243	26.14
732.426	25.98
732.608	26.18
732.791	26.15
732.973	26.34
733.156	25.99
733.338	25.75
733.52	25.66
733.703	25.77
733.885	25.52
734.068	25.67
734.25	25.51
734.432	25.49
734.615	25.21
734.797	25.02
734.979	24.67
735.162	24.7
735.344	24.58
735.526	24.21
735.708	24.44
735.891	24.47
736.073	24.17
736.255	23.84
736.437	23.91
736.619	24.08
736.802	24.8
736.984	25.07
737.166	25.39
737.348	25.64
737.53	26.12
737.712	25.9
737.894	26.13
738.076	26.91
738.258	27.39
738.44	26.89
738.622	27.53
738.804	27.14
738.986	27.27
739.168	26.85
739.35	26.46
739.532	25.63
739.714	25.62
739.896	25.12
740.078	24.97
740.259	24.27
740.441	24.96
740.623	24.68
740.805	24.38
740.987	23.96
741.168	24.7
741.35	24.6
741.532	24.93
741.714	25.24
741.895	25.36
742.077	25.62
742.259	26.4
742.44	26.21
742.622	25.9
742.804	26.17
742.985	27.41
743.167	27.08
743.348	27.62
743.53	28.24
743.711	28.33
743.893	29.14
744.075	28.67
744.256	27.95
744.438	28.19
744.619	27.46
744.8	27.37
744.982	26.52
745.163	26.25
745.345	26.34
745.526	26.04
745.707	25.57
745.889	25.47
746.07	25.53
746.252	25.87
746.433	26
746.614	26.24
746.795	26.59
746.977	26.22
747.158	27.21
747.339	26.96
747.52	27.43
747.702	27.33
747.883	26.53
748.064	26.81
748.245	26.79
748.426	26.05
748.607	26.38
748.788	25.48
748.97	25.19
749.151	24.4
749.332	24.37
749.513	23.43
749.694	23.09
749.875	23.63
750.056	23.51
750.237	23.49
750.418	24.13
750.599	23.99
750.78	25.11
750.96	25.64
751.141	25.81
751.322	25.09
751.503	25.75
751.684	26.28
751.865	25.92
752.046	25.35
752.226	25.49
752.407	26
752.588	26.11
752.769	25.55
752.949	25.7
753.13	25.63
753.311	26.41
753.492	25.91
753.672	25.72
753.853	26.05
754.034	26.93
754.214	26.6
754.395	25.97
754.575	26.63
754.756	26.15
754.937	26.33
755.117	26.28
755.298	25.93
755.478	25.83
755.659	26.09
755.839	25.84
756.02	25.22
756.2	25.23
756.381	24.77
756.561	24.13
756.741	25.02
756.922	24.93
757.102	24.84
757.283	25.61
757.463	26.55
757.643	26.23
757.823	26.65
758.004	27.09
758.184	27.57
758.364	27.87
758.545	27.75
758.725	27.54
758.905	27.7
759.085	27.25
759.265	26.87
759.446	26.2
759.626	26.19
759.806	26.66
759.986	26.68
760.166	26.25
760.346	26.72
760.526	27.46
760.706	27.55
760.886	27.09
761.066	27.46
761.246	27.31
761.426	27.06
761.606	27.15
761.786	26.39
761.966	25.88
762.146	26.72
762.326	26.57
762.506	26.48
762.686	26.52
762.866	26.86
763.046	26.89
763.225	26.91
763.405	27.25
763.585	27.4
763.765	27.92
763.945	27.89
764.124	27.13
764.304	27.23
764.484	27.41
764.664	26.94
764.843	26.68
765.023	26.62
765.203	26.2
765.382	25.96
765.562	25.65
765.741	24.84
765.921	24.84
766.101	25.36
766.28	24.7
766.46	23.9
766.639	24.08
766.819	24.23
766.998	24.26
767.178	24.41
767.357	24.65
767.537	25.15
767.716	25.18
767.896	25.44
768.075	24.94
768.254	24.99
768.434	25.25
768.613	26
768.792	26.38
768.972	26.01
769.151	25.95
769.33	25.88
769.51	26.25
769.689	26.6
769.868	26.84
770.047	26.86
770.226	26.94
770.406	26.83
770.585	26.33
770.764	25.66
770.943	25.86
771.122	26.54
771.301	26.57
771.48	25.91
771.66	26.03
771.839	25.05
772.018	25.1
772.197	25.26
772.376	24.87
772.555	24.42
772.734	24.9
772.913	24.81
773.092	24.5
773.271	24.17
773.449	23.5
773.628	23.58
773.807	24.1
773.986	24.05
774.165	23.34
774.344	24.37
774.523	25.74
774.701	25.64
774.88	25.4
775.059	24.79
775.238	25.16
775.417	26.3
775.595	25.82
775.774	25.8
775.953	26.36
776.131	27.85
776.31	26.64
776.489	25.07
776.667	24.8
776.846	25.33
777.025	25.58
777.203	25.39
777.382	24.28
777.56	24.55
777.739	24.43
777.917	24.78
778.096	25
778.274	25.24
778.453	25.6
778.631	25.49
778.81	24.93
778.988	25.83
779.166	25.42
779.345	25.71
779.523	25.95
779.702	26.12
779.88	25.38
780.058	25.16
780.237	26.07
780.415	26.53
780.593	26.68
780.771	27.25
780.95	26.92
781.128	27.83
781.306	27.93
781.484	27.62
781.662	27.09
781.841	26.91
782.019	26.29
782.197	25.13
782.375	25.32
782.553	25.02
782.731	25.04
782.909	24.4
783.087	24.69
783.265	25.09
783.443	25.76
783.621	26.17
783.799	26.1
783.977	26.09
784.155	26.32
784.333	25.56
784.511	25.94
784.689	25.12
784.867	25.57
785.045	25.04
785.223	25.2
785.4	25.46
785.578	25.38
785.756	26.15
785.934	26.14
786.112	26.38
786.289	26.38
786.467	26.03
786.645	27.45
786.823	26.73
787	26.8
787.178	26.49
787.356	25.39
787.533	24.99
787.711	25.48
787.889	25.31
788.066	25.52
788.244	25.72
788.421	26.49
788.599	25.58
788.776	26.14
788.954	24.98
789.131	25.57
789.309	26.24
789.486	26.5
789.664	25.73
789.841	26.52
790.019	26.77
790.196	26.51
790.373	25.63
790.551	26.66
790.728	26.39
790.906	28.84
791.083	28.3
791.26	28.02
791.437	27.7
791.615	28.35
791.792	26.63
791.969	25.95
792.146	25.71
792.324	25.82
792.501	25.3
792.678	25.81
792.855	24.61
793.032	23.3
793.209	23.92
793.387	24.16
793.564	24.16
793.741	25.72
793.918	26.88
794.095	27.5
794.272	28.14
794.449	28.44
794.626	28.09
794.803	27.46
794.98	29.17
795.157	27.71
795.334	27.59
795.511	26.46
795.688	24.83
795.864	24.07
796.041	24.28
796.218	23.92
796.395	23.38
796.572	22.99
796.749	22.49
796.925	22.37
797.102	23.68
797.279	23.36
797.456	23.91
797.632	25.13
797.809	24.79
797.986	24.52
798.162	23.89
798.339	23.43
798.516	25
798.692	26.1
798.869	25.48
799.046	24.49
799.222	25.35
799.399	26.22
799.575	26.6
799.752	27.65
799.928	28.03
800.105	28.12
800.281	28.08
800.458	27.5
800.634	27.63
800.811	27.37
800.987	27.5
801.163	27.43
801.34	25.89
801.516	26.19
801.692	26.28
801.869	25.77
802.045	28.02
802.221	28.81
802.398	28.32
802.574	26.5
802.75	26.3
802.926	27.23
803.103	27.95
803.279	29.09
803.455	28.45
803.631	27.96
803.807	29.3
803.983	27.7
804.16	27.07
804.336	27.48
804.512	29.39
804.688	29.55
804.864	28.66
805.04	27.7
805.216	26.89
805.392	26.16
805.568	26.23
805.744	25.58
805.92	25.5
806.096	25.87
806.272	25.28
806.448	25.42
806.623	25.76
806.799	26.23
806.975	27.19
807.151	28.04
807.327	26.93
807.503	27.39
807.678	27.96
807.854	28.78
808.03	28.23
808.206	28.84
808.381	27.48
808.557	27.67
808.733	26.15
808.908	24.46
809.084	23.71
809.26	25.39
809.435	24.3
809.611	22.89
809.787	22.28
809.962	22.32
810.138	21.69
810.313	22.23
810.489	21.14
810.664	22.65
810.84	24.04
811.015	24.16
811.191	24.79
811.366	25.55
811.542	24.61
811.717	24.27
811.892	25.49
812.068	25.71
812.243	26.46
812.419	27.48
812.594	27.68
812.769	27.93
812.944	28.51
813.12	26.88
813.295	26.81
813.47	27.18
813.645	26.97
813.821	26.21
813.996	26.17
814.171	26.25
814.346	23.76
814.521	22.83
814.697	22.69
814.872	22.28
815.047	23.8
815.222	24.09
815.397	24.11
815.572	24.9
815.747	26.35
815.922	25.52
816.097	25.32
816.272	28.54
816.447	29.64
816.622	29.79
816.797	30.52
816.972	29.78
817.147	28.99
817.322	29.2
817.496	28.75
817.671	27.61
817.846	27.34
818.021	27.04
818.196	24.98
818.371	24.95
818.545	24.85
818.72	25
818.895	25.64
819.069	26.28
819.244	26.6
819.419	26.44
819.594	25.85
819.768	26.24
819.943	26.41
820.117	27.28
820.292	27.01
820.467	27.02
820.641	26.04
820.816	26.18
820.99	26.01
821.165	26.29
821.339	26.42
821.514	26.83
821.688	27.25
821.863	26.91
822.037	26.89
822.212	27.07
822.386	27.06
822.56	27.36
822.735	27.32
822.909	27.59
823.084	27.44
823.258	27.2
823.432	26.95
823.606	26.53
823.781	26.66
823.955	26.74
824.129	26.64
824.303	27.01
824.478	26.88
824.652	26.65
824.826	26.3
825	26.46
825.174	26.54
825.348	26.47
825.523	26.72
825.697	26.67
825.871	26.32
826.045	26.02
826.219	26.04
826.393	26.1
826.567	26.51
826.741	26.61
826.915	26.63
827.089	26.96
827.263	27.11
827.437	26.97
827.611	27.4
827.784	27.68
827.958	27.85
828.132	27.38
828.306	27.57
828.48	27.09
828.654	26.84
828.827	26.83
829.001	26.89
829.175	27.41
829.349	27.62
829.522	26.41
829.696	25.99
829.87	26.35
830.044	25.53
830.217	25.63
830.391	25.41
830.565	26.34
830.738	26.52
830.912	24.75
831.085	24.06
831.259	24.54
831.432	26.44
831.606	27.61
831.779	26.91
831.953	27.42
832.126	27.47
832.3	26.68
832.473	25.76
832.647	25.2
832.82	26.85
832.994	26.44
833.167	26.05
833.34	26.12
833.514	25.32
833.687	25.19
833.86	24.98
834.034	24.29
834.207	25.09
834.38	24.54
834.553	25.16
834.727	24.37
834.9	25.02
835.073	24.53
835.246	23.66
835.419	23.58
835.593	23.57
835.766	23.18
835.939	23.41
836.112	23.28
836.285	24.6
836.458	23
836.631	22.94
836.804	22.27
836.977	22.79
837.15	22.37
837.323	23.39
837.496	23.18
837.669	24.12
837.842	24.49
838.015	24.14
838.188	23.14
838.361	24.42
838.533	24.89
838.706	25.06
838.879	24.64
839.052	25.08
839.225	23.56
839.398	25.05
839.57	24.59
839.743	23.46
839.916	24.39
840.088	23.89
840.261	23.59
840.434	24.97
840.607	25.05
840.779	24.72
840.952	24.97
841.124	26.08
841.297	25.89
841.47	25.72
841.642	25.16
841.815	22.77
841.987	23.21
842.16	22.78
842.332	20.36
842.505	20.52
842.677	20.02
842.85	22.1
843.022	19.55
843.194	17.97
843.367	18.86
843.539	21.03
843.712	23.47
843.884	23.76
844.056	24.68
844.229	23.79
844.401	24.36
844.573	25.28
844.745	19.63
844.918	22.59
845.09	23.43
845.262	22.13
845.434	21.79
845.606	21.13
845.779	20.31
845.951	16.68
846.123	20.68
846.295	20.03
846.467	19.81
846.639	22.44
846.811	20.75
846.983	18.65
847.155	21.52
847.327	21.36
847.499	20.74
847.671	17.72
847.843	19.39
848.015	16.89
848.187	15.22
848.359	15.31
848.531	18.57
848.703	21.76
848.875	22.03
849.047	19.62
849.218	17.94
849.39	19.92
849.562	22.81
849.734	25.79
849.905	29.24
850.077	30.38
850.249	31.28
850.421	30.79
850.592	28.73
850.764	29.7
850.936	27.88
851.107	28.44
851.279	27.87
851.451	27.95
851.622	20.81
851.794	15.1
851.965	18.2
852.137	16.2
852.308	13.24
852.48	12.85
852.651	15.49
852.823	17.95
852.994	20.21
853.166	17.21
853.337	18.09
853.509	24.85
853.68	26.57
853.851	20.82
854.023	20.52
854.194	23.05
854.365	26.77
854.537	21.21
854.708	18.16
854.879	21.74
855.05	24
855.222	21.58
855.393	22.52
855.564	24.48
855.735	25.84
855.906	31.25
856.078	30.01
856.249	29.15
856.42	30.7
856.591	33.37
856.762	26.92
856.933	27.52
857.104	30.05
857.275	26.29
857.446	25.4
857.617	28.52
857.788	24.72
857.959	25.28
858.13	28.73
858.301	28.51
858.472	25.65
858.643	26.66
858.814	25.8
858.985	26.3
859.155	32.57
859.326	31.65
859.497	29.69
859.668	27.33
859.839	27.51
860.009	21.54
860.18	24.16
860.351	27.81
860.522	28.4
860.692	27.21
860.863	26.62
861.034	24.34
861.204	28.65
861.375	25.11
861.546	27.01
861.716	24.36
861.887	23.27
862.057	21.39
862.228	21.21
862.398	19.42
862.569	16.04
862.739	14.56
862.91	12.68
863.08	12.48
863.251	13.61
863.421	12.66
863.592	14.02
863.762	17.87
863.932	18.78
864.103	19.58
864.273	22.02
864.443	27.45
864.614	26
864.784	23.58
864.954	19.67
865.125	18.53
865.295	24.07
865.465	25.19
865.635	23.92
865.805	25.39
865.976	24.61
866.146	24.85
866.316	20.05
866.486	19.95
866.656	25.67
866.826	26.52
866.996	30.67
867.166	26.77
867.336	25.9
867.506	24.47
867.676	18.97
867.846	18.1
868.016	19.71
868.186	23.28
868.356	25.4
868.526	26.36
868.696	27.52
868.866	23.56
869.036	24.63
869.206	22.6
869.376	24.2
869.545	29.06
869.715	32.49
869.885	32.57
870.055	32.79
870.224	32.52
870.394	31.39
870.564	30.92
870.734	32.4
870.903	32.33
871.073	35.52
871.243	33.63
871.412	29.1
871.582	26.99
871.751	27.92
871.921	25.2
872.091	23.05
872.26	19.52
872.43	19.36
872.599	21.82
872.769	19.44
872.938	16.89
873.108	18.98
873.277	21.63
873.446	20.23
873.616	18.84
873.785	21.82
873.955	27.64
874.124	29.07
874.293	26.69
874.463	23.51
874.632	25.8
874.801	22.6
874.971	20.94
875.14	21.71
875.309	19.71
875.478	16.84
875.647	12.03
875.817	8.83
875.986	6.91
876.155	8.51
876.324	11.31
876.493	5.42
876.662	14.19
876.831	14.17
877	14.17
877.17	19.2
877.339	22.26
877.508	26.57
877.677	32.12
877.846	32.64
878.015	33.92
878.184	33.8
878.352	34.78
878.521	30.71
878.69	33.56
878.859	34.99
879.028	34.5
879.197	32.66
879.366	33.36
879.534	30.3
879.703	28.02
879.872	26.72
880.041	27.31
880.21	28.55
880.378	28.42
880.547	27.07
880.716	26.32
880.884	25.07
881.053	25.35
881.222	25.13
881.39	25.78
881.559	26.59
881.727	27.23
881.896	26.98
882.065	26.47
882.233	27.07
882.402	26.76
882.57	26.85
882.739	27.15
882.907	27.45
883.076	28.33
883.244	27.25
883.412	27.66
883.581	27.44
883.749	26.94
883.918	26.82
884.086	25.79
884.254	26.01
884.423	26.29
884.591	27.3
884.759	26.46
884.927	25.2
885.096	26.81
885.264	26.91
885.432	26.55
885.6	27.05
885.769	26.47
885.937	26.32
886.105	23.85
886.273	22.13
886.441	19.97
886.609	17.97
886.777	16.81
886.945	13.53
887.113	9.43
887.281	10.2
887.449	9.93
887.617	12.64
887.785	12.79
887.953	15.59
888.121	16.35
888.289	17.1
888.457	21.36
888.625	26.26
888.793	27.98
888.961	31.86
889.129	31.76
889.296	33.2
889.464	32.62
889.632	35.23
889.8	39.18
889.967	40.69
890.135	42.73
