Data from 2938482_Reflection_2.txt Node
Date: Wed Jun 17 01:07:54 EDT 2015
User: robert
Spectrometer: USB4E03002
Autoset integration time: false
Trigger mode: 4
Integration Time (sec): 1.000000E-1
Scans to average: 10
Electric dark correction enabled: true
Nonlinearity correction enabled: false
Boxcar width: 5
Stray light correction enabled: false
XAxis mode: Wavelengths
Stop averaging: false
Number of Pixels in Spectrum: 3648
>>>>>Begin Spectral Data<<<<<
177.575	-543.7
177.794	-69.44
178.014	218.45
178.233	149.18
178.452	-1550
178.672	1924.14
178.891	106.92
179.11	-6.54
179.33	0.33
179.549	-35.29
179.768	94.37
179.987	-104.28
180.207	-72.15
180.426	-80.46
180.645	-140.05
180.864	31.93
181.084	52.3
181.303	-480.42
181.522	-18.98
181.741	-135.12
181.96	-164.51
182.179	-95.29
182.398	-111.6
182.618	358.21
182.837	60.32
183.056	51.49
183.275	154.44
183.494	181.64
183.713	36.86
183.932	-410.39
184.151	24.46
184.37	-16.49
184.589	3.58
184.808	-1.05
185.027	6.72
185.246	-0.67
185.465	20.92
185.684	27.93
185.903	49.26
186.122	54.61
186.341	48.67
186.56	60.23
186.779	70.57
186.998	84.12
187.216	77.86
187.435	22.4
187.654	11.62
187.873	-98.44
188.092	-114.79
188.311	-88.13
188.53	-115.91
188.748	-238.75
188.967	-525.26
189.186	30235
189.405	-331.04
189.623	-110.51
189.842	-142.66
190.061	-470.94
190.28	-111.55
190.498	-92.73
190.717	-67.98
190.936	-120.84
191.154	-67.54
191.373	5.29
191.592	25.35
191.81	38.48
192.029	40.88
192.248	31.73
192.466	55.29
192.685	79.03
192.904	89.37
193.122	74.47
193.341	-62.99
193.559	-81.99
193.778	-151.54
193.996	-189.61
194.215	-563.27
194.433	427.42
194.652	876.8
194.87	-258.49
195.089	-67.74
195.307	-14.04
195.526	8.49
195.744	21.84
195.963	32.27
196.181	14.04
196.399	1
196.618	-16.36
196.836	-70.22
197.055	-513
197.273	-991.66
197.491	1702.98
197.71	331.36
197.928	320.01
198.146	293.14
198.365	311.38
198.583	128.66
198.801	131.12
199.019	177.31
199.238	161.58
199.456	-20.95
199.674	62.98
199.892	20.68
200.111	48.03
200.329	52.6
200.547	67.55
200.765	36.44
200.983	17.07
201.202	20.47
201.42	14.22
201.638	14.8
201.856	30.39
202.074	-2.5
202.292	16.43
202.51	27.44
202.728	15.53
202.946	4.05
203.165	15.65
203.383	41.55
203.601	39.22
203.819	39.49
204.037	37.19
204.255	29.68
204.473	36.14
204.691	39.02
204.909	31.35
205.127	52.65
205.345	65.7
205.562	49.18
205.78	51.8
205.998	35.9
206.216	32.32
206.434	56.02
206.652	73.59
206.87	84.05
207.088	95.87
207.306	116.59
207.523	97.43
207.741	86.3
207.959	102.25
208.177	74.77
208.395	40.67
208.612	46.26
208.83	-606.37
209.048	-5914.29
209.266	1154.36
209.483	-319.25
209.701	-1741.33
209.919	-2593.02
210.136	-1967.76
210.354	-438.13
210.572	-170.17
210.79	-27.45
211.007	-8.37
211.225	26.85
211.442	1.97
211.66	5.48
211.878	4.7
212.095	5.01
212.313	17.58
212.53	32.17
212.748	16.27
212.966	-3.7
213.183	5.9
213.401	-14.7
213.618	-31.15
213.836	-31.22
214.053	-32.24
214.271	-14.02
214.488	2.76
214.705	-13.96
214.923	-23.08
215.14	-34.96
215.358	-29.59
215.575	-37.89
215.793	-27.38
216.01	-31.93
216.227	-13.69
216.445	-21.01
216.662	-23.54
216.879	-16.88
217.097	-16.09
217.314	-23.24
217.531	-3.01
217.749	13.95
217.966	18.53
218.183	19.58
218.4	8.88
218.618	4.19
218.835	8.85
219.052	6.27
219.269	7.01
219.487	7.37
219.704	1.74
219.921	-4.62
220.138	-4.33
220.355	-0.89
220.572	-11.35
220.79	-12.85
221.007	-6.38
221.224	-11.5
221.441	-5.79
221.658	-4.64
221.875	-0.01
222.092	8.27
222.309	11.67
222.526	13.19
222.743	18.38
222.96	23.59
223.177	30.13
223.394	24.85
223.611	25.9
223.828	19.51
224.045	19.84
224.262	18.49
224.479	13.5
224.696	10.12
224.913	4.06
225.13	0.47
225.347	3.07
225.564	2.6
225.781	0.67
225.997	3.02
226.214	6.96
226.431	6.98
226.648	6.76
226.865	7.28
227.082	7.7
227.298	8.56
227.515	7.55
227.732	6.74
227.949	6.41
228.165	8.06
228.382	7.02
228.599	6.52
228.816	6.69
229.032	5.83
229.249	6.03
229.466	6.78
229.682	7.17
229.899	9.67
230.116	10.26
230.332	11.43
230.549	10.91
230.765	11.94
230.982	13.15
231.199	11.67
231.415	13.54
231.632	13.33
231.848	13.86
232.065	13.47
232.281	14.14
232.498	13.69
232.714	11.57
232.931	11.01
233.147	8.69
233.364	7.95
233.58	7.77
233.797	8.96
234.013	9.94
234.23	7.31
234.446	8.52
234.662	6.99
234.879	7.24
235.095	7.08
235.312	7.2
235.528	8.33
235.744	8.76
235.961	10.23
236.177	8.67
236.393	8.83
236.61	8.85
236.826	6.63
237.042	5.44
237.258	4.44
237.475	5.53
237.691	4.97
237.907	5.25
238.123	2.56
238.339	2.23
238.556	1.71
238.772	-0.08
238.988	1.67
239.204	3.69
239.42	4.06
239.636	5.89
239.853	6.08
240.069	6.96
240.285	7.34
240.501	8.45
240.717	8.62
240.933	9.04
241.149	9.01
241.365	9.27
241.581	8.45
241.797	8.95
242.013	8.27
242.229	8.35
242.445	8.42
242.661	7.97
242.877	6.97
243.093	6.45
243.309	6.96
243.525	8.35
243.741	7.61
243.957	8.59
244.173	8.04
244.388	8.46
244.604	8.2
244.82	8.57
245.036	9.29
245.252	9.34
245.468	9.47
245.683	9
245.899	8.59
246.115	8.65
246.331	8.29
246.547	8.31
246.762	8.09
246.978	8.34
247.194	8.12
247.409	7.52
247.625	7.31
247.841	6.94
248.057	6.67
248.272	6.71
248.488	6.26
248.703	5.93
248.919	5.04
249.135	4.73
249.35	3.92
249.566	3.15
249.782	3.69
249.997	4.18
250.213	3.95
250.428	4.11
250.644	4.05
250.859	4.13
251.075	4.55
251.29	4.83
251.506	5.39
251.721	5.75
251.937	6.7
252.152	6
252.368	6.17
252.583	6.55
252.798	6.42
253.014	6.56
253.229	6.73
253.445	6.7
253.66	7.92
253.875	7.58
254.091	7.48
254.306	6
254.521	5.61
254.737	4.69
254.952	4.84
255.167	5.09
255.383	5.17
255.598	4.9
255.813	4.47
256.028	3.6
256.244	3.83
256.459	4.33
256.674	4.86
256.889	5.33
257.104	6.42
257.32	6.13
257.535	6.05
257.75	5.95
257.965	6.23
258.18	6.28
258.395	6.48
258.61	6.17
258.826	6.1
259.041	5.96
259.256	5.88
259.471	5.73
259.686	6.09
259.901	6.03
260.116	5.93
260.331	5.97
260.546	6.26
260.761	6.44
260.976	6.74
261.191	6.08
261.406	5.93
261.621	5.92
261.836	4.96
262.05	5.04
262.265	5.61
262.48	6.22
262.695	5.99
262.91	5.06
263.125	4.47
263.34	4.52
263.555	5.94
263.769	6.59
263.984	6.68
264.199	6.95
264.414	6.26
264.629	5.61
264.843	5.05
265.058	5.14
265.273	5.56
265.488	5.53
265.702	5.19
265.917	4.38
266.132	4.14
266.346	3.84
266.561	3.85
266.776	3.9
266.99	4.21
267.205	4.56
267.42	4.82
267.634	5.12
267.849	5.37
268.063	5.96
268.278	5.98
268.492	5.96
268.707	6.37
268.922	6.61
269.136	6.47
269.351	5.91
269.565	5.66
269.78	4.98
269.994	4.59
270.209	4.9
270.423	4.61
270.637	4.75
270.852	4.52
271.066	4.57
271.281	4.52
271.495	5.11
271.709	5.36
271.924	5.15
272.138	5.68
272.353	6.07
272.567	5.61
272.781	5.67
272.996	5.65
273.21	6.31
273.424	5.74
273.638	5.6
273.853	5.03
274.067	5.06
274.281	5.16
274.495	4.78
274.71	4.5
274.924	4.5
275.138	4.54
275.352	4.74
275.566	3.99
275.781	4.22
275.995	4.17
276.209	4.38
276.423	4.52
276.637	4.92
276.851	5.31
277.065	5.43
277.279	5.75
277.493	5.46
277.707	4.89
277.921	4.93
278.135	4.77
278.349	4.51
278.563	4.72
278.777	4.52
278.991	3.93
279.205	3.31
279.419	3.05
279.633	2.42
279.847	2.51
280.061	2.95
280.275	2.99
280.489	3.62
280.703	4.19
280.917	3.92
281.131	4.31
281.344	4.9
281.558	5.04
281.772	5.35
281.986	5.55
282.2	5.65
282.414	5.92
282.627	6.32
282.841	6.13
283.055	6.03
283.269	5.92
283.482	5.96
283.696	5.38
283.91	5.6
284.123	5.51
284.337	5.87
284.551	5.76
284.764	5.42
284.978	5.34
285.192	4.84
285.405	4.42
285.619	4.58
285.833	4.44
286.046	4.9
286.26	4.55
286.473	4.64
286.687	4.21
286.9	4.43
287.114	4.61
287.327	4.56
287.541	4.86
287.754	5.01
287.968	4.86
288.181	4.65
288.395	4.71
288.608	5.05
288.822	5.02
289.035	5.05
289.248	4.91
289.462	4.87
289.675	4.67
289.889	4.79
290.102	4.9
290.315	4.55
290.529	4.59
290.742	4.23
290.955	3.95
291.169	4.13
291.382	4.07
291.595	3.96
291.808	3.77
292.022	3.7
292.235	3.56
292.448	3.63
292.661	4.02
292.875	3.71
293.088	3.23
293.301	3.96
293.514	4.03
293.727	4.63
293.94	4.93
294.153	5.24
294.367	5.41
294.58	5.5
294.793	5.49
295.006	5.36
295.219	5.8
295.432	6.43
295.645	5.97
295.858	5.91
296.071	5.8
296.284	5.41
296.497	5.34
296.71	5.31
296.923	5.19
297.136	5.48
297.349	5.93
297.562	5.82
297.775	5.52
297.988	5.48
298.201	5.46
298.414	5.41
298.626	5.84
298.839	5.82
299.052	5.6
299.265	5.79
299.478	5.65
299.691	5.29
299.903	5.46
300.116	5.21
300.329	5.33
300.542	5
300.755	4.91
300.967	5.07
301.18	4.59
301.393	4.61
301.605	4.34
301.818	4.08
302.031	3.74
302.243	3.35
302.456	3.8
302.669	3.65
302.881	3.89
303.094	3.85
303.307	3.53
303.519	3.68
303.732	3.55
303.944	3.81
304.157	3.64
304.37	3.48
304.582	4.3
304.795	3.92
305.007	3.96
305.22	3.99
305.432	3.82
305.645	3.9
305.857	3.96
306.069	4.53
306.282	4.44
306.494	4.83
306.707	5.44
306.919	4.66
307.132	5.06
307.344	4.83
307.556	4.41
307.769	4.41
307.981	4.5
308.193	4.55
308.406	4.62
308.618	4.7
308.83	4.66
309.043	4.6
309.255	4.96
309.467	5.03
309.679	5.53
309.892	5.78
310.104	5.91
310.316	5.72
310.528	5.67
310.74	5.88
310.953	6
311.165	5.91
311.377	5.82
311.589	5.45
311.801	4.96
312.013	4.95
312.225	5.07
312.437	4.95
312.649	5.29
312.862	5.55
313.074	4.93
313.286	4.79
313.498	4.69
313.71	4.92
313.922	5.3
314.134	5.82
314.346	5.46
314.558	5.25
314.77	5.56
314.982	5.1
315.193	4.32
315.405	4.32
315.617	4.11
315.829	4.3
316.041	4.09
316.253	3.81
316.465	3.3
316.677	3.53
316.888	3.33
317.1	3.5
317.312	4.21
317.524	5.04
317.736	5.12
317.947	5.79
318.159	5.63
318.371	5.95
318.583	6.19
318.794	5.97
319.006	5.79
319.218	5.99
319.43	5.99
319.641	5.45
319.853	5.33
320.064	5.3
320.276	4.35
320.488	4.45
320.699	4.17
320.911	4
321.123	4.31
321.334	4.48
321.546	4.76
321.757	4.52
321.969	4.68
322.18	4.66
322.392	4.65
322.603	5.09
322.815	5.1
323.026	5.14
323.238	5.43
323.449	5.79
323.661	5.57
323.872	5.05
324.083	5.05
324.295	5.1
324.506	5.72
324.718	6.2
324.929	6.48
325.14	6.64
325.352	6.24
325.563	6.05
325.774	5.94
325.986	5.93
326.197	6.33
326.408	6.39
326.62	6.69
326.831	6.08
327.042	5.81
327.253	5.34
327.464	5.26
327.676	6.06
327.887	5.77
328.098	6.1
328.309	6.46
328.52	6.44
328.732	6.79
328.943	6.66
329.154	6.92
329.365	6.49
329.576	6.94
329.787	7.23
329.998	6.7
330.209	7.38
330.42	7.21
330.631	7.41
330.842	7.05
331.053	6.58
331.264	6.67
331.475	6.84
331.686	7.28
331.897	6.98
332.108	6.45
332.319	6.69
332.53	6.18
332.741	6.45
332.952	6.3
333.163	6.75
333.374	6.98
333.585	6.62
333.795	6.4
334.006	5.97
334.217	6.18
334.428	6.56
334.639	6.35
334.849	6.09
335.06	6.19
335.271	6.35
335.482	6.58
335.692	6.73
335.903	6.59
336.114	6.37
336.325	6.76
336.535	6.54
336.746	6.52
336.957	6.82
337.167	7.34
337.378	6.8
337.589	7.12
337.799	6.53
338.01	6.59
338.22	6.71
338.431	6.73
338.642	6.54
338.852	6.49
339.063	6.3
339.273	6.06
339.484	5.76
339.694	5.78
339.905	5.16
340.115	5.16
340.326	4.83
340.536	5.02
340.746	5
340.957	4.65
341.167	4.76
341.378	4.98
341.588	4.95
341.799	5.09
342.009	5.47
342.219	5.7
342.43	5.73
342.64	5.77
342.85	5.06
343.061	5.27
343.271	5.7
343.481	5.78
343.691	5.6
343.902	5.63
344.112	5.66
344.322	5.2
344.532	4.92
344.743	4.93
344.953	4.43
345.163	4.94
345.373	4.45
345.583	4.45
345.793	4.28
346.004	4.27
346.214	4.45
346.424	4.41
346.634	4.48
346.844	4.74
347.054	4.9
347.264	5.49
347.474	5.24
347.684	5.67
347.894	5.92
348.104	6.09
348.314	5.85
348.524	5.5
348.734	5.4
348.944	5.49
349.154	5.14
349.364	5.33
349.574	5.11
349.784	5.46
349.994	5.33
350.204	5.03
350.413	4.67
350.623	4.41
350.833	4.67
351.043	4.9
351.253	4.4
351.463	4.35
351.672	4.4
351.882	4.35
352.092	4.41
352.302	4.66
352.511	4.46
352.721	4.6
352.931	4.7
353.141	4.56
353.35	4.67
353.56	5.36
353.77	5.77
353.979	5.74
354.189	5.87
354.399	5.65
354.608	5.47
354.818	5.63
355.027	5.5
355.237	5.89
355.447	5.69
355.656	5.6
355.866	5.4
356.075	5.27
356.285	5.16
356.494	5.14
356.704	5.25
356.913	5.32
357.123	5.44
357.332	5.77
357.542	6.01
357.751	6.04
357.96	5.8
358.17	5.86
358.379	6.01
358.589	6.12
358.798	5.9
359.007	5.75
359.217	5.58
359.426	5.35
359.635	5.32
359.845	4.7
360.054	4.73
360.263	4.84
360.472	4.65
360.682	4.39
360.891	4.11
361.1	4.31
361.309	4.47
361.519	4.39
361.728	4.51
361.937	4.46
362.146	4.8
362.355	4.84
362.564	4.73
362.774	4.69
362.983	4.61
363.192	4.53
363.401	4.55
363.61	4.34
363.819	4.56
364.028	4.41
364.237	4.42
364.446	4.51
364.655	4.34
364.864	4.36
365.073	4.51
365.282	4.67
365.491	4.77
365.7	4.48
365.909	4.55
366.118	4.54
366.327	4.51
366.536	4.31
366.745	4.23
366.954	4.15
367.162	4.13
367.371	3.71
367.58	3.44
367.789	3.42
367.998	3.63
368.207	3.51
368.415	3.9
368.624	3.84
368.833	3.9
369.042	3.82
369.25	4.13
369.459	4.19
369.668	4.5
369.877	4.8
370.085	4.84
370.294	4.79
370.503	4.8
370.711	4.26
370.92	4.54
371.129	4.9
371.337	4.91
371.546	4.86
371.754	5.01
371.963	4.92
372.171	4.83
372.38	4.86
372.589	4.96
372.797	5.19
373.006	5.42
373.214	5.17
373.423	4.99
373.631	5.13
373.84	5.2
374.048	4.85
374.256	4.84
374.465	4.79
374.673	4.43
374.882	4.07
375.09	3.93
375.298	3.92
375.507	4.01
375.715	4.01
375.923	3.84
376.132	3.54
376.34	3.75
376.548	3.91
376.757	3.93
376.965	4.26
377.173	4.33
377.381	4.25
377.59	4.2
377.798	4.48
378.006	4.26
378.214	4.45
378.423	4.7
378.631	4.85
378.839	4.84
379.047	4.65
379.255	4.59
379.463	4.52
379.671	4.36
379.879	4.47
380.088	4.13
380.296	4.32
380.504	4.19
380.712	4.12
380.92	3.81
381.128	3.66
381.336	3.78
381.544	3.66
381.752	4.04
381.96	4.31
382.168	4
382.376	4.03
382.584	4.03
382.791	3.72
382.999	3.7
383.207	3.7
383.415	3.72
383.623	3.72
383.831	3.63
384.039	3.51
384.247	3.52
384.454	3.74
384.662	3.94
384.87	3.99
385.078	4.45
385.285	4.61
385.493	4.75
385.701	4.78
385.909	4.7
386.116	4.82
386.324	4.81
386.532	4.8
386.739	4.88
386.947	4.71
387.155	4.48
387.362	4.37
387.57	4.39
387.778	4.3
387.985	4.37
388.193	4.54
388.4	4.76
388.608	4.72
388.816	4.63
389.023	4.73
389.231	4.82
389.438	4.95
389.646	4.8
389.853	4.79
390.061	4.83
390.268	4.77
390.475	4.84
390.683	4.76
390.89	4.75
391.098	4.74
391.305	4.4
391.512	4.32
391.72	4.13
391.927	4.13
392.135	3.85
392.342	3.59
392.549	3.58
392.756	3.49
392.964	3.39
393.171	3.36
393.378	3.37
393.586	3.37
393.793	3.3
394	3.25
394.207	3.23
394.414	3.5
394.622	3.66
394.829	3.6
395.036	3.56
395.243	3.55
395.45	3.6
395.657	3.57
395.864	3.59
396.072	3.69
396.279	3.83
396.486	3.9
396.693	3.81
396.9	3.85
397.107	3.91
397.314	3.78
397.521	3.86
397.728	3.92
397.935	3.95
398.142	3.95
398.349	3.97
398.556	3.98
398.763	3.97
398.97	3.9
399.177	3.83
399.383	3.98
399.59	4.01
399.797	3.83
400.004	3.66
400.211	3.63
400.418	3.59
400.625	3.65
400.831	3.53
401.038	3.47
401.245	3.57
401.452	3.67
401.658	3.57
401.865	3.61
402.072	3.58
402.279	3.76
402.485	3.7
402.692	3.86
402.899	3.81
403.105	3.99
403.312	4.13
403.519	4.06
403.725	4.07
403.932	4.02
404.138	3.96
404.345	4.08
404.552	4.17
404.758	4.19
404.965	4.18
405.171	4.06
405.378	4
405.584	3.92
405.791	3.84
405.997	3.53
406.204	3.64
406.41	3.68
406.617	3.94
406.823	3.68
407.029	3.79
407.236	3.72
407.442	3.76
407.649	3.78
407.855	3.91
408.061	3.85
408.268	4.05
408.474	3.78
408.68	3.81
408.887	3.55
409.093	3.68
409.299	3.8
409.505	3.83
409.712	3.9
409.918	3.73
410.124	3.55
410.33	3.81
410.537	3.76
410.743	3.81
410.949	3.76
411.155	3.75
411.361	3.71
411.567	3.38
411.773	3.27
411.98	3.09
412.186	3.24
412.392	3.34
412.598	3.35
412.804	3.36
413.01	3.48
413.216	3.46
413.422	3.45
413.628	3.3
413.834	3.57
414.04	3.5
414.246	3.69
414.452	3.81
414.658	3.78
414.864	3.78
415.07	3.87
415.275	4.08
415.481	4.04
415.687	4.04
415.893	4.13
416.099	3.95
416.305	3.98
416.511	3.91
416.716	3.78
416.922	3.82
417.128	3.71
417.334	3.66
417.539	3.44
417.745	3.53
417.951	3.55
418.157	3.57
418.362	3.67
418.568	3.67
418.774	3.66
418.979	3.68
419.185	3.61
419.391	3.68
419.596	3.61
419.802	3.61
420.008	3.64
420.213	4.2
420.419	4.19
420.624	4.17
420.83	4.23
421.035	4.22
421.241	4.18
421.446	4.18
421.652	4.07
421.857	4.14
422.063	4.16
422.268	4.03
422.474	3.47
422.679	3.45
422.885	3.39
423.09	3.25
423.295	3.28
423.501	3.29
423.706	3.3
423.911	3.37
424.117	3.33
424.322	3.35
424.527	3.41
424.733	3.42
424.938	3.34
425.143	3.37
425.349	3.48
425.554	3.41
425.759	3.4
425.964	3.44
426.169	3.45
426.375	3.53
426.58	3.5
426.785	3.43
426.99	3.33
427.195	3.41
427.4	3.46
427.605	3.54
427.811	3.71
428.016	3.75
428.221	3.65
428.426	3.61
428.631	3.67
428.836	3.75
429.041	3.72
429.246	3.77
429.451	3.69
429.656	3.68
429.861	3.59
430.066	3.56
430.271	3.56
430.476	3.52
430.681	3.52
430.886	3.44
431.09	3.52
431.295	3.65
431.5	3.68
431.705	3.74
431.91	3.71
432.115	3.78
432.32	3.75
432.524	3.66
432.729	3.6
432.934	3.52
433.139	3.44
433.343	3.37
433.548	3.34
433.753	3.4
433.958	3.39
434.162	3.45
434.367	3.39
434.572	3.31
434.776	3.44
434.981	3.52
435.186	3.54
435.39	3.65
435.595	3.54
435.799	3.58
436.004	3.48
436.209	3.46
436.413	3.39
436.618	3.34
436.822	3.36
437.027	3.26
437.231	3.31
437.436	3.35
437.64	3.37
437.845	3.42
438.049	3.39
438.253	3.38
438.458	3.33
438.662	3.35
438.867	3.38
439.071	3.45
439.275	3.54
439.48	3.53
439.684	3.49
439.888	3.52
440.093	3.54
440.297	3.44
440.501	3.41
440.706	3.5
440.91	3.57
441.114	3.62
441.318	3.56
441.523	3.5
441.727	3.49
441.931	3.49
442.135	3.42
442.339	3.43
442.543	3.45
442.748	3.48
442.952	3.48
443.156	3.39
443.36	3.31
443.564	3.4
443.768	3.41
443.972	3.41
444.176	3.42
444.38	3.45
444.584	3.37
444.788	3.44
444.992	3.44
445.196	3.41
445.4	3.37
445.604	3.41
445.808	3.38
446.012	3.42
446.216	3.41
446.42	3.39
446.624	3.34
446.828	3.48
447.032	3.43
447.235	3.43
447.439	3.46
447.643	3.6
447.847	3.58
448.051	3.5
448.254	3.43
448.458	3.52
448.662	3.6
448.866	3.59
449.069	3.51
449.273	3.57
449.477	3.61
449.681	3.52
449.884	3.33
450.088	3.36
450.292	3.42
450.495	3.38
450.699	3.33
450.902	3.26
451.106	3.31
451.31	3.26
451.513	3.14
451.717	3.14
451.92	3.13
452.124	3.18
452.327	3.22
452.531	3.11
452.734	3.09
452.938	3.04
453.141	3.08
453.345	3.09
453.548	3.16
453.752	3.23
453.955	3.14
454.158	3.26
454.362	3.32
454.565	3.2
454.769	3.24
454.972	3.23
455.175	3.26
455.379	3.27
455.582	3.36
455.785	3.36
455.988	3.44
456.192	3.45
456.395	3.33
456.598	3.2
456.801	3.21
457.005	3.25
457.208	3.26
457.411	3.32
457.614	3.27
457.817	3.19
458.021	3.15
458.224	3.12
458.427	3.11
458.63	3.22
458.833	3.29
459.036	3.37
459.239	3.37
459.442	3.35
459.645	3.32
459.848	3.32
460.051	3.32
460.254	3.33
460.457	3.35
460.66	3.4
460.863	3.29
461.066	3.31
461.269	3.35
461.472	3.39
461.675	3.45
461.878	3.41
462.081	3.44
462.284	3.5
462.486	3.44
462.689	3.35
462.892	3.36
463.095	3.42
463.298	3.33
463.5	3.27
463.703	3.17
463.906	3.24
464.109	3.21
464.311	3.27
464.514	3.12
464.717	3.12
464.92	3.2
465.122	3.18
465.325	3.18
465.528	3.26
465.73	3.18
465.933	3.16
466.135	3.09
466.338	3.19
466.541	3.08
466.743	3
466.946	3.03
467.148	2.98
467.351	3.04
467.553	3.07
467.756	3.02
467.958	3.06
468.161	3.18
468.363	3.21
468.566	3.09
468.768	3.15
468.971	3.31
469.173	3.23
469.375	3.21
469.578	3.17
469.78	3.2
469.983	3.16
470.185	3.27
470.387	3.38
470.59	3.38
470.792	3.39
470.994	3.4
471.196	3.37
471.399	3.47
471.601	3.52
471.803	3.49
472.005	3.41
472.208	3.42
472.41	3.26
472.612	3.08
472.814	3.12
473.016	3.12
473.218	3.24
473.421	3.23
473.623	3.29
473.825	3.22
474.027	3.19
474.229	3.24
474.431	3.3
474.633	3.45
474.835	3.41
475.037	3.47
475.239	3.52
475.441	3.4
475.643	3.49
475.845	3.43
476.047	3.45
476.249	3.47
476.451	3.38
476.653	3.43
476.855	3.3
477.057	3.35
477.258	3.35
477.46	3.35
477.662	3.38
477.864	3.27
478.066	3.29
478.268	3.35
478.469	3.37
478.671	3.41
478.873	3.37
479.075	3.43
479.276	3.46
479.478	3.35
479.68	3.32
479.882	3.29
480.083	3.29
480.285	3.26
480.487	3.27
480.688	3.25
480.89	3.24
481.091	3.22
481.293	3.19
481.495	3.19
481.696	3.2
481.898	3.24
482.099	3.26
482.301	3.29
482.502	3.31
482.704	3.31
482.905	3.33
483.107	3.35
483.308	3.36
483.51	3.39
483.711	3.41
483.913	3.44
484.114	3.45
484.315	3.44
484.517	3.44
484.718	3.4
484.92	3.41
485.121	3.43
485.322	3.41
485.524	3.43
485.725	3.42
485.926	3.43
486.127	3.42
486.329	3.42
486.53	3.42
486.731	3.45
486.932	3.49
487.134	3.49
487.335	3.47
487.536	3.5
487.737	3.49
487.938	3.5
488.139	3.5
488.341	3.5
488.542	3.47
488.743	3.48
488.944	3.43
489.145	3.36
489.346	3.37
489.547	3.34
489.748	3.34
489.949	3.33
490.15	3.33
490.351	3.29
490.552	3.26
490.753	3.27
490.954	3.26
491.155	3.26
491.356	3.3
491.557	3.32
491.758	3.33
491.959	3.34
492.159	3.35
492.36	3.39
492.561	3.45
492.762	3.48
492.963	3.53
493.164	3.53
493.364	3.63
493.565	3.62
493.766	3.6
493.967	3.59
494.167	3.52
494.368	3.55
494.569	3.51
494.769	3.51
494.97	3.57
495.171	3.57
495.371	3.61
495.572	3.67
495.773	3.71
495.973	3.64
496.174	3.6
496.375	3.63
496.575	3.64
496.776	3.65
496.976	3.63
497.177	3.59
497.377	3.61
497.578	3.56
497.778	3.48
497.979	3.41
498.179	3.54
498.38	3.66
498.58	3.73
498.78	3.72
498.981	3.76
499.181	3.74
499.382	3.75
499.582	3.66
499.782	3.7
499.983	3.65
500.183	3.72
500.383	3.61
500.584	3.5
500.784	3.5
500.984	3.54
501.184	3.55
501.385	3.59
501.585	3.56
501.785	3.73
501.985	3.75
502.185	3.71
502.386	3.64
502.586	3.7
502.786	3.75
502.986	3.71
503.186	3.66
503.386	3.6
503.586	3.58
503.786	3.64
503.987	3.52
504.187	3.49
504.387	3.57
504.587	3.61
504.787	3.62
504.987	3.62
505.187	3.63
505.387	3.59
505.587	3.61
505.786	3.57
505.986	3.58
506.186	3.58
506.386	3.56
506.586	3.55
506.786	3.6
506.986	3.65
507.186	3.73
507.386	3.72
507.585	3.7
507.785	3.72
507.985	3.73
508.185	3.69
508.384	3.66
508.584	3.7
508.784	3.76
508.984	3.75
509.183	3.71
509.383	3.63
509.583	3.68
509.782	3.76
509.982	3.74
510.182	3.81
510.381	3.85
510.581	3.94
510.781	3.96
510.98	4.01
511.18	4.04
511.379	4.09
511.579	4.14
511.778	4.12
511.978	4.16
512.177	4.22
512.377	4.17
512.576	4.22
512.776	4.13
512.975	4.18
513.175	4.13
513.374	4.08
513.573	4.08
513.773	4.09
513.972	4.19
514.172	4.09
514.371	4.08
514.57	4.02
514.77	4.01
514.969	4.11
515.168	4.13
515.367	4.16
515.567	4.17
515.766	4.15
515.965	4.1
516.164	4
516.364	4.04
516.563	4.06
516.762	4.08
516.961	4.08
517.16	4.12
517.359	4.13
517.559	4.1
517.758	4.11
517.957	4.13
518.156	4.15
518.355	4.21
518.554	4.27
518.753	4.23
518.952	4.3
519.151	4.29
519.35	4.28
519.549	4.3
519.748	4.33
519.947	4.31
520.146	4.35
520.345	4.36
520.544	4.31
520.743	4.26
520.942	4.27
521.141	4.22
521.339	4.2
521.538	4.18
521.737	4.25
521.936	4.23
522.135	4.28
522.333	4.29
522.532	4.36
522.731	4.39
522.93	4.47
523.129	4.54
523.327	4.57
523.526	4.55
523.725	4.53
523.923	4.43
524.122	4.46
524.321	4.46
524.519	4.44
524.718	4.43
524.917	4.46
525.115	4.48
525.314	4.44
525.512	4.47
525.711	4.55
525.909	4.53
526.108	4.56
526.306	4.59
526.505	4.61
526.703	4.65
526.902	4.66
527.1	4.68
527.299	4.69
527.497	4.71
527.696	4.78
527.894	4.81
528.092	4.88
528.291	4.92
528.489	4.92
528.688	4.94
528.886	4.95
529.084	4.99
529.283	5
529.481	4.99
529.679	5.04
529.877	5
530.076	4.96
530.274	4.92
530.472	4.95
530.67	4.98
530.869	5.01
531.067	4.95
531.265	4.94
531.463	4.97
531.661	5
531.859	4.98
532.057	5
532.255	4.98
532.454	5.03
532.652	5.02
532.85	5.01
533.048	5.02
533.246	5.08
533.444	5.13
533.642	5.17
533.84	5.14
534.038	5.21
534.236	5.22
534.434	5.3
534.632	5.31
534.83	5.33
535.027	5.38
535.225	5.41
535.423	5.42
535.621	5.36
535.819	5.33
536.017	5.38
536.215	5.38
536.412	5.38
536.61	5.3
536.808	5.33
537.006	5.32
537.203	5.31
537.401	5.26
537.599	5.28
537.797	5.36
537.994	5.37
538.192	5.4
538.39	5.45
538.587	5.55
538.785	5.63
538.983	5.64
539.18	5.66
539.378	5.7
539.575	5.8
539.773	5.86
539.97	5.89
540.168	5.97
540.366	5.97
540.563	5.97
540.761	5.98
540.958	6.04
541.155	6.09
541.353	6.16
541.55	6.17
541.748	6.2
541.945	6.19
542.143	6.18
542.34	6.19
542.537	6.21
542.735	6.24
542.932	6.25
543.129	6.26
543.327	6.29
543.524	6.32
543.721	6.41
543.919	6.39
544.116	6.47
544.313	6.52
544.51	6.48
544.708	6.58
544.905	6.66
545.102	6.72
545.299	6.74
545.496	6.74
545.693	6.74
545.891	6.74
546.088	6.77
546.285	6.79
546.482	6.83
546.679	6.95
546.876	6.91
547.073	6.77
547.27	6.75
547.467	6.8
547.664	6.86
547.861	6.92
548.058	6.92
548.255	6.99
548.452	7
548.649	7.05
548.846	7.1
549.043	7.27
549.24	7.51
549.437	7.62
549.633	7.72
549.83	7.71
550.027	7.74
550.224	7.83
550.421	7.94
550.618	8
550.814	8.1
551.011	8.11
551.208	8.09
551.405	8.14
551.601	8.2
551.798	8.19
551.995	8.27
552.191	8.38
552.388	8.43
552.585	8.35
552.781	8.28
552.978	8.36
553.175	8.41
553.371	8.52
553.568	8.46
553.764	8.52
553.961	8.59
554.157	8.72
554.354	8.67
554.55	8.78
554.747	8.85
554.943	8.96
555.14	8.92
555.336	9.01
555.533	9.02
555.729	9.13
555.926	9.28
556.122	9.36
556.318	9.42
556.515	9.6
556.711	9.62
556.907	9.69
557.104	9.71
557.3	9.84
557.496	9.91
557.693	9.85
557.889	9.96
558.085	9.92
558.281	9.99
558.478	9.88
558.674	10.01
558.87	10.1
559.066	10.07
559.262	10.31
559.459	10.26
559.655	10.3
559.851	10.49
560.047	10.56
560.243	10.68
560.439	10.64
560.635	10.87
560.831	10.77
561.027	10.75
561.223	10.99
561.419	10.99
561.615	11.06
561.811	11.16
562.007	11.36
562.203	11.46
562.399	11.41
562.595	11.6
562.791	11.54
562.987	11.72
563.183	11.76
563.379	11.78
563.575	11.99
563.771	12.15
563.966	12.27
564.162	12.2
564.358	12.26
564.554	12.39
564.75	12.42
564.945	12.54
565.141	12.56
565.337	12.74
565.533	12.87
565.728	12.87
565.924	12.91
566.12	12.94
566.315	13.05
566.511	13.15
566.707	13.2
566.902	13.32
567.098	13.37
567.293	13.49
567.489	13.52
567.684	13.55
567.88	13.53
568.076	13.6
568.271	13.67
568.467	13.74
568.662	13.78
568.858	13.94
569.053	14
569.248	14.16
569.444	14.19
569.639	14.25
569.835	14.3
570.03	14.4
570.225	14.55
570.421	14.61
570.616	14.71
570.812	14.73
571.007	14.74
571.202	14.7
571.397	14.59
571.593	14.68
571.788	14.71
571.983	14.71
572.178	14.81
572.374	14.81
572.569	14.86
572.764	14.81
572.959	14.94
573.154	14.99
573.35	15.13
573.545	15.37
573.74	15.41
573.935	15.51
574.13	15.61
574.325	15.68
574.52	15.83
574.715	15.91
574.91	15.99
575.105	16.01
575.3	16.05
575.495	16.17
575.69	16.18
575.885	16.18
576.08	16.23
576.275	16.31
576.47	16.37
576.665	16.32
576.86	16.3
577.055	16.44
577.25	16.5
577.444	16.63
577.639	16.62
577.834	16.59
578.029	16.86
578.224	16.95
578.418	17.01
578.613	17.05
578.808	17.02
579.003	17.12
579.197	17.07
579.392	17.12
579.587	17.18
579.781	17.22
579.976	17.36
580.171	17.38
580.365	17.43
580.56	17.5
580.755	17.56
580.949	17.66
581.144	17.76
581.338	17.69
581.533	17.77
581.727	17.8
581.922	17.9
582.116	18.07
582.311	18.01
582.505	18.02
582.7	18.09
582.894	17.88
583.089	17.89
583.283	17.84
583.478	18.12
583.672	18.04
583.866	18.06
584.061	18.04
584.255	17.99
584.449	18.14
584.644	18.23
584.838	18.41
585.032	18.61
585.226	18.75
585.421	18.92
585.615	18.95
585.809	19.05
586.003	19.16
586.198	19.24
586.392	19.26
586.586	19.22
586.78	19.1
586.974	19.07
587.168	19.23
587.363	19.25
587.557	19.24
587.751	19.17
587.945	19.36
588.139	19.44
588.333	19.58
588.527	19.55
588.721	19.56
588.915	19.74
589.109	19.62
589.303	19.67
589.497	19.79
589.691	19.74
589.885	19.9
590.079	19.86
590.273	19.72
590.466	19.6
590.66	19.76
590.854	19.85
591.048	19.91
591.242	19.95
591.436	19.95
591.629	19.99
591.823	20.04
592.017	20.11
592.211	20.25
592.404	20.38
592.598	20.49
592.792	20.42
592.986	20.36
593.179	20.34
593.373	20.52
593.567	20.52
593.76	20.5
593.954	20.56
594.147	20.47
594.341	20.42
594.535	20.59
594.728	20.54
594.922	20.51
595.115	20.69
595.309	20.74
595.502	20.68
595.696	20.72
595.889	20.74
596.083	20.79
596.276	20.9
596.47	20.95
596.663	20.96
596.856	20.98
597.05	20.99
597.243	20.85
597.437	20.85
597.63	20.88
597.823	20.96
598.017	20.9
598.21	20.97
598.403	20.92
598.596	20.82
598.79	20.69
598.983	20.73
599.176	20.85
599.369	20.98
599.563	20.99
599.756	21.09
599.949	21.13
600.142	21.33
600.335	21.29
600.528	21.31
600.722	21.35
600.915	21.35
601.108	21.54
601.301	21.67
601.494	21.72
601.687	21.86
601.88	21.8
602.073	21.78
602.266	21.89
602.459	21.97
602.652	21.94
602.845	22.06
603.038	22.12
603.231	22.15
603.424	22.14
603.617	22.13
603.809	22.12
604.002	22.3
604.195	22.28
604.388	22.07
604.581	22
604.774	22.2
604.966	22.11
605.159	22.16
605.352	21.91
605.545	21.92
605.737	21.99
605.93	21.82
606.123	21.8
606.316	21.93
606.508	21.99
606.701	22.1
606.894	22.02
607.086	22.07
607.279	22.1
607.471	22.37
607.664	22.46
607.857	22.3
608.049	22.44
608.242	22.4
608.434	22.31
608.627	22.36
608.819	22.31
609.012	22.26
609.204	22.38
609.397	22.41
609.589	22.47
609.782	22.46
609.974	22.52
610.166	22.57
610.359	22.5
610.551	22.49
610.743	22.64
610.936	22.62
611.128	22.73
611.32	22.74
611.513	22.69
611.705	22.66
611.897	22.54
612.09	22.64
612.282	22.69
612.474	22.77
612.666	22.67
612.858	22.42
613.051	22.38
613.243	22.25
613.435	22.15
613.627	22.17
613.819	22.15
614.011	22.11
614.203	22.21
614.395	21.97
614.588	22.03
614.78	22.23
614.972	22.32
615.164	22.5
615.356	22.79
615.548	22.73
615.74	22.51
615.932	22.43
616.124	22.5
616.315	22.55
616.507	22.6
616.699	22.41
616.891	22.42
617.083	22.56
617.275	22.54
617.467	22.53
617.659	22.74
617.85	23
618.042	22.96
618.234	22.91
618.426	22.81
618.618	23.04
618.809	23.08
619.001	23.06
619.193	22.94
619.384	22.87
619.576	22.8
619.768	22.64
619.959	22.64
620.151	22.78
620.343	22.85
620.534	22.9
620.726	22.78
620.917	22.89
621.109	22.85
621.301	22.92
621.492	23.04
621.684	22.99
621.875	23.19
622.067	22.98
622.258	22.91
622.45	22.92
622.641	22.89
622.832	22.98
623.024	22.96
623.215	23.05
623.407	23.08
623.598	23.24
623.789	23.16
623.981	23.11
624.172	23.3
624.363	23.23
624.555	23.31
624.746	23.5
624.937	23.58
625.129	23.69
625.32	23.58
625.511	23.6
625.702	23.36
625.893	23.49
626.085	23.53
626.276	23.56
626.467	23.71
626.658	23.67
626.849	23.44
627.04	23.3
627.231	23.28
627.422	23.41
627.614	23.57
627.805	23.82
627.996	23.78
628.187	23.85
628.378	23.84
628.569	23.81
628.76	23.7
628.951	23.77
629.142	23.93
629.332	23.85
629.523	23.91
629.714	23.84
629.905	23.78
630.096	23.93
630.287	23.81
630.478	23.64
630.669	23.7
630.859	23.87
631.05	24.05
631.241	24.04
631.432	24.1
631.623	24.03
631.813	23.99
632.004	23.71
632.195	23.53
632.385	23.61
632.576	23.74
632.767	23.65
632.957	23.59
633.148	23.59
633.339	23.6
633.529	23.65
633.72	23.73
633.91	23.75
634.101	23.99
634.292	24.14
634.482	24.14
634.673	24.22
634.863	24.52
635.054	24.67
635.244	24.64
635.435	24.71
635.625	24.71
635.815	24.67
636.006	24.7
636.196	24.67
636.387	24.69
636.577	24.6
636.767	24.67
636.958	24.37
637.148	24.36
637.338	24.27
637.529	24.07
637.719	24.04
637.909	24.05
638.099	24.05
638.29	24.09
638.48	23.97
638.67	24.22
638.86	24.15
639.05	24.4
639.241	24.16
639.431	24.1
639.621	24.34
639.811	24.41
640.001	24.49
640.191	24.49
640.381	24.45
640.571	24.58
640.761	24.34
640.951	24.27
641.141	23.88
641.331	24.27
641.521	24.28
641.711	24.14
641.901	24.14
642.091	24.09
642.281	24.02
642.471	24.04
642.661	23.89
642.851	23.85
643.041	23.94
643.231	23.98
643.42	23.8
643.61	24.05
643.8	24.06
643.99	24.06
644.18	24.14
644.369	24.18
644.559	24.35
644.749	24.47
644.939	24.54
645.128	24.45
645.318	24.65
645.508	24.75
645.697	24.85
645.887	25.01
646.076	25.13
646.266	25.04
646.456	25.12
646.645	24.93
646.835	25
647.024	25.01
647.214	25.05
647.403	24.97
647.593	24.73
647.782	24.61
647.972	24.56
648.161	24.5
648.351	24.66
648.54	24.55
648.73	24.69
648.919	24.37
649.108	24.3
649.298	24.41
649.487	24.5
649.677	24.58
649.866	24.55
650.055	24.44
650.244	24.45
650.434	24.32
650.623	24.5
650.812	24.31
651.002	24.61
651.191	24.69
651.38	24.7
651.569	24.54
651.758	24.51
651.947	24.64
652.137	24.59
652.326	24.61
652.515	24.52
652.704	24.48
652.893	24.63
653.082	24.49
653.271	24.73
653.46	24.59
653.649	24.77
653.838	24.84
654.027	24.9
654.216	25.15
654.405	25.03
654.594	25.24
654.783	25.08
654.972	24.89
655.161	25.08
655.35	24.83
655.539	25.06
655.728	25.24
655.916	25.22
656.105	25.16
656.294	25.19
656.483	25.18
656.672	25.15
656.86	25.22
657.049	25.52
657.238	25.45
657.427	25.59
657.615	25.42
657.804	25.3
657.993	25.33
658.181	25.34
658.37	25.37
658.559	25.45
658.747	25.58
658.936	25.67
659.125	25.65
659.313	25.6
659.502	25.5
659.69	25.66
659.879	25.69
660.067	25.8
660.256	25.65
660.444	25.37
660.633	25.21
660.821	24.93
661.01	24.86
661.198	24.94
661.387	25.02
661.575	25.11
661.763	25.17
661.952	24.91
662.14	24.83
662.328	24.75
662.517	24.75
662.705	24.79
662.893	24.86
663.082	24.78
663.27	24.97
663.458	25.02
663.646	25.32
663.834	25.39
664.023	25.62
664.211	25.67
664.399	26.04
664.587	26.19
664.775	26.25
664.963	26.25
665.152	26.41
665.34	26.26
665.528	26.1
665.716	25.71
665.904	25.54
666.092	25.69
666.28	25.72
666.468	25.62
666.656	25.63
666.844	25.74
667.032	25.69
667.22	25.72
667.408	25.59
667.596	25.57
667.784	25.45
667.971	25.34
668.159	25.41
668.347	25.57
668.535	25.56
668.723	25.65
668.911	25.64
669.098	25.78
669.286	25.5
669.474	25.33
669.662	25.33
669.849	25.76
670.037	26.05
670.225	26.05
670.413	26.01
670.6	26.04
670.788	25.94
670.976	26.04
671.163	25.99
671.351	26.14
671.538	26.31
671.726	26.34
671.913	26.07
672.101	25.77
672.289	25.82
672.476	25.54
672.664	25.17
672.851	25.38
673.039	25.12
673.226	25.15
673.413	25.31
673.601	25.39
673.788	25.76
673.976	25.76
674.163	25.77
674.35	25.56
674.538	25.7
674.725	25.83
674.912	25.56
675.1	25.79
675.287	25.76
675.474	25.91
675.662	25.59
675.849	25.28
676.036	25.26
676.223	25.2
676.411	25.26
676.598	25.15
676.785	25.25
676.972	25.43
677.159	25.55
677.346	25.65
677.533	25.59
677.721	25.84
677.908	25.9
678.095	26.16
678.282	26.37
678.469	26.52
678.656	26.49
678.843	26.44
679.03	26.38
679.217	26.36
679.404	26.45
679.591	26.41
679.778	26.42
679.964	26.36
680.151	26.19
680.338	26.08
680.525	25.91
680.712	26.13
680.899	26.34
681.086	26.11
681.272	25.93
681.459	25.82
681.646	25.78
681.833	25.88
682.02	25.94
682.206	25.66
682.393	25.97
682.58	26.01
682.766	26.01
682.953	25.97
683.14	26.27
683.326	26.11
683.513	26.19
683.7	26.16
683.886	26.01
684.073	26.12
684.259	26.3
684.446	25.91
684.632	25.94
684.819	25.73
685.005	25.67
685.192	25.69
685.378	26.04
685.565	25.61
685.751	25.46
685.938	25.29
686.124	25.16
686.31	25.53
686.497	25.39
686.683	25.29
686.87	25.45
687.056	25.37
687.242	25.7
687.429	25.48
687.615	25.89
687.801	25.85
687.987	26.01
688.174	26.2
688.36	25.94
688.546	26.04
688.732	26.08
688.918	25.81
689.105	25.96
689.291	25.54
689.477	25.76
689.663	25.73
689.849	25.99
690.035	25.76
690.221	25.63
690.407	25.78
690.593	25.99
690.779	26.08
690.965	26.21
691.151	25.84
691.337	26.13
691.523	25.81
691.709	25.83
691.895	25.72
692.081	26.04
692.267	25.91
692.453	25.62
692.639	25.81
692.825	25.59
693.011	25.75
693.196	25.99
693.382	25.85
693.568	26.13
693.754	26.05
693.94	26.21
694.125	26.11
694.311	26.02
694.497	26.41
694.682	26.25
694.868	26.33
695.054	26.5
695.239	26.7
695.425	26.75
695.611	26.72
695.796	27.02
695.982	26.91
696.168	26.94
696.353	27.21
696.539	27.08
696.724	27.08
696.91	27.24
697.095	27.02
697.281	27.01
697.466	26.96
697.652	26.92
697.837	26.68
698.023	26.64
698.208	26.64
698.393	26.62
698.579	26.6
698.764	26.63
698.949	26.49
699.135	26.79
699.32	26.76
699.505	26.79
699.691	26.96
699.876	26.9
700.061	26.93
700.246	26.88
700.432	26.8
700.617	26.68
700.802	26.69
700.987	26.61
701.172	26.29
701.358	26.06
701.543	26.03
701.728	25.73
701.913	26.09
702.098	25.89
702.283	26.09
702.468	25.83
702.653	25.75
702.838	25.69
703.023	25.84
703.208	25.49
703.393	25.54
703.578	25.69
703.763	25.83
703.948	25.48
704.133	25.99
704.318	25.85
704.503	26.29
704.688	26.56
704.873	26.69
705.057	26.66
705.242	27.03
705.427	26.98
705.612	26.99
705.797	27.18
705.981	27.31
706.166	27.21
706.351	26.82
706.536	26.69
706.72	26.53
706.905	26.09
707.09	26.18
707.274	26.15
707.459	26.35
707.644	26.06
707.828	26.09
708.013	25.97
708.197	26.11
708.382	26.32
708.567	26.63
708.751	26.69
708.936	27.07
709.12	26.75
709.305	26.89
709.489	26.56
709.673	26.47
709.858	26.49
710.042	26.53
710.227	25.87
710.411	25.95
710.596	25.6
710.78	25.88
710.964	25.8
711.149	25.77
711.333	25.35
711.517	25.49
711.702	25.6
711.886	25.25
712.07	25.38
712.254	25.96
712.438	25.8
712.623	26.07
712.807	26.14
712.991	26.01
713.175	26.45
713.359	26.56
713.544	26.5
713.728	26.8
713.912	27.09
714.096	26.96
714.28	27.09
714.464	27.13
714.648	26.93
714.832	26.74
715.016	26.78
715.2	26.71
715.384	27.29
715.568	27.44
715.752	26.78
715.936	26.85
716.12	26.8
716.304	26.33
716.488	26.36
716.671	26.4
716.855	26.46
717.039	26.28
717.223	26.07
717.407	25.26
717.59	25.19
717.774	25.61
717.958	25.43
718.142	25.33
718.325	25.22
718.509	25.52
718.693	25.64
718.877	25.58
719.06	26.21
719.244	26.46
719.428	26.72
719.611	26.67
719.795	26.7
719.978	27.15
720.162	27.54
720.345	27.62
720.529	27.67
720.713	27.53
720.896	27.11
721.08	27.01
721.263	26.57
721.446	26.92
721.63	27.05
721.813	26.89
721.997	26.81
722.18	26.57
722.364	27.16
722.547	27.38
722.73	27.69
722.914	27.81
723.097	27.75
723.28	28.23
723.464	28.04
723.647	28.42
723.83	28.4
724.013	27.75
724.197	27.51
724.38	27.27
724.563	26.49
724.746	26.83
724.929	26.83
725.112	26.58
725.296	26.07
725.479	26.34
725.662	25.99
725.845	26.46
726.028	26.82
726.211	27.31
726.394	27.37
726.577	27.68
726.76	27.19
726.943	27.44
727.126	26.97
727.309	27.27
727.492	26.99
727.675	27.32
727.858	26.97
728.041	26.66
728.224	26.32
728.407	25.71
728.589	25.67
728.772	25.83
728.955	25.48
729.138	25.9
729.321	25.79
729.503	26.1
729.686	26.04
729.869	26.45
730.052	26.34
730.234	26.37
730.417	26.77
730.6	26.68
730.782	26.56
730.965	26.57
731.148	26.82
731.33	26.93
731.513	26.75
731.695	26.37
731.878	26.19
732.061	26.45
732.243	26.69
732.426	26.6
732.608	27.22
732.791	27.24
732.973	27.81
733.156	28.13
733.338	28.02
733.52	28.07
733.703	27.99
733.885	27.88
734.068	27.78
734.25	27.65
734.432	27.78
734.615	27.24
734.797	27.52
734.979	27.33
735.162	26.85
735.344	27.31
735.526	27.08
735.708	27.66
735.891	27.43
736.073	27.34
736.255	27.27
736.437	27.07
736.619	27.3
736.802	26.86
736.984	27.05
737.166	26.73
737.348	26.33
737.53	25.99
737.712	25.51
737.894	25.54
738.076	26.04
738.258	26.12
738.44	25.99
738.622	26
738.804	25.99
738.986	25.51
739.168	26.05
739.35	26.14
739.532	26.86
739.714	26.85
739.896	27.48
740.078	27.23
740.259	27.27
740.441	26.97
740.623	27
740.805	27.21
740.987	27.1
741.168	26.93
741.35	26.94
741.532	26.22
741.714	26.31
741.895	25.83
742.077	25.43
742.259	25.34
742.44	26.18
742.622	26.2
742.804	25.74
742.985	25.45
743.167	25.11
743.348	25.04
743.53	25.51
743.711	25.76
743.893	26.08
744.075	26.87
744.256	26.98
744.438	27.39
744.619	26.76
744.8	26.81
744.982	27.2
745.163	26.85
745.345	27.47
745.526	27.56
745.707	27.7
745.889	27.72
746.07	27.33
746.252	26.76
746.433	26.54
746.614	26.88
746.795	26.81
746.977	27.04
747.158	27.43
747.339	27.16
747.52	26.89
747.702	27.04
747.883	26.68
748.064	26.99
748.245	28.16
748.426	27.87
748.607	28.05
748.788	27.92
748.97	28.03
749.151	28.43
749.332	28.49
749.513	28.43
749.694	28.3
749.875	28.37
750.056	28.18
750.237	27.85
750.418	28.22
750.599	28.06
750.78	28.29
750.96	27.99
751.141	27.31
751.322	27.02
751.503	26.66
751.684	27.03
751.865	26.97
752.046	26.8
752.226	26.59
752.407	26.11
752.588	25.69
752.769	26.1
752.949	26.5
753.13	26.97
753.311	28.23
753.492	28.49
753.672	27.58
753.853	27.7
754.034	28.19
754.214	27.79
754.395	27.72
754.575	28.13
754.756	27.51
754.937	27.89
755.117	27.55
755.298	26.38
755.478	26.13
755.659	26.12
755.839	26.12
756.02	25.12
756.2	25.9
756.381	26.16
756.561	26.2
756.741	26.53
756.922	26.33
757.102	26.93
757.283	26.97
757.463	26.97
757.643	27.87
757.823	27.63
758.004	28.12
758.184	27.21
758.364	27.69
758.545	27.58
758.725	27.55
758.905	26.56
759.085	25.53
759.265	25.65
759.446	26.38
759.626	25.68
759.806	25.97
759.986	26.26
760.166	26.88
760.346	26.44
760.526	27.08
760.706	27.21
760.886	27.18
761.066	28.2
761.246	28.04
761.426	28.15
761.606	28.41
761.786	28.44
761.966	28.09
762.146	28.28
762.326	28.45
762.506	27.53
762.686	27.42
762.866	27.57
763.046	27.38
763.225	27.6
763.405	27.09
763.585	26.88
763.765	26.51
763.945	26.54
764.124	26.32
764.304	26.25
764.484	27.16
764.664	27.74
764.843	27.79
765.023	27.59
765.203	27.25
765.382	27.59
765.562	28.22
765.741	28.64
765.921	28.48
766.101	28.51
766.28	28.26
766.46	27.82
766.639	26.8
766.819	27.56
766.998	27.87
767.178	28.11
767.357	28.4
767.537	27.82
767.716	27.6
767.896	27.65
768.075	26.93
768.254	27.12
768.434	27.48
768.613	28.44
768.792	27.26
768.972	27.07
769.151	26.91
769.33	26.5
769.51	26.45
769.689	26.31
769.868	26.02
770.047	27.1
770.226	27.13
770.406	26.35
770.585	26.34
770.764	26.65
770.943	26.93
771.122	27.11
771.301	27.39
771.48	27.15
771.66	27.08
771.839	27.28
772.018	26.63
772.197	27.31
772.376	27.89
772.555	27.65
772.734	28.21
772.913	27.85
773.092	27.68
773.271	27.37
773.449	27.93
773.628	28.08
773.807	28.43
773.986	29.26
774.165	27.82
774.344	27.8
774.523	27.62
774.701	27.47
774.88	27.72
775.059	27.01
775.238	27.13
775.417	26.36
775.595	26.34
775.774	25.45
775.953	24.81
776.131	25.42
776.31	25.11
776.489	24.88
776.667	24.21
776.846	23.5
777.025	23.9
777.203	23.66
777.382	24.36
777.56	25.28
777.739	26.57
777.917	25.94
778.096	25.56
778.274	26.26
778.453	26.02
778.631	26.3
778.81	27.11
778.988	27.5
779.166	28.42
779.345	28.49
779.523	27.46
779.702	27
779.88	27.82
780.058	28.5
780.237	27.35
780.415	27.3
780.593	28.09
780.771	28.15
780.95	27.84
781.128	27.94
781.306	27.56
781.484	28.43
781.662	27.51
781.841	27.31
782.019	26.91
782.197	27.33
782.375	27.94
782.553	26.95
782.731	26.8
782.909	26.6
783.087	25.52
783.265	25.51
783.443	24.43
783.621	25.05
783.799	24.54
783.977	25.19
784.155	25.64
784.333	25.83
784.511	26.05
784.689	25.37
784.867	25.57
785.045	25.48
785.223	25.26
785.4	26.18
785.578	26.18
785.756	27.33
785.934	26.01
786.112	25.47
786.289	24.07
786.467	25.08
786.645	25.66
786.823	25.02
787	25.59
787.178	25.37
787.356	24.41
787.533	25.25
787.711	24.4
787.889	25.2
788.066	25.41
788.244	25.59
788.421	25.15
788.599	24.99
788.776	25.34
788.954	25.37
789.131	26.56
789.309	27.37
789.486	26.69
789.664	27.32
789.841	27.01
790.019	28.23
790.196	29.04
790.373	29.55
790.551	29.82
790.728	30.36
790.906	29.24
791.083	28.68
791.26	28.17
791.437	28.77
791.615	27.88
791.792	28.57
791.969	26.65
792.146	27.04
792.324	26.33
792.501	26.26
792.678	25.71
792.855	26.99
793.032	26.08
793.209	27.03
793.387	26.99
793.564	27.27
793.741	26.74
793.918	27.61
794.095	27.95
794.272	27.8
794.449	27.9
794.626	28.33
794.803	28.68
794.98	29.06
795.157	29.23
795.334	29.27
795.511	29.64
795.688	29.98
795.864	29.42
796.041	29.09
796.218	29.93
796.395	29.58
796.572	29.65
796.749	29.03
796.925	28.64
797.102	27.41
797.279	26.97
797.456	27.32
797.632	27.3
797.809	27.41
797.986	27.87
798.162	27.13
798.339	26.48
798.516	26.65
798.692	26.23
798.869	26.61
799.046	26.95
799.222	26.24
799.399	26.08
799.575	25.05
799.752	26.14
799.928	25.05
800.105	24.75
800.281	25.8
800.458	26.49
800.634	27.58
800.811	27.52
800.987	28.05
801.163	28.18
801.34	28.02
801.516	28.92
801.692	26.4
801.869	27.52
802.045	28.47
802.221	28.92
802.398	28.63
802.574	27.57
802.75	27.47
802.926	27.21
803.103	27.61
803.279	26.76
803.455	26.73
803.631	28.87
803.807	28.4
803.983	28.83
804.16	28.41
804.336	27.74
804.512	27.15
804.688	27.54
804.864	27.74
805.04	27.69
805.216	28.13
805.392	27.98
805.568	27.36
805.744	25.26
805.92	25.03
806.096	24.58
806.272	23.72
806.448	24.23
806.623	24.73
806.799	24.88
806.975	25.45
807.151	26.87
807.327	27.09
807.503	26.66
807.678	28.9
807.854	27.88
808.03	28.29
808.206	28.16
808.381	28.7
808.557	26.95
808.733	25.59
808.908	25.54
809.084	24.03
809.26	23.65
809.435	24.31
809.611	24.62
809.787	23.85
809.962	23.92
810.138	25.4
810.313	25.34
810.489	26.18
810.664	27.56
810.84	27.99
811.015	28.04
811.191	29.45
811.366	30.65
811.542	30.01
811.717	31.52
811.892	31.54
812.068	31.1
812.243	31.22
812.419	32.01
812.594	31.51
812.769	30
812.944	29.86
813.12	28.02
813.295	27.88
813.47	27.67
813.645	27
813.821	26.72
813.996	26.62
814.171	24.89
814.346	24.74
814.521	24.23
814.697	24.78
814.872	25.81
815.047	26.11
815.222	24.41
815.397	23.68
815.572	22.84
815.747	22.36
815.922	22.84
816.097	23.82
816.272	23.45
816.447	25
816.622	25.49
816.797	25.56
816.972	26.2
817.147	26.77
817.322	27.14
817.496	28.07
817.671	27.72
817.846	27.31
818.021	27.13
818.196	28.01
818.371	26.71
818.545	26.65
818.72	26.37
818.895	26
819.069	26.05
819.244	26.29
819.419	25.64
819.594	25.94
819.768	26.53
819.943	26.94
820.117	27.33
820.292	27.59
820.467	27.53
820.641	27.92
820.816	27.82
820.99	27.9
821.165	28.23
821.339	28.61
821.514	28.72
821.688	28.62
821.863	28.58
822.037	28.41
822.212	28.76
822.386	28.88
822.56	28.95
822.735	29.18
822.909	29.01
823.084	28.95
823.258	28.83
823.432	28.9
823.606	28.82
823.781	28.89
823.955	28.89
824.129	28.54
824.303	28.7
824.478	28.23
824.652	28.29
824.826	28.55
825	28.26
825.174	28.73
825.348	28.33
825.523	28.27
825.697	28.55
825.871	28.46
826.045	28.19
826.219	27.93
826.393	28.24
826.567	28.08
826.741	27.78
826.915	28.01
827.089	27.97
827.263	28.27
827.437	28.48
827.611	28.3
827.784	28.16
827.958	28.24
828.132	28.38
828.306	27.77
828.48	27.71
828.654	28.17
828.827	28.07
829.001	26.95
829.175	26.42
829.349	26.53
829.522	26.19
829.696	26.69
829.87	26.88
830.044	26.91
830.217	27.86
830.391	27.67
830.565	27.68
830.738	27.96
830.912	28.3
831.085	29.46
831.259	29.41
831.432	29.5
831.606	29.84
831.779	30.76
831.953	30.27
832.126	29.39
832.3	29.89
832.473	29.36
832.647	28.86
832.82	28.34
832.994	27.88
833.167	27.84
833.34	27.86
833.514	26.96
833.687	26.55
833.86	26.56
834.034	26.82
834.207	26.53
834.38	26.52
834.553	26.75
834.727	27.41
834.9	28.2
835.073	26.93
835.246	27.07
835.419	27.78
835.593	28.08
835.766	28.06
835.939	27.36
836.112	27.54
836.285	27.95
836.458	28.02
836.631	27.15
836.804	26.13
836.977	26.93
837.15	27.19
837.323	26.43
837.496	26.28
837.669	26.26
837.842	26.52
838.015	25.08
838.188	25.48
838.361	26.5
838.533	27.81
838.706	27.51
838.879	29.01
839.052	28.55
839.225	28.47
839.398	28.8
839.57	29.1
839.743	30.58
839.916	32.15
840.088	32.08
840.261	30.91
840.434	30.76
840.607	30.92
840.779	30.06
840.952	30.55
841.124	30.82
841.297	30.09
841.47	29.49
841.642	29.1
841.815	29.25
841.987	28.67
842.16	28.21
842.332	28.15
842.505	27.44
842.677	26.83
842.85	26.87
843.022	25.49
843.194	26.47
843.367	25.68
843.539	25.42
843.712	25.34
843.884	28.39
844.056	30.72
844.229	30.29
844.401	31.45
844.573	33.48
844.745	29.46
844.918	31.39
845.09	30.31
845.262	31.95
845.434	33.05
845.606	30.36
845.779	26.08
845.951	24.72
846.123	20.57
846.295	20.44
846.467	19.41
846.639	22.16
846.811	21.32
846.983	17.97
847.155	16.72
847.327	15.41
847.499	17.88
847.671	16.19
847.843	16.49
848.015	18.41
848.187	18.42
848.359	16.6
848.531	18.08
848.703	17.18
848.875	20.48
849.047	20.98
849.218	18.61
849.39	18.14
849.562	20.01
849.734	17.37
849.905	19.72
850.077	20
850.249	21.14
850.421	19.99
850.592	19.1
850.764	19.91
850.936	20.53
851.107	21.91
851.279	21.52
851.451	21.05
851.622	22.66
851.794	22.3
851.965	20.06
852.137	19.23
852.308	23.13
852.48	24.24
852.651	20.63
852.823	19.63
852.994	19.71
853.166	16
853.337	16.07
853.509	14.49
853.68	17.69
853.851	20.65
854.023	18.69
854.194	11.73
854.365	13.73
854.537	17.89
854.708	18.97
854.879	19.36
855.05	18.29
855.222	22.67
855.393	23.83
855.564	23.56
855.735	19.56
855.906	20.88
856.078	24.92
856.249	24
856.42	22.23
856.591	21.48
856.762	22.09
856.933	25.56
857.104	21.65
857.275	24.5
857.446	22.4
857.617	25.75
857.788	29.25
857.959	26.72
858.13	28.21
858.301	26.49
858.472	23.65
858.643	24.33
858.814	23.27
858.985	21.22
859.155	20.72
859.326	22.64
859.497	19.61
859.668	15.94
859.839	18.7
860.009	21.45
860.18	22.23
860.351	25.56
860.522	21.92
860.692	22.51
860.863	26.97
861.034	21.63
861.204	17.39
861.375	22.45
861.546	25.27
861.716	18.15
861.887	10.12
862.057	10.24
862.228	11.29
862.398	13.26
862.569	12.59
862.739	15.63
862.91	17.66
863.08	19.37
863.251	19.39
863.421	17.8
863.592	23.41
863.762	27.69
863.932	29.42
864.103	30.09
864.273	32.82
864.443	36.01
864.614	32.11
864.784	33.52
864.954	30.69
865.125	31.69
865.295	30.35
865.465	28.75
865.635	26.41
865.805	26.38
865.976	25.88
866.146	25.03
866.316	21.2
866.486	19.4
866.656	21.1
866.826	21.69
866.996	20.64
867.166	25.81
867.336	25.84
867.506	25.6
867.676	23.3
867.846	24.99
868.016	24.12
868.186	23.97
868.356	24.2
868.526	21.69
868.696	24.48
868.866	20.7
869.036	14.87
869.206	16.75
869.376	18.37
869.545	18.29
869.715	16.91
869.885	15.29
870.055	17.94
870.224	24.39
870.394	23.17
870.564	23.13
870.734	25.41
870.903	28.93
871.073	29.69
871.243	31.11
871.412	33.4
871.582	33.69
871.751	35.27
871.921	33.04
872.091	29.61
872.26	30.31
872.43	28.59
872.599	29.72
872.769	28.3
872.938	24.97
873.108	22.05
873.277	20.09
873.446	21.34
873.616	21.53
873.785	19.15
873.955	18.24
874.124	23.52
874.293	25.57
874.463	19.79
874.632	24.74
874.801	26.43
874.971	26.94
875.14	30.26
875.309	28.96
875.478	29.03
875.647	35.16
875.817	34.99
875.986	30.65
876.155	30.01
876.324	31.68
876.493	27.22
876.662	27.01
876.831	24.26
877	22.77
877.17	21.29
877.339	19.09
877.508	16.19
877.677	12.23
877.846	15.26
878.015	19.33
878.184	21.75
878.352	23.12
878.521	22.33
878.69	25.59
878.859	23.36
879.028	23.87
879.197	25.87
879.366	27.44
879.534	31.64
879.703	29.25
879.872	26.66
880.041	26.56
880.21	26.09
880.378	26.64
880.547	27.11
880.716	28.27
880.884	28.6
881.053	27
881.222	26.7
881.39	26.33
881.559	28.12
881.727	27.88
881.896	28.41
882.065	28.14
882.233	28.07
882.402	28.39
882.57	28.07
882.739	28.1
882.907	28.82
883.076	28.92
883.244	28.68
883.412	27.92
883.581	27.74
883.749	27.48
883.918	27.62
884.086	27.71
884.254	27.27
884.423	27.28
884.591	25.96
884.759	25.43
884.927	25.28
885.096	24.94
885.264	24.32
885.432	24.82
885.6	24.71
885.769	24.97
885.937	24.11
886.105	21.81
886.273	20.54
886.441	22.83
886.609	23.27
886.777	24.02
886.945	24.47
887.113	22.43
887.281	23.66
887.449	21.27
887.617	19.99
887.785	20.02
887.953	20.32
888.121	20.47
888.289	18.47
888.457	20.64
888.625	17.59
888.793	22.22
888.961	23.91
889.129	19.95
889.296	20.08
889.464	19.87
889.632	20.96
889.8	22.92
889.967	25.06
890.135	28.13
