Data from 2938476_Reflection_3.txt Node
Date: Wed Jun 17 13:16:49 EDT 2015
User: robert
Spectrometer: USB4E03002
Autoset integration time: false
Trigger mode: 4
Integration Time (sec): 1.000000E-1
Scans to average: 10
Electric dark correction enabled: true
Nonlinearity correction enabled: false
Boxcar width: 5
Stray light correction enabled: false
XAxis mode: Wavelengths
Stop averaging: false
Number of Pixels in Spectrum: 3648
>>>>>Begin Spectral Data<<<<<
177.575	798.95
177.794	242.18
178.014	177.54
178.233	228.56
178.452	192.7
178.672	196.39
178.891	79.68
179.11	-218.11
179.33	-218.09
179.549	-547.56
179.768	-974.75
179.987	-667.74
180.207	-330.95
180.426	-646.22
180.645	-738.16
180.864	-141.47
181.084	-67.07
181.303	-69.05
181.522	-38.7
181.741	-43.17
181.96	-31.51
182.179	-15.41
182.398	116.24
182.618	18.42
182.837	77.7
183.056	63.22
183.275	67.42
183.494	69.5
183.713	47.3
183.932	42.54
184.151	80.91
184.37	98.65
184.589	103.63
184.808	123.74
185.027	126.69
185.246	128.6
185.465	148.22
185.684	242.13
185.903	1960
186.122	349.59
186.341	246.37
186.56	144.61
186.779	188.95
186.998	280.1
187.216	358.03
187.435	182.25
187.654	180.08
187.873	280.26
188.092	1139.96
188.311	477.59
188.53	-224.44
188.748	-30.45
188.967	-67.95
189.186	-129.74
189.405	-151.1
189.623	-92.02
189.842	-5.4
190.061	-19.44
190.28	-36.12
190.498	-70.87
190.717	-272.16
190.936	-606.39
191.154	1032.43
191.373	-6368.67
191.592	-2190.78
191.81	720.73
192.029	574.73
192.248	292.19
192.466	275.66
192.685	292.56
192.904	609.13
193.122	1259.55
193.341	2356.99
193.559	-141.37
193.778	-49.67
193.996	-76.62
194.215	19.62
194.433	-15.93
194.652	-42.72
194.87	-120.22
195.089	-37.76
195.307	96.9
195.526	135.14
195.744	39.18
195.963	55.09
196.181	92.57
196.399	71.5
196.618	85.37
196.836	68.21
197.055	61.97
197.273	57.83
197.491	110.91
197.71	109.74
197.928	57
198.146	43.74
198.365	17.94
198.583	-7.74
198.801	-44.35
199.019	-10.41
199.238	-67.74
199.456	-81.66
199.674	-47.59
199.892	-21.96
200.111	5.08
200.329	27.92
200.547	82.23
200.765	136.99
200.983	163.12
201.202	151.14
201.42	70.15
201.638	162.13
201.856	146.34
202.074	180.96
202.292	201.09
202.51	107.79
202.728	-5.65
202.946	-6.44
203.165	-16.19
203.383	-15.46
203.601	-19.04
203.819	-0.25
204.037	6.65
204.255	19.78
204.473	35.14
204.691	25.65
204.909	71.61
205.127	101.21
205.345	152.24
205.562	279.89
205.78	271.84
205.998	398.66
206.216	262.51
206.434	519.08
206.652	96.38
206.87	122.53
207.088	107.14
207.306	54.06
207.523	50.91
207.741	45.52
207.959	12.27
208.177	17.48
208.395	9.93
208.612	20.03
208.83	23.67
209.048	21.89
209.266	-1.71
209.483	-52.28
209.701	-46.07
209.919	-120.82
210.136	-231.68
210.354	-117.47
210.572	-569.02
210.79	-286.41
211.007	-221.33
211.225	-634.33
211.442	-69.18
211.66	-38.37
211.878	9.88
212.095	-28.08
212.313	3.57
212.53	5.37
212.748	-2.14
212.966	17.95
213.183	25.92
213.401	20.55
213.618	9.34
213.836	-8.99
214.053	-9.93
214.271	-23.71
214.488	-14.65
214.705	7.89
214.923	24.67
215.14	42.24
215.358	38.1
215.575	21.42
215.793	43.5
216.01	60.54
216.227	64.6
216.445	57.1
216.662	55.58
216.879	60.33
217.097	54.29
217.314	52.89
217.531	48.8
217.749	39.05
217.966	53.73
218.183	42.51
218.4	41.44
218.618	47.13
218.835	48.39
219.052	48.55
219.269	43.45
219.487	45.32
219.704	40.9
219.921	31.09
220.138	36.7
220.355	24.59
220.572	21.02
220.79	11.14
221.007	9.06
221.224	3.9
221.441	-1.92
221.658	19.62
221.875	14.9
222.092	16.5
222.309	13.54
222.526	12.17
222.743	24.73
222.96	30.32
223.177	34.24
223.394	32.76
223.611	32.74
223.828	33.14
224.045	24.11
224.262	20.7
224.479	21.27
224.696	23.01
224.913	22.33
225.13	16.31
225.347	16.38
225.564	14.24
225.781	13.68
225.997	11.89
226.214	10.95
226.431	9
226.648	9.64
226.865	8.76
227.082	10.06
227.298	9.52
227.515	9.45
227.732	8.08
227.949	8.15
228.165	7.95
228.382	8.63
228.599	9.19
228.816	9.59
229.032	9.25
229.249	10.37
229.466	8.15
229.682	9.55
229.899	10.25
230.116	12.99
230.332	14.26
230.549	13.7
230.765	13.42
230.982	12.29
231.199	13.51
231.415	14.78
231.632	12.93
231.848	13.74
232.065	11.19
232.281	8.88
232.498	6.7
232.714	5.12
232.931	5.85
233.147	4.87
233.364	4.52
233.58	5.57
233.797	4.52
234.013	7.25
234.23	8.34
234.446	8.98
234.662	10.14
234.879	12.18
235.095	12.57
235.312	13.14
235.528	12.34
235.744	14.12
235.961	13.07
236.177	13.45
236.393	11.09
236.61	11.35
236.826	11.22
237.042	11.43
237.258	10.59
237.475	10.05
237.691	9.81
237.907	11.49
238.123	11.27
238.339	12.14
238.556	11.61
238.772	10.74
238.988	9.95
239.204	9.93
239.42	10.31
239.636	9.89
239.853	9.61
240.069	9.35
240.285	9.48
240.501	9.25
240.717	9.08
240.933	9.8
241.149	10.54
241.365	10.54
241.581	10.65
241.797	10.75
242.013	10.51
242.229	10.54
242.445	10.83
242.661	10.59
242.877	9.91
243.093	9.54
243.309	8.97
243.525	8.72
243.741	8.57
243.957	7.96
244.173	7.94
244.388	8.41
244.604	8.78
244.82	8.76
245.036	8.74
245.252	8.76
245.468	8.98
245.683	8.83
245.899	8.64
246.115	8.46
246.331	8.57
246.547	8.3
246.762	8.07
246.978	7.6
247.194	7.67
247.409	7.6
247.625	8.14
247.841	7.91
248.057	8.32
248.272	8.07
248.488	8.18
248.703	8.91
248.919	9.32
249.135	8.94
249.35	9.82
249.566	9.15
249.782	9.08
249.997	8.3
250.213	7.94
250.428	7.55
250.644	7.67
250.859	7.51
251.075	7.08
251.29	6.88
251.506	7.06
251.721	6.77
251.937	7.17
252.152	7.76
252.368	7.59
252.583	7.89
252.798	8.16
253.014	8.47
253.229	9.49
253.445	9.17
253.66	9.04
253.875	9.04
254.091	9.04
254.306	9.21
254.521	8.71
254.737	8.4
254.952	9.25
255.167	8.35
255.383	7.84
255.598	6.76
255.813	6.68
256.028	6.47
256.244	6.55
256.459	6.97
256.674	6.54
256.889	6.03
257.104	5.98
257.32	5.67
257.535	5.33
257.75	5.55
257.965	5.65
258.18	5.48
258.395	5.68
258.61	5.94
258.826	5.73
259.041	5.84
259.256	6.27
259.471	6.4
259.686	5.94
259.901	5.94
260.116	6.21
260.331	6.03
260.546	6.29
260.761	6.26
260.976	5.75
261.191	5.21
261.406	5.2
261.621	4.46
261.836	4.59
262.05	5.34
262.265	5.62
262.48	5.61
262.695	5.67
262.91	6.37
263.125	6.34
263.34	6.86
263.555	7.1
263.769	7.25
263.984	7
264.199	6.72
264.414	6.4
264.629	6.95
264.843	6.25
265.058	6.42
265.273	5.36
265.488	5.24
265.702	4.65
265.917	4.65
266.132	4.07
266.346	4.34
266.561	4.1
266.776	4
266.99	3.67
267.205	4.05
267.42	4.44
267.634	5.31
267.849	5.63
268.063	5.79
268.278	6.1
268.492	6.57
268.707	6.33
268.922	6.51
269.136	6.31
269.351	6.15
269.565	6.42
269.78	6.33
269.994	5.99
270.209	5.5
270.423	5.63
270.637	5.81
270.852	5.76
271.066	5.65
271.281	5.9
271.495	6.29
271.709	6.74
271.924	6.33
272.138	5.95
272.353	6.21
272.567	6.36
272.781	6.37
272.996	6.31
273.21	6.63
273.424	7.52
273.638	7.79
273.853	6.91
274.067	6.84
274.281	6.96
274.495	6.81
274.71	6.47
274.924	6.47
275.138	6.93
275.352	6.62
275.566	6
275.781	5.24
275.995	5.19
276.209	6
276.423	5.75
276.637	5.28
276.851	5.63
277.065	5.64
277.279	5.67
277.493	5.28
277.707	5.2
277.921	5.33
278.135	5.39
278.349	5.42
278.563	5.36
278.777	5.33
278.991	5.72
279.205	5.79
279.419	5.68
279.633	5.66
279.847	5.33
280.061	5.18
280.275	5.64
280.489	5.15
280.703	4.9
280.917	5.02
281.131	5.08
281.344	5.26
281.558	4.96
281.772	4.74
281.986	4.7
282.2	4.86
282.414	5.47
282.627	4.81
282.841	5.5
283.055	5.62
283.269	5.94
283.482	5.8
283.696	5.71
283.91	6.19
284.123	6.32
284.337	6.53
284.551	6.54
284.764	6.36
284.978	6.77
285.192	6.79
285.405	6.75
285.619	6.38
285.833	6.6
286.046	6.64
286.26	6.75
286.473	6.84
286.687	6.93
286.9	6.8
287.114	7.12
287.327	7.11
287.541	7.34
287.754	7.68
287.968	7.94
288.181	8.05
288.395	8.11
288.608	7.39
288.822	7.23
289.035	7.31
289.248	7.34
289.462	7.04
289.675	7.03
289.889	6.49
290.102	6.09
290.315	5.44
290.529	5.1
290.742	4.69
290.955	5.22
291.169	5.5
291.382	5.51
291.595	5.79
291.808	5.76
292.022	5.58
292.235	5.97
292.448	6.34
292.661	7.2
292.875	7.36
293.088	7.61
293.301	7.67
293.514	7.87
293.727	7.75
293.94	8.03
294.153	8.4
294.367	8.68
294.58	8.69
294.793	8.62
295.006	8.55
295.219	8.76
295.432	8.75
295.645	8.64
295.858	8.48
296.071	8.76
296.284	8.73
296.497	8.42
296.71	8.22
296.923	8.08
297.136	7.99
297.349	7.72
297.562	8.12
297.775	8.6
297.988	8.99
298.201	9.21
298.414	9
298.626	9.06
298.839	9.46
299.052	9.69
299.265	9.8
299.478	9.62
299.691	10
299.903	9.52
300.116	8.87
300.329	9.74
300.542	9.41
300.755	9.31
300.967	8.99
301.18	8.86
301.393	9.08
301.605	9.02
301.818	9.44
302.031	9.59
302.243	10
302.456	10.17
302.669	9
302.881	9.41
303.094	9.72
303.307	10.2
303.519	10.2
303.732	9.8
303.944	9.63
304.157	9.68
304.37	9.44
304.582	8.97
304.795	9.38
305.007	9.68
305.22	9.7
305.432	10.1
305.645	10.41
305.857	10.43
306.069	10.95
306.282	11.25
306.494	10.8
306.707	10.67
306.919	10.4
307.132	9.82
307.344	9.7
307.556	9.55
307.769	9.15
307.981	9.27
308.193	9.88
308.406	9.95
308.618	10.22
308.83	10.85
309.043	10.86
309.255	11.47
309.467	11.95
309.679	11.49
309.892	11.69
310.104	11.5
310.316	11.24
310.528	10.83
310.74	10.6
310.953	10.57
311.165	10.2
311.377	10.22
311.589	9.99
311.801	10.15
312.013	11.15
312.225	11.38
312.437	11.82
312.649	11.66
312.862	11.33
313.074	12.17
313.286	12.28
313.498	12.82
313.71	12.91
313.922	13.21
314.134	12.76
314.346	12.97
314.558	13.22
314.77	13.49
314.982	13.79
315.193	14.34
315.405	13.94
315.617	13.91
315.829	13.51
316.041	13.86
316.253	13.62
316.465	14.03
316.677	13.68
316.888	13.09
317.1	12.85
317.312	12.87
317.524	13.37
317.736	13.35
317.947	13.58
318.159	14.18
318.371	14.49
318.583	15.19
318.794	15.3
319.006	15.19
319.218	15.08
319.43	15.26
319.641	14.82
319.853	14.59
320.064	14.5
320.276	14.71
320.488	14.22
320.699	13.78
320.911	13.26
321.123	13.83
321.334	14.1
321.546	14.51
321.757	14.47
321.969	15.54
322.18	14.75
322.392	14.97
322.603	15.59
322.815	15.8
323.026	16.23
323.238	16.21
323.449	15.12
323.661	15.48
323.872	16.3
324.083	17.23
324.295	17.94
324.506	18.88
324.718	19.14
324.929	18.82
325.14	19.12
325.352	19.16
325.563	19.66
325.774	21.02
325.986	21.01
326.197	21.47
326.408	21.69
326.62	21.22
326.831	21.08
327.042	21.69
327.253	21.98
327.464	22.36
327.676	23.03
327.887	23.3
328.098	23.49
328.309	23.82
328.52	23.87
328.732	24.16
328.943	24.67
329.154	25.71
329.365	26.05
329.576	26.54
329.787	27.07
329.998	27.71
330.209	28.61
330.42	28.76
330.631	28.83
330.842	28.94
331.053	28.81
331.264	29.23
331.475	29.33
331.686	29.56
331.897	29.88
332.108	29.61
332.319	29.39
332.53	29.38
332.741	29.63
332.952	29.93
333.163	29.76
333.374	29.97
333.585	29.46
333.795	29.54
334.006	29.45
334.217	29.26
334.428	29.6
334.639	30.09
334.849	30.19
335.06	30.07
335.271	30.6
335.482	30.53
335.692	30.32
335.903	30.92
336.114	30.93
336.325	30.89
336.535	30.8
336.746	31.23
336.957	30.91
337.167	30.9
337.378	30.87
337.589	30.67
337.799	31.3
338.01	31.98
338.22	31.82
338.431	32.01
338.642	32.7
338.852	33.07
339.063	33.22
339.273	33.78
339.484	33.55
339.694	33.43
339.905	33.66
340.115	33.76
340.326	33.5
340.536	33.65
340.746	33.62
340.957	33.35
341.167	33.2
341.378	33.02
341.588	33
341.799	32.89
342.009	33.01
342.219	32.86
342.43	32.96
342.64	32.72
342.85	32.45
343.061	32.8
343.271	32.81
343.481	33.03
343.691	33.06
343.902	32.27
344.112	32.04
344.322	32.36
344.532	32.5
344.743	32.18
344.953	32.4
345.163	32.85
345.373	32.62
345.583	32.26
345.793	32.14
346.004	31.98
346.214	32.62
346.424	32.68
346.634	32.79
346.844	32.69
347.054	32.73
347.264	32.33
347.474	31.89
347.684	31.64
347.894	31.54
348.104	31.49
348.314	31.08
348.524	30.51
348.734	30.92
348.944	31.08
349.154	31.13
349.364	31.27
349.574	31.54
349.784	31.83
349.994	32.2
350.204	32.15
350.413	32.4
350.623	32.71
350.833	32.84
351.043	32.58
351.253	31.93
351.463	32.31
351.672	32.11
351.882	32.11
352.092	31.68
352.302	31.47
352.511	31.86
352.721	31.99
352.931	31.93
353.141	32.02
353.35	31.64
353.56	31.75
353.77	31.3
353.979	31.44
354.189	31.55
354.399	31.81
354.608	31.68
354.818	31.58
355.027	31.26
355.237	31.34
355.447	31.47
355.656	31.79
355.866	31.78
356.075	31.49
356.285	31.53
356.494	30.95
356.704	30.84
356.913	30.95
357.123	30.89
357.332	30.66
357.542	30.55
357.751	30.29
357.96	30.34
358.17	30.28
358.379	30.62
358.589	30.07
358.798	30.35
359.007	30.5
359.217	30.28
359.426	29.9
359.635	29.77
359.845	29.8
360.054	29.69
360.263	29.18
360.472	29.25
360.682	29.21
360.891	29.58
361.1	29.68
361.309	29.35
361.519	29.42
361.728	29.74
361.937	29.76
362.146	29.54
362.355	29.69
362.564	30.1
362.774	30.02
362.983	29.76
363.192	29.28
363.401	29.17
363.61	28.93
363.819	28.95
364.028	28.91
364.237	28.9
364.446	28.85
364.655	28.9
364.864	28.97
365.073	28.8
365.282	28.81
365.491	28.88
365.7	28.69
365.909	28.9
366.118	28.8
366.327	28.55
366.536	28.38
366.745	28.63
366.954	28.48
367.162	28.34
367.371	28.09
367.58	27.65
367.789	27.44
367.998	27.66
368.207	27.53
368.415	27.21
368.624	27.05
368.833	27.13
369.042	26.7
369.25	26.57
369.459	26.3
369.668	26.22
369.877	26.47
370.085	26.55
370.294	26.21
370.503	25.89
370.711	25.91
370.92	25.85
371.129	25.8
371.337	25.71
371.546	25.36
371.754	25.2
371.963	25.52
372.171	25.43
372.38	24.97
372.589	24.65
372.797	24.76
373.006	24.38
373.214	24.44
373.423	24.29
373.631	24.41
373.84	24.38
374.048	24.53
374.256	24.11
374.465	24.02
374.673	24.1
374.882	24.25
375.09	24.08
375.298	24.08
375.507	23.89
375.715	23.85
375.923	23.78
376.132	23.78
376.34	23.69
376.548	23.83
376.757	23.8
376.965	23.82
377.173	23.88
377.381	24.12
377.59	24.46
377.798	24.49
378.006	24.48
378.214	24.22
378.423	24.13
378.631	24.07
378.839	23.77
379.047	23.63
379.255	23.33
379.463	23.27
379.671	23.03
379.879	22.65
380.088	22.66
380.296	22.62
380.504	22.4
380.712	22.35
380.92	22.24
381.128	22.67
381.336	22.43
381.544	22.52
381.752	22.26
381.96	22.15
382.168	22.2
382.376	22.01
382.584	21.82
382.791	21.73
382.999	21.57
383.207	21.38
383.415	20.93
383.623	20.94
383.831	20.9
384.039	20.89
384.247	20.68
384.454	20.47
384.662	20.22
384.87	20.1
385.078	20.08
385.285	20.03
385.493	20.17
385.701	20.21
385.909	20.06
386.116	19.91
386.324	19.76
386.532	19.62
386.739	19.63
386.947	19.78
387.155	19.76
387.362	19.62
387.57	19.52
387.778	19.28
387.985	19.14
388.193	19.16
388.4	19.14
388.608	19.04
388.816	19.21
389.023	19.12
389.231	19.11
389.438	19.03
389.646	19.02
389.853	18.91
390.061	18.82
390.268	18.61
390.475	18.45
390.683	18.4
390.89	18.5
391.098	18.3
391.305	18.35
391.512	18.07
391.72	18.11
391.927	18.04
392.135	18.12
392.342	18.03
392.549	18.26
392.756	18.21
392.964	18.07
393.171	17.82
393.378	17.66
393.586	17.38
393.793	17.51
394	17.56
394.207	17.5
394.414	17.55
394.622	17.41
394.829	17.2
395.036	17.17
395.243	17.06
395.45	17.08
395.657	17.22
395.864	17.26
396.072	16.92
396.279	16.8
396.486	16.63
396.693	16.46
396.9	16.56
397.107	16.49
397.314	16.48
397.521	16.66
397.728	16.57
397.935	16.6
398.142	16.53
398.349	16.6
398.556	16.43
398.763	16.55
398.97	16.32
399.177	16.12
399.383	16.11
399.59	16.02
399.797	16.07
400.004	16.1
400.211	15.97
400.418	15.9
400.625	15.99
400.831	15.96
401.038	15.94
401.245	16.02
401.452	16.22
401.658	16.26
401.865	16.32
402.072	16.1
402.279	16.12
402.485	16.09
402.692	16.16
402.899	16.15
403.105	16.16
403.312	16.22
403.519	16.38
403.725	16.26
403.932	16.09
404.138	16.15
404.345	16.16
404.552	16.04
404.758	15.95
404.965	15.85
405.171	15.73
405.378	15.66
405.584	15.53
405.791	15.33
405.997	15.4
406.204	15.56
406.41	15.47
406.617	15.42
406.823	15.5
407.029	15.63
407.236	15.73
407.442	15.68
407.649	15.77
407.855	15.78
408.061	15.94
408.268	15.85
408.474	15.65
408.68	15.64
408.887	15.66
409.093	15.71
409.299	15.7
409.505	15.55
409.712	15.51
409.918	15.43
410.124	15.53
410.33	15.5
410.537	15.53
410.743	15.69
410.949	15.63
411.155	15.77
411.361	15.64
411.567	15.59
411.773	15.64
411.98	15.71
412.186	15.78
412.392	15.75
412.598	15.65
412.804	15.72
413.01	15.56
413.216	15.62
413.422	15.52
413.628	15.52
413.834	15.54
414.04	15.54
414.246	15.58
414.452	15.38
414.658	15.34
414.864	15.29
415.07	15.19
415.275	15.19
415.481	15.08
415.687	15
415.893	14.98
416.099	14.92
416.305	14.88
416.511	14.86
416.716	14.97
416.922	14.97
417.128	15.02
417.334	14.98
417.539	14.87
417.745	14.82
417.951	14.77
418.157	14.74
418.362	14.65
418.568	14.59
418.774	14.49
418.979	14.44
419.185	14.37
419.391	14.3
419.596	14.31
419.802	14.3
420.008	14.27
420.213	14.29
420.419	14.29
420.624	14.22
420.83	14.17
421.035	14.08
421.241	14.01
421.446	13.96
421.652	13.99
421.857	13.93
422.063	13.91
422.268	13.87
422.474	13.85
422.679	13.76
422.885	13.73
423.09	13.72
423.295	13.77
423.501	13.74
423.706	13.75
423.911	13.66
424.117	13.66
424.322	13.7
424.527	13.69
424.733	13.64
424.938	13.74
425.143	13.78
425.349	13.85
425.554	13.85
425.759	13.81
425.964	13.82
426.169	13.8
426.375	13.81
426.58	13.73
426.785	13.77
426.99	13.7
427.195	13.52
427.4	13.49
427.605	13.42
427.811	13.35
428.016	13.4
428.221	13.36
428.426	13.44
428.631	13.26
428.836	13.26
429.041	13.13
429.246	13.22
429.451	13.34
429.656	13.48
429.861	13.52
430.066	13.6
430.271	13.57
430.476	13.54
430.681	13.59
430.886	13.72
431.09	13.77
431.295	13.85
431.5	13.86
431.705	13.83
431.91	13.68
432.115	13.69
432.32	13.71
432.524	13.67
432.729	13.67
432.934	13.58
433.139	13.57
433.343	13.53
433.548	13.6
433.753	13.6
433.958	13.55
434.162	13.62
434.367	13.63
434.572	13.56
434.776	13.69
434.981	13.74
435.186	13.81
435.39	13.82
435.595	13.88
435.799	13.84
436.004	13.77
436.209	13.77
436.413	13.74
436.618	13.65
436.822	13.67
437.027	13.65
437.231	13.62
437.436	13.57
437.64	13.6
437.845	13.59
438.049	13.57
438.253	13.54
438.458	13.45
438.662	13.42
438.867	13.5
439.071	13.52
439.275	13.5
439.48	13.46
439.684	13.4
439.888	13.31
440.093	13.28
440.297	13.28
440.501	13.33
440.706	13.37
440.91	13.36
441.114	13.35
441.318	13.29
441.523	13.28
441.727	13.4
441.931	13.46
442.135	13.45
442.339	13.44
442.543	13.38
442.748	13.32
442.952	13.36
443.156	13.45
443.36	13.44
443.564	13.49
443.768	13.48
443.972	13.36
444.176	13.3
444.38	13.38
444.584	13.37
444.788	13.29
444.992	13.32
445.196	13.21
445.4	13.13
445.604	13.06
445.808	12.94
446.012	12.9
446.216	12.92
446.42	12.89
446.624	12.85
446.828	12.82
447.032	12.9
447.235	12.87
447.439	12.96
447.643	12.86
447.847	12.86
448.051	12.95
448.254	12.92
448.458	12.84
448.662	12.89
448.866	12.9
449.069	12.91
449.273	12.85
449.477	12.85
449.681	12.78
449.884	12.93
450.088	12.81
450.292	12.82
450.495	12.88
450.699	12.86
450.902	12.85
451.106	12.8
451.31	12.68
451.513	12.76
451.717	12.78
451.92	12.93
452.124	12.91
452.327	13.04
452.531	12.92
452.734	12.81
452.938	12.85
453.141	12.77
453.345	12.77
453.548	12.8
453.752	12.75
453.955	12.71
454.158	12.59
454.362	12.67
454.565	12.67
454.769	12.75
454.972	12.81
455.175	12.9
455.379	12.89
455.582	12.84
455.785	12.86
455.988	12.87
456.192	12.86
456.395	12.82
456.598	12.74
456.801	12.72
457.005	12.76
457.208	12.83
457.411	12.78
457.614	12.83
457.817	12.86
458.021	12.82
458.224	12.83
458.427	12.87
458.63	12.87
458.833	12.89
459.036	12.88
459.239	12.89
459.442	12.83
459.645	12.78
459.848	12.74
460.051	12.76
460.254	12.86
460.457	12.85
460.66	12.76
460.863	12.76
461.066	12.72
461.269	12.69
461.472	12.64
461.675	12.65
461.878	12.67
462.081	12.62
462.284	12.65
462.486	12.6
462.689	12.69
462.892	12.81
463.095	12.91
463.298	12.96
463.5	12.93
463.703	12.98
463.906	13.1
464.109	13.11
464.311	13.17
464.514	13.12
464.717	13.23
464.92	13.12
465.122	13.15
465.325	13
465.528	13.12
465.73	13.24
465.933	13.31
466.135	13.25
466.338	13.23
466.541	13.18
466.743	13.27
466.946	13.18
467.148	13.26
467.351	13.26
467.553	13.45
467.756	13.38
467.958	13.36
468.161	13.32
468.363	13.35
468.566	13.48
468.768	13.58
468.971	13.47
469.173	13.42
469.375	13.36
469.578	13.4
469.78	13.41
469.983	13.41
470.185	13.44
470.387	13.48
470.59	13.39
470.792	13.41
470.994	13.44
471.196	13.51
471.399	13.59
471.601	13.7
471.803	13.67
472.005	13.67
472.208	13.64
472.41	13.64
472.612	13.54
472.814	13.57
473.016	13.5
473.218	13.57
473.421	13.59
473.623	13.64
473.825	13.52
474.027	13.62
474.229	13.58
474.431	13.65
474.633	13.6
474.835	13.59
475.037	13.69
475.239	13.63
475.441	13.64
475.643	13.57
475.845	13.53
476.047	13.6
476.249	13.46
476.451	13.52
476.653	13.46
476.855	13.6
477.057	13.59
477.258	13.54
477.46	13.59
477.662	13.6
477.864	13.58
478.066	13.65
478.268	13.67
478.469	13.71
478.671	13.61
478.873	13.54
479.075	13.39
479.276	13.35
479.478	13.29
479.68	13.27
479.882	13.2
480.083	13.24
480.285	13.28
480.487	13.28
480.688	13.36
480.89	13.41
481.091	13.48
481.293	13.49
481.495	13.51
481.696	13.48
481.898	13.44
482.099	13.42
482.301	13.36
482.502	13.29
482.704	13.23
482.905	13.16
483.107	13.07
483.308	12.97
483.51	12.91
483.711	12.87
483.913	12.84
484.114	12.82
484.315	12.84
484.517	12.85
484.718	12.85
484.92	12.88
485.121	12.89
485.322	12.99
485.524	13.07
485.725	13.15
485.926	13.17
486.127	13.21
486.329	13.2
486.53	13.14
486.731	13.13
486.932	13.09
487.134	13.03
487.335	13.05
487.536	13
487.737	12.97
487.938	12.94
488.139	12.94
488.341	12.95
488.542	13.02
488.743	13.1
488.944	13.17
489.145	13.26
489.346	13.34
489.547	13.42
489.748	13.42
489.949	13.46
490.15	13.46
490.351	13.48
490.552	13.47
490.753	13.46
490.954	13.46
491.155	13.44
491.356	13.43
491.557	13.45
491.758	13.38
491.959	13.46
492.159	13.5
492.36	13.59
492.561	13.61
492.762	13.67
492.963	13.75
493.164	13.78
493.364	13.91
493.565	14.06
493.766	14.09
493.967	14.2
494.167	14.18
494.368	14.26
494.569	14.3
494.769	14.34
494.97	14.38
495.171	14.41
495.371	14.45
495.572	14.43
495.773	14.46
495.973	14.51
496.174	14.53
496.375	14.62
496.575	14.57
496.776	14.6
496.976	14.67
497.177	14.74
497.377	14.74
497.578	14.71
497.778	14.75
497.979	14.76
498.179	14.8
498.38	14.81
498.58	14.79
498.78	14.87
498.981	14.89
499.181	14.91
499.382	14.93
499.582	14.99
499.782	15.19
499.983	15.33
500.183	15.33
500.383	15.41
500.584	15.59
500.784	15.72
500.984	15.76
501.184	15.89
501.385	15.98
501.585	16.08
501.785	16.24
501.985	16.25
502.185	16.24
502.386	16.26
502.586	16.33
502.786	16.32
502.986	16.3
503.186	16.37
503.386	16.4
503.586	16.43
503.786	16.5
503.987	16.49
504.187	16.49
504.387	16.57
504.587	16.7
504.787	16.76
504.987	16.83
505.187	16.95
505.387	17.09
505.587	17.17
505.786	17.34
505.986	17.37
506.186	17.36
506.386	17.44
506.586	17.52
506.786	17.55
506.986	17.58
507.186	17.68
507.386	17.77
507.585	17.78
507.785	17.84
507.985	17.78
508.185	17.87
508.384	18.03
508.584	18.09
508.784	18.12
508.984	18.24
509.183	18.38
509.383	18.43
509.583	18.49
509.782	18.58
509.982	18.76
510.182	18.93
510.381	19.05
510.581	19.05
510.781	19.2
510.98	19.26
511.18	19.3
511.379	19.34
511.579	19.39
511.778	19.44
511.978	19.54
512.177	19.44
512.377	19.48
512.576	19.46
512.776	19.56
512.975	19.57
513.175	19.61
513.374	19.67
513.573	19.7
513.773	19.77
513.972	19.94
514.172	19.99
514.371	20.15
514.57	20.23
514.77	20.4
514.969	20.47
515.168	20.54
515.367	20.67
515.567	20.8
515.766	20.93
515.965	20.99
516.164	20.98
516.364	21.04
516.563	21.06
516.762	21.14
516.961	21.1
517.16	21.17
517.359	21.2
517.559	21.23
517.758	21.24
517.957	21.21
518.156	21.31
518.355	21.28
518.554	21.3
518.753	21.37
518.952	21.29
519.151	21.38
519.35	21.4
519.549	21.49
519.748	21.48
519.947	21.51
520.146	21.6
520.345	21.6
520.544	21.71
520.743	21.82
520.942	21.86
521.141	22.03
521.339	22.03
521.538	22.1
521.737	22.17
521.936	22.31
522.135	22.43
522.333	22.5
522.532	22.58
522.731	22.71
522.93	22.72
523.129	22.73
523.327	22.77
523.526	22.79
523.725	22.82
523.923	22.84
524.122	22.91
524.321	22.92
524.519	22.97
524.718	22.98
524.917	22.91
525.115	22.98
525.314	23.13
525.512	23.18
525.711	23.29
525.909	23.39
526.108	23.45
526.306	23.47
526.505	23.53
526.703	23.57
526.902	23.61
527.1	23.69
527.299	23.67
527.497	23.6
527.696	23.57
527.894	23.55
528.092	23.49
528.291	23.46
528.489	23.43
528.688	23.41
528.886	23.38
529.084	23.37
529.283	23.33
529.481	23.4
529.679	23.46
529.877	23.55
530.076	23.63
530.274	23.77
530.472	23.84
530.67	23.97
530.869	24.08
531.067	24.18
531.265	24.25
531.463	24.34
531.661	24.35
531.859	24.36
532.057	24.35
532.255	24.36
532.454	24.32
532.652	24.33
532.85	24.32
533.048	24.31
533.246	24.32
533.444	24.32
533.642	24.36
533.84	24.43
534.038	24.5
534.236	24.55
534.434	24.61
534.632	24.65
534.83	24.82
535.027	24.85
535.225	24.9
535.423	24.94
535.621	24.97
535.819	24.95
536.017	24.88
536.215	24.99
536.412	25.05
536.61	25.07
536.808	25.24
537.006	25.14
537.203	25.26
537.401	25.38
537.599	25.49
537.797	25.67
537.994	25.85
538.192	26.06
538.39	26.19
538.587	26.27
538.785	26.34
538.983	26.35
539.18	26.46
539.378	26.49
539.575	26.47
539.773	26.41
539.97	26.32
540.168	26.24
540.366	26.2
540.563	26.08
540.761	26.05
540.958	26.03
541.155	26
541.353	25.96
541.55	25.96
541.748	25.95
541.945	26.01
542.143	26.13
542.34	26.18
542.537	26.24
542.735	26.32
542.932	26.36
543.129	26.47
543.327	26.54
543.524	26.67
543.721	26.73
543.919	26.82
544.116	26.83
544.313	26.86
544.51	26.91
544.708	26.97
544.905	27.05
545.102	27.13
545.299	27.16
545.496	27.21
545.693	27.18
545.891	27.22
546.088	27.25
546.285	27.26
546.482	27.28
546.679	27.36
546.876	27.4
547.073	27.41
547.27	27.52
547.467	27.56
547.664	27.67
547.861	27.76
548.058	27.71
548.255	27.77
548.452	27.88
548.649	27.93
548.846	27.99
549.043	28.1
549.24	28.23
549.437	28.28
549.633	28.42
549.83	28.48
550.027	28.52
550.224	28.67
550.421	28.84
550.618	28.97
550.814	29.06
551.011	29.15
551.208	29.2
551.405	29.28
551.601	29.3
551.798	29.3
551.995	29.33
552.191	29.42
552.388	29.52
552.585	29.49
552.781	29.43
552.978	29.49
553.175	29.59
553.371	29.57
553.568	29.62
553.764	29.62
553.961	29.65
554.157	29.71
554.354	29.79
554.55	29.88
554.747	29.97
554.943	30.14
555.14	30.26
555.336	30.32
555.533	30.43
555.729	30.51
555.926	30.73
556.122	30.73
556.318	30.91
556.515	31.02
556.711	31.02
556.907	31.05
557.104	31.09
557.3	31.03
557.496	31
557.693	31.04
557.889	31.05
558.085	31.02
558.281	31.17
558.478	31.15
558.674	31.22
558.87	31.37
559.066	31.38
559.262	31.45
559.459	31.61
559.655	31.75
559.851	31.82
560.047	31.89
560.243	31.91
560.439	31.99
560.635	32.05
560.831	31.97
561.027	31.95
561.223	32.12
561.419	32.21
561.615	32.23
561.811	32.3
562.007	32.37
562.203	32.53
562.399	32.87
562.595	32.92
562.791	33.06
562.987	33.28
563.183	33.42
563.379	33.38
563.575	33.49
563.771	33.64
563.966	33.8
564.162	33.89
564.358	33.95
564.554	33.9
564.75	33.99
564.945	34
565.141	33.91
565.337	33.94
565.533	34.05
565.728	33.93
565.924	33.84
566.12	33.81
566.315	33.92
566.511	33.81
566.707	33.86
566.902	34.03
567.098	34.02
567.293	34.18
567.489	34.22
567.684	34.28
567.88	34.55
568.076	34.73
568.271	34.85
568.467	35.01
568.662	35.18
568.858	35.23
569.053	35.29
569.248	35.44
569.444	35.63
569.639	35.86
569.835	35.92
570.03	35.92
570.225	36
570.421	36
570.616	35.93
570.812	36.05
571.007	36.09
571.202	36.12
571.397	36.16
571.593	36.08
571.788	35.99
571.983	36.04
572.178	36.08
572.374	36.14
572.569	36.15
572.764	36.31
572.959	36.34
573.154	36.46
573.35	36.46
573.545	36.49
573.74	36.71
573.935	36.74
574.13	36.92
574.325	36.97
574.52	37
574.715	37.09
574.91	37.09
575.105	37.21
575.3	37.22
575.495	37.25
575.69	37.42
575.885	37.46
576.08	37.54
576.275	37.46
576.47	37.56
576.665	37.55
576.86	37.58
577.055	37.61
577.25	37.58
577.444	37.5
577.639	37.73
577.834	37.69
578.029	37.63
578.224	37.71
578.418	37.87
578.613	37.96
578.808	38.13
579.003	38.27
579.197	38.41
579.392	38.49
579.587	38.77
579.781	38.62
579.976	38.81
580.171	38.86
580.365	38.86
580.56	38.84
580.755	38.89
580.949	39.06
581.144	39.07
581.338	39.04
581.533	39.17
581.727	39.18
581.922	39.35
582.116	39.38
582.311	39.6
582.505	39.94
582.7	40.16
582.894	40.2
583.089	40.19
583.283	40.34
583.478	40.61
583.672	40.7
583.866	40.75
584.061	40.84
584.255	40.92
584.449	40.87
584.644	40.71
584.838	40.66
585.032	40.68
585.226	40.83
585.421	40.96
585.615	40.87
585.809	40.9
586.003	40.98
586.198	40.95
586.392	40.94
586.586	41.08
586.78	41.23
586.974	41.39
587.168	41.46
587.363	41.44
587.557	41.54
587.751	41.66
587.945	41.81
588.139	42.04
588.333	42.29
588.527	42.3
588.721	42.42
588.915	42.47
589.109	42.39
589.303	42.49
589.497	42.63
589.691	42.6
589.885	42.58
590.079	42.39
590.273	42.39
590.466	42.33
590.66	42.42
590.854	42.32
591.048	42.3
591.242	42.41
591.436	42.52
591.629	42.64
591.823	42.45
592.017	42.46
592.211	42.57
592.404	42.67
592.598	42.56
592.792	42.7
592.986	42.81
593.179	42.89
593.373	42.82
593.567	42.79
593.76	42.75
593.954	42.98
594.147	43.09
594.341	43.27
594.535	43.19
594.728	43.34
594.922	43.28
595.115	43.32
595.309	43.32
595.502	43.53
595.696	43.59
595.889	43.63
596.083	43.62
596.276	43.6
596.47	43.66
596.663	43.75
596.856	43.69
597.05	43.67
597.243	43.58
597.437	43.7
597.63	43.72
597.823	43.91
598.017	43.96
598.21	44.13
598.403	44.35
598.596	44.16
598.79	43.97
598.983	44.25
599.176	44.52
599.369	44.81
599.563	44.76
599.756	44.73
599.949	44.67
600.142	44.61
600.335	44.6
600.528	44.47
600.722	44.71
600.915	45.14
601.108	45.14
601.301	45.13
601.494	45.09
601.687	45.22
601.88	45.33
602.073	45.37
602.266	45.47
602.459	45.5
602.652	45.62
602.845	45.7
603.038	45.53
603.231	45.41
603.424	45.36
603.617	45.26
603.809	45.28
604.002	45.13
604.195	45.1
604.388	45
604.581	45.02
604.774	44.95
604.966	44.79
605.159	44.84
605.352	45.02
605.545	45.21
605.737	45.42
605.93	45.49
606.123	45.68
606.316	45.74
606.508	45.97
606.701	46
606.894	46.18
607.086	46.47
607.279	46.55
607.471	46.54
607.664	46.51
607.857	46.46
608.049	46.47
608.242	46.45
608.434	46.5
608.627	46.42
608.819	46.4
609.012	46.32
609.204	46.2
609.397	46.04
609.589	46.07
609.782	46.1
609.974	46.14
610.166	46.21
610.359	46.26
610.551	46.3
610.743	46.31
610.936	46.44
611.128	46.61
611.32	46.61
611.513	46.7
611.705	46.76
611.897	46.82
612.09	46.79
612.282	46.65
612.474	46.63
612.666	46.62
612.858	46.77
613.051	46.68
613.243	46.74
613.435	46.91
613.627	47.05
613.819	47.03
614.011	46.94
614.203	47.13
614.395	47.14
614.588	47.19
614.78	47.27
614.972	47.22
615.164	47.18
615.356	46.84
615.548	46.69
615.74	46.73
615.932	46.6
616.124	46.67
616.315	46.78
616.507	46.85
616.699	46.87
616.891	46.73
617.083	46.65
617.275	46.86
617.467	47.06
617.659	47.32
617.85	47.37
618.042	47.56
618.234	47.4
618.426	47.28
618.618	47.34
618.809	47.23
619.001	47.19
619.193	47.29
619.384	47.29
619.576	47.34
619.768	47.17
619.959	47.12
620.151	47.22
620.343	47.33
620.534	47.32
620.726	47.26
620.917	47.49
621.109	47.83
621.301	47.89
621.492	48.19
621.684	48.12
621.875	48.11
622.067	48.17
622.258	48.25
622.45	48.35
622.641	48.4
622.832	48.43
623.024	48.37
623.215	48.28
623.407	48.38
623.598	48.11
623.789	48.28
623.981	48.36
624.172	48.27
624.363	48.38
624.555	48.35
624.746	48.4
624.937	48.49
625.129	48.63
625.32	48.7
625.511	48.66
625.702	48.69
625.893	48.64
626.085	48.51
626.276	48.73
626.467	48.49
626.658	48.49
626.849	48.51
627.04	48.63
627.231	48.43
627.422	48.34
627.614	48.46
627.805	48.51
627.996	48.64
628.187	48.86
628.378	48.71
628.569	48.92
628.76	48.92
628.951	48.98
629.142	48.71
629.332	48.71
629.523	48.85
629.714	48.94
629.905	48.94
630.096	48.87
630.287	48.94
630.478	48.95
630.669	48.74
630.859	49.01
631.05	48.97
631.241	49.18
631.432	49.41
631.623	49.45
631.813	49.29
632.004	49.32
632.195	49.28
632.385	49.16
632.576	49.39
632.767	49.54
632.957	49.45
633.148	49.5
633.339	49.55
633.529	49.66
633.72	49.66
633.91	49.96
634.101	49.85
634.292	49.98
634.482	50.05
634.673	50.05
634.863	50.11
635.054	50.07
635.244	49.85
635.435	49.92
635.625	49.81
635.815	49.84
636.006	49.63
636.196	49.77
636.387	49.78
636.577	49.94
636.767	49.95
636.958	49.97
637.148	50.09
637.338	50.38
637.529	50.31
637.719	50.38
637.909	50.3
638.099	50.21
638.29	50.18
638.48	50.34
638.67	50.18
638.86	50.06
639.05	50.05
639.241	49.88
639.431	50.03
639.621	50.15
639.811	50.17
640.001	50.3
640.191	50.56
640.381	50.71
640.571	50.49
640.761	50.52
640.951	50.69
641.141	50.55
641.331	50.68
641.521	50.54
641.711	50.49
641.901	50.5
642.091	50.37
642.281	50.21
642.471	50.34
642.661	50.31
642.851	50.41
643.041	50.32
643.231	50.4
643.42	50.3
643.61	50.42
643.8	50.52
643.99	50.67
644.18	50.72
644.369	50.69
644.559	50.59
644.749	50.77
644.939	50.86
645.128	50.68
645.318	50.92
645.508	50.96
645.697	50.71
645.887	50.65
646.076	50.59
646.266	50.54
646.456	50.71
646.645	50.76
646.835	50.83
647.024	50.77
647.214	50.99
647.403	50.86
647.593	51.01
647.782	51.24
647.972	51.27
648.161	51.19
648.351	51.38
648.54	51.52
648.73	51.53
648.919	51.36
649.108	51.23
649.298	51.24
649.487	51.26
649.677	51.43
649.866	51.5
650.055	51.56
650.244	51.39
650.434	51.36
650.623	51.27
650.812	51.33
651.002	51.47
651.191	51.6
651.38	51.66
651.569	51.65
651.758	51.43
651.947	51.35
652.137	51.2
652.326	51.58
652.515	51.54
652.704	51.53
652.893	51.31
653.082	51.4
653.271	51.51
653.46	51.5
653.649	51.65
653.838	51.74
654.027	51.77
654.216	52.04
654.405	51.92
654.594	51.95
654.783	51.89
654.972	51.98
655.161	51.91
655.35	51.81
655.539	51.63
655.728	51.52
655.916	51.84
656.105	51.86
656.294	51.78
656.483	51.85
656.672	51.86
656.86	51.88
657.049	51.88
657.238	51.81
657.427	51.73
657.615	51.99
657.804	52.12
657.993	51.75
658.181	51.76
658.37	51.74
658.559	51.82
658.747	51.91
658.936	51.82
659.125	51.96
659.313	52.07
659.502	52.21
659.69	52.24
659.879	52.24
660.067	52.46
660.256	52.34
660.444	52.35
660.633	52.2
660.821	52.07
661.01	52.16
661.198	52.03
661.387	51.99
661.575	52.18
661.763	52
661.952	51.96
662.14	52
662.328	52.16
662.517	52.43
662.705	52.46
662.893	52.55
663.082	52.55
663.27	52.57
663.458	52.63
663.646	52.5
663.834	52.51
664.023	52.34
664.211	52.07
664.399	51.8
664.587	51.76
664.775	51.67
664.963	51.85
665.152	51.89
665.34	52.12
665.528	52.04
665.716	51.92
665.904	52.3
666.092	52.64
666.28	52.56
666.468	52.78
666.656	52.72
666.844	53
667.032	52.72
667.22	52.71
667.408	52.66
667.596	52.61
667.784	52.89
667.971	52.52
668.159	52.52
668.347	52.69
668.535	52.97
668.723	52.8
668.911	52.43
669.098	52.52
669.286	52.44
669.474	52.24
669.662	52.56
669.849	52.42
670.037	52.52
670.225	52.64
670.413	52.87
670.6	52.68
670.788	52.67
670.976	52.84
671.163	53.01
671.351	53
671.538	53.39
671.726	53.35
671.913	53.26
672.101	53.24
672.289	53.05
672.476	52.9
672.664	52.86
672.851	53.01
673.039	53.06
673.226	52.69
673.413	52.89
673.601	52.56
673.788	52.46
673.976	52.62
674.163	52.64
674.35	52.53
674.538	52.59
674.725	52.54
674.912	52.47
675.1	52.4
675.287	52.92
675.474	52.97
675.662	53.43
675.849	53.45
676.036	53.57
676.223	53.48
676.411	53.76
676.598	53.63
676.785	53.66
676.972	53.81
677.159	53.92
677.346	53.53
677.533	53.78
677.721	53.28
677.908	53.29
678.095	53.15
678.282	53.31
678.469	53.27
678.656	53.38
678.843	53.48
679.03	53.39
679.217	53.51
679.404	53.82
679.591	53.58
679.778	53.65
679.964	53.69
680.151	53.8
680.338	53.84
680.525	53.76
680.712	53.76
680.899	53.73
681.086	53.84
681.272	53.79
681.459	53.82
681.646	53.89
681.833	53.96
682.02	53.98
682.206	54.11
682.393	54.24
682.58	54.1
682.766	54.04
682.953	54.04
683.14	53.95
683.326	53.9
683.513	53.94
683.7	53.83
683.886	53.7
684.073	53.74
684.259	53.57
684.446	53.51
684.632	53.7
684.819	54
685.005	53.96
685.192	53.8
685.378	53.89
685.565	53.83
685.751	53.83
685.938	54.22
686.124	54.04
686.31	53.97
686.497	54.04
686.683	54.11
686.87	54.1
687.056	54.02
687.242	53.88
687.429	53.88
687.615	53.68
687.801	53.88
687.987	53.78
688.174	53.92
688.36	53.84
688.546	53.77
688.732	53.73
688.918	53.4
689.105	53.62
689.291	53.61
689.477	53.25
689.663	53.27
689.849	53.32
690.035	53.24
690.221	53.02
690.407	53.19
690.593	53.1
690.779	52.9
690.965	53.18
691.151	53.01
691.337	53.15
691.523	53.49
691.709	53.56
691.895	53.32
692.081	53.25
692.267	53.75
692.453	53.39
692.639	53.55
692.825	53.74
693.011	53.87
693.196	54.06
693.382	54.46
693.568	54.45
693.754	54.79
693.94	54.81
694.125	55.21
694.311	54.72
694.497	55.25
694.682	55.19
694.868	55.28
695.054	54.98
695.239	54.87
695.425	54.76
695.611	54.69
695.796	54.38
695.982	54.35
696.168	54.19
696.353	54.48
696.539	54.21
696.724	54.26
696.91	54.14
697.095	54.4
697.281	54.61
697.466	54.51
697.652	54.54
697.837	54.6
698.023	54.71
698.208	54.58
698.393	54.3
698.579	54.37
698.764	54.32
698.949	54.43
699.135	54.26
699.32	54.17
699.505	54.11
699.691	54.09
699.876	53.97
700.061	53.68
700.246	53.63
700.432	54.02
700.617	53.97
700.802	53.99
700.987	54
701.172	54.27
701.358	54.11
701.543	54.22
701.728	54.53
701.913	54.61
702.098	54.68
702.283	55
702.468	54.96
702.653	55.1
702.838	55.08
703.023	54.95
703.208	54.91
703.393	55.3
703.578	55.43
703.763	55.34
703.948	55.23
704.133	55.63
704.318	55.6
704.503	55.67
704.688	55.95
704.873	55.81
705.057	55.82
705.242	55.57
705.427	55.39
705.612	55.62
705.797	55.38
705.981	55.27
706.166	55.46
706.351	55.27
706.536	55
706.72	54.87
706.905	55.15
707.09	55.03
707.274	55
707.459	54.85
707.644	54.63
707.828	54.67
708.013	54.89
708.197	54.93
708.382	55.02
708.567	54.76
708.751	54.29
708.936	54.01
709.12	54.24
709.305	54.48
709.489	54.49
709.673	54.59
709.858	54.56
710.042	54.47
710.227	54.36
710.411	54.25
710.596	54.44
710.78	54.57
710.964	54.68
711.149	54.81
711.333	54.62
711.517	54.95
711.702	54.71
711.886	54.74
712.07	54.96
712.254	54.68
712.438	54.67
712.623	54.56
712.807	54.9
712.991	55.29
713.175	55.14
713.359	54.85
713.544	54.49
713.728	54.79
713.912	54.72
714.096	54.44
714.28	54.73
714.464	54.98
714.648	55.11
714.832	54.87
715.016	54.55
715.2	54.52
715.384	54.77
715.568	54.71
715.752	54.54
715.936	54.67
716.12	54.94
716.304	54.9
716.488	54.77
716.671	54.97
716.855	55
717.039	55.15
717.223	55.5
717.407	55.71
717.59	55.95
717.774	56.16
717.958	56.26
718.142	56.36
718.325	56.29
718.509	56.47
718.693	56.39
718.877	56.55
719.06	56.57
719.244	56.14
719.428	55.98
719.611	55.98
719.795	55.82
719.978	55.89
720.162	55.9
720.345	56.05
720.529	55.68
720.713	55.81
720.896	55.61
721.08	55.32
721.263	55.26
721.446	55.19
721.63	55.19
721.813	54.98
721.997	54.99
722.18	54.85
722.364	54.86
722.547	55.5
722.73	55.38
722.914	55.86
723.097	56.05
723.28	56.6
723.464	57.1
723.647	56.72
723.83	57.45
724.013	57.51
724.197	57.51
724.38	57.41
724.563	56.88
724.746	56.78
724.929	56.52
725.112	56.77
725.296	56.42
725.479	56.25
725.662	56.6
725.845	55.98
726.028	55.95
726.211	55.78
726.394	55.75
726.577	55.93
726.76	56.03
726.943	56.11
727.126	55.7
727.309	55.75
727.492	55.34
727.675	55.24
727.858	55.76
728.041	55.6
728.224	56.27
728.407	56.45
728.589	56.29
728.772	55.96
728.955	55.75
729.138	55.54
729.321	54.96
729.503	55.1
729.686	55.2
729.869	54.97
730.052	55.23
730.234	54.79
730.417	54.58
730.6	54.83
730.782	55.02
730.965	55.34
731.148	55.59
731.33	56.07
731.513	56.31
731.695	56.32
731.878	56.11
732.061	56.28
732.243	56.39
732.426	56.43
732.608	56.51
732.791	56.55
732.973	56.35
733.156	56.19
733.338	56.09
733.52	55.8
733.703	55.81
733.885	56.47
734.068	56.2
734.25	56.45
734.432	55.86
734.615	55.51
734.797	55.21
734.979	55.38
735.162	55.57
735.344	55.43
735.526	55.38
735.708	55.22
735.891	54.53
736.073	54.53
736.255	53.82
736.437	54.81
736.619	55.03
736.802	55.09
736.984	54.63
737.166	55.03
737.348	55.34
737.53	56.08
737.712	56.3
737.894	56.26
738.076	56.09
738.258	56.33
738.44	56.02
738.622	56.17
738.804	56.51
738.986	57.21
739.168	56.78
739.35	56.95
739.532	56.2
739.714	56.28
739.896	56.54
740.078	56.77
740.259	56.76
740.441	56.88
740.623	56.78
740.805	56.47
740.987	55.75
741.168	56.11
741.35	55.83
741.532	55.95
741.714	55.33
741.895	55.24
742.077	55.23
742.259	55.44
742.44	55.32
742.622	55.1
742.804	55.09
742.985	55.45
743.167	55.51
743.348	55.77
743.53	56.03
743.711	56.14
743.893	56.13
744.075	56.34
744.256	56.13
744.438	56.13
744.619	55.69
744.8	55.86
744.982	55.67
745.163	55.59
745.345	55.35
745.526	54.78
745.707	55.03
745.889	55.09
746.07	54.86
746.252	55.76
746.433	55.88
746.614	55.95
746.795	56.27
746.977	56.51
747.158	56.84
747.339	56.67
747.52	56.91
747.702	56.97
747.883	57.08
748.064	56.82
748.245	55.79
748.426	55.27
748.607	55.82
748.788	55.89
748.97	55.95
749.151	54.53
749.332	54.79
749.513	54.74
749.694	54.57
749.875	54.51
750.056	54.45
750.237	54.33
750.418	54.63
750.599	54.51
750.78	54.78
750.96	54.6
751.141	55.09
751.322	55.37
751.503	55.34
751.684	55.51
751.865	55.36
752.046	55.22
752.226	55.92
752.407	55.39
752.588	55.22
752.769	54.8
752.949	54.61
753.13	54.57
753.311	53.97
753.492	54.11
753.672	53.7
753.853	53.69
754.034	53.75
754.214	53.67
754.395	54.17
754.575	54.49
754.756	54.52
754.937	54.57
755.117	55.19
755.298	56.12
755.478	56.09
755.659	56.04
755.839	55.8
756.02	56.37
756.2	56.08
756.381	55.72
756.561	55.79
756.741	55.35
756.922	55.21
757.102	54.63
757.283	54.09
757.463	54.31
757.643	55.52
757.823	55.89
758.004	55.71
758.184	54.97
758.364	55.47
758.545	54.93
758.725	55.46
758.905	55.3
759.085	55.61
759.265	55.33
759.446	55.51
759.626	54.81
759.806	54.34
759.986	54.24
760.166	55.14
760.346	54.87
760.526	54.95
760.706	54.86
760.886	55.44
761.066	55.21
761.246	55.33
761.426	55.52
761.606	55.42
761.786	55.52
761.966	55.5
762.146	55.22
762.326	55.06
762.506	55.05
762.686	55.26
762.866	55.43
763.046	55.75
763.225	55.85
763.405	55.56
763.585	55.39
763.765	55.36
763.945	55.38
764.124	55.6
764.304	55.8
764.484	56
764.664	55.71
764.843	55.5
765.023	55.37
765.203	55.24
765.382	54.96
765.562	55.57
765.741	55.47
765.921	55.75
766.101	55.64
766.28	55.54
766.46	55.54
766.639	55.62
766.819	55.55
766.998	55.31
767.178	55.09
767.357	55.21
767.537	54.95
767.716	55.4
767.896	54.98
768.075	55.04
768.254	55.47
768.434	55.73
768.613	55.96
768.792	55.55
768.972	56.33
769.151	56.02
769.33	56.06
769.51	56.21
769.689	56.5
769.868	56.53
770.047	56.15
770.226	55.72
770.406	54.48
770.585	54.54
770.764	54.38
770.943	53.27
771.122	54.3
771.301	54.36
771.48	54.72
771.66	54.4
771.839	54.59
772.018	54.27
772.197	54.78
772.376	55.85
772.555	55.81
772.734	56.45
772.913	57.08
773.092	56.75
773.271	57.62
773.449	57.39
773.628	57.18
773.807	57.25
773.986	58.07
774.165	56.98
774.344	56.88
774.523	56.58
774.701	55.75
774.88	55.49
775.059	55.1
775.238	53.93
775.417	53.76
775.595	54.68
775.774	54.68
775.953	54.26
776.131	54.87
776.31	55.09
776.489	54.69
776.667	55.21
776.846	54.72
777.025	54.72
777.203	55.12
777.382	54.82
777.56	54.52
777.739	53.55
777.917	54.33
778.096	54.45
778.274	53.92
778.453	54.06
778.631	55
778.81	55.02
778.988	55.49
779.166	55.55
779.345	56.26
779.523	55.78
779.702	56.23
779.88	56.07
780.058	55.26
780.237	55.89
780.415	56.3
780.593	55.58
780.771	56.28
780.95	55.87
781.128	55.97
781.306	55.06
781.484	55.53
781.662	55.41
781.841	54.42
782.019	54.91
782.197	54.47
782.375	54.23
782.553	54.23
782.731	54.22
782.909	53.99
783.087	54.21
783.265	54.57
783.443	53.45
783.621	53
783.799	53.69
783.977	54.2
784.155	54.68
784.333	55.23
784.511	54.78
784.689	54.2
784.867	55.04
785.045	53.27
785.223	52.82
785.4	52.76
785.578	53.1
785.756	53.08
785.934	53.94
786.112	53.45
786.289	53.29
786.467	53.13
786.645	53.71
786.823	52.88
787	54.04
787.178	54.48
787.356	54.79
787.533	54.93
787.711	54.97
787.889	53.58
788.066	53.99
788.244	53.96
788.421	54.48
788.599	54.14
788.776	53.94
788.954	54.58
789.131	53.83
789.309	54.38
789.486	54.17
789.664	53.95
789.841	54.94
790.019	54.63
790.196	54.19
790.373	54.31
790.551	54.8
790.728	55.05
790.906	55.13
791.083	55.74
791.26	55
791.437	55.17
791.615	55.44
791.792	54.37
791.969	54.43
792.146	54.81
792.324	54.57
792.501	54.43
792.678	54.86
792.855	53.95
793.032	53.55
793.209	53.99
793.387	54.15
793.564	54.05
793.741	55.66
793.918	55.99
794.095	55.7
794.272	56.27
794.449	55.64
794.626	55.89
794.803	56.06
794.98	56.47
795.157	56.07
795.334	55.25
795.511	54.51
795.688	53.22
795.864	53.1
796.041	52.89
796.218	51.94
796.395	51.77
796.572	51.33
796.749	51.2
796.925	50.79
797.102	50.67
797.279	51.87
797.456	52.41
797.632	53.11
797.809	52.76
797.986	54.24
798.162	53.84
798.339	54.15
798.516	53.74
798.692	53.83
798.869	55.06
799.046	55.3
799.222	55.34
799.399	54.77
799.575	54.06
799.752	53.82
799.928	52.75
800.105	53.86
800.281	54.38
800.458	55.55
800.634	55.1
800.811	53.19
800.987	53.12
801.163	52.92
801.34	53.13
801.516	54.09
801.692	54.02
801.869	53.69
802.045	52.86
802.221	53.17
802.398	53.8
802.574	53.93
802.75	55.32
802.926	56.8
803.103	56.47
803.279	56.25
803.455	55.58
803.631	56.47
803.807	57.1
803.983	58.43
804.16	57.27
804.336	56.13
804.512	57.15
804.688	55.74
804.864	54.01
805.04	54.43
805.216	54.72
805.392	55.06
805.568	54.47
805.744	53.26
805.92	52.8
806.096	53.19
806.272	52.07
806.448	50.83
806.623	51.66
806.799	52.42
806.975	51.09
807.151	51.84
807.327	50.82
807.503	50
807.678	51.22
807.854	51.27
808.03	50.72
808.206	52.18
808.381	52.67
808.557	53.36
808.733	52.49
808.908	52.98
809.084	53.77
809.26	55.21
809.435	55.89
809.611	56.44
809.787	57
809.962	57.69
810.138	57.48
810.313	56.98
810.489	56.22
810.664	56.79
810.84	57.64
811.015	55.8
811.191	54.74
811.366	55.81
811.542	54.48
811.717	53.57
811.892	53.29
812.068	52.42
812.243	53.33
812.419	54.03
812.594	54
812.769	54
812.944	54.72
813.12	54.36
813.295	54.46
813.47	54.82
813.645	53.94
813.821	53.99
813.996	55.64
814.171	55.51
814.346	54.23
814.521	53.88
814.697	53.39
814.872	53.65
815.047	53.54
815.222	52.53
815.397	52.15
815.572	53.22
815.747	53.1
815.922	52.89
816.097	52.62
816.272	52.94
816.447	53.74
816.622	54.61
816.797	54.06
816.972	55.6
817.147	55.91
817.322	57.18
817.496	56.87
817.671	57.09
817.846	55.87
818.021	54.78
818.196	54.6
818.371	54.86
818.545	54.2
818.72	54.06
818.895	52.93
819.069	52.57
819.244	52.24
819.419	51.91
819.594	51.66
819.768	53.07
819.943	53.98
820.117	53.89
820.292	53.94
820.467	53.4
820.641	52.96
820.816	53.42
820.99	53.13
821.165	52.68
821.339	52.82
821.514	52.62
821.688	52.32
821.863	52.35
822.037	52.26
822.212	52.22
822.386	52.27
822.56	52.61
822.735	52.45
822.909	52.6
823.084	52.49
823.258	52.54
823.432	52.77
823.606	52.51
823.781	52.25
823.955	52.24
824.129	51.81
824.303	52.01
824.478	52.1
824.652	51.69
824.826	51.76
825	51.87
825.174	51.54
825.348	51.1
825.523	51.34
825.697	51.23
825.871	51.23
826.045	51.27
826.219	51.13
826.393	50.68
826.567	51.13
826.741	50.88
826.915	50.99
827.089	51.15
827.263	51.82
827.437	51.8
827.611	52.28
827.784	52.11
827.958	52.05
828.132	51.56
828.306	51.6
828.48	51.62
828.654	51.59
828.827	51.87
829.001	52.01
829.175	51.74
829.349	52.06
829.522	52.28
829.696	52.83
829.87	53.01
830.044	53.93
830.217	53.3
830.391	53.22
830.565	53.91
830.738	53.92
830.912	53.08
831.085	52.66
831.259	52.08
831.432	51.8
831.606	51.99
831.779	52.57
831.953	52.23
832.126	52.72
832.3	52.49
832.473	52.3
832.647	51.47
832.82	51.56
832.994	51
833.167	50.76
833.34	50.72
833.514	50.59
833.687	50.08
833.86	50.63
834.034	50.48
834.207	50.43
834.38	50.3
834.553	51.25
834.727	52.27
834.9	53.44
835.073	54.02
835.246	54.03
835.419	53.85
835.593	54.05
835.766	53.55
835.939	53.97
836.112	53.21
836.285	53.63
836.458	52.97
836.631	51.69
836.804	49.84
836.977	49.2
837.15	48.61
837.323	48.84
837.496	49.2
837.669	49.37
837.842	48.69
838.015	49.54
838.188	47.76
838.361	47.86
838.533	47.24
838.706	48.02
838.879	49.05
839.052	49.86
839.225	50.54
839.398	50.67
839.57	51.47
839.743	51.33
839.916	51.47
840.088	50.72
840.261	50.5
840.434	51.39
840.607	53.18
840.779	54.07
840.952	52.43
841.124	51.55
841.297	51.97
841.47	51.18
841.642	52.56
841.815	53.5
841.987	56.43
842.16	56.84
842.332	57.56
842.505	56.53
842.677	56.19
842.85	57.28
843.022	57.06
843.194	57.38
843.367	55.12
843.539	54.18
843.712	53.2
843.884	51.3
844.056	53.05
844.229	53.08
844.401	49.4
844.573	46.69
844.745	46.7
844.918	49.07
845.09	50.65
845.262	52.96
845.434	52.11
845.606	52.48
845.779	52.96
845.951	48.56
846.123	47.01
846.295	50.69
846.467	50.6
846.639	51.67
846.811	50.5
846.983	47.73
847.155	50.74
847.327	55.01
847.499	55.56
847.671	54.25
847.843	54.1
848.015	52.94
848.187	51.09
848.359	52.67
848.531	54.76
848.703	54.41
848.875	54.43
849.047	53.28
849.218	49.5
849.39	50.76
849.562	50.23
849.734	52.33
849.905	53.88
850.077	59.22
850.249	59.22
850.421	58.91
850.592	60.9
850.764	61.83
850.936	60.86
851.107	62.96
851.279	60.68
851.451	63.67
851.622	63.41
851.794	65.36
851.965	60.46
852.137	60.43
852.308	57.95
852.48	60.37
852.651	58.55
852.823	58.24
852.994	56.5
853.166	58.59
853.337	60.48
853.509	60.52
853.68	59.28
853.851	62.26
854.023	63.95
854.194	66.64
854.365	62.6
854.537	64.88
854.708	68.51
854.879	64.85
855.05	63.41
855.222	59.8
855.393	59.24
855.564	59.5
855.735	57.13
855.906	56.34
856.078	53.28
856.249	53.57
856.42	53.43
856.591	52.92
856.762	55.89
856.933	56.46
857.104	57.93
857.275	60.49
857.446	59.06
857.617	58.68
857.788	54.32
857.959	54.59
858.13	50.12
858.301	48.72
858.472	46.89
858.643	47.24
858.814	46.36
858.985	41.89
859.155	41.12
859.326	44.08
859.497	45.52
859.668	47.05
859.839	47.49
860.009	49.8
860.18	49.85
860.351	50.63
860.522	47.66
860.692	50.25
860.863	54.23
861.034	50.91
861.204	48.93
861.375	48.26
861.546	50.29
861.716	49.18
861.887	50.81
862.057	48.83
862.228	47.07
862.398	48.5
862.569	48.33
862.739	50.38
862.91	50.77
863.08	52.45
863.251	52.15
863.421	54.59
863.592	52.85
863.762	51.18
863.932	51.37
864.103	50.86
864.273	51.03
864.443	49.3
864.614	42.03
864.784	45.66
864.954	43.56
865.125	43.35
865.295	43.21
865.465	45.96
865.635	47.26
865.805	47.95
865.976	49.38
866.146	52.36
866.316	51.82
866.486	53.71
866.656	53.59
866.826	52.71
866.996	53.62
867.166	55.22
867.336	56.62
867.506	54.81
867.676	60.02
867.846	57.55
868.016	57.92
868.186	59.62
868.356	63.15
868.526	58.49
868.696	60.45
868.866	60.89
869.036	58.25
869.206	55.2
869.376	54.67
869.545	48.57
869.715	51.06
869.885	48.55
870.055	47.43
870.224	50.76
870.394	57.03
870.564	52.74
870.734	51.69
870.903	46.28
871.073	48.34
871.243	48.84
871.412	53.71
871.582	53.02
871.751	53.25
871.921	55.33
872.091	52.33
872.26	49.61
872.43	58.29
872.599	60.14
872.769	66.51
872.938	63.85
873.108	68.61
873.277	64.39
873.446	65.69
873.616	62.52
873.785	60.59
873.955	59.7
874.124	60.29
874.293	59.11
874.463	58.23
874.632	57.1
874.801	60.64
874.971	61.29
875.14	62.15
875.309	59.82
875.478	61.06
875.647	61.5
875.817	60.75
875.986	60.81
876.155	56.88
876.324	58.99
876.493	64.52
876.662	61.31
876.831	58.32
877	57.74
877.17	64.37
877.339	64.34
877.508	65.83
877.677	64.94
877.846	65.32
878.015	61.28
878.184	58.5
878.352	58.5
878.521	62.55
878.69	66.13
878.859	64.38
879.028	60.07
879.197	59.66
879.366	56.23
879.534	55.95
879.703	51.93
879.872	52.49
880.041	54
880.21	49.06
880.378	48.53
880.547	47.69
880.716	49.32
880.884	49.59
881.053	50.17
881.222	50.69
881.39	50.97
881.559	50.48
881.727	50.76
881.896	50.01
882.065	50.87
882.233	50.25
882.402	49.57
882.57	48.39
882.739	48.32
882.907	48.56
883.076	48.22
883.244	47.82
883.412	48.77
883.581	48.89
883.749	48.8
883.918	48.59
884.086	48.42
884.254	48.57
884.423	49.98
884.591	50.7
884.759	50.57
884.927	50.39
885.096	50.85
885.264	51.29
885.432	52.02
885.6	52.26
885.769	52.63
885.937	54.07
886.105	54.24
886.273	53.68
886.441	52.86
886.609	51.61
886.777	52.85
886.945	53.26
887.113	52.56
887.281	49.83
887.449	50.39
887.617	49.79
887.785	50.22
887.953	52.73
888.121	55.84
888.289	55.94
888.457	56.19
888.625	60
888.793	60.32
888.961	60.82
889.129	64
889.296	64.44
889.464	66.71
889.632	66.72
889.8	65.49
889.967	61.62
890.135	60.95
