Data from 2938467_Reflection_2.txt Node
Date: Wed Jun 17 13:45:28 EDT 2015
User: robert
Spectrometer: USB4E03002
Autoset integration time: false
Trigger mode: 4
Integration Time (sec): 1.000000E-1
Scans to average: 10
Electric dark correction enabled: true
Nonlinearity correction enabled: false
Boxcar width: 5
Stray light correction enabled: false
XAxis mode: Wavelengths
Stop averaging: false
Number of Pixels in Spectrum: 3648
>>>>>Begin Spectral Data<<<<<
177.575	2.35
177.794	-7.89
178.014	-34
178.233	-81.63
178.452	278.19
178.672	300.96
178.891	28.98
179.11	-35.45
179.33	1082.81
179.549	-1844.44
179.768	-114.39
179.987	-13.05
180.207	-478.39
180.426	-190.99
180.645	179.88
180.864	186.65
181.084	178.59
181.303	154.44
181.522	144.23
181.741	214.28
181.96	214.8
182.179	251.79
182.398	195.5
182.618	124.7
182.837	141.17
183.056	343.23
183.275	229.4
183.494	268.01
183.713	215.86
183.932	1633.43
184.151	525.54
184.37	190.75
184.589	73.52
184.808	34.67
185.027	151.45
185.246	116.51
185.465	152.85
185.684	154.09
185.903	173.69
186.122	186.8
186.341	123.27
186.56	134.65
186.779	258.75
186.998	304.28
187.216	206.49
187.435	149.61
187.654	138.32
187.873	124.7
188.092	139.49
188.311	129.22
188.53	133.13
188.748	154.07
188.967	176.77
189.186	167.55
189.405	242.29
189.623	195.17
189.842	323.78
190.061	-2953.2
190.28	-184.32
190.498	-185.49
190.717	-1170.68
190.936	-513.55
191.154	-325.5
191.373	-214.58
191.592	-896.18
191.81	147.9
192.029	-255.21
192.248	407.89
192.466	108.34
192.685	48.37
192.904	34.86
193.122	17.81
193.341	17.02
193.559	11.3
193.778	37.91
193.996	58.37
194.215	71.97
194.433	88.42
194.652	125.49
194.87	118.34
195.089	169.29
195.307	173.14
195.526	340.78
195.744	233.38
195.963	190.86
196.181	178.5
196.399	120.72
196.618	112.83
196.836	120.36
197.055	97.42
197.273	116.42
197.491	105.51
197.71	103.56
197.928	100.15
198.146	115.42
198.365	136.73
198.583	127.89
198.801	118.96
199.019	122.62
199.238	113.76
199.456	122.01
199.674	101.55
199.892	86.14
200.111	62.15
200.329	66.78
200.547	78.97
200.765	34.19
200.983	50.73
201.202	56.2
201.42	102.01
201.638	89.86
201.856	97.86
202.074	103.41
202.292	107.98
202.51	123.42
202.728	100.86
202.946	90.09
203.165	123.3
203.383	104.91
203.601	107.63
203.819	85.58
204.037	105.73
204.255	92.14
204.473	112.39
204.691	126.95
204.909	156.31
205.127	135.53
205.345	132.14
205.562	128.95
205.78	153.28
205.998	174.32
206.216	169.94
206.434	113.5
206.652	122.9
206.87	115.03
207.088	99.68
207.306	75.65
207.523	90.31
207.741	86.38
207.959	89.73
208.177	73.31
208.395	69.37
208.612	67.07
208.83	83.08
209.048	74.11
209.266	57.15
209.483	75.07
209.701	84.5
209.919	81.1
210.136	92.27
210.354	69.91
210.572	79.59
210.79	64.67
211.007	63.43
211.225	63.6
211.442	68.93
211.66	74.88
211.878	61.63
212.095	43.96
212.313	40.63
212.53	21.16
212.748	22.18
212.966	-7.17
213.183	3.32
213.401	20.39
213.618	29.11
213.836	34.52
214.053	34.15
214.271	22.57
214.488	25.78
214.705	18.89
214.923	19.89
215.14	34.76
215.358	50.86
215.575	50.59
215.793	57.29
216.01	52.2
216.227	44.2
216.445	48.29
216.662	75.7
216.879	71.53
217.097	68.66
217.314	72.87
217.531	62.69
217.749	64.6
217.966	61.61
218.183	34.38
218.4	32.7
218.618	19.3
218.835	-6.32
219.052	-3.96
219.269	-15.43
219.487	5.63
219.704	22.37
219.921	31.8
220.138	15.2
220.355	18.94
220.572	24.1
220.79	21.99
221.007	30.57
221.224	36.74
221.441	31.33
221.658	31.81
221.875	33.68
222.092	32.48
222.309	33.61
222.526	36.21
222.743	29.86
222.96	31.14
223.177	33.19
223.394	31.74
223.611	28.61
223.828	33.68
224.045	31.53
224.262	25.99
224.479	19.3
224.696	21.11
224.913	21.87
225.13	23
225.347	21.15
225.564	19.38
225.781	18.81
225.997	19.55
226.214	16.39
226.431	15.96
226.648	17.44
226.865	17.7
227.082	17.38
227.298	17.16
227.515	16.17
227.732	16.7
227.949	16.79
228.165	17.25
228.382	16.56
228.599	16.54
228.816	16.1
229.032	15.21
229.249	14.61
229.466	13.85
229.682	14.23
229.899	16.51
230.116	17.07
230.332	16.33
230.549	14.14
230.765	13.91
230.982	14.66
231.199	17.08
231.415	16.64
231.632	20.08
231.848	21.42
232.065	20.78
232.281	19.04
232.498	16.9
232.714	17.54
232.931	18.93
233.147	20.59
233.364	19.86
233.58	20.34
233.797	20.9
234.013	18.99
234.23	17.87
234.446	17.64
234.662	16.84
234.879	16.91
235.095	15.79
235.312	16.61
235.528	16.41
235.744	15.24
235.961	13.69
236.177	14.13
236.393	13.87
236.61	11.31
236.826	9.54
237.042	10.55
237.258	13.92
237.475	14.61
237.691	12.8
237.907	9.84
238.123	10.82
238.339	10.35
238.556	10.45
238.772	11.08
238.988	13.46
239.204	14.21
239.42	14.66
239.636	13.42
239.853	13.77
240.069	14.8
240.285	15.32
240.501	15.76
240.717	15.84
240.933	15.86
241.149	15.59
241.365	15.76
241.581	15.88
241.797	16.02
242.013	15.75
242.229	15.75
242.445	16.03
242.661	16.37
242.877	16.79
243.093	16.63
243.309	15.89
243.525	15.83
243.741	14.57
243.957	14.37
244.173	13.98
244.388	14.1
244.604	13.72
244.82	12.85
245.036	12.51
245.252	11.8
245.468	11.41
245.683	11.82
245.899	11.75
246.115	11.71
246.331	11.73
246.547	11.72
246.762	11.54
246.978	11.52
247.194	11.84
247.409	12.23
247.625	12.24
247.841	12.71
248.057	11.97
248.272	11.85
248.488	12.23
248.703	11.91
248.919	11.76
249.135	12
249.35	11.89
249.566	11.5
249.782	10.47
249.997	10.95
250.213	11.28
250.428	11.67
250.644	11.55
250.859	11.64
251.075	12.25
251.29	12.53
251.506	12.09
251.721	12.28
251.937	12.32
252.152	12.51
252.368	13.04
252.583	13.27
252.798	13.26
253.014	13.78
253.229	14.36
253.445	13.74
253.66	13.74
253.875	14.39
254.091	15.07
254.306	14.54
254.521	14.81
254.737	13.18
254.952	11.67
255.167	11.41
255.383	11.01
255.598	10.75
255.813	10.73
256.028	10.84
256.244	10.15
256.459	9.24
256.674	9.37
256.889	9.73
257.104	9.51
257.32	9.8
257.535	9.76
257.75	9.88
257.965	9.55
258.18	9.28
258.395	9.14
258.61	9.34
258.826	9.56
259.041	9.56
259.256	9.39
259.471	9.76
259.686	9.72
259.901	9.77
260.116	9.64
260.331	9.99
260.546	9.92
260.761	9.57
260.976	9.57
261.191	9.72
261.406	9.73
261.621	9.77
261.836	9.69
262.05	10.05
262.265	10.12
262.48	9.85
262.695	8.79
262.91	9.23
263.125	9.18
263.34	8.94
263.555	8.68
263.769	9.13
263.984	8.86
264.199	8.86
264.414	8.41
264.629	8.49
264.843	8.26
265.058	8.09
265.273	8.34
265.488	8.81
265.702	9.11
265.917	8.75
266.132	8.89
266.346	8.8
266.561	9.04
266.776	9.12
266.99	9.11
267.205	9.02
267.42	9.22
267.634	9.15
267.849	9.18
268.063	9.21
268.278	10.01
268.492	9.41
268.707	9.37
268.922	8.71
269.136	8.73
269.351	8.98
269.565	9.74
269.78	9.45
269.994	9.35
270.209	8.9
270.423	8.56
270.637	7.94
270.852	8.1
271.066	8.76
271.281	9.03
271.495	8.5
271.709	8.53
271.924	7.89
272.138	8.15
272.353	8.34
272.567	8.47
272.781	8.68
272.996	8.53
273.21	8.12
273.424	7.23
273.638	7
273.853	7.87
274.067	7.42
274.281	7.97
274.495	8.39
274.71	8.16
274.924	8.05
275.138	7.78
275.352	7.88
275.566	8.22
275.781	8.9
275.995	9.04
276.209	8.92
276.423	9.38
276.637	8.84
276.851	8.7
277.065	8.81
277.279	9.17
277.493	9.28
277.707	9.6
277.921	8.99
278.135	8.41
278.349	8.57
278.563	8.48
278.777	8.24
278.991	8.23
279.205	8.02
279.419	7.89
279.633	7.59
279.847	7.64
280.061	7.28
280.275	7.79
280.489	8.11
280.703	8.32
280.917	8.2
281.131	8.37
281.344	8.47
281.558	8.7
281.772	8.6
281.986	8.81
282.2	8.9
282.414	8.86
282.627	8.68
282.841	8.73
283.055	8.66
283.269	8.86
283.482	8.93
283.696	8.96
283.91	8.9
284.123	8.84
284.337	8.73
284.551	8.68
284.764	9.16
284.978	9.17
285.192	9.22
285.405	9.1
285.619	8.99
285.833	8.75
286.046	8.46
286.26	8.65
286.473	8.96
286.687	8.99
286.9	9.08
287.114	8.62
287.327	8.45
287.541	8.05
287.754	8.1
287.968	7.86
288.181	7.53
288.395	8.33
288.608	7.84
288.822	7.35
289.035	7
289.248	7
289.462	7.02
289.675	7.25
289.889	7.31
290.102	7.3
290.315	7.24
290.529	7.52
290.742	7.08
290.955	7.23
291.169	7.53
291.382	8.48
291.595	8.39
291.808	8.79
292.022	8.69
292.235	8.89
292.448	9.02
292.661	9.13
292.875	8.96
293.088	8.72
293.301	8.85
293.514	8.45
293.727	8.03
293.94	8.22
294.153	8.25
294.367	8.36
294.58	8.1
294.793	7.85
295.006	8.21
295.219	8.57
295.432	8.67
295.645	8.61
295.858	9.06
296.071	9.19
296.284	8.63
296.497	8.31
296.71	8.56
296.923	8.86
297.136	8.54
297.349	8.65
297.562	8.57
297.775	8.6
297.988	8.44
298.201	8.35
298.414	8.36
298.626	8.98
298.839	9.14
299.052	8.5
299.265	8.12
299.478	8.78
299.691	9.03
299.903	8.85
300.116	8.81
300.329	8.61
300.542	8.53
300.755	8.34
300.967	8.46
301.18	8.69
301.393	8.9
301.605	9.13
301.818	9.23
302.031	8.8
302.243	8.8
302.456	9.21
302.669	9.66
302.881	9.62
303.094	9.28
303.307	9.26
303.519	9.3
303.732	9.66
303.944	9.82
304.157	9.82
304.37	9.81
304.582	10.35
304.795	10.12
305.007	10
305.22	9.96
305.432	10.23
305.645	9.6
305.857	9.45
306.069	9.79
306.282	9.56
306.494	9.46
306.707	9.55
306.919	9.22
307.132	9.02
307.344	9.14
307.556	9.49
307.769	9.63
307.981	10.06
308.193	10.03
308.406	9.25
308.618	9.43
308.83	9.16
309.043	8.75
309.255	8.57
309.467	8.53
309.679	8.52
309.892	8.15
310.104	7.77
310.316	7.72
310.528	7.71
310.74	8.21
310.953	8.06
311.165	7.97
311.377	7.97
311.589	8
311.801	8.28
312.013	8.41
312.225	8.66
312.437	9.27
312.649	9.55
312.862	9.32
313.074	9.57
313.286	9.27
313.498	9.81
313.71	10.14
313.922	10.41
314.134	10.36
314.346	9.91
314.558	10.13
314.77	9.78
314.982	9.21
315.193	9.74
315.405	9.31
315.617	9.87
315.829	9.89
316.041	9.77
316.253	9.64
316.465	10.16
316.677	10.65
316.888	10.7
317.1	11.32
317.312	11.94
317.524	11.82
317.736	12.17
317.947	11.99
318.159	11.97
318.371	12.39
318.583	12.66
318.794	12.11
319.006	12.05
319.218	11.61
319.43	11.18
319.641	11.15
319.853	11.04
320.064	10.67
320.276	10.95
320.488	10.29
320.699	10.09
320.911	9.57
321.123	9.52
321.334	9.67
321.546	10.04
321.757	10.1
321.969	10.12
322.18	10.03
322.392	9.91
322.603	9.65
322.815	10.22
323.026	10.38
323.238	10.59
323.449	10.48
323.661	10.1
323.872	9.92
324.083	9.72
324.295	9.57
324.506	9.63
324.718	9.98
324.929	10.29
325.14	10.23
325.352	10.14
325.563	10.54
325.774	10.78
325.986	11.47
326.197	11.31
326.408	11.53
326.62	11.39
326.831	11.64
327.042	11.21
327.253	11.12
327.464	11.09
327.676	11.16
327.887	10.75
328.098	10.65
328.309	10.46
328.52	10.57
328.732	10.68
328.943	10.6
329.154	10.06
329.365	10.44
329.576	9.95
329.787	10.29
329.998	10.26
330.209	10.37
330.42	9.93
330.631	9.92
330.842	10.08
331.053	10.02
331.264	10.26
331.475	10.18
331.686	10.35
331.897	10.42
332.108	9.79
332.319	9.53
332.53	9.4
332.741	9.73
332.952	9.54
333.163	9.51
333.374	9.11
333.585	9.28
333.795	9.31
334.006	9.33
334.217	9.42
334.428	9.54
334.639	9.49
334.849	9.62
335.06	9.65
335.271	9.43
335.482	8.89
335.692	9.07
335.903	8.53
336.114	8.46
336.325	8.42
336.535	8.18
336.746	8.36
336.957	8.26
337.167	8.34
337.378	8.43
337.589	8.59
337.799	9.01
338.01	9.18
338.22	9.74
338.431	10.19
338.642	9.86
338.852	10.41
339.063	10.76
339.273	10.81
339.484	10.7
339.694	10.44
339.905	10.34
340.115	10.77
340.326	10.91
340.536	10.48
340.746	10.34
340.957	10.52
341.167	10.41
341.378	9.62
341.588	9.73
341.799	10.01
342.009	10.28
342.219	10.42
342.43	10.33
342.64	9.88
342.85	10.12
343.061	9.94
343.271	9.82
343.481	9.55
343.691	9.66
343.902	9.41
344.112	8.8
344.322	8.68
344.532	8.64
344.743	8.49
344.953	8.86
345.163	8.72
345.373	8.92
345.583	8.91
345.793	9.08
346.004	9.52
346.214	9.46
346.424	9.72
346.634	9.59
346.844	9.33
347.054	9.06
347.264	9.03
347.474	9.28
347.684	9.03
347.894	9.17
348.104	9.35
348.314	9.55
348.524	9.71
348.734	9.69
348.944	9.67
349.154	9.92
349.364	9.67
349.574	9.33
349.784	9.19
349.994	9.91
350.204	10.16
350.413	10.05
350.623	9.56
350.833	9.81
351.043	9.6
351.253	9.48
351.463	9.3
351.672	9.7
351.882	9.82
352.092	9.87
352.302	9.34
352.511	8.71
352.721	8.47
352.931	8.25
353.141	7.96
353.35	8.22
353.56	8.35
353.77	8.27
353.979	8.03
354.189	7.87
354.399	7.41
354.608	7.26
354.818	7.37
355.027	7.39
355.237	7.4
355.447	7.5
355.656	7.46
355.866	7.41
356.075	7.53
356.285	7.49
356.494	7.46
356.704	7.68
356.913	7.35
357.123	7.38
357.332	7.31
357.542	7.27
357.751	7.26
357.96	7.05
358.17	7.17
358.379	7.06
358.589	7.22
358.798	7.12
359.007	6.86
359.217	7.15
359.426	7
359.635	6.99
359.845	7.01
360.054	6.95
360.263	6.99
360.472	6.85
360.682	6.71
360.891	6.78
361.1	6.98
361.309	7.03
361.519	7.02
361.728	7.07
361.937	7.13
362.146	7.23
362.355	7.32
362.564	7.37
362.774	7.47
362.983	7.55
363.192	7.34
363.401	7.11
363.61	7.31
363.819	7.28
364.028	7.2
364.237	7.06
364.446	7.07
364.655	6.85
364.864	6.9
365.073	6.78
365.282	6.85
365.491	6.98
365.7	7.2
365.909	7
366.118	7.17
366.327	7.22
366.536	7.4
366.745	7.4
366.954	7.4
367.162	7.24
367.371	7.35
367.58	7.34
367.789	7.25
367.998	6.91
368.207	7.06
368.415	6.78
368.624	6.96
368.833	6.73
369.042	6.72
369.25	6.89
369.459	6.89
369.668	6.65
369.877	6.61
370.085	6.67
370.294	6.81
370.503	6.64
370.711	6.99
370.92	6.69
371.129	6.85
371.337	6.61
371.546	6.41
371.754	6.62
371.963	6.84
372.171	6.8
372.38	6.67
372.589	6.89
372.797	7.1
373.006	6.52
373.214	6.9
373.423	6.95
373.631	7.1
373.84	7.1
374.048	6.87
374.256	6.84
374.465	7.12
374.673	7.04
374.882	6.77
375.09	6.6
375.298	6.66
375.507	6.47
375.715	6.27
375.923	6.29
376.132	6.45
376.34	6.51
376.548	6.38
376.757	6.06
376.965	6.17
377.173	6.29
377.381	6.26
377.59	6.39
377.798	6.5
378.006	6.48
378.214	6.52
378.423	6.54
378.631	6.36
378.839	6.42
379.047	6.57
379.255	6.43
379.463	6.41
379.671	6.52
379.879	6.47
380.088	6.53
380.296	6.43
380.504	6.34
380.712	6.31
380.92	6.38
381.128	6.34
381.336	6.18
381.544	6.06
381.752	5.81
381.96	5.66
382.168	5.53
382.376	5.29
382.584	5.33
382.791	5.29
382.999	5.29
383.207	5.27
383.415	5.23
383.623	5.45
383.831	5.45
384.039	5.48
384.247	5.52
384.454	5.49
384.662	5.55
384.87	5.59
385.078	5.62
385.285	5.52
385.493	5.46
385.701	5.36
385.909	5.37
386.116	5.53
386.324	5.6
386.532	5.5
386.739	5.66
386.947	5.79
387.155	5.89
387.362	5.82
387.57	5.62
387.778	5.69
387.985	5.67
388.193	5.38
388.4	5.09
388.608	5.3
388.816	5.21
389.023	5.22
389.231	4.99
389.438	4.92
389.646	4.98
389.853	5.16
390.061	5.09
390.268	5.17
390.475	5.19
390.683	5.32
390.89	5.16
391.098	5.37
391.305	5.34
391.512	5.19
391.72	5.3
391.927	5.22
392.135	5.01
392.342	5.03
392.549	5.08
392.756	5.27
392.964	5.38
393.171	5.34
393.378	5.12
393.586	5.2
393.793	5.4
394	5.24
394.207	5.36
394.414	5.44
394.622	5.38
394.829	5.33
395.036	5.1
395.243	4.81
395.45	4.94
395.657	5.04
395.864	4.82
396.072	4.75
396.279	4.73
396.486	4.43
396.693	4.64
396.9	4.74
397.107	4.86
397.314	5.16
397.521	5.32
397.728	5.4
397.935	5.56
398.142	5.61
398.349	5.62
398.556	5.9
398.763	5.96
398.97	5.91
399.177	5.98
399.383	5.9
399.59	5.75
399.797	5.65
400.004	5.33
400.211	5.19
400.418	5.21
400.625	5.24
400.831	4.72
401.038	4.88
401.245	4.82
401.452	4.76
401.658	4.73
401.865	4.6
402.072	4.76
402.279	4.82
402.485	4.85
402.692	4.89
402.899	5.03
403.105	5.35
403.312	5.24
403.519	5.2
403.725	5.07
403.932	5.07
404.138	4.97
404.345	5
404.552	5
404.758	4.99
404.965	4.78
405.171	4.64
405.378	4.53
405.584	4.68
405.791	4.71
405.997	4.72
406.204	4.74
406.41	4.87
406.617	4.72
406.823	4.9
407.029	4.9
407.236	5.1
407.442	5.17
407.649	5.15
407.855	4.96
408.061	4.9
408.268	4.95
408.474	4.88
408.68	4.96
408.887	5.03
409.093	4.95
409.299	4.86
409.505	4.91
409.712	4.95
409.918	4.92
410.124	4.93
410.33	4.76
410.537	4.71
410.743	4.63
410.949	4.56
411.155	4.42
411.361	4.31
411.567	4.3
411.773	4.16
411.98	4.14
412.186	4.08
412.392	4.17
412.598	4.35
412.804	4.28
413.01	4.43
413.216	4.32
413.422	4.66
413.628	4.74
413.834	4.78
414.04	4.79
414.246	4.5
414.452	4.49
414.658	4.47
414.864	4.41
415.07	4.45
415.275	4.44
415.481	4.42
415.687	4.08
415.893	4.1
416.099	4.02
416.305	4.03
416.511	4.18
416.716	4.24
416.922	4.3
417.128	4.35
417.334	4.41
417.539	4.33
417.745	4.39
417.951	4.52
418.157	4.47
418.362	4.51
418.568	4.43
418.774	4.28
418.979	4.34
419.185	4.28
419.391	4.23
419.596	4.14
419.802	4.15
420.008	4.12
420.213	4.65
420.419	4.66
420.624	4.6
420.83	4.6
421.035	4.68
421.241	4.54
421.446	4.59
421.652	4.6
421.857	4.59
422.063	4.62
422.268	4.6
422.474	4.07
422.679	4.05
422.885	4.06
423.09	4.02
423.295	4.01
423.501	4.03
423.706	3.95
423.911	3.93
424.117	4.02
424.322	3.96
424.527	3.98
424.733	3.95
424.938	3.95
425.143	4
425.349	4.1
425.554	4.13
425.759	4.17
425.964	4.17
426.169	4.25
426.375	4.24
426.58	4.31
426.785	4.31
426.99	4.36
427.195	4.42
427.4	4.28
427.605	4.28
427.811	4.2
428.016	4.1
428.221	4.11
428.426	3.98
428.631	3.87
428.836	3.86
429.041	3.78
429.246	3.78
429.451	3.72
429.656	3.84
429.861	3.9
430.066	4.08
430.271	4.07
430.476	4.11
430.681	4.2
430.886	4.16
431.09	4.24
431.295	4.24
431.5	4.09
431.705	4.08
431.91	4.16
432.115	4.11
432.32	3.93
432.524	4
432.729	3.98
432.934	3.93
433.139	4.05
433.343	4.04
433.548	4.15
433.753	4.25
433.958	4.18
434.162	4.06
434.367	3.95
434.572	4.04
434.776	3.95
434.981	3.91
435.186	3.89
435.39	3.82
435.595	3.69
435.799	3.63
436.004	3.64
436.209	3.58
436.413	3.56
436.618	3.51
436.822	3.54
437.027	3.67
437.231	3.63
437.436	3.66
437.64	3.78
437.845	3.73
438.049	3.75
438.253	3.78
438.458	3.81
438.662	3.82
438.867	3.92
439.071	3.89
439.275	3.91
439.48	3.93
439.684	3.94
439.888	3.84
440.093	3.95
440.297	3.88
440.501	3.77
440.706	3.83
440.91	3.96
441.114	3.99
441.318	4.02
441.523	3.93
441.727	3.98
441.931	4.07
442.135	3.98
442.339	3.94
442.543	3.93
442.748	4.07
442.952	4.12
443.156	4.01
443.36	3.97
443.564	3.93
443.768	3.9
443.972	3.85
444.176	3.68
444.38	3.73
444.584	3.64
444.788	3.69
444.992	3.56
445.196	3.55
445.4	3.51
445.604	3.47
445.808	3.5
446.012	3.53
446.216	3.5
446.42	3.6
446.624	3.65
446.828	3.68
447.032	3.67
447.235	3.76
447.439	3.65
447.643	3.79
447.847	3.89
448.051	3.95
448.254	4.05
448.458	4.11
448.662	4.1
448.866	4.04
449.069	4.07
449.273	4.05
449.477	4.05
449.681	4.1
449.884	3.93
450.088	3.79
450.292	3.76
450.495	3.58
450.699	3.53
450.902	3.49
451.106	3.44
451.31	3.39
451.513	3.46
451.717	3.43
451.92	3.45
452.124	3.48
452.327	3.58
452.531	3.57
452.734	3.66
452.938	3.68
453.141	3.76
453.345	3.84
453.548	3.85
453.752	3.94
453.955	4
454.158	3.85
454.362	3.8
454.565	3.84
454.769	3.79
454.972	3.86
455.175	3.99
455.379	3.89
455.582	3.89
455.785	3.95
455.988	3.81
456.192	3.72
456.395	3.83
456.598	4
456.801	3.94
457.005	3.83
457.208	3.7
457.411	3.57
457.614	3.54
457.817	3.49
458.021	3.43
458.224	3.51
458.427	3.48
458.63	3.54
458.833	3.5
459.036	3.56
459.239	3.61
459.442	3.63
459.645	3.65
459.848	3.68
460.051	3.72
460.254	3.92
460.457	3.84
460.66	3.96
460.863	3.88
461.066	3.87
461.269	3.74
461.472	3.87
461.675	3.82
461.878	3.74
462.081	3.84
462.284	3.86
462.486	3.68
462.689	3.76
462.892	3.72
463.095	3.81
463.298	3.79
463.5	3.84
463.703	3.68
463.906	3.82
464.109	3.81
464.311	3.76
464.514	3.73
464.717	3.75
464.92	3.68
465.122	3.65
465.325	3.63
465.528	3.57
465.73	3.62
465.933	3.58
466.135	3.56
466.338	3.67
466.541	3.67
466.743	3.69
466.946	3.65
467.148	3.66
467.351	3.69
467.553	3.64
467.756	3.65
467.958	3.61
468.161	3.71
468.363	3.66
468.566	3.64
468.768	3.65
468.971	3.65
469.173	3.73
469.375	3.69
469.578	3.59
469.78	3.7
469.983	3.77
470.185	3.72
470.387	3.68
470.59	3.84
470.792	3.68
470.994	3.66
471.196	3.67
471.399	3.64
471.601	3.72
471.803	3.92
472.005	3.85
472.208	3.82
472.41	3.93
472.612	3.94
472.814	3.86
473.016	3.93
473.218	3.98
473.421	3.95
473.623	3.88
473.825	3.78
474.027	3.7
474.229	3.73
474.431	3.68
474.633	3.64
474.835	3.63
475.037	3.57
475.239	3.53
475.441	3.52
475.643	3.54
475.845	3.55
476.047	3.51
476.249	3.49
476.451	3.4
476.653	3.42
476.855	3.44
477.057	3.36
477.258	3.35
477.46	3.34
477.662	3.26
477.864	3.23
478.066	3.2
478.268	3.33
478.469	3.39
478.671	3.39
478.873	3.47
479.075	3.36
479.276	3.46
479.478	3.45
479.68	3.57
479.882	3.59
480.083	3.54
480.285	3.52
480.487	3.42
480.688	3.35
480.89	3.34
481.091	3.31
481.293	3.3
481.495	3.26
481.696	3.29
481.898	3.27
482.099	3.28
482.301	3.3
482.502	3.3
482.704	3.31
482.905	3.33
483.107	3.34
483.308	3.34
483.51	3.36
483.711	3.38
483.913	3.35
484.114	3.35
484.315	3.31
484.517	3.32
484.718	3.34
484.92	3.37
485.121	3.33
485.322	3.33
485.524	3.3
485.725	3.29
485.926	3.27
486.127	3.29
486.329	3.29
486.53	3.33
486.731	3.33
486.932	3.3
487.134	3.29
487.335	3.33
487.536	3.35
487.737	3.4
487.938	3.4
488.139	3.4
488.341	3.4
488.542	3.36
488.743	3.35
488.944	3.37
489.145	3.4
489.346	3.4
489.547	3.39
489.748	3.32
489.949	3.27
490.15	3.31
490.351	3.32
490.552	3.34
490.753	3.35
490.954	3.33
491.155	3.3
491.356	3.32
491.557	3.35
491.758	3.38
491.959	3.46
492.159	3.46
492.36	3.49
492.561	3.55
492.762	3.56
492.963	3.63
493.164	3.66
493.364	3.69
493.565	3.61
493.766	3.6
493.967	3.58
494.167	3.49
494.368	3.48
494.569	3.49
494.769	3.46
494.97	3.48
495.171	3.49
495.371	3.53
495.572	3.56
495.773	3.59
495.973	3.59
496.174	3.65
496.375	3.79
496.575	3.89
496.776	3.91
496.976	3.91
497.177	3.91
497.377	3.85
497.578	3.9
497.778	3.88
497.979	3.93
498.179	3.92
498.38	3.85
498.58	3.77
498.78	3.71
498.981	3.72
499.181	3.71
499.382	3.73
499.582	3.76
499.782	3.78
499.983	3.8
500.183	3.78
500.383	3.82
500.584	3.83
500.784	3.84
500.984	3.88
501.184	3.77
501.385	3.82
501.585	3.82
501.785	3.85
501.985	3.72
502.185	3.76
502.386	3.83
502.586	3.79
502.786	3.88
502.986	3.84
503.186	3.82
503.386	3.83
503.586	3.84
503.786	3.86
503.987	3.9
504.187	3.92
504.387	3.96
504.587	3.9
504.787	3.79
504.987	3.72
505.187	3.71
505.387	3.74
505.587	3.81
505.786	3.84
505.986	3.84
506.186	3.8
506.386	3.87
506.586	3.75
506.786	3.75
506.986	3.88
507.186	3.89
507.386	3.96
507.585	3.96
507.785	4.01
507.985	3.97
508.185	3.99
508.384	4.08
508.584	4.1
508.784	4.2
508.984	4.26
509.183	4.26
509.383	4.29
509.583	4.37
509.782	4.4
509.982	4.37
510.182	4.37
510.381	4.43
510.581	4.4
510.781	4.4
510.98	4.36
511.18	4.35
511.379	4.36
511.579	4.35
511.778	4.3
511.978	4.22
512.177	4.21
512.377	4.29
512.576	4.28
512.776	4.26
512.975	4.22
513.175	4.25
513.374	4.25
513.573	4.32
513.773	4.37
513.972	4.39
514.172	4.52
514.371	4.54
514.57	4.47
514.77	4.41
514.969	4.42
515.168	4.48
515.367	4.56
515.567	4.6
515.766	4.54
515.965	4.53
516.164	4.51
516.364	4.53
516.563	4.54
516.762	4.62
516.961	4.67
517.16	4.67
517.359	4.64
517.559	4.6
517.758	4.58
517.957	4.65
518.156	4.61
518.355	4.67
518.554	4.66
518.753	4.74
518.952	4.68
519.151	4.65
519.35	4.74
519.549	4.82
519.748	4.9
519.947	4.96
520.146	4.91
520.345	5.06
520.544	5.01
520.743	5.09
520.942	5
521.141	5.07
521.339	5.15
521.538	5.07
521.737	5.03
521.936	5.02
522.135	5.01
522.333	5.06
522.532	5.02
522.731	5.08
522.93	5.01
523.129	5.07
523.327	5.04
523.526	5.05
523.725	5.06
523.923	5.08
524.122	5.14
524.321	5.15
524.519	5.2
524.718	5.2
524.917	5.19
525.115	5.19
525.314	5.18
525.512	5.16
525.711	5.16
525.909	5.18
526.108	5.2
526.306	5.15
526.505	5.12
526.703	5.15
526.902	5.15
527.1	5.17
527.299	5.19
527.497	5.21
527.696	5.26
527.894	5.29
528.092	5.32
528.291	5.34
528.489	5.39
528.688	5.46
528.886	5.44
529.084	5.46
529.283	5.5
529.481	5.53
529.679	5.58
529.877	5.61
530.076	5.61
530.274	5.65
530.472	5.69
530.67	5.7
530.869	5.69
531.067	5.71
531.265	5.74
531.463	5.74
531.661	5.76
531.859	5.79
532.057	5.76
532.255	5.78
532.454	5.76
532.652	5.78
532.85	5.81
533.048	5.87
533.246	5.86
533.444	5.86
533.642	5.9
533.84	5.88
534.038	5.87
534.236	5.89
534.434	5.92
534.632	5.88
534.83	5.88
535.027	5.9
535.225	5.85
535.423	5.91
535.621	5.95
535.819	5.94
536.017	5.99
536.215	6.01
536.412	6.1
536.61	6.12
536.808	6.17
537.006	6.25
537.203	6.26
537.401	6.33
537.599	6.36
537.797	6.4
537.994	6.41
538.192	6.45
538.39	6.46
538.587	6.43
538.785	6.41
538.983	6.45
539.18	6.44
539.378	6.41
539.575	6.46
539.773	6.52
539.97	6.52
540.168	6.59
540.366	6.61
540.563	6.63
540.761	6.64
540.958	6.75
541.155	6.79
541.353	6.77
541.55	6.83
541.748	6.88
541.945	6.88
542.143	6.92
542.34	6.88
542.537	6.89
542.735	6.92
542.932	6.99
543.129	6.95
543.327	7.01
543.524	7.1
543.721	7.08
543.919	7.09
544.116	7.06
544.313	7.09
544.51	7.1
544.708	7.11
544.905	7.13
545.102	7.12
545.299	7.12
545.496	7.13
545.693	7.14
545.891	7.2
546.088	7.14
546.285	7.22
546.482	7.31
546.679	7.46
546.876	7.53
547.073	7.6
547.27	7.69
547.467	7.75
547.664	7.84
547.861	7.97
548.058	8.04
548.255	8.16
548.452	8.19
548.649	8.17
548.846	8.16
549.043	8.12
549.24	8.17
549.437	8.18
549.633	8.3
549.83	8.31
550.027	8.23
550.224	8.34
550.421	8.32
550.618	8.27
550.814	8.34
551.011	8.39
551.208	8.47
551.405	8.6
551.601	8.67
551.798	8.66
551.995	8.6
552.191	8.65
552.388	8.48
552.585	8.6
552.781	8.72
552.978	8.76
553.175	8.82
553.371	8.88
553.568	8.87
553.764	9
553.961	9.01
554.157	9.2
554.354	9.24
554.55	9.46
554.747	9.43
554.943	9.51
555.14	9.59
555.336	9.57
555.533	9.58
555.729	9.53
555.926	9.45
556.122	9.45
556.318	9.41
556.515	9.41
556.711	9.54
556.907	9.72
557.104	9.67
557.3	9.71
557.496	9.79
557.693	9.79
557.889	9.87
558.085	9.91
558.281	9.98
558.478	9.92
558.674	10.07
558.87	10
559.066	9.93
559.262	10.13
559.459	10.19
559.655	10.3
559.851	10.48
560.047	10.56
560.243	10.58
560.439	10.66
560.635	10.9
560.831	10.94
561.027	10.95
561.223	10.98
561.419	10.96
561.615	10.97
561.811	10.96
562.007	11.08
562.203	11.11
562.399	11.22
562.595	11.28
562.791	11.35
562.987	11.41
563.183	11.52
563.379	11.63
563.575	11.65
563.771	11.74
563.966	11.88
564.162	11.84
564.358	12.01
564.554	12.03
564.75	12.07
564.945	12.08
565.141	12.09
565.337	12.18
565.533	12.33
565.728	12.41
565.924	12.36
566.12	12.43
566.315	12.54
566.511	12.46
566.707	12.53
566.902	12.7
567.098	12.76
567.293	12.82
567.489	12.89
567.684	12.83
567.88	12.87
568.076	13.02
568.271	13.03
568.467	12.99
568.662	13.15
568.858	13.15
569.053	13
569.248	13.01
569.444	13.05
569.639	13.06
569.835	13.15
570.03	13.29
570.225	13.3
570.421	13.3
570.616	13.37
570.812	13.42
571.007	13.48
571.202	13.68
571.397	13.85
571.593	14
571.788	14.02
571.983	14.07
572.178	14.22
572.374	14.41
572.569	14.55
572.764	14.64
572.959	14.65
573.154	14.77
573.35	14.75
573.545	14.77
573.74	14.77
573.935	14.83
574.13	14.84
574.325	14.79
574.52	14.88
574.715	14.88
574.91	14.93
575.105	15.09
575.3	15.21
575.495	15.33
575.69	15.22
575.885	15.33
576.08	15.45
576.275	15.57
576.47	15.57
576.665	15.58
576.86	15.58
577.055	15.65
577.25	15.82
577.444	15.86
577.639	15.9
577.834	16.03
578.029	16.06
578.224	16.01
578.418	16.08
578.613	16.23
578.808	16.27
579.003	16.48
579.197	16.58
579.392	16.47
579.587	16.59
579.781	16.68
579.976	16.87
580.171	16.92
580.365	17.04
580.56	17.11
580.755	17.16
580.949	17.15
581.144	17.17
581.338	17.17
581.533	17.24
581.727	17.24
581.922	17.2
582.116	17.19
582.311	17.24
582.505	17.49
582.7	17.48
582.894	17.52
583.089	17.51
583.283	17.46
583.478	17.53
583.672	17.55
583.866	17.5
584.061	17.65
584.255	17.77
584.449	17.88
584.644	17.75
584.838	17.95
585.032	17.92
585.226	18.12
585.421	18.21
585.615	18.11
585.809	18.25
586.003	18.41
586.198	18.42
586.392	18.35
586.586	18.43
586.78	18.47
586.974	18.34
587.168	18.39
587.363	18.31
587.557	18.33
587.751	18.64
587.945	18.64
588.139	18.69
588.333	18.77
588.527	18.82
588.721	18.81
588.915	18.8
589.109	18.91
589.303	19.03
589.497	19.19
589.691	19.36
589.885	19.27
590.079	19.28
590.273	19.21
590.466	19.18
590.66	19.41
590.854	19.53
591.048	19.59
591.242	19.57
591.436	19.52
591.629	19.46
591.823	19.35
592.017	19.46
592.211	19.51
592.404	19.59
592.598	19.6
592.792	19.43
592.986	19.37
593.179	19.48
593.373	19.62
593.567	19.78
593.76	19.76
593.954	19.89
594.147	19.96
594.341	19.97
594.535	20.08
594.728	20.17
594.922	20.21
595.115	20.28
595.309	20.33
595.502	20.29
595.696	20.25
595.889	20.3
596.083	20.39
596.276	20.34
596.47	20.45
596.663	20.46
596.856	20.59
597.05	20.74
597.243	20.84
597.437	20.85
597.63	20.95
597.823	20.98
598.017	21.21
598.21	21.18
598.403	21.24
598.596	21.23
598.79	21.4
598.983	21.45
599.176	21.43
599.369	21.28
599.563	21.39
599.756	21.5
599.949	21.49
600.142	21.43
600.335	21.53
600.528	21.5
600.722	21.55
600.915	21.4
601.108	21.52
601.301	21.71
601.494	21.83
601.687	21.85
601.88	21.83
602.073	22.08
602.266	22.08
602.459	22
602.652	22.05
602.845	22.09
603.038	22.09
603.231	21.98
603.424	22.04
603.617	22.1
603.809	22.14
604.002	22.2
604.195	22.08
604.388	22.18
604.581	22.32
604.774	22.43
604.966	22.44
605.159	22.47
605.352	22.54
605.545	22.26
605.737	22.32
605.93	22.28
606.123	22.38
606.316	22.45
606.508	22.32
606.701	22.39
606.894	22.41
607.086	22.45
607.279	22.63
607.471	22.63
607.664	22.82
607.857	22.86
608.049	22.91
608.242	22.82
608.434	22.78
608.627	22.84
608.819	22.84
609.012	22.8
609.204	22.76
609.397	22.69
609.589	22.61
609.782	22.59
609.974	22.57
610.166	22.6
610.359	22.7
610.551	22.85
610.743	23.01
610.936	23.04
611.128	23.17
611.32	23.29
611.513	23.43
611.705	23.6
611.897	23.75
612.09	23.89
612.282	24.09
612.474	24.17
612.666	24.21
612.858	24.28
613.051	24.32
613.243	24.27
613.435	24.27
613.627	24.19
613.819	24.27
614.011	24.1
614.203	23.9
614.395	23.76
614.588	23.75
614.78	23.79
614.972	23.75
615.164	23.62
615.356	23.68
615.548	23.58
615.74	23.62
615.932	23.73
616.124	23.66
616.315	23.97
616.507	24.17
616.699	24.05
616.891	24.03
617.083	24.04
617.275	24.15
617.467	24.11
617.659	24.11
617.85	24.12
618.042	24.04
618.234	24.15
618.426	24.05
618.618	23.89
618.809	23.86
619.001	23.76
619.193	23.83
619.384	23.84
619.576	23.91
619.768	24.06
619.959	24.16
620.151	24.14
620.343	24.16
620.534	24.18
620.726	24.07
620.917	24.15
621.109	24.22
621.301	24.23
621.492	24.35
621.684	24.32
621.875	24.42
622.067	24.3
622.258	24.4
622.45	24.28
622.641	24.27
622.832	24.46
623.024	24.56
623.215	24.56
623.407	24.45
623.598	24.37
623.789	24.55
623.981	24.38
624.172	24.53
624.363	24.39
624.555	24.77
624.746	25.03
624.937	24.99
625.129	24.93
625.32	25.02
625.511	25.26
625.702	25.26
625.893	25.19
626.085	25.37
626.276	25.47
626.467	25.61
626.658	25.51
626.849	25.21
627.04	25.24
627.231	25.32
627.422	25.41
627.614	25.24
627.805	25.24
627.996	25.4
628.187	25.38
628.378	25.21
628.569	25.4
628.76	25.47
628.951	25.73
629.142	25.72
629.332	25.81
629.523	25.71
629.714	25.71
629.905	25.8
630.096	25.69
630.287	25.74
630.478	25.68
630.669	25.52
630.859	25.6
631.05	25.68
631.241	25.58
631.432	25.43
631.623	25.49
631.813	25.36
632.004	25.44
632.195	25.49
632.385	25.65
632.576	25.82
632.767	25.98
632.957	25.93
633.148	25.83
633.339	26.04
633.529	26.1
633.72	26.34
633.91	26.52
634.101	26.4
634.292	26.41
634.482	26.31
634.673	26.4
634.863	26.52
635.054	26.52
635.244	26.46
635.435	26.42
635.625	26.51
635.815	26.31
636.006	26.48
636.196	26.55
636.387	26.61
636.577	26.55
636.767	26.39
636.958	26.12
637.148	26.25
637.338	26.36
637.529	26.65
637.719	26.7
637.909	26.87
638.099	26.67
638.29	26.78
638.48	26.76
638.67	26.92
638.86	27.09
639.05	27.09
639.241	26.83
639.431	26.66
639.621	26.61
639.811	26.72
640.001	26.64
640.191	26.91
640.381	27.03
640.571	26.95
640.761	26.68
640.951	26.69
641.141	26.73
641.331	27.13
641.521	27.46
641.711	27.39
641.901	27.37
642.091	27.52
642.281	27.33
642.471	27.03
642.661	27.05
642.851	27.38
643.041	27.55
643.231	27.76
643.42	27.62
643.61	27.56
643.8	27.46
643.99	27.37
644.18	27.3
644.369	27.44
644.559	27.7
644.749	27.88
644.939	27.93
645.128	27.55
645.318	27.56
645.508	27.8
645.697	27.95
645.887	27.97
646.076	27.94
646.266	27.98
646.456	28.19
646.645	28.28
646.835	28.25
647.024	28.19
647.214	28.5
647.403	28.34
647.593	28.27
647.782	28.2
647.972	28.35
648.161	28.52
648.351	28.54
648.54	28.24
648.73	28.11
648.919	28.2
649.108	28.1
649.298	28.19
649.487	28.33
649.677	28.2
649.866	28.16
650.055	28.27
650.244	28.21
650.434	28.24
650.623	28.42
650.812	28.45
651.002	28.65
651.191	28.71
651.38	28.68
651.569	28.68
651.758	28.66
651.947	28.54
652.137	28.45
652.326	28.59
652.515	28.59
652.704	28.77
652.893	29.14
653.082	29.05
653.271	29.33
653.46	29.46
653.649	29.56
653.838	29.79
654.027	30.05
654.216	29.78
654.405	29.93
654.594	29.9
654.783	29.61
654.972	29.4
655.161	29.33
655.35	29.3
655.539	29.06
655.728	29.17
655.916	29.17
656.105	29.13
656.294	29.45
656.483	29.25
656.672	29.34
656.86	29.48
657.049	29.51
657.238	29.48
657.427	29.39
657.615	29.55
657.804	29.49
657.993	29.55
658.181	29.57
658.37	29.69
658.559	29.65
658.747	29.74
658.936	29.78
659.125	29.64
659.313	29.81
659.502	29.81
659.69	29.82
659.879	30.05
660.067	29.93
660.256	29.87
660.444	29.79
660.633	29.97
660.821	30.03
661.01	30.01
661.198	30.25
661.387	30.27
661.575	30.44
661.763	30.62
661.952	30.28
662.14	30.2
662.328	30.37
662.517	30.37
662.705	30.4
662.893	30.35
663.082	30.47
663.27	30.43
663.458	30.38
663.646	30.26
663.834	30.28
664.023	30.28
664.211	30.36
664.399	30.29
664.587	30.27
664.775	30.4
664.963	30.31
665.152	30.18
665.34	30.21
665.528	30.16
665.716	30.27
665.904	30.04
666.092	30.25
666.28	30.23
666.468	30.44
666.656	30.36
666.844	30.17
667.032	30.22
667.22	30.31
667.408	30.57
667.596	30.78
667.784	30.69
667.971	30.82
668.159	30.75
668.347	30.82
668.535	30.74
668.723	30.73
668.911	30.77
669.098	30.65
669.286	30.72
669.474	30.85
669.662	30.78
669.849	30.93
670.037	31.15
670.225	31.06
670.413	31.42
670.6	31.24
670.788	31.26
670.976	31.45
671.163	31.44
671.351	31.5
671.538	31.22
671.726	31.08
671.913	30.74
672.101	30.42
672.289	30.85
672.476	30.58
672.664	30.73
672.851	31
673.039	31.09
673.226	31.14
673.413	31.24
673.601	31.35
673.788	31.45
673.976	31.92
674.163	32.04
674.35	31.72
674.538	31.74
674.725	31.9
674.912	31.78
675.1	31.92
675.287	32.28
675.474	31.92
675.662	31.66
675.849	31.87
676.036	31.64
676.223	31.88
676.411	32.25
676.598	32.12
676.785	32.17
676.972	32.2
677.159	32.12
677.346	32.27
677.533	32.46
677.721	32.55
677.908	32.31
678.095	32.51
678.282	32.18
678.469	31.96
678.656	32.1
678.843	32.11
679.03	32.03
679.217	31.83
679.404	31.76
679.591	31.75
679.778	31.62
679.964	31.9
680.151	31.9
680.338	32.09
680.525	32.23
680.712	32.35
680.899	32.24
681.086	32.36
681.272	32.43
681.459	32.24
681.646	32.34
681.833	32.55
682.02	32.35
682.206	32.29
682.393	32
682.58	32.05
682.766	31.71
682.953	31.74
683.14	31.72
683.326	31.93
683.513	32.05
683.7	31.96
683.886	32.24
684.073	32.24
684.259	32.46
684.446	32.83
684.632	32.59
684.819	32.92
685.005	32.97
685.192	33.14
685.378	33.07
685.565	33.03
685.751	33.4
685.938	32.95
686.124	32.96
686.31	32.78
686.497	32.91
686.683	33.28
686.87	33.11
687.056	32.97
687.242	32.78
687.429	32.77
687.615	32.84
687.801	32.44
687.987	32.88
688.174	33.4
688.36	33.7
688.546	33.57
688.732	33.16
688.918	33.48
689.105	33.53
689.291	33.54
689.477	33.58
689.663	33.59
689.849	33.92
690.035	33.87
690.221	33.33
690.407	33.1
690.593	32.79
690.779	33.09
690.965	32.69
691.151	32.9
691.337	33.21
691.523	33.16
691.709	33.08
691.895	32.89
692.081	32.68
692.267	33.13
692.453	33.07
692.639	33.54
692.825	33.46
693.011	33.85
693.196	33.83
693.382	33.58
693.568	33.26
693.754	33.36
693.94	33.52
694.125	33.58
694.311	33.31
694.497	33.48
694.682	33.58
694.868	33.72
695.054	33.69
695.239	33.57
695.425	33.59
695.611	34.01
695.796	34.04
695.982	34
696.168	34.04
696.353	34.08
696.539	33.94
696.724	33.78
696.91	33.51
697.095	33.68
697.281	33.62
697.466	33.8
697.652	33.74
697.837	33.76
698.023	33.73
698.208	33.66
698.393	33.69
698.579	33.75
698.764	33.92
698.949	34.3
699.135	34.21
699.32	34.47
699.505	34.46
699.691	34.61
699.876	34.55
700.061	34.44
700.246	34.55
700.432	34.3
700.617	34.36
700.802	33.97
700.987	33.68
701.172	33.97
701.358	33.88
701.543	33.87
701.728	33.65
701.913	33.68
702.098	33.89
702.283	34.06
702.468	34.36
702.653	34.14
702.838	34.4
703.023	34.36
703.208	34.11
703.393	34.05
703.578	34.2
703.763	34.5
703.948	34.59
704.133	34.79
704.318	34.66
704.503	34.83
704.688	35.49
704.873	35.51
705.057	35.64
705.242	35.71
705.427	35.8
705.612	35.5
705.797	35.44
705.981	35.29
706.166	35.09
706.351	35.32
706.536	35.2
706.72	34.58
706.905	34.62
707.09	34.68
707.274	34.62
707.459	34.58
707.644	34.79
707.828	34.94
708.013	35.01
708.197	35.27
708.382	35.1
708.567	35.12
708.751	35.36
708.936	35.14
709.12	35.14
709.305	34.83
709.489	34.89
709.673	34.76
709.858	34.35
710.042	34.24
710.227	34.13
710.411	34.05
710.596	33.93
710.78	33.9
710.964	34.2
711.149	34.09
711.333	34.54
711.517	34.47
711.702	34.7
711.886	34.86
712.07	35.13
712.254	34.98
712.438	35.37
712.623	35.37
712.807	35.33
712.991	35.2
713.175	35.21
713.359	34.97
713.544	35.08
713.728	34.98
713.912	34.83
714.096	34.93
714.28	34.99
714.464	34.84
714.648	34.64
714.832	34.68
715.016	34.89
715.2	34.77
715.384	34.92
715.568	34.78
715.752	34.48
715.936	34.56
716.12	34.02
716.304	34.23
716.488	34.19
716.671	34.47
716.855	34.65
717.039	34.38
717.223	34.45
717.407	34.22
717.59	34.31
717.774	34.76
717.958	34.85
718.142	35.26
718.325	35.27
718.509	35.53
718.693	35.38
718.877	35.29
719.06	35.49
719.244	36.02
719.428	35.98
719.611	36.29
719.795	36.13
719.978	36.22
720.162	36.3
720.345	36.07
720.529	35.92
720.713	36.2
720.896	35.8
721.08	35.48
721.263	35.12
721.446	35.1
721.63	34.96
721.813	34.74
721.997	34.91
722.18	34.88
722.364	35.39
722.547	35.08
722.73	35.2
722.914	35.05
723.097	35.58
723.28	35.42
723.464	36.01
723.647	35.69
723.83	35.93
724.013	36.07
724.197	35.63
724.38	35.1
724.563	35.08
724.746	34.53
724.929	35.31
725.112	34.68
725.296	34.62
725.479	33.93
725.662	34.21
725.845	34.41
726.028	34.04
726.211	34.39
726.394	34.54
726.577	34.57
726.76	34.89
726.943	34.9
727.126	34.9
727.309	35.57
727.492	35.82
727.675	35.63
727.858	35.55
728.041	35.47
728.224	35.57
728.407	35.38
728.589	35.8
728.772	35.96
728.955	35.75
729.138	35.61
729.321	35.26
729.503	35.31
729.686	35.68
729.869	35.62
730.052	35.83
730.234	36.18
730.417	36.48
730.6	36.06
730.782	35.81
730.965	35.48
731.148	36.28
731.33	36.06
731.513	36.34
731.695	35.99
731.878	36.01
732.061	36.01
732.243	35.92
732.426	36.11
732.608	36.41
732.791	36.1
732.973	36.45
733.156	36.14
733.338	36.59
733.52	36.19
733.703	36.25
733.885	36.25
734.068	36.44
734.25	36.59
734.432	35.9
734.615	35.5
734.797	35.94
734.979	35.84
735.162	35.9
735.344	35.9
735.526	36.09
735.708	35.89
735.891	36.11
736.073	35.61
736.255	35.07
736.437	35.41
736.619	35.11
736.802	35.19
736.984	35.3
737.166	35.06
737.348	34.57
737.53	34.41
737.712	34.49
737.894	34.39
738.076	34.31
738.258	34.54
738.44	34.93
738.622	35.67
738.804	35.77
738.986	35.54
739.168	35.83
739.35	35.74
739.532	36.02
739.714	36.53
739.896	36.55
740.078	36.85
740.259	37.06
740.441	36.73
740.623	36.32
740.805	36.72
740.987	36.85
741.168	36.77
741.35	37.28
741.532	36.78
741.714	36.89
741.895	36.8
742.077	36.94
742.259	36.23
742.44	36.01
742.622	36.42
742.804	36.21
742.985	36.2
743.167	36.45
743.348	36.53
743.53	36.63
743.711	36.05
743.893	35.71
744.075	35.81
744.256	36.72
744.438	36.82
744.619	36.19
744.8	35.64
744.982	36.2
745.163	36.5
745.345	36.48
745.526	37.41
745.707	37.19
745.889	38.08
746.07	38.12
746.252	37.75
746.433	38
746.614	38.91
746.795	39.01
746.977	38.78
747.158	38.36
747.339	38.08
747.52	37.41
747.702	38.08
747.883	37.7
748.064	37.65
748.245	37.49
748.426	37.49
748.607	37.27
748.788	37.36
748.97	37.22
749.151	37.15
749.332	38.03
749.513	38.27
749.694	37.5
749.875	36.82
750.056	36.84
750.237	36.3
750.418	36.51
750.599	36.56
750.78	36.7
750.96	36.94
751.141	37.25
751.322	36.72
751.503	36.15
751.684	36.47
751.865	36.55
752.046	36.47
752.226	37.11
752.407	37.06
752.588	36.51
752.769	36.85
752.949	36.47
753.13	36.4
753.311	36.51
753.492	36.95
753.672	37.44
753.853	37.99
754.034	37.65
754.214	37.76
754.395	37.61
754.575	38.3
754.756	38.08
754.937	38.08
755.117	38.32
755.298	37.86
755.478	36.97
755.659	36.84
755.839	36.72
756.02	37.76
756.2	37.49
756.381	37.15
756.561	36.64
756.741	36.51
756.922	36.2
757.102	35.28
757.283	36.13
757.463	36.77
757.643	36.39
757.823	36.36
758.004	35.92
758.184	36.12
758.364	36.91
758.545	37.25
758.725	37.64
758.905	37.92
759.085	38.93
759.265	38.6
759.446	38.25
759.626	38.03
759.806	38.3
759.986	37.73
760.166	37.49
760.346	37.22
760.526	37.53
760.706	37.12
760.886	37.56
761.066	36.81
761.246	36.47
761.426	36.86
761.606	37.15
761.786	36.95
761.966	37.18
762.146	37.52
762.326	37.16
762.506	36.87
762.686	36.63
762.866	36.31
763.046	36.67
763.225	36.65
763.405	36.81
763.585	37.11
763.765	36.87
763.945	36.92
764.124	36.79
764.304	36.85
764.484	36.71
764.664	36.94
764.843	37.37
765.023	37.58
765.203	38.01
765.382	38.06
765.562	37.7
765.741	37.96
765.921	38.2
766.101	38.2
766.28	38.39
766.46	38.77
766.639	39.42
766.819	39.14
766.998	38.44
767.178	37.81
767.357	36.91
767.537	37.07
767.716	37.16
767.896	36.52
768.075	36.81
768.254	37.5
768.434	37.68
768.613	37.12
768.792	36.93
768.972	36.99
769.151	37.19
769.33	37.94
769.51	38.8
769.689	39.15
769.868	39.76
770.047	39.8
770.226	39
770.406	38.45
770.585	38.95
770.764	38.69
770.943	39
771.122	38.77
771.301	39
771.48	38.28
771.66	37.9
771.839	37.85
772.018	38.26
772.197	38.44
772.376	39.13
772.555	39.18
772.734	40.37
772.913	40.34
773.092	40.64
773.271	40.23
773.449	39.94
773.628	40.64
773.807	40.56
773.986	40.14
774.165	39.86
774.344	39.95
774.523	39.62
774.701	38.86
774.88	39.06
775.059	39.26
775.238	39.29
775.417	39.9
775.595	39.41
775.774	39.27
775.953	38.6
776.131	39.09
776.31	38.42
776.489	38.46
776.667	38.64
776.846	39.32
777.025	39.5
777.203	40.53
777.382	40.71
777.56	41.23
777.739	41.33
777.917	42.05
778.096	41.96
778.274	42.26
778.453	41.79
778.631	42.36
778.81	41.12
778.988	41.45
779.166	41.4
779.345	41.37
779.523	40.66
779.702	40.57
779.88	40.14
780.058	40.08
780.237	40.33
780.415	40.41
780.593	39.08
780.771	38.97
780.95	39.19
781.128	38.67
781.306	37.74
781.484	38.14
781.662	37.9
781.841	37.88
782.019	38.47
782.197	38.11
782.375	38.06
782.553	38.2
782.731	38.38
782.909	37.32
783.087	37.84
783.265	38.2
783.443	38.41
783.621	39.31
783.799	39.04
783.977	38.73
784.155	37.96
784.333	38.47
784.511	38.89
784.689	39.49
784.867	39.8
785.045	38.74
785.223	38.67
785.4	38.01
785.578	37.6
785.756	37.74
785.934	37.46
786.112	39.13
786.289	38.27
786.467	38.9
786.645	38.12
786.823	37.09
787	37.45
787.178	36.99
787.356	37.25
787.533	37.58
787.711	38.08
787.889	38.87
788.066	38.25
788.244	38.29
788.421	37.56
788.599	38.34
788.776	39.56
788.954	39.17
789.131	40.15
789.309	39.83
789.486	39.63
789.664	39.3
789.841	38.7
790.019	38.05
790.196	37.9
790.373	38.24
790.551	37.65
790.728	37.27
790.906	37.72
791.083	35.93
791.26	36.3
791.437	36.9
791.615	37.38
791.792	37.49
791.969	37.61
792.146	37.21
792.324	36.56
792.501	36.76
792.678	37.48
792.855	37.58
793.032	39.27
793.209	39.44
793.387	38.98
793.564	38.96
793.741	38.32
793.918	38.13
794.095	39.54
794.272	39.5
794.449	39.94
794.626	39.35
794.803	38.92
794.98	38
795.157	37.14
795.334	37.42
795.511	37.26
795.688	37.38
795.864	38.06
796.041	37.08
796.218	37.41
796.395	36.54
796.572	36.58
796.749	37.6
796.925	38.23
797.102	39.22
797.279	38.58
797.456	38.25
797.632	38.18
797.809	37.85
797.986	38.46
798.162	38.08
798.339	38.83
798.516	38.81
798.692	38.18
798.869	37.84
799.046	36.81
799.222	37.44
799.399	37.56
799.575	37.36
799.752	37.62
799.928	37.87
800.105	38.89
800.281	39.05
800.458	38.56
800.634	37.8
800.811	38.67
800.987	40.13
801.163	39.76
801.34	39.82
801.516	40.2
801.692	39.78
801.869	39.51
802.045	40.42
802.221	41
802.398	40.74
802.574	41.94
802.75	41.27
802.926	40.53
803.103	39.63
803.279	40.26
803.455	39.57
803.631	39.97
803.807	39.84
803.983	38.09
804.16	37.24
804.336	37.47
804.512	37.89
804.688	38.34
804.864	38.69
805.04	39.44
805.216	38.76
805.392	39.87
805.568	39.61
805.744	39.23
805.92	40.08
806.096	40.45
806.272	41.45
806.448	40.64
806.623	40.32
806.799	40.75
806.975	41.42
807.151	41.85
807.327	40.7
807.503	39.99
807.678	40.07
807.854	40.08
808.03	39.63
808.206	39.58
808.381	39.74
808.557	38.47
808.733	39.08
808.908	38.02
809.084	37.97
809.26	38.21
809.435	37.77
809.611	39.43
809.787	38.01
809.962	38.56
810.138	38.85
810.313	39.56
810.489	40.68
810.664	39.71
810.84	40.27
811.015	39.18
811.191	39.06
811.366	40.82
811.542	39.52
811.717	39.55
811.892	39.87
812.068	39.41
812.243	39.01
812.419	39.99
812.594	39.58
812.769	39.12
812.944	39.56
813.12	41.36
813.295	41.06
813.47	41.38
813.645	42.02
813.821	41.13
813.996	41.25
814.171	40.21
814.346	39.87
814.521	39.84
814.697	39.19
814.872	38.85
815.047	37.05
815.222	38.07
815.397	38.28
815.572	37.6
815.747	37.58
815.922	37.38
816.097	37.92
816.272	38.44
816.447	37.1
816.622	37.89
816.797	39.29
816.972	40.91
817.147	39
817.322	38.67
817.496	38.42
817.671	38.55
817.846	38.2
818.021	38.56
818.196	37.41
818.371	37.98
818.545	39.14
818.72	38.27
818.895	37.26
819.069	37.34
819.244	37.7
819.419	38.76
819.594	38.78
819.768	38.9
819.943	39.04
820.117	39.28
820.292	39.22
820.467	38.08
820.641	37.81
820.816	38.05
820.99	38.1
821.165	37.56
821.339	37.41
821.514	37.17
821.688	36.9
821.863	36.67
822.037	36.37
822.212	36.25
822.386	36.23
822.56	36.17
822.735	35.85
822.909	35.81
823.084	36.09
823.258	36.02
823.432	36.3
823.606	36.55
823.781	36.57
823.955	36.6
824.129	36.66
824.303	36.92
824.478	37.15
824.652	37.55
824.826	37.17
825	37.16
825.174	37.41
825.348	36.95
825.523	36.59
825.697	36.76
825.871	37.09
826.045	37.01
826.219	37.17
826.393	37.3
826.567	37.13
826.741	37.88
826.915	37.44
827.089	37.19
827.263	37.06
827.437	37.18
827.611	36.94
827.784	36.51
827.958	36.55
828.132	36.18
828.306	36.19
828.48	35.95
828.654	35.59
828.827	35.51
829.001	35.78
829.175	36.1
829.349	36.09
829.522	36.16
829.696	37.07
829.87	38.14
830.044	38.91
830.217	39.15
830.391	40.6
830.565	40.6
830.738	41.93
830.912	41.39
831.085	41.37
831.259	41.79
831.432	41.03
831.606	40.18
831.779	38.94
831.953	38.4
832.126	37.54
832.3	37.39
832.473	37.64
832.647	36.84
832.82	36.71
832.994	36.79
833.167	36.92
833.34	36.97
833.514	37.49
833.687	37.86
833.86	38.23
834.034	38.01
834.207	37.46
834.38	37.2
834.553	37.9
834.727	37.38
834.9	37.06
835.073	36.84
835.246	37.09
835.419	36.28
835.593	36.2
835.766	35.47
835.939	37.13
836.112	37.79
836.285	38.03
836.458	37.78
836.631	39.14
836.804	39.41
836.977	39.36
837.15	39.64
837.323	39.83
837.496	39.89
837.669	38.26
837.842	36.83
838.015	36.87
838.188	36.14
838.361	35.56
838.533	34.83
838.706	36.07
838.879	36.71
839.052	36.59
839.225	37.92
839.398	39.33
839.57	42.18
839.743	42.27
839.916	40.87
840.088	41.3
840.261	41.05
840.434	41.33
840.607	39.88
840.779	38.74
840.952	39.22
841.124	39.47
841.297	36.91
841.47	35.81
841.642	36.09
841.815	36.92
841.987	38.28
842.16	38.52
842.332	38.42
842.505	41.06
842.677	42.02
842.85	43.37
843.022	42.26
843.194	43.61
843.367	43.1
843.539	41.36
843.712	42.07
843.884	41.92
844.056	40.58
844.229	40.71
844.401	39.53
844.573	41.57
844.745	41.69
844.918	40.95
845.09	41.54
845.262	41.83
845.434	43.4
845.606	44.07
845.779	45.13
845.951	46.2
846.123	46.42
846.295	44.76
846.467	45.36
846.639	47.36
846.811	48.93
846.983	46.43
847.155	47.41
847.327	47
847.499	44.92
847.671	43.6
847.843	45.25
848.015	45.57
848.187	46.78
848.359	46.74
848.531	43.34
848.703	43.82
848.875	48.71
849.047	45.99
849.218	45.25
849.39	46.13
849.562	42.35
849.734	43.53
849.905	44.18
850.077	46.79
850.249	43.11
850.421	42.01
850.592	41.25
850.764	39.23
850.936	45.21
851.107	45.87
851.279	46.64
851.451	51.43
851.622	47.75
851.794	49.78
851.965	48.06
852.137	45.74
852.308	47.36
852.48	45.6
852.651	46.34
852.823	44.3
852.994	41.37
853.166	36.41
853.337	34.39
853.509	34.48
853.68	35.77
853.851	38.8
854.023	42.86
854.194	43.65
854.365	44.15
854.537	41.5
854.708	40.1
854.879	44.2
855.05	46.97
855.222	50.36
855.393	53.91
855.564	54.07
855.735	51.67
855.906	46.96
856.078	46.85
856.249	51.43
856.42	50.49
856.591	52.68
856.762	55.38
856.933	57.34
857.104	52.8
857.275	52.14
857.446	49.11
857.617	47.39
857.788	52.61
857.959	49.16
858.13	44.81
858.301	49.19
858.472	49.61
858.643	47.43
858.814	46.99
858.985	45.23
859.155	43.5
859.326	44.85
859.497	46.35
859.668	46.34
859.839	47.09
860.009	45.56
860.18	45.39
860.351	41.02
860.522	39.51
860.692	39.96
860.863	45.24
861.034	46.65
861.204	45.93
861.375	46.81
861.546	46.87
861.716	49.75
861.887	53.45
862.057	49.15
862.228	52.39
862.398	55.57
862.569	57.24
862.739	58.86
862.91	59.85
863.08	57.98
863.251	59.51
863.421	58.04
863.592	56.32
863.762	55.46
863.932	58.45
864.103	58.93
864.273	57.94
864.443	54.14
864.614	49.59
864.784	47.77
864.954	48.87
865.125	46.09
865.295	45.45
865.465	47.18
865.635	46.19
865.805	43.5
865.976	37.06
866.146	38.02
866.316	36.17
866.486	37.09
866.656	39.15
866.826	40.24
866.996	37.78
867.166	39.14
867.336	39.66
867.506	39.84
867.676	41.75
867.846	44.89
868.016	43.84
868.186	45.98
868.356	46.95
868.526	43.98
868.696	42.85
868.866	46.41
869.036	46.51
869.206	44.48
869.376	48.3
869.545	48.95
869.715	53.08
869.885	49.63
870.055	47.76
870.224	55.51
870.394	56.4
870.564	56.72
870.734	58.17
870.903	57.23
871.073	60.29
871.243	56.51
871.412	57.51
871.582	49.47
871.751	52.01
871.921	50.79
872.091	44.38
872.26	43.47
872.43	39.78
872.599	34.35
872.769	34.1
872.938	28.13
873.108	30.54
873.277	31.85
873.446	38.76
873.616	39.24
873.785	45.82
873.955	46.1
874.124	44.65
874.293	45.12
874.463	46.46
874.632	47.68
874.801	50.43
874.971	51.4
875.14	47.94
875.309	50.69
875.478	52.64
875.647	45.95
875.817	46.26
875.986	49.51
876.155	53.04
876.324	53.93
876.493	52.09
876.662	48.62
876.831	45.81
877	43.11
877.17	40.2
877.339	37.09
877.508	38.27
877.677	39.48
877.846	37.56
878.015	35.82
878.184	35.13
878.352	31.71
878.521	34.33
878.69	34.8
878.859	39.22
879.028	38.94
879.197	40.36
879.366	37.45
879.534	37.08
879.703	39.37
879.872	39.16
880.041	39.57
880.21	41.61
880.378	42.04
880.547	41.86
880.716	41.47
880.884	40.32
881.053	40.42
881.222	41.06
881.39	39.99
881.559	39.69
881.727	39.5
881.896	38.65
882.065	38.34
882.233	37.7
882.402	38.29
882.57	38.01
882.739	38.62
882.907	38.61
883.076	39.07
883.244	38.91
883.412	39.3
883.581	39.8
883.749	39.62
883.918	40.66
884.086	40.87
884.254	40.62
884.423	40.46
884.591	41.55
884.759	41.01
884.927	41.02
885.096	40.87
885.264	40.47
885.432	40.07
885.6	42.1
885.769	41.47
885.937	41.03
886.105	41.36
886.273	40.72
886.441	37.87
886.609	39.87
886.777	39.13
886.945	40.19
887.113	37.79
887.281	36.94
887.449	35.34
887.617	33.23
887.785	32.8
887.953	33.42
888.121	36.36
888.289	37.81
888.457	36.13
888.625	35.77
888.793	38.45
888.961	41.29
889.129	41.98
889.296	45.09
889.464	47.55
889.632	50.4
889.8	49.66
889.967	47.9
890.135	48.25
