Data from 2938461_Reflection_2.txt Node
Date: Wed Jun 17 14:01:08 EDT 2015
User: robert
Spectrometer: USB4E03002
Autoset integration time: false
Trigger mode: 4
Integration Time (sec): 1.000000E-1
Scans to average: 10
Electric dark correction enabled: true
Nonlinearity correction enabled: false
Boxcar width: 5
Stray light correction enabled: false
XAxis mode: Wavelengths
Stop averaging: false
Number of Pixels in Spectrum: 3648
>>>>>Begin Spectral Data<<<<<
177.575	-150.4
177.794	-254.13
178.014	-140.72
178.233	-465.85
178.452	420.6
178.672	282.6
178.891	5.31
179.11	-160.85
179.33	1816.67
179.549	-9666.67
179.768	-787.03
179.987	-146.9
180.207	-887.31
180.426	-255.81
180.645	257.5
180.864	167.75
181.084	105.62
181.303	125.4
181.522	107.88
181.741	172.99
181.96	104.29
182.179	98.23
182.398	134.96
182.618	112.46
182.837	127.97
183.056	381.03
183.275	291.99
183.494	387.93
183.713	348.9
183.932	2135.52
184.151	849.67
184.37	317.18
184.589	223.09
184.808	152.55
185.027	362.66
185.246	193.91
185.465	184.76
185.684	197.56
185.903	229.23
186.122	129.74
186.341	128.78
186.56	115.31
186.779	201.16
186.998	229.44
187.216	148.71
187.435	127.51
187.654	137.75
187.873	116.1
188.092	135.07
188.311	139.36
188.53	136.55
188.748	138.07
188.967	159.14
189.186	169.2
189.405	190.17
189.623	188.36
189.842	306.44
190.061	-2029.6
190.28	-132.94
190.498	-58.11
190.717	-292.83
190.936	-211.51
191.154	-161.15
191.373	-77.64
191.592	-206.11
191.81	138.55
192.029	-285.39
192.248	427.13
192.466	217.02
192.685	75.2
192.904	113.85
193.122	107.26
193.341	138.71
193.559	136.34
193.778	136.76
193.996	164.23
194.215	169.08
194.433	143.45
194.652	150.83
194.87	140.7
195.089	162.43
195.307	160.6
195.526	294.81
195.744	177.76
195.963	137.15
196.181	165.88
196.399	114.58
196.618	110.68
196.836	130.71
197.055	110.53
197.273	80.32
197.491	72.51
197.71	71.35
197.928	67.97
198.146	51.86
198.365	57.09
198.583	22.67
198.801	42.61
199.019	44.34
199.238	32.09
199.456	-8.51
199.674	14.89
199.892	37.58
200.111	-0.67
200.329	29.74
200.547	46.27
200.765	31.48
200.983	39.21
201.202	47
201.42	66.33
201.638	101.63
201.856	129.84
202.074	130.28
202.292	123.8
202.51	139.69
202.728	120.03
202.946	138.15
203.165	141.24
203.383	120.3
203.601	118.5
203.819	97.06
204.037	87.68
204.255	83.79
204.473	70.28
204.691	92.74
204.909	100.55
205.127	74.62
205.345	75.05
205.562	78.19
205.78	119.94
205.998	115.56
206.216	135.54
206.434	120.54
206.652	121.58
206.87	114.29
207.088	106.68
207.306	87.3
207.523	89.74
207.741	84.63
207.959	81.28
208.177	69.08
208.395	66.25
208.612	52.99
208.83	43.91
209.048	36.23
209.266	30.84
209.483	32.1
209.701	52.01
209.919	58.44
210.136	66.88
210.354	66.6
210.572	62.52
210.79	61.66
211.007	75.63
211.225	70.26
211.442	73.74
211.66	92.47
211.878	86.48
212.095	138.27
212.313	139.93
212.53	126.56
212.748	143.32
212.966	134.73
213.183	132.62
213.401	107.59
213.618	92.61
213.836	109.48
214.053	94.4
214.271	93.12
214.488	40.86
214.705	36.47
214.923	44.09
215.14	33.18
215.358	54.95
215.575	50.46
215.793	61.62
216.01	52.14
216.227	41.71
216.445	47.51
216.662	57.05
216.879	54.56
217.097	55.17
217.314	40.4
217.531	37.06
217.749	37.01
217.966	40.64
218.183	12.92
218.4	47.82
218.618	43.61
218.835	36.41
219.052	14.06
219.269	13.7
219.487	30.92
219.704	63.81
219.921	47.41
220.138	40.22
220.355	33.16
220.572	41.85
220.79	43.1
221.007	48.58
221.224	50.42
221.441	45.51
221.658	39.37
221.875	40.17
222.092	38.29
222.309	45.96
222.526	39.8
222.743	43.05
222.96	45.49
223.177	35.44
223.394	31.68
223.611	31.12
223.828	35.4
224.045	40.22
224.262	36.31
224.479	28.93
224.696	31.62
224.913	32.56
225.13	32.27
225.347	30.9
225.564	30.89
225.781	28.07
225.997	27.83
226.214	27.97
226.431	24.72
226.648	23.68
226.865	22.79
227.082	21.73
227.298	21.37
227.515	20.74
227.732	19.79
227.949	20.66
228.165	21.14
228.382	19.85
228.599	18.43
228.816	18.25
229.032	18.15
229.249	19.3
229.466	19.73
229.682	19.46
229.899	19.95
230.116	20.13
230.332	18.92
230.549	19.2
230.765	22.87
230.982	23.27
231.199	26.03
231.415	27.79
231.632	29.28
231.848	28.23
232.065	28.03
232.281	25.77
232.498	23.6
232.714	24.79
232.931	25.19
233.147	22.49
233.364	22.05
233.58	20.54
233.797	21.24
234.013	18.92
234.23	18.36
234.446	19.94
234.662	21.47
234.879	21.49
235.095	21.46
235.312	21.49
235.528	22.47
235.744	20.05
235.961	18.52
236.177	15.4
236.393	18.13
236.61	18.19
236.826	17.31
237.042	17.65
237.258	21.55
237.475	19.26
237.691	19.7
237.907	18.44
238.123	21.95
238.339	23.3
238.556	25.72
238.772	23.65
238.988	23.33
239.204	22.28
239.42	22.64
239.636	22.06
239.853	22.28
240.069	21.97
240.285	20.59
240.501	19.67
240.717	19.43
240.933	18.81
241.149	18.85
241.365	19.16
241.581	19.93
241.797	20.36
242.013	19.94
242.229	20.09
242.445	19.44
242.661	20.43
242.877	21.53
243.093	21.2
243.309	20.67
243.525	20.98
243.741	19.75
243.957	18.49
244.173	17.05
244.388	16.62
244.604	16.27
244.82	16.74
245.036	16.6
245.252	16.11
245.468	16.07
245.683	16.38
245.899	16.31
246.115	16.15
246.331	16.21
246.547	16.08
246.762	16.18
246.978	16.41
247.194	16.38
247.409	16.27
247.625	16.1
247.841	16.1
248.057	15.71
248.272	15.84
248.488	16.72
248.703	16.15
248.919	16.22
249.135	15.79
249.35	15.59
249.566	15.81
249.782	15.19
249.997	15.3
250.213	14.55
250.428	14.25
250.644	13.4
250.859	13.44
251.075	14.79
251.29	15.36
251.506	15.6
251.721	15.72
251.937	14.9
252.152	16.2
252.368	16.9
252.583	18.29
252.798	18.82
253.014	19.32
253.229	19.3
253.445	17.61
253.66	17.75
253.875	17.62
254.091	17.95
254.306	17.89
254.521	16.41
254.737	14.56
254.952	13.58
255.167	13.31
255.383	13.26
255.598	13.08
255.813	13.04
256.028	12.65
256.244	11.81
256.459	11.03
256.674	11
256.889	11.9
257.104	11.7
257.32	12.04
257.535	12.11
257.75	12.4
257.965	12.09
258.18	12.04
258.395	12.04
258.61	12.21
258.826	12.38
259.041	12.49
259.256	12.09
259.471	12.46
259.686	12.57
259.901	12.67
260.116	12.41
260.331	13.17
260.546	13.05
260.761	12.96
260.976	13.09
261.191	12.88
261.406	13.03
261.621	12.99
261.836	12.63
262.05	12.41
262.265	12.32
262.48	12.57
262.695	11.32
262.91	12.9
263.125	12.98
263.34	13.67
263.555	13.86
263.769	13.49
263.984	13.68
264.199	14.36
264.414	14.51
264.629	14.52
264.843	13.93
265.058	13.87
265.273	13.15
265.488	13.07
265.702	12.7
265.917	12.98
266.132	13.01
266.346	13.37
266.561	13.04
266.776	12.88
266.99	12.39
267.205	12.18
267.42	12.15
267.634	11.91
267.849	11.72
268.063	11.68
268.278	11.68
268.492	11.92
268.707	11.81
268.922	11.34
269.136	10.72
269.351	10.85
269.565	11.43
269.78	11.03
269.994	11.31
270.209	11.46
270.423	11.75
270.637	10.89
270.852	10.74
271.066	10.76
271.281	11.47
271.495	11.36
271.709	11.54
271.924	11.28
272.138	11.47
272.353	11.55
272.567	11.08
272.781	10.81
272.996	11.31
273.21	11.58
273.424	11.04
273.638	10.18
273.853	10.8
274.067	10.52
274.281	10.59
274.495	10.59
274.71	10.5
274.924	10.82
275.138	10.16
275.352	9.65
275.566	9.29
275.781	10.15
275.995	10.65
276.209	10.47
276.423	10.47
276.637	10.43
276.851	10.56
277.065	10.37
277.279	11.19
277.493	12.07
277.707	13.25
277.921	13.1
278.135	12.48
278.349	12.32
278.563	12.38
278.777	12.17
278.991	11.72
279.205	11.95
279.419	11.99
279.633	11.53
279.847	11.46
280.061	10.9
280.275	11.09
280.489	11.16
280.703	11.31
280.917	11.11
281.131	11.46
281.344	11.78
281.558	11.67
281.772	11.74
281.986	11.37
282.2	11.3
282.414	11.45
282.627	11.47
282.841	11.76
283.055	11.88
283.269	12.28
283.482	12.58
283.696	12.52
283.91	12.18
284.123	12.31
284.337	12.45
284.551	12.44
284.764	12.64
284.978	12.32
285.192	12.3
285.405	12.49
285.619	12.62
285.833	12.31
286.046	11.95
286.26	12.78
286.473	12.58
286.687	12.8
286.9	12.8
287.114	12.16
287.327	12.26
287.541	11.68
287.754	11.19
287.968	10.65
288.181	10.22
288.395	10.87
288.608	10.34
288.822	10.23
289.035	10.07
289.248	10.08
289.462	10.25
289.675	10.23
289.889	10.63
290.102	10.81
290.315	11.12
290.529	11.64
290.742	11.66
290.955	11.81
291.169	11.53
291.382	12.34
291.595	12.59
291.808	12.74
292.022	13.07
292.235	12.79
292.448	12.95
292.661	12.99
292.875	12.87
293.088	12.72
293.301	12.78
293.514	13.11
293.727	12.81
293.94	12.6
294.153	12.85
294.367	12.5
294.58	12.49
294.793	12.27
295.006	12.39
295.219	12.56
295.432	12.62
295.645	12.83
295.858	12.77
296.071	12.6
296.284	12.57
296.497	12.33
296.71	12.61
296.923	13.22
297.136	13.2
297.349	13.35
297.562	13.26
297.775	13.12
297.988	13.11
298.201	13.09
298.414	13.14
298.626	13.12
298.839	13.32
299.052	12.93
299.265	12.01
299.478	12.38
299.691	12.19
299.903	12.33
300.116	12.6
300.329	11.72
300.542	12.02
300.755	11.88
300.967	12.35
301.18	12.44
301.393	12.55
301.605	12.86
301.818	12.63
302.031	12.51
302.243	12.25
302.456	12.44
302.669	12.91
302.881	12.9
303.094	12.91
303.307	12.75
303.519	12.89
303.732	13.66
303.944	13.38
304.157	13.4
304.37	13.43
304.582	14.04
304.795	13.97
305.007	14.69
305.22	14.26
305.432	14.12
305.645	13.83
305.857	13.47
306.069	12.71
306.282	13.16
306.494	13.4
306.707	13.53
306.919	12.88
307.132	12.63
307.344	12.17
307.556	12.88
307.769	13.31
307.981	13.53
308.193	13.7
308.406	13.87
308.618	14.15
308.83	13.9
309.043	13.64
309.255	13.95
309.467	13.41
309.679	13.57
309.892	13.49
310.104	13.27
310.316	13.46
310.528	13.27
310.74	13.38
310.953	13.23
311.165	13.22
311.377	13.34
311.589	13.55
311.801	14.32
312.013	14.15
312.225	13.7
312.437	14.02
312.649	13.63
312.862	13.97
313.074	14.06
313.286	13.94
313.498	14.04
313.71	14.51
313.922	14.26
314.134	14.09
314.346	13.93
314.558	14.88
314.77	14.8
314.982	15
315.193	15.17
315.405	15.16
315.617	15.06
315.829	15.57
316.041	15.19
316.253	15.33
316.465	15.5
316.677	15.74
316.888	15.27
317.1	15.38
317.312	15.33
317.524	14.89
317.736	15.28
317.947	15.41
318.159	15.12
318.371	14.72
318.583	15.13
318.794	15.29
319.006	15.57
319.218	15.76
319.43	15.64
319.641	15.61
319.853	15.38
320.064	15.11
320.276	15.32
320.488	15.27
320.699	16.06
320.911	15.38
321.123	14.83
321.334	14.89
321.546	14.4
321.757	14.16
321.969	14.24
322.18	14.61
322.392	14.35
322.603	14.17
322.815	14.36
323.026	13.92
323.238	14.13
323.449	14.12
323.661	13.68
323.872	14.02
324.083	14.19
324.295	14.28
324.506	14.1
324.718	14.05
324.929	14.41
325.14	14.28
325.352	14.15
325.563	14.41
325.774	14.94
325.986	15.92
326.197	15.53
326.408	15.89
326.62	15.61
326.831	15.91
327.042	15.88
327.253	15.67
327.464	15.22
327.676	15.91
327.887	15.16
328.098	14.53
328.309	13.75
328.52	13.85
328.732	13.69
328.943	13.7
329.154	13.19
329.365	13.26
329.576	12.8
329.787	13.83
329.998	13.56
330.209	14.27
330.42	14.44
330.631	14.32
330.842	14.69
331.053	14.45
331.264	14.74
331.475	14.93
331.686	14.97
331.897	14.87
332.108	14.41
332.319	14.48
332.53	14
332.741	13.98
332.952	13.66
333.163	13.15
333.374	13.13
333.585	13
333.795	12.9
334.006	13.12
334.217	13.72
334.428	13.58
334.639	13.26
334.849	13.45
335.06	13.58
335.271	13.64
335.482	13.74
335.692	13.96
335.903	13.87
336.114	13.93
336.325	13.76
336.535	13.62
336.746	13.92
336.957	13.9
337.167	14.04
337.378	14.31
337.589	14.74
337.799	14.87
338.01	15.03
338.22	15.31
338.431	15.31
338.642	15.19
338.852	15.08
339.063	14.6
339.273	14.73
339.484	14.4
339.694	13.96
339.905	13.63
340.115	13.79
340.326	13.58
340.536	13.45
340.746	13.29
340.957	13.62
341.167	13.52
341.378	13.6
341.588	13.66
341.799	14.08
342.009	13.85
342.219	13.86
342.43	13.98
342.64	13.75
342.85	13.59
343.061	13.54
343.271	13.49
343.481	13.52
343.691	13.31
343.902	12.93
344.112	12.46
344.322	12.8
344.532	12.86
344.743	12.56
344.953	12.35
345.163	12.36
345.373	12.4
345.583	12.12
345.793	11.97
346.004	12.6
346.214	12.83
346.424	13.18
346.634	12.92
346.844	12.54
347.054	12.42
347.264	12.64
347.474	12.92
347.684	13.11
347.894	12.98
348.104	13.04
348.314	12.75
348.524	12.36
348.734	12.23
348.944	12.56
349.154	12.96
349.364	12.81
349.574	12.52
349.784	11.9
349.994	12.01
350.204	12.27
350.413	12.4
350.623	12.45
350.833	12.89
351.043	12.47
351.253	12.33
351.463	12.05
351.672	12.17
351.882	12.7
352.092	12.95
352.302	12.8
352.511	12.55
352.721	12.48
352.931	12.18
353.141	12.01
353.35	12.28
353.56	12.17
353.77	12.48
353.979	12.49
354.189	11.91
354.399	11.66
354.608	11.4
354.818	11.63
355.027	11.69
355.237	11.77
355.447	11.72
355.656	11.74
355.866	11.77
356.075	11.59
356.285	11.56
356.494	11.56
356.704	11.59
356.913	11.45
357.123	11.27
357.332	11.24
357.542	10.99
357.751	11
357.96	10.89
358.17	10.8
358.379	10.74
358.589	10.69
358.798	10.71
359.007	10.7
359.217	10.84
359.426	10.7
359.635	10.64
359.845	10.88
360.054	11.05
360.263	10.89
360.472	10.88
360.682	10.84
360.891	10.92
361.1	11.24
361.309	11.38
361.519	11.51
361.728	11.69
361.937	11.67
362.146	11.57
362.355	11.29
362.564	11.37
362.774	11.52
362.983	11.76
363.192	11.79
363.401	11.55
363.61	11.44
363.819	11.31
364.028	11.01
364.237	11.01
364.446	10.99
364.655	10.83
364.864	11.11
365.073	10.98
365.282	10.88
365.491	10.92
365.7	10.92
365.909	10.73
366.118	10.92
366.327	10.95
366.536	11.01
366.745	11.05
366.954	11.34
367.162	11.16
367.371	11.16
367.58	11.04
367.789	10.77
367.998	10.65
368.207	10.83
368.415	10.58
368.624	10.64
368.833	10.46
369.042	10.14
369.25	10.18
369.459	10.29
369.668	10.06
369.877	9.93
370.085	9.85
370.294	9.57
370.503	9.25
370.711	9.47
370.92	9.35
371.129	9.39
371.337	9.62
371.546	9.42
371.754	9.49
371.963	9.52
372.171	9.67
372.38	9.74
372.589	10.29
372.797	10.52
373.006	10.19
373.214	10.52
373.423	10.26
373.631	10.2
373.84	9.96
374.048	9.88
374.256	9.81
374.465	9.91
374.673	9.87
374.882	9.7
375.09	9.63
375.298	9.49
375.507	9.23
375.715	9.37
375.923	9.35
376.132	9.37
376.34	9.14
376.548	9.24
376.757	9.3
376.965	9.47
377.173	9.38
377.381	9.47
377.59	9.71
377.798	9.81
378.006	9.79
378.214	9.79
378.423	9.92
378.631	9.91
378.839	9.8
379.047	9.52
379.255	9.11
379.463	9.29
379.671	9.09
379.879	9.17
380.088	9.25
380.296	9.15
380.504	9.21
380.712	9.37
380.92	9.05
381.128	9.29
381.336	9.08
381.544	9.16
381.752	8.83
381.96	8.79
382.168	8.58
382.376	8.54
382.584	8.59
382.791	8.33
382.999	8.19
383.207	8.38
383.415	8.28
383.623	8.48
383.831	8.67
384.039	8.76
384.247	8.96
384.454	8.99
384.662	8.91
384.87	8.8
385.078	8.84
385.285	8.79
385.493	8.83
385.701	8.64
385.909	8.64
386.116	8.5
386.324	8.35
386.532	8.04
386.739	7.83
386.947	7.88
387.155	7.99
387.362	8.03
387.57	8.09
387.778	8.13
387.985	8.22
388.193	8.09
388.4	8.04
388.608	8.24
388.816	8.21
389.023	8.51
389.231	8.38
389.438	8.28
389.646	8.24
389.853	8.02
390.061	7.61
390.268	7.7
390.475	7.89
390.683	7.95
390.89	7.89
391.098	7.97
391.305	7.95
391.512	7.81
391.72	7.93
391.927	7.92
392.135	7.79
392.342	8.16
392.549	8.09
392.756	8.03
392.964	7.97
393.171	8.02
393.378	7.96
393.586	8
393.793	8.1
394	7.66
394.207	7.69
394.414	7.95
394.622	7.95
394.829	7.95
395.036	7.78
395.243	7.87
395.45	7.9
395.657	7.89
395.864	7.72
396.072	7.81
396.279	7.93
396.486	7.83
396.693	7.98
396.9	7.96
397.107	7.87
397.314	8.15
397.521	7.99
397.728	7.89
397.935	8.28
398.142	8.25
398.349	8.21
398.556	8.59
398.763	8.54
398.97	8.46
399.177	8.52
399.383	8.61
399.59	8.34
399.797	8.31
400.004	8.24
400.211	7.99
400.418	8.08
400.625	8.07
400.831	7.72
401.038	7.72
401.245	7.64
401.452	7.43
401.658	7.24
401.865	7.31
402.072	7.25
402.279	7.29
402.485	7.16
402.692	7.16
402.899	7.17
403.105	7.34
403.312	7.25
403.519	7.36
403.725	7.46
403.932	7.64
404.138	7.44
404.345	7.52
404.552	7.57
404.758	7.75
404.965	7.5
405.171	7.48
405.378	7.45
405.584	7.52
405.791	7.19
405.997	7.25
406.204	7.29
406.41	7.55
406.617	7.45
406.823	7.53
407.029	7.64
407.236	7.91
407.442	7.84
407.649	8.01
407.855	7.91
408.061	7.95
408.268	7.86
408.474	7.75
408.68	7.63
408.887	7.81
409.093	7.65
409.299	7.45
409.505	7.35
409.712	7.33
409.918	6.97
410.124	7.08
410.33	7
410.537	7.09
410.743	7.06
410.949	7.07
411.155	6.9
411.361	6.78
411.567	6.78
411.773	6.87
411.98	6.92
412.186	7.1
412.392	7.06
412.598	7.37
412.804	7.1
413.01	7.13
413.216	7.28
413.422	7.33
413.628	7.44
413.834	7.46
414.04	7.29
414.246	7.07
414.452	7.15
414.658	7.16
414.864	6.96
415.07	7.07
415.275	7.06
415.481	6.9
415.687	6.74
415.893	6.63
416.099	6.52
416.305	6.59
416.511	6.89
416.716	6.84
416.922	6.88
417.128	7.06
417.334	7.05
417.539	6.97
417.745	6.98
417.951	7.11
418.157	7.23
418.362	7.14
418.568	7.12
418.774	6.95
418.979	6.97
419.185	6.96
419.391	6.78
419.596	6.78
419.802	6.79
420.008	6.81
420.213	6.74
420.419	6.76
420.624	6.83
420.83	6.72
421.035	6.71
421.241	6.68
421.446	6.67
421.652	6.68
421.857	6.66
422.063	6.64
422.268	6.59
422.474	6.66
422.679	6.59
422.885	6.68
423.09	6.69
423.295	6.67
423.501	6.68
423.706	6.63
423.911	6.64
424.117	6.71
424.322	6.68
424.527	6.59
424.733	6.57
424.938	6.59
425.143	6.54
425.349	6.68
425.554	6.69
425.759	6.67
425.964	6.64
426.169	6.65
426.375	6.48
426.58	6.48
426.785	6.63
426.99	6.69
427.195	6.67
427.4	6.53
427.605	6.39
427.811	6.38
428.016	6.31
428.221	6.37
428.426	6.3
428.631	6.42
428.836	6.5
429.041	6.39
429.246	6.28
429.451	6.25
429.656	6.31
429.861	6.35
430.066	6.46
430.271	6.57
430.476	6.56
430.681	6.63
430.886	6.55
431.09	6.47
431.295	6.51
431.5	6.43
431.705	6.36
431.91	6.51
432.115	6.51
432.32	6.4
432.524	6.32
432.729	6.31
432.934	6.39
433.139	6.45
433.343	6.51
433.548	6.53
433.753	6.61
433.958	6.63
434.162	6.46
434.367	6.41
434.572	6.4
434.776	6.36
434.981	6.32
435.186	6.12
435.39	6.1
435.595	6.08
435.799	6.11
436.004	6.18
436.209	6.05
436.413	6.03
436.618	6.02
436.822	6.1
437.027	6.24
437.231	6.3
437.436	6.33
437.64	6.34
437.845	6.29
438.049	6.33
438.253	6.26
438.458	6.35
438.662	6.38
438.867	6.45
439.071	6.49
439.275	6.39
439.48	6.37
439.684	6.36
439.888	6.27
440.093	6.38
440.297	6.32
440.501	6.33
440.706	6.37
440.91	6.37
441.114	6.3
441.318	6.16
441.523	6.16
441.727	6.19
441.931	6.33
442.135	6.35
442.339	6.25
442.543	6.21
442.748	6.28
442.952	6.23
443.156	6.19
443.36	6.24
443.564	6.31
443.768	6.3
443.972	6.24
444.176	6.2
444.38	6.17
444.584	6.13
444.788	6.18
444.992	6.12
445.196	6.16
445.4	6.2
445.604	6.08
445.808	6.09
446.012	6.13
446.216	6.07
446.42	5.98
446.624	6.02
446.828	6.03
447.032	5.97
447.235	5.98
447.439	5.87
447.643	5.89
447.847	6
448.051	6.06
448.254	6.01
448.458	6.12
448.662	6.18
448.866	6.15
449.069	6.23
449.273	6.17
449.477	6.19
449.681	6.28
449.884	6.17
450.088	6.23
450.292	6.19
450.495	6.09
450.699	6.14
450.902	6.22
451.106	6.19
451.31	6.09
451.513	6.17
451.717	6.03
451.92	5.91
452.124	5.92
452.327	5.87
452.531	5.85
452.734	6.01
452.938	5.88
453.141	5.87
453.345	5.91
453.548	5.94
453.752	5.98
453.955	6.21
454.158	6.25
454.362	6.24
454.565	6.34
454.769	6.3
454.972	6.32
455.175	6.35
455.379	6.25
455.582	6.29
455.785	6.35
455.988	6.31
456.192	6.08
456.395	6.1
456.598	6.19
456.801	6.09
457.005	6.02
457.208	5.89
457.411	5.89
457.614	5.88
457.817	5.82
458.021	5.76
458.224	5.85
458.427	5.86
458.63	5.92
458.833	5.87
459.036	5.86
459.239	5.91
459.442	5.89
459.645	5.85
459.848	5.81
460.051	5.82
460.254	5.93
460.457	5.76
460.66	5.88
460.863	5.84
461.066	5.86
461.269	5.84
461.472	5.87
461.675	5.87
461.878	5.86
462.081	6.05
462.284	6.14
462.486	6.05
462.689	6.11
462.892	6.04
463.095	5.99
463.298	5.99
463.5	5.98
463.703	5.86
463.906	5.96
464.109	5.93
464.311	5.88
464.514	5.9
464.717	6.05
464.92	6.02
465.122	5.99
465.325	6.11
465.528	6.08
465.73	6.3
465.933	6.21
466.135	6.22
466.338	6.2
466.541	6.22
466.743	6.11
466.946	5.95
467.148	5.95
467.351	5.99
467.553	5.89
467.756	5.94
467.958	5.71
468.161	5.98
468.363	5.87
468.566	6.09
468.768	5.97
468.971	6.03
469.173	6.08
469.375	6.02
469.578	5.86
469.78	5.95
469.983	5.96
470.185	6.01
470.387	5.97
470.59	6.14
470.792	5.94
470.994	6.08
471.196	6.07
471.399	6
471.601	6
471.803	6.16
472.005	6.1
472.208	6.04
472.41	6.05
472.612	5.93
472.814	5.85
473.016	6.05
473.218	5.97
473.421	6
473.623	6.05
473.825	6.1
474.027	5.99
474.229	5.99
474.431	6
474.633	6.03
474.835	6.09
475.037	6.09
475.239	5.97
475.441	5.95
475.643	5.93
475.845	5.89
476.047	5.84
476.249	5.87
476.451	5.87
476.653	5.86
476.855	5.84
477.057	5.79
477.258	5.79
477.46	5.75
477.662	5.74
477.864	5.69
478.066	5.7
478.268	5.79
478.469	5.86
478.671	5.85
478.873	5.98
479.075	5.93
479.276	5.97
479.478	5.94
479.68	6.05
479.882	6.05
480.083	6.07
480.285	6.13
480.487	6.04
480.688	5.94
480.89	5.92
481.091	5.83
481.293	5.84
481.495	5.78
481.696	5.8
481.898	5.78
482.099	5.75
482.301	5.75
482.502	5.69
482.704	5.71
482.905	5.73
483.107	5.7
483.308	5.68
483.51	5.66
483.711	5.66
483.913	5.62
484.114	5.59
484.315	5.54
484.517	5.52
484.718	5.53
484.92	5.49
485.121	5.45
485.322	5.49
485.524	5.52
485.725	5.54
485.926	5.51
486.127	5.55
486.329	5.54
486.53	5.59
486.731	5.57
486.932	5.58
487.134	5.59
487.335	5.6
487.536	5.58
487.737	5.58
487.938	5.6
488.139	5.63
488.341	5.61
488.542	5.64
488.743	5.68
488.944	5.69
489.145	5.69
489.346	5.7
489.547	5.75
489.748	5.74
489.949	5.74
490.15	5.72
490.351	5.71
490.552	5.73
490.753	5.72
490.954	5.69
491.155	5.68
491.356	5.68
491.557	5.73
491.758	5.72
491.959	5.75
492.159	5.71
492.36	5.71
492.561	5.74
492.762	5.74
492.963	5.73
493.164	5.72
493.364	5.78
493.565	5.75
493.766	5.68
493.967	5.71
494.167	5.71
494.368	5.69
494.569	5.7
494.769	5.69
494.97	5.67
495.171	5.68
495.371	5.76
495.572	5.81
495.773	5.83
495.973	5.83
496.174	5.75
496.375	5.79
496.575	5.81
496.776	5.86
496.976	5.85
497.177	5.87
497.377	5.87
497.578	5.85
497.778	5.81
497.979	5.86
498.179	5.83
498.38	5.86
498.58	5.84
498.78	5.87
498.981	5.78
499.181	5.82
499.382	5.85
499.582	5.83
499.782	5.86
499.983	5.84
500.183	5.8
500.383	5.86
500.584	5.82
500.784	5.76
500.984	5.71
501.184	5.69
501.385	5.61
501.585	5.51
501.785	5.55
501.985	5.44
502.185	5.51
502.386	5.52
502.586	5.51
502.786	5.67
502.986	5.73
503.186	5.73
503.386	5.78
503.586	5.86
503.786	5.82
503.987	5.89
504.187	5.96
504.387	5.93
504.587	5.9
504.787	5.9
504.987	5.81
505.187	5.73
505.387	5.79
505.587	5.84
505.786	5.88
505.986	6.05
506.186	6.07
506.386	6.05
506.586	6.05
506.786	6.05
506.986	6.12
507.186	6.18
507.386	6.33
507.585	6.36
507.785	6.38
507.985	6.31
508.185	6.24
508.384	6.22
508.584	6.2
508.784	6.22
508.984	6.27
509.183	6.21
509.383	6.21
509.583	6.25
509.782	6.28
509.982	6.3
510.182	6.33
510.381	6.38
510.581	6.38
510.781	6.45
510.98	6.44
511.18	6.43
511.379	6.42
511.579	6.42
511.778	6.34
511.978	6.21
512.177	6.19
512.377	6.27
512.576	6.26
512.776	6.13
512.975	6.11
513.175	6.09
513.374	6.17
513.573	6.31
513.773	6.35
513.972	6.39
514.172	6.51
514.371	6.56
514.57	6.52
514.77	6.58
514.969	6.78
515.168	6.8
515.367	6.85
515.567	6.79
515.766	6.69
515.965	6.68
516.164	6.65
516.364	6.63
516.563	6.57
516.762	6.55
516.961	6.53
517.16	6.5
517.359	6.47
517.559	6.48
517.758	6.46
517.957	6.53
518.156	6.52
518.355	6.57
518.554	6.64
518.753	6.68
518.952	6.7
519.151	6.72
519.35	6.77
519.549	6.82
519.748	6.78
519.947	6.86
520.146	6.78
520.345	6.8
520.544	6.69
520.743	6.76
520.942	6.79
521.141	6.79
521.339	6.89
521.538	6.92
521.737	6.9
521.936	6.97
522.135	7.01
522.333	7.06
522.532	7.05
522.731	7.15
522.93	7.11
523.129	7.15
523.327	7.18
523.526	7.06
523.725	7.08
523.923	7.1
524.122	7.15
524.321	7.11
524.519	7.19
524.718	7.23
524.917	7.23
525.115	7.24
525.314	7.23
525.512	7.26
525.711	7.37
525.909	7.38
526.108	7.41
526.306	7.4
526.505	7.44
526.703	7.46
526.902	7.42
527.1	7.41
527.299	7.4
527.497	7.4
527.696	7.37
527.894	7.34
528.092	7.33
528.291	7.36
528.489	7.4
528.688	7.36
528.886	7.33
529.084	7.38
529.283	7.42
529.481	7.43
529.679	7.48
529.877	7.56
530.076	7.57
530.274	7.62
530.472	7.65
530.67	7.65
530.869	7.68
531.067	7.69
531.265	7.69
531.463	7.72
531.661	7.73
531.859	7.72
532.057	7.67
532.255	7.71
532.454	7.68
532.652	7.67
532.85	7.69
533.048	7.75
533.246	7.72
533.444	7.69
533.642	7.71
533.84	7.73
534.038	7.78
534.236	7.8
534.434	7.79
534.632	7.73
534.83	7.8
535.027	7.8
535.225	7.74
535.423	7.84
535.621	7.94
535.819	7.95
536.017	7.94
536.215	7.92
536.412	8.03
536.61	8.09
536.808	8.15
537.006	8.09
537.203	8.15
537.401	8.23
537.599	8.21
537.797	8.23
537.994	8.26
538.192	8.34
538.39	8.38
538.587	8.44
538.785	8.41
538.983	8.53
539.18	8.56
539.378	8.47
539.575	8.48
539.773	8.52
539.97	8.5
540.168	8.54
540.366	8.52
540.563	8.54
540.761	8.5
540.958	8.59
541.155	8.54
541.353	8.54
541.55	8.58
541.748	8.6
541.945	8.56
542.143	8.59
542.34	8.58
542.537	8.62
542.735	8.64
542.932	8.68
543.129	8.6
543.327	8.69
543.524	8.78
543.721	8.8
543.919	8.81
544.116	8.84
544.313	8.94
544.51	8.93
544.708	8.93
544.905	9
545.102	9.01
545.299	9.09
545.496	9.14
545.693	9.09
545.891	9.18
546.088	9.17
546.285	9.22
546.482	9.18
546.679	9.25
546.876	9.32
547.073	9.38
547.27	9.45
547.467	9.48
547.664	9.51
547.861	9.58
548.058	9.57
548.255	9.67
548.452	9.79
548.649	9.95
548.846	9.99
549.043	10.02
549.24	10.02
549.437	10.04
549.633	10.04
549.83	9.99
550.027	10.02
550.224	10.16
550.421	10.25
550.618	10.27
550.814	10.2
551.011	10.23
551.208	10.22
551.405	10.22
551.601	10.28
551.798	10.34
551.995	10.36
552.191	10.38
552.388	10.3
552.585	10.3
552.781	10.41
552.978	10.45
553.175	10.52
553.371	10.64
553.568	10.72
553.764	10.79
553.961	10.77
554.157	10.91
554.354	10.91
554.55	10.99
554.747	11.02
554.943	10.93
555.14	11.03
555.336	11.02
555.533	11.06
555.729	11.14
555.926	11.09
556.122	11.17
556.318	11.26
556.515	11.42
556.711	11.42
556.907	11.45
557.104	11.65
557.3	11.68
557.496	11.58
557.693	11.52
557.889	11.51
558.085	11.44
558.281	11.54
558.478	11.44
558.674	11.38
558.87	11.43
559.066	11.51
559.262	11.42
559.459	11.38
559.655	11.63
559.851	11.71
560.047	11.76
560.243	11.92
560.439	11.97
560.635	12.13
560.831	12.18
561.027	12.33
561.223	12.29
561.419	12.3
561.615	12.4
561.811	12.5
562.007	12.56
562.203	12.61
562.399	12.67
562.595	12.62
562.791	12.81
562.987	12.88
563.183	12.99
563.379	13.09
563.575	13.23
563.771	13.29
563.966	13.22
564.162	13.31
564.358	13.43
564.554	13.38
564.75	13.4
564.945	13.33
565.141	13.35
565.337	13.25
565.533	13.43
565.728	13.43
565.924	13.46
566.12	13.55
566.315	13.6
566.511	13.5
566.707	13.72
566.902	13.86
567.098	13.96
567.293	14.13
567.489	14.24
567.684	14.2
567.88	14.26
568.076	14.41
568.271	14.53
568.467	14.47
568.662	14.58
568.858	14.48
569.053	14.51
569.248	14.51
569.444	14.52
569.639	14.5
569.835	14.57
570.03	14.76
570.225	14.67
570.421	14.67
570.616	14.82
570.812	14.99
571.007	15.01
571.202	15.19
571.397	15.32
571.593	15.32
571.788	15.34
571.983	15.36
572.178	15.4
572.374	15.56
572.569	15.68
572.764	15.74
572.959	15.76
573.154	15.91
573.35	15.84
573.545	15.81
573.74	15.92
573.935	16.09
574.13	16.14
574.325	16.14
574.52	16.15
574.715	16.15
574.91	16.17
575.105	16.23
575.3	16.26
575.495	16.23
575.69	16.25
575.885	16.36
576.08	16.43
576.275	16.52
576.47	16.59
576.665	16.59
576.86	16.61
577.055	16.58
577.25	16.55
577.444	16.71
577.639	16.85
577.834	17
578.029	16.97
578.224	16.91
578.418	16.92
578.613	17
578.808	17.16
579.003	17.27
579.197	17.38
579.392	17.49
579.587	17.45
579.781	17.44
579.976	17.43
580.171	17.52
580.365	17.58
580.56	17.59
580.755	17.65
580.949	17.66
581.144	17.71
581.338	17.73
581.533	17.69
581.727	17.86
581.922	18.03
582.116	18.13
582.311	18.19
582.505	18.33
582.7	18.44
582.894	18.43
583.089	18.48
583.283	18.52
583.478	18.53
583.672	18.55
583.866	18.42
584.061	18.35
584.255	18.29
584.449	18.17
584.644	18.16
584.838	18.16
585.032	18.05
585.226	18.06
585.421	18.14
585.615	18.14
585.809	18.19
586.003	18.3
586.198	18.26
586.392	18.4
586.586	18.6
586.78	18.67
586.974	18.87
587.168	19.02
587.363	19.04
587.557	18.97
587.751	19.19
587.945	19.35
588.139	19.47
588.333	19.64
588.527	19.7
588.721	19.61
588.915	19.67
589.109	19.54
589.303	19.56
589.497	19.54
589.691	19.58
589.885	19.5
590.079	19.26
590.273	19.17
590.466	19.1
590.66	19.07
590.854	19.23
591.048	19.12
591.242	19.13
591.436	19.1
591.629	19.23
591.823	19.35
592.017	19.32
592.211	19.59
592.404	19.64
592.598	19.79
592.792	19.63
592.986	19.66
593.179	19.76
593.373	19.82
593.567	19.89
593.76	19.84
593.954	19.89
594.147	20.08
594.341	20.11
594.535	20.21
594.728	20.11
594.922	20.29
595.115	20.34
595.309	20.42
595.502	20.54
595.696	20.57
595.889	20.71
596.083	20.68
596.276	20.58
596.47	20.68
596.663	20.65
596.856	20.75
597.05	20.82
597.243	20.81
597.437	20.81
597.63	20.87
597.823	20.88
598.017	20.83
598.21	20.77
598.403	20.83
598.596	20.65
598.79	20.77
598.983	20.88
599.176	20.84
599.369	20.84
599.563	20.86
599.756	20.62
599.949	20.53
600.142	20.47
600.335	20.5
600.528	20.43
600.722	20.55
600.915	20.49
601.108	20.61
601.301	20.67
601.494	20.77
601.687	20.85
601.88	20.86
602.073	21.02
602.266	21.05
602.459	21.17
602.652	21.29
602.845	21.27
603.038	21.22
603.231	21.21
603.424	21.2
603.617	21.19
603.809	21.18
604.002	21.27
604.195	21.37
604.388	21.43
604.581	21.46
604.774	21.57
604.966	21.62
605.159	21.72
605.352	21.64
605.545	21.65
605.737	21.67
605.93	21.78
606.123	21.85
606.316	21.73
606.508	21.68
606.701	21.71
606.894	21.67
607.086	21.75
607.279	21.72
607.471	21.64
607.664	21.65
607.857	21.7
608.049	21.71
608.242	21.59
608.434	21.59
608.627	21.6
608.819	21.59
609.012	21.57
609.204	21.53
609.397	21.61
609.589	21.69
609.782	21.76
609.974	21.71
610.166	21.69
610.359	21.81
610.551	21.85
610.743	21.89
610.936	21.97
611.128	22.01
611.32	22.01
611.513	21.92
611.705	21.94
611.897	21.94
612.09	21.95
612.282	21.97
612.474	22
612.666	22
612.858	22.17
613.051	22.25
613.243	22.3
613.435	22.24
613.627	22.18
613.819	22.26
614.011	22.44
614.203	22.53
614.395	22.64
614.588	22.6
614.78	22.62
614.972	22.5
615.164	22.32
615.356	22.29
615.548	22.31
615.74	22.34
615.932	22.45
616.124	22.15
616.315	22.33
616.507	22.24
616.699	22.3
616.891	22.39
617.083	22.46
617.275	22.6
617.467	22.56
617.659	22.55
617.85	22.83
618.042	22.84
618.234	23.04
618.426	22.83
618.618	22.8
618.809	22.8
619.001	22.81
619.193	23.03
619.384	22.92
619.576	23.03
619.768	23.05
619.959	22.92
620.151	22.99
620.343	22.95
620.534	22.96
620.726	22.94
620.917	23.06
621.109	23.1
621.301	22.85
621.492	23.08
621.684	23.01
621.875	23.08
622.067	23.1
622.258	22.88
622.45	22.82
622.641	22.72
622.832	22.84
623.024	22.69
623.215	22.58
623.407	22.57
623.598	22.4
623.789	22.62
623.981	22.55
624.172	22.65
624.363	22.67
624.555	22.85
624.746	23
624.937	23.05
625.129	23.22
625.32	23.29
625.511	23.57
625.702	23.52
625.893	23.4
626.085	23.49
626.276	23.51
626.467	23.51
626.658	23.36
626.849	23.18
627.04	23.24
627.231	23.27
627.422	23.24
627.614	23.03
627.805	23.13
627.996	23.13
628.187	23.15
628.378	23.01
628.569	23.19
628.76	23.38
628.951	23.49
629.142	23.23
629.332	23.17
629.523	23.18
629.714	23.2
629.905	23.1
630.096	23.1
630.287	23.19
630.478	23.29
630.669	23.39
630.859	23.38
631.05	23.45
631.241	23.51
631.432	23.43
631.623	23.53
631.813	23.43
632.004	23.54
632.195	23.44
632.385	23.26
632.576	23.34
632.767	23.19
632.957	23.22
633.148	23.22
633.339	23.32
633.529	23.31
633.72	23.27
633.91	23.4
634.101	23.07
634.292	23.22
634.482	23.33
634.673	23.25
634.863	23.19
635.054	23.23
635.244	23.25
635.435	23.17
635.625	23.23
635.815	23.06
636.006	23.09
636.196	23.3
636.387	23.35
636.577	23.29
636.767	23.32
636.958	23.12
637.148	23.01
637.338	23.11
637.529	23.21
637.719	23.16
637.909	23.34
638.099	23.25
638.29	23.44
638.48	23.39
638.67	23.51
638.86	23.44
639.05	23.68
639.241	23.8
639.431	23.61
639.621	23.78
639.811	23.71
640.001	23.51
640.191	23.56
640.381	23.5
640.571	23.61
640.761	23.19
640.951	23.21
641.141	23.35
641.331	23.19
641.521	23.41
641.711	23.17
641.901	23.31
642.091	23.65
642.281	23.67
642.471	23.56
642.661	23.45
642.851	24.01
643.041	24.17
643.231	24.07
643.42	24.16
643.61	24.13
643.8	24.23
643.99	24.14
644.18	24.13
644.369	24.14
644.559	24.44
644.749	24.46
644.939	24.26
645.128	24.03
645.318	23.98
645.508	24.18
645.697	24.02
645.887	23.98
646.076	23.97
646.266	23.98
646.456	24.09
646.645	24.08
646.835	24.23
647.024	24.27
647.214	24.56
647.403	24.61
647.593	24.52
647.782	24.68
647.972	24.66
648.161	24.93
648.351	24.78
648.54	24.57
648.73	24.53
648.919	24.42
649.108	24.13
649.298	24.11
649.487	24.16
649.677	23.95
649.866	23.86
650.055	23.99
650.244	23.74
650.434	24.02
650.623	24.26
650.812	23.96
651.002	23.98
651.191	24.24
651.38	24.11
651.569	24.01
651.758	24
651.947	24.05
652.137	24.13
652.326	24.44
652.515	24.19
652.704	24.16
652.893	24.67
653.082	24.62
653.271	24.81
653.46	24.75
653.649	24.96
653.838	25.24
654.027	25.31
654.216	25.16
654.405	24.99
654.594	25.1
654.783	25
654.972	24.81
655.161	24.98
655.35	25.09
655.539	25.47
655.728	25.54
655.916	25.34
656.105	25.35
656.294	25.66
656.483	25.62
656.672	25.65
656.86	25.64
657.049	25.64
657.238	25.54
657.427	25.38
657.615	25.27
657.804	25.11
657.993	25.23
658.181	25.34
658.37	25.28
658.559	25.4
658.747	25.27
658.936	25.33
659.125	24.95
659.313	25
659.502	24.88
659.69	24.75
659.879	24.83
660.067	24.78
660.256	24.56
660.444	24.49
660.633	24.33
660.821	24.53
661.01	24.55
661.198	25.18
661.387	25.27
661.575	25.51
661.763	25.76
661.952	25.52
662.14	25.5
662.328	25.5
662.517	25.4
662.705	25.33
662.893	25.12
663.082	25.15
663.27	25.11
663.458	24.9
663.646	24.94
663.834	24.78
664.023	24.76
664.211	24.83
664.399	25.01
664.587	25.04
664.775	25.21
664.963	25.26
665.152	25.13
665.34	25.11
665.528	25.21
665.716	25.09
665.904	25.17
666.092	25.38
666.28	25.38
666.468	25.29
666.656	25.54
666.844	25.62
667.032	25.75
667.22	25.85
667.408	25.77
667.596	25.95
667.784	25.91
667.971	25.79
668.159	25.66
668.347	25.57
668.535	25.72
668.723	25.39
668.911	25.45
669.098	25.34
669.286	25.44
669.474	25.66
669.662	25.68
669.849	25.99
670.037	26.21
670.225	26.33
670.413	26.49
670.6	26.23
670.788	26.29
670.976	26.19
671.163	26.15
671.351	25.95
671.538	25.8
671.726	25.5
671.913	25.07
672.101	24.99
672.289	25.12
672.476	24.99
672.664	25.57
672.851	25.46
673.039	25.43
673.226	25.38
673.413	25.54
673.601	25.53
673.788	25.57
673.976	25.71
674.163	25.62
674.35	25.25
674.538	25.38
674.725	25.04
674.912	25.36
675.1	25.58
675.287	25.77
675.474	25.86
675.662	25.9
675.849	26.19
676.036	26.23
676.223	26.38
676.411	26.59
676.598	26.44
676.785	26.44
676.972	26.27
677.159	25.89
677.346	25.99
677.533	25.9
677.721	26.01
677.908	25.79
678.095	25.88
678.282	25.56
678.469	25.45
678.656	25.7
678.843	25.91
679.03	26.01
679.217	26.3
679.404	26.35
679.591	26.42
679.778	26.07
679.964	26.19
680.151	25.99
680.338	26.24
680.525	26.74
680.712	26.49
680.899	26.4
681.086	26.45
681.272	25.99
681.459	25.77
681.646	25.52
681.833	25.86
682.02	25.74
682.206	25.9
682.393	26
682.58	25.7
682.766	26.02
682.953	25.88
683.14	25.7
683.326	26.63
683.513	26.86
683.7	26.95
683.886	26.91
684.073	26.92
684.259	27.02
684.446	27.16
684.632	27.11
684.819	27.08
685.005	26.67
685.192	27.07
685.378	26.61
685.565	26.65
685.751	26.83
685.938	26.86
686.124	26.84
686.31	26.83
686.497	26.67
686.683	26.51
686.87	26.01
687.056	26.38
687.242	26.03
687.429	26.21
687.615	25.99
687.801	25.97
687.987	25.78
688.174	25.86
688.36	26.06
688.546	26.07
688.732	26.3
688.918	26.74
689.105	26.96
689.291	27.27
689.477	27.19
689.663	27.65
689.849	27.64
690.035	27.75
690.221	27.79
690.407	28.03
690.593	27.98
690.779	27.83
690.965	27.7
691.151	27.71
691.337	27.36
691.523	27.61
691.709	27.32
691.895	27.32
692.081	27.4
692.267	27.61
692.453	27.32
692.639	27.37
692.825	27.33
693.011	27.34
693.196	26.95
693.382	27.04
693.568	26.55
693.754	26.46
693.94	26.52
694.125	26.32
694.311	25.98
694.497	25.61
694.682	25.71
694.868	25.83
695.054	25.84
695.239	26.29
695.425	26.24
695.611	26.5
695.796	26.69
695.982	26.71
696.168	26.73
696.353	26.51
696.539	26.9
696.724	26.78
696.91	26.78
697.095	27.07
697.281	26.92
697.466	27.07
697.652	27.1
697.837	27.06
698.023	27.03
698.208	26.94
698.393	27.21
698.579	26.96
698.764	26.94
698.949	26.94
699.135	26.66
699.32	26.63
699.505	26.62
699.691	26.47
699.876	26.19
700.061	26.07
700.246	26.28
700.432	26.05
700.617	26.21
700.802	25.96
700.987	25.85
701.172	26.15
701.358	26.07
701.543	25.91
701.728	25.64
701.913	25.94
702.098	25.9
702.283	25.99
702.468	26.12
702.653	26.06
702.838	26.6
703.023	26.86
703.208	26.76
703.393	26.97
703.578	27.41
703.763	27.87
703.948	28.02
704.133	27.88
704.318	28.13
704.503	28.66
704.688	28.95
704.873	28.71
705.057	28.54
705.242	28.47
705.427	28.22
705.612	27.85
705.797	27.63
705.981	27.62
706.166	27.82
706.351	27.75
706.536	27.21
706.72	26.71
706.905	26.54
707.09	26.5
707.274	26.65
707.459	26.96
707.644	27.39
707.828	27.58
708.013	27.32
708.197	27.59
708.382	27.56
708.567	27.5
708.751	27.83
708.936	27.8
709.12	27.88
709.305	27.62
709.489	27.59
709.673	26.88
709.858	26.69
710.042	26.61
710.227	26.33
710.411	26.16
710.596	26.07
710.78	26.01
710.964	26.48
711.149	26.47
711.333	26.26
711.517	26
711.702	26.31
711.886	26.29
712.07	26.41
712.254	26.46
712.438	26.41
712.623	26.58
712.807	26.29
712.991	25.84
713.175	26.1
713.359	26.25
713.544	26.29
713.728	26.43
713.912	26.38
714.096	26.38
714.28	26.56
714.464	26.59
714.648	26.73
714.832	26.87
715.016	26.69
715.2	26.68
715.384	26.9
715.568	26.8
715.752	26.31
715.936	26.6
716.12	26.78
716.304	27.13
716.488	27.26
716.671	26.82
716.855	27.09
717.039	27.45
717.223	26.78
717.407	26.59
717.59	27.15
717.774	27.56
717.958	27.57
718.142	27.18
718.325	26.44
718.509	26.79
718.693	27.17
718.877	27.09
719.06	27.21
719.244	27.9
719.428	28.15
719.611	28.36
719.795	27.99
719.978	28
720.162	28.19
720.345	28.7
720.529	27.89
720.713	27.93
720.896	27.92
721.08	27.29
721.263	27.49
721.446	27.53
721.63	26.85
721.813	26.98
721.997	26.83
722.18	26.81
722.364	26.3
722.547	26.75
722.73	27.04
722.914	26.83
723.097	27.47
723.28	26.81
723.464	26.27
723.647	26.4
723.83	26.69
724.013	26.77
724.197	27.01
724.38	27.01
724.563	27.02
724.746	26.69
724.929	26.71
725.112	26.35
725.296	26.54
725.479	26.74
725.662	26.79
725.845	26.95
726.028	26.86
726.211	26.8
726.394	27.28
726.577	27.04
726.76	27.28
726.943	27.35
727.126	27.41
727.309	27.77
727.492	28.07
727.675	27.81
727.858	27.59
728.041	27.41
728.224	27.72
728.407	27.12
728.589	27.2
728.772	26.85
728.955	27.07
729.138	26.81
729.321	26.62
729.503	26.36
729.686	26.79
729.869	26.63
730.052	27.03
730.234	26.7
730.417	26.96
730.6	27.13
730.782	27.67
730.965	27.52
731.148	28.21
731.33	28.52
731.513	28.8
731.695	28.61
731.878	28.85
732.061	28.61
732.243	29.09
732.426	29.59
732.608	29.7
732.791	29.5
732.973	29.41
733.156	29.22
733.338	29
733.52	28.4
733.703	28.17
733.885	27.96
734.068	28.13
734.25	27.6
734.432	27.19
734.615	26.69
734.797	26.08
734.979	25.87
735.162	25.95
735.344	25.95
735.526	26.4
735.708	26.26
735.891	26.94
736.073	26.75
736.255	26.62
736.437	26.45
736.619	26.17
736.802	26.64
736.984	27.21
737.166	27.31
737.348	26.84
737.53	26.82
737.712	27.16
737.894	26.35
738.076	26.21
738.258	26.06
738.44	25.93
738.622	26.79
738.804	26.79
738.986	26.35
739.168	26.13
739.35	26.69
739.532	26.69
739.714	26.98
739.896	26.92
740.078	26.71
740.259	26.83
740.441	27.56
740.623	26.91
740.805	27.66
740.987	27.83
741.168	27.73
741.35	27.77
741.532	27.59
741.714	27.54
741.895	27.77
742.077	28.38
742.259	28.33
742.44	27.74
742.622	28.67
742.804	28.19
742.985	28.26
743.167	28.11
743.348	27.38
743.53	27.65
743.711	27.54
743.893	27.39
744.075	26.94
744.256	26.6
744.438	26.95
744.619	25.78
744.8	24.66
744.982	24.29
745.163	24.75
745.345	24.96
745.526	25.82
745.707	26.79
745.889	27.32
746.07	27.57
746.252	28.19
746.433	27.89
746.614	28.52
746.795	29.27
746.977	30.22
747.158	30.44
747.339	31.09
747.52	30.37
747.702	29.51
747.883	29.36
748.064	29.13
748.245	28.84
748.426	29.16
748.607	29.16
748.788	29.52
748.97	28.77
749.151	28.22
749.332	28.11
749.513	28.11
749.694	27.29
749.875	27.75
750.056	27.78
750.237	27.3
750.418	27.29
750.599	27.13
750.78	26.6
750.96	27.05
751.141	26.7
751.322	26.64
751.503	26.72
751.684	27.5
751.865	27.25
752.046	27.48
752.226	28.17
752.407	27.82
752.588	27.67
752.769	28.69
752.949	28.37
753.13	28.8
753.311	29.57
753.492	29.58
753.672	29.89
753.853	29.82
754.034	29.84
754.214	30.09
754.395	30
754.575	30.59
754.756	29.97
754.937	29.95
755.117	29.83
755.298	28.71
755.478	28.53
755.659	28.65
755.839	28.8
756.02	29.11
756.2	28.71
756.381	28.09
756.561	27.43
756.741	27.46
756.922	27.12
757.102	26.92
757.283	27.81
757.463	27.16
757.643	26.97
757.823	26.12
758.004	25.8
758.184	25.44
758.364	26.37
758.545	27.03
758.725	26.95
758.905	27.59
759.085	27.89
759.265	27.25
759.446	27.58
759.626	28.13
759.806	28.96
759.986	28.61
760.166	29.08
760.346	29.15
760.526	28.58
760.706	28.84
760.886	28.88
761.066	29.33
761.246	29.69
761.426	29.61
761.606	28.62
761.786	28.26
761.966	28.88
762.146	28.95
762.326	28.47
762.506	28.95
762.686	28.89
762.866	28.69
763.046	28.6
763.225	29.07
763.405	29.26
763.585	29.49
763.765	29.46
763.945	29.16
764.124	29.46
764.304	29.84
764.484	29.81
764.664	29.61
764.843	29.94
765.023	29.86
765.203	28.84
765.382	28.42
765.562	28.45
765.741	28.77
765.921	29
766.101	28.64
766.28	28.86
766.46	28.51
766.639	28.66
766.819	28.4
766.998	28.18
767.178	28.34
767.357	28.72
767.537	28.58
767.716	28.45
767.896	27.75
768.075	28.2
768.254	27.68
768.434	27.93
768.613	28.56
768.792	28.58
768.972	29.2
769.151	29.06
769.33	28.99
769.51	29.79
769.689	30.04
769.868	30.22
770.047	30.22
770.226	29.76
770.406	29.55
770.585	28.86
770.764	28.89
770.943	28
771.122	27.94
771.301	28.78
771.48	28.5
771.66	28.75
771.839	29
772.018	28.62
772.197	29.89
772.376	30.07
772.555	30.19
772.734	29.66
772.913	29.79
773.092	29.88
773.271	28.83
773.449	29.1
773.628	28.6
773.807	30.05
773.986	29.96
774.165	28.95
774.344	28.75
774.523	28.03
774.701	28.89
774.88	29.8
775.059	29.6
775.238	29.7
775.417	29.04
775.595	29.24
775.774	27.94
775.953	27.29
776.131	27.73
776.31	27.21
776.489	27.91
776.667	27.3
776.846	26.52
777.025	26.85
777.203	27.53
777.382	28.16
777.56	27.44
777.739	27.24
777.917	28.66
778.096	29.07
778.274	29.69
778.453	29.86
778.631	30.2
778.81	29.99
778.988	30.49
779.166	30.57
779.345	30.45
779.523	30.8
779.702	31.39
779.88	30.84
780.058	29.8
780.237	30.25
780.415	30.16
780.593	29.77
780.771	30.52
780.95	29.84
781.128	29.43
781.306	28.62
781.484	28.17
781.662	27.51
781.841	26.26
782.019	25.91
782.197	25.51
782.375	25.31
782.553	25.37
782.731	24.22
782.909	24.42
783.087	24.39
783.265	24.54
783.443	25.05
783.621	25.73
783.799	27.2
783.977	28.46
784.155	27.93
784.333	29.23
784.511	28.63
784.689	29.2
784.867	29.62
785.045	29.85
785.223	29.35
785.4	29.52
785.578	28.6
785.756	27.59
785.934	27.13
786.112	28.27
786.289	26.76
786.467	26.77
786.645	26.27
786.823	25.89
787	25.38
787.178	25.4
787.356	24.94
787.533	24.94
787.711	25.25
787.889	25.6
788.066	25.48
788.244	25.8
788.421	26.28
788.599	26.8
788.776	25.55
788.954	26.18
789.131	26.19
789.309	26.45
789.486	26.88
789.664	27.61
789.841	27.65
790.019	27.19
790.196	27.13
790.373	27.09
790.551	28.47
790.728	29.42
790.906	29.46
791.083	30.73
791.26	29.66
791.437	28.92
791.615	28.52
791.792	28.44
791.969	27.62
792.146	27.12
792.324	26.93
792.501	26.3
792.678	27.63
792.855	28.04
793.032	26.79
793.209	28.65
793.387	29.9
793.564	30.01
793.741	29.95
793.918	31.03
794.095	32.08
794.272	31.44
794.449	30.73
794.626	30
794.803	28.46
794.98	28.73
795.157	27.98
795.334	28.29
795.511	28.36
795.688	27.52
795.864	26.6
796.041	26.15
796.218	27.79
796.395	27.23
796.572	27.66
796.749	27.89
796.925	27.27
797.102	27.93
797.279	27.25
797.456	26.97
797.632	27.52
797.809	27.95
797.986	27.13
798.162	26.57
798.339	27.11
798.516	26.13
798.692	26.69
798.869	27.28
799.046	27.14
799.222	27.63
799.399	26.74
799.575	27.35
799.752	26.66
799.928	27.88
800.105	27.63
800.281	27.39
800.458	28.31
800.634	28.71
800.811	29.44
800.987	29.51
801.163	28.5
801.34	29.81
801.516	29.62
801.692	31.6
801.869	30.7
802.045	30.82
802.221	31.91
802.398	31.2
802.574	30.3
802.75	29.17
802.926	27.81
803.103	28.09
803.279	28.18
803.455	28.09
803.631	27.74
803.807	28.43
803.983	27.5
804.16	26.68
804.336	27.64
804.512	28.72
804.688	29.88
804.864	30.86
805.04	31.12
805.216	30.94
805.392	30.73
805.568	30.25
805.744	30.21
805.92	30.41
806.096	31.28
806.272	32.48
806.448	32.86
806.623	31.6
806.799	31.35
806.975	32.08
807.151	32.43
807.327	32.36
807.503	32.39
807.678	32.58
807.854	34.55
808.03	34.13
808.206	32.43
808.381	31.27
808.557	31.56
808.733	32.66
808.908	31.75
809.084	31.56
809.26	31.87
809.435	30.3
809.611	30.51
809.787	29.01
809.962	29.38
810.138	30
810.313	31.04
810.489	31.43
810.664	31.32
810.84	31.66
811.015	31.3
811.191	31.86
811.366	33.88
811.542	33.36
811.717	32.89
811.892	33.07
812.068	32.54
812.243	32.4
812.419	32.86
812.594	31.55
812.769	31.68
812.944	30.01
813.12	28.81
813.295	29.16
813.47	28.21
813.645	29.64
813.821	27.74
813.996	28.14
814.171	27.05
814.346	27.77
814.521	28.74
814.697	29.28
814.872	31.64
815.047	32.34
815.222	31.46
815.397	32.38
815.572	32.12
815.747	32.54
815.922	31.47
816.097	31.55
816.272	30.83
816.447	30.62
816.622	30.15
816.797	30.1
816.972	30.53
817.147	30.92
817.322	31.45
817.496	29.65
817.671	29.79
817.846	29.98
818.021	29.6
818.196	30.88
818.371	30.37
818.545	31.32
818.72	31.14
818.895	31.17
819.069	30.12
819.244	30.1
819.419	31.18
819.594	31.34
819.768	30.79
819.943	31.89
820.117	31.08
820.292	30.99
820.467	30.47
820.641	30.25
820.816	30.14
820.99	30.43
821.165	30.05
821.339	29.91
821.514	29.94
821.688	30.29
821.863	30.12
822.037	30.12
822.212	30.28
822.386	30.07
822.56	30
822.735	29.95
822.909	29.88
823.084	30.09
823.258	29.93
823.432	29.99
823.606	29.81
823.781	29.75
823.955	30
824.129	30.03
824.303	30.12
824.478	30.1
824.652	29.86
824.826	30.01
825	29.89
825.174	30.49
825.348	29.84
825.523	29.65
825.697	29.55
825.871	29.32
826.045	29.24
826.219	29.7
826.393	29.79
826.567	30.2
826.741	30.44
826.915	30.35
827.089	30.56
827.263	31.01
827.437	31.42
827.611	31.36
827.784	30.92
827.958	31.04
828.132	30.65
828.306	30.97
828.48	30.66
828.654	30.16
828.827	29.58
829.001	29.41
829.175	30.04
829.349	30.55
829.522	30.92
829.696	30.9
829.87	31.22
830.044	32
830.217	32.36
830.391	33.14
830.565	34.04
830.738	35.82
830.912	34.95
831.085	34.68
831.259	34.28
831.432	34.03
831.606	34.75
831.779	33.41
831.953	32.57
832.126	31.26
832.3	30.93
832.473	29.69
832.647	29.31
832.82	29.01
832.994	28.58
833.167	29.19
833.34	28.58
833.514	28.94
833.687	29.51
833.86	29.81
834.034	29.32
834.207	29.1
834.38	29.94
834.553	30.43
834.727	31.09
834.9	31.46
835.073	30.52
835.246	31.68
835.419	30.73
835.593	30.45
835.766	29.87
835.939	30.93
836.112	32
836.285	31.66
836.458	30.55
836.631	30.22
836.804	29.8
836.977	30.1
837.15	29.16
837.323	29.05
837.496	27.84
837.669	25.94
837.842	26.87
838.015	26.26
838.188	24.89
838.361	25.57
838.533	26.22
838.706	27.19
838.879	26.19
839.052	27.01
839.225	27.59
839.398	29.23
839.57	31.8
839.743	31.24
839.916	30.66
840.088	33.72
840.261	32.8
840.434	31.75
840.607	30.01
840.779	31.19
840.952	30.41
841.124	31.34
841.297	31.6
841.47	30.11
841.642	30.09
841.815	30.85
841.987	27.73
842.16	28.02
842.332	28.97
842.505	29.71
842.677	30.2
842.85	31.49
843.022	30.73
843.194	30.75
843.367	33.01
843.539	32.05
843.712	29.36
843.884	28.66
844.056	29.22
844.229	28.11
844.401	29.38
844.573	29.84
844.745	30.9
844.918	28.7
845.09	28.26
845.262	29.08
845.434	28.11
845.606	29.39
845.779	34.14
845.951	31.78
846.123	32.17
846.295	32.85
846.467	33.25
846.639	34.27
846.811	39.33
846.983	37.37
847.155	36.76
847.327	39.74
847.499	39.37
847.671	36.39
847.843	38.06
848.015	37.48
848.187	37.96
848.359	39.59
848.531	36.65
848.703	37.92
848.875	40.78
849.047	39.27
849.218	39.25
849.39	40.34
849.562	39.03
849.734	38.6
849.905	41.26
850.077	41.31
850.249	37.41
850.421	39.41
850.592	34.15
850.764	34.38
850.936	35.35
851.107	34.82
851.279	33.55
851.451	35.12
851.622	34.82
851.794	34.44
851.965	34.04
852.137	37.06
852.308	35.92
852.48	36.56
852.651	36.96
852.823	36.43
852.994	35.45
853.166	37.57
853.337	37.97
853.509	40.23
853.68	42.37
853.851	42.15
854.023	40.24
854.194	41.87
854.365	43.66
854.537	39.99
854.708	42.24
854.879	43.3
855.05	42.48
855.222	42.49
855.393	44.28
855.564	45.79
855.735	47.52
855.906	46.92
856.078	41.5
856.249	46.18
856.42	49.12
856.591	46.7
856.762	46.99
856.933	47.36
857.104	45.54
857.275	42.33
857.446	35.43
857.617	34.93
857.788	35.05
857.959	36.51
858.13	31.64
858.301	35.95
858.472	33.84
858.643	33.07
858.814	30.73
858.985	28.37
859.155	32.36
859.326	35.27
859.497	36.83
859.668	38.2
859.839	37.5
860.009	39.88
860.18	33.89
860.351	33.02
860.522	34.29
860.692	37.23
860.863	38.75
861.034	36.59
861.204	36.18
861.375	35.3
861.546	34.56
861.716	34.9
861.887	33.7
862.057	36.35
862.228	39.04
862.398	40.46
862.569	44.23
862.739	50.28
862.91	46.65
863.08	42.55
863.251	42.54
863.421	41.92
863.592	44.49
863.762	42.69
863.932	43.26
864.103	44.68
864.273	41.8
864.443	41.81
864.614	33.86
864.784	37.38
864.954	45.06
865.125	47.38
865.295	46.9
865.465	44.6
865.635	44.28
865.805	46.12
865.976	40.83
866.146	43.2
866.316	37.87
866.486	40.92
866.656	43.69
866.826	41.97
866.996	39.82
867.166	41.46
867.336	42.71
867.506	46.27
867.676	43.24
867.846	45.87
868.016	41.09
868.186	41.51
868.356	44.98
868.526	39.65
868.696	38.75
868.866	37.86
869.036	33.21
869.206	31.08
869.376	31.5
869.545	31.71
869.715	35.01
869.885	36.86
870.055	35.82
870.224	36.97
870.394	39.97
870.564	41.82
870.734	39.14
870.903	42.52
871.073	45.02
871.243	45.55
871.412	47.03
871.582	46.27
871.751	50.42
871.921	52.86
872.091	48.99
872.26	46.66
872.43	47.02
872.599	48.14
872.769	43.93
872.938	42.17
873.108	43.94
873.277	44.21
873.446	46.75
873.616	45.31
873.785	47.76
873.955	47.11
874.124	49.2
874.293	42.1
874.463	42.03
874.632	48.5
874.801	50.89
874.971	50.92
875.14	50.83
875.309	45.36
875.478	44.98
875.647	41.89
875.817	43.97
875.986	45.44
876.155	50.99
876.324	50.58
876.493	43.06
876.662	40.29
876.831	37.5
877	34.95
877.17	37.25
877.339	38.64
877.508	36.38
877.677	36.71
877.846	34.52
878.015	33.78
878.184	34.07
878.352	36.86
878.521	35.24
878.69	35.18
878.859	35.54
879.028	33.98
879.197	31.9
879.366	30.74
879.534	30.66
879.703	29.34
879.872	29.52
880.041	27.81
880.21	27.71
880.378	30.48
880.547	30.64
880.716	32.04
880.884	32.2
881.053	32.36
881.222	33.51
881.39	32.73
881.559	33.12
881.727	33.38
881.896	33.5
882.065	33.36
882.233	32.8
882.402	33.15
882.57	32.35
882.739	32.6
882.907	33.18
883.076	32.08
883.244	31.92
883.412	32.1
883.581	31.8
883.749	32.15
883.918	33.06
884.086	33.85
884.254	33.55
884.423	33.56
884.591	34
884.759	32.62
884.927	33.33
885.096	33.5
885.264	33.92
885.432	34.82
885.6	34.35
885.769	32.43
885.937	31.28
886.105	31.33
886.273	32.73
886.441	32.92
886.609	35.54
886.777	37.37
886.945	37.68
887.113	36.05
887.281	34.89
887.449	33.95
887.617	34.56
887.785	35.94
887.953	36.1
888.121	35.46
888.289	33.3
888.457	32.45
888.625	29.41
888.793	32.83
888.961	32.24
889.129	34.18
889.296	36.87
889.464	39.05
889.632	37.52
889.8	35.38
889.967	34.17
890.135	35.15
