Data from 2938571_Reflection_2.txt Node
Date: Sun Jun 14 22:04:04 EDT 2015
User: robert
Spectrometer: USB4E03002
Autoset integration time: false
Trigger mode: 4
Integration Time (sec): 1.000000E-1
Scans to average: 10
Electric dark correction enabled: true
Nonlinearity correction enabled: false
Boxcar width: 5
Stray light correction enabled: false
XAxis mode: Wavelengths
Stop averaging: false
Number of Pixels in Spectrum: 3648
>>>>>Begin Spectral Data<<<<<
177.575	-6.14
177.794	204.15
178.014	75.77
178.233	36.74
178.452	-90.82
178.672	-23175
178.891	-216.2
179.11	-2.9
179.33	-23.18
179.549	-94.09
179.768	42.41
179.987	-122.26
180.207	179.71
180.426	106.88
180.645	52.28
180.864	41.53
181.084	48.89
181.303	110.72
181.522	464.5
181.741	208.02
181.96	6872.73
182.179	-3528.99
182.398	-308.42
182.618	-1.9
182.837	32.34
183.056	11.84
183.275	-1.15
183.494	30.86
183.713	62.03
183.932	76.04
184.151	84.91
184.37	60.02
184.589	70.22
184.808	68.34
185.027	63.95
185.246	83.9
185.465	81.15
185.684	91.01
185.903	84.85
186.122	138.49
186.341	499.4
186.56	173.19
186.779	213.66
186.998	-3434.78
187.216	-1733.13
187.435	-131.15
187.654	-118.53
187.873	-26.34
188.092	17.81
188.311	25.65
188.53	16.95
188.748	8.69
188.967	13.08
189.186	-10.36
189.405	-12.58
189.623	4.4
189.842	1.02
190.061	-16.78
190.28	-38.47
190.498	-24.02
190.717	1383.77
190.936	-93.93
191.154	-46.4
191.373	-27.64
191.592	-29.84
191.81	-52.15
192.029	-122.55
192.248	-64.65
192.466	-66.7
192.685	-55.07
192.904	-107.64
193.122	-13.12
193.341	22.88
193.559	16.66
193.778	53.43
193.996	75.43
194.215	85.74
194.433	88.57
194.652	96.23
194.87	87.47
195.089	89.93
195.307	101.27
195.526	88.95
195.744	134.4
195.963	160.38
196.181	152.51
196.399	80.16
196.618	37.73
196.836	-26.99
197.055	25.45
197.273	116.16
197.491	92.71
197.71	-7.4
197.928	-986.36
198.146	1186.06
198.365	481.37
198.583	390.01
198.801	-163
199.019	3.91
199.238	63.3
199.456	0.16
199.674	-5.62
199.892	9.73
200.111	14.8
200.329	40.64
200.547	33.03
200.765	52.51
200.983	40.92
201.202	51.01
201.42	69.33
201.638	17.9
201.856	149.89
202.074	84.83
202.292	60.46
202.51	-0.13
202.728	108.44
202.946	112.33
203.165	-135.67
203.383	-14.47
203.601	-168.35
203.819	-317
204.037	-173.03
204.255	-162.32
204.473	426.12
204.691	27.08
204.909	51.88
205.127	43.78
205.345	51
205.562	66.03
205.78	73.87
205.998	88.51
206.216	43.21
206.434	61.54
206.652	32.45
206.87	28.46
207.088	4.36
207.306	-28.78
207.523	-22.06
207.741	-5.32
207.959	-21.48
208.177	7.04
208.395	-18.8
208.612	-20.19
208.83	-10.53
209.048	8.75
209.266	-0.96
209.483	69.91
209.701	61.49
209.919	20.58
210.136	-11.27
210.354	-14.44
210.572	-75.14
210.79	-41
211.007	-25.89
211.225	-54.19
211.442	-65.81
211.66	-49.54
211.878	-91.64
212.095	27.83
212.313	41.88
212.53	42.5
212.748	50.85
212.966	66.72
213.183	67.41
213.401	55.6
213.618	71.73
213.836	78.25
214.053	72.52
214.271	71.35
214.488	39.48
214.705	38.21
214.923	42.12
215.14	45.72
215.358	21.47
215.575	34.34
215.793	20.3
216.01	28.1
216.227	17.71
216.445	1.83
216.662	10.02
216.879	-2.87
217.097	-12.31
217.314	0.55
217.531	3.6
217.749	7.98
217.966	-0.51
218.183	12.33
218.4	12.02
218.618	24.48
218.835	10.74
219.052	4
219.269	12.23
219.487	12.02
219.704	15.71
219.921	15.15
220.138	20
220.355	12.65
220.572	16.53
220.79	14.8
221.007	6.43
221.224	18.39
221.441	20.54
221.658	10.84
221.875	13.08
222.092	3.82
222.309	2.41
222.526	1.39
222.743	5.12
222.96	-0.28
223.177	-0.01
223.394	1.28
223.611	9.31
223.828	9.89
224.045	7.9
224.262	9.17
224.479	12.39
224.696	13.32
224.913	10.5
225.13	14.38
225.347	14.53
225.564	14.89
225.781	14.19
225.997	11.29
226.214	12.81
226.431	12.6
226.648	11.49
226.865	12.31
227.082	11.43
227.298	12.37
227.515	10.86
227.732	11.7
227.949	10.42
228.165	10.42
228.382	10.3
228.599	10.2
228.816	10.49
229.032	11.31
229.249	10.81
229.466	10.79
229.682	11.3
229.899	11.2
230.116	10.11
230.332	11.64
230.549	11.47
230.765	13.76
230.982	12.76
231.199	13.28
231.415	11.99
231.632	11.29
231.848	11.59
232.065	9.67
232.281	11.53
232.498	12.2
232.714	11.48
232.931	11.52
233.147	9.48
233.364	7.96
233.58	7.76
233.797	8.85
234.013	7.47
234.23	7.61
234.446	9.02
234.662	9.41
234.879	9.24
235.095	11.28
235.312	12.52
235.528	13.67
235.744	14.47
235.961	14.62
236.177	13.64
236.393	14.8
236.61	14.74
236.826	13.93
237.042	11.82
237.258	10.9
237.475	10.15
237.691	8.36
237.907	7.58
238.123	9.01
238.339	9.55
238.556	10.46
238.772	9.94
238.988	10.43
239.204	10.1
239.42	10.56
239.636	11.13
239.853	11.75
240.069	11.97
240.285	12.28
240.501	11.72
240.717	11.79
240.933	11.75
241.149	12.01
241.365	11.28
241.581	12.18
241.797	12.03
242.013	12.09
242.229	11.24
242.445	11.71
242.661	11.42
242.877	11.62
243.093	11.17
243.309	10.26
243.525	9.77
243.741	10.87
243.957	9.51
244.173	9.82
244.388	10.07
244.604	9.94
244.82	9.37
245.036	9.07
245.252	9.09
245.468	9.22
245.683	9.03
245.899	8.97
246.115	8.82
246.331	9.09
246.547	9.33
246.762	9.15
246.978	9.15
247.194	9.04
247.409	9.07
247.625	9.04
247.841	9.13
248.057	9.69
248.272	10.04
248.488	10.29
248.703	9.59
248.919	8.15
249.135	7.87
249.35	7.5
249.566	7.69
249.782	8.02
249.997	8
250.213	7.75
250.428	8.23
250.644	7.68
250.859	6.73
251.075	7.07
251.29	7.78
251.506	8.08
251.721	8.81
251.937	9.23
252.152	8.81
252.368	8.71
252.583	7.66
252.798	6.47
253.014	6.74
253.229	6.72
253.445	6.89
253.66	7.12
253.875	6.19
254.091	4.61
254.306	3.93
254.521	4.5
254.737	4.07
254.952	5.97
255.167	5.84
255.383	6.41
255.598	7.49
255.813	7.67
256.028	7.18
256.244	7.59
256.459	8.65
256.674	8.76
256.889	8.48
257.104	8.46
257.32	8.1
257.535	7.41
257.75	7.36
257.965	6.98
258.18	7.18
258.395	7.38
258.61	7.2
258.826	6.97
259.041	7.05
259.256	7.12
259.471	7.08
259.686	7.21
259.901	8.13
260.116	8.25
260.331	8.58
260.546	8.62
260.761	8.52
260.976	8.88
261.191	8.94
261.406	8.92
261.621	9.2
261.836	9.37
262.05	9.22
262.265	8.16
262.48	8.05
262.695	7.78
262.91	7.72
263.125	7.33
263.34	7.38
263.555	7.07
263.769	7.2
263.984	7.06
264.199	6.98
264.414	6.38
264.629	6.23
264.843	6.1
265.058	6.19
265.273	6.05
265.488	6.4
265.702	5.74
265.917	5.65
266.132	5.71
266.346	5.54
266.561	5.47
266.776	5.28
266.99	5.47
267.205	5.08
267.42	5.24
267.634	4.9
267.849	4.93
268.063	5.37
268.278	5.76
268.492	5.71
268.707	5.57
268.922	5.9
269.136	6.35
269.351	6.3
269.565	6.76
269.78	6.99
269.994	6.99
270.209	7.32
270.423	6.88
270.637	6.96
270.852	7.06
271.066	7.15
271.281	7.14
271.495	6.82
271.709	7.26
271.924	7.02
272.138	6.39
272.353	6.24
272.567	5.81
272.781	6.41
272.996	6.22
273.21	6.06
273.424	6.04
273.638	5.63
273.853	6.26
274.067	5.9
274.281	6.52
274.495	7.23
274.71	7.72
274.924	7.61
275.138	7.25
275.352	7.61
275.566	7.22
275.781	7.6
275.995	7.95
276.209	7.85
276.423	8.34
276.637	7.49
276.851	7.18
277.065	7.29
277.279	7.55
277.493	7.85
277.707	6.96
277.921	7.14
278.135	7.17
278.349	6.78
278.563	6.1
278.777	5.91
278.991	5.58
279.205	5.57
279.419	5.48
279.633	5.78
279.847	5.9
280.061	6.23
280.275	6.13
280.489	5.72
280.703	5.52
280.917	5.67
281.131	5.43
281.344	6.33
281.558	6.54
281.772	6.3
281.986	5.54
282.2	5.4
282.414	5.79
282.627	5.9
282.841	5.75
283.055	6.36
283.269	6.92
283.482	6.83
283.696	6.49
283.91	5.9
284.123	5.93
284.337	6.41
284.551	6.23
284.764	5.9
284.978	6.02
285.192	6.38
285.405	5.89
285.619	5.55
285.833	6.1
286.046	6.26
286.26	6.72
286.473	6.7
286.687	6.65
286.9	6.42
287.114	6.99
287.327	7.09
287.541	6.63
287.754	6.68
287.968	6.66
288.181	6.45
288.395	6.34
288.608	6.25
288.822	6.04
289.035	6.03
289.248	6.28
289.462	6.05
289.675	5.8
289.889	6.11
290.102	6.59
290.315	6.96
290.529	6.84
290.742	7.02
290.955	6.73
291.169	6.87
291.382	6.97
291.595	6.74
291.808	6.75
292.022	7.01
292.235	6.86
292.448	6.67
292.661	6.33
292.875	6.58
293.088	6.26
293.301	6.48
293.514	6.81
293.727	6.77
293.94	6.75
294.153	6.55
294.367	6.35
294.58	6.75
294.793	6.41
295.006	6.47
295.219	6.37
295.432	6.64
295.645	6.87
295.858	6.78
296.071	6.8
296.284	7.02
296.497	7.2
296.71	7.26
296.923	7.02
297.136	7.36
297.349	7.17
297.562	7.08
297.775	7.11
297.988	7.33
298.201	7.38
298.414	7.25
298.626	7.25
298.839	7.18
299.052	7.24
299.265	7.48
299.478	7.55
299.691	7.92
299.903	7.76
300.116	7.73
300.329	7.44
300.542	7.63
300.755	7.73
300.967	7.93
301.18	7.94
301.393	8.18
301.605	8.24
301.818	8.28
302.031	8.42
302.243	8.48
302.456	8.37
302.669	8.41
302.881	8.15
303.094	8.09
303.307	8.03
303.519	7.78
303.732	7.66
303.944	7.51
304.157	7.47
304.37	7.42
304.582	7.36
304.795	7.38
305.007	7.11
305.22	7.23
305.432	7.12
305.645	6.91
305.857	7.33
306.069	7.19
306.282	7.22
306.494	7.24
306.707	7.04
306.919	7.08
307.132	7.21
307.344	7.33
307.556	7.16
307.769	7.4
307.981	7.64
308.193	7.43
308.406	7.31
308.618	7.15
308.83	6.92
309.043	6.66
309.255	6.54
309.467	6.55
309.679	6.87
309.892	6.88
310.104	6.68
310.316	6.5
310.528	6.91
310.74	7.01
310.953	7.03
311.165	7.22
311.377	7.43
311.589	7.81
311.801	7.7
312.013	7.15
312.225	7.37
312.437	7.47
312.649	7.89
312.862	7.81
313.074	7.94
313.286	8.2
313.498	7.98
313.71	8.28
313.922	7.95
314.134	7.79
314.346	8.11
314.558	8.18
314.77	8.67
314.982	8.28
315.193	7.78
315.405	7.8
315.617	7.51
315.829	7.99
316.041	7.56
316.253	7.71
316.465	7.82
316.677	7.61
316.888	7.43
317.1	7.02
317.312	7.43
317.524	8.03
317.736	8.05
317.947	8.36
318.159	8.41
318.371	8.54
318.583	8.58
318.794	8.61
319.006	8.84
319.218	8.93
319.43	8.94
319.641	8.9
319.853	8.45
320.064	8.4
320.276	8.55
320.488	8.15
320.699	8.22
320.911	8.15
321.123	8.43
321.334	8.31
321.546	8.51
321.757	8.43
321.969	8.4
322.18	8.03
322.392	7.9
322.603	7.62
322.815	7.98
323.026	8.01
323.238	8.03
323.449	8.13
323.661	7.95
323.872	7.63
324.083	7.77
324.295	7.85
324.506	8.25
324.718	8.26
324.929	8.22
325.14	8.02
325.352	7.72
325.563	8.01
325.774	7.79
325.986	8.33
326.197	8.36
326.408	8.09
326.62	7.75
326.831	7.88
327.042	8.09
327.253	8.05
327.464	7.89
327.676	8.63
327.887	8.06
328.098	8.02
328.309	7.37
328.52	7.25
328.732	7.55
328.943	7.68
329.154	7.57
329.365	7.39
329.576	7.44
329.787	7.52
329.998	6.67
330.209	7.17
330.42	7.06
330.631	7.28
330.842	7.46
331.053	7.58
331.264	7.48
331.475	7.63
331.686	7.58
331.897	7.75
332.108	7.99
332.319	8.12
332.53	8.14
332.741	8.14
332.952	8.19
333.163	8.37
333.374	8.07
333.585	7.89
333.795	7.57
334.006	7.89
334.217	7.94
334.428	7.86
334.639	8.44
334.849	8.52
335.06	8.66
335.271	8.62
335.482	8.34
335.692	8.35
335.903	8.69
336.114	8.66
336.325	8.31
336.535	8.41
336.746	8.05
336.957	7.75
337.167	7.49
337.378	7.34
337.589	7.44
337.799	7.34
338.01	7.49
338.22	7.52
338.431	7.7
338.642	7.76
338.852	7.37
339.063	7.47
339.273	7.42
339.484	7.51
339.694	7.56
339.905	7.64
340.115	7.6
340.326	7.46
340.536	7.59
340.746	7.78
340.957	8.08
341.167	8.31
341.378	8.31
341.588	8.18
341.799	8.22
342.009	8.16
342.219	8
342.43	8.03
342.64	8.3
342.85	7.92
343.061	7.57
343.271	7.05
343.481	6.9
343.691	7.17
343.902	7.38
344.112	7.44
344.322	7.52
344.532	7.7
344.743	7.91
344.953	7.59
345.163	7.56
345.373	7.75
345.583	8.28
345.793	8.66
346.004	8.47
346.214	8.38
346.424	8.26
346.634	8.36
346.844	7.92
347.054	8.07
347.264	8.21
347.474	8.35
347.684	8.21
347.894	7.95
348.104	7.15
348.314	7.35
348.524	7.05
348.734	7.03
348.944	6.71
349.154	6.99
349.364	6.33
349.574	6.33
349.784	6.21
349.994	6.45
350.204	6.45
350.413	7.14
350.623	6.91
350.833	6.61
351.043	6.5
351.253	6.86
351.463	7.01
351.672	7.46
351.882	7.22
352.092	7.37
352.302	7.48
352.511	7.39
352.721	7.02
352.931	7.11
353.141	7.47
353.35	7.5
353.56	7.38
353.77	6.78
353.979	6.88
354.189	6.96
354.399	7.01
354.608	7
354.818	6.89
355.027	6.8
355.237	6.87
355.447	7.14
355.656	7.15
355.866	7.14
356.075	7.22
356.285	7.09
356.494	7.23
356.704	7.05
356.913	6.83
357.123	6.79
357.332	6.65
357.542	6.49
357.751	5.97
357.96	6
358.17	5.98
358.379	6.33
358.589	6.48
358.798	6.44
359.007	6.34
359.217	6.37
359.426	6.64
359.635	6.8
359.845	6.96
360.054	7.35
360.263	7.44
360.472	7.39
360.682	7.25
360.891	7.14
361.1	7.1
361.309	7.29
361.519	7.3
361.728	7.22
361.937	7.32
362.146	7.03
362.355	6.85
362.564	6.82
362.774	6.76
362.983	6.83
363.192	6.98
363.401	7.01
363.61	6.95
363.819	6.72
364.028	6.65
364.237	6.67
364.446	6.77
364.655	6.44
364.864	6.12
365.073	6.21
365.282	6.08
365.491	5.9
365.7	5.91
365.909	6.06
366.118	6.17
366.327	6.22
366.536	6.19
366.745	6.37
366.954	6.65
367.162	7.02
367.371	6.8
367.58	6.78
367.789	6.63
367.998	6.51
368.207	6.18
368.415	6.31
368.624	6.19
368.833	6.05
369.042	5.92
369.25	5.9
369.459	5.6
369.668	5.55
369.877	5.64
370.085	5.72
370.294	5.63
370.503	5.76
370.711	5.63
370.92	5.77
371.129	6
371.337	6.03
371.546	5.92
371.754	5.91
371.963	5.96
372.171	5.91
372.38	5.83
372.589	5.81
372.797	5.53
373.006	5.52
373.214	5.38
373.423	5.18
373.631	5.03
373.84	5.23
374.048	5.44
374.256	5.44
374.465	5.59
374.673	5.74
374.882	5.67
375.09	5.95
375.298	5.9
375.507	5.91
375.715	5.9
375.923	5.74
376.132	5.81
376.34	5.68
376.548	5.69
376.757	5.56
376.965	5.18
377.173	5.29
377.381	5.18
377.59	5.14
377.798	5.03
378.006	4.97
378.214	4.98
378.423	4.74
378.631	4.8
378.839	5.08
379.047	5.16
379.255	5.33
379.463	5.31
379.671	5.26
379.879	5.44
380.088	5.52
380.296	5.54
380.504	5.52
380.712	5.69
380.92	5.51
381.128	5.18
381.336	4.92
381.544	4.88
381.752	4.9
381.96	5.03
382.168	4.97
382.376	4.94
382.584	4.99
382.791	5.24
382.999	5.13
383.207	5.22
383.415	5.42
383.623	5.46
383.831	5.6
384.039	5.69
384.247	5.31
384.454	5.16
384.662	5.2
384.87	5.29
385.078	5.15
385.285	5.03
385.493	4.89
385.701	4.85
385.909	4.93
386.116	5.08
386.324	4.85
386.532	5
386.739	5
386.947	5.16
387.155	5.05
387.362	5.15
387.57	5.48
387.778	5.59
387.985	5.68
388.193	5.65
388.4	5.43
388.608	5.55
388.816	5.65
389.023	5.69
389.231	5.48
389.438	5.65
389.646	5.67
389.853	5.62
390.061	5.67
390.268	5.72
390.475	5.7
390.683	5.77
390.89	5.86
391.098	5.79
391.305	5.68
391.512	5.63
391.72	5.39
391.927	5.37
392.135	5.37
392.342	5.3
392.549	5.11
392.756	5.24
392.964	5.17
393.171	5.04
393.378	5.03
393.586	5.03
393.793	4.99
394	5.1
394.207	4.96
394.414	4.82
394.622	4.8
394.829	4.71
395.036	4.53
395.243	4.49
395.45	4.63
395.657	4.84
395.864	4.74
396.072	4.71
396.279	4.5
396.486	4.47
396.693	4.63
396.9	4.66
397.107	4.77
397.314	4.86
397.521	4.93
397.728	4.67
397.935	4.68
398.142	4.91
398.349	4.91
398.556	4.99
398.763	5.29
398.97	5.01
399.177	4.99
399.383	4.93
399.59	4.91
399.797	4.8
400.004	4.99
400.211	4.92
400.418	4.85
400.625	4.86
400.831	4.71
401.038	4.38
401.245	4.37
401.452	4.48
401.658	4.63
401.865	4.42
402.072	4.42
402.279	4.28
402.485	4.06
402.692	4.12
402.899	4.26
403.105	4.46
403.312	4.52
403.519	4.55
403.725	4.55
403.932	4.35
404.138	4.58
404.345	4.54
404.552	4.77
404.758	5.06
404.965	5.14
405.171	5.15
405.378	5.07
405.584	5.28
405.791	5.32
405.997	5.3
406.204	5.35
406.41	5.27
406.617	5.34
406.823	5.18
407.029	5.04
407.236	4.97
407.442	4.75
407.649	4.8
407.855	4.63
408.061	4.7
408.268	4.41
408.474	4.44
408.68	4.38
408.887	4.46
409.093	4.46
409.299	4.4
409.505	4.18
409.712	4.23
409.918	4.26
410.124	4.14
410.33	4.4
410.537	4.43
410.743	4.46
410.949	4.43
411.155	4.37
411.361	4.4
411.567	4.65
411.773	4.79
411.98	4.86
412.186	4.61
412.392	4.68
412.598	4.42
412.804	4.65
413.01	4.71
413.216	4.66
413.422	4.61
413.628	4.54
413.834	4.37
414.04	4.45
414.246	4.4
414.452	4.43
414.658	4.56
414.864	4.52
415.07	4.45
415.275	4.38
415.481	4.56
415.687	4.58
415.893	4.62
416.099	4.58
416.305	4.58
416.511	4.61
416.716	4.59
416.922	4.47
417.128	4.5
417.334	4.54
417.539	4.36
417.745	4.2
417.951	4.17
418.157	4.13
418.362	4.12
418.568	4.09
418.774	4.06
418.979	4.08
419.185	4.09
419.391	4.05
419.596	4.07
419.802	4.21
420.008	4.25
420.213	4.1
420.419	4.14
420.624	4.15
420.83	4.12
421.035	4.07
421.241	4.13
421.446	4.09
421.652	4.06
421.857	4.08
422.063	4.05
422.268	4.07
422.474	4.27
422.679	4.28
422.885	4.26
423.09	4.27
423.295	4.27
423.501	4.24
423.706	4.32
423.911	4.32
424.117	4.3
424.322	4.34
424.527	4.31
424.733	4.25
424.938	4.2
425.143	4.26
425.349	4.15
425.554	4.13
425.759	4.13
425.964	4.06
426.169	4.1
426.375	4.04
426.58	3.99
426.785	4.08
426.99	4.13
427.195	4.06
427.4	3.92
427.605	4.02
427.811	4.12
428.016	4.1
428.221	4.15
428.426	4.12
428.631	4.02
428.836	4.05
429.041	4.02
429.246	3.95
429.451	3.98
429.656	4.04
429.861	4.1
430.066	3.96
430.271	3.98
430.476	3.93
430.681	3.8
430.886	3.95
431.09	3.95
431.295	3.88
431.5	3.96
431.705	3.96
431.91	3.98
432.115	3.95
432.32	4.05
432.524	4.04
432.729	3.99
432.934	4.03
433.139	4.03
433.343	4
433.548	3.95
433.753	3.89
433.958	3.99
434.162	4.02
434.367	4.09
434.572	4.07
434.776	4.04
434.981	4.19
435.186	4.27
435.39	4.19
435.595	4.24
435.799	4.46
436.004	4.46
436.209	4.4
436.413	4.34
436.618	4.33
436.822	4.43
437.027	4.52
437.231	4.45
437.436	4.43
437.64	4.47
437.845	4.45
438.049	4.38
438.253	4.38
438.458	4.32
438.662	4.31
438.867	4.25
439.071	4.16
439.275	4.11
439.48	4.15
439.684	4.13
439.888	4.13
440.093	4.19
440.297	4.18
440.501	4.21
440.706	4.23
440.91	4.26
441.114	4.31
441.318	4.31
441.523	4.32
441.727	4.27
441.931	4.22
442.135	4.21
442.339	4.12
442.543	4.06
442.748	4.06
442.952	4.11
443.156	3.99
443.36	3.96
443.564	4.1
443.768	4.07
443.972	4.08
444.176	4.15
444.38	4.1
444.584	4.11
444.788	4.1
444.992	4.05
445.196	4.07
445.4	4.22
445.604	4.28
445.808	4.2
446.012	4.17
446.216	4.2
446.42	4.19
446.624	4.22
446.828	4.26
447.032	4.3
447.235	4.34
447.439	4.31
447.643	4.17
447.847	4.14
448.051	4.09
448.254	4.12
448.458	4.11
448.662	4.05
448.866	4.03
449.069	3.91
449.273	3.95
449.477	3.86
449.681	3.9
449.884	4.01
450.088	3.94
450.292	3.84
450.495	3.95
450.699	4.01
450.902	4.01
451.106	4
451.31	4.05
451.513	3.97
451.717	3.95
451.92	3.96
452.124	4.01
452.327	3.98
452.531	4.14
452.734	3.98
452.938	3.94
453.141	3.87
453.345	3.85
453.548	3.81
453.752	3.84
453.955	3.97
454.158	3.79
454.362	3.78
454.565	3.79
454.769	3.76
454.972	3.89
455.175	3.86
455.379	3.85
455.582	3.77
455.785	3.91
455.988	3.95
456.192	3.91
456.395	3.96
456.598	3.92
456.801	3.98
457.005	3.97
457.208	3.94
457.411	4.02
457.614	4.06
457.817	4.11
458.021	4.04
458.224	4.01
458.427	4.04
458.63	4.11
458.833	4.07
459.036	4.06
459.239	4.04
459.442	4.03
459.645	3.93
459.848	4.05
460.051	4.09
460.254	4.12
460.457	4.16
460.66	4.13
460.863	4.02
461.066	4.08
461.269	4.01
461.472	4.01
461.675	3.99
461.878	4
462.081	3.94
462.284	3.95
462.486	3.93
462.689	3.94
462.892	3.92
463.095	4
463.298	3.97
463.5	3.98
463.703	4.03
463.906	4.06
464.109	4.07
464.311	4.05
464.514	4.11
464.717	4.11
464.92	4.05
465.122	4.06
465.325	4.09
465.528	4.05
465.73	4.07
465.933	4.05
466.135	4.05
466.338	4.11
466.541	4.01
466.743	3.84
466.946	3.83
467.148	3.9
467.351	3.92
467.553	3.95
467.756	4.02
467.958	4.11
468.161	4.09
468.363	4.05
468.566	3.93
468.768	4.08
468.971	4.14
469.173	4.27
469.375	4.23
469.578	4.17
469.78	4.16
469.983	4.12
470.185	4.05
470.387	4.12
470.59	4.22
470.792	4.27
470.994	4.22
471.196	4.35
471.399	4.29
471.601	4.25
471.803	4.24
472.005	4.25
472.208	4.2
472.41	4.1
472.612	4.06
472.814	4.1
473.016	4.11
473.218	4.01
473.421	3.92
473.623	3.85
473.825	3.76
474.027	3.79
474.229	3.85
474.431	3.92
474.633	4.07
474.835	4.04
475.037	4.01
475.239	4.01
475.441	4.08
475.643	4.1
475.845	4.1
476.047	4.13
476.249	4.15
476.451	4.12
476.653	4.16
476.855	4.05
477.057	4.02
477.258	3.97
477.46	3.99
477.662	3.99
477.864	3.92
478.066	3.99
478.268	4.04
478.469	4.09
478.671	3.98
478.873	3.98
479.075	4.05
479.276	4.09
479.478	4.13
479.68	4.16
479.882	4.18
480.083	4.23
480.285	4.18
480.487	4.17
480.688	4.1
480.89	4.11
481.091	4.11
481.293	4.12
481.495	4.12
481.696	4.06
481.898	4.05
482.099	4.07
482.301	4.07
482.502	4.06
482.704	4.07
482.905	4.1
483.107	4.13
483.308	4.13
483.51	4.13
483.711	4.12
483.913	4.16
484.114	4.16
484.315	4.16
484.517	4.17
484.718	4.18
484.92	4.17
485.121	4.15
485.322	4.11
485.524	4.09
485.725	4.06
485.926	4.11
486.127	4.09
486.329	4.11
486.53	4.1
486.731	4.09
486.932	4.1
487.134	4.15
487.335	4.16
487.536	4.21
487.737	4.23
487.938	4.25
488.139	4.21
488.341	4.22
488.542	4.22
488.743	4.2
488.944	4.21
489.145	4.22
489.346	4.18
489.547	4.21
489.748	4.18
489.949	4.15
490.15	4.1
490.351	4.15
490.552	4.16
490.753	4.15
490.954	4.16
491.155	4.15
491.356	4.14
491.557	4.15
491.758	4.12
491.959	4.15
492.159	4.2
492.36	4.24
492.561	4.18
492.762	4.23
492.963	4.26
493.164	4.27
493.364	4.31
493.565	4.29
493.766	4.32
493.967	4.33
494.167	4.32
494.368	4.3
494.569	4.33
494.769	4.37
494.97	4.35
495.171	4.34
495.371	4.35
495.572	4.27
495.773	4.3
495.973	4.25
496.174	4.28
496.375	4.33
496.575	4.3
496.776	4.26
496.976	4.25
497.177	4.23
497.377	4.17
497.578	4.19
497.778	4.18
497.979	4.21
498.179	4.27
498.38	4.19
498.58	4.1
498.78	4.11
498.981	4.16
499.181	4.12
499.382	4.18
499.582	4.26
499.782	4.29
499.983	4.37
500.183	4.35
500.383	4.35
500.584	4.38
500.784	4.47
500.984	4.47
501.184	4.44
501.385	4.49
501.585	4.46
501.785	4.46
501.985	4.43
502.185	4.36
502.386	4.34
502.586	4.29
502.786	4.36
502.986	4.32
503.186	4.37
503.386	4.42
503.586	4.43
503.786	4.51
503.987	4.49
504.187	4.42
504.387	4.58
504.587	4.64
504.787	4.7
504.987	4.65
505.187	4.71
505.387	4.67
505.587	4.68
505.786	4.71
505.986	4.61
506.186	4.76
506.386	4.83
506.586	4.76
506.786	4.7
506.986	4.75
507.186	4.73
507.386	4.71
507.585	4.79
507.785	4.83
507.985	4.85
508.185	4.86
508.384	4.77
508.584	4.74
508.784	4.76
508.984	4.81
509.183	4.76
509.383	4.76
509.583	4.7
509.782	4.7
509.982	4.68
510.182	4.67
510.381	4.7
510.581	4.72
510.781	4.76
510.98	4.76
511.18	4.79
511.379	4.74
511.579	4.8
511.778	4.88
511.978	4.81
512.177	4.78
512.377	4.83
512.576	4.82
512.776	4.85
512.975	4.96
513.175	4.99
513.374	5.02
513.573	5.15
513.773	5.16
513.972	5.05
514.172	5.21
514.371	5.33
514.57	5.27
514.77	5.29
514.969	5.3
515.168	5.24
515.367	5.2
515.567	5.14
515.766	5.15
515.965	5.15
516.164	5.2
516.364	5.08
516.563	4.99
516.762	5.05
516.961	5.12
517.16	5.13
517.359	5.12
517.559	5.21
517.758	5.23
517.957	5.23
518.156	5.22
518.355	5.28
518.554	5.39
518.753	5.46
518.952	5.47
519.151	5.45
519.35	5.49
519.549	5.36
519.748	5.29
519.947	5.36
520.146	5.36
520.345	5.4
520.544	5.39
520.743	5.35
520.942	5.3
521.141	5.18
521.339	5.21
521.538	5.16
521.737	5.33
521.936	5.32
522.135	5.25
522.333	5.29
522.532	5.28
522.731	5.3
522.93	5.28
523.129	5.41
523.327	5.52
523.526	5.49
523.725	5.52
523.923	5.49
524.122	5.57
524.321	5.61
524.519	5.58
524.718	5.63
524.917	5.6
525.115	5.63
525.314	5.56
525.512	5.56
525.711	5.56
525.909	5.61
526.108	5.62
526.306	5.6
526.505	5.6
526.703	5.63
526.902	5.6
527.1	5.65
527.299	5.67
527.497	5.71
527.696	5.71
527.894	5.74
528.092	5.73
528.291	5.75
528.489	5.8
528.688	5.83
528.886	5.87
529.084	5.89
529.283	5.9
529.481	5.91
529.679	5.92
529.877	5.93
530.076	5.96
530.274	5.95
530.472	5.93
530.67	5.91
530.869	5.88
531.067	5.82
531.265	5.88
531.463	5.87
531.661	5.9
531.859	5.87
532.057	5.94
532.255	5.98
532.454	5.99
532.652	6.06
532.85	6.04
533.048	6.13
533.246	6.19
533.444	6.18
533.642	6.2
533.84	6.18
534.038	6.24
534.236	6.17
534.434	6.13
534.632	6.17
534.83	6.15
535.027	6.2
535.225	6.17
535.423	6.23
535.621	6.3
535.819	6.34
536.017	6.4
536.215	6.42
536.412	6.51
536.61	6.54
536.808	6.57
537.006	6.63
537.203	6.67
537.401	6.69
537.599	6.62
537.797	6.61
537.994	6.61
538.192	6.65
538.39	6.66
538.587	6.68
538.785	6.73
538.983	6.76
539.18	6.75
539.378	6.76
539.575	6.76
539.773	6.79
539.97	6.79
540.168	6.85
540.366	6.88
540.563	6.91
540.761	6.93
540.958	6.93
541.155	6.96
541.353	7.01
541.55	7.06
541.748	7.12
541.945	7.08
542.143	7.17
542.34	7.19
542.537	7.23
542.735	7.29
542.932	7.34
543.129	7.35
543.327	7.42
543.524	7.5
543.721	7.46
543.919	7.52
544.116	7.71
544.313	7.72
544.51	7.7
544.708	7.68
544.905	7.74
545.102	7.83
545.299	7.91
545.496	7.84
545.693	7.82
545.891	7.95
546.088	8
546.285	8.02
546.482	8.1
546.679	8.24
546.876	8.36
547.073	8.35
547.27	8.27
547.467	8.36
547.664	8.51
547.861	8.54
548.058	8.59
548.255	8.59
548.452	8.52
548.649	8.51
548.846	8.48
549.043	8.5
549.24	8.59
549.437	8.67
549.633	8.56
549.83	8.55
550.027	8.6
550.224	8.58
550.421	8.68
550.618	8.85
550.814	8.97
551.011	8.99
551.208	9.01
551.405	8.97
551.601	9
551.798	9.13
551.995	9.28
552.191	9.31
552.388	9.43
552.585	9.43
552.781	9.47
552.978	9.5
553.175	9.61
553.371	9.7
553.568	9.71
553.764	9.84
553.961	9.84
554.157	9.83
554.354	9.86
554.55	9.89
554.747	9.94
554.943	9.94
555.14	9.95
555.336	9.89
555.533	9.99
555.729	10.16
555.926	10.25
556.122	10.35
556.318	10.33
556.515	10.34
556.711	10.28
556.907	10.26
557.104	10.34
557.3	10.5
557.496	10.72
557.693	10.74
557.889	10.78
558.085	10.61
558.281	10.62
558.478	10.83
558.674	11.07
558.87	11.25
559.066	11.42
559.262	11.38
559.459	11.35
559.655	11.3
559.851	11.39
560.047	11.48
560.243	11.58
560.439	11.74
560.635	11.78
560.831	11.79
561.027	11.85
561.223	11.8
561.419	11.83
561.615	11.82
561.811	11.98
562.007	11.97
562.203	11.97
562.399	12.12
562.595	12.02
562.791	12.01
562.987	12.01
563.183	12.1
563.379	12.32
563.575	12.46
563.771	12.6
563.966	12.61
564.162	12.57
564.358	12.6
564.554	12.63
564.75	12.79
564.945	12.88
565.141	12.98
565.337	13.02
565.533	13.05
565.728	13.16
565.924	13.26
566.12	13.38
566.315	13.42
566.511	13.6
566.707	13.71
566.902	13.9
567.098	13.96
567.293	13.94
567.489	14.02
567.684	14.06
567.88	14.02
568.076	14.09
568.271	14.09
568.467	14.29
568.662	14.33
568.858	14.39
569.053	14.33
569.248	14.46
569.444	14.73
569.639	14.76
569.835	14.82
570.03	14.89
570.225	14.87
570.421	14.97
570.616	15.01
570.812	15.01
571.007	15.1
571.202	15.19
571.397	15.26
571.593	15.2
571.788	15.34
571.983	15.47
572.178	15.6
572.374	15.67
572.569	15.7
572.764	15.67
572.959	15.77
573.154	15.84
573.35	15.94
573.545	15.88
573.74	15.92
573.935	15.92
574.13	15.93
574.325	16.11
574.52	16.13
574.715	16.18
574.91	16.38
575.105	16.45
575.3	16.58
575.495	16.61
575.69	16.78
575.885	17
576.08	16.96
576.275	16.98
576.47	16.87
576.665	16.89
576.86	16.94
577.055	16.96
577.25	17
577.444	16.83
577.639	16.89
577.834	16.85
578.029	16.71
578.224	16.88
578.418	16.85
578.613	16.9
578.808	17.11
579.003	17.22
579.197	17.27
579.392	17.22
579.587	17.37
579.781	17.3
579.976	17.41
580.171	17.58
580.365	17.6
580.56	17.6
580.755	17.59
580.949	17.65
581.144	17.68
581.338	17.69
581.533	17.83
581.727	17.9
581.922	18.01
582.116	18.12
582.311	18.16
582.505	18.26
582.7	18.52
582.894	18.66
583.089	18.59
583.283	18.55
583.478	18.6
583.672	18.71
583.866	18.64
584.061	18.65
584.255	18.54
584.449	18.55
584.644	18.62
584.838	18.53
585.032	18.59
585.226	18.61
585.421	18.57
585.615	18.54
585.809	18.41
586.003	18.55
586.198	18.55
586.392	18.68
586.586	18.77
586.78	18.84
586.974	18.89
587.168	18.86
587.363	18.93
587.557	19.08
587.751	19.21
587.945	19.46
588.139	19.48
588.333	19.61
588.527	19.66
588.721	19.65
588.915	19.65
589.109	19.84
589.303	19.99
589.497	20.01
589.691	20.15
589.885	20.2
590.079	20.13
590.273	20.08
590.466	19.99
590.66	19.93
590.854	19.89
591.048	19.86
591.242	19.73
591.436	19.52
591.629	19.62
591.823	19.62
592.017	19.63
592.211	19.78
592.404	19.87
592.598	20.01
592.792	20.15
592.986	20.31
593.179	20.34
593.373	20.49
593.567	20.63
593.76	20.66
593.954	20.62
594.147	20.65
594.341	20.61
594.535	20.79
594.728	20.75
594.922	20.74
595.115	20.66
595.309	20.73
595.502	20.64
595.696	20.7
595.889	20.64
596.083	20.68
596.276	20.62
596.47	20.62
596.663	20.51
596.856	20.54
597.05	20.63
597.243	20.76
597.437	20.75
597.63	20.92
597.823	20.91
598.017	21.07
598.21	21.12
598.403	21.27
598.596	21.34
598.79	21.33
598.983	21.48
599.176	21.38
599.369	21.23
599.563	21.2
599.756	21.19
599.949	21.23
600.142	21.1
600.335	21.25
600.528	21.29
600.722	21.42
600.915	21.52
601.108	21.49
601.301	21.57
601.494	21.67
601.687	21.71
601.88	21.68
602.073	21.8
602.266	21.89
602.459	21.7
602.652	21.62
602.845	21.59
603.038	21.66
603.231	21.67
603.424	21.62
603.617	21.61
603.809	21.67
604.002	21.71
604.195	21.65
604.388	21.71
604.581	21.85
604.774	21.97
604.966	21.92
605.159	21.94
605.352	21.91
605.545	21.88
605.737	22.05
605.93	22.19
606.123	22.22
606.316	22.18
606.508	22.2
606.701	22.09
606.894	22.03
607.086	22.17
607.279	22.13
607.471	22.2
607.664	22.27
607.857	22.07
608.049	21.99
608.242	21.99
608.434	22.07
608.627	22.05
608.819	22.2
609.012	22.27
609.204	22.28
609.397	22.34
609.589	22.32
609.782	22.34
609.974	22.47
610.166	22.44
610.359	22.48
610.551	22.42
610.743	22.43
610.936	22.35
611.128	22.46
611.32	22.36
611.513	22.37
611.705	22.33
611.897	22.37
612.09	22.47
612.282	22.61
612.474	22.54
612.666	22.58
612.858	22.57
613.051	22.55
613.243	22.5
613.435	22.43
613.627	22.39
613.819	22.54
614.011	22.56
614.203	22.45
614.395	22.3
614.588	22.25
614.78	22.38
614.972	22.31
615.164	22.48
615.356	22.62
615.548	22.73
615.74	22.71
615.932	22.54
616.124	22.38
616.315	22.56
616.507	22.5
616.699	22.63
616.891	22.6
617.083	22.63
617.275	22.75
617.467	22.57
617.659	22.62
617.85	22.81
618.042	22.87
618.234	23.02
618.426	22.99
618.618	23.21
618.809	23.09
619.001	23.04
619.193	22.98
619.384	22.77
619.576	22.76
619.768	22.78
619.959	22.57
620.151	22.62
620.343	22.57
620.534	22.45
620.726	22.29
620.917	22.35
621.109	22.41
621.301	22.57
621.492	22.56
621.684	22.55
621.875	22.39
622.067	22.29
622.258	22.24
622.45	22.48
622.641	22.56
622.832	22.76
623.024	22.8
623.215	22.78
623.407	22.82
623.598	22.99
623.789	22.85
623.981	23.07
624.172	23.16
624.363	23.19
624.555	23.12
624.746	23.2
624.937	23.09
625.129	23.14
625.32	23.26
625.511	23.19
625.702	23.11
625.893	23.27
626.085	23.23
626.276	23.42
626.467	23.49
626.658	23.52
626.849	23.29
627.04	23.31
627.231	23.21
627.422	23.01
627.614	23.02
627.805	23.1
627.996	23.2
628.187	23.09
628.378	22.91
628.569	22.95
628.76	22.91
628.951	23.09
629.142	23.24
629.332	23.22
629.523	23.43
629.714	23.6
629.905	23.7
630.096	23.69
630.287	23.84
630.478	24.02
630.669	23.95
630.859	23.93
631.05	24.05
631.241	23.94
631.432	24.07
631.623	23.83
631.813	23.69
632.004	23.64
632.195	23.73
632.385	23.58
632.576	23.53
632.767	23.53
632.957	23.62
633.148	23.63
633.339	23.64
633.529	23.75
633.72	23.89
633.91	23.87
634.101	23.82
634.292	23.65
634.482	23.73
634.673	23.67
634.863	23.8
635.054	23.82
635.244	23.67
635.435	23.65
635.625	23.41
635.815	23.56
636.006	23.69
636.196	23.51
636.387	23.73
636.577	23.68
636.767	23.72
636.958	23.62
637.148	23.56
637.338	23.43
637.529	23.31
637.719	23.5
637.909	23.37
638.099	23.46
638.29	23.56
638.48	23.37
638.67	23.51
638.86	23.5
639.05	23.51
639.241	23.55
639.431	23.77
639.621	23.96
639.811	23.95
640.001	23.87
640.191	23.57
640.381	23.66
640.571	23.63
640.761	23.71
640.951	23.69
641.141	23.82
641.331	23.64
641.521	23.68
641.711	23.77
641.901	23.71
642.091	23.9
642.281	24.17
642.471	24.17
642.661	24.11
642.851	23.87
643.041	23.9
643.231	23.75
643.42	23.63
643.61	23.38
643.8	23.39
643.99	23.48
644.18	23.24
644.369	23.16
644.559	23.28
644.749	23.41
644.939	23.38
645.128	23.28
645.318	23.3
645.508	23.34
645.697	23.71
645.887	23.63
646.076	23.69
646.266	23.65
646.456	23.73
646.645	23.68
646.835	23.83
647.024	23.98
647.214	24.04
647.403	24.14
647.593	24.42
647.782	24.45
647.972	24.4
648.161	24.27
648.351	24.46
648.54	24.33
648.73	24.18
648.919	24.1
649.108	23.97
649.298	24.07
649.487	24.06
649.677	24.13
649.866	24.07
650.055	24.12
650.244	24.06
650.434	24.19
650.623	24.38
650.812	24.54
651.002	24.43
651.191	24.66
651.38	24.51
651.569	24.55
651.758	24.46
651.947	24.44
652.137	24.29
652.326	24.21
652.515	24.17
652.704	23.94
652.893	23.84
653.082	23.93
653.271	23.69
653.46	23.87
653.649	23.68
653.838	23.87
654.027	23.9
654.216	24.13
654.405	24.34
654.594	24.56
654.783	24.7
654.972	24.66
655.161	24.72
655.35	24.79
655.539	24.83
655.728	24.92
655.916	24.75
656.105	24.68
656.294	24.54
656.483	24.46
656.672	24.35
656.86	24.37
657.049	24.35
657.238	24.34
657.427	24.3
657.615	24.34
657.804	24.32
657.993	24.25
658.181	24.36
658.37	24.4
658.559	24.45
658.747	24.4
658.936	24.49
659.125	24.73
659.313	24.72
659.502	24.78
659.69	24.74
659.879	24.85
660.067	24.99
660.256	25.03
660.444	24.93
660.633	24.99
660.821	25.01
661.01	24.89
661.198	24.63
661.387	24.79
661.575	24.79
661.763	24.79
661.952	24.66
662.14	24.41
662.328	24.08
662.517	24.41
662.705	24.43
662.893	24.62
663.082	24.73
663.27	24.82
663.458	24.54
663.646	24.79
663.834	24.76
664.023	25.01
664.211	25.33
664.399	25.58
664.587	25.48
664.775	25.45
664.963	25.3
665.152	25.27
665.34	25.57
665.528	25.74
665.716	25.8
665.904	25.62
666.092	25.51
666.28	25.38
666.468	25.3
666.656	25.3
666.844	25.32
667.032	25.32
667.22	24.88
667.408	24.72
667.596	24.58
667.784	24.57
667.971	24.79
668.159	24.97
668.347	24.91
668.535	25.12
668.723	25.1
668.911	24.99
669.098	24.83
669.286	25.18
669.474	25.08
669.662	25.05
669.849	24.88
670.037	24.84
670.225	24.58
670.413	24.74
670.6	24.58
670.788	24.57
670.976	24.62
671.163	24.85
671.351	25.09
671.538	25.14
671.726	25.23
671.913	25.38
672.101	25.11
672.289	25.17
672.476	25.05
672.664	24.86
672.851	24.91
673.039	24.83
673.226	24.61
673.413	24.36
673.601	24.27
673.788	24.37
673.976	24.32
674.163	24.73
674.35	24.83
674.538	24.75
674.725	24.98
674.912	25.09
675.1	25.18
675.287	25.29
675.474	25.39
675.662	25.72
675.849	25.72
676.036	25.87
676.223	25.64
676.411	25.68
676.598	25.61
676.785	25.46
676.972	25.19
677.159	25.39
677.346	25.44
677.533	25.42
677.721	25.25
677.908	25.32
678.095	25.33
678.282	25.5
678.469	25.55
678.656	25.83
678.843	26.02
679.03	26.25
679.217	26.26
679.404	26.52
679.591	26.46
679.778	26.46
679.964	26.33
680.151	26.11
680.338	26.05
680.525	25.86
680.712	25.92
680.899	25.76
681.086	25.57
681.272	25.29
681.459	24.98
681.646	24.84
681.833	24.95
682.02	25.01
682.206	25.24
682.393	25.39
682.58	25.35
682.766	25.18
682.953	25.37
683.14	25.38
683.326	25.64
683.513	25.99
683.7	26.22
683.886	25.88
684.073	25.76
684.259	25.72
684.446	25.68
684.632	25.8
684.819	25.99
685.005	25.77
685.192	25.8
685.378	25.43
685.565	25.18
685.751	25.27
685.938	25.62
686.124	25.78
686.31	25.6
686.497	25.42
686.683	25.61
686.87	25.64
687.056	25.81
687.242	26.12
687.429	26.37
687.615	26.19
687.801	26.33
687.987	26.43
688.174	25.94
688.36	26.37
688.546	26.34
688.732	26.19
688.918	25.87
689.105	25.88
689.291	25.97
689.477	26.04
689.663	26.19
689.849	25.99
690.035	25.85
690.221	26.39
690.407	26.09
690.593	26.3
690.779	26.36
690.965	26.56
691.151	26.59
691.337	26.31
691.523	26.09
691.709	26.45
691.895	26.14
692.081	25.93
692.267	25.66
692.453	25.57
692.639	25.55
692.825	25.63
693.011	25.56
693.196	25.23
693.382	25.2
693.568	25.22
693.754	24.96
693.94	25.26
694.125	25.27
694.311	25.48
694.497	25.51
694.682	25.67
694.868	25.57
695.054	25.62
695.239	25.94
695.425	25.95
695.611	26.06
695.796	26.02
695.982	25.86
696.168	25.98
696.353	26.08
696.539	26.15
696.724	26.13
696.91	25.99
697.095	25.98
697.281	26.08
697.466	26.06
697.652	26.01
697.837	26.06
698.023	26.13
698.208	26.08
698.393	25.83
698.579	25.9
698.764	25.87
698.949	26.01
699.135	26.18
699.32	26.01
699.505	25.99
699.691	26.27
699.876	26.23
700.061	26.32
700.246	26.51
700.432	26.75
700.617	26.6
700.802	26.79
700.987	26.9
701.172	26.61
701.358	26.51
701.543	26.44
701.728	26.08
701.913	26.05
702.098	25.84
702.283	25.63
702.468	25.49
702.653	25.31
702.838	24.48
703.023	24.64
703.208	24.81
703.393	24.95
703.578	25.03
703.763	24.77
703.948	24.82
704.133	24.9
704.318	24.83
704.503	25.08
704.688	25.25
704.873	25.75
705.057	25.47
705.242	25.47
705.427	25.52
705.612	25.55
705.797	25.47
705.981	25.7
706.166	25.59
706.351	25.85
706.536	25.99
706.72	26.06
706.905	26.1
707.09	26.05
707.274	26.16
707.459	26.17
707.644	26.39
707.828	27.14
708.013	26.95
708.197	27.11
708.382	27.36
708.567	27.27
708.751	26.98
708.936	26.99
709.12	26.71
709.305	26.76
709.489	26.89
709.673	26.6
709.858	26.06
710.042	25.8
710.227	25.79
710.411	25.49
710.596	25.51
710.78	25.73
710.964	25.45
711.149	25.66
711.333	25.58
711.517	25.59
711.702	25.71
711.886	26.07
712.07	26.11
712.254	26.01
712.438	26.21
712.623	26.16
712.807	26.3
712.991	26.62
713.175	26.38
713.359	26.45
713.544	26.5
713.728	26.57
713.912	26.41
714.096	26.48
714.28	26.98
714.464	26.73
714.648	26.54
714.832	26.45
715.016	26.44
715.2	26.88
715.384	26.64
715.568	26.43
715.752	26.42
715.936	26.3
716.12	26.31
716.304	26.1
716.488	26.36
716.671	26.29
716.855	26.14
717.039	26.17
717.223	25.64
717.407	25.73
717.59	25.91
717.774	26.22
717.958	26.3
718.142	26.32
718.325	26.03
718.509	25.97
718.693	26.08
718.877	26.3
719.06	25.86
719.244	26.29
719.428	26.17
719.611	26.14
719.795	25.47
719.978	25.74
720.162	25.83
720.345	26.24
720.529	25.84
720.713	25.99
720.896	26.25
721.08	26.68
721.263	26.81
721.446	27.04
721.63	27.22
721.813	27.35
721.997	27.59
722.18	27.5
722.364	26.83
722.547	26.61
722.73	26.82
722.914	26.24
723.097	26.17
723.28	26.21
723.464	26.18
723.647	25.9
723.83	25.95
724.013	25.28
724.197	25.49
724.38	25.7
724.563	26.2
724.746	25.72
724.929	25.68
725.112	26.17
725.296	25.85
725.479	25.75
725.662	26.11
725.845	26.09
726.028	26.17
726.211	26.1
726.394	26.32
726.577	25.85
726.76	26.44
726.943	26.66
727.126	26.08
727.309	26
727.492	26.02
727.675	25.54
727.858	25.79
728.041	25.7
728.224	25.91
728.407	25.67
728.589	26
728.772	25.59
728.955	25.33
729.138	25.35
729.321	25.26
729.503	25.01
729.686	25.24
729.869	24.94
730.052	25.06
730.234	25.1
730.417	25.25
730.6	25.32
730.782	25.11
730.965	24.96
731.148	25.05
731.33	25.29
731.513	25.54
731.695	25.51
731.878	26.04
732.061	26.32
732.243	25.8
732.426	25.96
732.608	26.47
732.791	26.81
732.973	27.49
733.156	27.47
733.338	27.57
733.52	27.53
733.703	27.34
733.885	26.85
734.068	26.35
734.25	26.71
734.432	26.68
734.615	26.36
734.797	26.3
734.979	25.77
735.162	25.62
735.344	25.3
735.526	25.39
735.708	25.35
735.891	25.37
736.073	25.41
736.255	25.61
736.437	25.64
736.619	25.52
736.802	25.84
736.984	26.24
737.166	26
737.348	26.28
737.53	26.78
737.712	26.88
737.894	27.02
738.076	27.51
738.258	27.6
738.44	27.49
738.622	27.36
738.804	27.36
738.986	27.21
739.168	27.53
739.35	26.96
739.532	26.46
739.714	26.5
739.896	26.56
740.078	26.25
740.259	26.2
740.441	26.29
740.623	26.61
740.805	26.16
740.987	26.11
741.168	26.16
741.35	27.3
741.532	27.04
741.714	27.12
741.895	26.62
742.077	27.15
742.259	26.77
742.44	26.28
742.622	25.69
742.804	25.22
742.985	25.51
743.167	25.72
743.348	24.98
743.53	25.01
743.711	25.11
743.893	25.59
744.075	25.22
744.256	25.18
744.438	25.68
744.619	25.74
744.8	26.27
744.982	26.33
745.163	26.63
745.345	26.52
745.526	26.98
745.707	26.75
745.889	27.57
746.07	27.92
746.252	27.78
746.433	27.59
746.614	27.51
746.795	27.64
746.977	27.24
747.158	26.75
747.339	26.62
747.52	26.24
747.702	25.99
747.883	25.97
748.064	25.52
748.245	25.65
748.426	25.18
748.607	25.23
748.788	25.03
748.97	24.91
749.151	24.42
749.332	24.49
749.513	24.58
749.694	24.68
749.875	23.69
750.056	24.04
750.237	23.92
750.418	24.18
750.599	24.33
750.78	24.45
750.96	24.8
751.141	24.98
751.322	25.05
751.503	24.81
751.684	25.31
751.865	25.43
752.046	25.14
752.226	25.13
752.407	25.54
752.588	25.52
752.769	25.35
752.949	25.75
753.13	26.25
753.311	26.66
753.492	26.38
753.672	26.13
753.853	26.58
754.034	26.42
754.214	26.26
754.395	26.34
754.575	25.98
754.756	26.11
754.937	25.98
755.117	25.58
755.298	25.71
755.478	25.75
755.659	25.84
755.839	25.32
756.02	25.47
756.2	25.75
756.381	25.67
756.561	26.18
756.741	26.37
756.922	25.77
757.102	25.8
757.283	25.25
757.463	26.01
757.643	25.73
757.823	25.54
758.004	26.22
758.184	26.19
758.364	26.01
758.545	25.57
758.725	25.4
758.905	25.48
759.085	26.08
759.265	26.8
759.446	26.94
759.626	27.1
759.806	26.93
759.986	26.3
760.166	26.02
760.346	25.99
760.526	26.21
760.706	26.49
760.886	26.34
761.066	26.38
761.246	25.93
761.426	25.36
761.606	25.42
761.786	25.37
761.966	25.31
762.146	25.74
762.326	26.23
762.506	26.15
762.686	25.85
762.866	26.08
763.046	25.39
763.225	25.6
763.405	25.73
763.585	25.41
763.765	25.94
763.945	26.12
764.124	25.71
764.304	25.47
764.484	25.69
764.664	25.61
764.843	25.6
765.023	25.1
765.203	25.03
765.382	25.03
765.562	25.3
765.741	24.52
765.921	24.29
766.101	24.74
766.28	24.55
766.46	24.5
766.639	24.76
766.819	24.56
766.998	26.03
767.178	26.17
767.357	26.19
767.537	26.4
767.716	27.09
767.896	27.19
768.075	26.72
768.254	25.96
768.434	25.64
768.613	25.28
768.792	25.66
768.972	25.25
769.151	25.5
769.33	25.85
769.51	25.55
769.689	25.5
769.868	25.25
770.047	25.23
770.226	25.73
770.406	25.51
770.585	25.91
770.764	25.48
770.943	25.61
771.122	25.38
771.301	25.01
771.48	24.75
771.66	24.67
771.839	24.41
772.018	25.31
772.197	25.88
772.376	25.9
772.555	26.13
772.734	26.79
772.913	25.99
773.092	25.28
773.271	25.2
773.449	26.09
773.628	26.34
773.807	26.94
773.986	26.25
774.165	25.95
774.344	25.94
774.523	25.38
774.701	24.6
774.88	25.78
775.059	25.24
775.238	25.25
775.417	25.92
775.595	25.16
775.774	24.76
775.953	25.57
776.131	25.9
776.31	26.39
776.489	27.57
776.667	27.37
776.846	26.98
777.025	27.84
777.203	27.94
777.382	26.83
777.56	27.32
777.739	27.61
777.917	27.44
778.096	27.54
778.274	27.04
778.453	25.46
778.631	26.03
778.81	25.64
778.988	25.2
779.166	24.88
779.345	23.99
779.523	23.68
779.702	23.78
779.88	23.22
780.058	23.16
780.237	23.25
780.415	24.2
780.593	24.06
780.771	24.86
780.95	26.07
781.128	26.56
781.306	27.6
781.484	28.35
781.662	28.3
781.841	28.41
782.019	27.88
782.197	27.37
782.375	27.4
782.553	27.19
782.731	26.96
782.909	26.1
783.087	25.55
783.265	26.2
783.443	25.29
783.621	26.01
783.799	25.83
783.977	26.38
784.155	27.03
784.333	26.35
784.511	27.12
784.689	26.9
784.867	27.01
785.045	27.39
785.223	26.19
785.4	26.77
785.578	25.52
785.756	25.29
785.934	25.36
786.112	25.84
786.289	27.07
786.467	26.91
786.645	27.49
786.823	27.84
787	28.3
787.178	28.37
787.356	27.9
787.533	28.68
787.711	29.7
787.889	29.49
788.066	29.12
788.244	29.34
788.421	28.94
788.599	29.21
788.776	28.74
788.954	28.35
789.131	28.91
789.309	29
789.486	27.65
789.664	27.38
789.841	25.96
790.019	26.32
790.196	24.22
790.373	24.61
790.551	23.78
790.728	23.99
790.906	24.16
791.083	22.87
791.26	22.53
791.437	25.03
791.615	24.01
791.792	26.18
791.969	26.35
792.146	27.18
792.324	26.67
792.501	26.3
792.678	26.44
792.855	26.22
793.032	26.82
793.209	27.22
793.387	25.88
793.564	26.76
793.741	25.58
793.918	26.15
794.095	27.33
794.272	27.06
794.449	26.83
794.626	26.47
794.803	26.48
794.98	26.17
795.157	25.81
795.334	26.12
795.511	24.82
795.688	24.98
795.864	24.59
796.041	24.08
796.218	24.77
796.395	25.61
796.572	25.69
796.749	25.32
796.925	26.5
797.102	27.3
797.279	26.8
797.456	27.84
797.632	28.13
797.809	27.16
797.986	27.15
798.162	27.16
798.339	27.39
798.516	27.04
798.692	27.54
798.869	27.43
799.046	26.97
799.222	27.36
799.399	27.63
799.575	28.31
799.752	29.32
799.928	29.51
800.105	29.9
800.281	29.68
800.458	30.09
800.634	30.65
800.811	30.25
800.987	30.88
801.163	30.16
801.34	29.03
801.516	28.34
801.692	27.78
801.869	26.69
802.045	25.52
802.221	26.2
802.398	25.97
802.574	24.95
802.75	24.99
802.926	24.19
803.103	24.95
803.279	26.6
803.455	26.87
803.631	25.51
803.807	25.82
803.983	25.57
804.16	23.62
804.336	22.83
804.512	23.02
804.688	22.76
804.864	23.79
805.04	23.94
805.216	23.25
805.392	23.41
805.568	24.38
805.744	24.51
805.92	25.84
806.096	26.02
806.272	27.43
806.448	28.4
806.623	28.48
806.799	28.28
806.975	28.06
807.151	28.15
807.327	28.33
807.503	29.73
807.678	30.06
807.854	29.72
808.03	30.54
808.206	31.18
808.381	30.24
808.557	29.7
808.733	29.82
808.908	29.93
809.084	30.8
809.26	29.63
809.435	28.87
809.611	28.97
809.787	28.3
809.962	29.26
810.138	29.31
810.313	30.57
810.489	31
810.664	30.33
810.84	30.67
811.015	30.86
811.191	29.86
811.366	30.3
811.542	29.88
811.717	31.18
811.892	29.64
812.068	28.91
812.243	28.08
812.419	28.14
812.594	27.36
812.769	28.54
812.944	26.26
813.12	28.44
813.295	28.76
813.47	29.96
813.645	29.34
813.821	29.71
813.996	29.58
814.171	28.66
814.346	30.14
814.521	31.84
814.697	28.88
814.872	29.37
815.047	28.59
815.222	28.32
815.397	27.44
815.572	26.91
815.747	26.52
815.922	25.07
816.097	25.58
816.272	23.88
816.447	23.83
816.622	24.6
816.797	25.75
816.972	24.9
817.147	25.33
817.322	24.62
817.496	24.26
817.671	25.15
817.846	26.01
818.021	26.62
818.196	27.41
818.371	28.29
818.545	28.6
818.72	27.35
818.895	28.42
819.069	27.94
819.244	28.68
819.419	29.48
819.594	29.05
819.768	29.8
819.943	29.26
820.117	28.95
820.292	28.33
820.467	28.48
820.641	29.06
820.816	28.83
820.99	28.51
821.165	28.35
821.339	28.25
821.514	28.11
821.688	28.13
821.863	28.2
822.037	28
822.212	27.74
822.386	27.62
822.56	27.45
822.735	27.36
822.909	27.33
823.084	27.53
823.258	27.47
823.432	27.83
823.606	27.52
823.781	27.61
823.955	27.84
824.129	27.7
824.303	27.67
824.478	27.7
824.652	27.39
824.826	27.27
825	27.01
825.174	26.89
825.348	26.23
825.523	26.14
825.697	25.91
825.871	25.97
826.045	26.62
826.219	26.5
826.393	26.61
826.567	27.07
826.741	27.49
826.915	27.31
827.089	27.35
827.263	27.4
827.437	27.44
827.611	27.19
827.784	26.99
827.958	26.93
828.132	27.17
828.306	26.64
828.48	26.95
828.654	26.57
828.827	26.16
829.001	25.9
829.175	25.93
829.349	26
829.522	25.9
829.696	25.7
829.87	25.15
830.044	24.98
830.217	25.12
830.391	24.04
830.565	24.59
830.738	24.88
830.912	25.34
831.085	24.64
831.259	24.13
831.432	23.75
831.606	23.55
831.779	24.19
831.953	24.8
832.126	25.64
832.3	25.92
832.473	26.01
832.647	25.63
832.82	25.89
832.994	26.69
833.167	26.64
833.34	27.36
833.514	27.84
833.687	27.34
833.86	26.86
834.034	26.98
834.207	27.62
834.38	27.12
834.553	27.5
834.727	27.57
834.9	27.44
835.073	27.79
835.246	27.31
835.419	27.54
835.593	27.72
835.766	27.42
835.939	26.61
836.112	25.69
836.285	26.33
836.458	27.73
836.631	27.23
836.804	27.89
836.977	28.91
837.15	30.04
837.323	29.5
837.496	30.16
837.669	32.08
837.842	32.55
838.015	32.24
838.188	30.36
838.361	29.27
838.533	30.46
838.706	29.88
838.879	28.65
839.052	27.05
839.225	27.74
839.398	27.79
839.57	26.36
839.743	27.16
839.916	27.52
840.088	29.53
840.261	29.49
840.434	28.82
840.607	27.76
840.779	27.53
840.952	27.28
841.124	27.08
841.297	26.89
841.47	27.46
841.642	26.85
841.815	28.12
841.987	27.87
842.16	27.28
842.332	27.81
842.505	29.49
842.677	30
842.85	30.35
843.022	26.23
843.194	24.34
843.367	23.87
843.539	22.53
843.712	18.38
843.884	20.21
844.056	17.8
844.229	14.73
844.401	15.88
844.573	13.53
844.745	13.18
844.918	14.92
845.09	15.03
845.262	13.51
845.434	13.33
845.606	16.29
845.779	15.55
845.951	19.28
846.123	22.34
846.295	21.16
846.467	21.94
846.639	24.16
846.811	25.17
846.983	27.76
847.155	27.21
847.327	30.69
847.499	29.71
847.671	26.23
847.843	22.55
848.015	20.68
848.187	18.99
848.359	23.4
848.531	26.27
848.703	28.33
848.875	27.33
849.047	28.2
849.218	26.09
849.39	28.1
849.562	29.26
849.734	33.47
849.905	33.81
850.077	32.54
850.249	30.17
850.421	30.95
850.592	29.62
850.764	26.03
850.936	29.05
851.107	30.54
851.279	30.9
851.451	31.56
851.622	28.96
851.794	31.78
851.965	33.96
852.137	33.97
852.308	29.92
852.48	31.81
852.651	36.07
852.823	32.71
852.994	31.56
853.166	29.67
853.337	27.85
853.509	31.39
853.68	29.93
853.851	28.35
854.023	25.16
854.194	24.08
854.365	25.09
854.537	23.9
854.708	27.31
854.879	25.47
855.05	28.75
855.222	30.98
855.393	27.8
855.564	22.37
855.735	23.66
855.906	27.94
856.078	28
856.249	25.18
856.42	25.5
856.591	23.77
856.762	28.69
856.933	24.52
857.104	24.48
857.275	24.49
857.446	30.64
857.617	31.41
857.788	29.49
857.959	27.92
858.13	24.93
858.301	26.52
858.472	25.06
858.643	23.5
858.814	22.45
858.985	19
859.155	22.77
859.326	20.14
859.497	20.46
859.668	17.44
859.839	19.96
860.009	20.25
860.18	17.25
860.351	21.85
860.522	19.3
860.692	18.94
860.863	18.24
861.034	12.87
861.204	15.55
861.375	13.95
861.546	17.12
861.716	15.04
861.887	16.96
862.057	18.62
862.228	12.55
862.398	9.46
862.569	8.63
862.739	12.2
862.91	13.47
863.08	12.87
863.251	10.63
863.421	7.47
863.592	12.52
863.762	9
863.932	7.51
864.103	5.97
864.273	10.93
864.443	17.06
864.614	15.17
864.784	17.7
864.954	15.53
865.125	19.6
865.295	20.93
865.465	19.99
865.635	24.9
865.805	31.17
865.976	36.6
866.146	35.22
866.316	37.88
866.486	40.32
866.656	41.09
866.826	44.3
866.996	43.74
867.166	44.18
867.336	42.3
867.506	35.59
867.676	26.63
867.846	21.67
868.016	21.94
868.186	17.24
868.356	15.73
868.526	11.89
868.696	0.82
868.866	-0.89
869.036	10.07
869.206	7.27
869.376	18.81
869.545	20.27
869.715	21.91
869.885	25.09
870.055	21.73
870.224	23.76
870.394	21.57
870.564	28.76
870.734	27.96
870.903	18.92
871.073	22.51
871.243	17.07
871.412	17.81
871.582	20.92
871.751	20.22
871.921	24.84
872.091	22.69
872.26	27.74
872.43	26.81
872.599	29.37
872.769	33.76
872.938	34.95
873.108	36.56
873.277	34.03
873.446	29.44
873.616	26.98
873.785	26.7
873.955	28.15
874.124	29.63
874.293	30.78
874.463	29.31
874.632	27.11
874.801	23.69
874.971	24.22
875.14	26.5
875.309	28.59
875.478	34.96
875.647	31.52
875.817	30.92
875.986	29.16
876.155	25.67
876.324	28.2
876.493	29.83
876.662	28.6
876.831	28.75
877	29.45
877.17	27.6
877.339	22.37
877.508	26.12
877.677	24.45
877.846	21.28
878.015	20
878.184	18.27
878.352	15.56
878.521	19.14
878.69	17.95
878.859	18.68
879.028	23.25
879.197	19.3
879.366	18.73
879.534	21.29
879.703	22.79
879.872	24.35
880.041	25.94
880.21	28.16
880.378	28.77
880.547	28.25
880.716	28.29
880.884	26.55
881.053	28.93
881.222	29.43
881.39	28.86
881.559	29.49
881.727	30.24
881.896	29.58
882.065	28.8
882.233	28.92
882.402	29.28
882.57	29.32
882.739	30.24
882.907	29.61
883.076	29.53
883.244	29.44
883.412	28.61
883.581	27.85
883.749	27.95
883.918	28.48
884.086	27.81
884.254	28.04
884.423	28.17
884.591	26.57
884.759	26.89
884.927	26.26
885.096	25.64
885.264	25.73
885.432	27.29
885.6	27.03
885.769	27.82
885.937	27.47
886.105	26.42
886.273	25.28
886.441	25.77
886.609	25.28
886.777	25.08
886.945	30.25
887.113	32.54
887.281	31.69
887.449	31.92
887.617	29.35
887.785	30.32
887.953	29.42
888.121	29.16
888.289	29.51
888.457	31.75
888.625	32.39
888.793	26.42
888.961	23.41
889.129	25.1
889.296	25.15
889.464	25.4
889.632	24.74
889.8	26.64
889.967	27.49
890.135	32.29
