Data from 2938507_Reflection_1.txt Node
Date: Tue Jun 16 22:57:37 EDT 2015
User: robert
Spectrometer: USB4E03002
Autoset integration time: false
Trigger mode: 4
Integration Time (sec): 1.000000E-1
Scans to average: 10
Electric dark correction enabled: true
Nonlinearity correction enabled: false
Boxcar width: 5
Stray light correction enabled: false
XAxis mode: Wavelengths
Stop averaging: false
Number of Pixels in Spectrum: 3648
>>>>>Begin Spectral Data<<<<<
177.575	-65.31
177.794	-76.16
178.014	-54.39
178.233	-40.77
178.452	31.28
178.672	-56.93
178.891	442.57
179.11	-563.64
179.33	-1311.61
179.549	-32.86
179.768	-28.49
179.987	-28.88
180.207	-56.56
180.426	-19.24
180.645	-769.36
180.864	322.04
181.084	114.38
181.303	88.45
181.522	92.7
181.741	109.91
181.96	105.44
182.179	117.19
182.398	134.32
182.618	118.82
182.837	144.66
183.056	120
183.275	139.53
183.494	113.64
183.713	-59.9
183.932	-269.85
184.151	-268.18
184.37	-2194.66
184.589	287.02
184.808	172.13
185.027	221.43
185.246	158.03
185.465	188.18
185.684	171.02
185.903	208.31
186.122	177.93
186.341	176.97
186.56	177.88
186.779	282.03
186.998	543.96
187.216	909.45
187.435	547.19
187.654	544.14
187.873	1001.51
188.092	928.01
188.311	656.53
188.53	600.5
188.748	1518.14
188.967	8635.48
189.186	261.92
189.405	149.31
189.623	121.54
189.842	153.86
190.061	150.31
190.28	98.84
190.498	88.24
190.717	81.8
190.936	109.7
191.154	118.69
191.373	125.35
191.592	126.47
191.81	116.03
192.029	117.89
192.248	86.78
192.466	119.69
192.685	116.98
192.904	221.4
193.122	358.08
193.341	-288.98
193.559	-65.65
193.778	-154.11
193.996	-198.13
194.215	-991.73
194.433	-520.85
194.652	-1294.69
194.87	4368.67
195.089	689.31
195.307	592.26
195.526	364.03
195.744	321.31
195.963	279.79
196.181	206.26
196.399	225.19
196.618	221.21
196.836	214.54
197.055	177.91
197.273	192.32
197.491	238.23
197.71	163.43
197.928	203.84
198.146	183.97
198.365	195.02
198.583	275.03
198.801	215.3
199.019	171.22
199.238	202.14
199.456	393.61
199.674	243.62
199.892	275.73
200.111	247.07
200.329	154.82
200.547	98.06
200.765	80.12
200.983	80.18
201.202	82.17
201.42	76.52
201.638	74.23
201.856	88.32
202.074	84.01
202.292	102.03
202.51	107.83
202.728	113.86
202.946	186.07
203.165	225.65
203.383	246.33
203.601	194.82
203.819	260.27
204.037	263.42
204.255	200.91
204.473	214.96
204.691	158.78
204.909	157.1
205.127	220.43
205.345	160.96
205.562	117.36
205.78	107.79
205.998	84.42
206.216	51.32
206.434	31.27
206.652	71.29
206.87	87.07
207.088	126.33
207.306	145.99
207.523	95.71
207.741	124.65
207.959	165.97
208.177	125.42
208.395	131.86
208.612	106.56
208.83	82.42
209.048	72.56
209.266	72.12
209.483	51.03
209.701	46.74
209.919	46.92
210.136	59.65
210.354	54.5
210.572	65.09
210.79	63.25
211.007	64.49
211.225	81.36
211.442	78.03
211.66	66.52
211.878	78.34
212.095	43.21
212.313	43.36
212.53	34.22
212.748	28.67
212.966	22.98
213.183	37.69
213.401	43.51
213.618	45
213.836	39.59
214.053	45.2
214.271	38.05
214.488	75.82
214.705	82.5
214.923	93.71
215.14	73.92
215.358	65.52
215.575	42.98
215.793	25.39
216.01	22.03
216.227	51.87
216.445	47.19
216.662	54.33
216.879	60.9
217.097	52.69
217.314	64.17
217.531	70.06
217.749	53.46
217.966	50.55
218.183	51.28
218.4	55.38
218.618	40.82
218.835	47.58
219.052	45.08
219.269	30.33
219.487	43.54
219.704	36.01
219.921	37.97
220.138	50.34
220.355	50.43
220.572	55.71
220.79	60.67
221.007	63.48
221.224	59.72
221.441	61.3
221.658	60.56
221.875	53.58
222.092	50.58
222.309	48.85
222.526	47.98
222.743	48.06
222.96	36.64
223.177	31.43
223.394	29.26
223.611	27.63
223.828	27.23
224.045	31.83
224.262	28.5
224.479	28.08
224.696	27.89
224.913	25.79
225.13	25.49
225.347	27.34
225.564	26.12
225.781	23.56
225.997	21.48
226.214	19.46
226.431	16.5
226.648	15.52
226.865	14.97
227.082	14.31
227.298	13.52
227.515	11.98
227.732	11.45
227.949	10.79
228.165	10.16
228.382	11.27
228.599	11.42
228.816	11.83
229.032	12.33
229.249	11.6
229.466	11.35
229.682	10.49
229.899	11.98
230.116	12.24
230.332	12.49
230.549	12.92
230.765	10.66
230.982	9.69
231.199	10.6
231.415	10.61
231.632	11.51
231.848	13.09
232.065	15.27
232.281	14.03
232.498	12.82
232.714	13.12
232.931	14.17
233.147	13.91
233.364	16.2
233.58	16.08
233.797	16.2
234.013	16.85
234.23	15.73
234.446	15.23
234.662	14.97
234.879	16.12
235.095	17.84
235.312	17.08
235.528	20.13
235.744	19.22
235.961	20.06
236.177	21.73
236.393	21.79
236.61	21.83
236.826	21.03
237.042	22.04
237.258	20.42
237.475	18.71
237.691	19.08
237.907	17.5
238.123	15.66
238.339	14.5
238.556	13.42
238.772	12.77
238.988	12.49
239.204	13.44
239.42	13.16
239.636	12.96
239.853	12.66
240.069	12.35
240.285	11.91
240.501	11.58
240.717	11.87
240.933	11.82
241.149	11.98
241.365	11.56
241.581	11
241.797	10.67
242.013	11.05
242.229	11.1
242.445	11.39
242.661	11.44
242.877	11.91
243.093	11.95
243.309	12.39
243.525	12
243.741	12.15
243.957	12.18
244.173	11.96
244.388	12
244.604	11.67
244.82	10.83
245.036	10.25
245.252	10.54
245.468	9.91
245.683	9.19
245.899	8.96
246.115	9.1
246.331	8.75
246.547	8.57
246.762	8.28
246.978	8.47
247.194	8.78
247.409	9.27
247.625	9
247.841	9.42
248.057	9.65
248.272	10.38
248.488	10.6
248.703	11.58
248.919	12.51
249.135	12.54
249.35	12.08
249.566	12.17
249.782	11.54
249.997	11.25
250.213	11.06
250.428	11.01
250.644	10.33
250.859	9.93
251.075	9.89
251.29	9.01
251.506	9.45
251.721	9.58
251.937	9.75
252.152	9.62
252.368	9.52
252.583	9.21
252.798	10.07
253.014	10.78
253.229	10.4
253.445	9.94
253.66	10.47
253.875	9.57
254.091	9.61
254.306	9.55
254.521	10.18
254.737	10.5
254.952	11.15
255.167	10.18
255.383	9.83
255.598	9.92
255.813	8.69
256.028	8.13
256.244	8.71
256.459	8.65
256.674	7.91
256.889	7.98
257.104	7.41
257.32	6.7
257.535	6.59
257.75	6.32
257.965	6.38
258.18	7.01
258.395	6.94
258.61	7.01
258.826	6.87
259.041	7.17
259.256	6.81
259.471	7.08
259.686	7.42
259.901	7.54
260.116	7.67
260.331	7.64
260.546	7.11
260.761	7.3
260.976	6.88
261.191	7.18
261.406	6.84
261.621	7.61
261.836	7.51
262.05	7.99
262.265	8.01
262.48	8.62
262.695	8.9
262.91	9.52
263.125	9.05
263.34	9.47
263.555	9.21
263.769	9.67
263.984	9.13
264.199	8.89
264.414	8.58
264.629	8.28
264.843	8.24
265.058	8.79
265.273	8.77
265.488	9.55
265.702	9.15
265.917	9.05
266.132	8.87
266.346	9.29
266.561	9.58
266.776	9.15
266.99	9.19
267.205	9.27
267.42	8.51
267.634	8.61
267.849	8.18
268.063	8.31
268.278	8.22
268.492	8.22
268.707	7.78
268.922	7.26
269.136	7.92
269.351	8.08
269.565	7.52
269.78	7.16
269.994	7.09
270.209	6.98
270.423	6.69
270.637	6.7
270.852	6.4
271.066	6.01
271.281	6.28
271.495	5.83
271.709	5.69
271.924	5.41
272.138	5.62
272.353	5.86
272.567	5.74
272.781	6.01
272.996	5.98
273.21	6.14
273.424	6.45
273.638	6.13
273.853	6.19
274.067	6.7
274.281	7.25
274.495	7.47
274.71	6.83
274.924	6.86
275.138	6.88
275.352	7.25
275.566	7.31
275.781	6.73
275.995	6.57
276.209	6.25
276.423	6.03
276.637	5.56
276.851	5.84
277.065	5.9
277.279	6.34
277.493	6.37
277.707	6.23
277.921	6.45
278.135	7.37
278.349	7.7
278.563	8.36
278.777	8.23
278.991	8.95
279.205	8.58
279.419	8.64
279.633	8.44
279.847	8.13
280.061	7.86
280.275	7.64
280.489	7.32
280.703	7.09
280.917	7.01
281.131	6.79
281.344	6.19
281.558	6.23
281.772	6.21
281.986	5.94
282.2	6.36
282.414	6.04
282.627	6.11
282.841	6.03
283.055	6.33
283.269	5.91
283.482	6.14
283.696	6.56
283.91	6.34
284.123	6.47
284.337	6.73
284.551	6.58
284.764	6.8
284.978	6.82
285.192	7.1
285.405	7.01
285.619	7.16
285.833	7.01
286.046	7.06
286.26	6.9
286.473	6.92
286.687	7.12
286.9	6.89
287.114	7.29
287.327	6.96
287.541	6.94
287.754	6.9
287.968	6.97
288.181	6.99
288.395	7.03
288.608	7.3
288.822	7.38
289.035	7.16
289.248	7.59
289.462	7.31
289.675	7.35
289.889	6.85
290.102	6.86
290.315	7.08
290.529	7.01
290.742	6.65
290.955	7.15
291.169	7.19
291.382	7.43
291.595	7.43
291.808	7.84
292.022	7.74
292.235	8.13
292.448	8.64
292.661	8.32
292.875	8.61
293.088	8.37
293.301	8.2
293.514	7.99
293.727	7.99
293.94	7.88
294.153	7.71
294.367	8.01
294.58	8.29
294.793	8.18
295.006	8.28
295.219	8.39
295.432	8.5
295.645	8.38
295.858	8.44
296.071	8.35
296.284	8.21
296.497	8.3
296.71	8.57
296.923	8.88
297.136	8.96
297.349	9.22
297.562	9.33
297.775	9.52
297.988	9.71
298.201	9.93
298.414	9.85
298.626	9.9
298.839	10.22
299.052	10.01
299.265	9.84
299.478	9.27
299.691	9.13
299.903	9.07
300.116	9.74
300.329	9.77
300.542	10.16
300.755	10.6
300.967	10.81
301.18	10.75
301.393	10.98
301.605	11.23
301.818	11.9
302.031	12.02
302.243	12.13
302.456	11.36
302.669	11.64
302.881	11.41
303.094	11.37
303.307	11.11
303.519	11.01
303.732	11.41
303.944	11.1
304.157	10.84
304.37	10.85
304.582	10.84
304.795	10.89
305.007	10.84
305.22	10.72
305.432	10.77
305.645	11.25
305.857	11.41
306.069	10.82
306.282	10.87
306.494	10.59
306.707	10.27
306.919	10.27
307.132	10.47
307.344	10.18
307.556	10.06
307.769	9.82
307.981	9.79
308.193	9.71
308.406	9.54
308.618	9.5
308.83	10.1
309.043	10.32
309.255	10.19
309.467	9.93
309.679	10.05
309.892	10.08
310.104	9.99
310.316	9.81
310.528	9.67
310.74	9.87
310.953	9.84
311.165	9.56
311.377	9.75
311.589	9.89
311.801	10.39
312.013	10.79
312.225	11.06
312.437	11.12
312.649	11.41
312.862	11.27
313.074	11.44
313.286	11.83
313.498	11.86
313.71	11.76
313.922	11.88
314.134	11.28
314.346	10.66
314.558	11.01
314.77	11.4
314.982	11.41
315.193	12.05
315.405	12.18
315.617	11.97
315.829	11.61
316.041	11.11
316.253	11.39
316.465	11.77
316.677	12.16
316.888	11.4
317.1	11.35
317.312	11.42
317.524	10.7
317.736	10.24
317.947	10.3
318.159	11.05
318.371	11.54
318.583	10.7
318.794	10.95
319.006	10.69
319.218	10.61
319.43	10.92
319.641	10.53
319.853	11.14
320.064	11.78
320.276	11.64
320.488	11.36
320.699	11.19
320.911	12.01
321.123	11.76
321.334	11.82
321.546	12.4
321.757	12.2
321.969	12.37
322.18	12.03
322.392	11.79
322.603	11.93
322.815	11.85
323.026	11.94
323.238	11.52
323.449	11.74
323.661	11.65
323.872	11.47
324.083	11.26
324.295	11.49
324.506	12.03
324.718	11.93
324.929	11.82
325.14	12.1
325.352	12.3
325.563	12.25
325.774	12.33
325.986	12.39
326.197	12.59
326.408	12.79
326.62	12.8
326.831	12.32
327.042	11.99
327.253	11.84
327.464	11.56
327.676	11.28
327.887	11.71
328.098	11.46
328.309	11.61
328.52	11.37
328.732	11.1
328.943	11.18
329.154	11.15
329.365	11.49
329.576	11.87
329.787	12.02
329.998	11.81
330.209	11.97
330.42	12.4
330.631	12.03
330.842	11.93
331.053	12.39
331.264	11.83
331.475	12.18
331.686	12.16
331.897	11.75
332.108	11.61
332.319	12.23
332.53	11.79
332.741	11.4
332.952	11.34
333.163	11.39
333.374	11.15
333.585	11.46
333.795	11.21
334.006	11.41
334.217	11.57
334.428	11.74
334.639	11.44
334.849	11.87
335.06	12.43
335.271	12.59
335.482	12.5
335.692	12.26
335.903	12.37
336.114	12.54
336.325	12.58
336.535	12.72
336.746	12.35
336.957	12.5
337.167	12.16
337.378	11.58
337.589	11.56
337.799	11.98
338.01	12.2
338.22	12.02
338.431	11.51
338.642	11.33
338.852	11.29
339.063	11.64
339.273	11.61
339.484	11.13
339.694	11.34
339.905	11.54
340.115	11.48
340.326	11.45
340.536	11.52
340.746	11.84
340.957	11.62
341.167	11.13
341.378	10.84
341.588	10.43
341.799	10.57
342.009	10.4
342.219	9.95
342.43	9.71
342.64	9.63
342.85	9.3
343.061	9.24
343.271	9.68
343.481	10.21
343.691	10.26
343.902	10.38
344.112	10.62
344.322	10.67
344.532	10.7
344.743	10.78
344.953	10.59
345.163	11.3
345.373	11.26
345.583	11
345.793	10.56
346.004	10.73
346.214	10.86
346.424	10.66
346.634	10.7
346.844	10.9
347.054	10.73
347.264	11.24
347.474	10.57
347.684	10.57
347.894	10.78
348.104	11.04
348.314	10.71
348.524	10.61
348.734	10.54
348.944	10.54
349.154	10.52
349.364	10.07
349.574	9.98
349.784	9.98
349.994	10.05
350.204	9.58
350.413	9.48
350.623	9.72
350.833	9.61
351.043	9.49
351.253	9.42
351.463	9.44
351.672	9.83
351.882	9.4
352.092	9.6
352.302	9.83
352.511	9.99
352.721	9.83
352.931	9.81
353.141	9.97
353.35	9.98
353.56	9.94
353.77	9.7
353.979	9.66
354.189	9.95
354.399	9.75
354.608	9.43
354.818	9.44
355.027	9.59
355.237	9.38
355.447	9.18
355.656	9.42
355.866	9.38
356.075	9.68
356.285	9.75
356.494	9.66
356.704	9.57
356.913	9.66
357.123	9.54
357.332	9.39
357.542	9.4
357.751	9.22
357.96	9.35
358.17	9.08
358.379	9.01
358.589	8.83
358.798	8.66
359.007	8.48
359.217	8.23
359.426	8.03
359.635	8.01
359.845	7.98
360.054	8.21
360.263	8.04
360.472	8.27
360.682	8.12
360.891	8.37
361.1	8.55
361.309	8.54
361.519	8.6
361.728	8.79
361.937	8.95
362.146	8.83
362.355	8.66
362.564	8.54
362.774	8.46
362.983	8.66
363.192	8.64
363.401	8.51
363.61	8.63
363.819	8.53
364.028	8.36
364.237	8.16
364.446	8.52
364.655	8.68
364.864	8.64
365.073	8.54
365.282	8.11
365.491	7.9
365.7	7.7
365.909	7.89
366.118	7.94
366.327	8.3
366.536	8.34
366.745	8.3
366.954	8.07
367.162	7.96
367.371	8.11
367.58	8.11
367.789	8.14
367.998	8.39
368.207	7.98
368.415	8.01
368.624	7.76
368.833	7.72
369.042	7.85
369.25	8.11
369.459	8.3
369.668	8.02
369.877	8.06
370.085	7.93
370.294	7.77
370.503	7.91
370.711	7.91
370.92	7.83
371.129	7.74
371.337	7.42
371.546	7.2
371.754	7.03
371.963	7.15
372.171	7.07
372.38	7.03
372.589	7.24
372.797	7.34
373.006	7.33
373.214	7.26
373.423	7.17
373.631	7.18
373.84	7.38
374.048	7.55
374.256	7.53
374.465	7.85
374.673	7.98
374.882	7.77
375.09	7.64
375.298	7.46
375.507	7.57
375.715	7.53
375.923	7.51
376.132	7.44
376.34	7.05
376.548	7.03
376.757	6.99
376.965	6.98
377.173	7.1
377.381	7.14
377.59	7.31
377.798	7.23
378.006	7.55
378.214	7.62
378.423	7.85
378.631	8.22
378.839	8.07
379.047	7.84
379.255	7.47
379.463	7.43
379.671	7.5
379.879	7.47
380.088	7.47
380.296	7.36
380.504	7.25
380.712	7.06
380.92	6.82
381.128	6.9
381.336	6.94
381.544	7.12
381.752	7.03
381.96	6.86
382.168	6.78
382.376	6.71
382.584	6.55
382.791	6.56
382.999	6.41
383.207	6.56
383.415	6.39
383.623	6.35
383.831	6.59
384.039	6.39
384.247	6.48
384.454	6.61
384.662	6.61
384.87	6.63
385.078	6.62
385.285	6.59
385.493	6.36
385.701	6.54
385.909	6.6
386.116	6.3
386.324	6.46
386.532	6.43
386.739	6.5
386.947	6.71
387.155	6.64
387.362	6.66
387.57	6.71
387.778	6.81
387.985	6.87
388.193	6.95
388.4	6.88
388.608	6.84
388.816	6.84
389.023	6.73
389.231	6.42
389.438	6.57
389.646	6.46
389.853	6.23
390.061	6.28
390.268	6.27
390.475	6.22
390.683	6.21
390.89	6.15
391.098	6.27
391.305	6.5
391.512	6.62
391.72	6.45
391.927	6.47
392.135	6.59
392.342	6.5
392.549	6.52
392.756	6.47
392.964	6.41
393.171	6.35
393.378	6.32
393.586	5.98
393.793	6.01
394	6.1
394.207	6.1
394.414	6.04
394.622	6.06
394.829	5.82
395.036	5.67
395.243	5.78
395.45	5.86
395.657	5.6
395.864	5.75
396.072	5.73
396.279	5.66
396.486	5.64
396.693	5.86
396.9	5.73
397.107	5.88
397.314	5.91
397.521	5.93
397.728	5.91
397.935	5.94
398.142	5.81
398.349	5.85
398.556	5.85
398.763	5.89
398.97	5.78
399.177	6.1
399.383	6.15
399.59	6.28
399.797	6.24
400.004	6.01
400.211	5.99
400.418	5.94
400.625	5.73
400.831	5.71
401.038	5.71
401.245	5.46
401.452	5.27
401.658	5.13
401.865	5.1
402.072	5.02
402.279	5.04
402.485	5.07
402.692	5.11
402.899	5.2
403.105	5.11
403.312	4.95
403.519	5.17
403.725	5.1
403.932	5.04
404.138	4.95
404.345	5
404.552	5.22
404.758	5.21
404.965	5.08
405.171	5.04
405.378	5.21
405.584	5.16
405.791	4.94
405.997	5
406.204	4.97
406.41	5.12
406.617	5.01
406.823	5.14
407.029	5.09
407.236	5.14
407.442	5.18
407.649	5.11
407.855	5.4
408.061	5.59
408.268	5.55
408.474	5.52
408.68	5.26
408.887	5.35
409.093	5.03
409.299	5.05
409.505	5.03
409.712	5.08
409.918	5.03
410.124	4.9
410.33	4.76
410.537	4.62
410.743	4.7
410.949	4.82
411.155	4.91
411.361	5.04
411.567	4.95
411.773	5.05
411.98	4.86
412.186	4.84
412.392	4.88
412.598	5.03
412.804	5.09
413.01	5.13
413.216	5.09
413.422	4.94
413.628	4.89
413.834	5.04
414.04	4.89
414.246	5.03
414.452	5.01
414.658	4.91
414.864	4.85
415.07	4.98
415.275	4.96
415.481	4.85
415.687	4.8
415.893	4.91
416.099	4.81
416.305	4.84
416.511	4.76
416.716	4.77
416.922	4.85
417.128	4.77
417.334	4.74
417.539	4.75
417.745	4.86
417.951	4.91
418.157	4.8
418.362	4.8
418.568	4.78
418.774	4.75
418.979	4.71
419.185	4.71
419.391	4.69
419.596	4.51
419.802	4.46
420.008	4.41
420.213	4.7
420.419	4.72
420.624	4.73
420.83	4.74
421.035	4.76
421.241	4.75
421.446	4.61
421.652	4.57
421.857	4.59
422.063	4.59
422.268	4.57
422.474	4.27
422.679	4.24
422.885	4.22
423.09	4.26
423.295	4.21
423.501	4.28
423.706	4.34
423.911	4.43
424.117	4.59
424.322	4.55
424.527	4.65
424.733	4.61
424.938	4.61
425.143	4.69
425.349	4.61
425.554	4.67
425.759	4.66
425.964	4.69
426.169	4.66
426.375	4.56
426.58	4.56
426.785	4.49
426.99	4.5
427.195	4.52
427.4	4.49
427.605	4.5
427.811	4.56
428.016	4.65
428.221	4.54
428.426	4.53
428.631	4.53
428.836	4.7
429.041	4.81
429.246	4.85
429.451	4.79
429.656	4.69
429.861	4.59
430.066	4.54
430.271	4.5
430.476	4.51
430.681	4.39
430.886	4.51
431.09	4.33
431.295	4.24
431.5	4.29
431.705	4.31
431.91	4.38
432.115	4.46
432.32	4.42
432.524	4.33
432.729	4.5
432.934	4.62
433.139	4.49
433.343	4.6
433.548	4.55
433.753	4.42
433.958	4.38
434.162	4.33
434.367	4.28
434.572	4.23
434.776	4.24
434.981	3.96
435.186	3.93
435.39	3.94
435.595	3.86
435.799	3.8
436.004	3.85
436.209	3.89
436.413	3.94
436.618	4.05
436.822	4.11
437.027	4.16
437.231	4.21
437.436	4.19
437.64	4.19
437.845	4.27
438.049	4.42
438.253	4.41
438.458	4.37
438.662	4.3
438.867	4.23
439.071	4.27
439.275	4.33
439.48	4.42
439.684	4.54
439.888	4.54
440.093	4.53
440.297	4.47
440.501	4.44
440.706	4.5
440.91	4.53
441.114	4.47
441.318	4.44
441.523	4.33
441.727	4.35
441.931	4.26
442.135	4.38
442.339	4.29
442.543	4.25
442.748	4.27
442.952	4.22
443.156	4.27
443.36	4.37
443.564	4.28
443.768	4.3
443.972	4.14
444.176	4.09
444.38	4
444.584	4.02
444.788	3.98
444.992	3.92
445.196	3.92
445.4	3.83
445.604	3.8
445.808	3.92
446.012	3.86
446.216	3.94
446.42	3.94
446.624	3.95
446.828	4
447.032	4.13
447.235	4.23
447.439	4.29
447.643	4.4
447.847	4.42
448.051	4.41
448.254	4.42
448.458	4.38
448.662	4.36
448.866	4.34
449.069	4.28
449.273	4.22
449.477	4.17
449.681	4.07
449.884	3.99
450.088	4.02
450.292	4.07
450.495	4.11
450.699	4.16
450.902	4.1
451.106	4.06
451.31	3.98
451.513	3.89
451.717	3.91
451.92	3.9
452.124	3.96
452.327	3.84
452.531	3.63
452.734	3.56
452.938	3.55
453.141	3.63
453.345	3.62
453.548	3.66
453.752	3.69
453.955	3.73
454.158	3.77
454.362	3.71
454.565	3.79
454.769	3.95
454.972	3.94
455.175	3.92
455.379	3.99
455.582	3.94
455.785	3.91
455.988	3.94
456.192	3.89
456.395	3.81
456.598	3.83
456.801	3.76
457.005	3.59
457.208	3.57
457.411	3.61
457.614	3.57
457.817	3.68
458.021	3.69
458.224	3.68
458.427	3.61
458.63	3.58
458.833	3.64
459.036	3.66
459.239	3.73
459.442	3.84
459.645	3.81
459.848	3.72
460.051	3.71
460.254	3.79
460.457	3.78
460.66	3.79
460.863	3.88
461.066	3.81
461.269	3.86
461.472	3.95
461.675	3.8
461.878	3.82
462.081	3.88
462.284	3.83
462.486	3.75
462.689	3.76
462.892	3.82
463.095	3.87
463.298	3.84
463.5	3.91
463.703	3.91
463.906	3.95
464.109	4
464.311	4.01
464.514	4.02
464.717	4.07
464.92	4.05
465.122	4.1
465.325	4.08
465.528	4.12
465.73	4.07
465.933	4.03
466.135	4.14
466.338	4.05
466.541	4.14
466.743	4.21
466.946	4.17
467.148	4.14
467.351	4.07
467.553	4.18
467.756	4.2
467.958	4.15
468.161	4.19
468.363	4.12
468.566	4.27
468.768	4.22
468.971	4.12
469.173	4.1
469.375	4.11
469.578	4.13
469.78	3.97
469.983	3.92
470.185	3.93
470.387	3.99
470.59	3.95
470.792	3.89
470.994	3.86
471.196	3.87
471.399	3.95
471.601	3.94
471.803	3.84
472.005	3.93
472.208	3.88
472.41	3.87
472.612	3.77
472.814	3.85
473.016	3.94
473.218	3.99
473.421	4.05
473.623	4.02
473.825	3.99
474.027	4.19
474.229	4.09
474.431	4.09
474.633	4.12
474.835	4.09
475.037	4.11
475.239	4.06
475.441	4
475.643	3.99
475.845	3.95
476.047	3.95
476.249	3.9
476.451	3.82
476.653	3.87
476.855	3.84
477.057	3.81
477.258	3.75
477.46	3.67
477.662	3.65
477.864	3.63
478.066	3.63
478.268	3.72
478.469	3.65
478.671	3.81
478.873	3.81
479.075	3.83
479.276	3.86
479.478	3.96
479.68	3.97
479.882	4.01
480.083	3.99
480.285	3.97
480.487	3.91
480.688	3.92
480.89	3.87
481.091	3.87
481.293	3.82
481.495	3.79
481.696	3.72
481.898	3.68
482.099	3.65
482.301	3.68
482.502	3.71
482.704	3.7
482.905	3.71
483.107	3.71
483.308	3.68
483.51	3.67
483.711	3.67
483.913	3.67
484.114	3.72
484.315	3.71
484.517	3.67
484.718	3.66
484.92	3.7
485.121	3.71
485.322	3.69
485.524	3.71
485.725	3.77
485.926	3.78
486.127	3.76
486.329	3.73
486.53	3.75
486.731	3.74
486.932	3.74
487.134	3.71
487.335	3.71
487.536	3.74
487.737	3.75
487.938	3.69
488.139	3.68
488.341	3.7
488.542	3.71
488.743	3.7
488.944	3.74
489.145	3.74
489.346	3.76
489.547	3.73
489.748	3.74
489.949	3.75
490.15	3.77
490.351	3.79
490.552	3.82
490.753	3.85
490.954	3.85
491.155	3.83
491.356	3.85
491.557	3.86
491.758	3.89
491.959	3.91
492.159	3.9
492.36	3.95
492.561	3.95
492.762	3.98
492.963	3.94
493.164	3.95
493.364	3.93
493.565	3.92
493.766	3.84
493.967	3.81
494.167	3.79
494.368	3.77
494.569	3.74
494.769	3.72
494.97	3.71
495.171	3.8
495.371	3.8
495.572	3.83
495.773	3.84
495.973	3.9
496.174	3.96
496.375	3.94
496.575	3.96
496.776	4.05
496.976	4.15
497.177	4.09
497.377	4.06
497.578	4.19
497.778	4.25
497.979	4.22
498.179	4.24
498.38	4.23
498.58	4.26
498.78	4.24
498.981	4.19
499.181	4.1
499.382	4.17
499.582	4.18
499.782	4.06
499.983	4.01
500.183	4.09
500.383	4.14
500.584	4.16
500.784	4.23
500.984	4.26
501.184	4.3
501.385	4.37
501.585	4.35
501.785	4.44
501.985	4.49
502.185	4.59
502.386	4.59
502.586	4.54
502.786	4.56
502.986	4.57
503.186	4.7
503.386	4.7
503.586	4.77
503.786	4.89
503.987	4.84
504.187	4.89
504.387	4.94
504.587	4.93
504.787	4.99
504.987	5.01
505.187	4.9
505.387	4.87
505.587	4.86
505.786	4.87
505.986	4.81
506.186	4.83
506.386	4.81
506.586	4.72
506.786	4.75
506.986	4.8
507.186	4.84
507.386	5
507.585	5.03
507.785	5.11
507.985	5.09
508.185	5.26
508.384	5.3
508.584	5.33
508.784	5.44
508.984	5.54
509.183	5.5
509.383	5.48
509.583	5.46
509.782	5.46
509.982	5.44
510.182	5.49
510.381	5.37
510.581	5.36
510.781	5.33
510.98	5.27
511.18	5.17
511.379	5.24
511.579	5.31
511.778	5.27
511.978	5.28
512.177	5.28
512.377	5.25
512.576	5.28
512.776	5.28
512.975	5.36
513.175	5.5
513.374	5.62
513.573	5.66
513.773	5.65
513.972	5.76
514.172	5.83
514.371	5.94
514.57	6.07
514.77	6.21
514.969	6.3
515.168	6.34
515.367	6.34
515.567	6.37
515.766	6.47
515.965	6.5
516.164	6.45
516.364	6.48
516.563	6.54
516.762	6.54
516.961	6.5
517.16	6.51
517.359	6.58
517.559	6.59
517.758	6.62
517.957	6.6
518.156	6.64
518.355	6.76
518.554	6.81
518.753	6.77
518.952	6.79
519.151	6.83
519.35	6.87
519.549	6.9
519.748	6.87
519.947	6.95
520.146	7.02
520.345	7.01
520.544	7.08
520.743	7.02
520.942	7.09
521.141	7.11
521.339	7.11
521.538	7.1
521.737	7.12
521.936	7.24
522.135	7.18
522.333	7.29
522.532	7.34
522.731	7.29
522.93	7.43
523.129	7.48
523.327	7.6
523.526	7.65
523.725	7.72
523.923	7.7
524.122	7.7
524.321	7.75
524.519	7.76
524.718	7.76
524.917	7.8
525.115	7.82
525.314	7.85
525.512	7.88
525.711	7.94
525.909	7.99
526.108	8.08
526.306	8.13
526.505	8.18
526.703	8.19
526.902	8.25
527.1	8.27
527.299	8.26
527.497	8.28
527.696	8.26
527.894	8.25
528.092	8.25
528.291	8.2
528.489	8.19
528.688	8.14
528.886	8.1
529.084	8.08
529.283	8.08
529.481	8.08
529.679	8.09
529.877	8.18
530.076	8.24
530.274	8.34
530.472	8.44
530.67	8.54
530.869	8.67
531.067	8.81
531.265	8.86
531.463	8.91
531.661	8.95
531.859	8.97
532.057	8.95
532.255	8.93
532.454	8.93
532.652	8.95
532.85	8.94
533.048	8.95
533.246	8.9
533.444	8.91
533.642	8.97
533.84	9.03
534.038	9.02
534.236	9.09
534.434	9.19
534.632	9.19
534.83	9.32
535.027	9.36
535.225	9.42
535.423	9.5
535.621	9.54
535.819	9.48
536.017	9.48
536.215	9.56
536.412	9.54
536.61	9.62
536.808	9.64
537.006	9.59
537.203	9.62
537.401	9.63
537.599	9.64
537.797	9.71
537.994	9.83
538.192	10.01
538.39	10.07
538.587	10.11
538.785	10.1
538.983	10.2
539.18	10.25
539.378	10.28
539.575	10.3
539.773	10.35
539.97	10.35
540.168	10.33
540.366	10.31
540.563	10.31
540.761	10.31
540.958	10.34
541.155	10.35
541.353	10.35
541.55	10.36
541.748	10.37
541.945	10.37
542.143	10.4
542.34	10.46
542.537	10.42
542.735	10.45
542.932	10.52
543.129	10.54
543.327	10.58
543.524	10.58
543.721	10.67
543.919	10.72
544.116	10.84
544.313	10.91
544.51	10.97
544.708	11.1
544.905	11.12
545.102	11.15
545.299	11.17
545.496	11.21
545.693	11.26
545.891	11.24
546.088	11.23
546.285	11.21
546.482	11.2
546.679	11.2
546.876	11.15
547.073	11.2
547.27	11.23
547.467	11.16
547.664	11.15
547.861	11.2
548.058	11.35
548.255	11.41
548.452	11.55
548.649	11.6
548.846	11.77
549.043	11.78
549.24	11.82
549.437	11.94
549.633	12.17
549.83	12.27
550.027	12.43
550.224	12.44
550.421	12.53
550.618	12.48
550.814	12.58
551.011	12.56
551.208	12.68
551.405	12.75
551.601	12.84
551.798	12.67
551.995	12.68
552.191	12.65
552.388	12.72
552.585	12.82
552.781	12.8
552.978	12.75
553.175	12.85
553.371	12.9
553.568	12.94
553.764	12.96
553.961	13.23
554.157	13.27
554.354	13.29
554.55	13.46
554.747	13.47
554.943	13.58
555.14	13.76
555.336	13.78
555.533	13.84
555.729	13.89
555.926	13.84
556.122	13.88
556.318	13.99
556.515	14.17
556.711	14.17
556.907	14.18
557.104	14.29
557.3	14.33
557.496	14.32
557.693	14.38
557.889	14.43
558.085	14.57
558.281	14.62
558.478	14.7
558.674	14.6
558.87	14.62
559.066	14.79
559.262	14.89
559.459	15
559.655	15.13
559.851	15.18
560.047	15.27
560.243	15.23
560.439	15.32
560.635	15.41
560.831	15.52
561.027	15.58
561.223	15.57
561.419	15.48
561.615	15.51
561.811	15.62
562.007	15.78
562.203	15.82
562.399	15.98
562.595	15.91
562.791	15.89
562.987	16.02
563.183	16.05
563.379	16.15
563.575	16.19
563.771	16.23
563.966	16.27
564.162	16.29
564.358	16.4
564.554	16.52
564.75	16.64
564.945	16.69
565.141	16.72
565.337	16.63
565.533	16.62
565.728	16.74
565.924	16.8
566.12	16.81
566.315	16.8
566.511	16.81
566.707	16.75
566.902	16.85
567.098	16.91
567.293	16.94
567.489	17.05
567.684	17.13
567.88	17.19
568.076	17.15
568.271	17.2
568.467	17.3
568.662	17.37
568.858	17.51
569.053	17.62
569.248	17.72
569.444	17.82
569.639	17.95
569.835	18.06
570.03	18.14
570.225	18.22
570.421	18.36
570.616	18.38
570.812	18.51
571.007	18.52
571.202	18.48
571.397	18.53
571.593	18.62
571.788	18.75
571.983	18.72
572.178	18.65
572.374	18.73
572.569	18.67
572.764	18.72
572.959	18.65
573.154	18.72
573.35	18.75
573.545	18.86
573.74	18.85
573.935	18.84
574.13	18.87
574.325	19
574.52	18.96
574.715	19.01
574.91	19.1
575.105	19.12
575.3	19.08
575.495	19.14
575.69	19.11
575.885	18.98
576.08	18.89
576.275	18.93
576.47	18.93
576.665	19.04
576.86	19.19
577.055	19.16
577.25	19.14
577.444	19.22
577.639	19.4
577.834	19.37
578.029	19.54
578.224	19.71
578.418	19.78
578.613	19.87
578.808	20
579.003	20.06
579.197	20.05
579.392	20.24
579.587	20.29
579.781	20.19
579.976	20.24
580.171	20.35
580.365	20.47
580.56	20.55
580.755	20.61
580.949	20.66
581.144	20.51
581.338	20.67
581.533	20.72
581.727	20.85
581.922	20.97
582.116	21.07
582.311	21.15
582.505	21.06
582.7	21.06
582.894	21.16
583.089	21.1
583.283	21.18
583.478	21.2
583.672	21.33
583.866	21.19
584.061	21.09
584.255	21.13
584.449	21.04
584.644	21.11
584.838	21.16
585.032	21.22
585.226	21.38
585.421	21.51
585.615	21.42
585.809	21.31
586.003	21.44
586.198	21.54
586.392	21.5
586.586	21.53
586.78	21.54
586.974	21.53
587.168	21.29
587.363	21.04
587.557	21
587.751	21.01
587.945	21.03
588.139	21.05
588.333	21.12
588.527	21.17
588.721	21.19
588.915	21.27
589.109	21.2
589.303	21.22
589.497	21.51
589.691	21.54
589.885	21.67
590.079	21.79
590.273	21.86
590.466	21.86
590.66	21.9
590.854	21.98
591.048	22.05
591.242	22.07
591.436	22.36
591.629	22.34
591.823	22.33
592.017	22.35
592.211	22.26
592.404	22.24
592.598	22.32
592.792	22.32
592.986	22.25
593.179	22.35
593.373	22.46
593.567	22.34
593.76	22.34
593.954	22.42
594.147	22.46
594.341	22.58
594.535	22.75
594.728	22.65
594.922	22.8
595.115	22.88
595.309	22.81
595.502	22.84
595.696	22.87
595.889	22.83
596.083	22.78
596.276	22.81
596.47	22.8
596.663	22.7
596.856	22.6
597.05	22.56
597.243	22.54
597.437	22.5
597.63	22.49
597.823	22.53
598.017	22.53
598.21	22.57
598.403	22.42
598.596	22.43
598.79	22.52
598.983	22.59
599.176	22.52
599.369	22.59
599.563	22.75
599.756	22.91
599.949	23.07
600.142	23.15
600.335	23.25
600.528	23.47
600.722	23.61
600.915	23.71
601.108	23.89
601.301	23.98
601.494	23.9
601.687	23.89
601.88	23.78
602.073	23.73
602.266	23.84
602.459	23.78
602.652	23.67
602.845	23.55
603.038	23.45
603.231	23.49
603.424	23.49
603.617	23.54
603.809	23.55
604.002	23.58
604.195	23.37
604.388	23.37
604.581	23.43
604.774	23.49
604.966	23.57
605.159	23.69
605.352	23.55
605.545	23.55
605.737	23.58
605.93	23.6
606.123	23.55
606.316	23.7
606.508	23.85
606.701	23.77
606.894	23.7
607.086	23.66
607.279	23.57
607.471	23.84
607.664	23.88
607.857	23.8
608.049	23.75
608.242	23.85
608.434	24.03
608.627	23.75
608.819	23.89
609.012	24.03
609.204	24.13
609.397	24.19
609.589	24.04
609.782	24.08
609.974	24.24
610.166	24.22
610.359	24.31
610.551	24.32
610.743	24.53
610.936	24.46
611.128	24.43
611.32	24.34
611.513	24.36
611.705	24.48
611.897	24.46
612.09	24.45
612.282	24.6
612.474	24.42
612.666	24.46
612.858	24.48
613.051	24.42
613.243	24.33
613.435	24.37
613.627	24.2
613.819	24.11
614.011	24.13
614.203	24.08
614.395	24.16
614.588	24.37
614.78	24.18
614.972	24.12
615.164	24.22
615.356	24.31
615.548	24.44
615.74	24.55
615.932	24.53
616.124	24.58
616.315	24.58
616.507	24.33
616.699	24.26
616.891	24.47
617.083	24.67
617.275	24.55
617.467	24.59
617.659	24.33
617.85	24.46
618.042	24.43
618.234	24.26
618.426	24.36
618.618	24.4
618.809	24.35
619.001	24.22
619.193	23.92
619.384	24.02
619.576	24.14
619.768	24.38
619.959	24.39
620.151	24.41
620.343	24.7
620.534	24.82
620.726	25.11
620.917	25.19
621.109	25.12
621.301	25.32
621.492	25.48
621.684	25.38
621.875	25.34
622.067	25.32
622.258	25.28
622.45	25.11
622.641	24.86
622.832	24.69
623.024	24.79
623.215	24.91
623.407	24.95
623.598	24.97
623.789	25.06
623.981	24.96
624.172	24.79
624.363	24.83
624.555	24.9
624.746	25.01
624.937	25.05
625.129	24.87
625.32	24.85
625.511	24.94
625.702	24.91
625.893	24.84
626.085	25.08
626.276	25.13
626.467	25.21
626.658	25.17
626.849	25.06
627.04	25.13
627.231	25.35
627.422	25.34
627.614	25.24
627.805	25.29
627.996	25.27
628.187	24.97
628.378	25.1
628.569	25.1
628.76	25.09
628.951	25.07
629.142	24.93
629.332	24.86
629.523	24.97
629.714	25.13
629.905	24.98
630.096	25.09
630.287	25.37
630.478	25.43
630.669	25.44
630.859	25.44
631.05	25.43
631.241	25.34
631.432	25.16
631.623	25.03
631.813	24.87
632.004	24.96
632.195	24.8
632.385	24.7
632.576	24.6
632.767	24.48
632.957	24.47
633.148	24.65
633.339	24.91
633.529	25.09
633.72	25.21
633.91	25.12
634.101	25.18
634.292	25.46
634.482	25.4
634.673	25.34
634.863	25.44
635.054	25.48
635.244	25.52
635.435	25.44
635.625	25.34
635.815	25.18
636.006	25.22
636.196	25.2
636.387	25.24
636.577	25.47
636.767	25.72
636.958	25.73
637.148	25.82
637.338	25.82
637.529	25.72
637.719	25.84
637.909	25.85
638.099	25.9
638.29	25.9
638.48	25.65
638.67	25.38
638.86	25.15
639.05	25.17
639.241	25.25
639.431	25.2
639.621	25.14
639.811	25.05
640.001	25.2
640.191	25.32
640.381	25.36
640.571	25.38
640.761	25.67
640.951	25.73
641.141	25.58
641.331	25.34
641.521	25.43
641.711	25.54
641.901	25.8
642.091	25.93
642.281	25.9
642.471	25.86
642.661	25.96
642.851	25.76
643.041	25.91
643.231	26.06
643.42	26.18
643.61	26.17
643.8	26.4
643.99	26.36
644.18	26.14
644.369	26.08
644.559	26.18
644.749	26.09
644.939	26.21
645.128	26.1
645.318	26.17
645.508	26.02
645.697	25.95
645.887	26.03
646.076	25.74
646.266	25.58
646.456	25.54
646.645	25.47
646.835	25.37
647.024	25.43
647.214	25.38
647.403	25.38
647.593	25.47
647.782	25.56
647.972	25.3
648.161	25.37
648.351	25.75
648.54	25.74
648.73	25.72
648.919	26.02
649.108	26.05
649.298	26.07
649.487	26.08
649.677	26.16
649.866	26
650.055	25.97
650.244	26.19
650.434	25.97
650.623	26.12
650.812	26.11
651.002	25.94
651.191	25.78
651.38	25.75
651.569	25.67
651.758	25.57
651.947	25.78
652.137	25.74
652.326	25.57
652.515	25.66
652.704	25.61
652.893	25.56
653.082	25.66
653.271	25.67
653.46	25.84
653.649	25.82
653.838	25.87
654.027	25.8
654.216	25.97
654.405	26.08
654.594	26.16
654.783	26.21
654.972	26.43
655.161	26.45
655.35	26.36
655.539	26.41
655.728	26.41
655.916	26.36
656.105	26.53
656.294	26.5
656.483	26.26
656.672	26.02
656.86	26.04
657.049	25.88
657.238	26
657.427	25.99
657.615	25.95
657.804	26.06
657.993	26.27
658.181	26.19
658.37	26.14
658.559	26.18
658.747	26.32
658.936	26.32
659.125	26.65
659.313	26.38
659.502	26.56
659.69	26.44
659.879	26.23
660.067	26.09
660.256	25.88
660.444	26.04
660.633	26.08
660.821	26.25
661.01	26.12
661.198	25.84
661.387	26.2
661.575	26.11
661.763	26.33
661.952	26.75
662.14	26.61
662.328	26.86
662.517	26.89
662.705	27.01
662.893	26.87
663.082	26.9
663.27	26.68
663.458	26.35
663.646	26.19
663.834	26.14
664.023	25.94
664.211	26.08
664.399	26.25
664.587	26.11
664.775	26.07
664.963	26.05
665.152	26.19
665.34	26.43
665.528	26.52
665.716	26.81
665.904	26.66
666.092	26.64
666.28	26.83
666.468	26.6
666.656	26.63
666.844	26.48
667.032	26.47
667.22	26.45
667.408	26.24
667.596	26.42
667.784	26.26
667.971	26.22
668.159	26.09
668.347	26.21
668.535	26.19
668.723	26.12
668.911	26.1
669.098	26.1
669.286	26.09
669.474	26.27
669.662	26.05
669.849	26.13
670.037	26.12
670.225	26.43
670.413	26.28
670.6	26.08
670.788	26.12
670.976	26.34
671.163	26.41
671.351	26.39
671.538	26.36
671.726	26.42
671.913	26.28
672.101	26.39
672.289	25.98
672.476	25.79
672.664	26.08
672.851	25.77
673.039	25.79
673.226	25.82
673.413	26.01
673.601	25.96
673.788	25.86
673.976	25.95
674.163	25.91
674.35	25.95
674.538	26.13
674.725	26.15
674.912	26.33
675.1	26.18
675.287	26.26
675.474	26.08
675.662	26.16
675.849	26.37
676.036	26.48
676.223	26.41
676.411	26.9
676.598	26.8
676.785	26.74
676.972	27.02
677.159	26.92
677.346	26.93
677.533	27.12
677.721	26.99
677.908	27.05
678.095	26.92
678.282	27.14
678.469	26.8
678.656	26.79
678.843	26.9
679.03	26.68
679.217	26.84
679.404	26.72
679.591	26.58
679.778	26.66
679.964	26.66
680.151	26.77
680.338	26.86
680.525	26.86
680.712	26.81
680.899	26.75
681.086	26.76
681.272	26.72
681.459	26.75
681.646	26.84
681.833	26.95
682.02	27.05
682.206	26.88
682.393	26.7
682.58	27.07
682.766	27.22
682.953	27.08
683.14	27.15
683.326	27.37
683.513	27.26
683.7	27.06
683.886	27.15
684.073	27.11
684.259	27.09
684.446	27.07
684.632	26.8
684.819	26.6
685.005	26.69
685.192	26.52
685.378	26.51
685.565	26.75
685.751	26.68
685.938	26.26
686.124	26.26
686.31	26.17
686.497	26.24
686.683	26.5
686.87	26.52
687.056	26.25
687.242	26.43
687.429	26.42
687.615	26.44
687.801	26.91
687.987	27.31
688.174	27.38
688.36	27.73
688.546	27.74
688.732	27.57
688.918	27.59
689.105	27.79
689.291	27.82
689.477	27.97
689.663	28.1
689.849	27.71
690.035	27.45
690.221	27.46
690.407	27.61
690.593	27.47
690.779	27.34
690.965	27.55
691.151	27.53
691.337	27.7
691.523	27.61
691.709	27.12
691.895	27.11
692.081	27.05
692.267	26.84
692.453	26.86
692.639	26.72
692.825	26.94
693.011	26.79
693.196	27.14
693.382	27.1
693.568	26.88
693.754	27.25
693.94	27.42
694.125	27.7
694.311	27.72
694.497	27.46
694.682	27.53
694.868	27.34
695.054	27.48
695.239	27.48
695.425	27.31
695.611	27.47
695.796	27.32
695.982	27.33
696.168	27.4
696.353	27.46
696.539	27.55
696.724	27.6
696.91	27.62
697.095	27.66
697.281	27.52
697.466	27.51
697.652	27.49
697.837	27.66
698.023	27.63
698.208	27.47
698.393	27.32
698.579	27.24
698.764	27.2
698.949	27.22
699.135	27.21
699.32	27.28
699.505	27.11
699.691	27.01
699.876	26.77
700.061	26.79
700.246	26.92
700.432	27.08
700.617	27.05
700.802	27.13
700.987	27.05
701.172	26.5
701.358	26.6
701.543	27.03
701.728	27.19
701.913	27.15
702.098	27.4
702.283	27.31
702.468	27.56
702.653	27.72
702.838	27.86
703.023	27.93
703.208	28.48
703.393	28.43
703.578	28.35
703.763	28.03
703.948	28.4
704.133	27.91
704.318	28.05
704.503	27.66
704.688	27.72
704.873	27.59
705.057	27.32
705.242	27.38
705.427	27.31
705.612	27.34
705.797	27.3
705.981	27.11
706.166	27.15
706.351	27.02
706.536	26.85
706.72	26.6
706.905	26.66
707.09	27.17
707.274	26.99
707.459	26.93
707.644	26.89
707.828	27.19
708.013	27.01
708.197	27.24
708.382	27.09
708.567	27.31
708.751	27.49
708.936	27.67
709.12	27.5
709.305	27.44
709.489	27.38
709.673	27.28
709.858	27.15
710.042	27.31
710.227	27.24
710.411	27.3
710.596	27.43
710.78	27.36
710.964	27.19
711.149	27.27
711.333	27.51
711.517	27.57
711.702	27.66
711.886	27.63
712.07	27.72
712.254	27.53
712.438	27.69
712.623	27.55
712.807	27.28
712.991	27
713.175	26.84
713.359	26.46
713.544	26.13
713.728	26.03
713.912	25.94
714.096	25.77
714.28	25.87
714.464	25.78
714.648	25.45
714.832	25.7
715.016	25.81
715.2	25.73
715.384	25.98
715.568	26.09
715.752	26.1
715.936	26.32
716.12	26.32
716.304	26.57
716.488	26.69
716.671	27.07
716.855	26.53
717.039	26.88
717.223	27.25
717.407	27.37
717.59	27.53
717.774	27.58
717.958	27.06
718.142	27.2
718.325	26.79
718.509	26.7
718.693	26.87
718.877	27.39
719.06	27.32
719.244	27.04
719.428	26.84
719.611	27.09
719.795	27.73
719.978	27.84
720.162	27.65
720.345	28.02
720.529	27.99
720.713	27.93
720.896	27.84
721.08	27.39
721.263	27.7
721.446	27.71
721.63	27.21
721.813	26.78
721.997	26.87
722.18	27.04
722.364	27.22
722.547	27.12
722.73	26.93
722.914	27.41
723.097	27.91
723.28	27.65
723.464	27.63
723.647	27.81
723.83	27.58
724.013	28.32
724.197	28.53
724.38	28.44
724.563	28.6
724.746	28.96
724.929	28.68
725.112	29.31
725.296	29.3
725.479	29.44
725.662	29.24
725.845	29.34
726.028	28.7
726.211	28.67
726.394	28.58
726.577	28.62
726.76	28.34
726.943	28.52
727.126	27.84
727.309	27.7
727.492	27.29
727.675	27.79
727.858	27.74
728.041	27.9
728.224	27.76
728.407	27.44
728.589	27
728.772	26.96
728.955	26.55
729.138	26.8
729.321	27.07
729.503	27.54
729.686	27.63
729.869	28.01
730.052	28.37
730.234	28.09
730.417	27.86
730.6	28.32
730.782	28.55
730.965	28.89
731.148	28.54
731.33	28.18
731.513	28.28
731.695	27.93
731.878	27.3
732.061	26.89
732.243	26.76
732.426	27.32
732.608	27.37
732.791	26.87
732.973	26.7
733.156	26.68
733.338	26.69
733.52	26.3
733.703	26.08
733.885	26.24
734.068	26.39
734.25	26.68
734.432	26.41
734.615	26.68
734.797	26.8
734.979	26.86
735.162	27.03
735.344	27.32
735.526	27.5
735.708	27.62
735.891	28.02
736.073	28.52
736.255	28.62
736.437	28.75
736.619	28.38
736.802	28.58
736.984	28.57
737.166	28.63
737.348	28.36
737.53	28.19
737.712	28.38
737.894	28.25
738.076	27.66
738.258	27.09
738.44	27.13
738.622	27.09
738.804	27.52
738.986	27.66
739.168	26.89
739.35	27.57
739.532	27.42
739.714	27.52
739.896	27.41
740.078	27.38
740.259	28.2
740.441	27.83
740.623	27.5
740.805	27.24
740.987	26.87
741.168	27.72
741.35	27.37
741.532	27.82
741.714	27.53
741.895	28.19
742.077	28.47
742.259	28.15
742.44	29.05
742.622	29.32
742.804	29.27
742.985	29.8
743.167	29.53
743.348	30.13
743.53	29.98
743.711	29.99
743.893	29.12
744.075	29.01
744.256	29.29
744.438	28.41
744.619	28.52
744.8	28.39
744.982	28.04
745.163	28
745.345	27.11
745.526	27.13
745.707	27.68
745.889	28.67
746.07	28.67
746.252	28.59
746.433	29.07
746.614	28.4
746.795	28.35
746.977	29.04
747.158	28.95
747.339	29.61
747.52	29.72
747.702	29.7
747.883	29.08
748.064	29
748.245	29.02
748.426	28.83
748.607	29.35
748.788	29.45
748.97	28.23
749.151	27.93
749.332	27.39
749.513	27.83
749.694	27
749.875	27.17
750.056	27.61
750.237	27.67
750.418	27.53
750.599	27.56
750.78	27.46
750.96	28.03
751.141	28.5
751.322	28.39
751.503	27.73
751.684	28.79
751.865	28.69
752.046	28.32
752.226	28.3
752.407	28.1
752.588	28.15
752.769	28.36
752.949	28.81
753.13	28.49
753.311	28.62
753.492	28.93
753.672	27.93
753.853	27.88
754.034	28.12
754.214	27.49
754.395	28.06
754.575	28.03
754.756	27.5
754.937	26.95
755.117	27.82
755.298	28.44
755.478	28.44
755.659	28.78
755.839	28
756.02	27.69
756.2	27.86
756.381	27.24
756.561	27.14
756.741	27.72
756.922	27.83
757.102	27.21
757.283	27.07
757.463	27.41
757.643	26.99
757.823	27.68
758.004	27.69
758.184	27.63
758.364	27.76
758.545	27.77
758.725	27.48
758.905	27.83
759.085	27.38
759.265	26.97
759.446	26.68
759.626	27.02
759.806	26.98
759.986	27.17
760.166	27.55
760.346	27.47
760.526	27.5
760.706	27.66
760.886	27.53
761.066	28.27
761.246	28.17
761.426	27.98
761.606	27.89
761.786	27.88
761.966	27.62
762.146	27.6
762.326	27.48
762.506	27.51
762.686	27.38
762.866	27.24
763.046	27.06
763.225	27.24
763.405	27.17
763.585	27.41
763.765	27.33
763.945	27.34
764.124	27.39
764.304	27.71
764.484	27.59
764.664	27.2
764.843	27.09
765.023	26.94
765.203	26.56
765.382	26.57
765.562	26.26
765.741	26.18
765.921	26.21
766.101	25.95
766.28	25.76
766.46	25.63
766.639	25.91
766.819	26.14
766.998	26.35
767.178	26.97
767.357	27.08
767.537	27.44
767.716	28.06
767.896	28.35
768.075	28.77
768.254	29.07
768.434	28.88
768.613	28.95
768.792	28.72
768.972	28.83
769.151	28.74
769.33	29.09
769.51	29.12
769.689	28.69
769.868	28.54
770.047	28.67
770.226	28.9
770.406	29.67
770.585	29.95
770.764	30.39
770.943	29.98
771.122	29.55
771.301	29.15
771.48	28.67
771.66	28.32
771.839	27.63
772.018	27.42
772.197	27.01
772.376	27.23
772.555	27.4
772.734	26.73
772.913	26.89
773.092	27.19
773.271	27.35
773.449	27.69
773.628	27.92
773.807	28.64
773.986	27.94
774.165	28.64
774.344	28.42
774.523	27.99
774.701	28.22
774.88	29.25
775.059	29.38
775.238	29.86
775.417	30.22
775.595	30.66
775.774	30.4
775.953	30.91
776.131	30.52
776.31	30.44
776.489	31.27
776.667	30.86
776.846	30.33
777.025	29.91
777.203	29.22
777.382	28.68
777.56	28.02
777.739	27.75
777.917	27.83
778.096	27.63
778.274	27.07
778.453	26.75
778.631	28.05
778.81	28.27
778.988	27.87
779.166	27.9
779.345	28.04
779.523	27.96
779.702	28.39
779.88	28.36
780.058	28.59
780.237	28.89
780.415	28.88
780.593	28.37
780.771	27.83
780.95	28.7
781.128	29.29
781.306	28.82
781.484	28.82
781.662	29.19
781.841	28.69
782.019	27.47
782.197	27.91
782.375	27.61
782.553	27.36
782.731	27.21
782.909	27.46
783.087	28.03
783.265	28.99
783.443	29.24
783.621	29.32
783.799	29.55
783.977	30.35
784.155	29.97
784.333	30.51
784.511	30.52
784.689	30.32
784.867	29.84
785.045	28.69
785.223	27.4
785.4	27.76
785.578	27.25
785.756	27.54
785.934	27.28
786.112	27.26
786.289	26.99
786.467	26.69
786.645	27.26
786.823	27.5
787	27.71
787.178	27.91
787.356	28.71
787.533	28.69
787.711	27.92
787.889	27.77
788.066	27.34
788.244	27.24
788.421	27.94
788.599	27.8
788.776	27.37
788.954	26.59
789.131	27.35
789.309	26.36
789.486	25.99
789.664	26.9
789.841	27.87
790.019	28.49
790.196	28.63
790.373	28.85
790.551	29.11
790.728	29.09
790.906	29.94
791.083	28.98
791.26	29.29
791.437	30.49
791.615	29.88
791.792	30.58
791.969	30.75
792.146	30.73
792.324	29.85
792.501	30.74
792.678	30.68
792.855	30.52
793.032	31.03
793.209	30.45
793.387	29.07
793.564	29.22
793.741	27.96
793.918	28.28
794.095	29.25
794.272	29.73
794.449	29.69
794.626	29.24
794.803	29.5
794.98	30.13
795.157	29.4
795.334	30.35
795.511	31.33
795.688	31.46
795.864	31.58
796.041	30.64
796.218	30.8
796.395	29.16
796.572	29.96
796.749	29.83
796.925	30.3
797.102	31.32
797.279	31.02
797.456	30.65
797.632	31.02
797.809	30.29
797.986	30.53
798.162	30.29
798.339	30.64
798.516	31.03
798.692	30.7
798.869	29.37
799.046	30.04
799.222	29.69
799.399	29.65
799.575	29.44
799.752	29.96
799.928	29.14
800.105	29.33
800.281	29.18
800.458	29.08
800.634	30
800.811	30.31
800.987	29.93
801.163	30.99
801.34	30.68
801.516	30.37
801.692	30.3
801.869	29.93
802.045	29.95
802.221	30.57
802.398	30.5
802.574	30
802.75	30.04
802.926	30.19
803.103	29.04
803.279	29.69
803.455	30.27
803.631	30.5
803.807	30.57
803.983	30.16
804.16	30.37
804.336	30.59
804.512	30.33
804.688	30.52
804.864	30.2
805.04	31.2
805.216	31.59
805.392	30.55
805.568	30.9
805.744	31.63
805.92	31.74
806.096	31.17
806.272	29.68
806.448	29.89
806.623	30.03
806.799	29.98
806.975	29.67
807.151	29.08
807.327	29.18
807.503	28.68
807.678	28.67
807.854	28.54
808.03	28.54
808.206	29.7
808.381	29.11
808.557	29.47
808.733	29.02
808.908	28.62
809.084	28.16
809.26	29.34
809.435	28.68
809.611	28.79
809.787	27.86
809.962	27.19
810.138	26.2
810.313	27.19
810.489	26.76
810.664	26.47
810.84	27.11
811.015	27.86
811.191	26.74
811.366	27.62
811.542	28.07
811.717	29.22
811.892	30.34
812.068	31.13
812.243	31.12
812.419	30.17
812.594	29.84
812.769	29.48
812.944	28.93
813.12	28.83
813.295	28.28
813.47	27.01
813.645	26.4
813.821	25.95
813.996	26.6
814.171	26.74
814.346	27.96
814.521	29.2
814.697	29.3
814.872	28.85
815.047	29.65
815.222	30.07
815.397	29.84
815.572	31.87
815.747	32.16
815.922	31.12
816.097	30.74
816.272	29.39
816.447	29.66
816.622	29.92
816.797	29.86
816.972	28.88
817.147	28.46
817.322	30.03
817.496	29.2
817.671	29.2
817.846	30.23
818.021	30.03
818.196	30.83
818.371	31.03
818.545	30.98
818.72	30.42
818.895	30.4
819.069	30.22
819.244	30.25
819.419	29.06
819.594	28.43
819.768	27.48
819.943	27.17
820.117	26.66
820.292	26.38
820.467	26.3
820.641	26.37
820.816	26.63
820.99	26.57
821.165	26.04
821.339	25.88
821.514	26.13
821.688	26.38
821.863	26.42
822.037	26.55
822.212	26.47
822.386	26.29
822.56	26.32
822.735	26.4
822.909	26.15
823.084	26.17
823.258	26.34
823.432	26.14
823.606	26.02
823.781	26.14
823.955	26.04
824.129	26.08
824.303	26.35
824.478	26.31
824.652	25.83
824.826	25.86
825	26.34
825.174	26.56
825.348	26.58
825.523	26.27
825.697	25.75
825.871	25.57
826.045	25.4
826.219	25.5
826.393	25.49
826.567	26.32
826.741	27.06
826.915	26.62
827.089	27.05
827.263	27.08
827.437	27.35
827.611	27.48
827.784	27.74
827.958	27.9
828.132	27.32
828.306	27.57
828.48	27.55
828.654	27.49
828.827	27.75
829.001	26.82
829.175	27.57
829.349	27.9
829.522	27.72
829.696	28.44
829.87	28.95
830.044	29.83
830.217	30.09
830.391	29.02
830.565	28.18
830.738	28.55
830.912	29.2
831.085	28.37
831.259	28.45
831.432	29.04
831.606	29.45
831.779	28.3
831.953	27.28
832.126	26.47
832.3	26.01
832.473	25.76
832.647	25.08
832.82	25.5
832.994	25.38
833.167	25.48
833.34	25.69
833.514	24.75
833.687	25.09
833.86	25.91
834.034	26.79
834.207	27.3
834.38	28.89
834.553	29.14
834.727	29.24
834.9	29.27
835.073	29.43
835.246	30.02
835.419	29.97
835.593	29.71
835.766	29.93
835.939	30.12
836.112	29.79
836.285	28.51
836.458	29.3
836.631	29.23
836.804	30.21
836.977	29.81
837.15	28.42
837.323	28.96
837.496	30.23
837.669	29.42
837.842	28.8
838.015	28.55
838.188	27.53
838.361	27.2
838.533	26.19
838.706	26.01
838.879	26.29
839.052	27.58
839.225	27.38
839.398	28.09
839.57	28.11
839.743	28.75
839.916	29.96
840.088	30.05
840.261	29.47
840.434	29.64
840.607	29.03
840.779	29.02
840.952	29.85
841.124	30.46
841.297	30.64
841.47	31.17
841.642	31.93
841.815	30.36
841.987	32.41
842.16	32.51
842.332	33.46
842.505	34.87
842.677	33.02
842.85	32.59
843.022	33.11
843.194	30.66
843.367	31.33
843.539	29.39
843.712	33.03
843.884	34.13
844.056	35.89
844.229	34.72
844.401	34.28
844.573	38.93
844.745	35.25
844.918	34.77
845.09	37.35
845.262	36.59
845.434	34.08
845.606	30.33
845.779	27.6
845.951	25.7
846.123	26.95
846.295	26.18
846.467	23.87
846.639	27.62
846.811	28.82
846.983	25.72
847.155	25.1
847.327	29.93
847.499	36.87
847.671	38.09
847.843	38.56
848.015	40.97
848.187	41.58
848.359	40.3
848.531	41.15
848.703	39.14
848.875	42.17
849.047	41.47
849.218	40.31
849.39	36.11
849.562	34.44
849.734	37.77
849.905	32.36
850.077	31.01
850.249	32.12
850.421	30.78
850.592	32.67
850.764	32.8
850.936	37.85
851.107	34.56
851.279	35.72
851.451	33.85
851.622	33.48
851.794	36.44
851.965	35.45
852.137	38.97
852.308	38.41
852.48	38.85
852.651	38.27
852.823	35.61
852.994	36.56
853.166	33.85
853.337	32.88
853.509	32.64
853.68	32.61
853.851	35.14
854.023	31.82
854.194	32.42
854.365	32.71
854.537	33.63
854.708	33.09
854.879	35.17
855.05	36.21
855.222	42.24
855.393	41.94
855.564	40.07
855.735	38.91
855.906	40.59
856.078	39.96
856.249	39.61
856.42	35.91
856.591	36.54
856.762	34.21
856.933	36.74
857.104	36.64
857.275	35.77
857.446	36.63
857.617	37.42
857.788	35.06
857.959	38.23
858.13	35.82
858.301	38.54
858.472	36.9
858.643	39.53
858.814	38.61
858.985	37.72
859.155	35.59
859.326	38.83
859.497	43.02
859.668	47.38
859.839	46.05
860.009	49.33
860.18	48.44
860.351	50.2
860.522	49.05
860.692	47.77
860.863	47.19
861.034	50.45
861.204	48.81
861.375	44.2
861.546	37.2
861.716	39.54
861.887	42.73
862.057	40.93
862.228	42.25
862.398	39.27
862.569	40.4
862.739	37.04
862.91	36.16
863.08	37.03
863.251	37.3
863.421	41.88
863.592	39.58
863.762	33.82
863.932	36.34
864.103	37.98
864.273	33.3
864.443	32.27
864.614	33.87
864.784	34.63
864.954	35.79
865.125	37.68
865.295	36
865.465	36.18
865.635	36.69
865.805	36.3
865.976	31.41
866.146	36.78
866.316	36.22
866.486	36.11
866.656	34.06
866.826	31.6
866.996	26.96
867.166	26.49
867.336	26.04
867.506	26.77
867.676	29.78
867.846	30.89
868.016	30.57
868.186	32.65
868.356	34.67
868.526	35.57
868.696	39.91
868.866	44.16
869.036	44.9
869.206	45.98
869.376	41.29
869.545	33.79
869.715	32.14
869.885	29.78
870.055	29.22
870.224	29.8
870.394	28.17
870.564	27.81
870.734	28.76
870.903	27.37
871.073	29.34
871.243	29.6
871.412	32.93
871.582	37.1
871.751	42.47
871.921	44.92
872.091	42.39
872.26	42.32
872.43	39.1
872.599	39.87
872.769	41.4
872.938	36.28
873.108	40.43
873.277	40.41
873.446	34.57
873.616	30.49
873.785	30.06
873.955	31.45
874.124	33.43
874.293	31.72
874.463	26.49
874.632	27.97
874.801	32.25
874.971	32.32
875.14	32.03
875.309	33.74
875.478	35.45
875.647	34.95
875.817	30.73
875.986	27.09
876.155	27.05
876.324	30.79
876.493	28.9
876.662	25.9
876.831	23.52
877	24.4
877.17	27.1
877.339	32.53
877.508	34.35
877.677	37.62
877.846	39.79
878.015	43.05
878.184	42.02
878.352	41.13
878.521	41.39
878.69	40.56
878.859	41
879.028	40.26
879.197	37.25
879.366	33.99
879.534	32.59
879.703	32.71
879.872	31.02
880.041	31.71
880.21	31.12
880.378	31.59
880.547	30.84
880.716	29.4
880.884	28.26
881.053	26.56
881.222	26.75
881.39	27.07
881.559	26.23
881.727	25.97
881.896	25.23
882.065	24.75
882.233	24.79
882.402	25.1
882.57	24.86
882.739	24.79
882.907	25.19
883.076	25.1
883.244	25.39
883.412	24.81
883.581	24.88
883.749	25.03
883.918	24.86
884.086	25.82
884.254	25.2
884.423	25.25
884.591	25.35
884.759	24.74
884.927	24.09
885.096	23.58
885.264	24.79
885.432	26.44
885.6	27.51
885.769	28.24
885.937	25.26
886.105	25.68
886.273	26.86
886.441	27.54
886.609	27.56
886.777	27.51
886.945	28.26
887.113	30.6
887.281	29.76
887.449	30.25
887.617	33.18
887.785	32.51
887.953	33.4
888.121	34.43
888.289	37.17
888.457	40.18
888.625	40.57
888.793	38.67
888.961	37.79
889.129	37.77
889.296	36.93
889.464	36.41
889.632	39.17
889.8	41.21
889.967	40.65
890.135	37.49
