Data from 2938441_Reflection_1.txt Node
Date: Fri Jun 19 18:21:38 EDT 2015
User: robert
Spectrometer: USB4E03002
Autoset integration time: false
Trigger mode: 4
Integration Time (sec): 1.000000E-1
Scans to average: 10
Electric dark correction enabled: true
Nonlinearity correction enabled: false
Boxcar width: 5
Stray light correction enabled: false
XAxis mode: Wavelengths
Stop averaging: false
Number of Pixels in Spectrum: 3648
>>>>>Begin Spectral Data<<<<<
177.575	30.64
177.794	24.29
178.014	2.89
178.233	-12.72
178.452	12.62
178.672	23.87
178.891	-55.93
179.11	60.4
179.33	76.73
179.549	70.36
179.768	65.32
179.987	67.12
180.207	80.06
180.426	53.12
180.645	47.94
180.864	52.06
181.084	66.49
181.303	78.44
181.522	86.03
181.741	68.26
181.96	61.29
182.179	52.31
182.398	42.9
182.618	41.7
182.837	42.04
183.056	52.5
183.275	45.82
183.494	34.86
183.713	22.36
183.932	8.36
184.151	-7.16
184.37	0.79
184.589	12.32
184.808	9.36
185.027	3.11
185.246	8.97
185.465	-8.6
185.684	-2.67
185.903	2.03
186.122	-0.24
186.341	3.81
186.56	31.87
186.779	29.54
186.998	34.96
187.216	39.19
187.435	40.38
187.654	47.55
187.873	49.41
188.092	51.55
188.311	60.92
188.53	68.53
188.748	70.69
188.967	63.72
189.186	70.63
189.405	61.19
189.623	67.17
189.842	62.09
190.061	61.93
190.28	61.34
190.498	62.28
190.717	45.03
190.936	53.37
191.154	64.09
191.373	60.32
191.592	53.37
191.81	68.37
192.029	78.14
192.248	74.52
192.466	58.95
192.685	40.82
192.904	13.64
193.122	5.96
193.341	4.94
193.559	3.25
193.778	-9.91
193.996	14.66
194.215	-4.46
194.433	-15.44
194.652	44.48
194.87	61.43
195.089	50.47
195.307	49.17
195.526	46.05
195.744	34.56
195.963	33.98
196.181	30.37
196.399	21.4
196.618	29.2
196.836	32.8
197.055	21.41
197.273	30.64
197.491	53.04
197.71	60.35
197.928	70.12
198.146	51.05
198.365	54.96
198.583	68.24
198.801	65.73
199.019	63.29
199.238	65.58
199.456	75.66
199.674	53.79
199.892	50.2
200.111	50.22
200.329	58.05
200.547	81.85
200.765	67.63
200.983	61.34
201.202	91.62
201.42	77.84
201.638	69.98
201.856	54.56
202.074	46.23
202.292	37.21
202.51	34.19
202.728	7.33
202.946	13.57
203.165	-8.66
203.383	0.8
203.601	-12.79
203.819	1.2
204.037	-8.06
204.255	-8.01
204.473	10.06
204.691	5
204.909	18.13
205.127	34.03
205.345	25.57
205.562	37.39
205.78	44.31
205.998	49.42
206.216	53.15
206.434	59.5
206.652	49.78
206.87	50.8
207.088	52.12
207.306	55.3
207.523	53.64
207.741	54.57
207.959	62.31
208.177	60.16
208.395	51.01
208.612	39.59
208.83	30.25
209.048	41.95
209.266	40.15
209.483	43.29
209.701	36.35
209.919	34.45
210.136	28.38
210.354	16.87
210.572	14.25
210.79	10.56
211.007	-0.32
211.225	-1.32
211.442	-6.25
211.66	4.63
211.878	-6.04
212.095	-12.88
212.313	-8.5
212.53	-5.23
212.748	4.19
212.966	-4.37
213.183	3.31
213.401	17.67
213.618	30.91
213.836	39.05
214.053	18.13
214.271	60.9
214.488	60.84
214.705	40.56
214.923	52.41
215.14	46.79
215.358	39.23
215.575	37.6
215.793	40.2
216.01	33.13
216.227	34.75
216.445	39.99
216.662	32.25
216.879	32.06
217.097	36.55
217.314	33.18
217.531	35.05
217.749	32.4
217.966	36.33
218.183	25.98
218.4	28.24
218.618	25.76
218.835	21.47
219.052	14.91
219.269	16.32
219.487	14.35
219.704	14.68
219.921	9.77
220.138	19.74
220.355	21.75
220.572	21.47
220.79	21.26
221.007	19.94
221.224	21.95
221.441	30.66
221.658	34.74
221.875	30.57
222.092	25.23
222.309	26.5
222.526	27.24
222.743	25.02
222.96	27.98
223.177	22.14
223.394	20.88
223.611	16.92
223.828	9.86
224.045	8.35
224.262	12.86
224.479	15.73
224.696	22.4
224.913	15.92
225.13	14.7
225.347	16.07
225.564	18.03
225.781	21.64
225.997	22.94
226.214	22.36
226.431	21.88
226.648	23.3
226.865	24.1
227.082	22.08
227.298	22.3
227.515	23.2
227.732	22.71
227.949	23.84
228.165	23.59
228.382	24.41
228.599	24.96
228.816	24.86
229.032	23.11
229.249	23.27
229.466	23.59
229.682	23.65
229.899	24.18
230.116	22.89
230.332	21.77
230.549	21.61
230.765	22.08
230.982	21.18
231.199	18.84
231.415	17.46
231.632	17.95
231.848	16.21
232.065	18.04
232.281	14.99
232.498	14.33
232.714	16.76
232.931	18.31
233.147	17.05
233.364	16.16
233.58	17.49
233.797	20.45
234.013	17.87
234.23	17.4
234.446	18.78
234.662	19.88
234.879	23.69
235.095	22.94
235.312	20.77
235.528	20.39
235.744	21.22
235.961	21.61
236.177	20.65
236.393	22.93
236.61	26.47
236.826	25.84
237.042	22.01
237.258	23.05
237.475	19.02
237.691	18.82
237.907	18.85
238.123	20.28
238.339	21.56
238.556	24.13
238.772	23.29
238.988	22.18
239.204	21.01
239.42	22.42
239.636	21.03
239.853	22.08
240.069	22.23
240.285	22.33
240.501	20.87
240.717	19.72
240.933	18.18
241.149	17.84
241.365	18.01
241.581	18.14
241.797	18.27
242.013	19.11
242.229	19.72
242.445	19.46
242.661	19.84
242.877	20.59
243.093	21.06
243.309	21.08
243.525	21.25
243.741	20.51
243.957	20.42
244.173	19.13
244.388	17.91
244.604	16.91
244.82	16.08
245.036	15.69
245.252	15.95
245.468	16.23
245.683	15.67
245.899	15.67
246.115	15.4
246.331	15.04
246.547	15.29
246.762	15.27
246.978	14.97
247.194	15.85
247.409	15.87
247.625	15.51
247.841	14.54
248.057	14.89
248.272	14.88
248.488	15.63
248.703	16.19
248.919	16.73
249.135	16.03
249.35	17.2
249.566	16.26
249.782	16.39
249.997	16.07
250.213	16.26
250.428	15.78
250.644	15.24
250.859	14.66
251.075	13.93
251.29	13.4
251.506	13.44
251.721	13.36
251.937	12.84
252.152	11.98
252.368	11.1
252.583	11.97
252.798	11.37
253.014	10.62
253.229	10.09
253.445	10.26
253.66	9.97
253.875	10.1
254.091	8.66
254.306	10.57
254.521	10.99
254.737	11.68
254.952	10.48
255.167	10.83
255.383	12.34
255.598	12.06
255.813	12.53
256.028	13.5
256.244	12.76
256.459	13.52
256.674	12.85
256.889	12.85
257.104	13.25
257.32	13.11
257.535	13.23
257.75	12.53
257.965	12.87
258.18	12.89
258.395	12.38
258.61	12.28
258.826	11.78
259.041	11.15
259.256	11.2
259.471	11.57
259.686	11.91
259.901	11.72
260.116	12.04
260.331	11.4
260.546	11.1
260.761	11.66
260.976	12.79
261.191	13.74
261.406	14.95
261.621	14.2
261.836	12.8
262.05	11.76
262.265	12.76
262.48	12.98
262.695	14.2
262.91	14.41
263.125	13.31
263.34	11.54
263.555	10.91
263.769	10.39
263.984	11.68
264.199	12.37
264.414	12.2
264.629	11.85
264.843	12
265.058	11.56
265.273	10.59
265.488	10.81
265.702	11.12
265.917	10.3
266.132	11.29
266.346	10.57
266.561	10.43
266.776	10.67
266.99	11.06
267.205	10.57
267.42	10.95
267.634	11.51
267.849	11.35
268.063	11.5
268.278	11.99
268.492	11.16
268.707	11.5
268.922	11.79
269.136	12.1
269.351	11.38
269.565	11.16
269.78	10.33
269.994	10.84
270.209	11.03
270.423	11.34
270.637	11.73
270.852	12.15
271.066	12.51
271.281	12.69
271.495	13.07
271.709	12.96
271.924	13.2
272.138	13.72
272.353	13.39
272.567	13.96
272.781	14.36
272.996	14.44
273.21	14.52
273.424	13.81
273.638	13.26
273.853	13.32
274.067	14.47
274.281	14.44
274.495	14.62
274.71	14.11
274.924	13.34
275.138	12.46
275.352	12.75
275.566	12.71
275.781	13.19
275.995	14
276.209	13.63
276.423	13.6
276.637	14.01
276.851	13.83
277.065	14.66
277.279	15.57
277.493	15.66
277.707	15.73
277.921	15.89
278.135	15.68
278.349	14.72
278.563	15.03
278.777	15.18
278.991	14.9
279.205	14.54
279.419	14.56
279.633	13.95
279.847	13.96
280.061	14.21
280.275	13.97
280.489	14.44
280.703	15.42
280.917	14.68
281.131	14.12
281.344	13.85
281.558	14.3
281.772	14.15
281.986	14.72
282.2	15.17
282.414	14.27
282.627	13.42
282.841	12.9
283.055	11.83
283.269	11.98
283.482	11.93
283.696	12.52
283.91	12.31
284.123	12.03
284.337	11.86
284.551	11.31
284.764	11.4
284.978	12.01
285.192	12.28
285.405	12.5
285.619	12.49
285.833	12.47
286.046	11.8
286.26	11.84
286.473	12.4
286.687	11.86
286.9	12.06
287.114	12.39
287.327	12.61
287.541	12.45
287.754	12.81
287.968	12.56
288.181	12.91
288.395	13.53
288.608	13.68
288.822	13.83
289.035	14.48
289.248	14.82
289.462	14.97
289.675	14.88
289.889	15.41
290.102	15.66
290.315	16.39
290.529	16.07
290.742	15.52
290.955	15.49
291.169	15.16
291.382	14.53
291.595	15.29
291.808	15.26
292.022	15.47
292.235	15.43
292.448	15.43
292.661	15.06
292.875	15.11
293.088	15.91
293.301	16.48
293.514	15.93
293.727	16.18
293.94	15.31
294.153	15.41
294.367	15.57
294.58	14.9
294.793	14.58
295.006	14.72
295.219	14.74
295.432	14.09
295.645	13.64
295.858	14.15
296.071	13.97
296.284	14.62
296.497	14.39
296.71	13.93
296.923	14.3
297.136	14.32
297.349	14.63
297.562	14.02
297.775	14.05
297.988	13.68
298.201	13.46
298.414	13.38
298.626	12.55
298.839	12.21
299.052	12.47
299.265	12.1
299.478	11.47
299.691	11.58
299.903	11.73
300.116	12.25
300.329	12.92
300.542	13.44
300.755	14.04
300.967	13.82
301.18	13.89
301.393	14.07
301.605	14.28
301.818	14.18
302.031	13.09
302.243	13.53
302.456	14.03
302.669	14.34
302.881	14.16
303.094	14.2
303.307	14.63
303.519	13.94
303.732	13.08
303.944	13.64
304.157	14.47
304.37	14.84
304.582	15.23
304.795	14.04
305.007	14.23
305.22	13.63
305.432	12.63
305.645	12.82
305.857	13.9
306.069	14.7
306.282	14.29
306.494	14.18
306.707	14.58
306.919	14.38
307.132	15.3
307.344	15.15
307.556	15.78
307.769	17.03
307.981	16.8
308.193	16.78
308.406	17.4
308.618	17.48
308.83	17.26
309.043	17.35
309.255	17.91
309.467	17.4
309.679	17.33
309.892	16.62
310.104	16.32
310.316	16.62
310.528	16.35
310.74	15.72
310.953	15.5
311.165	15.68
311.377	15.99
311.589	15.73
311.801	15.51
312.013	14.98
312.225	15.21
312.437	14.86
312.649	13.92
312.862	15.02
313.074	15.13
313.286	15.78
313.498	16.2
313.71	14.98
313.922	14.42
314.134	14.54
314.346	14.85
314.558	15.62
314.77	15.67
314.982	16.6
315.193	16.1
315.405	15.47
315.617	14.1
315.829	13.75
316.041	14.36
316.253	14.75
316.465	15.62
316.677	16.08
316.888	16.01
317.1	16.28
317.312	16.09
317.524	16.01
317.736	16.28
317.947	17.06
318.159	17.24
318.371	17.83
318.583	17.92
318.794	17.55
319.006	17.44
319.218	17.28
319.43	17.75
319.641	17.74
319.853	17.33
320.064	17.66
320.276	17.82
320.488	17.46
320.699	16.63
320.911	16.89
321.123	17.34
321.334	16.47
321.546	15.98
321.757	15.33
321.969	14.95
322.18	14.74
322.392	14.64
322.603	14.07
322.815	14.99
323.026	15.09
323.238	14.11
323.449	13.8
323.661	13.98
323.872	13.86
324.083	14.08
324.295	14.76
324.506	15.38
324.718	15.1
324.929	16.12
325.14	15.68
325.352	16.12
325.563	16.58
325.774	16.48
325.986	16.21
326.197	16.75
326.408	16.99
326.62	16.52
326.831	16.58
327.042	17.1
327.253	16.64
327.464	15.71
327.676	15.74
327.887	16
328.098	15.76
328.309	16.39
328.52	15.75
328.732	16.22
328.943	16.35
329.154	16.29
329.365	15.53
329.576	15.37
329.787	16.1
329.998	15.52
330.209	14.92
330.42	14.86
330.631	14.75
330.842	15.24
331.053	14.9
331.264	14.72
331.475	14.59
331.686	15.67
331.897	15.53
332.108	15.89
332.319	15.69
332.53	16.18
332.741	16.78
332.952	17.08
333.163	16.07
333.374	15.15
333.585	16.06
333.795	15.66
334.006	14.56
334.217	15.34
334.428	15.39
334.639	16.2
334.849	15.54
335.06	14.31
335.271	13.79
335.482	14.79
335.692	14.83
335.903	14.57
336.114	15.12
336.325	16.28
336.535	15.69
336.746	14.87
336.957	14.79
337.167	15.07
337.378	16.56
337.589	17.01
337.799	17.36
338.01	17.51
338.22	17.21
338.431	16.54
338.642	16.1
338.852	16.18
339.063	16.54
339.273	16.36
339.484	16.59
339.694	16.3
339.905	16.02
340.115	15.66
340.326	15.54
340.536	15.51
340.746	15.97
340.957	15.38
341.167	15.58
341.378	15.63
341.588	15.97
341.799	16.08
342.009	15.39
342.219	15.21
342.43	14.61
342.64	15.01
342.85	14.89
343.061	15.59
343.271	15.39
343.481	15.01
343.691	15.18
343.902	14.62
344.112	13.74
344.322	14.11
344.532	14
344.743	15.33
344.953	15.17
345.163	15.4
345.373	14.63
345.583	14.98
345.793	15.14
346.004	15.14
346.214	15.12
346.424	15.97
346.634	16.06
346.844	16.05
347.054	15.31
347.264	14.8
347.474	14.79
347.684	15.22
347.894	14.62
348.104	15.14
348.314	15.19
348.524	15.62
348.734	15.41
348.944	15.52
349.154	15.34
349.364	15.25
349.574	15.72
349.784	16.04
349.994	15.35
350.204	15.61
350.413	15.6
350.623	15.77
350.833	15.05
351.043	15.1
351.253	14.63
351.463	14.8
351.672	15.09
351.882	14.81
352.092	14.7
352.302	14.89
352.511	14.9
352.721	14.09
352.931	13.53
353.141	13.61
353.35	13.79
353.56	13.79
353.77	14.32
353.979	14.42
354.189	14.5
354.399	13.65
354.608	14.09
354.818	13.86
355.027	14.41
355.237	14.78
355.447	15.24
355.656	15.02
355.866	15.08
356.075	14.6
356.285	14.34
356.494	13.87
356.704	14.03
356.913	13.12
357.123	13.74
357.332	13.38
357.542	12.88
357.751	12.72
357.96	12.99
358.17	12.7
358.379	13.15
358.589	12.56
358.798	12.79
359.007	13.2
359.217	13.77
359.426	13.33
359.635	13.4
359.845	13.65
360.054	13.84
360.263	13.69
360.472	13.85
360.682	13.75
360.891	14.02
361.1	14.27
361.309	13.95
361.519	13.74
361.728	13.84
361.937	13.89
362.146	13.8
362.355	13.18
362.564	13.06
362.774	13.1
362.983	12.64
363.192	12.48
363.401	12.4
363.61	12.04
363.819	12.13
364.028	12.4
364.237	12.44
364.446	12.81
364.655	13.19
364.864	12.47
365.073	12.26
365.282	12.4
365.491	12.52
365.7	12.41
365.909	12.6
366.118	12.82
366.327	12.41
366.536	12.32
366.745	12.07
366.954	12.16
367.162	12.61
367.371	12.56
367.58	12.5
367.789	12.34
367.998	12.28
368.207	12.48
368.415	12.44
368.624	12.47
368.833	12.75
369.042	12.46
369.25	12.27
369.459	12.44
369.668	12.51
369.877	12.43
370.085	12.66
370.294	12.63
370.503	12.3
370.711	12.15
370.92	12.19
371.129	11.75
371.337	12.12
371.546	11.91
371.754	11.99
371.963	12.14
372.171	12.37
372.38	12.24
372.589	12.44
372.797	12.62
373.006	12.19
373.214	12.31
373.423	12.31
373.631	11.68
373.84	11.59
374.048	11.56
374.256	11.29
374.465	10.94
374.673	10.62
374.882	10.74
375.09	10.65
375.298	11.14
375.507	11.23
375.715	10.92
375.923	10.96
376.132	10.82
376.34	10.36
376.548	10.19
376.757	10.44
376.965	10.94
377.173	10.56
377.381	10.58
377.59	10
377.798	9.66
378.006	9.54
378.214	9.5
378.423	9.66
378.631	9.86
378.839	9.93
379.047	9.77
379.255	9.3
379.463	9.31
379.671	9.39
379.879	9.59
380.088	9.46
380.296	9.92
380.504	9.95
380.712	9.81
380.92	9.99
381.128	9.95
381.336	9.84
381.544	9.82
381.752	9.74
381.96	9.59
382.168	9.42
382.376	9.68
382.584	9.22
382.791	9.22
382.999	9.6
383.207	9.63
383.415	9.6
383.623	9.76
383.831	9.86
384.039	9.63
384.247	9.58
384.454	9.43
384.662	9.06
384.87	9.1
385.078	8.89
385.285	8.35
385.493	8.24
385.701	8
385.909	7.81
386.116	7.72
386.324	7.98
386.532	7.8
386.739	7.86
386.947	7.91
387.155	7.94
387.362	8.12
387.57	8.11
387.778	7.82
387.985	7.94
388.193	7.63
388.4	7.56
388.608	7.5
388.816	7.66
389.023	7.76
389.231	7.67
389.438	7.49
389.646	7.39
389.853	7.35
390.061	7.44
390.268	7.32
390.475	7.5
390.683	7.39
390.89	7.11
391.098	7.04
391.305	6.76
391.512	6.65
391.72	6.89
391.927	6.73
392.135	6.8
392.342	6.68
392.549	6.63
392.756	6.51
392.964	6.45
393.171	6.55
393.378	6.48
393.586	6.69
393.793	6.92
394	6.72
394.207	6.79
394.414	6.83
394.622	6.87
394.829	7
395.036	6.95
395.243	6.86
395.45	6.86
395.657	6.76
395.864	6.58
396.072	6.29
396.279	6.35
396.486	6.28
396.693	6.13
396.9	6.05
397.107	5.9
397.314	5.93
397.521	5.92
397.728	5.96
397.935	5.77
398.142	5.77
398.349	5.81
398.556	5.72
398.763	5.86
398.97	5.84
399.177	5.85
399.383	5.8
399.59	5.78
399.797	5.83
400.004	5.61
400.211	5.84
400.418	5.86
400.625	5.71
400.831	5.93
401.038	5.81
401.245	5.85
401.452	5.85
401.658	5.91
401.865	5.92
402.072	6.14
402.279	6.26
402.485	6.25
402.692	6.16
402.899	6.38
403.105	6.21
403.312	6.31
403.519	6.16
403.725	6.05
403.932	6.04
404.138	6.15
404.345	5.99
404.552	5.92
404.758	5.95
404.965	5.94
405.171	5.97
405.378	5.79
405.584	5.89
405.791	5.89
405.997	5.98
406.204	6.06
406.41	5.97
406.617	5.86
406.823	5.84
407.029	5.93
407.236	6.06
407.442	6.21
407.649	6.3
407.855	6.02
408.061	6.11
408.268	6.22
408.474	6.13
408.68	5.91
408.887	6
409.093	6.12
409.299	6.03
409.505	5.97
409.712	5.71
409.918	5.68
410.124	5.7
410.33	5.59
410.537	5.55
410.743	5.7
410.949	5.89
411.155	5.86
411.361	5.76
411.567	5.69
411.773	5.77
411.98	5.7
412.186	5.79
412.392	5.81
412.598	5.87
412.804	5.79
413.01	5.75
413.216	5.86
413.422	5.94
413.628	5.96
413.834	6
414.04	5.85
414.246	6.01
414.452	5.96
414.658	6
414.864	6
415.07	5.92
415.275	5.92
415.481	5.9
415.687	5.85
415.893	5.9
416.099	5.82
416.305	5.9
416.511	5.78
416.716	5.8
416.922	5.68
417.128	5.76
417.334	5.82
417.539	5.76
417.745	5.69
417.951	5.65
418.157	5.59
418.362	5.55
418.568	5.47
418.774	5.52
418.979	5.52
419.185	5.62
419.391	5.57
419.596	5.56
419.802	5.58
420.008	5.59
420.213	4.95
420.419	4.93
420.624	4.94
420.83	4.99
421.035	5.01
421.241	5.02
421.446	4.97
421.652	4.92
421.857	4.9
422.063	4.86
422.268	4.81
422.474	5.5
422.679	5.53
422.885	5.57
423.09	5.57
423.295	5.52
423.501	5.5
423.706	5.45
423.911	5.46
424.117	5.4
424.322	5.42
424.527	5.39
424.733	5.27
424.938	5.29
425.143	5.2
425.349	5.14
425.554	5.2
425.759	5.2
425.964	5.31
426.169	5.31
426.375	5.38
426.58	5.42
426.785	5.49
426.99	5.59
427.195	5.54
427.4	5.69
427.605	5.74
427.811	5.63
428.016	5.65
428.221	5.54
428.426	5.59
428.631	5.6
428.836	5.51
429.041	5.55
429.246	5.47
429.451	5.51
429.656	5.49
429.861	5.55
430.066	5.66
430.271	5.59
430.476	5.73
430.681	5.76
430.886	5.76
431.09	5.8
431.295	5.83
431.5	5.87
431.705	5.95
431.91	5.86
432.115	5.83
432.32	5.75
432.524	5.71
432.729	5.64
432.934	5.55
433.139	5.47
433.343	5.34
433.548	5.28
433.753	5.33
433.958	5.2
434.162	5.38
434.367	5.32
434.572	5.3
434.776	5.34
434.981	5.29
435.186	5.39
435.39	5.52
435.595	5.67
435.799	5.7
436.004	5.66
436.209	5.8
436.413	5.66
436.618	5.65
436.822	5.66
437.027	5.55
437.231	5.5
437.436	5.49
437.64	5.47
437.845	5.35
438.049	5.35
438.253	5.28
438.458	5.24
438.662	5.16
438.867	5.16
439.071	5.12
439.275	5.19
439.48	5.31
439.684	5.26
439.888	5.2
440.093	5.28
440.297	5.27
440.501	5.29
440.706	5.18
440.91	5.27
441.114	5.27
441.318	5.25
441.523	5.23
441.727	5.12
441.931	5.11
442.135	5.12
442.339	5.11
442.543	5.08
442.748	5.11
442.952	5.24
443.156	5.16
443.36	5.21
443.564	5.22
443.768	5.21
443.972	5.3
444.176	5.38
444.38	5.38
444.584	5.42
444.788	5.44
444.992	5.31
445.196	5.3
445.4	5.34
445.604	5.28
445.808	5.29
446.012	5.37
446.216	5.25
446.42	5.14
446.624	5.13
446.828	5.1
447.032	5.12
447.235	5.3
447.439	5.24
447.643	5.23
447.847	5.32
448.051	5.38
448.254	5.28
448.458	5.4
448.662	5.45
448.866	5.51
449.069	5.41
449.273	5.41
449.477	5.31
449.681	5.32
449.884	5.3
450.088	5.25
450.292	5.2
450.495	5.22
450.699	5.26
450.902	5.3
451.106	5.26
451.31	5.37
451.513	5.34
451.717	5.37
451.92	5.3
452.124	5.31
452.327	5.34
452.531	5.45
452.734	5.53
452.938	5.54
453.141	5.47
453.345	5.46
453.548	5.46
453.752	5.4
453.955	5.47
454.158	5.49
454.362	5.54
454.565	5.55
454.769	5.43
454.972	5.36
455.175	5.32
455.379	5.37
455.582	5.35
455.785	5.32
455.988	5.34
456.192	5.26
456.395	5.32
456.598	5.31
456.801	5.26
457.005	5.26
457.208	5.27
457.411	5.23
457.614	5.27
457.817	5.31
458.021	5.3
458.224	5.35
458.427	5.38
458.63	5.34
458.833	5.36
459.036	5.35
459.239	5.4
459.442	5.44
459.645	5.47
459.848	5.4
460.051	5.43
460.254	5.47
460.457	5.52
460.66	5.47
460.863	5.56
461.066	5.51
461.269	5.6
461.472	5.66
461.675	5.56
461.878	5.58
462.081	5.69
462.284	5.72
462.486	5.69
462.689	5.56
462.892	5.57
463.095	5.56
463.298	5.48
463.5	5.38
463.703	5.32
463.906	5.39
464.109	5.27
464.311	5.23
464.514	5.11
464.717	5.14
464.92	5.11
465.122	5.2
465.325	5.23
465.528	5.34
465.73	5.45
465.933	5.36
466.135	5.36
466.338	5.47
466.541	5.48
466.743	5.54
466.946	5.53
467.148	5.48
467.351	5.47
467.553	5.37
467.756	5.42
467.958	5.32
468.161	5.49
468.363	5.48
468.566	5.41
468.768	5.41
468.971	5.43
469.173	5.41
469.375	5.55
469.578	5.51
469.78	5.44
469.983	5.33
470.185	5.37
470.387	5.2
470.59	5.16
470.792	5.2
470.994	5.12
471.196	5.07
471.399	5.03
471.601	5.01
471.803	4.91
472.005	5.04
472.208	5.13
472.41	5.08
472.612	5.03
472.814	4.98
473.016	5.01
473.218	5.06
473.421	5.08
473.623	5.17
473.825	5.23
474.027	5.33
474.229	5.29
474.431	5.32
474.633	5.41
474.835	5.58
475.037	5.66
475.239	5.66
475.441	5.64
475.643	5.62
475.845	5.56
476.047	5.46
476.249	5.46
476.451	5.45
476.653	5.38
476.855	5.31
477.057	5.28
477.258	5.24
477.46	5.29
477.662	5.29
477.864	5.33
478.066	5.24
478.268	5.33
478.469	5.39
478.671	5.43
478.873	5.45
479.075	5.45
479.276	5.39
479.478	5.4
479.68	5.38
479.882	5.35
480.083	5.3
480.285	5.34
480.487	5.28
480.688	5.22
480.89	5.2
481.091	5.16
481.293	5.16
481.495	5.16
481.696	5.1
481.898	5.07
482.099	5.05
482.301	5.03
482.502	5.05
482.704	5.05
482.905	5.07
483.107	5.07
483.308	5.08
483.51	5.08
483.711	5.09
483.913	5.16
484.114	5.18
484.315	5.23
484.517	5.29
484.718	5.25
484.92	5.25
485.121	5.23
485.322	5.23
485.524	5.26
485.725	5.27
485.926	5.31
486.127	5.28
486.329	5.3
486.53	5.28
486.731	5.27
486.932	5.32
487.134	5.33
487.335	5.33
487.536	5.34
487.737	5.29
487.938	5.27
488.139	5.24
488.341	5.27
488.542	5.24
488.743	5.26
488.944	5.27
489.145	5.28
489.346	5.3
489.547	5.29
489.748	5.27
489.949	5.3
490.15	5.33
490.351	5.29
490.552	5.3
490.753	5.32
490.954	5.33
491.155	5.33
491.356	5.31
491.557	5.29
491.758	5.31
491.959	5.36
492.159	5.42
492.36	5.43
492.561	5.47
492.762	5.45
492.963	5.43
493.164	5.44
493.364	5.43
493.565	5.44
493.766	5.45
493.967	5.51
494.167	5.45
494.368	5.43
494.569	5.35
494.769	5.35
494.97	5.35
495.171	5.36
495.371	5.33
495.572	5.38
495.773	5.37
495.973	5.42
496.174	5.37
496.375	5.42
496.575	5.35
496.776	5.37
496.976	5.36
497.177	5.37
497.377	5.42
497.578	5.44
497.778	5.41
497.979	5.38
498.179	5.36
498.38	5.45
498.58	5.45
498.78	5.48
498.981	5.57
499.181	5.59
499.382	5.6
499.582	5.54
499.782	5.47
499.983	5.54
500.183	5.6
500.383	5.61
500.584	5.54
500.784	5.47
500.984	5.54
501.184	5.55
501.385	5.57
501.585	5.59
501.785	5.63
501.985	5.74
502.185	5.68
502.386	5.69
502.586	5.76
502.786	5.82
502.986	5.91
503.186	5.88
503.386	5.82
503.586	5.82
503.786	5.84
503.987	5.91
504.187	5.86
504.387	5.84
504.587	5.92
504.787	5.93
504.987	5.89
505.187	5.93
505.387	6.04
505.587	6.13
505.786	6.12
505.986	6.08
506.186	6.11
506.386	6.16
506.586	6.15
506.786	6.09
506.986	6.05
507.186	6.09
507.386	5.96
507.585	5.87
507.785	5.86
507.985	5.92
508.185	5.96
508.384	5.93
508.584	5.99
508.784	6.13
508.984	6.21
509.183	6.27
509.383	6.27
509.583	6.34
509.782	6.4
509.982	6.39
510.182	6.46
510.381	6.39
510.581	6.42
510.781	6.35
510.98	6.3
511.18	6.21
511.379	6.18
511.579	6.21
511.778	6.25
511.978	6.31
512.177	6.26
512.377	6.19
512.576	6.31
512.776	6.34
512.975	6.36
513.175	6.37
513.374	6.42
513.573	6.49
513.773	6.44
513.972	6.55
514.172	6.49
514.371	6.59
514.57	6.68
514.77	6.62
514.969	6.57
515.168	6.62
515.367	6.64
515.567	6.72
515.766	6.59
515.965	6.64
516.164	6.52
516.364	6.59
516.563	6.57
516.762	6.55
516.961	6.64
517.16	6.65
517.359	6.62
517.559	6.56
517.758	6.57
517.957	6.66
518.156	6.61
518.355	6.7
518.554	6.66
518.753	6.69
518.952	6.69
519.151	6.66
519.35	6.66
519.549	6.67
519.748	6.78
519.947	6.67
520.146	6.66
520.345	6.71
520.544	6.68
520.743	6.69
520.942	6.7
521.141	6.72
521.339	6.68
521.538	6.75
521.737	6.83
521.936	6.83
522.135	6.9
522.333	6.87
522.532	6.93
522.731	6.88
522.93	6.86
523.129	6.89
523.327	6.89
523.526	6.93
523.725	6.94
523.923	6.92
524.122	6.93
524.321	6.94
524.519	7.01
524.718	7.01
524.917	7.08
525.115	7.07
525.314	7.13
525.512	7.09
525.711	7.09
525.909	7.08
526.108	7.09
526.306	7.06
526.505	7.07
526.703	7.07
526.902	7.07
527.1	7.06
527.299	7.12
527.497	7.09
527.696	7.13
527.894	7.15
528.092	7.14
528.291	7.13
528.489	7.18
528.688	7.2
528.886	7.2
529.084	7.22
529.283	7.27
529.481	7.27
529.679	7.28
529.877	7.27
530.076	7.27
530.274	7.31
530.472	7.38
530.67	7.36
530.869	7.37
531.067	7.44
531.265	7.47
531.463	7.48
531.661	7.49
531.859	7.54
532.057	7.59
532.255	7.6
532.454	7.65
532.652	7.67
532.85	7.7
533.048	7.76
533.246	7.77
533.444	7.78
533.642	7.8
533.84	7.77
534.038	7.8
534.236	7.77
534.434	7.85
534.632	7.82
534.83	7.82
535.027	7.84
535.225	7.82
535.423	7.86
535.621	7.87
535.819	7.93
536.017	8.01
536.215	7.97
536.412	8.06
536.61	8.02
536.808	8.07
537.006	8.05
537.203	8.07
537.401	8.09
537.599	8.07
537.797	8.12
537.994	7.99
538.192	7.99
538.39	8.04
538.587	8.07
538.785	8.19
538.983	8.24
539.18	8.33
539.378	8.32
539.575	8.37
539.773	8.4
539.97	8.35
540.168	8.42
540.366	8.49
540.563	8.49
540.761	8.5
540.958	8.49
541.155	8.49
541.353	8.48
541.55	8.57
541.748	8.59
541.945	8.58
542.143	8.66
542.34	8.7
542.537	8.69
542.735	8.76
542.932	8.81
543.129	8.84
543.327	8.89
543.524	8.96
543.721	8.95
543.919	8.95
544.116	8.93
544.313	8.91
544.51	8.91
544.708	8.93
544.905	8.9
545.102	8.94
545.299	8.98
545.496	9.01
545.693	8.99
545.891	8.99
546.088	9
546.285	9.14
546.482	9.3
546.679	9.41
546.876	9.45
547.073	9.58
547.27	9.66
547.467	9.62
547.664	9.67
547.861	9.75
548.058	9.8
548.255	9.92
548.452	9.95
548.649	9.94
548.846	9.92
549.043	10.02
549.24	9.94
549.437	10
549.633	10.08
549.83	10.12
550.027	10.04
550.224	10.11
550.421	10.12
550.618	10.23
550.814	10.2
551.011	10.16
551.208	10.12
551.405	10.29
551.601	10.27
551.798	10.29
551.995	10.32
552.191	10.44
552.388	10.4
552.585	10.4
552.781	10.37
552.978	10.49
553.175	10.61
553.371	10.73
553.568	10.83
553.764	10.82
553.961	10.93
554.157	10.95
554.354	11.04
554.55	11.19
554.747	11.29
554.943	11.39
555.14	11.43
555.336	11.48
555.533	11.45
555.729	11.39
555.926	11.5
556.122	11.47
556.318	11.54
556.515	11.5
556.711	11.54
556.907	11.6
557.104	11.62
557.3	11.69
557.496	11.82
557.693	11.81
557.889	11.84
558.085	11.93
558.281	12.1
558.478	12.12
558.674	12.34
558.87	12.36
559.066	12.41
559.262	12.53
559.459	12.41
559.655	12.51
559.851	12.65
560.047	12.7
560.243	12.66
560.439	12.67
560.635	12.77
560.831	12.63
561.027	12.69
561.223	12.68
561.419	12.6
561.615	12.68
561.811	12.7
562.007	12.7
562.203	12.84
562.399	12.93
562.595	12.95
562.791	13.17
562.987	13.35
563.183	13.4
563.379	13.57
563.575	13.68
563.771	13.79
563.966	13.82
564.162	13.92
564.358	13.95
564.554	14.01
564.75	14.01
564.945	13.9
565.141	13.99
565.337	14.1
565.533	14.1
565.728	14.07
565.924	14.16
566.12	14.16
566.315	14.17
566.511	14.17
566.707	14.19
566.902	14.31
567.098	14.39
567.293	14.39
567.489	14.38
567.684	14.48
567.88	14.59
568.076	14.58
568.271	14.62
568.467	14.63
568.662	14.72
568.858	14.74
569.053	14.78
569.248	14.84
569.444	14.9
569.639	15.03
569.835	15.1
570.03	15.14
570.225	15.17
570.421	15.21
570.616	15.29
570.812	15.26
571.007	15.38
571.202	15.41
571.397	15.43
571.593	15.48
571.788	15.51
571.983	15.54
572.178	15.58
572.374	15.65
572.569	15.74
572.764	15.77
572.959	15.89
573.154	15.88
573.35	15.97
573.545	16.04
573.74	16.04
573.935	16.05
574.13	16.09
574.325	16.02
574.52	16.1
574.715	16.11
574.91	16.15
575.105	16.07
575.3	16.09
575.495	16.12
575.69	16.04
575.885	16.03
576.08	16.07
576.275	16.07
576.47	16.22
576.665	16.16
576.86	16.24
577.055	16.26
577.25	16.44
577.444	16.46
577.639	16.45
577.834	16.57
578.029	16.67
578.224	16.65
578.418	16.69
578.613	16.75
578.808	16.76
579.003	16.71
579.197	16.71
579.392	16.73
579.587	16.74
579.781	16.68
579.976	16.62
580.171	16.65
580.365	16.67
580.56	16.58
580.755	16.68
580.949	16.76
581.144	16.81
581.338	16.85
581.533	16.74
581.727	16.84
581.922	16.95
582.116	17.12
582.311	17.16
582.505	17.18
582.7	17.27
582.894	17.25
583.089	17.18
583.283	17.17
583.478	17.19
583.672	17.36
583.866	17.36
584.061	17.42
584.255	17.45
584.449	17.47
584.644	17.47
584.838	17.53
585.032	17.52
585.226	17.65
585.421	17.79
585.615	17.93
585.809	17.71
586.003	17.71
586.198	17.73
586.392	17.67
586.586	17.78
586.78	17.73
586.974	17.68
587.168	17.73
587.363	17.86
587.557	17.94
587.751	17.99
587.945	18.22
588.139	18.28
588.333	18.28
588.527	18.34
588.721	18.23
588.915	18.34
589.109	18.49
589.303	18.49
589.497	18.51
589.691	18.41
589.885	18.28
590.079	18.28
590.273	18.26
590.466	18.3
590.66	18.22
590.854	18.24
591.048	18.23
591.242	18.1
591.436	18.14
591.629	18.23
591.823	18.15
592.017	18.21
592.211	18.46
592.404	18.52
592.598	18.55
592.792	18.67
592.986	18.7
593.179	18.72
593.373	18.75
593.567	18.82
593.76	18.77
593.954	18.94
594.147	19.03
594.341	18.93
594.535	18.94
594.728	18.96
594.922	19
595.115	19.07
595.309	19.05
595.502	19.02
595.696	19
595.889	19
596.083	18.99
596.276	19
596.47	18.99
596.663	19
596.856	18.98
597.05	18.92
597.243	18.93
597.437	19
597.63	19.06
597.823	18.98
598.017	18.94
598.21	18.81
598.403	18.74
598.596	18.67
598.79	18.62
598.983	18.57
599.176	18.73
599.369	18.57
599.563	18.56
599.756	18.65
599.949	18.7
600.142	18.67
600.335	18.59
600.528	18.54
600.722	18.59
600.915	18.72
601.108	18.82
601.301	18.73
601.494	18.83
601.687	18.9
601.88	18.91
602.073	18.9
602.266	18.95
602.459	19.23
602.652	19.34
602.845	19.37
603.038	19.34
603.231	19.39
603.424	19.38
603.617	19.45
603.809	19.45
604.002	19.58
604.195	19.55
604.388	19.51
604.581	19.36
604.774	19.34
604.966	19.39
605.159	19.39
605.352	19.28
605.545	19.19
605.737	19.2
605.93	19.14
606.123	19.08
606.316	19.26
606.508	19.23
606.701	19.41
606.894	19.47
607.086	19.48
607.279	19.69
607.471	19.76
607.664	19.86
607.857	19.88
608.049	20.06
608.242	20.14
608.434	20.12
608.627	20.24
608.819	20.25
609.012	20.29
609.204	20.29
609.397	20.2
609.589	20.31
609.782	20.29
609.974	20.26
610.166	20.19
610.359	20.09
610.551	20.05
610.743	19.88
610.936	19.83
611.128	19.92
611.32	19.94
611.513	19.85
611.705	19.81
611.897	19.8
612.09	19.83
612.282	19.69
612.474	19.64
612.666	19.64
612.858	19.87
613.051	19.89
613.243	19.67
613.435	19.63
613.627	19.67
613.819	19.59
614.011	19.82
614.203	19.88
614.395	20.01
614.588	20.22
614.78	20.2
614.972	20.13
615.164	20.1
615.356	20.22
615.548	20.07
615.74	20.07
615.932	20.13
616.124	19.94
616.315	19.95
616.507	19.8
616.699	19.71
616.891	19.73
617.083	19.89
617.275	19.9
617.467	19.93
617.659	20.17
617.85	20.16
618.042	20.14
618.234	20.25
618.426	20.12
618.618	20.29
618.809	20.3
619.001	20.4
619.193	20.35
619.384	20.15
619.576	20
619.768	19.81
619.959	19.8
620.151	19.92
620.343	20.04
620.534	20.05
620.726	20.02
620.917	19.89
621.109	19.92
621.301	19.9
621.492	20.3
621.684	20.49
621.875	20.54
622.067	20.59
622.258	20.7
622.45	20.63
622.641	20.82
622.832	20.81
623.024	21
623.215	21.08
623.407	21.03
623.598	20.9
623.789	20.93
623.981	20.96
624.172	20.82
624.363	20.76
624.555	20.67
624.746	20.61
624.937	20.59
625.129	20.51
625.32	20.4
625.511	20.37
625.702	20.31
625.893	20.32
626.085	20.26
626.276	20.4
626.467	20.44
626.658	20.65
626.849	20.71
627.04	20.77
627.231	20.66
627.422	20.68
627.614	20.87
627.805	20.85
627.996	20.83
628.187	20.92
628.378	21.03
628.569	20.98
628.76	20.86
628.951	20.66
629.142	20.63
629.332	20.75
629.523	20.68
629.714	20.43
629.905	20.51
630.096	20.41
630.287	20.42
630.478	20.32
630.669	20.24
630.859	20.22
631.05	20.38
631.241	20.3
631.432	20.31
631.623	20.36
631.813	20.53
632.004	20.65
632.195	20.78
632.385	20.73
632.576	20.87
632.767	20.99
632.957	20.96
633.148	20.84
633.339	20.89
633.529	20.92
633.72	20.98
633.91	21.04
634.101	20.97
634.292	20.84
634.482	20.92
634.673	20.7
634.863	20.75
635.054	20.57
635.244	20.64
635.435	20.76
635.625	20.7
635.815	20.74
636.006	20.72
636.196	20.77
636.387	20.95
636.577	21.01
636.767	21.21
636.958	21.1
637.148	21.29
637.338	21.41
637.529	21.44
637.719	21.54
637.909	21.56
638.099	21.64
638.29	21.48
638.48	21.38
638.67	21.28
638.86	21.28
639.05	21.17
639.241	21.41
639.431	21.35
639.621	21.09
639.811	21.07
640.001	20.93
640.191	20.84
640.381	20.86
640.571	20.77
640.761	20.72
640.951	20.6
641.141	20.59
641.331	20.28
641.521	20.22
641.711	20.58
641.901	20.61
642.091	20.68
642.281	20.48
642.471	20.6
642.661	20.71
642.851	20.63
643.041	20.72
643.231	20.8
643.42	20.99
643.61	21.03
643.8	20.96
643.99	20.9
644.18	21.05
644.369	21.21
644.559	21.03
644.749	20.94
644.939	21.24
645.128	21.24
645.318	21.25
645.508	21.29
645.697	21.17
645.887	21.06
646.076	20.92
646.266	20.63
646.456	20.57
646.645	20.9
646.835	21.1
647.024	20.98
647.214	20.96
647.403	20.93
647.593	20.78
647.782	20.91
647.972	20.73
648.161	20.89
648.351	21.11
648.54	21.17
648.73	21.06
648.919	21.03
649.108	20.91
649.298	20.96
649.487	21.08
649.677	21.25
649.866	21.28
650.055	21.52
650.244	21.64
650.434	21.48
650.623	21.62
650.812	21.49
651.002	21.4
651.191	21.46
651.38	21.52
651.569	21.64
651.758	21.57
651.947	21.66
652.137	21.69
652.326	21.74
652.515	21.88
652.704	21.89
652.893	22.03
653.082	22.05
653.271	22.08
653.46	21.99
653.649	21.78
653.838	21.8
654.027	21.79
654.216	21.83
654.405	21.7
654.594	21.64
654.783	21.43
654.972	21.39
655.161	21.58
655.35	21.6
655.539	21.8
655.728	21.91
655.916	22.02
656.105	21.9
656.294	21.76
656.483	21.91
656.672	21.94
656.86	22.1
657.049	22.04
657.238	22
657.427	22.16
657.615	21.87
657.804	22.01
657.993	22
658.181	21.91
658.37	22.05
658.559	21.86
658.747	22
658.936	21.77
659.125	21.85
659.313	21.9
659.502	21.82
659.69	22.03
659.879	21.89
660.067	21.68
660.256	21.81
660.444	21.76
660.633	21.76
660.821	21.76
661.01	22.04
661.198	21.91
661.387	21.71
661.575	21.6
661.763	21.77
661.952	21.75
662.14	21.71
662.328	21.64
662.517	21.69
662.705	21.68
662.893	21.46
663.082	21.25
663.27	21.36
663.458	21.49
663.646	21.79
663.834	21.52
664.023	21.72
664.211	21.99
664.399	22.08
664.587	22.06
664.775	22.36
664.963	22.09
665.152	22.32
665.34	22.26
665.528	22.28
665.716	22.14
665.904	22.05
666.092	21.68
666.28	21.65
666.468	21.58
666.656	21.45
666.844	21.07
667.032	21.42
667.22	21.21
667.408	21.32
667.596	21.29
667.784	21.18
667.971	21.05
668.159	21.04
668.347	20.91
668.535	21.07
668.723	21.2
668.911	21.33
669.098	21.22
669.286	21.32
669.474	21.21
669.662	20.99
669.849	20.98
670.037	21.25
670.225	21.27
670.413	21.32
670.6	21.36
670.788	21.24
670.976	21.31
671.163	21.62
671.351	21.5
671.538	21.61
671.726	21.84
671.913	21.95
672.101	21.83
672.289	21.86
672.476	21.68
672.664	21.69
672.851	21.77
673.039	21.8
673.226	21.68
673.413	21.61
673.601	21.66
673.788	21.46
673.976	21.48
674.163	21.82
674.35	21.91
674.538	22.28
674.725	22.26
674.912	22.23
675.1	22.43
675.287	22.6
675.474	23.09
675.662	22.94
675.849	23.06
676.036	23.08
676.223	22.89
676.411	22.73
676.598	22.55
676.785	22.43
676.972	22.29
677.159	22.13
677.346	21.84
677.533	21.62
677.721	21.52
677.908	21.55
678.095	21.53
678.282	21.41
678.469	21.58
678.656	21.7
678.843	21.77
679.03	21.91
679.217	21.9
679.404	21.89
679.591	22.01
679.778	22.28
679.964	22.15
680.151	21.89
680.338	22.03
680.525	22.01
680.712	22.13
680.899	22.08
681.086	22
681.272	22.02
681.459	22.08
681.646	21.88
681.833	21.7
682.02	21.89
682.206	22.01
682.393	22.02
682.58	22.08
682.766	21.92
682.953	22.11
683.14	22.58
683.326	22.66
683.513	22.73
683.7	22.81
683.886	22.94
684.073	23.04
684.259	23.18
684.446	23.16
684.632	22.94
684.819	22.78
685.005	22.78
685.192	22.28
685.378	22.07
685.565	21.98
685.751	21.81
685.938	21.88
686.124	21.95
686.31	22.03
686.497	22.24
686.683	22.42
686.87	22.66
687.056	22.58
687.242	22.55
687.429	22.8
687.615	22.79
687.801	22.97
687.987	22.88
688.174	22.82
688.36	22.72
688.546	22.52
688.732	22.47
688.918	22.27
689.105	22.15
689.291	22.48
689.477	22.43
689.663	22.4
689.849	22.6
690.035	22.73
690.221	22.91
690.407	23.02
690.593	22.97
690.779	23.43
690.965	23.23
691.151	23.39
691.337	23.04
691.523	23.4
691.709	23.5
691.895	23.2
692.081	22.97
692.267	22.83
692.453	22.77
692.639	22.81
692.825	22.4
693.011	22.63
693.196	22.58
693.382	22.65
693.568	22.14
693.754	22.26
693.94	22.01
694.125	22.08
694.311	22.12
694.497	22.14
694.682	22.09
694.868	22.11
695.054	22.27
695.239	22.3
695.425	22.36
695.611	22.17
695.796	21.95
695.982	22.32
696.168	22.31
696.353	22.21
696.539	22.27
696.724	22.23
696.91	22.07
697.095	21.97
697.281	22.07
697.466	22.28
697.652	22.44
697.837	22.79
698.023	22.68
698.208	22.76
698.393	22.71
698.579	22.7
698.764	22.76
698.949	23.03
699.135	23.05
699.32	22.88
699.505	22.76
699.691	22.84
699.876	22.46
700.061	22.64
700.246	22.75
700.432	22.64
700.617	22.63
700.802	22.5
700.987	22.35
701.172	22.48
701.358	22.46
701.543	22.55
701.728	22.38
701.913	22.78
702.098	22.69
702.283	22.45
702.468	22.62
702.653	22.89
702.838	23.07
703.023	23.13
703.208	22.93
703.393	22.8
703.578	22.49
703.763	22.48
703.948	21.96
704.133	22.03
704.318	22.17
704.503	22.22
704.688	22.23
704.873	22.21
705.057	22.3
705.242	22.65
705.427	23.03
705.612	23.25
705.797	23.28
705.981	23.54
706.166	23.56
706.351	23.62
706.536	23.38
706.72	23.51
706.905	23.6
707.09	23.3
707.274	22.97
707.459	22.74
707.644	22.46
707.828	22.6
708.013	22.47
708.197	22.37
708.382	22.13
708.567	22.48
708.751	22.39
708.936	22.02
709.12	22.14
709.305	22.31
709.489	22.23
709.673	22.38
709.858	22.43
710.042	22.73
710.227	22.8
710.411	22.86
710.596	22.98
710.78	22.72
710.964	23.02
711.149	23.08
711.333	22.82
711.517	22.93
711.702	22.76
711.886	22.63
712.07	22.42
712.254	22.3
712.438	22.05
712.623	21.98
712.807	21.59
712.991	21.59
713.175	21.58
713.359	21.68
713.544	21.89
713.728	21.94
713.912	22.05
714.096	22.16
714.28	22.5
714.464	22.9
714.648	22.66
714.832	22.46
715.016	22.33
715.2	22.16
715.384	22.34
715.568	22.21
715.752	22.28
715.936	22.22
716.12	21.95
716.304	21.7
716.488	21.14
716.671	20.98
716.855	21.61
717.039	21.65
717.223	21.69
717.407	21.64
717.59	21.45
717.774	21.39
717.958	21.02
718.142	21
718.325	20.78
718.509	21.05
718.693	21.21
718.877	20.86
719.06	20.71
719.244	20.82
719.428	20.8
719.611	20.94
719.795	21.18
719.978	21.51
720.162	21.6
720.345	21.84
720.529	22.41
720.713	22.68
720.896	23.01
721.08	23.03
721.263	23.1
721.446	23.29
721.63	23.54
721.813	23.41
721.997	23.5
722.18	23.57
722.364	23.8
722.547	23.35
722.73	23.16
722.914	22.88
723.097	23.22
723.28	23.07
723.464	23.13
723.647	22.75
723.83	22.95
724.013	23.25
724.197	23.29
724.38	22.85
724.563	22.88
724.746	23.22
724.929	23.5
725.112	23.6
725.296	23.44
725.479	23.48
725.662	23.62
725.845	23.63
726.028	23.28
726.211	23.51
726.394	23.9
726.577	23.88
726.76	23.72
726.943	23.62
727.126	23.52
727.309	23.5
727.492	23
727.675	22.95
727.858	22.55
728.041	22.45
728.224	22.32
728.407	22.33
728.589	22.8
728.772	22.47
728.955	22.64
729.138	22.52
729.321	22.53
729.503	23.01
729.686	23.04
729.869	23.59
730.052	24.21
730.234	24.24
730.417	24.21
730.6	23.68
730.782	23.74
730.965	23.61
731.148	23.56
731.33	23.91
731.513	23.73
731.695	23.5
731.878	23.45
732.061	23.15
732.243	23.32
732.426	22.99
732.608	22.96
732.791	23.24
732.973	23.38
733.156	23.22
733.338	23.14
733.52	23.02
733.703	23.18
733.885	23.01
734.068	23.03
734.25	22.79
734.432	23.1
734.615	22.9
734.797	22.7
734.979	22.96
735.162	23.33
735.344	23.25
735.526	23.45
735.708	23.45
735.891	23.12
736.073	22.54
736.255	22.49
736.437	22.43
736.619	22.74
736.802	22.83
736.984	22.78
737.166	22.81
737.348	23.27
737.53	22.59
737.712	22.68
737.894	22.72
738.076	23.35
738.258	22.96
738.44	23
738.622	23.21
738.804	23.32
738.986	22.75
739.168	22.98
739.35	22.83
739.532	23.18
739.714	23.06
739.896	23.02
740.078	23.17
740.259	23.23
740.441	22.52
740.623	22.14
740.805	22.34
740.987	22.84
741.168	22.29
741.35	22.46
741.532	22.52
741.714	22.18
741.895	22.47
742.077	22.36
742.259	22.4
742.44	23.14
742.622	23.58
742.804	23.58
742.985	23.49
743.167	23.38
743.348	23.04
743.53	22.64
743.711	23.37
743.893	23.52
744.075	23.25
744.256	23.3
744.438	23.53
744.619	23.32
744.8	23.29
744.982	23.04
745.163	23.56
745.345	23.42
745.526	23.68
745.707	23.41
745.889	23.59
746.07	23.58
746.252	24.74
746.433	24.27
746.614	24.49
746.795	24.6
746.977	24.39
747.158	24.3
747.339	24.37
747.52	24.18
747.702	24.18
747.883	23.92
748.064	23.89
748.245	22.89
748.426	23.43
748.607	23.41
748.788	23.14
748.97	24.02
749.151	24.19
749.332	23.94
749.513	24.61
749.694	24.85
749.875	24.57
750.056	24.79
750.237	25
750.418	24.38
750.599	24.12
750.78	23.84
750.96	23.16
751.141	22.71
751.322	22.89
751.503	22.84
751.684	22.5
751.865	22.88
752.046	22.47
752.226	21.73
752.407	22
752.588	22.14
752.769	22.39
752.949	22.01
753.13	21.68
753.311	21.32
753.492	21.27
753.672	20.79
753.853	20.45
754.034	20.09
754.214	21.44
754.395	21.12
754.575	21.07
754.756	20.84
754.937	21.56
755.117	22.09
755.298	22.36
755.478	22.21
755.659	22.89
755.839	23.2
756.02	24.06
756.2	23.09
756.381	23.68
756.561	23.07
756.741	23.27
756.922	23.19
757.102	22.87
757.283	23.44
757.463	23.04
757.643	23.85
757.823	24.25
758.004	23.56
758.184	23.68
758.364	22.61
758.545	22.89
758.725	22.35
758.905	22.44
759.085	22.65
759.265	22.4
759.446	22.52
759.626	21.93
759.806	21.75
759.986	22.32
760.166	22.48
760.346	22.82
760.526	23.06
760.706	23.81
760.886	24.01
761.066	23.98
761.246	24.04
761.426	24.45
761.606	24.14
761.786	23.67
761.966	23.64
762.146	23.87
762.326	24.06
762.506	23.88
762.686	23.41
762.866	22.87
763.046	22.91
763.225	22.66
763.405	22.72
763.585	22.73
763.765	22.17
763.945	22.25
764.124	21.86
764.304	21.53
764.484	21.36
764.664	21.57
764.843	21.58
765.023	21.48
765.203	21.5
765.382	21.62
765.562	21.32
765.741	21.99
765.921	21.89
766.101	22.43
766.28	22.64
766.46	22.51
766.639	22.29
766.819	22.33
766.998	22.21
767.178	22.14
767.357	21.5
767.537	21.74
767.716	21.22
767.896	21.24
768.075	20.75
768.254	21.36
768.434	22.13
768.613	22.94
768.792	22.85
768.972	23.11
769.151	23.67
769.33	24.32
769.51	24.73
769.689	25.43
769.868	25.01
770.047	25.25
770.226	25.03
770.406	24.14
770.585	23.56
770.764	23.63
770.943	23.4
771.122	22.47
771.301	21.98
771.48	21.1
771.66	21.16
771.839	21.79
772.018	21.95
772.197	21.44
772.376	21.62
772.555	21.26
772.734	21.53
772.913	21.5
773.092	21.97
773.271	22.18
773.449	21.91
773.628	22.84
773.807	22.55
773.986	22.26
774.165	22.67
774.344	22.98
774.523	23.46
774.701	23.73
774.88	23.86
775.059	23.77
775.238	24.19
775.417	24.99
775.595	23.8
775.774	23.72
775.953	23.94
776.131	23.85
776.31	23.35
776.489	23.72
776.667	23.43
776.846	23.93
777.025	23.79
777.203	22.79
777.382	23.87
777.56	23.56
777.739	24.13
777.917	23.36
778.096	22.63
778.274	22.73
778.453	22.14
778.631	22.07
778.81	20.88
778.988	21.51
779.166	21.91
779.345	21.2
779.523	21.67
779.702	20.53
779.88	21.14
780.058	21.47
780.237	21.44
780.415	22.49
780.593	22.31
780.771	22.78
780.95	22.64
781.128	22.57
781.306	22.2
781.484	21.62
781.662	21.84
781.841	21.98
782.019	21.78
782.197	22.83
782.375	22.14
782.553	21.79
782.731	21.81
782.909	21.09
783.087	21.57
783.265	22.44
783.443	23.59
783.621	23.85
783.799	24.13
783.977	25.51
784.155	25.66
784.333	25.36
784.511	26.05
784.689	26.91
784.867	27.7
785.045	27.18
785.223	26.47
785.4	25.82
785.578	25.76
785.756	25.31
785.934	24.05
786.112	24.52
786.289	24.45
786.467	23.77
786.645	23.56
786.823	22.42
787	22.17
787.178	21.61
787.356	22
787.533	22.06
787.711	22.24
787.889	22.73
788.066	22.59
788.244	22.32
788.421	23.2
788.599	22.63
788.776	23.11
788.954	23.54
789.131	24.39
789.309	23.82
789.486	24.75
789.664	24.71
789.841	24.55
790.019	23.82
790.196	24.16
790.373	24.14
790.551	23.83
790.728	24.14
790.906	23.48
791.083	22.98
791.26	23.49
791.437	21.57
791.615	21.78
791.792	21.76
791.969	20.97
792.146	21.41
792.324	20.62
792.501	21.21
792.678	21.54
792.855	22.08
793.032	21.92
793.209	22.13
793.387	23.68
793.564	23.36
793.741	23.83
793.918	24.71
794.095	23.37
794.272	23.82
794.449	23.12
794.626	23.95
794.803	23.94
794.98	24.2
795.157	24.68
795.334	24.07
795.511	23.73
795.688	23.2
795.864	22.42
796.041	23.27
796.218	23.24
796.395	23.52
796.572	22.88
796.749	23.46
796.925	23.48
797.102	22.59
797.279	22.54
797.456	23.56
797.632	23.02
797.809	23.1
797.986	22.5
798.162	23.37
798.339	23.72
798.516	23.51
798.692	23.14
798.869	23.92
799.046	23.8
799.222	23.65
799.399	23.36
799.575	24.42
799.752	24.43
799.928	24.77
800.105	23.53
800.281	23.17
800.458	22.47
800.634	22.36
800.811	21.07
800.987	20.92
801.163	21.27
801.34	21
801.516	20.95
801.692	21.49
801.869	22.23
802.045	23.04
802.221	23.74
802.398	23.8
802.574	24.67
802.75	24.83
802.926	25.35
803.103	25.03
803.279	24.77
803.455	24.68
803.631	26.06
803.807	26.21
803.983	26.12
804.16	25.92
804.336	26.59
804.512	25.92
804.688	26.97
804.864	27.35
805.04	28.07
805.216	27.68
805.392	27.41
805.568	25.49
805.744	25.14
805.92	24.58
806.096	24.13
806.272	24.64
806.448	24.47
806.623	23.95
806.799	23.84
806.975	23.46
807.151	23.3
807.327	23.26
807.503	23.79
807.678	23.57
807.854	24.04
808.03	24.73
808.206	23.18
808.381	22.78
808.557	22.9
808.733	22.37
808.908	22.79
809.084	23.24
809.26	23.85
809.435	24.98
809.611	25.54
809.787	25.49
809.962	25.27
810.138	25.72
810.313	25.82
810.489	25.73
810.664	25.07
810.84	25.42
811.015	25.51
811.191	24.65
811.366	24.72
811.542	24.02
811.717	23.5
811.892	23.34
812.068	23.58
812.243	23.54
812.419	22.71
812.594	23.55
812.769	21.6
812.944	21.19
813.12	21.73
813.295	19.7
813.47	18.84
813.645	19.06
813.821	18.64
813.996	18.73
814.171	19.39
814.346	19.04
814.521	20.01
814.697	20.72
814.872	20.71
815.047	20.13
815.222	21.67
815.397	22.64
815.572	21.84
815.747	22.1
815.922	21.88
816.097	21.28
816.272	21.67
816.447	20.05
816.622	20.06
816.797	20.14
816.972	20.85
817.147	21.01
817.322	20.89
817.496	21.94
817.671	21.17
817.846	22.49
818.021	22.63
818.196	22.89
818.371	23.65
818.545	24.38
818.72	24.69
818.895	24.7
819.069	24.26
819.244	24.33
819.419	23.88
819.594	24.65
819.768	23.88
819.943	23.48
820.117	23.44
820.292	23.61
820.467	23.16
820.641	23.5
820.816	23.25
820.99	23.3
821.165	23.27
821.339	23.21
821.514	23.19
821.688	23.19
821.863	23.09
822.037	23.06
822.212	23.1
822.386	23.06
822.56	22.76
822.735	23.09
822.909	23.21
823.084	23.1
823.258	23.29
823.432	23.27
823.606	23.26
823.781	23.35
823.955	23.46
824.129	23.37
824.303	23.55
824.478	23.73
824.652	23.21
824.826	22.71
825	23.33
825.174	23.08
825.348	22.91
825.523	23.15
825.697	23.37
825.871	23.52
826.045	24.01
826.219	23.95
826.393	23.67
826.567	23.95
826.741	23.98
826.915	23.24
827.089	23.81
827.263	24.17
827.437	24.13
827.611	24.58
827.784	24.59
827.958	23.93
828.132	24.07
828.306	24.48
828.48	24.04
828.654	24.13
828.827	24.79
829.001	23.71
829.175	23.91
829.349	23.96
829.522	22.97
829.696	23.33
829.87	23.04
830.044	23.25
830.217	24.11
830.391	24.33
830.565	25.15
830.738	24.86
830.912	25.63
831.085	24.94
831.259	24.89
831.432	25.87
831.606	24.5
831.779	24.11
831.953	24.31
832.126	23.64
832.3	24.78
832.473	23.8
832.647	23.81
832.82	24.08
832.994	23.97
833.167	24.02
833.34	23.52
833.514	23.33
833.687	23.22
833.86	22.18
834.034	21.72
834.207	20.23
834.38	20.81
834.553	20.65
834.727	20.31
834.9	19.42
835.073	19.3
835.246	19.12
835.419	19.79
835.593	21.11
835.766	22.24
835.939	23.13
836.112	24.61
836.285	24.84
836.458	24.98
836.631	25.12
836.804	26.43
836.977	25.4
837.15	26.7
837.323	25.9
837.496	24.21
837.669	23.48
837.842	23.05
838.015	23.88
838.188	22.81
838.361	22.58
838.533	23.89
838.706	25.4
838.879	26.07
839.052	24.83
839.225	25.11
839.398	27.59
839.57	27.93
839.743	27.77
839.916	26.61
840.088	28.32
840.261	28.96
840.434	28.93
840.607	27.51
840.779	27.77
840.952	27.45
841.124	26.86
841.297	24.51
841.47	25.27
841.642	24.53
841.815	25.16
841.987	23.66
842.16	25.06
842.332	21.71
842.505	22.03
842.677	19.47
842.85	19.38
843.022	20.89
843.194	22.63
843.367	20.95
843.539	21.51
843.712	19.91
843.884	21.76
844.056	19.15
844.229	21
844.401	20.18
844.573	24.11
844.745	23.5
844.918	23.79
845.09	23.56
845.262	24.69
845.434	24.38
845.606	26.57
845.779	24.36
845.951	26.4
846.123	25.21
846.295	25.7
846.467	24.42
846.639	25.52
846.811	24.3
846.983	23.31
847.155	23.18
847.327	24.11
847.499	24.57
847.671	24.72
847.843	20.88
848.015	22.47
848.187	20.45
848.359	20.68
848.531	18.67
848.703	20.35
848.875	21.23
849.047	21.93
849.218	23.16
849.39	22.16
849.562	20.89
849.734	22.56
849.905	21.13
850.077	23.24
850.249	22.74
850.421	26.94
850.592	26.07
850.764	24.82
850.936	23.48
851.107	20.86
851.279	20.63
851.451	22.66
851.622	25.71
851.794	28.58
851.965	31.46
852.137	33.73
852.308	32.66
852.48	32.96
852.651	35.11
852.823	35.34
852.994	33.89
853.166	32.69
853.337	31.42
853.509	31.72
853.68	28.06
853.851	25.16
854.023	26.63
854.194	26.45
854.365	26.04
854.537	26.94
854.708	26.9
854.879	29.52
855.05	29.31
855.222	30.17
855.393	28.05
855.564	33.21
855.735	35.53
855.906	33.94
856.078	34.87
856.249	37.98
856.42	37.19
856.591	38.29
856.762	37.74
856.933	36.59
857.104	33.97
857.275	31.51
857.446	29.36
857.617	26.82
857.788	22.6
857.959	18.82
858.13	17.12
858.301	14.69
858.472	12.61
858.643	12.06
858.814	15.54
858.985	19.12
859.155	20.96
859.326	22.52
859.497	22.1
859.668	21.54
859.839	21.26
860.009	18.82
860.18	17.35
860.351	20.28
860.522	17.22
860.692	15.52
860.863	12.46
861.034	14.21
861.204	10.41
861.375	13.58
861.546	17.49
861.716	17.3
861.887	20.4
862.057	20.78
862.228	17.17
862.398	21.11
862.569	20.67
862.739	24.64
862.91	21.83
863.08	22.31
863.251	20.55
863.421	15.98
863.592	20.33
863.762	22.18
863.932	26.05
864.103	25.87
864.273	25.71
864.443	28.39
864.614	31.13
864.784	28.73
864.954	29.96
865.125	29.39
865.295	32.81
865.465	31.72
865.635	27.63
865.805	26.11
865.976	28.11
866.146	25.19
866.316	22.59
866.486	16.78
866.656	17.43
866.826	16.98
866.996	15.17
867.166	13.12
867.336	13.45
867.506	15.78
867.676	13.93
867.846	13.69
868.016	15.96
868.186	18.07
868.356	20.97
868.526	26.22
868.696	28.38
868.866	26.15
869.036	26.68
869.206	27.65
869.376	30.27
869.545	31.5
869.715	34.68
869.885	36.35
870.055	33.08
870.224	31.71
870.394	29.44
870.564	27.42
870.734	32.27
870.903	29.34
871.073	28.88
871.243	27.77
871.412	29.81
871.582	22.49
871.751	23.62
871.921	24.2
872.091	25.77
872.26	25.81
872.43	25.65
872.599	25.32
872.769	27.41
872.938	31.64
873.108	26.43
873.277	21.55
873.446	23.87
873.616	21.78
873.785	20.82
873.955	18.81
874.124	18.31
874.293	19.74
874.463	21.3
874.632	22.91
874.801	17.33
874.971	21.2
875.14	22.26
875.309	21.24
875.478	21.2
875.647	22.35
875.817	24.29
875.986	26.76
876.155	20.76
876.324	21.31
876.493	24.22
876.662	25.92
876.831	24.16
877	26.69
877.17	27.56
877.339	29.67
877.508	30.61
877.677	29.19
877.846	26.65
878.015	31.77
878.184	29.39
878.352	24.2
878.521	21.73
878.69	24.48
878.859	20.89
879.028	19.55
879.197	18.57
879.366	20.81
879.534	22.46
879.703	25.3
879.872	24.99
880.041	23.86
880.21	24.38
880.378	25.29
880.547	23.01
880.716	25.21
880.884	24.84
881.053	24.94
881.222	23.79
881.39	22.34
881.559	21.26
881.727	21.14
881.896	21.51
882.065	22.19
882.233	22.3
882.402	22.96
882.57	22.31
882.739	22.39
882.907	22.85
883.076	22.89
883.244	23.25
883.412	23.12
883.581	23.78
883.749	24.22
883.918	24.2
884.086	24.76
884.254	25.53
884.423	25.29
884.591	25.62
884.759	25.07
884.927	25.15
885.096	25.65
885.264	25.34
885.432	24.07
885.6	23.85
885.769	21.7
885.937	21.16
886.105	20.09
886.273	20.94
886.441	22.56
886.609	22.18
886.777	21.8
886.945	24.02
887.113	24.68
887.281	23.3
887.449	24.08
887.617	26.3
887.785	26.12
887.953	26.21
888.121	24.59
888.289	22.91
888.457	22.63
888.625	22.18
888.793	16.04
888.961	18.23
889.129	23
889.296	19.95
889.464	19.87
889.632	18.18
889.8	14.58
889.967	16.05
890.135	14.38
