Data from 2938469_Reflection_3.txt Node
Date: Wed Jun 17 13:39:33 EDT 2015
User: robert
Spectrometer: USB4E03002
Autoset integration time: false
Trigger mode: 4
Integration Time (sec): 1.000000E-1
Scans to average: 10
Electric dark correction enabled: true
Nonlinearity correction enabled: false
Boxcar width: 5
Stray light correction enabled: false
XAxis mode: Wavelengths
Stop averaging: false
Number of Pixels in Spectrum: 3648
>>>>>Begin Spectral Data<<<<<
177.575	0.28
177.794	30.8
178.014	23.58
178.233	20.58
178.452	41.39
178.672	45.35
178.891	171.68
179.11	7.45
179.33	-1.12
179.549	-16.85
179.768	-59.41
179.987	-39.75
180.207	-26.76
180.426	-42.96
180.645	-54.21
180.864	-81.24
181.084	-70.49
181.303	-435.77
181.522	504.71
181.741	199.75
181.96	166.08
182.179	103.91
182.398	87.22
182.618	114.41
182.837	127.4
183.056	86.76
183.275	66.76
183.494	82.55
183.713	66.41
183.932	102.34
184.151	81.39
184.37	96.37
184.589	126.63
184.808	143.16
185.027	135.18
185.246	169.84
185.465	168.69
185.684	180.77
185.903	254.66
186.122	404.42
186.341	2040.94
186.56	2816.88
186.779	453.45
186.998	2447.58
187.216	-229.19
187.435	-895.57
187.654	11887.21
187.873	-2304.12
188.092	487.79
188.311	870.36
188.53	1003.45
188.748	770.48
188.967	2620.85
189.186	-320.61
189.405	-23500
189.623	806.45
189.842	407.3
190.061	269.38
190.28	330.2
190.498	-155.96
190.717	-1684.56
190.936	2550.7
191.154	1452.58
191.373	559.5
191.592	449.24
191.81	645.67
192.029	802.21
192.248	1048.66
192.466	-960.11
192.685	-1530.99
192.904	269.92
193.122	368.59
193.341	295.75
193.559	315.37
193.778	354.65
193.996	459.97
194.215	2160.36
194.433	474.76
194.652	329.15
194.87	154.38
195.089	205.11
195.307	1210.63
195.526	593.33
195.744	798.07
195.963	361.27
196.181	269.78
196.399	213.03
196.618	207.15
196.836	301.59
197.055	392.82
197.273	701.47
197.491	416.24
197.71	382.12
197.928	534.7
198.146	602.08
198.365	816.68
198.583	10175.2
198.801	-429.36
199.019	-631.58
199.238	-691.93
199.456	-265.61
199.674	-550.22
199.892	-1617.9
200.111	-1443.66
200.329	1223.74
200.547	15232.88
200.765	-789.7
200.983	-919.81
201.202	964.62
201.42	891.23
201.638	676.69
201.856	339.56
202.074	279.88
202.292	570.23
202.51	402.94
202.728	482.6
202.946	405.99
203.165	403.05
203.383	342.09
203.601	221.39
203.819	218.65
204.037	282.34
204.255	411.3
204.473	5288.41
204.691	501.61
204.909	794.06
205.127	412.47
205.345	489.48
205.562	96.94
205.78	151.8
205.998	-389.28
206.216	-902.08
206.434	-977.68
206.652	494.89
206.87	303
207.088	404.78
207.306	211.45
207.523	156.91
207.741	138.74
207.959	206.61
208.177	144.54
208.395	152.55
208.612	158.09
208.83	171.7
209.048	170.2
209.266	197.09
209.483	178.76
209.701	214.78
209.919	304.27
210.136	218.56
210.354	199.3
210.572	197.89
210.79	169.93
211.007	170.55
211.225	142.46
211.442	134.19
211.66	109.04
211.878	110.04
212.095	137.01
212.313	122.22
212.53	124.31
212.748	115.97
212.966	115.99
213.183	106.93
213.401	59.08
213.618	73.68
213.836	78.34
214.053	104.37
214.271	129.89
214.488	59.02
214.705	41.76
214.923	60.25
215.14	113.98
215.358	117.04
215.575	144.82
215.793	425.02
216.01	129.61
216.227	139.02
216.445	127.38
216.662	90.93
216.879	99.68
217.097	110.96
217.314	109.73
217.531	115.62
217.749	97.5
217.966	88.82
218.183	85.47
218.4	86.69
218.618	74.66
218.835	65.33
219.052	74.15
219.269	69.9
219.487	57.59
219.704	64.19
219.921	38.39
220.138	47.47
220.355	57.9
220.572	57.87
220.79	68.39
221.007	54.44
221.224	53.1
221.441	55.64
221.658	59.62
221.875	64.93
222.092	49.2
222.309	43.68
222.526	44.65
222.743	35.18
222.96	34.9
223.177	26.79
223.394	28.86
223.611	24.85
223.828	29.76
224.045	31.54
224.262	30.06
224.479	33.15
224.696	34.13
224.913	29.73
225.13	28.14
225.347	25.53
225.564	23.39
225.781	22.95
225.997	19.78
226.214	17.08
226.431	15.95
226.648	15.34
226.865	14.92
227.082	15.69
227.298	17.04
227.515	17.12
227.732	17.4
227.949	16.51
228.165	15.97
228.382	18.03
228.599	18.42
228.816	18.56
229.032	17.68
229.249	16.73
229.466	16.75
229.682	15.65
229.899	16.6
230.116	16.37
230.332	18.71
230.549	20.66
230.765	20.71
230.982	18.26
231.199	17.64
231.415	21.53
231.632	22.52
231.848	21.26
232.065	21.51
232.281	20.55
232.498	20.58
232.714	20.52
232.931	19.2
233.147	19.57
233.364	20.65
233.58	18.53
233.797	18.05
234.013	19.64
234.23	21.31
234.446	22.08
234.662	22.63
234.879	24.28
235.095	24.63
235.312	23.77
235.528	23.32
235.744	24.63
235.961	28.16
236.177	27.84
236.393	26.51
236.61	25.09
236.826	22.73
237.042	21.5
237.258	19.74
237.475	19.13
237.691	20
237.907	19.44
238.123	20.58
238.339	20.48
238.556	19.37
238.772	18.31
238.988	16.85
239.204	15.4
239.42	14.94
239.636	14.85
239.853	14.32
240.069	14.5
240.285	13.92
240.501	12.63
240.717	12.53
240.933	12.73
241.149	13.24
241.365	13.48
241.581	15.08
241.797	14.78
242.013	14.41
242.229	14.6
242.445	14.71
242.661	14.89
242.877	15.53
243.093	14.96
243.309	14.16
243.525	14.14
243.741	14.39
243.957	13.93
244.173	13.54
244.388	13.31
244.604	12.96
244.82	12.64
245.036	12.75
245.252	12.61
245.468	12.53
245.683	12.95
245.899	12.5
246.115	12.62
246.331	12.38
246.547	12.52
246.762	12.3
246.978	12.39
247.194	12.3
247.409	11.67
247.625	11.64
247.841	11.94
248.057	11.44
248.272	11.65
248.488	11.13
248.703	10.88
248.919	11.66
249.135	11.61
249.35	11.63
249.566	12.24
249.782	12.92
249.997	13.23
250.213	12.11
250.428	12.28
250.644	11.76
250.859	11.92
251.075	12.53
251.29	11.86
251.506	12.48
251.721	12.92
251.937	12.27
252.152	12.16
252.368	11.48
252.583	11.73
252.798	12.53
253.014	13.91
253.229	14.21
253.445	13.41
253.66	14.41
253.875	14.35
254.091	13.08
254.306	13.33
254.521	14.48
254.737	14.62
254.952	14.71
255.167	12.84
255.383	12.63
255.598	12.74
255.813	13.54
256.028	12.6
256.244	12.32
256.459	12.07
256.674	11.65
256.889	10.52
257.104	10.43
257.32	10.83
257.535	10.74
257.75	10.33
257.965	9.96
258.18	9.47
258.395	9.51
258.61	9.77
258.826	9.64
259.041	9.53
259.256	9.58
259.471	9.76
259.686	9.28
259.901	9.88
260.116	9.82
260.331	10.27
260.546	10.37
260.761	10.17
260.976	9.7
261.191	9.68
261.406	10.31
261.621	10.86
261.836	10.79
262.05	11.4
262.265	10.92
262.48	11.43
262.695	10.65
262.91	11.15
263.125	11.81
263.34	12.24
263.555	13.28
263.769	12.56
263.984	12.43
264.199	12.51
264.414	11.97
264.629	12.16
264.843	11.98
265.058	11.68
265.273	11.54
265.488	11.23
265.702	10.81
265.917	9.91
266.132	9.74
266.346	9.45
266.561	8.82
266.776	9.38
266.99	9.02
267.205	9.02
267.42	9.46
267.634	9.24
267.849	8.85
268.063	8.73
268.278	9.11
268.492	9.73
268.707	9.82
268.922	9.76
269.136	8.82
269.351	8.36
269.565	8.07
269.78	7.42
269.994	7.57
270.209	7.91
270.423	8.04
270.637	8.25
270.852	7.92
271.066	7.85
271.281	7.92
271.495	8.41
271.709	9.16
271.924	8.86
272.138	8.98
272.353	9.13
272.567	8.73
272.781	8.85
272.996	8.62
273.21	9.27
273.424	8.89
273.638	9.48
273.853	9.57
274.067	8.96
274.281	10.11
274.495	10.46
274.71	10.39
274.924	10.79
275.138	10.59
275.352	10.61
275.566	10.09
275.781	10.77
275.995	9.67
276.209	9.79
276.423	9.29
276.637	8.46
276.851	8.06
277.065	6.85
277.279	7.26
277.493	7.63
277.707	7.29
277.921	7.1
278.135	7.05
278.349	7.78
278.563	7.37
278.777	8.03
278.991	7.78
279.205	8.51
279.419	9.14
279.633	8.84
279.847	8.61
280.061	9
280.275	8.93
280.489	8.54
280.703	8.94
280.917	9.01
281.131	8.96
281.344	9.08
281.558	8.6
281.772	8.69
281.986	8.76
282.2	8.9
282.414	8.35
282.627	8.4
282.841	8.47
283.055	8.3
283.269	8.27
283.482	8.24
283.696	8.32
283.91	8.59
284.123	8.66
284.337	8.45
284.551	8.47
284.764	8.74
284.978	8.7
285.192	8.57
285.405	8.56
285.619	8.54
285.833	8.82
286.046	9.17
286.26	9.03
286.473	9.08
286.687	9.17
286.9	9.5
287.114	9.67
287.327	9.72
287.541	10.23
287.754	10.36
287.968	10.45
288.181	10.03
288.395	9.86
288.608	10.05
288.822	10.12
289.035	10.58
289.248	10.33
289.462	10.47
289.675	10.49
289.889	10.35
290.102	10.2
290.315	10.43
290.529	10.64
290.742	10.74
290.955	10.81
291.169	10.98
291.382	10.44
291.595	10.64
291.808	10.61
292.022	10.99
292.235	11.05
292.448	10.72
292.661	10.73
292.875	10.58
293.088	10.69
293.301	10.79
293.514	10.47
293.727	10.48
293.94	10.33
294.153	10.74
294.367	10.94
294.58	11.01
294.793	11.52
295.006	11.97
295.219	12.14
295.432	12.3
295.645	12.24
295.858	12.47
296.071	12.97
296.284	13.31
296.497	13.24
296.71	13.2
296.923	13.16
297.136	13.25
297.349	13.05
297.562	13.22
297.775	13.38
297.988	13.75
298.201	14.08
298.414	13.86
298.626	14
298.839	13.95
299.052	14.01
299.265	14.24
299.478	14.45
299.691	14.98
299.903	14.98
300.116	15.19
300.329	15.3
300.542	15.14
300.755	15.62
300.967	15.36
301.18	15.95
301.393	16.12
301.605	16.51
301.818	16.13
302.031	15.97
302.243	16.13
302.456	15.91
302.669	15.87
302.881	16.19
303.094	15.9
303.307	15.96
303.519	15.62
303.732	15.53
303.944	15.23
304.157	15.92
304.37	16.24
304.582	16.23
304.795	16.07
305.007	16.09
305.22	15.99
305.432	15.82
305.645	15.69
305.857	15.66
306.069	16.06
306.282	15.99
306.494	15.37
306.707	15.01
306.919	15.83
307.132	15.8
307.344	15.93
307.556	15.95
307.769	16.26
307.981	16.61
308.193	16.45
308.406	16.14
308.618	16.55
308.83	16.72
309.043	16.69
309.255	16.31
309.467	16.34
309.679	16.32
309.892	16.08
310.104	16.11
310.316	16.21
310.528	16.97
310.74	16.9
310.953	16.96
311.165	17.16
311.377	17.38
311.589	17.32
311.801	17.79
312.013	17.99
312.225	18.35
312.437	18.62
312.649	18.68
312.862	18.18
313.074	18.68
313.286	18.35
313.498	17.82
313.71	17.74
313.922	17.65
314.134	17.49
314.346	17.36
314.558	17.8
314.77	17.58
314.982	17.46
315.193	17.62
315.405	17.3
315.617	17.81
315.829	18.41
316.041	18.52
316.253	19.02
316.465	19.14
316.677	19.21
316.888	19.22
317.1	19.1
317.312	19.56
317.524	19.61
317.736	19.95
317.947	19.86
318.159	20.32
318.371	19.8
318.583	19.25
318.794	18.87
319.006	19.11
319.218	18.69
319.43	19.46
319.641	19.55
319.853	19.24
320.064	19.52
320.276	19.37
320.488	19.39
320.699	19.96
320.911	20.77
321.123	21.07
321.334	21.09
321.546	21.16
321.757	20.78
321.969	20.38
322.18	20.68
322.392	19.86
322.603	20.43
322.815	20.08
323.026	20.32
323.238	20.37
323.449	20.83
323.661	20.85
323.872	21.45
324.083	21.88
324.295	22.42
324.506	22.4
324.718	23.36
324.929	23.7
325.14	24.2
325.352	24.57
325.563	24.68
325.774	25.02
325.986	25.28
326.197	25.46
326.408	25.35
326.62	25.5
326.831	25.99
327.042	25.97
327.253	25.94
327.464	25.91
327.676	26.39
327.887	26.49
328.098	26.62
328.309	26.95
328.52	27.14
328.732	27.39
328.943	28.16
329.154	28.57
329.365	29.22
329.576	29.72
329.787	30.21
329.998	30
330.209	30.3
330.42	30.38
330.631	30.49
330.842	30.44
331.053	30.82
331.264	30.21
331.475	30.35
331.686	30.32
331.897	30.39
332.108	30.47
332.319	30.73
332.53	30.8
332.741	31.04
332.952	30.95
333.163	31.16
333.374	31.22
333.585	31.65
333.795	32.02
334.006	32.21
334.217	32.17
334.428	32.52
334.639	32.57
334.849	33.28
335.06	33.45
335.271	33.77
335.482	34.08
335.692	34.64
335.903	34.53
336.114	34.44
336.325	34.5
336.535	34.9
336.746	34.73
336.957	34.97
337.167	34.77
337.378	34.5
337.589	34.71
337.799	34.61
338.01	34.5
338.22	34.79
338.431	34.62
338.642	34.59
338.852	34.25
339.063	34.17
339.273	33.95
339.484	33.92
339.694	34.3
339.905	34.27
340.115	34.21
340.326	33.82
340.536	33.78
340.746	33.55
340.957	33.46
341.167	33.35
341.378	33.43
341.588	33.37
341.799	33.12
342.009	32.9
342.219	32.69
342.43	32.87
342.64	32.99
342.85	32.83
343.061	33.5
343.271	33.7
343.481	33.87
343.691	33.95
343.902	34.13
344.112	34.52
344.322	34.5
344.532	34.52
344.743	34.63
344.953	34.62
345.163	34.76
345.373	34.46
345.583	34.08
345.793	34.04
346.004	34.08
346.214	33.84
346.424	33.57
346.634	33.55
346.844	33.9
347.054	33.8
347.264	33.94
347.474	34.03
347.684	33.78
347.894	33.99
348.104	33.95
348.314	33.99
348.524	34.01
348.734	34.19
348.944	34.14
349.154	33.72
349.364	33.56
349.574	33.49
349.784	33.31
349.994	33.38
350.204	33.74
350.413	33.79
350.623	33.69
350.833	33.73
351.043	33.61
351.253	33.83
351.463	33.72
351.672	33.91
351.882	33.84
352.092	33.36
352.302	33.49
352.511	33.35
352.721	33.34
352.931	33
353.141	33.26
353.35	33.07
353.56	33.11
353.77	33.07
353.979	33.02
354.189	33.23
354.399	33.54
354.608	33.27
354.818	33.25
355.027	33.36
355.237	33.29
355.447	32.84
355.656	32.9
355.866	32.58
356.075	32.63
356.285	32.43
356.494	32.13
356.704	32.16
356.913	32.14
357.123	32.01
357.332	31.81
357.542	31.89
357.751	32.22
357.96	32.49
358.17	32.64
358.379	32.67
358.589	32.73
358.798	32.77
359.007	32.68
359.217	32.81
359.426	32.67
359.635	32.79
359.845	32.82
360.054	32.79
360.263	32.41
360.472	32.22
360.682	32.37
360.891	32.22
361.1	32.16
361.309	31.91
361.519	31.68
361.728	31.7
361.937	31.43
362.146	31.47
362.355	31.29
362.564	31.55
362.774	31.55
362.983	31.09
363.192	31.06
363.401	31.06
363.61	31.09
363.819	31.42
364.028	31.35
364.237	31.22
364.446	31.2
364.655	30.96
364.864	30.78
365.073	30.84
365.282	30.92
365.491	31.08
365.7	30.94
365.909	30.95
366.118	30.73
366.327	30.62
366.536	31.07
366.745	30.88
366.954	31.06
367.162	30.9
367.371	30.9
367.58	31.24
367.789	31.03
367.998	31
368.207	31.02
368.415	31.03
368.624	30.93
368.833	30.81
369.042	31.03
369.25	30.82
369.459	30.99
369.668	30.84
369.877	30.51
370.085	30.45
370.294	30.47
370.503	30.31
370.711	30.26
370.92	30.29
371.129	30.05
371.337	29.82
371.546	29.59
371.754	29.28
371.963	29.16
372.171	28.9
372.38	28.62
372.589	28.75
372.797	28.77
373.006	28.63
373.214	28.7
373.423	28.48
373.631	28.43
373.84	28.81
374.048	29.2
374.256	29.3
374.465	29.4
374.673	29.72
374.882	29.66
375.09	29.71
375.298	29.88
375.507	29.79
375.715	29.77
375.923	29.81
376.132	29.8
376.34	29.61
376.548	29.54
376.757	29.7
376.965	29.33
377.173	29.09
377.381	28.96
377.59	28.85
377.798	28.82
378.006	28.7
378.214	28.56
378.423	28.39
378.631	28.06
378.839	28.18
379.047	27.97
379.255	28.37
379.463	28.37
379.671	28.5
379.879	28.23
380.088	28.12
380.296	28.24
380.504	28.2
380.712	28.12
380.92	28.04
381.128	27.75
381.336	27.56
381.544	27.37
381.752	27.44
381.96	27.21
382.168	27.16
382.376	26.89
382.584	26.61
382.791	26.46
382.999	26.39
383.207	26.31
383.415	26.49
383.623	26.75
383.831	26.62
384.039	26.37
384.247	26.54
384.454	26.66
384.662	26.94
384.87	26.97
385.078	26.91
385.285	26.78
385.493	26.97
385.701	26.72
385.909	26.43
386.116	26.44
386.324	26.5
386.532	26.04
386.739	25.98
386.947	25.8
387.155	26.03
387.362	26.11
387.57	26.22
387.778	26.2
387.985	26.06
388.193	26.15
388.4	25.92
388.608	25.91
388.816	26.08
389.023	26.13
389.231	25.94
389.438	25.82
389.646	25.63
389.853	25.5
390.061	25.24
390.268	25.37
390.475	25.43
390.683	25.53
390.89	25.36
391.098	25.3
391.305	25.35
391.512	25.34
391.72	25.05
391.927	24.99
392.135	24.93
392.342	24.77
392.549	24.54
392.756	24.11
392.964	23.97
393.171	23.92
393.378	23.98
393.586	23.75
393.793	23.83
394	23.98
394.207	24.07
394.414	24.05
394.622	24.11
394.829	24.15
395.036	24.18
395.243	24.19
395.45	24.19
395.657	24.13
395.864	23.95
396.072	23.89
396.279	23.75
396.486	23.62
396.693	23.59
396.9	23.58
397.107	23.52
397.314	23.68
397.521	23.59
397.728	23.69
397.935	23.44
398.142	23.57
398.349	23.58
398.556	23.72
398.763	23.66
398.97	23.52
399.177	23.39
399.383	23.37
399.59	23.33
399.797	23.4
400.004	23.45
400.211	23.48
400.418	23.28
400.625	23.23
400.831	23.2
401.038	23.15
401.245	23.2
401.452	23.35
401.658	23.38
401.865	23.43
402.072	23.35
402.279	23.15
402.485	22.96
402.692	23.14
402.899	23.12
403.105	22.96
403.312	23.11
403.519	23.03
403.725	22.81
403.932	22.77
404.138	22.58
404.345	22.51
404.552	22.4
404.758	22.53
404.965	22.44
405.171	22.4
405.378	22.29
405.584	22.27
405.791	22.34
405.997	22.41
406.204	22.34
406.41	22.43
406.617	22.45
406.823	22.4
407.029	22.2
407.236	22
407.442	21.98
407.649	22.23
407.855	21.98
408.061	21.94
408.268	21.88
408.474	21.82
408.68	21.71
408.887	21.95
409.093	21.96
409.299	22.24
409.505	22.21
409.712	22.14
409.918	21.99
410.124	22.02
410.33	21.91
410.537	22.07
410.743	22.22
410.949	22.15
411.155	21.77
411.361	21.72
411.567	21.46
411.773	21.56
411.98	21.43
412.186	21.46
412.392	21.62
412.598	21.55
412.804	21.33
413.01	21.14
413.216	21.21
413.422	21.25
413.628	21.43
413.834	21.49
414.04	21.41
414.246	21.43
414.452	21.41
414.658	21.32
414.864	21.38
415.07	21.45
415.275	21.41
415.481	21.3
415.687	21.16
415.893	21.02
416.099	20.96
416.305	21.04
416.511	21.01
416.716	20.95
416.922	20.9
417.128	20.86
417.334	20.91
417.539	20.89
417.745	20.87
417.951	20.96
418.157	20.97
418.362	20.89
418.568	20.75
418.774	20.78
418.979	20.74
419.185	20.75
419.391	20.71
419.596	20.53
419.802	20.49
420.008	20.45
420.213	20.42
420.419	20.39
420.624	20.45
420.83	20.45
421.035	20.37
421.241	20.35
421.446	20.24
421.652	20.21
421.857	20.28
422.063	20.21
422.268	20.24
422.474	20.12
422.679	20.14
422.885	20.07
423.09	20.07
423.295	20.02
423.501	20.02
423.706	20.04
423.911	19.94
424.117	19.81
424.322	19.82
424.527	19.82
424.733	19.89
424.938	19.71
425.143	19.75
425.349	19.73
425.554	19.78
425.759	19.69
425.964	19.66
426.169	19.66
426.375	19.73
426.58	19.65
426.785	19.5
426.99	19.4
427.195	19.41
427.4	19.29
427.605	19.26
427.811	19.13
428.016	19.08
428.221	19.12
428.426	19.29
428.631	19.38
428.836	19.48
429.041	19.65
429.246	19.72
429.451	19.76
429.656	19.82
429.861	19.87
430.066	19.95
430.271	20.03
430.476	20.06
430.681	20
430.886	19.94
431.09	19.93
431.295	19.84
431.5	19.73
431.705	19.77
431.91	19.76
432.115	19.73
432.32	19.69
432.524	19.56
432.729	19.51
432.934	19.35
433.139	19.37
433.343	19.37
433.548	19.43
433.753	19.56
433.958	19.65
434.162	19.61
434.367	19.6
434.572	19.53
434.776	19.54
434.981	19.56
435.186	19.75
435.39	19.67
435.595	19.73
435.799	19.57
436.004	19.54
436.209	19.51
436.413	19.52
436.618	19.47
436.822	19.58
437.027	19.73
437.231	19.67
437.436	19.67
437.64	19.69
437.845	19.6
438.049	19.71
438.253	19.75
438.458	19.78
438.662	19.79
438.867	19.79
439.071	19.84
439.275	19.72
439.48	19.75
439.684	19.69
439.888	19.68
440.093	19.69
440.297	19.67
440.501	19.58
440.706	19.5
440.91	19.5
441.114	19.4
441.318	19.29
441.523	19.33
441.727	19.32
441.931	19.33
442.135	19.22
442.339	19.31
442.543	19.14
442.748	19.12
442.952	19.12
443.156	19.02
443.36	19.16
443.564	19.22
443.768	19.22
443.972	19.22
444.176	19.28
444.38	19.38
444.584	19.3
444.788	19.38
444.992	19.4
445.196	19.37
445.4	19.47
445.604	19.41
445.808	19.33
446.012	19.31
446.216	19.25
446.42	19.17
446.624	19.1
446.828	19.1
447.032	19.06
447.235	19.09
447.439	19.1
447.643	19.01
447.847	19.06
448.051	19.03
448.254	19.08
448.458	19.12
448.662	19.2
448.866	19.22
449.069	19.08
449.273	19.21
449.477	19.22
449.681	19.29
449.884	19.35
450.088	19.3
450.292	19.41
450.495	19.26
450.699	19.31
450.902	19.11
451.106	19.07
451.31	19.14
451.513	19.09
451.717	18.95
451.92	18.85
452.124	18.77
452.327	18.69
452.531	18.6
452.734	18.73
452.938	18.62
453.141	18.79
453.345	18.76
453.548	18.71
453.752	18.75
453.955	18.71
454.158	18.7
454.362	18.66
454.565	18.69
454.769	18.76
454.972	18.62
455.175	18.62
455.379	18.51
455.582	18.59
455.785	18.57
455.988	18.44
456.192	18.51
456.395	18.46
456.598	18.58
456.801	18.67
457.005	18.67
457.208	18.74
457.411	18.73
457.614	18.69
457.817	18.78
458.021	18.76
458.224	18.76
458.427	18.78
458.63	18.86
458.833	18.88
459.036	18.79
459.239	18.69
459.442	18.63
459.645	18.6
459.848	18.62
460.051	18.55
460.254	18.68
460.457	18.75
460.66	18.75
460.863	18.71
461.066	18.62
461.269	18.6
461.472	18.65
461.675	18.72
461.878	18.78
462.081	18.93
462.284	19.06
462.486	19.08
462.689	19.1
462.892	19.1
463.095	19.15
463.298	19.28
463.5	19.44
463.703	19.55
463.906	19.54
464.109	19.67
464.311	19.54
464.514	19.43
464.717	19.39
464.92	19.44
465.122	19.44
465.325	19.44
465.528	19.47
465.73	19.47
465.933	19.45
466.135	19.48
466.338	19.39
466.541	19.44
466.743	19.43
466.946	19.48
467.148	19.51
467.351	19.47
467.553	19.52
467.756	19.42
467.958	19.39
468.161	19.3
468.363	19.29
468.566	19.38
468.768	19.45
468.971	19.56
469.173	19.43
469.375	19.33
469.578	19.31
469.78	19.3
469.983	19.36
470.185	19.31
470.387	19.48
470.59	19.55
470.792	19.48
470.994	19.47
471.196	19.36
471.399	19.45
471.601	19.41
471.803	19.37
472.005	19.38
472.208	19.27
472.41	19.35
472.612	19.16
472.814	19.08
473.016	19.13
473.218	19.09
473.421	19.17
473.623	19.22
473.825	19.43
474.027	19.59
474.229	19.68
474.431	19.81
474.633	19.83
474.835	19.93
475.037	19.92
475.239	19.89
475.441	19.94
475.643	19.93
475.845	19.8
476.047	19.73
476.249	19.71
476.451	19.63
476.653	19.67
476.855	19.7
477.057	19.66
477.258	19.68
477.46	19.69
477.662	19.68
477.864	19.65
478.066	19.77
478.268	19.79
478.469	19.81
478.671	19.75
478.873	19.68
479.075	19.59
479.276	19.59
479.478	19.55
479.68	19.5
479.882	19.51
480.083	19.52
480.285	19.49
480.487	19.45
480.688	19.43
480.89	19.48
481.091	19.45
481.293	19.44
481.495	19.43
481.696	19.4
481.898	19.4
482.099	19.32
482.301	19.27
482.502	19.2
482.704	19.14
482.905	19.06
483.107	18.97
483.308	18.93
483.51	18.9
483.711	18.88
483.913	18.9
484.114	18.86
484.315	18.85
484.517	18.89
484.718	18.94
484.92	18.97
485.121	19.06
485.322	19.1
485.524	19.13
485.725	19.18
485.926	19.19
486.127	19.12
486.329	19.13
486.53	19.12
486.731	19.08
486.932	19.07
487.134	19.07
487.335	19.05
487.536	19.02
487.737	19
487.938	18.98
488.139	19
488.341	19.09
488.542	19.13
488.743	19.23
488.944	19.26
489.145	19.34
489.346	19.39
489.547	19.44
489.748	19.51
489.949	19.51
490.15	19.49
490.351	19.44
490.552	19.45
490.753	19.41
490.954	19.4
491.155	19.38
491.356	19.37
491.557	19.36
491.758	19.34
491.959	19.37
492.159	19.41
492.36	19.45
492.561	19.52
492.762	19.6
492.963	19.7
493.164	19.76
493.364	19.88
493.565	19.88
493.766	19.87
493.967	19.91
494.167	20.06
494.368	20.13
494.569	20.25
494.769	20.35
494.97	20.31
495.171	20.39
495.371	20.43
495.572	20.46
495.773	20.52
495.973	20.57
496.174	20.56
496.375	20.5
496.575	20.57
496.776	20.59
496.976	20.66
497.177	20.69
497.377	20.66
497.578	20.64
497.778	20.6
497.979	20.64
498.179	20.68
498.38	20.85
498.58	20.94
498.78	20.91
498.981	20.93
499.181	20.97
499.382	21.08
499.582	21.17
499.782	21.31
499.983	21.41
500.183	21.52
500.383	21.52
500.584	21.44
500.784	21.52
500.984	21.71
501.184	21.77
501.385	21.82
501.585	21.86
501.785	21.82
501.985	21.87
502.185	22.04
502.386	22.04
502.586	22.23
502.786	22.39
502.986	22.44
503.186	22.39
503.386	22.4
503.586	22.5
503.786	22.54
503.987	22.63
504.187	22.73
504.387	22.74
504.587	22.8
504.787	22.78
504.987	22.88
505.187	22.96
505.387	23.05
505.587	23.2
505.786	23.21
505.986	23.26
506.186	23.41
506.386	23.45
506.586	23.61
506.786	23.65
506.986	23.81
507.186	23.87
507.386	23.93
507.585	23.99
507.785	24
507.985	24.04
508.185	24.13
508.384	24.23
508.584	24.23
508.784	24.2
508.984	24.34
509.183	24.4
509.383	24.42
509.583	24.59
509.782	24.67
509.982	24.79
510.182	24.92
510.381	25.01
510.581	25.04
510.781	25.18
510.98	25.24
511.18	25.41
511.379	25.46
511.579	25.55
511.778	25.56
511.978	25.66
512.177	25.75
512.377	25.9
512.576	25.99
512.776	26.14
512.975	26.25
513.175	26.36
513.374	26.38
513.573	26.44
513.773	26.59
513.972	26.72
514.172	26.78
514.371	26.94
514.57	26.96
514.77	27.08
514.969	27.15
515.168	27.26
515.367	27.48
515.567	27.54
515.766	27.63
515.965	27.71
516.164	27.75
516.364	27.88
516.563	27.89
516.762	27.97
516.961	28
517.16	28.05
517.359	28.06
517.559	28.01
517.758	28.04
517.957	28.16
518.156	28.2
518.355	28.25
518.554	28.27
518.753	28.29
518.952	28.37
519.151	28.5
519.35	28.6
519.549	28.75
519.748	28.84
519.947	29.03
520.146	29.09
520.345	29.17
520.544	29.31
520.743	29.49
520.942	29.7
521.141	29.8
521.339	29.87
521.538	29.98
521.737	30.08
521.936	30.23
522.135	30.33
522.333	30.37
522.532	30.57
522.731	30.69
522.93	30.71
523.129	30.75
523.327	30.82
523.526	30.88
523.725	30.94
523.923	31.04
524.122	31.17
524.321	31.17
524.519	31.2
524.718	31.26
524.917	31.31
525.115	31.38
525.314	31.46
525.512	31.51
525.711	31.64
525.909	31.72
526.108	31.71
526.306	31.77
526.505	31.88
526.703	31.89
526.902	31.89
527.1	31.9
527.299	31.88
527.497	31.89
527.696	31.91
527.894	31.86
528.092	31.87
528.291	31.89
528.489	31.91
528.688	31.88
528.886	32
529.084	32.08
529.283	32.16
529.481	32.28
529.679	32.38
529.877	32.56
530.076	32.74
530.274	32.92
530.472	33.07
530.67	33.14
530.869	33.28
531.067	33.26
531.265	33.27
531.463	33.31
531.661	33.33
531.859	33.39
532.057	33.38
532.255	33.41
532.454	33.36
532.652	33.39
532.85	33.42
533.048	33.4
533.246	33.49
533.444	33.59
533.642	33.65
533.84	33.73
534.038	33.75
534.236	33.82
534.434	33.91
534.632	33.99
534.83	34.03
535.027	34.12
535.225	34.11
535.423	34.12
535.621	34.1
535.819	34.11
536.017	34.21
536.215	34.15
536.412	34.1
536.61	33.98
536.808	34.02
537.006	34
537.203	34.02
537.401	34.21
537.599	34.32
537.797	34.43
537.994	34.54
538.192	34.66
538.39	34.94
538.587	35.1
538.785	35.28
538.983	35.3
539.18	35.35
539.378	35.24
539.575	35.27
539.773	35.27
539.97	35.26
540.168	35.24
540.366	35.18
540.563	35.1
540.761	35.03
540.958	35
541.155	35.04
541.353	35.06
541.55	35.14
541.748	35.15
541.945	35.15
542.143	35.11
542.34	35.12
542.537	35.19
542.735	35.27
542.932	35.38
543.129	35.41
543.327	35.44
543.524	35.49
543.721	35.6
543.919	35.62
544.116	35.72
544.313	35.86
544.51	35.93
544.708	35.98
544.905	35.99
545.102	36.02
545.299	36.13
545.496	36.11
545.693	36.14
545.891	36.12
546.088	36.13
546.285	36.14
546.482	36.21
546.679	36.16
546.876	36.07
547.073	36.08
547.27	36.06
547.467	36.13
547.664	36.13
547.861	36.16
548.058	36.31
548.255	36.39
548.452	36.39
548.649	36.4
548.846	36.47
549.043	36.66
549.24	36.75
549.437	36.87
549.633	36.83
549.83	36.95
550.027	36.96
550.224	36.85
550.421	36.83
550.618	36.89
550.814	36.89
551.011	36.91
551.208	37
551.405	37.01
551.601	36.99
551.798	37.03
551.995	37.09
552.191	37.11
552.388	37.2
552.585	37.23
552.781	37.26
552.978	37.26
553.175	37.43
553.371	37.44
553.568	37.4
553.764	37.51
553.961	37.47
554.157	37.46
554.354	37.42
554.55	37.4
554.747	37.42
554.943	37.49
555.14	37.54
555.336	37.44
555.533	37.44
555.729	37.43
555.926	37.44
556.122	37.61
556.318	37.73
556.515	37.91
556.711	37.91
556.907	38.06
557.104	38.12
557.3	38.19
557.496	38.33
557.693	38.32
557.889	38.5
558.085	38.42
558.281	38.35
558.478	38.3
558.674	38.28
558.87	38.3
559.066	38.26
559.262	38.25
559.459	38.2
559.655	38.21
559.851	38.29
560.047	38.33
560.243	38.4
560.439	38.44
560.635	38.48
560.831	38.51
561.027	38.52
561.223	38.56
561.419	38.53
561.615	38.59
561.811	38.64
562.007	38.75
562.203	38.73
562.399	38.77
562.595	38.92
562.791	39.04
562.987	39.19
563.183	39.35
563.379	39.4
563.575	39.49
563.771	39.56
563.966	39.56
564.162	39.49
564.358	39.48
564.554	39.45
564.75	39.38
564.945	39.34
565.141	39.28
565.337	39.27
565.533	39.28
565.728	39.24
565.924	39.2
566.12	39.28
566.315	39.27
566.511	39.37
566.707	39.52
566.902	39.58
567.098	39.63
567.293	39.72
567.489	39.88
567.684	39.89
567.88	40.02
568.076	40.24
568.271	40.29
568.467	40.37
568.662	40.39
568.858	40.39
569.053	40.35
569.248	40.37
569.444	40.29
569.639	40.25
569.835	40.22
570.03	40.34
570.225	40.3
570.421	40.25
570.616	40.34
570.812	40.4
571.007	40.36
571.202	40.6
571.397	40.63
571.593	40.64
571.788	40.73
571.983	40.81
572.178	40.71
572.374	40.75
572.569	40.77
572.764	40.78
572.959	40.84
573.154	41.02
573.35	40.93
573.545	41.06
573.74	41.13
573.935	41.05
574.13	41.12
574.325	41.16
574.52	41.14
574.715	41.26
574.91	41.28
575.105	41.22
575.3	41.17
575.495	41.09
575.69	41.06
575.885	41.17
576.08	41.21
576.275	41.28
576.47	41.38
576.665	41.42
576.86	41.34
577.055	41.23
577.25	41.35
577.444	41.5
577.639	41.78
577.834	41.64
578.029	41.57
578.224	41.69
578.418	41.63
578.613	41.69
578.808	41.81
579.003	41.92
579.197	42.08
579.392	42.05
579.587	41.81
579.781	41.72
579.976	41.98
580.171	42.06
580.365	42.13
580.56	42.12
580.755	41.92
580.949	41.89
581.144	41.97
581.338	41.92
581.533	41.95
581.727	42.1
581.922	42.24
582.116	42.19
582.311	42.24
582.505	42.19
582.7	42.18
582.894	42.36
583.089	42.24
583.283	42.16
583.478	42.25
583.672	42.36
583.866	42.45
584.061	42.32
584.255	42.31
584.449	42.31
584.644	42.18
584.838	42.26
585.032	42.29
585.226	42.47
585.421	42.57
585.615	42.56
585.809	42.54
586.003	42.51
586.198	42.53
586.392	42.67
586.586	42.59
586.78	42.82
586.974	42.91
587.168	43.03
587.363	43.09
587.557	43.05
587.751	43.13
587.945	43.16
588.139	43.18
588.333	43.19
588.527	43.11
588.721	43.25
588.915	43.18
589.109	43.21
589.303	43.12
589.497	43.1
589.691	43.09
589.885	43.13
590.079	43.25
590.273	43.09
590.466	43.17
590.66	43.24
590.854	43.27
591.048	43.36
591.242	43.46
591.436	43.67
591.629	43.77
591.823	43.89
592.017	43.72
592.211	43.63
592.404	43.85
592.598	43.84
592.792	43.85
592.986	43.88
593.179	43.97
593.373	43.97
593.567	43.84
593.76	43.96
593.954	44.03
594.147	44.3
594.341	44.31
594.535	44.47
594.728	44.56
594.922	44.69
595.115	44.77
595.309	44.72
595.502	44.76
595.696	44.91
595.889	44.79
596.083	44.85
596.276	44.73
596.47	44.84
596.663	44.77
596.856	44.72
597.05	44.64
597.243	44.59
597.437	44.51
597.63	44.45
597.823	44.32
598.017	44.36
598.21	44.37
598.403	44.38
598.596	44.34
598.79	44.26
598.983	44.14
599.176	44.25
599.369	44.16
599.563	44.41
599.756	44.53
599.949	44.54
600.142	44.63
600.335	44.56
600.528	44.8
600.722	44.78
600.915	44.8
601.108	45.03
601.301	45.11
601.494	45.2
601.687	45.07
601.88	44.99
602.073	45.07
602.266	45.06
602.459	45.12
602.652	45.04
602.845	45.04
603.038	45.05
603.231	45.12
603.424	44.95
603.617	44.97
603.809	45
604.002	44.94
604.195	44.86
604.388	44.79
604.581	44.83
604.774	44.88
604.966	44.88
605.159	44.82
605.352	44.64
605.545	44.77
605.737	44.77
605.93	44.89
606.123	45.17
606.316	45.35
606.508	45.43
606.701	45.3
606.894	45.22
607.086	45.38
607.279	45.34
607.471	45.45
607.664	45.36
607.857	45.42
608.049	45.33
608.242	45.16
608.434	45.08
608.627	45.06
608.819	45.07
609.012	45
609.204	44.95
609.397	45.35
609.589	45.47
609.782	45.59
609.974	45.53
610.166	45.61
610.359	45.71
610.551	45.79
610.743	45.91
610.936	46.11
611.128	46.17
611.32	46.1
611.513	45.94
611.705	45.75
611.897	45.67
612.09	45.87
612.282	45.97
612.474	45.9
612.666	45.76
612.858	45.78
613.051	45.55
613.243	45.59
613.435	45.49
613.627	45.33
613.819	45.2
614.011	45.56
614.203	45.44
614.395	45.3
614.588	45.41
614.78	45.58
614.972	45.45
615.164	45.54
615.356	45.5
615.548	45.78
615.74	45.87
615.932	46.24
616.124	45.82
616.315	46.14
616.507	46.2
616.699	46.13
616.891	46.1
617.083	46.03
617.275	46.15
617.467	46.34
617.659	46.35
617.85	46.36
618.042	46.37
618.234	46.3
618.426	46.01
618.618	45.87
618.809	45.94
619.001	46
619.193	46.12
619.384	46.11
619.576	46.1
619.768	45.98
619.959	46.08
620.151	45.92
620.343	46.02
620.534	45.82
620.726	45.95
620.917	45.87
621.109	45.78
621.301	45.94
621.492	45.76
621.684	45.76
621.875	45.72
622.067	45.64
622.258	45.77
622.45	45.93
622.641	46.03
622.832	46.07
623.024	46
623.215	46.1
623.407	45.99
623.598	46.33
623.789	46.29
623.981	46.34
624.172	46.4
624.363	46.3
624.555	46.23
624.746	46.24
624.937	46.37
625.129	46.53
625.32	46.33
625.511	46.42
625.702	46.12
625.893	46.27
626.085	46.14
626.276	46.04
626.467	46.15
626.658	46.04
626.849	46.15
627.04	46.03
627.231	45.9
627.422	46.06
627.614	46.07
627.805	45.96
627.996	45.92
628.187	46.03
628.378	46.17
628.569	46.08
628.76	46.28
628.951	46.15
629.142	46.16
629.332	46.12
629.523	46.03
629.714	45.97
629.905	46.3
630.096	46.32
630.287	46.54
630.478	46.5
630.669	46.43
630.859	46.44
631.05	46.52
631.241	46.56
631.432	46.63
631.623	46.72
631.813	46.65
632.004	46.63
632.195	46.68
632.385	46.52
632.576	46.48
632.767	46.57
632.957	46.57
633.148	46.54
633.339	46.51
633.529	46.53
633.72	46.59
633.91	46.67
634.101	46.74
634.292	46.56
634.482	46.51
634.673	46.46
634.863	46.43
635.054	46.42
635.244	46.46
635.435	46.42
635.625	46.4
635.815	46.38
636.006	46.36
636.196	46.13
636.387	46.27
636.577	46.36
636.767	46.61
636.958	46.71
637.148	46.58
637.338	46.54
637.529	46.66
637.719	46.86
637.909	46.83
638.099	46.96
638.29	47.07
638.48	47
638.67	47.2
638.86	47.09
639.05	47.1
639.241	47.09
639.431	47.16
639.621	47.19
639.811	46.92
640.001	46.99
640.191	46.79
640.381	46.82
640.571	47
640.761	46.96
640.951	46.93
641.141	46.77
641.331	46.84
641.521	46.91
641.711	46.87
641.901	46.85
642.091	47.01
642.281	47
642.471	47.12
642.661	46.83
642.851	46.72
643.041	46.65
643.231	46.93
643.42	47.18
643.61	47.2
643.8	47.12
643.99	47.36
644.18	47.01
644.369	47.21
644.559	47.14
644.749	47.32
644.939	47.24
645.128	47.26
645.318	47.16
645.508	47.03
645.697	47.03
645.887	47.06
646.076	47
646.266	47.06
646.456	46.87
646.645	47.06
646.835	46.88
647.024	46.92
647.214	46.91
647.403	46.7
647.593	46.71
647.782	46.74
647.972	46.88
648.161	46.88
648.351	46.84
648.54	46.96
648.73	46.82
648.919	46.94
649.108	46.91
649.298	47.06
649.487	47.1
649.677	47.14
649.866	46.93
650.055	47.07
650.244	46.99
650.434	47.07
650.623	46.99
650.812	47.06
651.002	47.08
651.191	47.09
651.38	47.05
651.569	47.34
651.758	47.3
651.947	47.43
652.137	47.16
652.326	47.34
652.515	47.3
652.704	47.34
652.893	47.32
653.082	47.34
653.271	47.53
653.46	47.33
653.649	47.12
653.838	47.23
654.027	47.25
654.216	47.44
654.405	47.42
654.594	47.43
654.783	47.68
654.972	47.69
655.161	47.72
655.35	47.55
655.539	47.74
655.728	47.58
655.916	47.56
656.105	47.64
656.294	47.44
656.483	47.42
656.672	47.62
656.86	47.4
657.049	47.33
657.238	47.27
657.427	47.38
657.615	47.49
657.804	47.47
657.993	47.38
658.181	47.39
658.37	47.44
658.559	47.4
658.747	47.19
658.936	47.43
659.125	47.25
659.313	47.21
659.502	47.28
659.69	47.33
659.879	47.54
660.067	47.38
660.256	47.41
660.444	47.57
660.633	47.65
660.821	47.83
661.01	47.49
661.198	47.7
661.387	47.86
661.575	47.47
661.763	47.26
661.952	47.27
662.14	47.57
662.328	47.18
662.517	47.15
662.705	46.96
662.893	46.89
663.082	47.18
663.27	47.1
663.458	47.08
663.646	47.02
663.834	47.07
664.023	46.91
664.211	46.73
664.399	46.96
664.587	46.75
664.775	46.93
664.963	46.8
665.152	46.47
665.34	46.67
665.528	46.53
665.716	46.78
665.904	46.79
666.092	46.92
666.28	47.1
666.468	47.26
666.656	47.51
666.844	47.76
667.032	48.11
667.22	48.22
667.408	48.04
667.596	48.26
667.784	48.08
667.971	48.16
668.159	48.21
668.347	48.04
668.535	48.01
668.723	48.04
668.911	47.7
669.098	47.37
669.286	47.47
669.474	47.58
669.662	47.63
669.849	47.77
670.037	47.89
670.225	47.67
670.413	47.93
670.6	47.93
670.788	47.47
670.976	47.54
671.163	47.66
671.351	47.69
671.538	47.69
671.726	47.5
671.913	47.59
672.101	47.3
672.289	47.43
672.476	47.07
672.664	47.25
672.851	47.63
673.039	47.66
673.226	47.9
673.413	47.92
673.601	47.94
673.788	48.02
673.976	48.05
674.163	48.39
674.35	48.18
674.538	48.36
674.725	48.37
674.912	48.35
675.1	48.46
675.287	48.2
675.474	48.03
675.662	48.17
675.849	48.17
676.036	48.08
676.223	47.96
676.411	48.26
676.598	48.3
676.785	48.01
676.972	47.98
677.159	48.34
677.346	48.58
677.533	48.64
677.721	48.54
677.908	48.61
678.095	48.52
678.282	48.39
678.469	48.58
678.656	48.66
678.843	48.66
679.03	48.48
679.217	48.2
679.404	48.02
679.591	48.14
679.778	47.88
679.964	47.95
680.151	48.01
680.338	48.21
680.525	48.1
680.712	47.96
680.899	48.11
681.086	48.36
681.272	48.36
681.459	48.73
681.646	48.83
681.833	49.05
682.02	48.68
682.206	48.74
682.393	48.41
682.58	48.59
682.766	48.65
682.953	48.51
683.14	48.62
683.326	48.78
683.513	48.65
683.7	48.52
683.886	48.64
684.073	48.78
684.259	48.98
684.446	48.99
684.632	48.84
684.819	49.09
685.005	49.09
685.192	48.98
685.378	48.98
685.565	48.96
685.751	49.1
685.938	48.89
686.124	49.16
686.31	49.09
686.497	49.22
686.683	49.17
686.87	48.93
687.056	48.79
687.242	48.62
687.429	48.43
687.615	48.39
687.801	48.42
687.987	48.66
688.174	48.57
688.36	48.82
688.546	48.67
688.732	48.85
688.918	48.91
689.105	49.3
689.291	49.32
689.477	49.62
689.663	49.83
689.849	49.69
690.035	49.58
690.221	49.8
690.407	49.59
690.593	49.68
690.779	49.5
690.965	49.43
691.151	49.15
691.337	49.66
691.523	49.42
691.709	49.06
691.895	49.09
692.081	49.03
692.267	48.81
692.453	48.84
692.639	49
692.825	48.8
693.011	48.56
693.196	48.65
693.382	48.28
693.568	48.24
693.754	48.37
693.94	48.07
694.125	48.4
694.311	48.89
694.497	48.89
694.682	48.7
694.868	48.94
695.054	49.32
695.239	49.26
695.425	49.18
695.611	49.19
695.796	48.98
695.982	49.35
696.168	49.08
696.353	48.55
696.539	48.56
696.724	48.5
696.91	48.3
697.095	48.11
697.281	48.55
697.466	48.48
697.652	48.6
697.837	48.55
698.023	48.33
698.208	48.44
698.393	48.33
698.579	48.41
698.764	48.56
698.949	48.65
699.135	48.83
699.32	48.47
699.505	48.47
699.691	48.19
699.876	48.3
700.061	48.14
700.246	47.96
700.432	48.14
700.617	47.87
700.802	47.8
700.987	47.78
701.172	47.8
701.358	47.68
701.543	47.77
701.728	47.97
701.913	48.37
702.098	48.6
702.283	49.13
702.468	49.55
702.653	49.6
702.838	49.49
703.023	49.74
703.208	49.78
703.393	49.96
703.578	49.96
703.763	49.99
703.948	49.73
704.133	49.88
704.318	49.71
704.503	49.16
704.688	49.26
704.873	49.31
705.057	49.45
705.242	49.12
705.427	49.08
705.612	48.76
705.797	48.44
705.981	48.61
706.166	48.83
706.351	48.59
706.536	48.54
706.72	48.55
706.905	49.02
707.09	48.72
707.274	49.14
707.459	49.32
707.644	49.85
707.828	50.14
708.013	49.51
708.197	49.13
708.382	49.02
708.567	49.33
708.751	49.25
708.936	48.84
709.12	48.9
709.305	48.86
709.489	48.77
709.673	48.5
709.858	48.4
710.042	48.91
710.227	48.77
710.411	48.9
710.596	48.7
710.78	48.56
710.964	48.95
711.149	48.91
711.333	48.88
711.517	49.01
711.702	49.26
711.886	48.92
712.07	48.66
712.254	48.77
712.438	49.28
712.623	49.41
712.807	49.58
712.991	49.44
713.175	49.3
713.359	49.38
713.544	49.25
713.728	49.01
713.912	49.47
714.096	49.59
714.28	49.36
714.464	48.83
714.648	48.87
714.832	49.06
715.016	49.02
715.2	49.08
715.384	48.93
715.568	49.01
715.752	49.49
715.936	49.56
716.12	49.45
716.304	49.84
716.488	49.61
716.671	49.64
716.855	49.49
717.039	49.14
717.223	49.45
717.407	49.43
717.59	49.2
717.774	48.64
717.958	48.54
718.142	48.53
718.325	48.63
718.509	48.8
718.693	48.74
718.877	48.34
719.06	49.04
719.244	48.98
719.428	49.05
719.611	48.92
719.795	48.95
719.978	49.1
720.162	49
720.345	48.35
720.529	48.21
720.713	48.15
720.896	48.48
721.08	47.78
721.263	47.82
721.446	47.31
721.63	47.73
721.813	47.7
721.997	47.18
722.18	47.29
722.364	47.81
722.547	48.36
722.73	48.12
722.914	48.13
723.097	48.08
723.28	47.99
723.464	48.3
723.647	48.25
723.83	48.25
724.013	48.27
724.197	48.41
724.38	48.53
724.563	48.02
724.746	48.46
724.929	48.83
725.112	48.46
725.296	48.78
725.479	49.1
725.662	48.69
725.845	48.48
726.028	48.96
726.211	49.1
726.394	48.92
726.577	48.86
726.76	48.8
726.943	48.24
727.126	49.06
727.309	48.11
727.492	47.55
727.675	47.63
727.858	47.78
728.041	47.47
728.224	47.08
728.407	46.95
728.589	47.13
728.772	47.08
728.955	47.65
729.138	47.47
729.321	47.89
729.503	47.92
729.686	47.99
729.869	48.15
730.052	48.27
730.234	48.64
730.417	48.79
730.6	48.73
730.782	48.66
730.965	48.63
731.148	48.81
731.33	48.71
731.513	49.26
731.695	49.45
731.878	49.58
732.061	49.78
732.243	50.02
732.426	50.36
732.608	50.43
732.791	50.69
732.973	50.79
733.156	50.89
733.338	51.26
733.52	50.98
733.703	51.09
733.885	50.85
734.068	50.33
734.25	49.37
734.432	48.72
734.615	48.84
734.797	48.86
734.979	48.3
735.162	47.81
735.344	47.6
735.526	47.84
735.708	47.41
735.891	47.65
736.073	47.77
736.255	48.03
736.437	48.59
736.619	48.76
736.802	48.83
736.984	48.67
737.166	48.78
737.348	49.07
737.53	48.67
737.712	48.61
737.894	48.17
738.076	48.17
738.258	48.55
738.44	48.19
738.622	48.25
738.804	48.14
738.986	48.7
739.168	48.98
739.35	48.48
739.532	48.62
739.714	48.98
739.896	49.37
740.078	49.36
740.259	49.23
740.441	49.46
740.623	49.16
740.805	48.93
740.987	48.96
741.168	49.24
741.35	49.67
741.532	49.83
741.714	49.92
741.895	49.65
742.077	50.12
742.259	49.59
742.44	49.43
742.622	48.84
742.804	49.21
742.985	49.12
743.167	49.18
743.348	48.69
743.53	48.68
743.711	48.18
743.893	48.49
744.075	48.49
744.256	49.13
744.438	49.27
744.619	50.43
744.8	50.47
744.982	49.87
745.163	49
745.345	49.58
745.526	49.91
745.707	49.9
745.889	49.65
746.07	49.02
746.252	49.4
746.433	49.46
746.614	49.04
746.795	48.14
746.977	48.91
747.158	49.61
747.339	49.96
747.52	49.7
747.702	49.74
747.883	50.01
748.064	50.09
748.245	49.59
748.426	49.85
748.607	49.97
748.788	50.38
748.97	50.14
749.151	49.88
749.332	49.15
749.513	49.37
749.694	49.66
749.875	49.82
750.056	50.19
750.237	50.34
750.418	50.23
750.599	49.96
750.78	49.88
750.96	50.3
751.141	50.19
751.322	50.19
751.503	49.81
751.684	49.6
751.865	49.21
752.046	49.01
752.226	48.54
752.407	47.66
752.588	47.55
752.769	47.2
752.949	46.07
753.13	46.2
753.311	46.74
753.492	47.11
753.672	47.73
753.853	48.07
754.034	48.2
754.214	49.18
754.395	49.86
754.575	49.68
754.756	50.06
754.937	50.88
755.117	50.33
755.298	49.86
755.478	49.21
755.659	49.32
755.839	49.35
756.02	49.23
756.2	48.6
756.381	48.74
756.561	49.15
756.741	48.73
756.922	48.64
757.102	48.3
757.283	48.61
757.463	49.06
757.643	48.44
757.823	47.9
758.004	48.2
758.184	48.46
758.364	48.73
758.545	47.88
758.725	48.85
758.905	48.66
759.085	49.74
759.265	49.73
759.446	49.21
759.626	49.34
759.806	49.51
759.986	49.67
760.166	49.63
760.346	49.38
760.526	50.19
760.706	50.32
760.886	50.04
761.066	49.72
761.246	49.38
761.426	49.43
761.606	49.26
761.786	48.65
761.966	48.02
762.146	48.1
762.326	48.24
762.506	47.52
762.686	47.16
762.866	47.29
763.046	47.05
763.225	46.83
763.405	47.03
763.585	47.05
763.765	47.61
763.945	47.24
764.124	46.84
764.304	46.38
764.484	46.82
764.664	47.08
764.843	47.1
765.023	47.03
765.203	47.76
765.382	47.58
765.562	47.97
765.741	47.83
765.921	49.07
766.101	48.79
766.28	48.71
766.46	48.94
766.639	48.6
766.819	48.31
766.998	48.94
767.178	48.35
767.357	48.48
767.537	48.09
767.716	47.85
767.896	47.17
768.075	47.84
768.254	48.33
768.434	48.74
768.613	49.06
768.792	49.48
768.972	50.02
769.151	50.39
769.33	49.91
769.51	49.47
769.689	50.45
769.868	51.02
770.047	51.49
770.226	51.2
770.406	50.61
770.585	50.15
770.764	50.28
770.943	49.53
771.122	48.64
771.301	48.85
771.48	48.9
771.66	48.76
771.839	47.79
772.018	47.54
772.197	47.55
772.376	47.35
772.555	47.91
772.734	48.32
772.913	48.16
773.092	48.2
773.271	47.77
773.449	48.3
773.628	47.96
773.807	48.24
773.986	48.14
774.165	48
774.344	48.45
774.523	47.95
774.701	47.22
774.88	46.45
775.059	47.63
775.238	47.88
775.417	47.8
775.595	47.78
775.774	47.97
775.953	47.67
776.131	48.42
776.31	48.16
776.489	47.73
776.667	47.79
776.846	49.21
777.025	48.8
777.203	49.03
777.382	48.98
777.56	48.45
777.739	48.59
777.917	48.47
778.096	47.71
778.274	47.66
778.453	48.22
778.631	49.19
778.81	48.16
778.988	47.5
779.166	47.79
779.345	48.52
779.523	48.77
779.702	48.55
779.88	48.18
780.058	48.23
780.237	48.12
780.415	48.65
780.593	48.66
780.771	48.81
780.95	49.19
781.128	49.34
781.306	48.44
781.484	48.43
781.662	48.45
781.841	48.75
782.019	48.78
782.197	48.84
782.375	48.64
782.553	47.96
782.731	47.78
782.909	47.29
783.087	47.51
783.265	47.46
783.443	47.14
783.621	47.59
783.799	47.79
783.977	48.17
784.155	48.82
784.333	48.99
784.511	49.23
784.689	49.63
784.867	50.29
785.045	49.66
785.223	50.42
785.4	50.62
785.578	50.68
785.756	50.45
785.934	49.97
786.112	49.87
786.289	49.32
786.467	48.92
786.645	49.18
786.823	48.71
787	48.95
787.178	48.28
787.356	48.14
787.533	47.59
787.711	48.42
787.889	48.84
788.066	48.48
788.244	48.16
788.421	47.71
788.599	47.42
788.776	47.78
788.954	47.65
789.131	47.83
789.309	47.52
789.486	48.1
789.664	47.29
789.841	47.29
790.019	46.03
790.196	46.22
790.373	46.5
790.551	46.9
790.728	46.57
790.906	47.47
791.083	46.62
791.26	46.47
791.437	46.41
791.615	47.22
791.792	47.52
791.969	48.92
792.146	49.07
792.324	49.43
792.501	49.79
792.678	49.5
792.855	48.58
793.032	48.72
793.209	49.48
793.387	49.12
793.564	48.8
793.741	48.54
793.918	48.06
794.095	48.46
794.272	48.06
794.449	46.58
794.626	47.87
794.803	48.18
794.98	49.79
795.157	49.57
795.334	49.47
795.511	49.03
795.688	49.01
795.864	50.02
796.041	50.04
796.218	50.71
796.395	51.64
796.572	50.94
796.749	50.99
796.925	49.43
797.102	49.63
797.279	49.69
797.456	49.52
797.632	49.3
797.809	48.95
797.986	49.28
798.162	48.33
798.339	48.96
798.516	49.02
798.692	48.8
798.869	49.61
799.046	49.15
799.222	48.2
799.399	48.22
799.575	48.96
799.752	49.08
799.928	48.27
800.105	49.24
800.281	48.58
800.458	48.66
800.634	47.74
800.811	47.53
800.987	47.85
801.163	49.36
801.34	50.14
801.516	49.31
801.692	49.86
801.869	49.99
802.045	49.7
802.221	50.04
802.398	50.34
802.574	51.1
802.75	50.53
802.926	51.94
803.103	49.78
803.279	48.8
803.455	48.94
803.631	48.6
803.807	48.34
803.983	47.95
804.16	48.16
804.336	47.78
804.512	46.53
804.688	47.61
804.864	46.4
805.04	47.87
805.216	48.86
805.392	49.22
805.568	48.28
805.744	49.47
805.92	49.65
806.096	49.07
806.272	48.73
806.448	50.31
806.623	50.32
806.799	50.82
806.975	51.18
807.151	51.16
807.327	50.59
807.503	51.02
807.678	49.34
807.854	50.27
808.03	49.03
808.206	50.47
808.381	50.3
808.557	50
808.733	48.79
808.908	48.47
809.084	49.09
809.26	49.93
809.435	49.35
809.611	49.22
809.787	47.83
809.962	49.69
810.138	48.46
810.313	47.86
810.489	48.02
810.664	48.8
810.84	48.57
811.015	48.04
811.191	47.54
811.366	48.88
811.542	50.04
811.717	50.08
811.892	49.76
812.068	49.93
812.243	49.74
812.419	50.15
812.594	50.66
812.769	52.94
812.944	52.54
813.12	52.49
813.295	51.13
813.47	49.88
813.645	50.55
813.821	49.72
813.996	49.71
814.171	50.08
814.346	49.38
814.521	48.99
814.697	47.59
814.872	48.01
815.047	48.41
815.222	50.65
815.397	50.88
815.572	50.91
815.747	51.74
815.922	52.56
816.097	53.14
816.272	53.66
816.447	54.19
816.622	54.08
816.797	53.81
816.972	52.82
817.147	51.28
817.322	52.24
817.496	51.8
817.671	51.61
817.846	51.38
818.021	50
818.196	50.27
818.371	50.45
818.545	50.38
818.72	51.15
818.895	51.41
819.069	50.52
819.244	50.36
819.419	51.14
819.594	51.17
819.768	50.13
819.943	50.72
820.117	49.19
820.292	48.46
820.467	48.43
820.641	47.93
820.816	48.33
820.99	48.37
821.165	48.1
821.339	47.55
821.514	47.07
821.688	46.85
821.863	46.56
822.037	46.65
822.212	46.48
822.386	46.4
822.56	46.13
822.735	45.82
822.909	45.86
823.084	45.67
823.258	45.51
823.432	45.54
823.606	45.88
823.781	46.24
823.955	46.42
824.129	46.85
824.303	46.83
824.478	47.14
824.652	47.05
824.826	46.99
825	47.61
825.174	47.91
825.348	47.6
825.523	47.13
825.697	46.82
825.871	47.07
826.045	46.92
826.219	47.06
826.393	46.92
826.567	47.19
826.741	47.22
826.915	46.71
827.089	46.78
827.263	47.32
827.437	48.26
827.611	48.09
827.784	48.26
827.958	48.26
828.132	47.86
828.306	48.03
828.48	47.75
828.654	48.41
828.827	48.5
829.001	49.15
829.175	48.84
829.349	48.52
829.522	48.81
829.696	48.15
829.87	47.86
830.044	48.52
830.217	48.72
830.391	49.65
830.565	48.11
830.738	48.34
830.912	46.78
831.085	47.26
831.259	46.55
831.432	47
831.606	47.31
831.779	47.42
831.953	46.31
832.126	45.82
832.3	45.43
832.473	45.27
832.647	45.12
832.82	44.72
832.994	44.34
833.167	44.87
833.34	44.92
833.514	44.28
833.687	44.15
833.86	45.25
834.034	45.33
834.207	45.41
834.38	46.09
834.553	46.09
834.727	47.06
834.9	48.37
835.073	48.41
835.246	48.78
835.419	49.52
835.593	50.35
835.766	50.22
835.939	50.76
836.112	50.37
836.285	50.86
836.458	51.3
836.631	50.98
836.804	49.92
836.977	49.93
837.15	49.27
837.323	49.52
837.496	49.12
837.669	48.3
837.842	47.7
838.015	49.08
838.188	47.9
838.361	47.17
838.533	49.26
838.706	49.58
838.879	49.14
839.052	50.26
839.225	52.22
839.398	50.58
839.57	50.89
839.743	50.17
839.916	49.32
840.088	49.87
840.261	51.07
840.434	49.8
840.607	49.72
840.779	49.41
840.952	46.64
841.124	43.84
841.297	45.85
841.47	47.9
841.642	49.67
841.815	50.55
841.987	49.5
842.16	50.2
842.332	49.44
842.505	52.31
842.677	54.7
842.85	58.91
843.022	61.34
843.194	60.33
843.367	56.75
843.539	58.43
843.712	57
843.884	60.63
844.056	60.89
844.229	65.39
844.401	60.78
844.573	60.06
844.745	60.37
844.918	58.11
845.09	59.5
845.262	65.44
845.434	63.63
845.606	63.07
845.779	62.46
845.951	62.96
846.123	56.04
846.295	55.92
846.467	54.31
846.639	56.69
846.811	57.13
846.983	57.62
847.155	51.45
847.327	51.67
847.499	54.19
847.671	54.01
847.843	51.49
848.015	53.97
848.187	58.4
848.359	60.34
848.531	54.86
848.703	57.39
848.875	56.98
849.047	59.24
849.218	61.36
849.39	57.55
849.562	56.86
849.734	57.53
849.905	59.56
850.077	60.15
850.249	54.9
850.421	57.3
850.592	56.81
850.764	55.61
850.936	58.83
851.107	55.85
851.279	60.28
851.451	62.26
851.622	61.46
851.794	61.81
851.965	59.04
852.137	61.58
852.308	58.13
852.48	58.37
852.651	59.72
852.823	61.27
852.994	61.13
853.166	58.75
853.337	56.26
853.509	58.96
853.68	59.1
853.851	60.71
854.023	61.53
854.194	62.5
854.365	60.05
854.537	57.28
854.708	57.6
854.879	55.94
855.05	59.23
855.222	60.14
855.393	61.33
855.564	60.11
855.735	54.18
855.906	54.87
856.078	57.28
856.249	58.25
856.42	59.33
856.591	55.63
856.762	56.86
856.933	51.11
857.104	48.12
857.275	49.44
857.446	52.78
857.617	57.76
857.788	62.28
857.959	65.57
858.13	65.38
858.301	65.45
858.472	62.39
858.643	67.42
858.814	68.76
858.985	70.66
859.155	67.11
859.326	61.62
859.497	59.61
859.668	53.59
859.839	47.67
860.009	44.51
860.18	45.52
860.351	45.86
860.522	45.46
860.692	42.34
860.863	44.24
861.034	48.04
861.204	46.79
861.375	44.92
861.546	44.5
861.716	45.77
861.887	48.03
862.057	50.88
862.228	52.94
862.398	46.69
862.569	51.49
862.739	51.76
862.91	48.51
863.08	49.61
863.251	54.04
863.421	54.68
863.592	56.85
863.762	55.5
863.932	52.1
864.103	50.73
864.273	53.5
864.443	51.5
864.614	46.64
864.784	46.55
864.954	49.4
865.125	52.57
865.295	55.18
865.465	58.81
865.635	57.69
865.805	63.41
865.976	63.2
866.146	65.52
866.316	64.81
866.486	68.84
866.656	73.8
866.826	70.9
866.996	68.1
867.166	64.74
867.336	54.99
867.506	60.65
867.676	55.75
867.846	54.41
868.016	53.51
868.186	54.57
868.356	52.04
868.526	47.85
868.696	49.57
868.866	45.67
869.036	53.83
869.206	55.7
869.376	46.58
869.545	45.93
869.715	50.32
869.885	47.26
870.055	49.56
870.224	47.12
870.394	46.03
870.564	45.82
870.734	51.17
870.903	41.67
871.073	45.88
871.243	51.81
871.412	56.88
871.582	53.65
871.751	53.54
871.921	49.8
872.091	54.2
872.26	57.12
872.43	51.36
872.599	49.31
872.769	53.07
872.938	52.4
873.108	53.37
873.277	51.11
873.446	52.74
873.616	54.88
873.785	56.51
873.955	55.54
874.124	52.16
874.293	58.2
874.463	54.64
874.632	55.06
874.801	54.56
874.971	55
875.14	54.47
875.309	54.27
875.478	53.23
875.647	51.92
875.817	51.24
875.986	54.68
876.155	55.81
876.324	57.94
876.493	61.17
876.662	63.5
876.831	61.83
877	59.6
877.17	61.1
877.339	64.59
877.508	67.69
877.677	71.41
877.846	69.42
878.015	66.2
878.184	64.2
878.352	56.21
878.521	53.35
878.69	52.22
878.859	52.01
879.028	48.64
879.197	45.63
879.366	43.47
879.534	40
879.703	41.92
879.872	43.82
880.041	45.77
880.21	48.74
880.378	48.47
880.547	48.29
880.716	48.84
880.884	49.11
881.053	49.44
881.222	49.95
881.39	48.98
881.559	47.99
881.727	46.89
881.896	46.52
882.065	45.63
882.233	45.35
882.402	45.08
882.57	44.44
882.739	44.59
882.907	44.82
883.076	44.13
883.244	44.9
883.412	44.91
883.581	45.19
883.749	45.37
883.918	45.98
884.086	46.6
884.254	46.92
884.423	48.29
884.591	49.6
884.759	48.64
884.927	49.51
885.096	49.89
885.264	51.62
885.432	53.19
885.6	53.52
885.769	53.9
885.937	54.81
886.105	55.81
886.273	57.21
886.441	56.18
886.609	56.79
886.777	55.37
886.945	57.31
887.113	56.51
887.281	55.38
887.449	53.95
887.617	51.99
887.785	52.04
887.953	53.33
888.121	48.42
888.289	47.27
888.457	49.13
888.625	49.61
888.793	50.99
888.961	53.58
889.129	55.33
889.296	59.13
889.464	63.76
889.632	62.64
889.8	62.07
889.967	68.82
890.135	71.02
