Data from 2938454_Reflection_1.txt Node
Date: Fri Jun 19 17:51:12 EDT 2015
User: robert
Spectrometer: USB4E03002
Autoset integration time: false
Trigger mode: 4
Integration Time (sec): 1.000000E-1
Scans to average: 10
Electric dark correction enabled: true
Nonlinearity correction enabled: false
Boxcar width: 5
Stray light correction enabled: false
XAxis mode: Wavelengths
Stop averaging: false
Number of Pixels in Spectrum: 3648
>>>>>Begin Spectral Data<<<<<
177.575	-275.07
177.794	-41.05
178.014	-128.74
178.233	-28.79
178.452	20.24
178.672	-213.58
178.891	88.6
179.11	-466.41
179.33	-359.16
179.549	-185.71
179.768	-79.24
179.987	-101.38
180.207	-92.8
180.426	-288.04
180.645	-154.99
180.864	-380.39
181.084	853.33
181.303	335.74
181.522	193.75
181.741	235.95
181.96	131.97
182.179	140.57
182.398	108.08
182.618	125.82
182.837	135.78
183.056	131.91
183.275	96.86
183.494	92.1
183.713	106.06
183.932	116.6
184.151	126.96
184.37	234.18
184.589	299.12
184.808	243.03
185.027	209.08
185.246	176.06
185.465	413.13
185.684	300850
185.903	-117.11
186.122	-109.6
186.341	-76.29
186.56	-92.72
186.779	-3.52
186.998	-33.41
187.216	27.24
187.435	34.26
187.654	47.49
187.873	52.61
188.092	42.74
188.311	50.07
188.53	66.23
188.748	10.83
188.967	97.83
189.186	-48.75
189.405	-172.84
189.623	-9220.63
189.842	-979.12
190.061	-181.16
190.28	-347.24
190.498	-273
190.717	384.63
190.936	266.24
191.154	245.16
191.373	173.44
191.592	129.52
191.81	243.25
192.029	335.78
192.248	75.08
192.466	109.23
192.685	61.69
192.904	66.45
193.122	82.24
193.341	-163.06
193.559	879.51
193.778	-2792.2
193.996	-537.89
194.215	441.24
194.433	236.78
194.652	-539.78
194.87	-33.59
195.089	-241.64
195.307	-133.71
195.526	-549.38
195.744	284.63
195.963	149400
196.181	536.4
196.399	221.71
196.618	129.11
196.836	150.05
197.055	128.75
197.273	124.08
197.491	106.32
197.71	82.88
197.928	118.92
198.146	134.13
198.365	93.23
198.583	94.44
198.801	171.22
199.019	569.48
199.238	408.59
199.456	544.83
199.674	560.51
199.892	-4136.05
200.111	-425.13
200.329	-314.67
200.547	-194.6
200.765	-128.3
200.983	-148.87
201.202	-137.57
201.42	-123.48
201.638	-109.47
201.856	-43.96
202.074	-72.38
202.292	29.69
202.51	6.71
202.728	22.89
202.946	-32.49
203.165	1405.26
203.383	-164.74
203.601	-66.23
203.819	-245.97
204.037	225.91
204.255	145.72
204.473	78.75
204.691	67.47
204.909	166.89
205.127	51.13
205.345	60.01
205.562	24.8
205.78	30.18
205.998	6.39
206.216	-94.85
206.434	-519.6
206.652	278.37
206.87	174.59
207.088	1381.79
207.306	233.75
207.523	85.24
207.741	76.96
207.959	85.36
208.177	97.4
208.395	83.28
208.612	70.97
208.83	75.6
209.048	73.2
209.266	56.49
209.483	42.5
209.701	39.29
209.919	56.7
210.136	84.11
210.354	80.51
210.572	71.43
210.79	73.74
211.007	73.67
211.225	58.65
211.442	65.91
211.66	81.66
211.878	65.35
212.095	88.16
212.313	76.41
212.53	49.25
212.748	50.53
212.966	44.67
213.183	52.37
213.401	73.79
213.618	78.59
213.836	77.28
214.053	80.66
214.271	135.02
214.488	98.91
214.705	107.61
214.923	111.94
215.14	99.24
215.358	79.45
215.575	135.2
215.793	89.52
216.01	74.2
216.227	74.64
216.445	46.68
216.662	55.71
216.879	40.61
217.097	45.79
217.314	48.26
217.531	46.74
217.749	52.06
217.966	52.25
218.183	40.84
218.4	39.84
218.618	30.8
218.835	41.66
219.052	49.58
219.269	54.35
219.487	56
219.704	53.89
219.921	57
220.138	53.21
220.355	64.07
220.572	48.93
220.79	41.32
221.007	39.18
221.224	28.39
221.441	26.77
221.658	26.13
221.875	3.34
222.092	-0.01
222.309	5.17
222.526	2.7
222.743	-9.87
222.96	2.99
223.177	1.74
223.394	1.32
223.611	8.2
223.828	11.11
224.045	10.09
224.262	20.55
224.479	23.33
224.696	22.96
224.913	25.79
225.13	29.19
225.347	25.95
225.564	25.45
225.781	22.62
225.997	20.44
226.214	19.21
226.431	18.59
226.648	16.79
226.865	14.58
227.082	13.48
227.298	11.57
227.515	11.17
227.732	10.65
227.949	10.91
228.165	11.61
228.382	11.78
228.599	10.6
228.816	10.19
229.032	8.16
229.249	9.19
229.466	8.24
229.682	9.81
229.899	8.43
230.116	8.79
230.332	7.94
230.549	9.86
230.765	8.29
230.982	9.46
231.199	10.89
231.415	14.36
231.632	14.22
231.848	16.49
232.065	15.74
232.281	18.03
232.498	18.29
232.714	17.58
232.931	16.36
233.147	19.82
233.364	21.91
233.58	21.69
233.797	23.31
234.013	23.46
234.23	20.85
234.446	22.62
234.662	21.44
234.879	21.17
235.095	19.49
235.312	21.1
235.528	20.16
235.744	16.25
235.961	16.83
236.177	13.63
236.393	12.88
236.61	14.08
236.826	14.97
237.042	13.32
237.258	12.57
237.475	14.85
237.691	14.72
237.907	14.28
238.123	13.84
238.339	11.81
238.556	12.9
238.772	12.36
238.988	13.04
239.204	12.11
239.42	13.79
239.636	14.8
239.853	13.95
240.069	13.08
240.285	12.55
240.501	12.59
240.717	13.33
240.933	12.6
241.149	12.62
241.365	12.63
241.581	12.42
241.797	12.05
242.013	11.76
242.229	11.85
242.445	12.62
242.661	13.17
242.877	13.06
243.093	12.73
243.309	12.82
243.525	13.11
243.741	12.17
243.957	12.51
244.173	11.51
244.388	9.95
244.604	10.26
244.82	9.36
245.036	8.88
245.252	9.01
245.468	8.57
245.683	8.55
245.899	8.09
246.115	8.11
246.331	7.65
246.547	7.58
246.762	8.08
246.978	8.13
247.194	8.38
247.409	8.22
247.625	8.97
247.841	9.51
248.057	9.76
248.272	10.02
248.488	10.37
248.703	10.24
248.919	10.93
249.135	11.1
249.35	10.44
249.566	10.16
249.782	11.15
249.997	9.65
250.213	9.91
250.428	9.68
250.644	10.35
250.859	9.75
251.075	10.36
251.29	10.83
251.506	10.8
251.721	11.42
251.937	12.26
252.152	12.35
252.368	12.15
252.583	12.02
252.798	12.01
253.014	11.6
253.229	13.2
253.445	11.94
253.66	9.76
253.875	9.72
254.091	8.16
254.306	6.9
254.521	6.22
254.737	7.29
254.952	6.9
255.167	7.96
255.383	8.31
255.598	8
255.813	8.07
256.028	8.64
256.244	8.76
256.459	9.37
256.674	9.2
256.889	7.86
257.104	7.38
257.32	6.97
257.535	6.26
257.75	5.67
257.965	5.69
258.18	5.62
258.395	5.78
258.61	5.92
258.826	5.67
259.041	5.2
259.256	5.77
259.471	5.95
259.686	6.32
259.901	6.52
260.116	6.4
260.331	6.17
260.546	6.66
260.761	6.65
260.976	6.28
261.191	6.49
261.406	7.78
261.621	7.13
261.836	6.9
262.05	6.5
262.265	6.97
262.48	8.23
262.695	8.85
262.91	8.67
263.125	7.23
263.34	7.12
263.555	6.67
263.769	5.35
263.984	6.77
264.199	6.51
264.414	7.23
264.629	6.55
264.843	6.21
265.058	5.99
265.273	5.46
265.488	6.23
265.702	5.8
265.917	6.27
266.132	6.82
266.346	5.77
266.561	5.52
266.776	4.88
266.99	5
267.205	5.54
267.42	5.3
267.634	5.09
267.849	5.44
268.063	6.16
268.278	6.18
268.492	5.82
268.707	6.16
268.922	6.76
269.136	6.88
269.351	6.89
269.565	6.51
269.78	6.75
269.994	6.89
270.209	6.81
270.423	6.66
270.637	6.82
270.852	7.29
271.066	7.49
271.281	7.59
271.495	7.91
271.709	7.68
271.924	7.32
272.138	7.26
272.353	7.99
272.567	8.08
272.781	8.59
272.996	8.45
273.21	8.57
273.424	8.63
273.638	8.33
273.853	7.94
274.067	7.85
274.281	8.75
274.495	8
274.71	7.66
274.924	7.82
275.138	7.7
275.352	7.7
275.566	7.73
275.781	7.72
275.995	7.88
276.209	8.13
276.423	8.48
276.637	7.61
276.851	7.77
277.065	8.12
277.279	8.11
277.493	7.89
277.707	7.61
277.921	7.12
278.135	6.78
278.349	6.34
278.563	6.32
278.777	6.6
278.991	6.26
279.205	6.37
279.419	6.01
279.633	6.05
279.847	5.92
280.061	5.7
280.275	5.9
280.489	5.64
280.703	6.22
280.917	5.7
281.131	5.22
281.344	5.86
281.558	5.86
281.772	5.7
281.986	5.6
282.2	5.62
282.414	5.53
282.627	5.43
282.841	5.45
283.055	5.77
283.269	6.2
283.482	6.82
283.696	6.71
283.91	7.42
284.123	7.37
284.337	7.19
284.551	7.16
284.764	7.43
284.978	7.08
285.192	7.59
285.405	7.22
285.619	7.17
285.833	7.17
286.046	7.22
286.26	7.11
286.473	7.61
286.687	7.6
286.9	7.94
287.114	8.13
287.327	8.5
287.541	7.91
287.754	8.17
287.968	8.12
288.181	7.31
288.395	7.24
288.608	6.71
288.822	6.65
289.035	6.66
289.248	5.58
289.462	5.51
289.675	5.55
289.889	5.98
290.102	5.66
290.315	5.18
290.529	5.71
290.742	5.52
290.955	6.1
291.169	5.85
291.382	6.19
291.595	7.31
291.808	7.55
292.022	7.79
292.235	7.81
292.448	7.28
292.661	7.71
292.875	7.87
293.088	8.81
293.301	8.71
293.514	8.68
293.727	8.42
293.94	8.42
294.153	8.22
294.367	7.97
294.58	8.28
294.793	8.42
295.006	8.52
295.219	8.45
295.432	8.27
295.645	7.91
295.858	8.05
296.071	8.04
296.284	7.87
296.497	8.01
296.71	8.32
296.923	7.98
297.136	8.42
297.349	7.96
297.562	7.88
297.775	7.34
297.988	7.71
298.201	7.79
298.414	7.94
298.626	8.51
298.839	8.03
299.052	7.46
299.265	7.4
299.478	6.9
299.691	7.46
299.903	7.47
300.116	7.9
300.329	7.76
300.542	7.29
300.755	7.33
300.967	6.58
301.18	7.16
301.393	7.85
301.605	8
301.818	8.19
302.031	8.13
302.243	7.97
302.456	7.32
302.669	7.16
302.881	7.39
303.094	7.42
303.307	7.16
303.519	6.71
303.732	6.39
303.944	6.5
304.157	6.57
304.37	6.86
304.582	7.11
304.795	7.81
305.007	8.14
305.22	7.73
305.432	7.26
305.645	7.44
305.857	8.15
306.069	8.5
306.282	8.21
306.494	8.38
306.707	8.05
306.919	7.75
307.132	7.34
307.344	7.16
307.556	7.4
307.769	7.66
307.981	7.98
308.193	7.68
308.406	7.21
308.618	7.03
308.83	6.84
309.043	7.39
309.255	7.57
309.467	8.01
309.679	8.15
309.892	8.37
310.104	8.62
310.316	8.59
310.528	8.77
310.74	9.23
310.953	9.22
311.165	9.59
311.377	9.71
311.589	10.02
311.801	10.25
312.013	10.48
312.225	10.02
312.437	10.1
312.649	10.53
312.862	10.47
313.074	10.03
313.286	10.7
313.498	10.54
313.71	10.22
313.922	10.1
314.134	10.01
314.346	9.33
314.558	9.76
314.77	9.92
314.982	9.59
315.193	9.66
315.405	9.89
315.617	9.9
315.829	10.38
316.041	10.24
316.253	10.44
316.465	9.94
316.677	10.67
316.888	11.15
317.1	10.74
317.312	10.83
317.524	10.25
317.736	10.68
317.947	10.63
318.159	9.76
318.371	9.92
318.583	9.33
318.794	9.49
319.006	8.68
319.218	8.42
319.43	8.36
319.641	8.48
319.853	9.2
320.064	9.25
320.276	9.17
320.488	9.14
320.699	8.71
320.911	9.13
321.123	9.05
321.334	9.57
321.546	9.38
321.757	8.84
321.969	8.62
322.18	8.26
322.392	7.98
322.603	7.56
322.815	7.72
323.026	8.02
323.238	7.82
323.449	7.65
323.661	7.55
323.872	7.53
324.083	8.06
324.295	7.97
324.506	7.94
324.718	8.16
324.929	8.4
325.14	8.96
325.352	9.29
325.563	9.56
325.774	10.03
325.986	10.24
326.197	10.58
326.408	10.88
326.62	11.52
326.831	11.99
327.042	11.33
327.253	11.25
327.464	11.48
327.676	10.72
327.887	10.29
328.098	9.9
328.309	10.2
328.52	10.32
328.732	10.42
328.943	10.35
329.154	9.85
329.365	10.26
329.576	10.76
329.787	10.56
329.998	11.56
330.209	12.56
330.42	13.07
330.631	12.44
330.842	12.85
331.053	12.69
331.264	12.69
331.475	13.03
331.686	12.9
331.897	12.84
332.108	12.57
332.319	12.37
332.53	12.14
332.741	12.35
332.952	13
333.163	12.83
333.374	13.01
333.585	12.81
333.795	13.03
334.006	13.28
334.217	13.08
334.428	12.98
334.639	13.17
334.849	13.31
335.06	13.64
335.271	13.48
335.482	12.92
335.692	12.78
335.903	12.94
336.114	12.73
336.325	13.06
336.535	13.51
336.746	13.71
336.957	13.38
337.167	12.97
337.378	12.52
337.589	12.74
337.799	12.7
338.01	12.99
338.22	13.33
338.431	13.88
338.642	13.83
338.852	13.76
339.063	13.88
339.273	14
339.484	14.09
339.694	13.95
339.905	13.82
340.115	14.15
340.326	13.82
340.536	13.42
340.746	13.01
340.957	13
341.167	12.98
341.378	12.68
341.588	12.73
341.799	12.47
342.009	12.07
342.219	11.8
342.43	11.59
342.64	11.93
342.85	11.4
343.061	11.25
343.271	10.68
343.481	10.72
343.691	10.92
343.902	10.77
344.112	10.7
344.322	11.15
344.532	11.17
344.743	11.29
344.953	11.2
345.163	11.7
345.373	11.59
345.583	12.04
345.793	11.79
346.004	11.9
346.214	12.22
346.424	12.58
346.634	12.32
346.844	11.9
347.054	11.52
347.264	11.76
347.474	12.09
347.684	12.23
347.894	12.29
348.104	12.35
348.314	12.13
348.524	11.58
348.734	11.56
348.944	11.77
349.154	12.28
349.364	12.82
349.574	11.9
349.784	11.52
349.994	11.5
350.204	11.13
350.413	11.15
350.623	11.1
350.833	11.11
351.043	11.36
351.253	10.83
351.463	10.98
351.672	10.92
351.882	11.63
352.092	11.29
352.302	11.62
352.511	11.85
352.721	11.94
352.931	11.89
353.141	12.06
353.35	11.36
353.56	11.83
353.77	11.7
353.979	11.2
354.189	11.28
354.399	11.5
354.608	11.25
354.818	10.96
355.027	10.97
355.237	10.8
355.447	10.67
355.656	10.75
355.866	10.39
356.075	10.53
356.285	10.51
356.494	10.44
356.704	10.45
356.913	10.55
357.123	10.32
357.332	10.04
357.542	10.63
357.751	10.46
357.96	11.06
358.17	11.2
358.379	10.79
358.589	11.38
358.798	11.1
359.007	11.14
359.217	11.05
359.426	11.23
359.635	11.38
359.845	10.89
360.054	10.87
360.263	10.55
360.472	10.54
360.682	10.82
360.891	10.42
361.1	10.27
361.309	10.3
361.519	10.17
361.728	10.31
361.937	10.11
362.146	10.11
362.355	10.2
362.564	10.06
362.774	10.26
362.983	9.98
363.192	10.03
363.401	10.38
363.61	10.34
363.819	10.6
364.028	10.52
364.237	10.13
364.446	9.77
364.655	9.9
364.864	9.9
365.073	9.92
365.282	9.44
365.491	9.4
365.7	9.3
365.909	9.13
366.118	8.91
366.327	8.77
366.536	9.29
366.745	9.6
366.954	9.44
367.162	9.35
367.371	9.07
367.58	9.52
367.789	9.57
367.998	9.29
368.207	9.3
368.415	8.93
368.624	9.04
368.833	8.71
369.042	8.92
369.25	9.18
369.459	9.28
369.668	9.16
369.877	9.09
370.085	9.21
370.294	9.32
370.503	8.95
370.711	9
370.92	8.7
371.129	8.93
371.337	8.53
371.546	8.43
371.754	8.28
371.963	8.12
372.171	7.9
372.38	7.53
372.589	7.62
372.797	8.01
373.006	8.48
373.214	8.52
373.423	8.51
373.631	8.6
373.84	8.18
374.048	8.37
374.256	8.76
374.465	9.14
374.673	9.32
374.882	9.16
375.09	8.84
375.298	8.45
375.507	8.5
375.715	8.31
375.923	8.23
376.132	8.32
376.34	7.88
376.548	7.47
376.757	7.23
376.965	7.07
377.173	6.94
377.381	7.19
377.59	7.25
377.798	7.36
378.006	7.46
378.214	7.92
378.423	8.08
378.631	8.45
378.839	8.6
379.047	8.74
379.255	8.71
379.463	8.54
379.671	8.24
379.879	7.98
380.088	7.82
380.296	7.63
380.504	7.25
380.712	7.18
380.92	7.1
381.128	6.95
381.336	6.49
381.544	6.49
381.752	6.52
381.96	6.61
382.168	6.91
382.376	6.79
382.584	6.56
382.791	6.68
382.999	6.76
383.207	6.69
383.415	6.8
383.623	6.94
383.831	7.11
384.039	7.32
384.247	7.29
384.454	7.1
384.662	7.01
384.87	7.05
385.078	6.84
385.285	6.66
385.493	6.56
385.701	6.46
385.909	6.56
386.116	6.4
386.324	6.14
386.532	6.21
386.739	6.26
386.947	6.31
387.155	6.53
387.362	6.65
387.57	6.78
387.778	6.9
387.985	6.7
388.193	6.46
388.4	6.15
388.608	6.27
388.816	6.17
389.023	5.97
389.231	5.95
389.438	5.84
389.646	5.8
389.853	5.76
390.061	5.58
390.268	5.83
390.475	5.94
390.683	6.25
390.89	6.23
391.098	6.14
391.305	6.34
391.512	6.3
391.72	6.33
391.927	6.24
392.135	6.09
392.342	6.22
392.549	6.04
392.756	6.24
392.964	6.1
393.171	6.16
393.378	6.28
393.586	6.09
393.793	6.14
394	6.06
394.207	6.08
394.414	6.32
394.622	6.35
394.829	6.31
395.036	6.07
395.243	5.92
395.45	5.7
395.657	5.54
395.864	5.6
396.072	5.62
396.279	5.53
396.486	5.46
396.693	5.21
396.9	5
397.107	5.18
397.314	5.08
397.521	5.09
397.728	5.15
397.935	5.24
398.142	5.25
398.349	5.31
398.556	5.33
398.763	5.24
398.97	5.21
399.177	5.31
399.383	5.1
399.59	5.11
399.797	5.12
400.004	5.01
400.211	4.97
400.418	4.96
400.625	4.67
400.831	4.75
401.038	4.83
401.245	4.8
401.452	4.62
401.658	4.76
401.865	4.79
402.072	4.82
402.279	4.85
402.485	4.76
402.692	4.68
402.899	4.86
403.105	4.85
403.312	4.9
403.519	4.91
403.725	4.97
403.932	4.91
404.138	4.93
404.345	4.8
404.552	4.83
404.758	5.03
404.965	5.06
405.171	4.95
405.378	4.92
405.584	4.85
405.791	4.81
405.997	4.82
406.204	4.75
406.41	4.76
406.617	4.99
406.823	5.03
407.029	4.87
407.236	5.04
407.442	5.04
407.649	5.05
407.855	5.09
408.061	5.17
408.268	5.24
408.474	5.33
408.68	5.35
408.887	5.31
409.093	5.35
409.299	5.42
409.505	5.33
409.712	5.28
409.918	5.25
410.124	5.16
410.33	5.15
410.537	4.98
410.743	4.81
410.949	4.76
411.155	4.74
411.361	4.65
411.567	4.59
411.773	4.46
411.98	4.56
412.186	4.67
412.392	4.59
412.598	4.42
412.804	4.62
413.01	4.76
413.216	4.69
413.422	4.53
413.628	4.58
413.834	4.66
414.04	4.69
414.246	4.67
414.452	4.62
414.658	4.73
414.864	4.8
415.07	4.78
415.275	4.87
415.481	4.95
415.687	4.95
415.893	4.89
416.099	4.77
416.305	4.81
416.511	4.84
416.716	4.85
416.922	4.81
417.128	4.86
417.334	4.78
417.539	4.71
417.745	4.68
417.951	4.75
418.157	4.77
418.362	4.89
418.568	4.84
418.774	4.76
418.979	4.66
419.185	4.72
419.391	4.8
419.596	4.82
419.802	4.74
420.008	4.8
420.213	4.7
420.419	4.77
420.624	4.69
420.83	4.67
421.035	4.72
421.241	4.74
421.446	4.73
421.652	4.61
421.857	4.57
422.063	4.62
422.268	4.64
422.474	4.71
422.679	4.59
422.885	4.59
423.09	4.63
423.295	4.66
423.501	4.66
423.706	4.62
423.911	4.61
424.117	4.65
424.322	4.67
424.527	4.59
424.733	4.63
424.938	4.6
425.143	4.55
425.349	4.64
425.554	4.54
425.759	4.7
425.964	4.69
426.169	4.78
426.375	4.77
426.58	4.78
426.785	4.86
426.99	4.86
427.195	5.03
427.4	5.08
427.605	4.91
427.811	5.06
428.016	4.92
428.221	4.98
428.426	4.98
428.631	4.98
428.836	4.93
429.041	4.87
429.246	4.85
429.451	4.77
429.656	4.79
429.861	4.81
430.066	4.7
430.271	4.69
430.476	4.74
430.681	4.76
430.886	4.77
431.09	4.8
431.295	4.83
431.5	4.84
431.705	4.92
431.91	4.93
432.115	4.92
432.32	4.92
432.524	5
432.729	5.01
432.934	5.01
433.139	4.99
433.343	5.04
433.548	4.99
433.753	4.99
433.958	4.94
434.162	4.9
434.367	4.94
434.572	4.9
434.776	4.83
434.981	4.72
435.186	4.58
435.39	4.62
435.595	4.64
435.799	4.64
436.004	4.68
436.209	4.62
436.413	4.58
436.618	4.5
436.822	4.54
437.027	4.49
437.231	4.57
437.436	4.68
437.64	4.61
437.845	4.55
438.049	4.54
438.253	4.57
438.458	4.63
438.662	4.68
438.867	4.71
439.071	4.65
439.275	4.68
439.48	4.61
439.684	4.63
439.888	4.61
440.093	4.68
440.297	4.64
440.501	4.64
440.706	4.63
440.91	4.59
441.114	4.54
441.318	4.6
441.523	4.62
441.727	4.62
441.931	4.53
442.135	4.65
442.339	4.63
442.543	4.84
442.748	4.72
442.952	4.67
443.156	4.69
443.36	4.72
443.564	4.75
443.768	4.77
443.972	4.8
444.176	4.82
444.38	4.81
444.584	4.68
444.788	4.53
444.992	4.56
445.196	4.59
445.4	4.58
445.604	4.6
445.808	4.62
446.012	4.6
446.216	4.61
446.42	4.6
446.624	4.62
446.828	4.72
447.032	4.76
447.235	4.8
447.439	4.79
447.643	4.74
447.847	4.71
448.051	4.68
448.254	4.75
448.458	4.75
448.662	4.76
448.866	4.72
449.069	4.69
449.273	4.73
449.477	4.64
449.681	4.65
449.884	4.74
450.088	4.73
450.292	4.64
450.495	4.53
450.699	4.47
450.902	4.5
451.106	4.47
451.31	4.47
451.513	4.36
451.717	4.37
451.92	4.42
452.124	4.37
452.327	4.41
452.531	4.41
452.734	4.38
452.938	4.38
453.141	4.22
453.345	4.25
453.548	4.34
453.752	4.44
453.955	4.49
454.158	4.45
454.362	4.54
454.565	4.58
454.769	4.57
454.972	4.6
455.175	4.64
455.379	4.81
455.582	4.76
455.785	4.66
455.988	4.62
456.192	4.51
456.395	4.39
456.598	4.4
456.801	4.36
457.005	4.42
457.208	4.51
457.411	4.49
457.614	4.47
457.817	4.47
458.021	4.47
458.224	4.42
458.427	4.53
458.63	4.56
458.833	4.49
459.036	4.44
459.239	4.44
459.442	4.38
459.645	4.42
459.848	4.39
460.051	4.36
460.254	4.35
460.457	4.48
460.66	4.42
460.863	4.48
461.066	4.52
461.269	4.6
461.472	4.5
461.675	4.56
461.878	4.49
462.081	4.48
462.284	4.51
462.486	4.47
462.689	4.4
462.892	4.44
463.095	4.37
463.298	4.39
463.5	4.37
463.703	4.42
463.906	4.36
464.109	4.3
464.311	4.32
464.514	4.4
464.717	4.52
464.92	4.43
465.122	4.25
465.325	4.3
465.528	4.22
465.73	4.19
465.933	4.27
466.135	4.24
466.338	4.3
466.541	4.42
466.743	4.42
466.946	4.36
467.148	4.46
467.351	4.63
467.553	4.6
467.756	4.83
467.958	4.82
468.161	4.73
468.363	4.67
468.566	4.7
468.768	4.58
468.971	4.59
469.173	4.62
469.375	4.54
469.578	4.49
469.78	4.49
469.983	4.38
470.185	4.43
470.387	4.57
470.59	4.68
470.792	4.7
470.994	4.73
471.196	4.78
471.399	4.79
471.601	4.88
471.803	4.87
472.005	4.92
472.208	4.77
472.41	4.73
472.612	4.75
472.814	4.77
473.016	4.61
473.218	4.53
473.421	4.4
473.623	4.34
473.825	4.31
474.027	4.22
474.229	4.23
474.431	4.38
474.633	4.48
474.835	4.48
475.037	4.46
475.239	4.5
475.441	4.64
475.643	4.63
475.845	4.59
476.047	4.6
476.249	4.73
476.451	4.75
476.653	4.7
476.855	4.65
477.057	4.59
477.258	4.6
477.46	4.59
477.662	4.46
477.864	4.53
478.066	4.62
478.268	4.57
478.469	4.63
478.671	4.58
478.873	4.57
479.075	4.52
479.276	4.53
479.478	4.48
479.68	4.59
479.882	4.67
480.083	4.66
480.285	4.66
480.487	4.7
480.688	4.69
480.89	4.71
481.091	4.71
481.293	4.74
481.495	4.75
481.696	4.79
481.898	4.77
482.099	4.74
482.301	4.71
482.502	4.71
482.704	4.69
482.905	4.67
483.107	4.66
483.308	4.69
483.51	4.65
483.711	4.61
483.913	4.59
484.114	4.56
484.315	4.57
484.517	4.6
484.718	4.59
484.92	4.63
485.121	4.6
485.322	4.62
485.524	4.63
485.725	4.68
485.926	4.75
486.127	4.76
486.329	4.81
486.53	4.78
486.731	4.79
486.932	4.8
487.134	4.77
487.335	4.81
487.536	4.79
487.737	4.76
487.938	4.71
488.139	4.66
488.341	4.68
488.542	4.66
488.743	4.68
488.944	4.64
489.145	4.65
489.346	4.63
489.547	4.59
489.748	4.61
489.949	4.6
490.15	4.67
490.351	4.67
490.552	4.64
490.753	4.62
490.954	4.61
491.155	4.62
491.356	4.58
491.557	4.59
491.758	4.64
491.959	4.63
492.159	4.66
492.36	4.68
492.561	4.7
492.762	4.76
492.963	4.8
493.164	4.87
493.364	4.93
493.565	4.98
493.766	4.98
493.967	4.98
494.167	5
494.368	4.97
494.569	4.93
494.769	4.97
494.97	4.99
495.171	5
495.371	4.96
495.572	4.94
495.773	4.94
495.973	4.94
496.174	4.91
496.375	4.87
496.575	4.9
496.776	4.92
496.976	4.88
497.177	4.83
497.377	4.86
497.578	4.91
497.778	4.96
497.979	4.96
498.179	4.99
498.38	5.04
498.58	5.15
498.78	5.13
498.981	5.17
499.181	5.17
499.382	5.23
499.582	5.19
499.782	5.14
499.983	5.06
500.183	5.09
500.383	5.1
500.584	5.1
500.784	5.02
500.984	5.09
501.184	5.1
501.385	5.13
501.585	5.14
501.785	5.14
501.985	5.18
502.185	5.11
502.386	5.07
502.586	5.1
502.786	5.05
502.986	4.97
503.186	4.94
503.386	4.84
503.586	4.82
503.786	4.82
503.987	4.83
504.187	4.86
504.387	4.92
504.587	5.03
504.787	4.95
504.987	5
505.187	5.04
505.387	5
505.587	5.14
505.786	5.13
505.986	5.09
506.186	5.11
506.386	5.08
506.586	5.1
506.786	5.05
506.986	5.17
507.186	5.13
507.386	5.23
507.585	5.3
507.785	5.3
507.985	5.35
508.185	5.39
508.384	5.46
508.584	5.49
508.784	5.43
508.984	5.4
509.183	5.39
509.383	5.45
509.583	5.48
509.782	5.54
509.982	5.57
510.182	5.6
510.381	5.65
510.581	5.63
510.781	5.7
510.98	5.74
511.18	5.8
511.379	5.78
511.579	5.75
511.778	5.82
511.978	5.76
512.177	5.68
512.377	5.69
512.576	5.67
512.776	5.68
512.975	5.59
513.175	5.67
513.374	5.71
513.573	5.76
513.773	5.87
513.972	5.82
514.172	5.82
514.371	5.9
514.57	5.95
514.77	6
514.969	6.01
515.168	6.11
515.367	6.13
515.567	6.15
515.766	6.12
515.965	6.14
516.164	6.16
516.364	6.21
516.563	6.2
516.762	6.11
516.961	6.09
517.16	6.12
517.359	6.06
517.559	6.06
517.758	6.04
517.957	6.07
518.156	6.12
518.355	6.1
518.554	6.14
518.753	6.19
518.952	6.29
519.151	6.29
519.35	6.27
519.549	6.33
519.748	6.41
519.947	6.48
520.146	6.48
520.345	6.45
520.544	6.49
520.743	6.44
520.942	6.46
521.141	6.4
521.339	6.49
521.538	6.52
521.737	6.55
521.936	6.53
522.135	6.57
522.333	6.65
522.532	6.64
522.731	6.64
522.93	6.73
523.129	6.72
523.327	6.81
523.526	6.78
523.725	6.79
523.923	6.72
524.122	6.7
524.321	6.67
524.519	6.67
524.718	6.75
524.917	6.8
525.115	6.79
525.314	6.81
525.512	6.83
525.711	6.86
525.909	6.91
526.108	6.97
526.306	6.99
526.505	7.02
526.703	7.01
526.902	7
527.1	7.03
527.299	7.03
527.497	7.04
527.696	7.07
527.894	7.05
528.092	7.02
528.291	7.02
528.489	7.01
528.688	7.01
528.886	7.04
529.084	7.03
529.283	6.99
529.481	7.01
529.679	7.02
529.877	7.01
530.076	7.07
530.274	7.15
530.472	7.25
530.67	7.29
530.869	7.28
531.067	7.31
531.265	7.26
531.463	7.29
531.661	7.23
531.859	7.18
532.057	7.2
532.255	7.25
532.454	7.22
532.652	7.16
532.85	7.18
533.048	7.22
533.246	7.22
533.444	7.31
533.642	7.33
533.84	7.41
534.038	7.49
534.236	7.51
534.434	7.46
534.632	7.53
534.83	7.6
535.027	7.64
535.225	7.66
535.423	7.65
535.621	7.68
535.819	7.68
536.017	7.71
536.215	7.7
536.412	7.75
536.61	7.71
536.808	7.69
537.006	7.73
537.203	7.73
537.401	7.75
537.599	7.79
537.797	7.73
537.994	7.8
538.192	7.79
538.39	7.8
538.587	7.77
538.785	7.88
538.983	7.97
539.18	7.92
539.378	7.94
539.575	7.94
539.773	7.95
539.97	8.01
540.168	8
540.366	8.05
540.563	8.12
540.761	8.11
540.958	8.11
541.155	8.11
541.353	8.16
541.55	8.15
541.748	8.16
541.945	8.18
542.143	8.2
542.34	8.21
542.537	8.16
542.735	8.17
542.932	8.23
543.129	8.21
543.327	8.25
543.524	8.28
543.721	8.34
543.919	8.46
544.116	8.55
544.313	8.59
544.51	8.63
544.708	8.69
544.905	8.69
545.102	8.73
545.299	8.81
545.496	8.74
545.693	8.81
545.891	8.78
546.088	8.68
546.285	8.63
546.482	8.65
546.679	8.75
546.876	8.82
547.073	8.82
547.27	8.8
547.467	8.72
547.664	8.8
547.861	8.8
548.058	8.87
548.255	8.92
548.452	9.01
548.649	8.9
548.846	8.97
549.043	8.92
549.24	9
549.437	9.13
549.633	9.3
549.83	9.38
550.027	9.45
550.224	9.59
550.421	9.74
550.618	9.7
550.814	9.86
551.011	9.79
551.208	9.85
551.405	9.89
551.601	9.85
551.798	9.84
551.995	9.81
552.191	9.76
552.388	9.72
552.585	9.68
552.781	9.75
552.978	9.77
553.175	9.81
553.371	9.82
553.568	9.82
553.764	9.8
553.961	9.84
554.157	9.9
554.354	9.97
554.55	10.04
554.747	10.15
554.943	10.16
555.14	10.19
555.336	10.27
555.533	10.28
555.729	10.39
555.926	10.39
556.122	10.53
556.318	10.53
556.515	10.48
556.711	10.54
556.907	10.62
557.104	10.63
557.3	10.64
557.496	10.58
557.693	10.71
557.889	10.76
558.085	10.94
558.281	10.93
558.478	10.95
558.674	11.15
558.87	11.06
559.066	10.98
559.262	11.11
559.459	11.1
559.655	11.09
559.851	11.14
560.047	11.11
560.243	11.12
560.439	11.17
560.635	11.21
560.831	11.13
561.027	11.29
561.223	11.33
561.419	11.39
561.615	11.49
561.811	11.67
562.007	11.74
562.203	11.86
562.399	11.83
562.595	11.88
562.791	12.06
562.987	12.15
563.183	12.17
563.379	12.16
563.575	12.19
563.771	12.26
563.966	12.29
564.162	12.26
564.358	12.29
564.554	12.37
564.75	12.4
564.945	12.28
565.141	12.38
565.337	12.47
565.533	12.61
565.728	12.56
565.924	12.45
566.12	12.46
566.315	12.56
566.511	12.56
566.707	12.64
566.902	12.68
567.098	12.87
567.293	12.74
567.489	12.72
567.684	12.75
567.88	12.84
568.076	12.99
568.271	13.05
568.467	13.18
568.662	13.27
568.858	13.33
569.053	13.26
569.248	13.26
569.444	13.44
569.639	13.46
569.835	13.43
570.03	13.48
570.225	13.6
570.421	13.66
570.616	13.63
570.812	13.67
571.007	13.74
571.202	13.93
571.397	13.98
571.593	14.03
571.788	14.1
571.983	14.21
572.178	14.29
572.374	14.35
572.569	14.32
572.764	14.4
572.959	14.47
573.154	14.48
573.35	14.43
573.545	14.53
573.74	14.52
573.935	14.58
574.13	14.56
574.325	14.61
574.52	14.54
574.715	14.59
574.91	14.65
575.105	14.59
575.3	14.6
575.495	14.72
575.69	14.69
575.885	14.63
576.08	14.62
576.275	14.76
576.47	14.76
576.665	14.86
576.86	15
577.055	14.95
577.25	14.96
577.444	14.97
577.639	14.93
577.834	14.91
578.029	15.17
578.224	15.31
578.418	15.34
578.613	15.4
578.808	15.5
579.003	15.46
579.197	15.55
579.392	15.67
579.587	15.78
579.781	15.9
579.976	16.05
580.171	16.06
580.365	16.01
580.56	15.97
580.755	15.96
580.949	16.02
581.144	16
581.338	15.92
581.533	15.93
581.727	15.92
581.922	15.89
582.116	15.83
582.311	15.75
582.505	15.75
582.7	15.87
582.894	15.9
583.089	15.79
583.283	15.84
583.478	15.94
583.672	15.95
583.866	16
584.061	16.07
584.255	16.15
584.449	16.16
584.644	16.16
584.838	16.16
585.032	16.1
585.226	16.13
585.421	16.17
585.615	16.08
585.809	16.11
586.003	16.15
586.198	16.12
586.392	16.13
586.586	16.27
586.78	16.38
586.974	16.36
587.168	16.59
587.363	16.65
587.557	16.72
587.751	16.92
587.945	17.14
588.139	17.23
588.333	17.24
588.527	17.27
588.721	17.25
588.915	17.25
589.109	17.37
589.303	17.36
589.497	17.34
589.691	17.41
589.885	17.51
590.079	17.54
590.273	17.54
590.466	17.54
590.66	17.47
590.854	17.5
591.048	17.47
591.242	17.46
591.436	17.47
591.629	17.51
591.823	17.44
592.017	17.36
592.211	17.08
592.404	17.06
592.598	17.04
592.792	17.06
592.986	17.12
593.179	17.14
593.373	17.08
593.567	17.18
593.76	17.3
593.954	17.32
594.147	17.32
594.341	17.56
594.535	17.57
594.728	17.58
594.922	17.8
595.115	17.63
595.309	17.66
595.502	17.65
595.696	17.58
595.889	17.65
596.083	17.65
596.276	17.65
596.47	17.63
596.663	17.73
596.856	17.85
597.05	17.77
597.243	18.01
597.437	18
597.63	18.04
597.823	18.16
598.017	18.03
598.21	18.18
598.403	18.34
598.596	18.32
598.79	18.24
598.983	18.23
599.176	18.26
599.369	18.05
599.563	18.24
599.756	18.31
599.949	18.15
600.142	18.28
600.335	18.37
600.528	18.26
600.722	18.32
600.915	18.38
601.108	18.44
601.301	18.44
601.494	18.69
601.687	18.68
601.88	18.68
602.073	18.84
602.266	18.75
602.459	18.6
602.652	18.56
602.845	18.55
603.038	18.54
603.231	18.52
603.424	18.54
603.617	18.45
603.809	18.37
604.002	18.39
604.195	18.29
604.388	18.4
604.581	18.48
604.774	18.62
604.966	18.56
605.159	18.55
605.352	18.5
605.545	18.48
605.737	18.59
605.93	18.64
606.123	18.68
606.316	18.63
606.508	18.62
606.701	18.55
606.894	18.51
607.086	18.72
607.279	18.62
607.471	18.82
607.664	18.85
607.857	18.9
608.049	18.91
608.242	18.86
608.434	18.95
608.627	18.89
608.819	18.83
609.012	18.88
609.204	18.78
609.397	18.77
609.589	18.62
609.782	18.75
609.974	18.64
610.166	18.69
610.359	18.74
610.551	18.82
610.743	18.8
610.936	18.98
611.128	18.94
611.32	19.04
611.513	19.28
611.705	19.29
611.897	19.13
612.09	19.31
612.282	19.38
612.474	19.41
612.666	19.41
612.858	19.36
613.051	19.38
613.243	19.4
613.435	19.46
613.627	19.59
613.819	19.72
614.011	19.85
614.203	19.8
614.395	19.69
614.588	19.65
614.78	19.65
614.972	19.76
615.164	19.7
615.356	19.56
615.548	19.37
615.74	19.26
615.932	19.18
616.124	19.09
616.315	19.14
616.507	19.24
616.699	19.26
616.891	19.17
617.083	19.15
617.275	19.38
617.467	19.49
617.659	19.56
617.85	19.3
618.042	19.35
618.234	19.35
618.426	19.37
618.618	19.26
618.809	19.23
619.001	19.24
619.193	19.21
619.384	18.93
619.576	18.97
619.768	18.85
619.959	18.94
620.151	18.96
620.343	19.01
620.534	18.83
620.726	19.05
620.917	19.1
621.109	19.07
621.301	19.17
621.492	19.34
621.684	19.26
621.875	19.38
622.067	19.68
622.258	19.62
622.45	19.54
622.641	19.66
622.832	19.39
623.024	19.38
623.215	19.4
623.407	19.35
623.598	19.29
623.789	19.42
623.981	19.55
624.172	19.41
624.363	19.67
624.555	19.63
624.746	19.49
624.937	19.62
625.129	19.63
625.32	19.66
625.511	19.76
625.702	19.84
625.893	19.79
626.085	19.73
626.276	19.67
626.467	19.56
626.658	19.62
626.849	19.62
627.04	19.55
627.231	19.62
627.422	19.66
627.614	19.56
627.805	19.52
627.996	19.43
628.187	19.32
628.378	19.35
628.569	19.44
628.76	19.4
628.951	19.52
629.142	19.57
629.332	19.41
629.523	19.43
629.714	19.38
629.905	19.33
630.096	19.53
630.287	19.64
630.478	19.71
630.669	19.57
630.859	19.65
631.05	19.7
631.241	19.61
631.432	19.65
631.623	19.79
631.813	19.92
632.004	19.86
632.195	19.84
632.385	19.94
632.576	19.9
632.767	19.89
632.957	19.92
633.148	19.94
633.339	20.17
633.529	20.32
633.72	20.13
633.91	20.2
634.101	20.29
634.292	20.32
634.482	20.17
634.673	20.25
634.863	20.23
635.054	20.2
635.244	20.19
635.435	20.19
635.625	20.04
635.815	20.18
636.006	19.94
636.196	19.98
636.387	19.93
636.577	20.08
636.767	19.93
636.958	20.02
637.148	20.06
637.338	19.78
637.529	19.65
637.719	19.87
637.909	19.93
638.099	20.21
638.29	20.15
638.48	20.03
638.67	20.03
638.86	20.16
639.05	20.05
639.241	20.15
639.431	20.59
639.621	20.61
639.811	20.55
640.001	20.59
640.191	20.52
640.381	20.51
640.571	20.51
640.761	20.56
640.951	20.47
641.141	20.61
641.331	20.31
641.521	20.28
641.711	20.19
641.901	20.12
642.091	19.81
642.281	19.84
642.471	19.74
642.661	19.83
642.851	19.79
643.041	19.94
643.231	20
643.42	20.19
643.61	20.24
643.8	20.31
643.99	20.56
644.18	20.83
644.369	20.6
644.559	20.7
644.749	20.78
644.939	20.81
645.128	20.84
645.318	20.84
645.508	20.88
645.697	20.73
645.887	20.8
646.076	20.49
646.266	20.37
646.456	20.63
646.645	20.68
646.835	20.56
647.024	20.75
647.214	20.64
647.403	20.57
647.593	20.51
647.782	20.65
647.972	20.76
648.161	20.85
648.351	20.94
648.54	20.86
648.73	21.13
648.919	21.29
649.108	20.97
649.298	21.22
649.487	21.11
649.677	21.31
649.866	21.09
650.055	20.94
650.244	20.95
650.434	20.84
650.623	20.9
650.812	20.75
651.002	20.79
651.191	20.88
651.38	20.58
651.569	20.64
651.758	20.57
651.947	20.71
652.137	20.69
652.326	20.78
652.515	20.9
652.704	20.98
652.893	20.97
653.082	20.83
653.271	20.68
653.46	20.9
653.649	20.95
653.838	20.91
654.027	20.8
654.216	20.82
654.405	20.71
654.594	20.85
654.783	20.7
654.972	20.77
655.161	20.99
655.35	21.13
655.539	21.08
655.728	21.11
655.916	21.23
656.105	21.31
656.294	21.51
656.483	21.55
656.672	21.39
656.86	21.6
657.049	21.59
657.238	21.5
657.427	21.59
657.615	21.39
657.804	21.36
657.993	21.33
658.181	21.23
658.37	21.11
658.559	21.06
658.747	21.24
658.936	20.96
659.125	20.81
659.313	20.71
659.502	20.73
659.69	20.75
659.879	20.77
660.067	20.66
660.256	20.62
660.444	20.76
660.633	20.88
660.821	20.71
661.01	20.84
661.198	20.92
661.387	21
661.575	20.7
661.763	21.05
661.952	21.13
662.14	21.08
662.328	21.21
662.517	21.15
662.705	21.06
662.893	21.08
663.082	21.28
663.27	21.21
663.458	21.34
663.646	21.79
663.834	21.52
664.023	21.46
664.211	21.51
664.399	21.61
664.587	21.56
664.775	21.46
664.963	21.83
665.152	21.75
665.34	21.9
665.528	21.86
665.716	21.79
665.904	21.84
666.092	21.83
666.28	21.95
666.468	21.87
666.656	21.68
666.844	21.7
667.032	21.4
667.22	21.68
667.408	21.61
667.596	21.49
667.784	21.41
667.971	21.7
668.159	21.72
668.347	21.68
668.535	21.76
668.723	21.97
668.911	22.31
669.098	22.25
669.286	21.9
669.474	21.93
669.662	22.08
669.849	21.89
670.037	21.53
670.225	21.69
670.413	21.84
670.6	21.65
670.788	21.68
670.976	21.4
671.163	21.31
671.351	21.53
671.538	21.67
671.726	21.6
671.913	21.71
672.101	21.87
672.289	21.67
672.476	21.56
672.664	21.57
672.851	21.51
673.039	21.62
673.226	21.73
673.413	21.61
673.601	21.49
673.788	21.67
673.976	21.73
674.163	21.85
674.35	21.97
674.538	22.15
674.725	22.4
674.912	22.49
675.1	22.46
675.287	22.48
675.474	22.48
675.662	22.56
675.849	22.6
676.036	22.49
676.223	22.05
676.411	22
676.598	21.76
676.785	21.95
676.972	21.92
677.159	21.92
677.346	21.85
677.533	21.84
677.721	21.87
677.908	21.49
678.095	21.67
678.282	21.95
678.469	22.23
678.656	22.19
678.843	22.06
679.03	21.97
679.217	22.08
679.404	21.96
679.591	21.81
679.778	21.89
679.964	22.18
680.151	21.93
680.338	21.94
680.525	21.65
680.712	21.74
680.899	21.63
681.086	21.63
681.272	21.67
681.459	21.61
681.646	21.54
681.833	21.58
682.02	21.64
682.206	22.08
682.393	22.39
682.58	22.21
682.766	22.16
682.953	22.15
683.14	22.53
683.326	22.6
683.513	22.87
683.7	23.02
683.886	22.99
684.073	22.8
684.259	22.49
684.446	22.08
684.632	22.34
684.819	22.45
685.005	22.37
685.192	22.04
685.378	21.72
685.565	21.97
685.751	21.97
685.938	21.95
686.124	22.09
686.31	22.09
686.497	22.29
686.683	22.36
686.87	22.16
687.056	22.35
687.242	22.41
687.429	22.69
687.615	22.75
687.801	22.95
687.987	22.7
688.174	22.71
688.36	22.63
688.546	22.54
688.732	22.6
688.918	22.8
689.105	22.75
689.291	22.67
689.477	22.53
689.663	22.08
689.849	21.89
690.035	22.04
690.221	21.69
690.407	21.61
690.593	21.43
690.779	21.22
690.965	21.17
691.151	20.96
691.337	21.4
691.523	21.67
691.709	21.76
691.895	21.86
692.081	21.9
692.267	22.19
692.453	22.44
692.639	22.5
692.825	22.54
693.011	22.47
693.196	22.92
693.382	22.52
693.568	22.23
693.754	22.39
693.94	22.37
694.125	22.05
694.311	22.24
694.497	22.09
694.682	22.31
694.868	22.42
695.054	22.3
695.239	22.3
695.425	22.31
695.611	22.6
695.796	22.66
695.982	22.76
696.168	23.16
696.353	23.14
696.539	23.38
696.724	23.12
696.91	23.22
697.095	23.32
697.281	22.96
697.466	23.18
697.652	22.95
697.837	22.78
698.023	22.92
698.208	22.69
698.393	22.37
698.579	22.42
698.764	22.43
698.949	22.19
699.135	22.23
699.32	22.48
699.505	22.18
699.691	22
699.876	22.11
700.061	21.73
700.246	21.83
700.432	22.18
700.617	22.11
700.802	22.3
700.987	22.55
701.172	22.62
701.358	22.47
701.543	22.55
701.728	22.74
701.913	22.74
702.098	22.95
702.283	23.15
702.468	23.34
702.653	23.34
702.838	23.6
703.023	23.48
703.208	23.4
703.393	23.48
703.578	23.66
703.763	24.13
703.948	24.2
704.133	23.97
704.318	23.66
704.503	23.42
704.688	23.22
704.873	22.93
705.057	23.08
705.242	22.63
705.427	22.76
705.612	22.94
705.797	22.76
705.981	22.76
706.166	22.95
706.351	23.05
706.536	23.17
706.72	23.39
706.905	23.35
707.09	23.42
707.274	23.96
707.459	23.88
707.644	23.59
707.828	23.11
708.013	23.24
708.197	23.13
708.382	23.25
708.567	23.43
708.751	23.13
708.936	23.07
709.12	22.89
709.305	22.52
709.489	22.49
709.673	22.85
709.858	23.11
710.042	23.15
710.227	23.26
710.411	23.09
710.596	22.64
710.78	22.63
710.964	22.6
711.149	22.59
711.333	22.73
711.517	22.85
711.702	22.73
711.886	22.78
712.07	22.54
712.254	22.84
712.438	23.05
712.623	22.91
712.807	23.09
712.991	23.25
713.175	23.53
713.359	23.66
713.544	23.66
713.728	23.35
713.912	23.3
714.096	23.27
714.28	22.97
714.464	22.78
714.648	22.96
714.832	22.65
715.016	22.39
715.2	22.09
715.384	21.81
715.568	21.91
715.752	22.06
715.936	22.12
716.12	22.26
716.304	22.46
716.488	22.57
716.671	22.68
716.855	22.84
717.039	23.41
717.223	23.32
717.407	23.98
717.59	23.8
717.774	23.95
717.958	23.87
718.142	23.75
718.325	23.78
718.509	23.35
718.693	23.43
718.877	23.43
719.06	22.89
719.244	23.05
719.428	22.44
719.611	22.43
719.795	21.86
719.978	21.37
720.162	21.35
720.345	21.21
720.529	22.09
720.713	21.85
720.896	21.97
721.08	22.08
721.263	21.92
721.446	22.08
721.63	22.03
721.813	22.15
721.997	22.7
722.18	23.5
722.364	23.35
722.547	22.95
722.73	22.77
722.914	22.93
723.097	22.86
723.28	23.06
723.464	23.23
723.647	23.19
723.83	23.41
724.013	22.83
724.197	22.31
724.38	22.55
724.563	22.55
724.746	22.83
724.929	22.66
725.112	22.65
725.296	23.16
725.479	22.66
725.662	22.85
725.845	22.5
726.028	23
726.211	22.98
726.394	22.88
726.577	23.11
726.76	23.14
726.943	23.47
727.126	23.5
727.309	22.88
727.492	23.01
727.675	22.73
727.858	22.74
728.041	23.03
728.224	23.17
728.407	23.34
728.589	23.07
728.772	23.58
728.955	23.31
729.138	23.59
729.321	24.11
729.503	24.31
729.686	24.59
729.869	24.77
730.052	24.65
730.234	24.55
730.417	24.5
730.6	24.5
730.782	24.26
730.965	24.75
731.148	24.39
731.33	24.33
731.513	24.13
731.695	23.75
731.878	23.8
732.061	23.64
732.243	23.47
732.426	23.46
732.608	23.75
732.791	23.22
732.973	22.76
733.156	23.07
733.338	22.81
733.52	23.52
733.703	23.82
733.885	23.76
734.068	23.75
734.25	23.78
734.432	23.85
734.615	23.61
734.797	23.34
734.979	23.62
735.162	23.31
735.344	23
735.526	22.77
735.708	22.47
735.891	22.7
736.073	22.93
736.255	22.79
736.437	22.55
736.619	22.37
736.802	22.77
736.984	22.43
737.166	22.47
737.348	22.84
737.53	23.07
737.712	22.98
737.894	23.16
738.076	23.37
738.258	23.78
738.44	23.7
738.622	23.64
738.804	24.3
738.986	24.52
739.168	24.84
739.35	25.18
739.532	24.73
739.714	24.87
739.896	25.12
740.078	25.2
740.259	24.13
740.441	23.69
740.623	24.14
740.805	23.7
740.987	23.33
741.168	23.23
741.35	23.04
741.532	22.87
741.714	23
741.895	22.24
742.077	22.4
742.259	22.97
742.44	23.44
742.622	23.3
742.804	23.1
742.985	22.44
743.167	22.51
743.348	22.39
743.53	22.29
743.711	22.83
743.893	22.8
744.075	22.44
744.256	22.58
744.438	23.1
744.619	23.14
744.8	23.39
744.982	24.29
745.163	24.02
745.345	23.54
745.526	24.34
745.707	24.3
745.889	24.61
746.07	24.82
746.252	24.64
746.433	24.52
746.614	24.61
746.795	24.47
746.977	24.39
747.158	24.69
747.339	25.16
747.52	24.61
747.702	23.99
747.883	24.57
748.064	24.57
748.245	25
748.426	24.57
748.607	24.52
748.788	24.61
748.97	24.77
749.151	25.12
749.332	25.33
749.513	24.78
749.694	24.86
749.875	24.04
750.056	24.07
750.237	24.33
750.418	24.57
750.599	24.67
750.78	25.97
750.96	25.91
751.141	25.82
751.322	25.59
751.503	26.51
751.684	27.19
751.865	27.58
752.046	26.92
752.226	26.7
752.407	26.79
752.588	26.64
752.769	25.24
752.949	25.56
753.13	24.99
753.311	24.95
753.492	24.74
753.672	24.37
753.853	24.13
754.034	24.13
754.214	24.35
754.395	24.3
754.575	24.83
754.756	24.48
754.937	24.63
755.117	24.06
755.298	23.55
755.478	23.39
755.659	23.14
755.839	23.01
756.02	23.84
756.2	24.1
756.381	23.74
756.561	23.39
756.741	24.01
756.922	23.66
757.102	24.91
757.283	25.32
757.463	25.59
757.643	26.21
757.823	25.65
758.004	25.48
758.184	24.46
758.364	24.66
758.545	24.75
758.725	24.96
758.905	25.34
759.085	25.61
759.265	25.68
759.446	25.38
759.626	24.8
759.806	25.46
759.986	25.9
760.166	26.28
760.346	25.66
760.526	24.91
760.706	24.44
760.886	24.58
761.066	24.01
761.246	24.32
761.426	24.76
761.606	25.05
761.786	24.69
761.966	24.24
762.146	24.02
762.326	23.96
762.506	24.41
762.686	24.6
762.866	24.55
763.046	24.51
763.225	24.36
763.405	24.06
763.585	23.86
763.765	24.14
763.945	23.76
764.124	23.77
764.304	24.6
764.484	24.74
764.664	24.47
764.843	24.04
765.023	24.42
765.203	24.32
765.382	24.63
765.562	24.82
765.741	25.02
765.921	25.32
766.101	25.64
766.28	25.18
766.46	25.29
766.639	26.23
766.819	25.84
766.998	25.04
767.178	25.5
767.357	25.3
767.537	25.18
767.716	24.98
767.896	24.96
768.075	24.93
768.254	24.73
768.434	23.86
768.613	23.16
768.792	24.24
768.972	25.02
769.151	25
769.33	25.21
769.51	25.78
769.689	25.9
769.868	25.79
770.047	25.87
770.226	26.35
770.406	26.69
770.585	26.91
770.764	26.72
770.943	26.68
771.122	26.51
771.301	26.32
771.48	25.63
771.66	25.36
771.839	25.7
772.018	25.52
772.197	25.14
772.376	25.18
772.555	24.51
772.734	24.05
772.913	23.8
773.092	23.53
773.271	23.48
773.449	23.91
773.628	23.67
773.807	23.56
773.986	23.9
774.165	24.48
774.344	24.9
774.523	25.72
774.701	25.65
774.88	25.78
775.059	26.05
775.238	26.07
775.417	25.95
775.595	26.43
775.774	25.85
775.953	25.22
776.131	24.61
776.31	23.91
776.489	22.96
776.667	22.07
776.846	22.18
777.025	22.16
777.203	21.64
777.382	22.31
777.56	22.4
777.739	23.54
777.917	23.81
778.096	24.33
778.274	24.8
778.453	24.97
778.631	25.99
778.81	25.57
778.988	25.86
779.166	26.33
779.345	25.11
779.523	24.83
779.702	24.45
779.88	24.61
780.058	24.73
780.237	25.37
780.415	25.19
780.593	25.59
780.771	26.11
780.95	25.91
781.128	25.68
781.306	25.74
781.484	26.51
781.662	25.82
781.841	26.62
782.019	25.99
782.197	25.27
782.375	26.41
782.553	26.7
782.731	26.05
782.909	25.94
783.087	26.4
783.265	27.05
783.443	26.52
783.621	27
783.799	26.27
783.977	27.09
784.155	26.99
784.333	27.36
784.511	25.64
784.689	25.57
784.867	25.26
785.045	25.65
785.223	25.82
785.4	25.89
785.578	26.15
785.756	26.22
785.934	26.06
786.112	26.36
786.289	24.87
786.467	25.42
786.645	25.8
786.823	27.05
787	26.54
787.178	25.91
787.356	25.9
787.533	25.68
787.711	24.94
787.889	25.24
788.066	25.14
788.244	26.14
788.421	26.39
788.599	26.19
788.776	25.36
788.954	25.04
789.131	25.8
789.309	25.53
789.486	25.53
789.664	26.12
789.841	24.19
790.019	24.14
790.196	23.86
790.373	24.33
790.551	24.59
790.728	24.38
790.906	25.18
791.083	23.83
791.26	25.05
791.437	24.99
791.615	25.07
791.792	26.32
791.969	26.49
792.146	26.94
792.324	26.32
792.501	26.37
792.678	26.58
792.855	26.32
793.032	26.57
793.209	26.06
793.387	26.41
793.564	26.29
793.741	25.82
793.918	25.5
794.095	24.86
794.272	25.25
794.449	25.43
794.626	24.99
794.803	25.35
794.98	25.26
795.157	24.59
795.334	24.3
795.511	24.74
795.688	25.07
795.864	24.7
796.041	24.63
796.218	24.86
796.395	24.82
796.572	25.42
796.749	25.61
796.925	27.07
797.102	27.66
797.279	27.31
797.456	26.63
797.632	27.25
797.809	27.94
797.986	27.19
798.162	26.04
798.339	25.56
798.516	24.84
798.692	24.8
798.869	24.44
799.046	24.89
799.222	25.78
799.399	26.7
799.575	26
799.752	26.39
799.928	27.14
800.105	27.47
800.281	27.12
800.458	27.95
800.634	27.35
800.811	26.79
800.987	26.47
801.163	25.93
801.34	25.51
801.516	26.16
801.692	26.39
801.869	26.22
802.045	26.44
802.221	27.34
802.398	27.27
802.574	27.97
802.75	28.25
802.926	28.36
803.103	27.53
803.279	27.24
803.455	26.6
803.631	26.18
803.807	26.68
803.983	27.07
804.16	25.88
804.336	25.82
804.512	25.64
804.688	25.28
804.864	25.17
805.04	26.05
805.216	26.29
805.392	27.34
805.568	27.31
805.744	26.32
805.92	26.11
806.096	27.43
806.272	27.27
806.448	26.85
806.623	26.78
806.799	26.59
806.975	26.46
807.151	26.65
807.327	26.06
807.503	25.55
807.678	26.8
807.854	27
808.03	26.15
808.206	25.69
808.381	25.73
808.557	25.35
808.733	25.76
808.908	26.36
809.084	26.12
809.26	26.52
809.435	26.64
809.611	26.61
809.787	26.59
809.962	25.71
810.138	26.09
810.313	26.1
810.489	26.35
810.664	25.63
810.84	24.8
811.015	25.77
811.191	26.47
811.366	26.94
811.542	26.43
811.717	25.94
811.892	27.69
812.068	28.19
812.243	27.75
812.419	27.9
812.594	28.34
812.769	28.69
812.944	27.99
813.12	28.19
813.295	27.75
813.47	27.43
813.645	28.14
813.821	26.4
813.996	26.42
814.171	27.02
814.346	27.42
814.521	26.88
814.697	26.71
814.872	26.63
815.047	24.09
815.222	23.49
815.397	23.51
815.572	22.84
815.747	24.08
815.922	23.57
816.097	22.57
816.272	23.26
816.447	23.5
816.622	22.76
816.797	23.34
816.972	24.65
817.147	25.87
817.322	25.96
817.496	27.36
817.671	28.06
817.846	27.82
818.021	29.03
818.196	28.18
818.371	28.56
818.545	29.71
818.72	28.59
818.895	28.85
819.069	27.96
819.244	27.78
819.419	27.36
819.594	26.45
819.768	25.87
819.943	25.25
820.117	25.16
820.292	24.78
820.467	24.46
820.641	24.41
820.816	24.36
820.99	24.13
821.165	24.72
821.339	24.57
821.514	24.83
821.688	24.82
821.863	24.79
822.037	24.54
822.212	24.56
822.386	24.45
822.56	24.67
822.735	24.48
822.909	24.6
823.084	24.2
823.258	24.2
823.432	24.03
823.606	24.09
823.781	24.05
823.955	24.24
824.129	24.31
824.303	24.55
824.478	24.19
824.652	23.92
824.826	24.15
825	24.45
825.174	24.73
825.348	24.37
825.523	24.61
825.697	25.33
825.871	25.23
826.045	25.02
826.219	24.74
826.393	24.77
826.567	25.56
826.741	25.55
826.915	25.64
827.089	25.28
827.263	25.85
827.437	26.09
827.611	25.46
827.784	25.73
827.958	25.34
828.132	25.66
828.306	26.3
828.48	26.07
828.654	26.68
828.827	26.35
829.001	26.76
829.175	26.87
829.349	26.88
829.522	26.88
829.696	27.23
829.87	28.62
830.044	28.33
830.217	28.26
830.391	28.69
830.565	27.39
830.738	27.5
830.912	27.55
831.085	26.86
831.259	27.45
831.432	28.77
831.606	28.42
831.779	27.76
831.953	27.9
832.126	27.65
832.3	27.47
832.473	28.12
832.647	28.49
832.82	27.64
832.994	27.64
833.167	26.79
833.34	26.21
833.514	26.2
833.687	26.31
833.86	26.85
834.034	27.18
834.207	27.47
834.38	27
834.553	26.78
834.727	26.61
834.9	26.48
835.073	26.28
835.246	26.11
835.419	26.35
835.593	26.39
835.766	25.99
835.939	25.24
836.112	25.03
836.285	26.26
836.458	26.82
836.631	27.32
836.804	28.63
836.977	28.79
837.15	28.36
837.323	28.83
837.496	27.36
837.669	28.07
837.842	29.23
838.015	31.1
838.188	28.77
838.361	28.25
838.533	28.87
838.706	28.14
838.879	28.53
839.052	30.3
839.225	29.13
839.398	30.36
839.57	30.2
839.743	29.62
839.916	26.25
840.088	27.98
840.261	27.76
840.434	26.58
840.607	26.94
840.779	27.26
840.952	26.12
841.124	26.57
841.297	26.17
841.47	24.51
841.642	24
841.815	25.28
841.987	23.9
842.16	23.24
842.332	26.54
842.505	28.69
842.677	28.97
842.85	29.57
843.022	29.58
843.194	30.78
843.367	33.59
843.539	36.61
843.712	38.05
843.884	40.31
844.056	42.51
844.229	41.58
844.401	39
844.573	39.48
844.745	38.28
844.918	40.39
845.09	40.66
845.262	39.35
845.434	40.99
845.606	37.49
845.779	34.73
845.951	34.79
846.123	33.86
846.295	33.87
846.467	35.05
846.639	36.42
846.811	34.53
846.983	31.65
847.155	30.79
847.327	26.97
847.499	30.74
847.671	30.68
847.843	29.06
848.015	30.5
848.187	33.14
848.359	30.46
848.531	27.82
848.703	30.3
848.875	29.17
849.047	32.65
849.218	30.02
849.39	29.57
849.562	30.43
849.734	28.73
849.905	26.13
850.077	26.41
850.249	23.66
850.421	28.41
850.592	24.05
850.764	28.44
850.936	27.21
851.107	27.5
851.279	28.55
851.451	29.66
851.622	33.93
851.794	35.01
851.965	31.55
852.137	30.86
852.308	28.9
852.48	30.35
852.651	31.35
852.823	30.22
852.994	31.47
853.166	29.03
853.337	26.89
853.509	25.12
853.68	25.19
853.851	26.77
854.023	29.35
854.194	31.96
854.365	35.24
854.537	32.59
854.708	31.74
854.879	33.24
855.05	33.6
855.222	29.93
855.393	32.84
855.564	34.84
855.735	32.97
855.906	36.25
856.078	32.51
856.249	28.36
856.42	27.72
856.591	30.96
856.762	28.71
856.933	31.66
857.104	36.43
857.275	35.74
857.446	35.39
857.617	35.25
857.788	31.14
857.959	34.62
858.13	36.77
858.301	40.94
858.472	36.25
858.643	40.06
858.814	38.97
858.985	41.62
859.155	40.29
859.326	38.8
859.497	36.34
859.668	36.29
859.839	33.91
860.009	31.76
860.18	27.93
860.351	30.32
860.522	27.05
860.692	22.86
860.863	21.39
861.034	22.19
861.204	21.68
861.375	24.22
861.546	26.92
861.716	25.68
861.887	27.63
862.057	27.9
862.228	23.45
862.398	25.26
862.569	27.42
862.739	28.91
862.91	26.26
863.08	25.46
863.251	28.14
863.421	28.98
863.592	33.68
863.762	34.47
863.932	34.17
864.103	40.21
864.273	38.53
864.443	39.32
864.614	38.41
864.784	38.81
864.954	43.26
865.125	42.22
865.295	40.37
865.465	42.72
865.635	39.7
865.805	42.69
865.976	43.41
866.146	41.63
866.316	40.08
866.486	37.72
866.656	40.97
866.826	37.5
866.996	36.91
867.166	39.51
867.336	35.72
867.506	36.85
867.676	32.71
867.846	27.19
868.016	24.83
868.186	28.14
868.356	26.74
868.526	24.81
868.696	28.59
868.866	31.81
869.036	34.85
869.206	34.45
869.376	37.29
869.545	37.44
869.715	40.61
869.885	41.63
870.055	38.43
870.224	42.96
870.394	43.52
870.564	43.31
870.734	39.64
870.903	28.12
871.073	23.75
871.243	28.12
871.412	35.61
871.582	39.88
871.751	39.7
871.921	40.58
872.091	41.45
872.26	41.65
872.43	36.9
872.599	38.6
872.769	44.19
872.938	42.86
873.108	36.63
873.277	34.94
873.446	30.03
873.616	34.25
873.785	34.59
873.955	32.82
874.124	28.31
874.293	32.13
874.463	28.94
874.632	27.98
874.801	34.01
874.971	31.29
875.14	31.25
875.309	34.25
875.478	35.31
875.647	36.12
875.817	37.4
875.986	39.38
876.155	37.13
876.324	39.16
876.493	38.86
876.662	40.03
876.831	42.77
877	39.72
877.17	38.37
877.339	35.86
877.508	32.73
877.677	27.76
877.846	25.39
878.015	23.53
878.184	22.17
878.352	23.89
878.521	21.91
878.69	20.97
878.859	21.43
879.028	21.02
879.197	20.73
879.366	21.7
879.534	23.66
879.703	23.47
879.872	23.95
880.041	25.56
880.21	24.3
880.378	25.86
880.547	26.35
880.716	26.83
880.884	27.66
881.053	26.59
881.222	27
881.39	25.93
881.559	27.07
881.727	27.08
881.896	25.31
882.065	25.85
882.233	25.21
882.402	24.86
882.57	24.56
882.739	24.98
882.907	26.07
883.076	26.18
883.244	26.84
883.412	26.62
883.581	27.08
883.749	27.91
883.918	27.57
884.086	28.05
884.254	28.57
884.423	29.54
884.591	28.52
884.759	28.78
884.927	27.84
885.096	28.19
885.264	28.13
885.432	27.93
885.6	28.94
885.769	30.21
885.937	29.51
886.105	29.7
886.273	30.06
886.441	29.23
886.609	27.3
886.777	27.59
886.945	28.89
887.113	30.1
887.281	29.32
887.449	30.48
887.617	30.32
887.785	29.72
887.953	30.81
888.121	28.52
888.289	31.31
888.457	31.83
888.625	34.16
888.793	33.36
888.961	31.76
889.129	36.82
889.296	35.71
889.464	35.1
889.632	38.94
889.8	39.65
889.967	41.07
890.135	39.74
