Data from 2938485_Reflection_3.txt Node
Date: Wed Jun 17 01:00:42 EDT 2015
User: robert
Spectrometer: USB4E03002
Autoset integration time: false
Trigger mode: 4
Integration Time (sec): 1.000000E-1
Scans to average: 10
Electric dark correction enabled: true
Nonlinearity correction enabled: false
Boxcar width: 5
Stray light correction enabled: false
XAxis mode: Wavelengths
Stop averaging: false
Number of Pixels in Spectrum: 3648
>>>>>Begin Spectral Data<<<<<
177.575	80.02
177.794	87
178.014	88.57
178.233	122.08
178.452	276.35
178.672	263.41
178.891	206.83
179.11	215.71
179.33	201.86
179.549	-12.31
179.768	225.29
179.987	77.66
180.207	290.77
180.426	49.08
180.645	23.56
180.864	85.95
181.084	183.82
181.303	351.5
181.522	5513.29
181.741	-499.48
181.96	-402.55
182.179	-472.15
182.398	-821.95
182.618	-519.88
182.837	-434.22
183.056	-215.96
183.275	-227.52
183.494	-751.39
183.713	5344.62
183.932	340.94
184.151	226.38
184.37	194.73
184.589	589.33
184.808	544.57
185.027	745.68
185.246	469.59
185.465	125.96
185.684	185.13
185.903	247.21
186.122	327.28
186.341	115.73
186.56	162.56
186.779	288.93
186.998	154.46
187.216	305.76
187.435	150.22
187.654	152.07
187.873	441.95
188.092	248.95
188.311	691.1
188.53	249.55
188.748	494.23
188.967	1767.83
189.186	2397.01
189.405	330.13
189.623	195.06
189.842	473.33
190.061	450.5
190.28	334.24
190.498	-539.4
190.717	-507.09
190.936	-106.44
191.154	-187.39
191.373	-90.61
191.592	-87.07
191.81	-118.43
192.029	-94.88
192.248	-218.11
192.466	-383.98
192.685	-79.96
192.904	-305.67
193.122	-244.46
193.341	465.42
193.559	812.67
193.778	323.12
193.996	-1227.69
194.215	-522.59
194.433	-283.51
194.652	-274.62
194.87	-267.02
195.089	-697.44
195.307	-291.69
195.526	-321.7
195.744	-146.73
195.963	-393.33
196.181	-1006.76
196.399	1313.65
196.618	-1836.38
196.836	-434.44
197.055	-301.92
197.273	-221.16
197.491	3243.89
197.71	-472.33
197.928	-943.54
198.146	-1228.65
198.365	-836.09
198.583	-115.49
198.801	-141.73
199.019	-229.84
199.238	-1628.7
199.456	-257.03
199.674	-110.91
199.892	-17.39
200.111	-9.45
200.329	-65.04
200.547	-56.31
200.765	-32.63
200.983	-27.32
201.202	-35.56
201.42	-62.34
201.638	-35.55
201.856	-135.26
202.074	-180.7
202.292	-285.2
202.51	-560.37
202.728	736.82
202.946	-3346.15
203.165	-161.76
203.383	-336.47
203.601	-279.42
203.819	-164.89
204.037	-244.34
204.255	-198.36
204.473	-308.23
204.691	-86.05
204.909	-65.62
205.127	-40.62
205.345	-39.12
205.562	-37.43
205.78	25.17
205.998	84.27
206.216	-26.23
206.434	-77.05
206.652	0.62
206.87	73.98
207.088	-13.12
207.306	2.07
207.523	216.64
207.741	488.91
207.959	353.24
208.177	192.75
208.395	525.96
208.612	270.84
208.83	-560.32
209.048	216.48
209.266	391.44
209.483	-104.8
209.701	6.46
209.919	68.21
210.136	79.84
210.354	44.8
210.572	-10.02
210.79	-40.64
211.007	18.07
211.225	9.09
211.442	-150.47
211.66	-31.76
211.878	4.21
212.095	-321.03
212.313	-1329.37
212.53	3002.88
212.748	-921.23
212.966	-721.37
213.183	-305.57
213.401	-100.12
213.618	-122.04
213.836	-87.01
214.053	-97.63
214.271	-386.04
214.488	-120.51
214.705	-24.95
214.923	2.96
215.14	9.94
215.358	22.34
215.575	34.76
215.793	37.81
216.01	12.89
216.227	34.82
216.445	27.44
216.662	43.32
216.879	39.63
217.097	24.76
217.314	16.49
217.531	10.42
217.749	10.66
217.966	8.1
218.183	8.75
218.4	18.81
218.618	20.19
218.835	33.61
219.052	10.75
219.269	-5.36
219.487	9.61
219.704	23.65
219.921	8.14
220.138	4.72
220.355	-1.53
220.572	3.79
220.79	4.18
221.007	-1.39
221.224	-3.25
221.441	3.13
221.658	14.53
221.875	-2.27
222.092	-4.93
222.309	4.2
222.526	-0.85
222.743	2.68
222.96	6.8
223.177	-4.8
223.394	-7.83
223.611	-4.25
223.828	2.89
224.045	-3.45
224.262	5.16
224.479	2.68
224.696	0.52
224.913	1.32
225.13	1.44
225.347	-0.72
225.564	6.02
225.781	12.77
225.997	11.67
226.214	9.47
226.431	11.89
226.648	11.85
226.865	12.64
227.082	14.28
227.298	15.45
227.515	15.28
227.732	15.93
227.949	14.54
228.165	13.2
228.382	13.77
228.599	14.84
228.816	14.67
229.032	14.8
229.249	14.2
229.466	13.86
229.682	13.61
229.899	14.85
230.116	13.81
230.332	15.81
230.549	13.55
230.765	12.17
230.982	10.5
231.199	11.08
231.415	11.44
231.632	12.48
231.848	13.58
232.065	14.33
232.281	13.46
232.498	14.91
232.714	14.43
232.931	14.69
233.147	13.81
233.364	15.17
233.58	13.64
233.797	13.08
234.013	12.91
234.23	10.69
234.446	9.15
234.662	9
234.879	7.74
235.095	6.6
235.312	7.8
235.528	10.08
235.744	9.07
235.961	10.27
236.177	11.39
236.393	10.81
236.61	10.84
236.826	12.98
237.042	11.86
237.258	12.41
237.475	14.46
237.691	13.17
237.907	10.22
238.123	9.71
238.339	9.7
238.556	9.26
238.772	9.89
238.988	9.89
239.204	9.29
239.42	9.64
239.636	9.54
239.853	8.79
240.069	9.07
240.285	9.85
240.501	10.58
240.717	10.6
240.933	10.75
241.149	9.85
241.365	9.29
241.581	8.89
241.797	8.88
242.013	8.13
242.229	8.88
242.445	9.57
242.661	9.44
242.877	8.99
243.093	8.87
243.309	8.62
243.525	8.89
243.741	10.02
243.957	10.06
244.173	10.17
244.388	10.16
244.604	9.82
244.82	9.92
245.036	9.79
245.252	10.18
245.468	10.51
245.683	10.39
245.899	10.51
246.115	10.19
246.331	10.23
246.547	10.01
246.762	10.02
246.978	10.11
247.194	9.56
247.409	9.43
247.625	9.23
247.841	8.77
248.057	8.82
248.272	8.4
248.488	8.37
248.703	8.38
248.919	8.13
249.135	7.24
249.35	6.46
249.566	6.05
249.782	7.11
249.997	5.89
250.213	5.97
250.428	5.7
250.644	6.03
250.859	6.38
251.075	6.04
251.29	6.2
251.506	8.17
251.721	7.98
251.937	8.49
252.152	6.63
252.368	8.01
252.583	7.63
252.798	7.57
253.014	7.32
253.229	6.77
253.445	7.52
253.66	8.23
253.875	7.64
254.091	8.15
254.306	8.97
254.521	11.83
254.737	11.68
254.952	11.73
255.167	12.06
255.383	13.15
255.598	13.88
255.813	12.72
256.028	11.86
256.244	10.92
256.459	10.04
256.674	9.72
256.889	8.79
257.104	8.43
257.32	8.12
257.535	8.01
257.75	7.89
257.965	7.23
258.18	7.43
258.395	7.41
258.61	7.94
258.826	8.44
259.041	8.45
259.256	8.61
259.471	8.61
259.686	8.41
259.901	8.31
260.116	7.59
260.331	7.65
260.546	7.47
260.761	7.33
260.976	6.37
261.191	5.36
261.406	4.86
261.621	4.38
261.836	3.65
262.05	3.78
262.265	4.12
262.48	4.69
262.695	5.42
262.91	5.67
263.125	6.22
263.34	6.01
263.555	6.53
263.769	7.44
263.984	7.02
264.199	7.63
264.414	8.17
264.629	7.37
264.843	7.19
265.058	6.5
265.273	6.54
265.488	6.19
265.702	6.51
265.917	6.55
266.132	6.12
266.346	6.27
266.561	5.98
266.776	6.39
266.99	7.03
267.205	6.88
267.42	7.24
267.634	6.55
267.849	6.82
268.063	6.78
268.278	6.47
268.492	6.43
268.707	6.66
268.922	6.95
269.136	6.82
269.351	6.48
269.565	6.98
269.78	6.89
269.994	7.42
270.209	7.27
270.423	6.9
270.637	7.28
270.852	7.02
271.066	7
271.281	6.99
271.495	6.65
271.709	6.58
271.924	6.7
272.138	6.68
272.353	6.59
272.567	6.4
272.781	7.08
272.996	7.1
273.21	7.26
273.424	6.99
273.638	6.5
273.853	6.37
274.067	6.49
274.281	5.3
274.495	5.33
274.71	4.82
274.924	4.71
275.138	4.66
275.352	3.9
275.566	3.53
275.781	3.47
275.995	3.32
276.209	3.09
276.423	3.08
276.637	3.92
276.851	4.04
277.065	3.88
277.279	4.5
277.493	4.27
277.707	4.54
277.921	4.76
278.135	4.87
278.349	5.14
278.563	5.65
278.777	5.34
278.991	5.47
279.205	5.54
279.419	6.09
279.633	5.71
279.847	5.47
280.061	5.97
280.275	6.21
280.489	6.7
280.703	6.78
280.917	6.21
281.131	6.38
281.344	6.72
281.558	6.58
281.772	6.51
281.986	6.79
282.2	6.57
282.414	6.37
282.627	5.85
282.841	5.78
283.055	5.77
283.269	5.76
283.482	5.71
283.696	4.86
283.91	5.13
284.123	5.3
284.337	5.38
284.551	5.9
284.764	5.75
284.978	6
285.192	5.51
285.405	5.52
285.619	5.85
285.833	5.69
286.046	6.04
286.26	5.81
286.473	5.59
286.687	5.29
286.9	5.23
287.114	5.21
287.327	5.28
287.541	5.6
287.754	5.16
287.968	5.41
288.181	5.64
288.395	5.74
288.608	5.84
288.822	6.19
289.035	6.32
289.248	6.15
289.462	6.21
289.675	6.16
289.889	6.1
290.102	6.55
290.315	6.79
290.529	6.68
290.742	7.19
290.955	7.32
291.169	6.91
291.382	6.73
291.595	6.68
291.808	6.54
292.022	6.32
292.235	6.54
292.448	6.27
292.661	5.46
292.875	5.62
293.088	5.63
293.301	5.54
293.514	5.8
293.727	5.84
293.94	5.61
294.153	5.63
294.367	5.9
294.58	5.71
294.793	5.93
295.006	6.41
295.219	6.54
295.432	6.46
295.645	6.41
295.858	6.03
296.071	5.98
296.284	6.08
296.497	5.94
296.71	6.04
296.923	6
297.136	5.82
297.349	5.45
297.562	4.83
297.775	4.47
297.988	4.56
298.201	4.85
298.414	5.17
298.626	5.25
298.839	5.06
299.052	4.78
299.265	5.04
299.478	5.06
299.691	5.17
299.903	5.81
300.116	5.95
300.329	5.62
300.542	5.79
300.755	5.5
300.967	5.6
301.18	6.14
301.393	6.09
301.605	5.8
301.818	5.93
302.031	6.01
302.243	5.95
302.456	5.55
302.669	5.27
302.881	5
303.094	5.02
303.307	4.79
303.519	4.49
303.732	4.4
303.944	4.18
304.157	4.06
304.37	4.1
304.582	3.91
304.795	4.05
305.007	4.23
305.22	4.21
305.432	4.6
305.645	5.09
305.857	5.23
306.069	5.3
306.282	6.02
306.494	6.35
306.707	6.37
306.919	5.91
307.132	6.21
307.344	6.33
307.556	6.7
307.769	6.56
307.981	5.99
308.193	6.31
308.406	6.3
308.618	6.08
308.83	6.07
309.043	5.93
309.255	6.41
309.467	6.26
309.679	5.93
309.892	5.65
310.104	5.48
310.316	5.83
310.528	6.14
310.74	6.64
310.953	6.43
311.165	6.45
311.377	6.2
311.589	5.62
311.801	5.71
312.013	6.36
312.225	6.11
312.437	5.76
312.649	5.69
312.862	5.12
313.074	4.79
313.286	5.15
313.498	5.02
313.71	4.98
313.922	5.99
314.134	5.71
314.346	5.42
314.558	5.35
314.77	5.37
314.982	5.24
315.193	5.41
315.405	5.47
315.617	4.76
315.829	4.5
316.041	5.21
316.253	4.45
316.465	4.8
316.677	4.81
316.888	5.17
317.1	5.53
317.312	5.19
317.524	4.64
317.736	4.38
317.947	4.6
318.159	4.47
318.371	3.43
318.583	3.83
318.794	3.23
319.006	3.11
319.218	3.1
319.43	3.18
319.641	3.82
319.853	4.65
320.064	4.44
320.276	4.49
320.488	5.38
320.699	5.81
320.911	5.61
321.123	5.88
321.334	5.84
321.546	5.96
321.757	5.94
321.969	6.05
322.18	5.81
322.392	6.33
322.603	7.12
322.815	7.01
323.026	7.31
323.238	7.55
323.449	7.49
323.661	7.73
323.872	7.59
324.083	7.44
324.295	6.99
324.506	6.96
324.718	6.8
324.929	6.05
325.14	5.63
325.352	5.68
325.563	5.69
325.774	5.79
325.986	5.58
326.197	6.14
326.408	6.25
326.62	6.23
326.831	5.83
327.042	6.06
327.253	6.58
327.464	6.83
327.676	6.55
327.887	6.56
328.098	6.7
328.309	7.06
328.52	6.49
328.732	6.91
328.943	7.74
329.154	8.08
329.365	7.52
329.576	7.53
329.787	7.79
329.998	8.14
330.209	8.01
330.42	8.21
330.631	8.06
330.842	8.73
331.053	8.13
331.264	7.63
331.475	7.38
331.686	7.72
331.897	7.31
332.108	6.94
332.319	6.88
332.53	6.97
332.741	6.61
332.952	6.34
333.163	5.6
333.374	5.88
333.585	6.06
333.795	6.38
334.006	6.42
334.217	6.54
334.428	6.59
334.639	6.3
334.849	6.29
335.06	6.39
335.271	6.99
335.482	7.42
335.692	7.32
335.903	7.28
336.114	7.07
336.325	7.19
336.535	7.28
336.746	7.49
336.957	7.79
337.167	7.72
337.378	7.75
337.589	7.25
337.799	6.95
338.01	6.9
338.22	7.05
338.431	7.21
338.642	6.66
338.852	6.75
339.063	6.62
339.273	6.79
339.484	6.77
339.694	6.76
339.905	6.87
340.115	6.81
340.326	6.98
340.536	6.58
340.746	6.59
340.957	7.03
341.167	7.21
341.378	7.11
341.588	6.79
341.799	6.63
342.009	6.8
342.219	6.86
342.43	6.81
342.64	6.74
342.85	6.87
343.061	6.74
343.271	6.3
343.481	6.58
343.691	6.7
343.902	6.88
344.112	7.23
344.322	6.88
344.532	6.95
344.743	7.11
344.953	7.28
345.163	7.31
345.373	7.48
345.583	7.71
345.793	7.5
346.004	7.2
346.214	7.14
346.424	6.85
346.634	7.4
346.844	7.14
347.054	7.48
347.264	7.48
347.474	7.25
347.684	7.32
347.894	7.25
348.104	6.74
348.314	7.04
348.524	6.92
348.734	7.34
348.944	6.66
349.154	6.92
349.364	6.77
349.574	6.29
349.784	6.56
349.994	6.48
350.204	6.75
350.413	6.72
350.623	6.36
350.833	6.6
351.043	6.53
351.253	7.04
351.463	6.39
351.672	6.31
351.882	6.46
352.092	6.24
352.302	6.14
352.511	6.1
352.721	5.88
352.931	6.23
353.141	6
353.35	6.07
353.56	6.02
353.77	6.73
353.979	6.53
354.189	6.66
354.399	6.83
354.608	6.77
354.818	6.9
355.027	6.9
355.237	6.69
355.447	6.66
355.656	6.43
355.866	6.42
356.075	6.06
356.285	6.28
356.494	6.24
356.704	6.1
356.913	6.16
357.123	6.06
357.332	6.3
357.542	6.52
357.751	6.56
357.96	6.33
358.17	6.01
358.379	6.19
358.589	6.08
358.798	6.18
359.007	6.31
359.217	6.33
359.426	6.25
359.635	6.21
359.845	6.27
360.054	6.12
360.263	6.33
360.472	6.59
360.682	6.46
360.891	6.53
361.1	6.49
361.309	6.29
361.519	6.11
361.728	5.93
361.937	5.91
362.146	5.72
362.355	5.74
362.564	5.95
362.774	5.94
362.983	6.01
363.192	5.8
363.401	5.79
363.61	5.99
363.819	6.24
364.028	6.29
364.237	6.65
364.446	6.82
364.655	6.92
364.864	6.44
365.073	6.44
365.282	6.4
365.491	6.37
365.7	6.4
365.909	6.34
366.118	5.99
366.327	5.82
366.536	5.72
366.745	5.6
366.954	5.52
367.162	5.73
367.371	5.55
367.58	5.56
367.789	5.63
367.998	5.6
368.207	5.39
368.415	5.66
368.624	5.92
368.833	5.54
369.042	5.39
369.25	5.42
369.459	5.26
369.668	5.26
369.877	5.16
370.085	5.26
370.294	4.92
370.503	5.04
370.711	4.99
370.92	4.93
371.129	4.97
371.337	4.88
371.546	4.94
371.754	4.96
371.963	4.96
372.171	5.13
372.38	5.25
372.589	5.69
372.797	5.75
373.006	5.69
373.214	5.8
373.423	5.87
373.631	6.14
373.84	6.11
374.048	6.24
374.256	6.17
374.465	6.06
374.673	5.76
374.882	5.68
375.09	5.7
375.298	5.86
375.507	5.98
375.715	5.91
375.923	5.82
376.132	6.07
376.34	6.13
376.548	6.28
376.757	6.4
376.965	6.53
377.173	6.43
377.381	6.59
377.59	6.45
377.798	6.18
378.006	6.43
378.214	6.48
378.423	6.46
378.631	6.36
378.839	6.18
379.047	6.12
379.255	6.08
379.463	6.01
379.671	5.93
379.879	5.98
380.088	6.14
380.296	6.03
380.504	5.96
380.712	5.91
380.92	5.91
381.128	6.23
381.336	5.92
381.544	5.91
381.752	6.02
381.96	5.88
382.168	6.01
382.376	5.89
382.584	5.71
382.791	5.78
382.999	5.47
383.207	5.42
383.415	5.22
383.623	5.47
383.831	5.34
384.039	5.13
384.247	5.14
384.454	4.81
384.662	4.79
384.87	4.94
385.078	4.56
385.285	4.72
385.493	4.74
385.701	4.63
385.909	4.66
386.116	4.78
386.324	4.75
386.532	4.62
386.739	4.72
386.947	4.87
387.155	4.88
387.362	5.22
387.57	5.24
387.778	5.18
387.985	5.35
388.193	5.18
388.4	5.15
388.608	5.12
388.816	5.31
389.023	5.5
389.231	5.6
389.438	5.45
389.646	5.42
389.853	5.42
390.061	5.46
390.268	5.48
390.475	5.52
390.683	5.48
390.89	5.47
391.098	5.51
391.305	5.36
391.512	5.05
391.72	5.24
391.927	5.27
392.135	5.05
392.342	5.02
392.549	4.85
392.756	4.87
392.964	4.92
393.171	5.28
393.378	5.23
393.586	5.24
393.793	5.17
394	4.98
394.207	4.95
394.414	5.15
394.622	5.2
394.829	5.29
395.036	5.19
395.243	5.38
395.45	5.03
395.657	4.98
395.864	4.88
396.072	5.11
396.279	5.14
396.486	5.08
396.693	4.78
396.9	4.83
397.107	4.88
397.314	4.87
397.521	4.6
397.728	4.76
397.935	4.59
398.142	4.67
398.349	4.71
398.556	4.9
398.763	4.87
398.97	5.06
399.177	4.95
399.383	4.91
399.59	5.03
399.797	5.05
400.004	4.97
400.211	5.02
400.418	5.15
400.625	4.8
400.831	4.57
401.038	4.65
401.245	4.53
401.452	4.54
401.658	4.49
401.865	4.49
402.072	4.51
402.279	4.48
402.485	4.57
402.692	4.46
402.899	4.69
403.105	4.65
403.312	4.57
403.519	4.72
403.725	4.76
403.932	4.62
404.138	4.51
404.345	4.67
404.552	4.63
404.758	4.46
404.965	4.4
405.171	4.43
405.378	4.44
405.584	4.51
405.791	4.37
405.997	4.26
406.204	4.41
406.41	4.3
406.617	4.04
406.823	4.1
407.029	4.24
407.236	4.32
407.442	4.35
407.649	4.44
407.855	4.35
408.061	4.23
408.268	4.24
408.474	4.24
408.68	4.47
408.887	4.59
409.093	4.52
409.299	4.64
409.505	4.6
409.712	4.56
409.918	4.53
410.124	4.51
410.33	4.73
410.537	4.83
410.743	4.88
410.949	4.72
411.155	4.73
411.361	4.84
411.567	4.63
411.773	4.7
411.98	4.69
412.186	4.7
412.392	4.84
412.598	4.76
412.804	4.64
413.01	4.5
413.216	4.62
413.422	4.52
413.628	4.44
413.834	4.49
414.04	4.52
414.246	4.44
414.452	4.42
414.658	4.37
414.864	4.44
415.07	4.4
415.275	4.41
415.481	4.36
415.687	4.28
415.893	4.21
416.099	4.23
416.305	4.15
416.511	4.24
416.716	4.25
416.922	4.12
417.128	4.14
417.334	4.15
417.539	4.18
417.745	4.17
417.951	4.16
418.157	4.19
418.362	4.06
418.568	3.98
418.774	3.9
418.979	4
419.185	4.06
419.391	3.98
419.596	3.98
419.802	3.97
420.008	4
420.213	4.7
420.419	4.74
420.624	4.89
420.83	4.94
421.035	4.98
421.241	4.97
421.446	4.89
421.652	4.92
421.857	4.86
422.063	4.84
422.268	4.81
422.474	4.15
422.679	4.12
422.885	4.05
423.09	4.01
423.295	3.99
423.501	3.95
423.706	4.02
423.911	3.96
424.117	4
424.322	4.09
424.527	4.11
424.733	4.1
424.938	4.05
425.143	4.12
425.349	4.09
425.554	4.09
425.759	3.89
425.964	3.82
426.169	3.92
426.375	3.92
426.58	3.81
426.785	3.74
426.99	3.66
427.195	3.68
427.4	3.39
427.605	3.46
427.811	3.41
428.016	3.51
428.221	3.53
428.426	3.33
428.631	3.43
428.836	3.31
429.041	3.43
429.246	3.54
429.451	3.47
429.656	3.59
429.861	3.7
430.066	3.62
430.271	3.62
430.476	3.66
430.681	3.64
430.886	3.61
431.09	3.69
431.295	3.56
431.5	3.54
431.705	3.58
431.91	3.6
432.115	3.42
432.32	3.47
432.524	3.48
432.729	3.46
432.934	3.63
433.139	3.58
433.343	3.57
433.548	3.61
433.753	3.58
433.958	3.61
434.162	3.65
434.367	3.71
434.572	3.69
434.776	3.65
434.981	3.56
435.186	3.54
435.39	3.46
435.595	3.41
435.799	3.39
436.004	3.45
436.209	3.5
436.413	3.49
436.618	3.48
436.822	3.42
437.027	3.39
437.231	3.39
437.436	3.35
437.64	3.49
437.845	3.49
438.049	3.56
438.253	3.54
438.458	3.48
438.662	3.47
438.867	3.43
439.071	3.48
439.275	3.57
439.48	3.6
439.684	3.64
439.888	3.55
440.093	3.65
440.297	3.56
440.501	3.53
440.706	3.54
440.91	3.52
441.114	3.57
441.318	3.66
441.523	3.72
441.727	3.67
441.931	3.61
442.135	3.58
442.339	3.49
442.543	3.54
442.748	3.52
442.952	3.44
443.156	3.4
443.36	3.4
443.564	3.23
443.768	3.13
443.972	3.19
444.176	3.21
444.38	3.31
444.584	3.31
444.788	3.29
444.992	3.37
445.196	3.43
445.4	3.46
445.604	3.44
445.808	3.51
446.012	3.53
446.216	3.51
446.42	3.48
446.624	3.44
446.828	3.45
447.032	3.46
447.235	3.43
447.439	3.41
447.643	3.39
447.847	3.48
448.051	3.48
448.254	3.45
448.458	3.45
448.662	3.48
448.866	3.46
449.069	3.43
449.273	3.38
449.477	3.45
449.681	3.48
449.884	3.46
450.088	3.47
450.292	3.53
450.495	3.57
450.699	3.55
450.902	3.56
451.106	3.49
451.31	3.53
451.513	3.51
451.717	3.5
451.92	3.5
452.124	3.47
452.327	3.34
452.531	3.24
452.734	3.14
452.938	3.21
453.141	3.21
453.345	3.31
453.548	3.31
453.752	3.37
453.955	3.25
454.158	3.23
454.362	3.28
454.565	3.34
454.769	3.43
454.972	3.4
455.175	3.38
455.379	3.34
455.582	3.26
455.785	3.25
455.988	3.28
456.192	3.3
456.395	3.24
456.598	3.26
456.801	3.27
457.005	3.25
457.208	3.31
457.411	3.34
457.614	3.39
457.817	3.39
458.021	3.42
458.224	3.36
458.427	3.29
458.63	3.32
458.833	3.26
459.036	3.29
459.239	3.3
459.442	3.27
459.645	3.29
459.848	3.3
460.051	3.33
460.254	3.27
460.457	3.3
460.66	3.38
460.863	3.36
461.066	3.3
461.269	3.12
461.472	3.06
461.675	3.03
461.878	2.92
462.081	2.88
462.284	2.84
462.486	2.87
462.689	2.87
462.892	2.85
463.095	2.82
463.298	2.9
463.5	3.03
463.703	3.19
463.906	3.13
464.109	3.13
464.311	3.14
464.514	3.18
464.717	3.19
464.92	3.13
465.122	3.11
465.325	3.26
465.528	3.4
465.73	3.44
465.933	3.37
466.135	3.42
466.338	3.46
466.541	3.34
466.743	3.25
466.946	3.27
467.148	3.38
467.351	3.41
467.553	3.37
467.756	3.28
467.958	3.22
468.161	3.24
468.363	3.3
468.566	3.31
468.768	3.38
468.971	3.51
469.173	3.48
469.375	3.43
469.578	3.29
469.78	3.13
469.983	3.16
470.185	3.14
470.387	3.07
470.59	3.06
470.792	3.01
470.994	3.03
471.196	3.01
471.399	2.99
471.601	3.06
471.803	3.24
472.005	3.31
472.208	3.36
472.41	3.34
472.612	3.37
472.814	3.3
473.016	3.18
473.218	3.25
473.421	3.2
473.623	3.27
473.825	3.19
474.027	3.17
474.229	3.18
474.431	3.14
474.633	3.15
474.835	3.13
475.037	3.2
475.239	3.29
475.441	3.18
475.643	3.2
475.845	3.29
476.047	3.37
476.249	3.4
476.451	3.4
476.653	3.35
476.855	3.39
477.057	3.45
477.258	3.52
477.46	3.59
477.662	3.57
477.864	3.49
478.066	3.33
478.268	3.35
478.469	3.28
478.671	3.33
478.873	3.43
479.075	3.45
479.276	3.41
479.478	3.36
479.68	3.33
479.882	3.37
480.083	3.39
480.285	3.43
480.487	3.35
480.688	3.38
480.89	3.39
481.091	3.38
481.293	3.37
481.495	3.39
481.696	3.37
481.898	3.38
482.099	3.4
482.301	3.42
482.502	3.4
482.704	3.43
482.905	3.43
483.107	3.41
483.308	3.4
483.51	3.38
483.711	3.39
483.913	3.39
484.114	3.39
484.315	3.4
484.517	3.39
484.718	3.37
484.92	3.33
485.121	3.36
485.322	3.37
485.524	3.38
485.725	3.39
485.926	3.37
486.127	3.36
486.329	3.36
486.53	3.37
486.731	3.36
486.932	3.39
487.134	3.41
487.335	3.39
487.536	3.4
487.737	3.41
487.938	3.43
488.139	3.43
488.341	3.44
488.542	3.46
488.743	3.43
488.944	3.46
489.145	3.46
489.346	3.43
489.547	3.41
489.748	3.39
489.949	3.43
490.15	3.41
490.351	3.44
490.552	3.47
490.753	3.45
490.954	3.41
491.155	3.43
491.356	3.46
491.557	3.52
491.758	3.55
491.959	3.58
492.159	3.52
492.36	3.57
492.561	3.57
492.762	3.56
492.963	3.6
493.164	3.62
493.364	3.56
493.565	3.5
493.766	3.54
493.967	3.53
494.167	3.51
494.368	3.56
494.569	3.42
494.769	3.44
494.97	3.44
495.171	3.39
495.371	3.42
495.572	3.44
495.773	3.49
495.973	3.47
496.174	3.5
496.375	3.49
496.575	3.51
496.776	3.63
496.976	3.62
497.177	3.6
497.377	3.63
497.578	3.63
497.778	3.69
497.979	3.68
498.179	3.64
498.38	3.64
498.58	3.66
498.78	3.61
498.981	3.62
499.181	3.62
499.382	3.63
499.582	3.68
499.782	3.76
499.983	3.73
500.183	3.71
500.383	3.69
500.584	3.62
500.784	3.66
500.984	3.71
501.184	3.71
501.385	3.76
501.585	3.84
501.785	3.85
501.985	3.77
502.185	3.73
502.386	3.75
502.586	3.85
502.786	3.93
502.986	3.91
503.186	3.87
503.386	3.89
503.586	3.92
503.786	3.9
503.987	3.89
504.187	3.97
504.387	4.04
504.587	4.06
504.787	4.02
504.987	4.06
505.187	4.02
505.387	3.97
505.587	3.9
505.786	3.76
505.986	3.81
506.186	3.81
506.386	3.83
506.586	3.78
506.786	3.78
506.986	3.81
507.186	3.77
507.386	3.8
507.585	3.89
507.785	3.87
507.985	3.96
508.185	3.95
508.384	3.98
508.584	3.93
508.784	4
508.984	4.04
509.183	4.06
509.383	4.15
509.583	4.28
509.782	4.29
509.982	4.39
510.182	4.4
510.381	4.34
510.581	4.32
510.781	4.38
510.98	4.43
511.18	4.44
511.379	4.47
511.579	4.4
511.778	4.28
511.978	4.36
512.177	4.38
512.377	4.45
512.576	4.53
512.776	4.61
512.975	4.63
513.175	4.55
513.374	4.49
513.573	4.54
513.773	4.54
513.972	4.63
514.172	4.64
514.371	4.71
514.57	4.7
514.77	4.71
514.969	4.75
515.168	4.7
515.367	4.77
515.567	4.87
515.766	4.87
515.965	4.83
516.164	4.84
516.364	4.74
516.563	4.68
516.762	4.67
516.961	4.69
517.16	4.65
517.359	4.68
517.559	4.68
517.758	4.67
517.957	4.63
518.156	4.65
518.355	4.6
518.554	4.67
518.753	4.68
518.952	4.7
519.151	4.71
519.35	4.75
519.549	4.83
519.748	4.82
519.947	4.85
520.146	4.91
520.345	4.99
520.544	5.2
520.743	5.21
520.942	5.2
521.141	5.23
521.339	5.17
521.538	5.15
521.737	5.14
521.936	5.19
522.135	5.17
522.333	5.19
522.532	5.19
522.731	5.16
522.93	5.2
523.129	5.28
523.327	5.24
523.526	5.34
523.725	5.36
523.923	5.31
524.122	5.32
524.321	5.3
524.519	5.29
524.718	5.26
524.917	5.21
525.115	5.23
525.314	5.26
525.512	5.31
525.711	5.26
525.909	5.3
526.108	5.35
526.306	5.36
526.505	5.41
526.703	5.43
526.902	5.49
527.1	5.49
527.299	5.5
527.497	5.49
527.696	5.5
527.894	5.55
528.092	5.54
528.291	5.55
528.489	5.59
528.688	5.6
528.886	5.63
529.084	5.66
529.283	5.69
529.481	5.71
529.679	5.72
529.877	5.75
530.076	5.75
530.274	5.8
530.472	5.79
530.67	5.76
530.869	5.8
531.067	5.86
531.265	5.82
531.463	5.82
531.661	5.82
531.859	5.82
532.057	5.83
532.255	5.84
532.454	5.88
532.652	5.93
532.85	5.94
533.048	5.94
533.246	5.91
533.444	5.98
533.642	6.02
533.84	6.08
534.038	6.14
534.236	6.13
534.434	6.18
534.632	6.17
534.83	6.2
535.027	6.27
535.225	6.25
535.423	6.29
535.621	6.3
535.819	6.25
536.017	6.23
536.215	6.24
536.412	6.33
536.61	6.31
536.808	6.35
537.006	6.35
537.203	6.3
537.401	6.38
537.599	6.43
537.797	6.46
537.994	6.57
538.192	6.68
538.39	6.64
538.587	6.65
538.785	6.68
538.983	6.69
539.18	6.72
539.378	6.74
539.575	6.78
539.773	6.76
539.97	6.73
540.168	6.74
540.366	6.75
540.563	6.8
540.761	6.81
540.958	6.86
541.155	6.89
541.353	6.91
541.55	6.94
541.748	6.97
541.945	7.01
542.143	7.05
542.34	7.11
542.537	7.12
542.735	7.13
542.932	7.14
543.129	7.17
543.327	7.18
543.524	7.22
543.721	7.28
543.919	7.31
544.116	7.3
544.313	7.35
544.51	7.35
544.708	7.36
544.905	7.45
545.102	7.5
545.299	7.48
545.496	7.48
545.693	7.55
545.891	7.56
546.088	7.55
546.285	7.62
546.482	7.63
546.679	7.68
546.876	7.7
547.073	7.64
547.27	7.67
547.467	7.8
547.664	7.8
547.861	7.76
548.058	7.83
548.255	7.85
548.452	7.86
548.649	7.88
548.846	8.05
549.043	8.21
549.24	8.33
549.437	8.41
549.633	8.41
549.83	8.52
550.027	8.61
550.224	8.72
550.421	8.79
550.618	8.84
550.814	8.9
551.011	8.83
551.208	8.8
551.405	8.82
551.601	8.81
551.798	8.83
551.995	8.86
552.191	8.95
552.388	8.89
552.585	8.88
552.781	8.96
552.978	8.92
553.175	8.89
553.371	8.91
553.568	9
553.764	9.14
553.961	9.17
554.157	9.2
554.354	9.14
554.55	9.29
554.747	9.32
554.943	9.34
555.14	9.52
555.336	9.55
555.533	9.68
555.729	9.66
555.926	9.68
556.122	9.83
556.318	9.9
556.515	9.93
556.711	9.9
556.907	10.11
557.104	10.19
557.3	10.15
557.496	10.35
557.693	10.33
557.889	10.35
558.085	10.29
558.281	10.17
558.478	10.24
558.674	10.33
558.87	10.41
559.066	10.38
559.262	10.34
559.459	10.4
559.655	10.35
559.851	10.35
560.047	10.46
560.243	10.6
560.439	10.71
560.635	10.74
560.831	10.74
561.027	10.77
561.223	10.8
561.419	10.92
561.615	10.92
561.811	10.95
562.007	11.06
562.203	11.18
562.399	11.21
562.595	11.28
562.791	11.34
562.987	11.41
563.183	11.4
563.379	11.4
563.575	11.47
563.771	11.54
563.966	11.71
564.162	11.77
564.358	11.75
564.554	11.72
564.75	11.75
564.945	11.77
565.141	11.85
565.337	11.99
565.533	12.11
565.728	12.13
565.924	12.17
566.12	12.18
566.315	12.11
566.511	12.14
566.707	12.33
566.902	12.32
567.098	12.38
567.293	12.5
567.489	12.51
567.684	12.56
567.88	12.58
568.076	12.69
568.271	12.76
568.467	12.9
568.662	12.97
568.858	12.94
569.053	13.02
569.248	13.05
569.444	12.98
569.639	13.04
569.835	13.06
570.03	13.15
570.225	13.2
570.421	13.25
570.616	13.26
570.812	13.21
571.007	13.28
571.202	13.38
571.397	13.45
571.593	13.47
571.788	13.56
571.983	13.57
572.178	13.71
572.374	13.8
572.569	13.89
572.764	14.01
572.959	14.13
573.154	14.21
573.35	14.2
573.545	14.25
573.74	14.24
573.935	14.21
574.13	14.23
574.325	14.2
574.52	14.15
574.715	14.1
574.91	14.09
575.105	14.15
575.3	14.13
575.495	14.11
575.69	14.2
575.885	14.25
576.08	14.32
576.275	14.44
576.47	14.45
576.665	14.56
576.86	14.67
577.055	14.66
577.25	14.7
577.444	14.69
577.639	14.69
577.834	14.68
578.029	14.81
578.224	14.83
578.418	14.8
578.613	14.75
578.808	14.74
579.003	14.59
579.197	14.72
579.392	14.7
579.587	14.8
579.781	14.93
579.976	14.92
580.171	14.97
580.365	14.99
580.56	14.93
580.755	15.11
580.949	15.19
581.144	15.28
581.338	15.25
581.533	15.26
581.727	15.39
581.922	15.49
582.116	15.58
582.311	15.56
582.505	15.51
582.7	15.66
582.894	15.67
583.089	15.65
583.283	15.71
583.478	15.66
583.672	15.88
583.866	15.81
584.061	15.82
584.255	15.82
584.449	15.93
584.644	16.03
584.838	16.11
585.032	16.04
585.226	16.11
585.421	16.15
585.615	16.37
585.809	16.21
586.003	16.32
586.198	16.33
586.392	16.33
586.586	16.37
586.78	16.38
586.974	16.36
587.168	16.44
587.363	16.4
587.557	16.37
587.751	16.32
587.945	16.38
588.139	16.36
588.333	16.36
588.527	16.35
588.721	16.36
588.915	16.33
589.109	16.24
589.303	16.21
589.497	16.13
589.691	16.26
589.885	16.32
590.079	16.34
590.273	16.34
590.466	16.33
590.66	16.61
590.854	16.52
591.048	16.83
591.242	16.9
591.436	17.03
591.629	17.16
591.823	17.19
592.017	17.04
592.211	17.12
592.404	17.2
592.598	17.38
592.792	17.1
592.986	17.17
593.179	16.91
593.373	16.98
593.567	16.95
593.76	17.03
593.954	16.98
594.147	17.04
594.341	17.01
594.535	16.93
594.728	16.88
594.922	17.05
595.115	17.08
595.309	17.24
595.502	17.23
595.696	17.15
595.889	17.13
596.083	17.17
596.276	17.3
596.47	17.3
596.663	17.28
596.856	17.26
597.05	17.28
597.243	17.34
597.437	17.29
597.63	17.36
597.823	17.38
598.017	17.37
598.21	17.48
598.403	17.47
598.596	17.56
598.79	17.67
598.983	17.75
599.176	17.69
599.369	17.65
599.563	17.68
599.756	17.73
599.949	17.97
600.142	18.03
600.335	17.97
600.528	18.02
600.722	17.98
600.915	18.15
601.108	18.2
601.301	18.25
601.494	18.33
601.687	18.32
601.88	18.4
602.073	18.33
602.266	18.38
602.459	18.33
602.652	18.18
602.845	18.35
603.038	18.25
603.231	18.17
603.424	18.18
603.617	18.21
603.809	18.33
604.002	18.19
604.195	18.31
604.388	18.32
604.581	18.4
604.774	18.54
604.966	18.4
605.159	18.4
605.352	18.51
605.545	18.56
605.737	18.56
605.93	18.58
606.123	18.79
606.316	18.71
606.508	18.7
606.701	18.7
606.894	18.74
607.086	18.71
607.279	18.84
607.471	18.92
607.664	18.93
607.857	18.86
608.049	18.75
608.242	18.62
608.434	18.61
608.627	18.69
608.819	18.59
609.012	18.7
609.204	18.75
609.397	18.7
609.589	18.58
609.782	18.56
609.974	18.63
610.166	18.61
610.359	18.64
610.551	18.67
610.743	18.66
610.936	18.7
611.128	18.56
611.32	18.53
611.513	18.59
611.705	18.61
611.897	18.61
612.09	18.66
612.282	18.99
612.474	18.92
612.666	18.88
612.858	18.73
613.051	18.69
613.243	18.69
613.435	18.84
613.627	18.65
613.819	18.63
614.011	18.77
614.203	18.6
614.395	18.27
614.588	18.37
614.78	18.5
614.972	18.64
615.164	18.87
615.356	18.95
615.548	18.82
615.74	19.11
615.932	19.3
616.124	19.19
616.315	19.37
616.507	19.6
616.699	19.7
616.891	19.64
617.083	19.73
617.275	19.54
617.467	19.48
617.659	19.81
617.85	19.64
618.042	19.58
618.234	19.5
618.426	19.46
618.618	19.5
618.809	19.69
619.001	19.71
619.193	19.51
619.384	19.55
619.576	19.51
619.768	19.29
619.959	19.49
620.151	19.35
620.343	19.49
620.534	19.43
620.726	19.47
620.917	19.15
621.109	19.1
621.301	19.37
621.492	19.55
621.684	19.64
621.875	19.56
622.067	19.41
622.258	19.52
622.45	19.41
622.641	19.41
622.832	19.34
623.024	19.36
623.215	19.46
623.407	19.38
623.598	19.37
623.789	19.21
623.981	19.31
624.172	19.41
624.363	19.46
624.555	19.61
624.746	19.7
624.937	19.61
625.129	19.69
625.32	19.63
625.511	19.54
625.702	19.51
625.893	19.58
626.085	19.46
626.276	19.47
626.467	19.47
626.658	19.46
626.849	19.49
627.04	19.57
627.231	19.62
627.422	19.73
627.614	19.85
627.805	19.92
627.996	19.91
628.187	20.06
628.378	20.06
628.569	20.16
628.76	20.16
628.951	20.13
629.142	20
629.332	19.91
629.523	19.85
629.714	19.85
629.905	19.76
630.096	20.05
630.287	19.99
630.478	20.01
630.669	19.81
630.859	19.79
631.05	19.86
631.241	19.88
631.432	19.76
631.623	19.85
631.813	19.79
632.004	19.9
632.195	19.7
632.385	19.77
632.576	19.72
632.767	19.9
632.957	19.98
633.148	20.04
633.339	20.17
633.529	20.42
633.72	20.36
633.91	20.45
634.101	20.39
634.292	20.41
634.482	20.57
634.673	20.6
634.863	20.45
635.054	20.35
635.244	20.36
635.435	20.45
635.625	20.37
635.815	20.39
636.006	20.35
636.196	20.48
636.387	20.53
636.577	20.38
636.767	20.56
636.958	20.7
637.148	20.74
637.338	20.8
637.529	20.73
637.719	20.9
637.909	20.92
638.099	20.99
638.29	21.08
638.48	21.13
638.67	21.16
638.86	21.02
639.05	20.85
639.241	20.81
639.431	20.66
639.621	20.68
639.811	20.74
640.001	20.71
640.191	20.73
640.381	20.56
640.571	20.54
640.761	20.72
640.951	20.74
641.141	20.86
641.331	20.82
641.521	20.8
641.711	20.66
641.901	20.3
642.091	20.32
642.281	20.11
642.471	20.13
642.661	20.07
642.851	20.06
643.041	20.14
643.231	20.08
643.42	20.17
643.61	20.23
643.8	20.28
643.99	20.45
644.18	20.48
644.369	20.67
644.559	20.67
644.749	20.82
644.939	20.79
645.128	20.67
645.318	20.9
645.508	20.65
645.697	20.81
645.887	20.82
646.076	21.04
646.266	21.03
646.456	20.97
646.645	20.97
646.835	20.99
647.024	21.11
647.214	21.21
647.403	21.17
647.593	21.46
647.782	21.24
647.972	21.24
648.161	21
648.351	20.99
648.54	21.02
648.73	21.07
648.919	21.11
649.108	20.8
649.298	20.64
649.487	20.53
649.677	20.77
649.866	20.81
650.055	20.87
650.244	20.86
650.434	20.98
650.623	21.22
650.812	21.31
651.002	21.25
651.191	21.35
651.38	21.73
651.569	21.74
651.758	21.58
651.947	21.76
652.137	21.91
652.326	22.25
652.515	22.18
652.704	22.07
652.893	21.83
653.082	21.68
653.271	21.77
653.46	21.57
653.649	21.4
653.838	21.48
654.027	21.35
654.216	21.14
654.405	21.02
654.594	21.14
654.783	21.14
654.972	21.23
655.161	21.27
655.35	21.05
655.539	20.99
655.728	21.11
655.916	20.85
656.105	20.73
656.294	21.07
656.483	20.97
656.672	20.99
656.86	21.07
657.049	21.21
657.238	21.38
657.427	21.47
657.615	21.53
657.804	21.57
657.993	21.69
658.181	21.8
658.37	21.61
658.559	21.56
658.747	21.61
658.936	21.58
659.125	21.86
659.313	22.04
659.502	22.21
659.69	22.31
659.879	22.41
660.067	22.46
660.256	22.49
660.444	22.39
660.633	22.35
660.821	22.04
661.01	22.1
661.198	21.84
661.387	21.66
661.575	21.61
661.763	21.46
661.952	21.25
662.14	21.12
662.328	20.97
662.517	21.02
662.705	20.87
662.893	20.91
663.082	20.99
663.27	21.01
663.458	20.85
663.646	20.89
663.834	20.94
664.023	21.09
664.211	21.11
664.399	21.3
664.587	21.55
664.775	22.02
664.963	22.25
665.152	22.16
665.34	21.94
665.528	21.89
665.716	21.95
665.904	21.91
666.092	22.1
666.28	22.27
666.468	22.33
666.656	22.35
666.844	22.25
667.032	22.25
667.22	22.25
667.408	22.38
667.596	22.45
667.784	22.26
667.971	22.46
668.159	22.39
668.347	22.31
668.535	22.41
668.723	22.25
668.911	22.39
669.098	22.36
669.286	22.31
669.474	22.26
669.662	22.28
669.849	22.25
670.037	22.15
670.225	22.18
670.413	22.22
670.6	22
670.788	22.2
670.976	22.09
671.163	22.25
671.351	22.35
671.538	22.52
671.726	22.4
671.913	22.66
672.101	22.56
672.289	22.55
672.476	22.39
672.664	22.39
672.851	21.92
673.039	21.83
673.226	21.85
673.413	21.72
673.601	21.43
673.788	21.73
673.976	21.58
674.163	21.89
674.35	21.85
674.538	22.09
674.725	22.19
674.912	22.67
675.1	22.58
675.287	22.55
675.474	22.75
675.662	23.02
675.849	23.02
676.036	22.99
676.223	22.95
676.411	22.84
676.598	23.02
676.785	23.05
676.972	22.85
677.159	22.98
677.346	22.7
677.533	22.66
677.721	22.64
677.908	22.5
678.095	22.64
678.282	22.43
678.469	22.49
678.656	22.36
678.843	22.37
679.03	22.4
679.217	22.35
679.404	22.28
679.591	22.39
679.778	22.16
679.964	22.26
680.151	22.21
680.338	22.23
680.525	22.27
680.712	22.34
680.899	22.48
681.086	22.66
681.272	22.79
681.459	22.97
681.646	22.83
681.833	22.9
682.02	22.83
682.206	22.98
682.393	23.2
682.58	23.13
682.766	23.16
682.953	23.25
683.14	23
683.326	22.92
683.513	22.76
683.7	22.73
683.886	22.72
684.073	22.8
684.259	22.48
684.446	22.5
684.632	22.71
684.819	22.55
685.005	22.2
685.192	22.37
685.378	22.26
685.565	22.69
685.751	22.88
685.938	23.1
686.124	23.13
686.31	23.13
686.497	22.78
686.683	22.92
686.87	22.93
687.056	22.94
687.242	22.93
687.429	22.88
687.615	22.84
687.801	22.71
687.987	22.74
688.174	22.78
688.36	22.99
688.546	23.32
688.732	22.93
688.918	22.8
689.105	22.73
689.291	22.81
689.477	23
689.663	22.84
689.849	22.47
690.035	22.17
690.221	22.03
690.407	22.01
690.593	21.8
690.779	21.85
690.965	22.08
691.151	21.96
691.337	21.75
691.523	21.85
691.709	22.06
691.895	22.35
692.081	22.66
692.267	22.57
692.453	22.56
692.639	22.42
692.825	22.78
693.011	22.77
693.196	23.12
693.382	22.95
693.568	22.67
693.754	22.34
693.94	22.43
694.125	22.1
694.311	22.33
694.497	22.12
694.682	22.17
694.868	21.59
695.054	21.79
695.239	21.78
695.425	22.36
695.611	22.4
695.796	22.45
695.982	22.41
696.168	22.7
696.353	22.62
696.539	22.87
696.724	22.8
696.91	23.23
697.095	23.32
697.281	23.09
697.466	22.91
697.652	23.16
697.837	23.14
698.023	23.3
698.208	23.3
698.393	23.42
698.579	23.2
698.764	23.37
698.949	23.19
699.135	23.1
699.32	23.16
699.505	23.36
699.691	23.15
699.876	23.32
700.061	23.15
700.246	23.19
700.432	23.09
700.617	23.19
700.802	22.99
700.987	22.91
701.172	22.73
701.358	23.01
701.543	22.84
701.728	22.43
701.913	22.53
702.098	22.54
702.283	22.6
702.468	22.33
702.653	22.41
702.838	22.85
703.023	23.3
703.208	23.05
703.393	22.85
703.578	22.55
703.763	23.28
703.948	22.83
704.133	22.95
704.318	22.87
704.503	23.04
704.688	23.43
704.873	23.29
705.057	23.04
705.242	22.93
705.427	22.94
705.612	23.18
705.797	23.1
705.981	23.6
706.166	23.55
706.351	23.37
706.536	23.56
706.72	23.29
706.905	23.07
707.09	23.01
707.274	23.27
707.459	23.27
707.644	23.23
707.828	23.08
708.013	22.89
708.197	22.83
708.382	23.05
708.567	22.98
708.751	22.61
708.936	22.81
709.12	22.93
709.305	22.55
709.489	22.89
709.673	22.9
709.858	23.2
710.042	23.38
710.227	23.25
710.411	23.13
710.596	22.98
710.78	23.21
710.964	23.56
711.149	23.69
711.333	24.38
711.517	23.88
711.702	24.07
711.886	23.89
712.07	23.72
712.254	24.1
712.438	24.14
712.623	24.26
712.807	24.3
712.991	24.1
713.175	23.87
713.359	23.19
713.544	23.32
713.728	23.21
713.912	23.16
714.096	22.97
714.28	22.72
714.464	22.45
714.648	22.59
714.832	22.71
715.016	22.6
715.2	22.91
715.384	23.13
715.568	23.28
715.752	23.25
715.936	23.13
716.12	23.69
716.304	23.87
716.488	24.05
716.671	24.05
716.855	24.03
717.039	23.99
717.223	23.74
717.407	23.85
717.59	24.14
717.774	23.85
717.958	24.09
718.142	23.59
718.325	23.61
718.509	23.45
718.693	23.24
718.877	23.09
719.06	22.98
719.244	22.82
719.428	22.96
719.611	22.75
719.795	23.19
719.978	23.28
720.162	23.52
720.345	23.02
720.529	23.14
720.713	23.12
720.896	23.08
721.08	23.06
721.263	23.35
721.446	23.42
721.63	23.39
721.813	23.29
721.997	22.97
722.18	23.09
722.364	23.37
722.547	23.31
722.73	23.51
722.914	23.78
723.097	23.97
723.28	23.95
723.464	24.09
723.647	23.81
723.83	23.85
724.013	23.88
724.197	23.22
724.38	23.44
724.563	23.47
724.746	23.11
724.929	23.4
725.112	23.19
725.296	23.19
725.479	23.36
725.662	23.6
725.845	23.37
726.028	23.79
726.211	23.97
726.394	23.98
726.577	24.26
726.76	24.63
726.943	24.68
727.126	25.03
727.309	24.98
727.492	24.69
727.675	24.6
727.858	24.85
728.041	24.52
728.224	24.53
728.407	24.24
728.589	24.15
728.772	23.78
728.955	23.31
729.138	23.2
729.321	22.96
729.503	23.09
729.686	23.32
729.869	23.21
730.052	23.19
730.234	23.54
730.417	23.47
730.6	23.33
730.782	23.38
730.965	23.13
731.148	22.96
731.33	23.35
731.513	23.34
731.695	23.59
731.878	23.84
732.061	23.62
732.243	23.44
732.426	23.72
732.608	23.61
732.791	23.73
732.973	24.34
733.156	24.32
733.338	24.02
733.52	23.76
733.703	23.48
733.885	23.01
734.068	22.88
734.25	22.63
734.432	22.68
734.615	22.9
734.797	23.34
734.979	22.79
735.162	22.98
735.344	22.66
735.526	22.7
735.708	22.48
735.891	22.7
736.073	23.06
736.255	23.69
736.437	23.42
736.619	23.15
736.802	22.51
736.984	23.21
737.166	22.95
737.348	23.94
737.53	24.54
737.712	24.28
737.894	24.78
738.076	25.14
738.258	24.93
738.44	24.8
738.622	25.39
738.804	25.32
738.986	24.76
739.168	24.6
739.35	24.15
739.532	23.93
739.714	24.13
739.896	23.94
740.078	23.59
740.259	23.44
740.441	23.63
740.623	23.26
740.805	23.81
740.987	23.94
741.168	24.16
741.35	24.45
741.532	23.94
741.714	23.73
741.895	23.78
742.077	23.74
742.259	23.77
742.44	24.14
742.622	24.17
742.804	23.37
742.985	23.2
743.167	23.78
743.348	23.62
743.53	23.54
743.711	23.75
743.893	23.29
744.075	23.67
744.256	22.85
744.438	22.52
744.619	22.59
744.8	23.52
744.982	23.52
745.163	23.63
745.345	23.31
745.526	23.96
745.707	24.41
745.889	24.67
746.07	23.58
746.252	24.74
746.433	24.67
746.614	24.81
746.795	24.54
746.977	23.95
747.158	23.92
747.339	24.07
747.52	23.16
747.702	23.14
747.883	22.93
748.064	23.67
748.245	23.37
748.426	23.16
748.607	22.91
748.788	23.5
748.97	24.56
749.151	24.43
749.332	25.02
749.513	24.86
749.694	24.09
749.875	24.69
750.056	24.6
750.237	24.39
750.418	23.96
750.599	23.87
750.78	22.79
750.96	22.81
751.141	22.32
751.322	21.7
751.503	21.89
751.684	22.03
751.865	20.87
752.046	21.33
752.226	21.21
752.407	21.64
752.588	21.83
752.769	22.24
752.949	21.59
753.13	21.78
753.311	21.19
753.492	21.86
753.672	22.27
753.853	22.42
754.034	21.98
754.214	22.51
754.395	22.46
754.575	22.92
754.756	22.96
754.937	22.76
755.117	22.63
755.298	23.61
755.478	23.62
755.659	23.53
755.839	23.65
756.02	23.76
756.2	22.71
756.381	23.01
756.561	22.81
756.741	22.86
756.922	23.6
757.102	23.89
757.283	23.93
757.463	23.59
757.643	24.41
757.823	24.43
758.004	24.48
758.184	25.53
758.364	25.7
758.545	25.6
758.725	25.45
758.905	24.73
759.085	24.66
759.265	24.12
759.446	23.85
759.626	22.77
759.806	22.85
759.986	23.45
760.166	22.93
760.346	22.84
760.526	22.94
760.706	23.29
760.886	23.74
761.066	23.63
761.246	23.63
761.426	23.93
761.606	24.26
761.786	24.14
761.966	23.88
762.146	24.2
762.326	24.81
762.506	25.05
762.686	24.97
762.866	25.08
763.046	24.98
763.225	25.06
763.405	25.64
763.585	25.34
763.765	25.61
763.945	25.57
764.124	25.72
764.304	25.15
764.484	25.08
764.664	25.44
764.843	25.8
765.023	26.47
765.203	26.62
765.382	25.91
765.562	25.8
765.741	25.48
765.921	25.02
766.101	24.58
766.28	24.47
766.46	24.01
766.639	22.96
766.819	22.21
766.998	21.08
767.178	20.81
767.357	20.5
767.537	20.77
767.716	21.07
767.896	21.57
768.075	21.82
768.254	21.64
768.434	22.05
768.613	22.88
768.792	22.94
768.972	23.04
769.151	23.19
769.33	23.11
769.51	24.2
769.689	24.41
769.868	24.73
770.047	25.43
770.226	25.6
770.406	25.01
770.585	24.5
770.764	24.87
770.943	24.77
771.122	24.08
771.301	24.86
771.48	23.25
771.66	23.74
771.839	23.31
772.018	22.09
772.197	22.39
772.376	22.77
772.555	22.31
772.734	22.36
772.913	22.45
773.092	22.64
773.271	21.92
773.449	23.83
773.628	22.64
773.807	22.05
773.986	22.63
774.165	22.5
774.344	22.44
774.523	22.87
774.701	23.27
774.88	23.81
775.059	24.41
775.238	24.42
775.417	23.23
775.595	23.82
775.774	24.14
775.953	24.24
776.131	24.46
776.31	24.4
776.489	24.02
776.667	22.87
776.846	21.92
777.025	22.43
777.203	22.68
777.382	22.92
777.56	21.99
777.739	22.05
777.917	21.92
778.096	22.25
778.274	22.04
778.453	22.42
778.631	22.45
778.81	23.08
778.988	22.42
779.166	22.23
779.345	22.12
779.523	23.34
779.702	23.58
779.88	23.29
780.058	22.89
780.237	23.04
780.415	23.04
780.593	23.73
780.771	23.65
780.95	23.74
781.128	24.44
781.306	24.58
781.484	24.43
781.662	24.93
781.841	24.89
782.019	24.17
782.197	24.57
782.375	24.55
782.553	24.47
782.731	24.67
782.909	24.58
783.087	24.27
783.265	24.19
783.443	23.92
783.621	23.42
783.799	23.17
783.977	23.55
784.155	23.45
784.333	22.93
784.511	22.73
784.689	22.71
784.867	23.04
785.045	23.34
785.223	22.59
785.4	22.34
785.578	21.57
785.756	21.85
785.934	21.77
786.112	21.21
786.289	22.5
786.467	22.37
786.645	23.14
786.823	22.91
787	22.61
787.178	23.63
787.356	24.52
787.533	24.73
787.711	24.63
787.889	25.07
788.066	25.73
788.244	25.57
788.421	25.06
788.599	23.49
788.776	22.51
788.954	22.61
789.131	22.24
789.309	21.23
789.486	22.11
789.664	22.08
789.841	21.43
790.019	20.99
790.196	20.79
790.373	20.39
790.551	21.11
790.728	22.35
790.906	22.64
791.083	21.93
791.26	22.88
791.437	22.18
791.615	22.23
791.792	22.87
791.969	23.43
792.146	23.46
792.324	24.99
792.501	25.86
792.678	26.02
792.855	26.32
793.032	26.81
793.209	25.94
793.387	26.67
793.564	26.67
793.741	25.95
793.918	24.84
794.095	23.99
794.272	23.83
794.449	24.06
794.626	23.64
794.803	22.55
794.98	22.55
795.157	23.02
795.334	22.09
795.511	21.82
795.688	22.63
795.864	22.96
796.041	23.43
796.218	23.14
796.395	21.71
796.572	21.56
796.749	22.59
796.925	23.06
797.102	22.6
797.279	22.86
797.456	23.45
797.632	23.22
797.809	23.12
797.986	23.75
798.162	23.9
798.339	24.93
798.516	24.83
798.692	23.4
798.869	23.66
799.046	23.53
799.222	24.43
799.399	24.45
799.575	23.85
799.752	23.25
799.928	22.69
800.105	22.57
800.281	22.25
800.458	22.2
800.634	23.78
800.811	22.73
800.987	23.09
801.163	22.94
801.34	23.62
801.516	23.86
801.692	24.35
801.869	24.1
802.045	23.51
802.221	23.39
802.398	23.53
802.574	23.11
802.75	23.18
802.926	23.44
803.103	23.04
803.279	22.86
803.455	22.94
803.631	23.06
803.807	23.59
803.983	24.37
804.16	24.09
804.336	23.77
804.512	23.36
804.688	23.14
804.864	23.47
805.04	22.89
805.216	22.46
805.392	23.11
805.568	23.04
805.744	21.9
805.92	21.99
806.096	21.7
806.272	22.3
806.448	22.28
806.623	22.08
806.799	21.14
806.975	20.95
807.151	21.9
807.327	21.98
807.503	22.47
807.678	22.81
807.854	23.25
808.03	23.8
808.206	23.56
808.381	23.65
808.557	24.1
808.733	25.08
808.908	25.36
809.084	24.28
809.26	23.82
809.435	23.25
809.611	23.29
809.787	21.46
809.962	21.17
810.138	21.14
810.313	21.82
810.489	21.68
810.664	22.19
810.84	21.86
811.015	22.07
811.191	22.02
811.366	22.34
811.542	22.98
811.717	23.05
811.892	23.96
812.068	23.63
812.243	22.37
812.419	23.53
812.594	23.54
812.769	23.82
812.944	22.4
813.12	23.17
813.295	23.24
813.47	21.64
813.645	23.34
813.821	23.29
813.996	23.04
814.171	23.56
814.346	23.08
814.521	22.36
814.697	23.29
814.872	24.01
815.047	23.36
815.222	23.66
815.397	26.61
815.572	27.81
815.747	28.05
815.922	27.81
816.097	26.78
816.272	27.69
816.447	27.6
816.622	26.83
816.797	27.45
816.972	26.53
817.147	26.19
817.322	24.91
817.496	24.24
817.671	23.91
817.846	24.17
818.021	24.01
818.196	23.01
818.371	22.5
818.545	22.25
818.72	21.84
818.895	23.02
819.069	23.91
819.244	24.46
819.419	23.47
819.594	23.78
819.768	24.11
819.943	24.7
820.117	24.51
820.292	25.11
820.467	25.57
820.641	25.5
820.816	25.45
820.99	25.31
821.165	25.52
821.339	25.67
821.514	25.4
821.688	25.52
821.863	25.56
822.037	25.87
822.212	25.8
822.386	25.73
822.56	25.89
822.735	26.14
822.909	26.22
823.084	25.99
823.258	26.02
823.432	26.29
823.606	26.14
823.781	26.63
823.955	26.43
824.129	26.53
824.303	26.55
824.478	26.54
824.652	25.9
824.826	25.71
825	25.82
825.174	26.1
825.348	25.73
825.523	26.34
825.697	25.98
825.871	25.92
826.045	25.67
826.219	25.69
826.393	25.97
826.567	26.25
826.741	26.27
826.915	26.12
827.089	26.2
827.263	26.14
827.437	25.6
827.611	25.44
827.784	25.86
827.958	26.39
828.132	26.34
828.306	26.03
828.48	25.43
828.654	25.54
828.827	25.15
829.001	24.51
829.175	25.1
829.349	25.1
829.522	24.67
829.696	23.69
829.87	22.97
830.044	23.02
830.217	22.64
830.391	23.68
830.565	23.11
830.738	23.84
830.912	24.12
831.085	24.23
831.259	24.44
831.432	24.73
831.606	25.31
831.779	24.79
831.953	24.54
832.126	24.99
832.3	24.9
832.473	25.16
832.647	24.65
832.82	24.54
832.994	24.44
833.167	24.56
833.34	24.33
833.514	24.77
833.687	24.48
833.86	24.22
834.034	24
834.207	24.31
834.38	24.73
834.553	24.97
834.727	25.26
834.9	25.24
835.073	25.76
835.246	26.44
835.419	26.03
835.593	27.3
835.766	28.08
835.939	28.5
836.112	28.53
836.285	28.55
836.458	26.97
836.631	26.26
836.804	25.76
836.977	24.35
837.15	23.85
837.323	24.3
837.496	23.6
837.669	21.28
837.842	20.15
838.015	19.95
838.188	18.31
838.361	21
838.533	22.88
838.706	23.74
838.879	23.56
839.052	23.88
839.225	22.43
839.398	21.56
839.57	24.61
839.743	25.65
839.916	24.99
840.088	25.3
840.261	27.79
840.434	27.54
840.607	26.81
840.779	27.47
840.952	26.19
841.124	27.38
841.297	27.71
841.47	25.96
841.642	24.78
841.815	24.03
841.987	22.16
842.16	20.97
842.332	18.88
842.505	16.41
842.677	16.47
842.85	16.07
843.022	14.53
843.194	17.56
843.367	18.78
843.539	18.09
843.712	20.77
843.884	23.19
844.056	21.31
844.229	23.69
844.401	29.18
844.573	28.73
844.745	32.1
844.918	34.45
845.09	29.65
845.262	27.14
845.434	28.67
845.606	27.36
845.779	28.39
845.951	26.67
846.123	23.11
846.295	20.65
846.467	21.87
846.639	18.53
846.811	16.16
846.983	19.21
847.155	21.22
847.327	21.26
847.499	21.12
847.671	20.25
847.843	21.02
848.015	24.39
848.187	21.15
848.359	18.21
848.531	18.52
848.703	15.93
848.875	12.69
849.047	9.22
849.218	12.71
849.39	13.09
849.562	14.06
849.734	8.76
849.905	8.28
850.077	13.9
850.249	19.47
850.421	22.85
850.592	22.82
850.764	23.54
850.936	26.8
851.107	23.67
851.279	21.75
851.451	24.26
851.622	25.98
851.794	22.2
851.965	20.74
852.137	16.1
852.308	14.72
852.48	19.15
852.651	19.18
852.823	17.17
852.994	12.85
853.166	11.05
853.337	9.99
853.509	14.5
853.68	16.49
853.851	16.15
854.023	17.57
854.194	17.56
854.365	18.82
854.537	18.35
854.708	26.18
854.879	29.86
855.05	28.92
855.222	27.86
855.393	29.72
855.564	29.44
855.735	32.31
855.906	32.76
856.078	31.45
856.249	28.44
856.42	29
856.591	23.12
856.762	25.97
856.933	28.44
857.104	27.03
857.275	21.99
857.446	20.81
857.617	20.41
857.788	21.81
857.959	21.94
858.13	21.9
858.301	20.92
858.472	21.71
858.643	21.2
858.814	21.68
858.985	20.79
859.155	24.92
859.326	24.61
859.497	19.33
859.668	21.72
859.839	24.33
860.009	25.33
860.18	22.6
860.351	23.06
860.522	24.88
860.692	22.99
860.863	24.31
861.034	23.36
861.204	23.69
861.375	22.86
861.546	17.33
861.716	12.25
861.887	13.62
862.057	16.37
862.228	13.45
862.398	9.49
862.569	11.02
862.739	14.19
862.91	14.65
863.08	13.28
863.251	18.98
863.421	20.15
863.592	18.38
863.762	16.28
863.932	17.81
864.103	19.6
864.273	22.57
864.443	23.33
864.614	22.13
864.784	22.41
864.954	24.83
865.125	21.91
865.295	23.12
865.465	27.21
865.635	29.59
865.805	28.07
865.976	30
866.146	29.65
866.316	27.85
866.486	24.09
866.656	25.45
866.826	22.18
866.996	23.68
867.166	21.38
867.336	20.88
867.506	18.52
867.676	12.76
867.846	11.03
868.016	9.75
868.186	12.26
868.356	12.92
868.526	9.93
868.696	9.2
868.866	11.64
869.036	11.07
869.206	11.14
869.376	7.16
869.545	14.78
869.715	10.97
869.885	11.44
870.055	11.58
870.224	13.81
870.394	10.2
870.564	15.01
870.734	12.54
870.903	17.32
871.073	15.91
871.243	16.49
871.412	17.99
871.582	23.93
871.751	21.11
871.921	20.51
872.091	17.76
872.26	23.96
872.43	23.01
872.599	18.3
872.769	18.59
872.938	21.88
873.108	25.02
873.277	19.29
873.446	16.18
873.616	20.12
873.785	19.9
873.955	23.24
874.124	21.29
874.293	22.16
874.463	28.34
874.632	23.24
874.801	23.9
874.971	22.31
875.14	22.42
875.309	23.88
875.478	20.24
875.647	17.44
875.817	15.79
875.986	17.37
876.155	15.53
876.324	13.44
876.493	15.51
876.662	8.08
876.831	10.27
877	13.62
877.17	14.59
877.339	14.88
877.508	17.72
877.677	15.81
877.846	14.7
878.015	14.55
878.184	13.48
878.352	11.51
878.521	13.93
878.69	13.91
878.859	13.68
879.028	11.19
879.197	13.37
879.366	11.1
879.534	11.94
879.703	12.7
879.872	12.22
880.041	14.4
880.21	17.92
880.378	17.21
880.547	19.32
880.716	19.75
880.884	21.56
881.053	22.12
881.222	23.4
881.39	24.63
881.559	25.52
881.727	26.62
881.896	25.89
882.065	24.57
882.233	25.25
882.402	25.71
882.57	26.26
882.739	26.4
882.907	26.73
883.076	27.07
883.244	26.66
883.412	26.37
883.581	26.11
883.749	26.86
883.918	28.04
884.086	28.7
884.254	27.84
884.423	27.83
884.591	28.58
884.759	27.9
884.927	28.22
885.096	27.93
885.264	28.3
885.432	28.69
885.6	27.98
885.769	27.7
885.937	25.91
886.105	26.11
886.273	24.95
886.441	22.7
886.609	22.65
886.777	21.11
886.945	21.57
887.113	19.55
887.281	17.48
887.449	15.53
887.617	14.41
887.785	16.47
887.953	15.57
888.121	16.5
888.289	16.63
888.457	19.43
888.625	18.11
888.793	16.58
888.961	18.94
889.129	21.77
889.296	27.58
889.464	28.32
889.632	30.25
889.8	32.04
889.967	33.83
890.135	33.71
