Data from 2938507_Reflection_3.txt Node
Date: Tue Jun 16 22:58:05 EDT 2015
User: robert
Spectrometer: USB4E03002
Autoset integration time: false
Trigger mode: 4
Integration Time (sec): 1.000000E-1
Scans to average: 10
Electric dark correction enabled: true
Nonlinearity correction enabled: false
Boxcar width: 5
Stray light correction enabled: false
XAxis mode: Wavelengths
Stop averaging: false
Number of Pixels in Spectrum: 3648
>>>>>Begin Spectral Data<<<<<
177.575	34.33
177.794	13.06
178.014	26.45
178.233	-0.86
178.452	71.37
178.672	-23.37
178.891	-155.02
179.11	-30.45
179.33	162.26
179.549	33.77
179.768	55.31
179.987	47.09
180.207	32.8
180.426	26.79
180.645	-622.9
180.864	34.11
181.084	80.53
181.303	68.13
181.522	64.34
181.741	89.11
181.96	77.27
182.179	90.77
182.398	115
182.618	116.85
182.837	123.55
183.056	118.42
183.275	173.95
183.494	241
183.713	-260.52
183.932	-432.88
184.151	-536.07
184.37	-2418.93
184.589	323.24
184.808	179.01
185.027	230.86
185.246	168.91
185.465	193.74
185.684	178.46
185.903	211.91
186.122	168.12
186.341	186.55
186.56	168.71
186.779	248.54
186.998	372.92
187.216	475.38
187.435	264.25
187.654	252.53
187.873	400.47
188.092	299.89
188.311	168.5
188.53	113.1
188.748	83.04
188.967	-792.47
189.186	-12.96
189.405	72.65
189.623	50.85
189.842	46.59
190.061	65.64
190.28	58.11
190.498	53.13
190.717	54.62
190.936	86.15
191.154	88.65
191.373	94.25
191.592	100.46
191.81	105.4
192.029	128.97
192.248	162.21
192.466	188.4
192.685	160.7
192.904	213.41
193.122	417.7
193.341	-225.56
193.559	-104.33
193.778	-161.14
193.996	-180.76
194.215	-683.13
194.433	-456.94
194.652	-1088.5
194.87	3337.75
195.089	571.68
195.307	547.55
195.526	346.04
195.744	280.97
195.963	246.38
196.181	190.56
196.399	185.55
196.618	199.23
196.836	175.9
197.055	147.24
197.273	170.08
197.491	192.97
197.71	136
197.928	135.22
198.146	123.44
198.365	70.2
198.583	99.71
198.801	130.91
199.019	104.62
199.238	113.17
199.456	163.67
199.674	136.63
199.892	160.65
200.111	109.13
200.329	85.23
200.547	63.65
200.765	60.89
200.983	56.42
201.202	49.89
201.42	27.05
201.638	22.86
201.856	41.38
202.074	24.71
202.292	50.64
202.51	81.57
202.728	72.59
202.946	103.84
203.165	92.93
203.383	96.02
203.601	79.32
203.819	157.1
204.037	147.82
204.255	118.78
204.473	138.37
204.691	84.54
204.909	85.83
205.127	105.48
205.345	90.3
205.562	113.2
205.78	96.34
205.998	77.16
206.216	24.95
206.434	17.17
206.652	36.84
206.87	75.66
207.088	86.63
207.306	124.63
207.523	120.59
207.741	149.77
207.959	143.41
208.177	118.16
208.395	133.8
208.612	101.52
208.83	88.74
209.048	77.16
209.266	70.55
209.483	64.3
209.701	52.04
209.919	55.82
210.136	54.81
210.354	47.73
210.572	54.75
210.79	44.55
211.007	47.62
211.225	51.08
211.442	53.74
211.66	36.91
211.878	48.05
212.095	63.33
212.313	60.38
212.53	63.21
212.748	68.7
212.966	71.85
213.183	82.98
213.401	92.28
213.618	86.89
213.836	80.78
214.053	90.7
214.271	81.76
214.488	71.13
214.705	70.91
214.923	58.29
215.14	41.29
215.358	28.14
215.575	16.31
215.793	12.74
216.01	11.01
216.227	16.68
216.445	-2.59
216.662	19.33
216.879	37.7
217.097	30.89
217.314	30.79
217.531	50.08
217.749	39.85
217.966	45.76
218.183	41.32
218.4	41.3
218.618	26.3
218.835	34.32
219.052	20.34
219.269	-1.09
219.487	-3.65
219.704	2.65
219.921	-1.77
220.138	4.04
220.355	4.42
220.572	10.98
220.79	11.46
221.007	12.85
221.224	9.67
221.441	12.06
221.658	9.75
221.875	15.26
222.092	17.01
222.309	14.29
222.526	17.92
222.743	15.4
222.96	4.8
223.177	11
223.394	16.03
223.611	20.07
223.828	24.69
224.045	30.73
224.262	25.37
224.479	23.03
224.696	22.43
224.913	20.74
225.13	19.32
225.347	20.41
225.564	17.38
225.781	14.8
225.997	14.08
226.214	12.53
226.431	10.82
226.648	10.72
226.865	10.29
227.082	10.25
227.298	10.38
227.515	9.59
227.732	10.08
227.949	9.97
228.165	9.25
228.382	8.86
228.599	8.63
228.816	8.75
229.032	9.57
229.249	8.04
229.466	7.87
229.682	5.56
229.899	6.67
230.116	6.39
230.332	6.16
230.549	7.23
230.765	7.03
230.982	5.09
231.199	6.7
231.415	5.53
231.632	7.12
231.848	9.1
232.065	11.79
232.281	11.85
232.498	8.96
232.714	9.13
232.931	8.47
233.147	7
233.364	8.31
233.58	3.48
233.797	4.87
234.013	5.75
234.23	3.55
234.446	4.03
234.662	2.85
234.879	6.38
235.095	7.78
235.312	10.07
235.528	12.61
235.744	12.37
235.961	16.51
236.177	17.32
236.393	18.3
236.61	19.17
236.826	18.09
237.042	18.27
237.258	16.59
237.475	16.14
237.691	15.57
237.907	13.99
238.123	12.46
238.339	12.84
238.556	11.69
238.772	11.68
238.988	11.14
239.204	11.84
239.42	11.66
239.636	11.96
239.853	11.76
240.069	11.23
240.285	11.42
240.501	11.9
240.717	11.57
240.933	11.59
241.149	11.02
241.365	10.26
241.581	9.14
241.797	9.04
242.013	8.94
242.229	8.59
242.445	8.93
242.661	9.05
242.877	8.83
243.093	8.43
243.309	8.49
243.525	8.44
243.741	8.93
243.957	9.47
244.173	8.73
244.388	8.77
244.604	8.77
244.82	8.25
245.036	7.63
245.252	7.8
245.468	7.51
245.683	7.73
245.899	7.58
246.115	7.84
246.331	7.94
246.547	7.74
246.762	7.51
246.978	7.68
247.194	7.79
247.409	8.08
247.625	7.57
247.841	7.86
248.057	7.49
248.272	7.46
248.488	7.12
248.703	6.54
248.919	7.66
249.135	8.06
249.35	7.72
249.566	7.94
249.782	7.31
249.997	7.93
250.213	7.29
250.428	7.63
250.644	6.99
250.859	6.76
251.075	6.98
251.29	6.54
251.506	6.04
251.721	6.11
251.937	6.18
252.152	5.81
252.368	5.7
252.583	5.78
252.798	4.77
253.014	5.72
253.229	6.2
253.445	5.78
253.66	6.27
253.875	5.54
254.091	5.83
254.306	5.05
254.521	6.43
254.737	6.51
254.952	6.9
255.167	6.8
255.383	5.43
255.598	4.83
255.813	4.68
256.028	3.72
256.244	4.33
256.459	3.9
256.674	4.06
256.889	4.57
257.104	4.19
257.32	4.05
257.535	3.73
257.75	4.23
257.965	4.2
258.18	4.12
258.395	4.13
258.61	4.21
258.826	4.28
259.041	4.59
259.256	4.24
259.471	4.39
259.686	4.61
259.901	4.74
260.116	4.64
260.331	4.77
260.546	5.35
260.761	5.86
260.976	5.97
261.191	5.88
261.406	5.15
261.621	5.02
261.836	5.03
262.05	5.07
262.265	5.63
262.48	6.12
262.695	6.58
262.91	5.69
263.125	5.05
263.34	4.95
263.555	5.34
263.769	5.8
263.984	5.89
264.199	6.08
264.414	6.08
264.629	5.91
264.843	6.21
265.058	6.38
265.273	6.7
265.488	7.63
265.702	7.49
265.917	7.22
266.132	6.83
266.346	6.99
266.561	6.87
266.776	6.51
266.99	6.42
267.205	6.14
267.42	5.74
267.634	5.99
267.849	5.34
268.063	5.44
268.278	5.53
268.492	6.01
268.707	6.5
268.922	6.01
269.136	6.71
269.351	6.86
269.565	6.51
269.78	6.44
269.994	6.2
270.209	6.01
270.423	6
270.637	5.97
270.852	5.82
271.066	5.46
271.281	5.88
271.495	5.56
271.709	5.57
271.924	5.97
272.138	5.74
272.353	6.12
272.567	6.41
272.781	6.32
272.996	6.19
273.21	6.13
273.424	5.96
273.638	5.66
273.853	5.11
274.067	5.1
274.281	5.33
274.495	5.85
274.71	5.33
274.924	4.92
275.138	5.65
275.352	5.71
275.566	6.37
275.781	5.84
275.995	6.12
276.209	6.51
276.423	6.5
276.637	6.14
276.851	5.8
277.065	6.07
277.279	6.79
277.493	5.96
277.707	5.83
277.921	5.11
278.135	6.1
278.349	6.19
278.563	5.74
278.777	5.68
278.991	5.61
279.205	5.44
279.419	5.27
279.633	4.87
279.847	5.17
280.061	5.74
280.275	6.08
280.489	5.83
280.703	5.54
280.917	6.2
281.131	6.25
281.344	6
281.558	6.09
281.772	6.08
281.986	5.86
282.2	6.05
282.414	5.75
282.627	5.55
282.841	5.35
283.055	5.36
283.269	4.8
283.482	4.84
283.696	4.91
283.91	4.81
284.123	4.84
284.337	5.34
284.551	5.31
284.764	5.06
284.978	5.02
285.192	4.82
285.405	4.97
285.619	5.28
285.833	5.14
286.046	5.53
286.26	5.78
286.473	5.92
286.687	6.11
286.9	5.82
287.114	6.26
287.327	6.35
287.541	6.68
287.754	6.83
287.968	6.89
288.181	6.84
288.395	6.55
288.608	6.35
288.822	6.42
289.035	5.75
289.248	5.82
289.462	5.83
289.675	5.55
289.889	5.49
290.102	5.04
290.315	5.19
290.529	4.95
290.742	5.13
290.955	5.76
291.169	5.76
291.382	6.24
291.595	6.41
291.808	6.38
292.022	6.39
292.235	6.37
292.448	6.96
292.661	6.89
292.875	7.47
293.088	7.45
293.301	7.14
293.514	7.21
293.727	7.12
293.94	6.9
294.153	6.84
294.367	7.16
294.58	7.21
294.793	7.14
295.006	6.92
295.219	6.85
295.432	6.45
295.645	6.28
295.858	6.14
296.071	5.99
296.284	6.08
296.497	6.01
296.71	6.07
296.923	6.29
297.136	6.3
297.349	6.68
297.562	6.49
297.775	6.92
297.988	7.2
298.201	7.47
298.414	7.97
298.626	8.13
298.839	8.44
299.052	7.91
299.265	7.99
299.478	7.49
299.691	7.36
299.903	7.35
300.116	7.51
300.329	7.29
300.542	7.42
300.755	7.29
300.967	7.49
301.18	7.53
301.393	8.14
301.605	7.94
301.818	8.71
302.031	8.6
302.243	8.87
302.456	8.86
302.669	9.39
302.881	9.07
303.094	9.02
303.307	8.76
303.519	8.48
303.732	8.78
303.944	8.83
304.157	8.37
304.37	8.12
304.582	8.32
304.795	8.38
305.007	8.43
305.22	8.71
305.432	8.83
305.645	8.94
305.857	8.76
306.069	8.03
306.282	8.37
306.494	8.17
306.707	8.3
306.919	8.23
307.132	7.64
307.344	7.21
307.556	7.1
307.769	7
307.981	7.39
308.193	7.47
308.406	7.7
308.618	7.39
308.83	7.83
309.043	8.11
309.255	8.06
309.467	8.04
309.679	8.1
309.892	8.16
310.104	8.1
310.316	7.7
310.528	8.1
310.74	7.96
310.953	8.29
311.165	8.33
311.377	8.11
311.589	8.09
311.801	8.56
312.013	8.77
312.225	8.48
312.437	8.34
312.649	8.65
312.862	7.88
313.074	8.34
313.286	8.05
313.498	7.74
313.71	7.7
313.922	7.95
314.134	7.17
314.346	6.87
314.558	7.51
314.77	7.54
314.982	7.18
315.193	7.42
315.405	7.45
315.617	7.78
315.829	7.92
316.041	7.93
316.253	7.68
316.465	8.23
316.677	8.38
316.888	8.01
317.1	8.11
317.312	8.68
317.524	8.91
317.736	8.49
317.947	8.44
318.159	8.67
318.371	8.72
318.583	8.36
318.794	8.3
319.006	8.26
319.218	8
319.43	8.42
319.641	7.84
319.853	7.55
320.064	7.79
320.276	7.61
320.488	7.11
320.699	7.18
320.911	7.74
321.123	7.97
321.334	8.38
321.546	8.91
321.757	8.51
321.969	8.64
322.18	8.74
322.392	8.6
322.603	8.8
322.815	8.81
323.026	8.6
323.238	8.58
323.449	8.73
323.661	8.23
323.872	7.86
324.083	8.04
324.295	8.09
324.506	8.76
324.718	8.63
324.929	8.19
325.14	8.2
325.352	8.43
325.563	8.23
325.774	7.94
325.986	8.31
326.197	8.6
326.408	8.35
326.62	8.51
326.831	7.82
327.042	7.77
327.253	7.89
327.464	7.85
327.676	7.75
327.887	7.77
328.098	7.48
328.309	7.69
328.52	7.79
328.732	7.97
328.943	7.83
329.154	7.64
329.365	7.66
329.576	7.74
329.787	7.99
329.998	8.19
330.209	8.71
330.42	9.37
330.631	8.78
330.842	8.38
331.053	8.53
331.264	8.31
331.475	8.75
331.686	9.11
331.897	9.05
332.108	8.99
332.319	8.79
332.53	8.65
332.741	8.1
332.952	7.91
333.163	8.04
333.374	7.91
333.585	7.63
333.795	7.38
334.006	7.21
334.217	6.89
334.428	7.04
334.639	7.29
334.849	7.18
335.06	7.45
335.271	7.66
335.482	7.47
335.692	7.1
335.903	7.45
336.114	7.7
336.325	7.85
336.535	7.8
336.746	7.47
336.957	7.58
337.167	7.69
337.378	7.86
337.589	7.65
337.799	7.95
338.01	8.58
338.22	8.64
338.431	8.34
338.642	8.23
338.852	8.83
339.063	9.06
339.273	8.84
339.484	8.05
339.694	7.78
339.905	7.99
340.115	7.96
340.326	7.66
340.536	7.66
340.746	7.83
340.957	7.61
341.167	7.47
341.378	7.21
341.588	7.02
341.799	7.47
342.009	7.45
342.219	7.23
342.43	6.8
342.64	6.82
342.85	6.9
343.061	7.13
343.271	7.64
343.481	7.47
343.691	7.68
343.902	7.69
344.112	7.89
344.322	8
344.532	8.3
344.743	8.56
344.953	8.44
345.163	8.66
345.373	8.21
345.583	7.79
345.793	7.82
346.004	7.9
346.214	7.88
346.424	7.7
346.634	7.71
346.844	7.67
347.054	7.45
347.264	7.74
347.474	7.23
347.684	7.23
347.894	7.5
348.104	7.35
348.314	6.92
348.524	6.87
348.734	6.62
348.944	6.7
349.154	6.47
349.364	6.49
349.574	6.53
349.784	6.58
349.994	7.06
350.204	6.63
350.413	6.61
350.623	6.63
350.833	6.53
351.043	6.55
351.253	6.51
351.463	6.53
351.672	6.49
351.882	6.03
352.092	6.33
352.302	6.39
352.511	6.47
352.721	6.69
352.931	6.64
353.141	6.93
353.35	7.01
353.56	7.2
353.77	7.29
353.979	7.3
354.189	7.48
354.399	6.94
354.608	6.5
354.818	6.42
355.027	6.48
355.237	6.6
355.447	6.49
355.656	6.75
355.866	6.5
356.075	6.49
356.285	6.64
356.494	6.77
356.704	6.77
356.913	6.78
357.123	7
357.332	6.77
357.542	6.91
357.751	6.61
357.96	6.66
358.17	6.21
358.379	6.2
358.589	5.95
358.798	5.59
359.007	5.56
359.217	5.65
359.426	5.42
359.635	5.35
359.845	5.12
360.054	5.37
360.263	5.14
360.472	5.43
360.682	5.45
360.891	5.52
361.1	5.83
361.309	5.82
361.519	5.61
361.728	5.75
361.937	5.92
362.146	5.85
362.355	5.85
362.564	5.87
362.774	6.06
362.983	6.27
363.192	6.4
363.401	6.1
363.61	6.45
363.819	6.68
364.028	6.48
364.237	6.15
364.446	6.36
364.655	6.28
364.864	6.35
365.073	6.05
365.282	5.77
365.491	5.83
365.7	5.88
365.909	5.62
366.118	5.42
366.327	5.36
366.536	5.55
366.745	5.48
366.954	5.25
367.162	4.88
367.371	4.87
367.58	4.91
367.789	4.65
367.998	4.61
368.207	4.6
368.415	4.59
368.624	4.61
368.833	4.7
369.042	5
369.25	4.95
369.459	5.19
369.668	5.14
369.877	5
370.085	5.09
370.294	5.2
370.503	5.22
370.711	5.38
370.92	5.53
371.129	5.46
371.337	5.18
371.546	5.28
371.754	4.87
371.963	4.99
372.171	5.04
372.38	4.95
372.589	4.95
372.797	4.86
373.006	4.87
373.214	4.9
373.423	4.74
373.631	4.94
373.84	5.02
374.048	5.34
374.256	5.38
374.465	5.37
374.673	5.35
374.882	5.39
375.09	5.27
375.298	5.15
375.507	5.18
375.715	5.38
375.923	5.29
376.132	5.36
376.34	4.96
376.548	4.93
376.757	5.1
376.965	5.12
377.173	4.98
377.381	5.03
377.59	5.27
377.798	5.22
378.006	5.08
378.214	5.19
378.423	5.3
378.631	5.68
378.839	5.72
379.047	5.4
379.255	5.32
379.463	5.41
379.671	5.65
379.879	5.38
380.088	5.33
380.296	5.21
380.504	4.93
380.712	4.79
380.92	4.74
381.128	4.66
381.336	4.7
381.544	4.84
381.752	4.6
381.96	4.34
382.168	4.32
382.376	4.34
382.584	4.44
382.791	4.59
382.999	4.64
383.207	4.62
383.415	4.37
383.623	4.35
383.831	4.31
384.039	4.27
384.247	4.41
384.454	4.59
384.662	4.58
384.87	4.65
385.078	4.75
385.285	4.65
385.493	4.63
385.701	4.84
385.909	4.84
386.116	4.58
386.324	4.67
386.532	4.65
386.739	4.52
386.947	4.6
387.155	4.47
387.362	4.28
387.57	4.29
387.778	4.25
387.985	4.23
388.193	4.43
388.4	4.52
388.608	4.69
388.816	4.81
389.023	4.99
389.231	4.9
389.438	5
389.646	5.04
389.853	4.89
390.061	5.08
390.268	5.1
390.475	4.9
390.683	5.04
390.89	4.89
391.098	4.86
391.305	4.92
391.512	4.72
391.72	4.54
391.927	4.48
392.135	4.66
392.342	4.39
392.549	4.52
392.756	4.67
392.964	4.64
393.171	4.65
393.378	4.54
393.586	4.31
393.793	4.5
394	4.59
394.207	4.67
394.414	4.66
394.622	4.79
394.829	4.53
395.036	4.26
395.243	4.31
395.45	4.23
395.657	4.1
395.864	4.03
396.072	4.09
396.279	4.24
396.486	4.08
396.693	3.97
396.9	3.89
397.107	3.91
397.314	4.05
397.521	3.93
397.728	4.05
397.935	4.22
398.142	4.27
398.349	4.27
398.556	3.99
398.763	4.07
398.97	4.22
399.177	4.38
399.383	4.48
399.59	4.53
399.797	4.43
400.004	4.32
400.211	4.33
400.418	4.3
400.625	4.02
400.831	4.26
401.038	4.22
401.245	3.89
401.452	3.81
401.658	3.62
401.865	3.52
402.072	3.65
402.279	3.59
402.485	3.59
402.692	3.59
402.899	3.8
403.105	3.7
403.312	3.58
403.519	3.82
403.725	3.81
403.932	3.91
404.138	3.82
404.345	3.77
404.552	3.85
404.758	3.79
404.965	3.74
405.171	3.63
405.378	3.7
405.584	3.66
405.791	3.54
405.997	3.59
406.204	3.53
406.41	3.84
406.617	3.79
406.823	3.84
407.029	3.89
407.236	3.92
407.442	3.92
407.649	3.87
407.855	4.02
408.061	3.86
408.268	3.76
408.474	3.81
408.68	3.57
408.887	3.68
409.093	3.49
409.299	3.53
409.505	3.48
409.712	3.51
409.918	3.33
410.124	3.41
410.33	3.6
410.537	3.48
410.743	3.62
410.949	3.65
411.155	3.61
411.361	3.74
411.567	3.45
411.773	3.6
411.98	3.42
412.186	3.53
412.392	3.41
412.598	3.46
412.804	3.57
413.01	3.56
413.216	3.58
413.422	3.54
413.628	3.46
413.834	3.59
414.04	3.32
414.246	3.51
414.452	3.51
414.658	3.48
414.864	3.44
415.07	3.48
415.275	3.43
415.481	3.33
415.687	3.34
415.893	3.44
416.099	3.49
416.305	3.62
416.511	3.57
416.716	3.56
416.922	3.6
417.128	3.43
417.334	3.45
417.539	3.35
417.745	3.32
417.951	3.23
418.157	3.19
418.362	3
418.568	2.98
418.774	2.85
418.979	2.77
419.185	2.78
419.391	2.86
419.596	2.71
419.802	2.74
420.008	2.81
420.213	3.2
420.419	3.19
420.624	3.29
420.83	3.22
421.035	3.34
421.241	3.36
421.446	3.27
421.652	3.26
421.857	3.3
422.063	3.27
422.268	3.21
422.474	2.86
422.679	2.84
422.885	2.81
423.09	2.89
423.295	2.89
423.501	2.9
423.706	2.92
423.911	2.89
424.117	2.96
424.322	2.95
424.527	2.97
424.733	2.89
424.938	2.88
425.143	2.92
425.349	2.84
425.554	2.84
425.759	2.89
425.964	2.89
426.169	3.01
426.375	2.96
426.58	2.88
426.785	2.91
426.99	3.01
427.195	3.04
427.4	3.03
427.605	3.18
427.811	3.18
428.016	3.32
428.221	3.27
428.426	3.08
428.631	3.04
428.836	3.23
429.041	3.31
429.246	3.28
429.451	3.23
429.656	3.23
429.861	3.17
430.066	3.12
430.271	2.81
430.476	2.87
430.681	2.93
430.886	2.98
431.09	2.81
431.295	2.74
431.5	2.79
431.705	2.83
431.91	2.82
432.115	2.75
432.32	2.7
432.524	2.81
432.729	2.94
432.934	2.96
433.139	2.89
433.343	3
433.548	2.93
433.753	2.82
433.958	2.8
434.162	2.85
434.367	2.88
434.572	2.76
434.776	2.83
434.981	2.57
435.186	2.58
435.39	2.65
435.595	2.64
435.799	2.67
436.004	2.73
436.209	2.71
436.413	2.72
436.618	2.72
436.822	2.84
437.027	2.76
437.231	2.8
437.436	2.69
437.64	2.7
437.845	2.72
438.049	2.83
438.253	2.82
438.458	2.83
438.662	2.77
438.867	2.75
439.071	2.79
439.275	2.78
439.48	2.91
439.684	3.05
439.888	2.93
440.093	2.89
440.297	2.81
440.501	2.77
440.706	2.83
440.91	2.82
441.114	2.87
441.318	2.89
441.523	2.97
441.727	2.85
441.931	2.87
442.135	2.96
442.339	2.92
442.543	2.91
442.748	2.97
442.952	2.91
443.156	2.9
443.36	2.86
443.564	2.75
443.768	2.72
443.972	2.67
444.176	2.65
444.38	2.68
444.584	2.65
444.788	2.65
444.992	2.55
445.196	2.6
445.4	2.57
445.604	2.6
445.808	2.71
446.012	2.73
446.216	2.77
446.42	2.72
446.624	2.7
446.828	2.8
447.032	2.84
447.235	2.94
447.439	2.85
447.643	2.92
447.847	2.92
448.051	2.88
448.254	2.82
448.458	2.81
448.662	2.7
448.866	2.62
449.069	2.64
449.273	2.58
449.477	2.6
449.681	2.58
449.884	2.58
450.088	2.53
450.292	2.53
450.495	2.57
450.699	2.56
450.902	2.62
451.106	2.7
451.31	2.62
451.513	2.62
451.717	2.54
451.92	2.54
452.124	2.57
452.327	2.57
452.531	2.43
452.734	2.37
452.938	2.32
453.141	2.42
453.345	2.44
453.548	2.5
453.752	2.55
453.955	2.64
454.158	2.7
454.362	2.64
454.565	2.63
454.769	2.7
454.972	2.67
455.175	2.85
455.379	2.87
455.582	2.88
455.785	2.84
455.988	2.75
456.192	2.71
456.395	2.68
456.598	2.65
456.801	2.67
457.005	2.63
457.208	2.68
457.411	2.61
457.614	2.57
457.817	2.52
458.021	2.49
458.224	2.51
458.427	2.48
458.63	2.47
458.833	2.53
459.036	2.49
459.239	2.54
459.442	2.46
459.645	2.47
459.848	2.43
460.051	2.52
460.254	2.55
460.457	2.51
460.66	2.51
460.863	2.53
461.066	2.42
461.269	2.48
461.472	2.39
461.675	2.48
461.878	2.46
462.081	2.36
462.284	2.27
462.486	2.17
462.689	2.31
462.892	2.34
463.095	2.23
463.298	2.28
463.5	2.4
463.703	2.51
463.906	2.54
464.109	2.54
464.311	2.61
464.514	2.55
464.717	2.62
464.92	2.56
465.122	2.58
465.325	2.68
465.528	2.7
465.73	2.56
465.933	2.49
466.135	2.48
466.338	2.45
466.541	2.49
466.743	2.65
466.946	2.71
467.148	2.67
467.351	2.51
467.553	2.57
467.756	2.54
467.958	2.59
468.161	2.52
468.363	2.5
468.566	2.6
468.768	2.71
468.971	2.6
469.173	2.5
469.375	2.55
469.578	2.64
469.78	2.57
469.983	2.5
470.185	2.48
470.387	2.6
470.59	2.6
470.792	2.59
470.994	2.47
471.196	2.48
471.399	2.41
471.601	2.43
471.803	2.53
472.005	2.64
472.208	2.63
472.41	2.69
472.612	2.7
472.814	2.71
473.016	2.66
473.218	2.84
473.421	2.88
473.623	2.97
473.825	2.92
474.027	2.97
474.229	2.85
474.431	2.9
474.633	2.88
474.835	2.8
475.037	2.87
475.239	2.91
475.441	2.7
475.643	2.61
475.845	2.53
476.047	2.5
476.249	2.4
476.451	2.3
476.653	2.34
476.855	2.29
477.057	2.29
477.258	2.27
477.46	2.13
477.662	2.18
477.864	2.21
478.066	2.33
478.268	2.41
478.469	2.35
478.671	2.5
478.873	2.45
479.075	2.42
479.276	2.53
479.478	2.54
479.68	2.63
479.882	2.65
480.083	2.6
480.285	2.53
480.487	2.49
480.688	2.52
480.89	2.5
481.091	2.51
481.293	2.5
481.495	2.44
481.696	2.4
481.898	2.38
482.099	2.36
482.301	2.41
482.502	2.43
482.704	2.43
482.905	2.45
483.107	2.4
483.308	2.39
483.51	2.41
483.711	2.43
483.913	2.46
484.114	2.49
484.315	2.46
484.517	2.44
484.718	2.42
484.92	2.42
485.121	2.4
485.322	2.43
485.524	2.44
485.725	2.46
485.926	2.45
486.127	2.4
486.329	2.37
486.53	2.44
486.731	2.4
486.932	2.4
487.134	2.42
487.335	2.43
487.536	2.46
487.737	2.47
487.938	2.44
488.139	2.42
488.341	2.47
488.542	2.48
488.743	2.44
488.944	2.49
489.145	2.49
489.346	2.47
489.547	2.49
489.748	2.47
489.949	2.49
490.15	2.46
490.351	2.48
490.552	2.48
490.753	2.49
490.954	2.5
491.155	2.49
491.356	2.53
491.557	2.57
491.758	2.58
491.959	2.61
492.159	2.6
492.36	2.68
492.561	2.71
492.762	2.71
492.963	2.68
493.164	2.67
493.364	2.61
493.565	2.6
493.766	2.5
493.967	2.52
494.167	2.44
494.368	2.39
494.569	2.33
494.769	2.23
494.97	2.25
495.171	2.28
495.371	2.32
495.572	2.4
495.773	2.4
495.973	2.46
496.174	2.5
496.375	2.55
496.575	2.59
496.776	2.66
496.976	2.74
497.177	2.69
497.377	2.73
497.578	2.8
497.778	2.74
497.979	2.66
498.179	2.66
498.38	2.62
498.58	2.68
498.78	2.67
498.981	2.71
499.181	2.68
499.382	2.69
499.582	2.63
499.782	2.53
499.983	2.57
500.183	2.7
500.383	2.7
500.584	2.65
500.784	2.6
500.984	2.58
501.184	2.46
501.385	2.49
501.585	2.53
501.785	2.55
501.985	2.61
502.185	2.68
502.386	2.65
502.586	2.63
502.786	2.58
502.986	2.56
503.186	2.62
503.386	2.67
503.586	2.73
503.786	2.77
503.987	2.79
504.187	2.82
504.387	2.84
504.587	2.8
504.787	2.79
504.987	2.87
505.187	2.81
505.387	2.87
505.587	2.8
505.786	2.78
505.986	2.8
506.186	2.72
506.386	2.66
506.586	2.53
506.786	2.54
506.986	2.53
507.186	2.54
507.386	2.64
507.585	2.59
507.785	2.64
507.985	2.62
508.185	2.67
508.384	2.71
508.584	2.67
508.784	2.74
508.984	2.79
509.183	2.7
509.383	2.68
509.583	2.7
509.782	2.7
509.982	2.73
510.182	2.81
510.381	2.74
510.581	2.78
510.781	2.8
510.98	2.8
511.18	2.74
511.379	2.89
511.579	2.92
511.778	2.87
511.978	2.85
512.177	2.85
512.377	2.69
512.576	2.72
512.776	2.69
512.975	2.76
513.175	2.87
513.374	2.98
513.573	3.02
513.773	2.98
513.972	3.05
514.172	3.11
514.371	3.22
514.57	3.35
514.77	3.41
514.969	3.42
515.168	3.41
515.367	3.39
515.567	3.32
515.766	3.23
515.965	3.29
516.164	3.26
516.364	3.27
516.563	3.22
516.762	3.2
516.961	3.14
517.16	3.13
517.359	3.16
517.559	3.15
517.758	3.16
517.957	3.21
518.156	3.24
518.355	3.3
518.554	3.32
518.753	3.27
518.952	3.26
519.151	3.25
519.35	3.3
519.549	3.31
519.748	3.28
519.947	3.38
520.146	3.36
520.345	3.32
520.544	3.28
520.743	3.2
520.942	3.23
521.141	3.22
521.339	3.26
521.538	3.2
521.737	3.22
521.936	3.32
522.135	3.21
522.333	3.27
522.532	3.28
522.731	3.18
522.93	3.24
523.129	3.23
523.327	3.3
523.526	3.35
523.725	3.41
523.923	3.4
524.122	3.36
524.321	3.38
524.519	3.38
524.718	3.37
524.917	3.48
525.115	3.51
525.314	3.5
525.512	3.5
525.711	3.51
525.909	3.48
526.108	3.51
526.306	3.51
526.505	3.52
526.703	3.51
526.902	3.52
527.1	3.53
527.299	3.49
527.497	3.5
527.696	3.5
527.894	3.48
528.092	3.48
528.291	3.47
528.489	3.47
528.688	3.48
528.886	3.45
529.084	3.47
529.283	3.4
529.481	3.45
529.679	3.48
529.877	3.53
530.076	3.54
530.274	3.59
530.472	3.67
530.67	3.71
530.869	3.74
531.067	3.81
531.265	3.82
531.463	3.85
531.661	3.82
531.859	3.85
532.057	3.83
532.255	3.85
532.454	3.87
532.652	3.85
532.85	3.86
533.048	3.88
533.246	3.9
533.444	3.94
533.642	4.04
533.84	4.16
534.038	4.15
534.236	4.2
534.434	4.22
534.632	4.2
534.83	4.24
535.027	4.24
535.225	4.27
535.423	4.26
535.621	4.29
535.819	4.3
536.017	4.27
536.215	4.38
536.412	4.36
536.61	4.43
536.808	4.44
537.006	4.47
537.203	4.5
537.401	4.49
537.599	4.52
537.797	4.52
537.994	4.54
538.192	4.59
538.39	4.53
538.587	4.53
538.785	4.49
538.983	4.6
539.18	4.55
539.378	4.53
539.575	4.54
539.773	4.55
539.97	4.57
540.168	4.53
540.366	4.53
540.563	4.56
540.761	4.59
540.958	4.6
541.155	4.63
541.353	4.68
541.55	4.74
541.748	4.77
541.945	4.81
542.143	4.79
542.34	4.82
542.537	4.79
542.735	4.82
542.932	4.88
543.129	4.88
543.327	4.87
543.524	4.87
543.721	4.88
543.919	4.93
544.116	4.97
544.313	5.09
544.51	5.14
544.708	5.26
544.905	5.19
545.102	5.18
545.299	5.24
545.496	5.22
545.693	5.23
545.891	5.26
546.088	5.27
546.285	5.31
546.482	5.29
546.679	5.33
546.876	5.3
547.073	5.44
547.27	5.49
547.467	5.5
547.664	5.6
547.861	5.69
548.058	5.72
548.255	5.73
548.452	5.74
548.649	5.84
548.846	6.06
549.043	6.09
549.24	6.11
549.437	6.18
549.633	6.29
549.83	6.36
550.027	6.4
550.224	6.43
550.421	6.63
550.618	6.7
550.814	6.71
551.011	6.64
551.208	6.77
551.405	6.81
551.601	6.83
551.798	6.82
551.995	6.92
552.191	6.98
552.388	7.05
552.585	7
552.781	7.08
552.978	7.03
553.175	7.03
553.371	6.97
553.568	7.05
553.764	7.16
553.961	7.24
554.157	7.21
554.354	7.2
554.55	7.28
554.747	7.38
554.943	7.31
555.14	7.52
555.336	7.62
555.533	7.78
555.729	7.76
555.926	7.75
556.122	7.76
556.318	7.79
556.515	7.89
556.711	7.92
556.907	7.99
557.104	8.14
557.3	8.23
557.496	8.2
557.693	8.36
557.889	8.58
558.085	8.65
558.281	8.75
558.478	8.83
558.674	8.83
558.87	8.96
559.066	9.01
559.262	9.12
559.459	9.15
559.655	9.26
559.851	9.1
560.047	9.12
560.243	9.11
560.439	9.23
560.635	9.32
560.831	9.45
561.027	9.42
561.223	9.45
561.419	9.42
561.615	9.47
561.811	9.62
562.007	9.83
562.203	9.79
562.399	9.9
562.595	9.89
562.791	9.81
562.987	9.91
563.183	9.99
563.379	10.02
563.575	10.06
563.771	10.14
563.966	10.1
564.162	10.08
564.358	10.17
564.554	10.27
564.75	10.28
564.945	10.45
565.141	10.49
565.337	10.51
565.533	10.51
565.728	10.6
565.924	10.61
566.12	10.65
566.315	10.8
566.511	10.83
566.707	10.88
566.902	11.05
567.098	11.06
567.293	11.07
567.489	11.07
567.684	11.19
567.88	11.27
568.076	11.28
568.271	11.37
568.467	11.37
568.662	11.49
568.858	11.58
569.053	11.54
569.248	11.67
569.444	11.8
569.639	11.94
569.835	11.91
570.03	12.03
570.225	12.12
570.421	12.23
570.616	12.19
570.812	12.21
571.007	12.26
571.202	12.42
571.397	12.43
571.593	12.42
571.788	12.56
571.983	12.69
572.178	12.67
572.374	12.67
572.569	12.69
572.764	12.85
572.959	12.92
573.154	12.87
573.35	12.85
573.545	13.02
573.74	13.08
573.935	13
574.13	13.05
574.325	13.06
574.52	13.1
574.715	13.26
574.91	13.33
575.105	13.37
575.3	13.51
575.495	13.55
575.69	13.57
575.885	13.66
576.08	13.73
576.275	13.77
576.47	13.8
576.665	13.85
576.86	13.89
577.055	13.89
577.25	13.83
577.444	13.89
577.639	14.04
577.834	13.96
578.029	13.96
578.224	14.05
578.418	14.09
578.613	14.2
578.808	14.32
579.003	14.4
579.197	14.33
579.392	14.54
579.587	14.48
579.781	14.51
579.976	14.63
580.171	14.75
580.365	14.77
580.56	14.94
580.755	15.07
580.949	15.22
581.144	15.03
581.338	15.16
581.533	15.21
581.727	15.28
581.922	15.27
582.116	15.26
582.311	15.36
582.505	15.4
582.7	15.31
582.894	15.24
583.089	15.16
583.283	15.3
583.478	15.4
583.672	15.47
583.866	15.45
584.061	15.45
584.255	15.39
584.449	15.37
584.644	15.3
584.838	15.24
585.032	15.37
585.226	15.46
585.421	15.51
585.615	15.46
585.809	15.3
586.003	15.39
586.198	15.45
586.392	15.47
586.586	15.41
586.78	15.52
586.974	15.54
587.168	15.47
587.363	15.53
587.557	15.58
587.751	15.67
587.945	15.77
588.139	15.88
588.333	15.83
588.527	15.99
588.721	15.99
588.915	16.03
589.109	16.19
589.303	16.23
589.497	16.19
589.691	16.19
589.885	16.14
590.079	16.24
590.273	16.28
590.466	16.31
590.66	16.24
590.854	16.34
591.048	16.42
591.242	16.29
591.436	16.42
591.629	16.6
591.823	16.63
592.017	16.61
592.211	16.54
592.404	16.49
592.598	16.46
592.792	16.47
592.986	16.48
593.179	16.52
593.373	16.63
593.567	16.61
593.76	16.55
593.954	16.53
594.147	16.7
594.341	16.78
594.535	16.83
594.728	16.94
594.922	17.03
595.115	17.02
595.309	16.95
595.502	17
595.696	16.97
595.889	16.91
596.083	16.92
596.276	16.93
596.47	16.96
596.663	17.05
596.856	17.03
597.05	17.11
597.243	17.13
597.437	17.24
597.63	17.26
597.823	17.44
598.017	17.51
598.21	17.47
598.403	17.36
598.596	17.34
598.79	17.33
598.983	17.38
599.176	17.26
599.369	17.37
599.563	17.33
599.756	17.4
599.949	17.35
600.142	17.3
600.335	17.39
600.528	17.52
600.722	17.67
600.915	17.71
601.108	17.77
601.301	17.85
601.494	17.69
601.687	17.71
601.88	17.75
602.073	17.71
602.266	17.7
602.459	17.63
602.652	17.69
602.845	17.65
603.038	17.64
603.231	17.7
603.424	17.68
603.617	17.83
603.809	17.91
604.002	17.89
604.195	17.9
604.388	18.01
604.581	18.21
604.774	18.28
604.966	18.24
605.159	18.25
605.352	18.21
605.545	18.31
605.737	18.41
605.93	18.37
606.123	18.45
606.316	18.3
606.508	18.36
606.701	18.23
606.894	18.11
607.086	18.12
607.279	17.97
607.471	18.06
607.664	17.99
607.857	17.85
608.049	17.93
608.242	17.9
608.434	18.01
608.627	18.07
608.819	18.15
609.012	18.11
609.204	18.26
609.397	18.41
609.589	18.43
609.782	18.48
609.974	18.56
610.166	18.56
610.359	18.53
610.551	18.52
610.743	18.53
610.936	18.6
611.128	18.73
611.32	18.47
611.513	18.48
611.705	18.42
611.897	18.47
612.09	18.61
612.282	18.62
612.474	18.63
612.666	18.75
612.858	18.56
613.051	18.54
613.243	18.43
613.435	18.5
613.627	18.51
613.819	18.55
614.011	18.52
614.203	18.39
614.395	18.46
614.588	18.69
614.78	18.65
614.972	18.78
615.164	18.72
615.356	18.8
615.548	19
615.74	18.82
615.932	18.94
616.124	18.9
616.315	18.8
616.507	18.77
616.699	18.72
616.891	18.82
617.083	19.02
617.275	19.08
617.467	19.1
617.659	18.98
617.85	19.18
618.042	19.19
618.234	19.21
618.426	19.35
618.618	19.33
618.809	19.24
619.001	19.18
619.193	18.94
619.384	18.91
619.576	19.08
619.768	19.03
619.959	19.06
620.151	18.93
620.343	19.08
620.534	19.07
620.726	19.15
620.917	19.02
621.109	19.03
621.301	19.04
621.492	19.2
621.684	19.02
621.875	19.14
622.067	19.14
622.258	19.28
622.45	19.17
622.641	19.21
622.832	19.25
623.024	19.47
623.215	19.58
623.407	19.62
623.598	19.64
623.789	19.72
623.981	19.66
624.172	19.53
624.363	19.28
624.555	19.3
624.746	19.35
624.937	19.18
625.129	19.05
625.32	18.98
625.511	18.97
625.702	18.91
625.893	18.74
626.085	18.87
626.276	18.82
626.467	18.98
626.658	19.12
626.849	19.06
627.04	19.12
627.231	19.24
627.422	19.22
627.614	19.19
627.805	19.27
627.996	19.44
628.187	19.49
628.378	19.68
628.569	19.64
628.76	19.6
628.951	19.58
629.142	19.65
629.332	19.59
629.523	19.56
629.714	19.74
629.905	19.68
630.096	19.74
630.287	19.71
630.478	19.74
630.669	19.86
630.859	19.77
631.05	19.69
631.241	19.6
631.432	19.61
631.623	19.78
631.813	19.74
632.004	19.62
632.195	19.62
632.385	19.61
632.576	19.74
632.767	19.77
632.957	19.73
633.148	19.87
633.339	19.96
633.529	20.01
633.72	20.04
633.91	20.04
634.101	20.11
634.292	20.31
634.482	20.17
634.673	20.12
634.863	20.01
635.054	20.15
635.244	20.11
635.435	20.14
635.625	20.09
635.815	19.92
636.006	19.89
636.196	19.77
636.387	19.62
636.577	19.79
636.767	19.77
636.958	19.9
637.148	19.87
637.338	19.97
637.529	19.85
637.719	20.08
637.909	20.17
638.099	20.18
638.29	20.35
638.48	20.34
638.67	20.3
638.86	20.27
639.05	20.16
639.241	20.21
639.431	20.24
639.621	20.25
639.811	20.14
640.001	20.02
640.191	20.15
640.381	20.29
640.571	20.2
640.761	20.33
640.951	20.35
641.141	20.48
641.331	20.47
641.521	20.47
641.711	20.61
641.901	20.68
642.091	20.88
642.281	20.87
642.471	20.68
642.661	20.69
642.851	20.45
643.041	20.21
643.231	20.21
643.42	20.13
643.61	20.02
643.8	19.96
643.99	19.91
644.18	19.75
644.369	19.64
644.559	19.78
644.749	19.93
644.939	20.09
645.128	20.27
645.318	20.22
645.508	20.11
645.697	19.96
645.887	19.99
646.076	19.85
646.266	19.8
646.456	19.82
646.645	19.67
646.835	19.58
647.024	19.7
647.214	19.8
647.403	19.74
647.593	19.79
647.782	19.96
647.972	20.04
648.161	20.26
648.351	20.47
648.54	20.52
648.73	20.5
648.919	20.46
649.108	20.33
649.298	20.35
649.487	20.53
649.677	20.77
649.866	20.76
650.055	20.89
650.244	20.9
650.434	21.06
650.623	21.04
650.812	21.12
651.002	21.02
651.191	20.9
651.38	20.94
651.569	20.75
651.758	20.7
651.947	20.85
652.137	20.56
652.326	20.5
652.515	20.39
652.704	20.45
652.893	20.55
653.082	20.72
653.271	20.9
653.46	20.85
653.649	20.92
653.838	20.96
654.027	20.81
654.216	21.17
654.405	21.16
654.594	21.05
654.783	20.96
654.972	21.02
655.161	21.04
655.35	20.9
655.539	20.67
655.728	20.86
655.916	20.68
656.105	20.66
656.294	20.39
656.483	20.35
656.672	20.4
656.86	20.35
657.049	20.33
657.238	20.45
657.427	20.34
657.615	20.45
657.804	20.25
657.993	20.26
658.181	20.32
658.37	20.26
658.559	20.2
658.747	20.26
658.936	20.39
659.125	20.19
659.313	19.98
659.502	20.19
659.69	20.17
659.879	20.3
660.067	20.41
660.256	20.53
660.444	20.64
660.633	20.66
660.821	20.56
661.01	20.59
661.198	20.72
661.387	20.91
661.575	20.95
661.763	21.37
661.952	21.37
662.14	21.25
662.328	21.2
662.517	21.17
662.705	21.43
662.893	21.53
663.082	21.41
663.27	21.39
663.458	21.17
663.646	21.11
663.834	20.79
664.023	20.69
664.211	20.63
664.399	20.61
664.587	20.91
664.775	20.67
664.963	20.86
665.152	20.95
665.34	21.18
665.528	21.36
665.716	21.29
665.904	21.29
666.092	21.43
666.28	21.71
666.468	21.52
666.656	21.4
666.844	21.33
667.032	21.25
667.22	21.22
667.408	21.14
667.596	21.53
667.784	21.6
667.971	21.59
668.159	21.55
668.347	21.55
668.535	21.68
668.723	21.69
668.911	21.92
669.098	21.89
669.286	21.93
669.474	22.17
669.662	21.65
669.849	21.91
670.037	21.88
670.225	21.95
670.413	21.78
670.6	21.68
670.788	21.62
670.976	21.41
671.163	21.46
671.351	21.33
671.538	20.98
671.726	20.96
671.913	20.69
672.101	20.9
672.289	20.63
672.476	20.77
672.664	20.85
672.851	20.58
673.039	20.52
673.226	20.39
673.413	20.41
673.601	20.6
673.788	20.65
673.976	20.74
674.163	20.36
674.35	20.45
674.538	20.22
674.725	20.18
674.912	20.51
675.1	20.56
675.287	20.79
675.474	21.08
675.662	21.03
675.849	21.16
676.036	20.97
676.223	21.2
676.411	21.53
676.598	21.75
676.785	21.73
676.972	22
677.159	21.86
677.346	21.94
677.533	22.07
677.721	21.9
677.908	22.02
678.095	22.03
678.282	22.1
678.469	21.81
678.656	21.77
678.843	21.88
679.03	21.61
679.217	21.88
679.404	21.62
679.591	21.33
679.778	21.4
679.964	21.29
680.151	21.39
680.338	21.36
680.525	21.38
680.712	21.4
680.899	21.53
681.086	21.39
681.272	21.3
681.459	21.15
681.646	21.3
681.833	21.28
682.02	21.51
682.206	21.35
682.393	21.3
682.58	21.55
682.766	21.45
682.953	21.29
683.14	21.52
683.326	21.95
683.513	22.2
683.7	22.05
683.886	22.07
684.073	21.83
684.259	22.17
684.446	22.11
684.632	22.04
684.819	22.22
685.005	22.24
685.192	22.1
685.378	21.86
685.565	21.73
685.751	21.72
685.938	21.93
686.124	22.08
686.31	21.85
686.497	21.99
686.683	21.91
686.87	21.91
687.056	21.78
687.242	21.78
687.429	21.84
687.615	21.92
687.801	22.11
687.987	22.1
688.174	22.09
688.36	22.17
688.546	22.04
688.732	22.37
688.918	21.93
689.105	22.18
689.291	22.52
689.477	22.73
689.663	23.03
689.849	22.94
690.035	22.83
690.221	22.86
690.407	23.03
690.593	23.14
690.779	22.79
690.965	23.24
691.151	22.89
691.337	22.71
691.523	22.36
691.709	22.29
691.895	22.2
692.081	22.21
692.267	22.16
692.453	22.02
692.639	22.26
692.825	22.3
693.011	22.32
693.196	22.42
693.382	22.36
693.568	22.31
693.754	22.5
693.94	22.66
694.125	22.84
694.311	22.88
694.497	22.93
694.682	22.54
694.868	22.3
695.054	22.27
695.239	22.4
695.425	22.43
695.611	22.58
695.796	22.08
695.982	22.23
696.168	22.03
696.353	21.81
696.539	21.87
696.724	21.95
696.91	22.08
697.095	22.28
697.281	22.26
697.466	22.19
697.652	22.1
697.837	22.25
698.023	22.15
698.208	22.22
698.393	22.35
698.579	22.23
698.764	22.19
698.949	22.45
699.135	22.3
699.32	22.39
699.505	22.22
699.691	22.4
699.876	22.35
700.061	22.63
700.246	22.44
700.432	22.6
700.617	22.68
700.802	22.74
700.987	22.69
701.172	22.75
701.358	22.69
701.543	23.48
701.728	23.31
701.913	22.96
702.098	22.75
702.283	23.22
702.468	23.25
702.653	23.55
702.838	23.83
703.023	23.54
703.208	23.25
703.393	23.4
703.578	23.12
703.763	22.96
703.948	23.5
704.133	23.17
704.318	23.41
704.503	23.22
704.688	22.98
704.873	22.89
705.057	22.81
705.242	23.05
705.427	22.65
705.612	22.28
705.797	22.44
705.981	22.37
706.166	22.4
706.351	22.34
706.536	22.29
706.72	22.15
706.905	22.2
707.09	22.41
707.274	22.28
707.459	22.29
707.644	22.43
707.828	22.38
708.013	22.2
708.197	22.68
708.382	22.27
708.567	22.43
708.751	22.51
708.936	22.6
709.12	22.6
709.305	22.77
709.489	22.86
709.673	22.82
709.858	22.92
710.042	23.05
710.227	22.85
710.411	22.69
710.596	22.36
710.78	21.98
710.964	21.87
711.149	21.95
711.333	21.91
711.517	22.21
711.702	22.28
711.886	22.07
712.07	22
712.254	21.79
712.438	21.91
712.623	21.93
712.807	22.27
712.991	22.32
713.175	22.03
713.359	21.99
713.544	21.99
713.728	21.98
713.912	22.1
714.096	22.19
714.28	22.38
714.464	22.65
714.648	22.82
714.832	22.72
715.016	22.67
715.2	22.87
715.384	22.72
715.568	22.62
715.752	22.35
715.936	22.65
716.12	22.44
716.304	22.5
716.488	22.4
716.671	22.66
716.855	22.55
717.039	22.55
717.223	22.55
717.407	22.74
717.59	22.37
717.774	22.7
717.958	22.32
718.142	22.62
718.325	22.44
718.509	22.37
718.693	22.14
718.877	22.49
719.06	22.12
719.244	22.24
719.428	21.84
719.611	22.12
719.795	22.39
719.978	22.47
720.162	22.25
720.345	22.51
720.529	22.5
720.713	22.36
720.896	22.66
721.08	22.82
721.263	22.7
721.446	23.02
721.63	22.9
721.813	22.8
721.997	22.58
722.18	22.92
722.364	23.05
722.547	22.72
722.73	22.77
722.914	22.37
723.097	22.29
723.28	22.21
723.464	22.16
723.647	22.23
723.83	22.13
724.013	22.88
724.197	23.18
724.38	22.68
724.563	23.1
724.746	23.38
724.929	23.61
725.112	23.98
725.296	23.9
725.479	24.38
725.662	24.53
725.845	24.36
726.028	23.7
726.211	23.42
726.394	23.59
726.577	23.38
726.76	22.97
726.943	22.87
727.126	22.72
727.309	22.87
727.492	22.65
727.675	22.84
727.858	22.98
728.041	23.32
728.224	23.14
728.407	23.19
728.589	22.93
728.772	23.34
728.955	23.47
729.138	23.65
729.321	23.9
729.503	23.98
729.686	23.63
729.869	23.79
730.052	24.03
730.234	24.16
730.417	24.12
730.6	24.89
730.782	24.58
730.965	24.44
731.148	24.33
731.33	24.09
731.513	24.3
731.695	24.12
731.878	23.73
732.061	23.47
732.243	22.88
732.426	22.76
732.608	22.31
732.791	22.24
732.973	22.13
733.156	22
733.338	21.82
733.52	21.61
733.703	22.08
733.885	22.2
734.068	22.06
734.25	22.33
734.432	22.7
734.615	22.9
734.797	23.24
734.979	23.63
735.162	24.11
735.344	24.41
735.526	24.09
735.708	23.91
735.891	23.89
736.073	24.08
736.255	24.3
736.437	23.7
736.619	23.67
736.802	23.25
736.984	22.91
737.166	22.67
737.348	22.77
737.53	22.78
737.712	23.02
737.894	23.47
738.076	23.49
738.258	23.37
738.44	23.51
738.622	23.75
738.804	23.91
738.986	24.25
739.168	23.96
739.35	23.86
739.532	23.78
739.714	24.18
739.896	23.82
740.078	23.5
740.259	24.21
740.441	24.34
740.623	23.8
740.805	23.96
740.987	23.89
741.168	24.07
741.35	24.02
741.532	24.82
741.714	23.97
741.895	24.23
742.077	24.52
742.259	23.89
742.44	24.62
742.622	24.86
742.804	24.55
742.985	24.76
743.167	24.97
743.348	25.07
743.53	24.51
743.711	24.96
743.893	24.67
744.075	24.49
744.256	24.81
744.438	24.1
744.619	24.21
744.8	23.87
744.982	23.82
745.163	24.24
745.345	23.94
745.526	24.01
745.707	24.19
745.889	24.88
746.07	24.35
746.252	23.97
746.433	24.33
746.614	23.52
746.795	24.4
746.977	24.24
747.158	23.71
747.339	23.89
747.52	23.48
747.702	23.6
747.883	23.11
748.064	23.48
748.245	23.38
748.426	23.33
748.607	24.12
748.788	23.75
748.97	23.34
749.151	23.04
749.332	23.22
749.513	23.54
749.694	23.01
749.875	22.73
750.056	23.69
750.237	24.53
750.418	24.73
750.599	24.37
750.78	24.21
750.96	24.31
751.141	24.04
751.322	23.84
751.503	23.85
751.684	24.38
751.865	24.91
752.046	24.19
752.226	23.77
752.407	23.15
752.588	23.08
752.769	23.92
752.949	23.82
753.13	24.54
753.311	24.6
753.492	24.32
753.672	23.83
753.853	24
754.034	24.21
754.214	24.2
754.395	24.71
754.575	24.79
754.756	24.23
754.937	24.08
755.117	24.06
755.298	23.86
755.478	24.63
755.659	24.97
755.839	24.37
756.02	24.2
756.2	24.37
756.381	23.38
756.561	23.64
756.741	23.78
756.922	24.1
757.102	24.1
757.283	24.7
757.463	24.11
757.643	23.9
757.823	24.42
758.004	24.76
758.184	24.69
758.364	25.06
758.545	24.65
758.725	24.34
758.905	24.88
759.085	24.7
759.265	24.14
759.446	24.17
759.626	23.55
759.806	23.01
759.986	22.22
760.166	21.68
760.346	21.18
760.526	21.61
760.706	21.56
760.886	20.87
761.066	21.18
761.246	21.37
761.426	21.6
761.606	21.97
761.786	22.27
761.966	22.38
762.146	23.01
762.326	23.42
762.506	23.13
762.686	23.06
762.866	23.27
763.046	22.96
763.225	23
763.405	22.56
763.585	22.96
763.765	22.24
763.945	22.57
764.124	22.42
764.304	22.71
764.484	22.93
764.664	23.63
764.843	23.38
765.023	23.55
765.203	23.16
765.382	23.31
765.562	22.95
765.741	23.45
765.921	23.84
766.101	23.88
766.28	23.27
766.46	22.95
766.639	22.44
766.819	22.66
766.998	22.99
767.178	23.92
767.357	24.58
767.537	25.16
767.716	25.99
767.896	25.8
768.075	25.89
768.254	26.92
768.434	27.07
768.613	27.16
768.792	27.25
768.972	27.12
769.151	26.47
769.33	26.33
769.51	25.17
769.689	24.62
769.868	24.32
770.047	23.77
770.226	22.87
770.406	23.32
770.585	23.16
770.764	23.08
770.943	22.85
771.122	23
771.301	23.07
771.48	24.04
771.66	24.26
771.839	23.83
772.018	24.61
772.197	24.83
772.376	24.82
772.555	24.13
772.734	24.2
772.913	24.56
773.092	24.48
773.271	24
773.449	24.15
773.628	23.83
773.807	24.58
773.986	24.11
774.165	24.12
774.344	24.16
774.523	24.42
774.701	23.87
774.88	23.39
775.059	22.92
775.238	23.29
775.417	22.53
775.595	23.15
775.774	22.5
775.953	22.66
776.131	22.72
776.31	22.32
776.489	22.6
776.667	23.12
776.846	23.69
777.025	23.86
777.203	23.87
777.382	23.93
777.56	23.18
777.739	23.34
777.917	22.83
778.096	23.2
778.274	23.77
778.453	24.64
778.631	25.45
778.81	25.4
778.988	25.25
779.166	25.46
779.345	25.68
779.523	25.72
779.702	26.11
779.88	26.43
780.058	26.26
780.237	25.71
780.415	24.45
780.593	23.51
780.771	23.72
780.95	24.58
781.128	24.75
781.306	24.5
781.484	24.46
781.662	23.38
781.841	23.25
782.019	22.8
782.197	22.5
782.375	23.05
782.553	23.25
782.731	22.94
782.909	22.83
783.087	23.17
783.265	23.88
783.443	23.83
783.621	25.43
783.799	25.93
783.977	26.1
784.155	26.98
784.333	27.21
784.511	26.66
784.689	26.21
784.867	26.28
785.045	24.59
785.223	23.71
785.4	24.75
785.578	23.47
785.756	23.47
785.934	23.03
786.112	23.69
786.289	23.9
786.467	24.34
786.645	25.17
786.823	24.77
787	25.41
787.178	25.74
787.356	24.85
787.533	25.74
787.711	26.09
787.889	26.46
788.066	25.05
788.244	25.49
788.421	25.41
788.599	25.18
788.776	25.37
788.954	25.26
789.131	25.7
789.309	25.83
789.486	25.45
789.664	24.85
789.841	25.23
790.019	25.83
790.196	25.4
790.373	26.02
790.551	25.77
790.728	25.45
790.906	25.85
791.083	24.31
791.26	23.96
791.437	23.46
791.615	22.98
791.792	23.26
791.969	23.14
792.146	22.87
792.324	22.74
792.501	22.71
792.678	22.46
792.855	22.04
793.032	22.68
793.209	23.1
793.387	23.13
793.564	23.21
793.741	22.32
793.918	22.69
794.095	22.54
794.272	22.84
794.449	23.41
794.626	24.09
794.803	24.8
794.98	25.56
795.157	25.46
795.334	26.25
795.511	28.02
795.688	28.45
795.864	27.82
796.041	28.19
796.218	28.35
796.395	27.67
796.572	27.77
796.749	27.39
796.925	26.62
797.102	25.98
797.279	25.91
797.456	24.07
797.632	24.54
797.809	24.69
797.986	25.21
798.162	24.06
798.339	23.97
798.516	24.1
798.692	24.41
798.869	25.4
799.046	26.2
799.222	26.02
799.399	27.1
799.575	26.59
799.752	27.5
799.928	27.14
800.105	27.64
800.281	28.01
800.458	27.91
800.634	28.02
800.811	27.82
800.987	28.33
801.163	28.73
801.34	26.94
801.516	27.41
801.692	27.07
801.869	25.97
802.045	26.43
802.221	26.24
802.398	25.3
802.574	24.91
802.75	25.47
802.926	25.57
803.103	25.49
803.279	26.91
803.455	27.14
803.631	27.45
803.807	27.34
803.983	27.15
804.16	26.93
804.336	27.94
804.512	27.6
804.688	27.17
804.864	26.63
805.04	27.15
805.216	28.08
805.392	28.18
805.568	27.8
805.744	28.55
805.92	28.18
806.096	28
806.272	26.48
806.448	26.79
806.623	26.67
806.799	27.36
806.975	26.33
807.151	25.74
807.327	25.47
807.503	25.67
807.678	25
807.854	26.14
808.03	26.77
808.206	28.05
808.381	28.13
808.557	28.83
808.733	26.91
808.908	26.33
809.084	25.84
809.26	26.27
809.435	25.7
809.611	25.62
809.787	23.36
809.962	23.46
810.138	22.61
810.313	22.26
810.489	21.07
810.664	22.41
810.84	22.62
811.015	22.67
811.191	22.13
811.366	23.69
811.542	24.31
811.717	25.33
811.892	25.71
812.068	25.82
812.243	26.28
812.419	26.94
812.594	26.97
812.769	27.11
812.944	26.13
813.12	25.67
813.295	24.25
813.47	25.02
813.645	24.58
813.821	23.86
813.996	25.52
814.171	25.44
814.346	25.35
814.521	26.31
814.697	26.34
814.872	27.19
815.047	26.94
815.222	26.68
815.397	26.85
815.572	27.65
815.747	28.44
815.922	26.88
816.097	27.11
816.272	25.86
816.447	24.61
816.622	25.08
816.797	24.99
816.972	25.74
817.147	26.62
817.322	26.8
817.496	26.59
817.671	25.33
817.846	26.12
818.021	25.91
818.196	27.46
818.371	27.13
818.545	27.13
818.72	27.12
818.895	26.97
819.069	27.52
819.244	27.46
819.419	26.93
819.594	27.36
819.768	27.07
819.943	27.05
820.117	26.12
820.292	26.35
820.467	25.47
820.641	25.61
820.816	25.41
820.99	24.54
821.165	23.99
821.339	23.9
821.514	23.8
821.688	23.43
821.863	23.37
822.037	23.52
822.212	23.47
822.386	23.56
822.56	23.35
822.735	23.46
822.909	23.57
823.084	23.51
823.258	23.62
823.432	23.54
823.606	23.98
823.781	24.02
823.955	23.92
824.129	23.98
824.303	24.12
824.478	23.9
824.652	23.39
824.826	23.34
825	23.84
825.174	24.29
825.348	24.21
825.523	23.89
825.697	23.55
825.871	23.61
826.045	23.06
826.219	23.42
826.393	23.92
826.567	24.32
826.741	24.74
826.915	24.26
827.089	24.14
827.263	24.59
827.437	24.41
827.611	24.5
827.784	24.16
827.958	24.84
828.132	24.59
828.306	24.78
828.48	24.72
828.654	24.7
828.827	24.76
829.001	24.83
829.175	24.47
829.349	25.13
829.522	25.32
829.696	27.03
829.87	26.55
830.044	26.92
830.217	25.36
830.391	25.09
830.565	24.79
830.738	26.15
830.912	25.1
831.085	25.15
831.259	24.57
831.432	25.31
831.606	24.37
831.779	24.23
831.953	23.62
832.126	23.85
832.3	23.67
832.473	22.99
832.647	21.74
832.82	22.34
832.994	21.99
833.167	22.1
833.34	21.67
833.514	21.26
833.687	21.01
833.86	21.13
834.034	21.33
834.207	21.37
834.38	22.52
834.553	22.93
834.727	22.89
834.9	23.33
835.073	23.79
835.246	24.36
835.419	24.34
835.593	24.95
835.766	25.8
835.939	26.89
836.112	27.26
836.285	26.71
836.458	27.28
836.631	27.29
836.804	27.04
836.977	26.61
837.15	26.12
837.323	26.18
837.496	27.48
837.669	27.81
837.842	27.12
838.015	27.09
838.188	26.77
838.361	25.38
838.533	26.44
838.706	27.34
838.879	29.13
839.052	30.1
839.225	30.49
839.398	30.86
839.57	30.57
839.743	32.68
839.916	32.27
840.088	30.66
840.261	32.5
840.434	32.94
840.607	32.91
840.779	31.66
840.952	30.37
841.124	30.2
841.297	30.92
841.47	29.22
841.642	26.94
841.815	25.93
841.987	28.59
842.16	28.15
842.332	26.58
842.505	26.21
842.677	23.69
842.85	25.03
843.022	24.35
843.194	22.67
843.367	23.9
843.539	23.92
843.712	26.17
843.884	26.07
844.056	25.26
844.229	25.61
844.401	27.09
844.573	31.3
844.745	30.1
844.918	30.61
845.09	29.24
845.262	30.51
845.434	30.36
845.606	27.49
845.779	25.96
845.951	26.11
846.123	27.5
846.295	24.16
846.467	23
846.639	23.13
846.811	22.96
846.983	23.99
847.155	22.39
847.327	24.46
847.499	30.63
847.671	32.68
847.843	34.03
848.015	33.63
848.187	37.98
848.359	37.89
848.531	36.97
848.703	36.85
848.875	37.48
849.047	37.23
849.218	37.43
849.39	35.39
849.562	37.35
849.734	35.84
849.905	33.25
850.077	30.79
850.249	29.09
850.421	29.16
850.592	32.89
850.764	31.58
850.936	33.83
851.107	33.11
851.279	35.95
851.451	30.39
851.622	33.62
851.794	36.16
851.965	35.66
852.137	36.32
852.308	37.62
852.48	35.74
852.651	37.51
852.823	34.25
852.994	33.64
853.166	28.86
853.337	30.71
853.509	26.24
853.68	27.87
853.851	29.53
854.023	28.89
854.194	27.68
854.365	26.7
854.537	27.96
854.708	28.44
854.879	27.55
855.05	28.74
855.222	30.07
855.393	30.05
855.564	25.4
855.735	23.55
855.906	24.41
856.078	25.81
856.249	27.29
856.42	23.57
856.591	24.82
856.762	25.14
856.933	26.49
857.104	27.41
857.275	29.8
857.446	34.94
857.617	34.92
857.788	32.27
857.959	33.03
858.13	28.96
858.301	29.99
858.472	28.25
858.643	31.64
858.814	31.35
858.985	30.11
859.155	27.12
859.326	26.24
859.497	29.93
859.668	34.73
859.839	36.19
860.009	40.9
860.18	39.86
860.351	42.59
860.522	36.92
860.692	35.61
860.863	34.68
861.034	35.77
861.204	31.71
861.375	29.46
861.546	25.41
861.716	21.66
861.887	21.58
862.057	18.22
862.228	17.24
862.398	21.43
862.569	22.22
862.739	23.33
862.91	24.21
863.08	27.14
863.251	27.85
863.421	32.06
863.592	31.03
863.762	26.08
863.932	33.2
864.103	33.73
864.273	30.19
864.443	30.34
864.614	29.04
864.784	30.52
864.954	27.51
865.125	28.22
865.295	23.84
865.465	25.07
865.635	31.13
865.805	27.2
865.976	24.01
866.146	24.08
866.316	24.89
866.486	27.25
866.656	23.22
866.826	22.33
866.996	20.65
867.166	25.62
867.336	23.81
867.506	24.96
867.676	26.99
867.846	30.28
868.016	36.2
868.186	35.78
868.356	35.11
868.526	39.43
868.696	40.6
868.866	38.92
869.036	35.33
869.206	40.56
869.376	35.08
869.545	32.77
869.715	28.86
869.885	23.49
870.055	21.66
870.224	22.43
870.394	21.05
870.564	25.11
870.734	28.49
870.903	26.56
871.073	25.77
871.243	28.48
871.412	28.43
871.582	32.01
871.751	33.62
871.921	34.3
872.091	33.46
872.26	35.54
872.43	36.31
872.599	37.8
872.769	38.2
872.938	39.48
873.108	40.94
873.277	41.37
873.446	41.16
873.616	41.27
873.785	41.53
873.955	39.4
874.124	37.35
874.293	35.73
874.463	31.51
874.632	35.02
874.801	34.28
874.971	28.02
875.14	25.38
875.309	22.94
875.478	21.77
875.647	21.96
875.817	22.26
875.986	20.93
876.155	16.29
876.324	18.78
876.493	15.3
876.662	13.22
876.831	14.67
877	16.94
877.17	21.32
877.339	25.38
877.508	26.25
877.677	26.68
877.846	27.97
878.015	29.03
878.184	32.2
878.352	33.51
878.521	32.99
878.69	32.52
878.859	32.44
879.028	29.98
879.197	28.15
879.366	26.56
879.534	24.55
879.703	23.38
879.872	24.39
880.041	22.02
880.21	21.97
880.378	24.04
880.547	24.68
880.716	24.57
880.884	24.83
881.053	24.92
881.222	24.84
881.39	25.24
881.559	25.26
881.727	25.06
881.896	25.12
882.065	24.74
882.233	24.04
882.402	23.75
882.57	22.95
882.739	23.23
882.907	23.9
883.076	24.09
883.244	24.72
883.412	24.93
883.581	25.39
883.749	25.75
883.918	26.31
884.086	27.4
884.254	28.09
884.423	28.96
884.591	29.26
884.759	28.28
884.927	28.58
885.096	27.82
885.264	28.5
885.432	27.91
885.6	29.26
885.769	29.44
885.937	27.43
886.105	26.62
886.273	28.08
886.441	27.33
886.609	27.38
886.777	27.43
886.945	29.6
887.113	28.12
887.281	28.64
887.449	25.23
887.617	25.66
887.785	28.43
887.953	28.64
888.121	27.46
888.289	28.28
888.457	28.71
888.625	28.61
888.793	27.15
888.961	27.76
889.129	25.88
889.296	25.24
889.464	24.85
889.632	22.44
889.8	22.83
889.967	22.61
890.135	20.73
