Data from 2938580_Reflection_1.txt Node
Date: Sun Jun 14 21:12:18 EDT 2015
User: robert
Spectrometer: USB4E03002
Autoset integration time: false
Trigger mode: 4
Integration Time (sec): 1.000000E-1
Scans to average: 10
Electric dark correction enabled: true
Nonlinearity correction enabled: false
Boxcar width: 5
Stray light correction enabled: false
XAxis mode: Wavelengths
Stop averaging: false
Number of Pixels in Spectrum: 3648
>>>>>Begin Spectral Data<<<<<
177.575	92.37
177.794	165.05
178.014	1010.39
178.233	-7234.37
178.452	-600.93
178.672	-356.33
178.891	31.07
179.11	145.05
179.33	147.88
179.549	169.08
179.768	291.6
179.987	163.27
180.207	218.06
180.426	292.05
180.645	319.62
180.864	203.75
181.084	186.73
181.303	192.22
181.522	119.34
181.741	87.15
181.96	65.99
182.179	69.78
182.398	70.73
182.618	47.68
182.837	61.29
183.056	50.93
183.275	61.71
183.494	91.72
183.713	112.51
183.932	129.69
184.151	125.77
184.37	135.28
184.589	133.25
184.808	123.85
185.027	132.68
185.246	138.21
185.465	155.21
185.684	141.01
185.903	139.69
186.122	120.62
186.341	116.4
186.56	140.95
186.779	125.72
186.998	100.03
187.216	111.23
187.435	86.25
187.654	109.65
187.873	95.79
188.092	115.72
188.311	81.17
188.53	85.74
188.748	119.51
188.967	214.34
189.186	242.11
189.405	-903.92
189.623	-20997.22
189.842	-320.32
190.061	-285.62
190.28	-433.65
190.498	-807.4
190.717	-2346.25
190.936	816.02
191.154	832.25
191.373	204.76
191.592	191.37
191.81	93.35
192.029	183.64
192.248	158.46
192.466	118.73
192.685	106.97
192.904	115.75
193.122	142.03
193.341	133.5
193.559	114.12
193.778	131.55
193.996	126.19
194.215	132.01
194.433	96.29
194.652	66.84
194.87	79.22
195.089	78.15
195.307	69.34
195.526	56.3
195.744	60.5
195.963	73.17
196.181	99.03
196.399	102.58
196.618	79.94
196.836	81.77
197.055	88.81
197.273	77.99
197.491	76.45
197.71	100.03
197.928	100.77
198.146	115.54
198.365	90.94
198.583	76.69
198.801	80.86
199.019	88.29
199.238	91.26
199.456	84.5
199.674	92.53
199.892	84.15
200.111	68.76
200.329	66.86
200.547	45.63
200.765	69.44
200.983	47.99
201.202	37.99
201.42	57.56
201.638	64.46
201.856	72.86
202.074	82.68
202.292	114.6
202.51	131.85
202.728	124.95
202.946	129.86
203.165	133.88
203.383	150.46
203.601	135.12
203.819	113.81
204.037	104.96
204.255	113.06
204.473	111.8
204.691	75.4
204.909	70.26
205.127	72.82
205.345	59.54
205.562	44.93
205.78	50.67
205.998	59.58
206.216	68.94
206.434	79.47
206.652	71.02
206.87	66.92
207.088	68.56
207.306	78.82
207.523	82.95
207.741	90.51
207.959	96.38
208.177	77.05
208.395	76.71
208.612	63.4
208.83	44.03
209.048	54.83
209.266	59.85
209.483	63.59
209.701	54.64
209.919	56.18
210.136	59.98
210.354	57
210.572	66.3
210.79	46.85
211.007	75.84
211.225	82.8
211.442	75.89
211.66	68
211.878	67.25
212.095	68.89
212.313	71.89
212.53	71.08
212.748	67.23
212.966	58.52
213.183	80.99
213.401	69.06
213.618	83.61
213.836	104.01
214.053	109.72
214.271	92.83
214.488	94.14
214.705	89.36
214.923	75.75
215.14	78.69
215.358	75.11
215.575	62.45
215.793	68
216.01	56.45
216.227	37.05
216.445	27.98
216.662	26.9
216.879	23.1
217.097	20.58
217.314	23.36
217.531	27.48
217.749	36.15
217.966	29.51
218.183	25.09
218.4	42.32
218.618	56.31
218.835	52.13
219.052	57.91
219.269	55.95
219.487	55.82
219.704	62.08
219.921	53.02
220.138	49.39
220.355	46.55
220.572	47.78
220.79	38.45
221.007	38.5
221.224	38.31
221.441	39.5
221.658	40.46
221.875	38.83
222.092	34.44
222.309	33.9
222.526	30.11
222.743	36.36
222.96	35.26
223.177	36.65
223.394	35.38
223.611	34.84
223.828	30.46
224.045	29.27
224.262	25.74
224.479	24.01
224.696	23.65
224.913	24.96
225.13	22.32
225.347	18.18
225.564	14.42
225.781	11.49
225.997	12.33
226.214	10.77
226.431	10.44
226.648	11.08
226.865	11.84
227.082	11.95
227.298	11
227.515	9.95
227.732	10.28
227.949	10.13
228.165	11.11
228.382	10.22
228.599	10.84
228.816	10.96
229.032	10.34
229.249	10.35
229.466	10.19
229.682	10.99
229.899	11.92
230.116	12.5
230.332	13.85
230.549	13.63
230.765	14.53
230.982	15.22
231.199	15.4
231.415	17.17
231.632	15.12
231.848	16.01
232.065	15.46
232.281	15.28
232.498	16.07
232.714	17.19
232.931	16.09
233.147	15.72
233.364	14.47
233.58	12.03
233.797	11.92
234.013	13.42
234.23	11.99
234.446	11.56
234.662	11.24
234.879	11.03
235.095	9.99
235.312	11.84
235.528	13.31
235.744	12.99
235.961	13.91
236.177	11.7
236.393	12.81
236.61	13.52
236.826	14.79
237.042	13.76
237.258	12.48
237.475	12.65
237.691	11.44
237.907	10.4
238.123	11.69
238.339	12.22
238.556	13.49
238.772	12.09
238.988	10.52
239.204	9.96
239.42	10.53
239.636	10.35
239.853	10.11
240.069	9.97
240.285	9.49
240.501	8.63
240.717	8.35
240.933	7.93
241.149	8.21
241.365	9.24
241.581	9.74
241.797	9.65
242.013	9.13
242.229	8.76
242.445	8.67
242.661	8.25
242.877	8.79
243.093	8.67
243.309	9.09
243.525	9.17
243.741	8.43
243.957	7.52
244.173	7.32
244.388	8.09
244.604	8.32
244.82	8.49
245.036	8.47
245.252	8.23
245.468	8.32
245.683	8.24
245.899	8.15
246.115	7.72
246.331	7.71
246.547	8.11
246.762	7.98
246.978	7.89
247.194	7.88
247.409	7.97
247.625	7.96
247.841	7.52
248.057	7.61
248.272	7.43
248.488	7.92
248.703	7.82
248.919	7.65
249.135	7.48
249.35	7.78
249.566	7.14
249.782	7.48
249.997	7.38
250.213	7.66
250.428	7.52
250.644	7.42
250.859	7.31
251.075	7.16
251.29	6.44
251.506	6.37
251.721	6.46
251.937	6.7
252.152	6.24
252.368	6.2
252.583	6.55
252.798	6.38
253.014	6.82
253.229	6.15
253.445	6.34
253.66	5.93
253.875	7.02
254.091	5.91
254.306	6.16
254.521	6.16
254.737	5.89
254.952	5.71
255.167	5.58
255.383	4.89
255.598	5.86
255.813	5.55
256.028	6.32
256.244	5.4
256.459	5.76
256.674	5.85
256.889	5.75
257.104	5.66
257.32	5.6
257.535	5.43
257.75	5.1
257.965	5.07
258.18	5.15
258.395	5.05
258.61	5.26
258.826	4.88
259.041	4.64
259.256	4.81
259.471	4.8
259.686	4.78
259.901	4.56
260.116	4.98
260.331	4.82
260.546	4.71
260.761	4.5
260.976	3.92
261.191	4.65
261.406	4.85
261.621	4.96
261.836	4.64
262.05	4.92
262.265	5.36
262.48	5.9
262.695	6.3
262.91	7.04
263.125	7.21
263.34	7.82
263.555	7.93
263.769	7.49
263.984	6.93
264.199	7.97
264.414	7.63
264.629	7.63
264.843	6.82
265.058	6.54
265.273	5.77
265.488	6.12
265.702	5.75
265.917	5.07
266.132	5.37
266.346	5.39
266.561	5.1
266.776	5
266.99	5.17
267.205	5.15
267.42	4.94
267.634	4.88
267.849	4.31
268.063	4.56
268.278	4.56
268.492	4.99
268.707	4.99
268.922	4.66
269.136	4.87
269.351	5.05
269.565	5.06
269.78	4.72
269.994	4.78
270.209	4.57
270.423	4.34
270.637	4.68
270.852	4.26
271.066	4.37
271.281	4.47
271.495	4.21
271.709	3.8
271.924	3.95
272.138	4.32
272.353	4.97
272.567	5.49
272.781	5.82
272.996	5.69
273.21	5.58
273.424	5.72
273.638	5.93
273.853	5.77
274.067	6.02
274.281	6.21
274.495	6.36
274.71	6.24
274.924	6.07
275.138	5.69
275.352	5.62
275.566	5.96
275.781	5.84
275.995	6.28
276.209	6.63
276.423	6.32
276.637	6.21
276.851	6.21
277.065	5.59
277.279	5.58
277.493	6.61
277.707	6.1
277.921	6.13
278.135	5.94
278.349	5.03
278.563	4.77
278.777	5.15
278.991	5.02
279.205	5.02
279.419	5.17
279.633	5.2
279.847	4.43
280.061	4.44
280.275	4.15
280.489	4.7
280.703	4.78
280.917	4.96
281.131	4.67
281.344	4.63
281.558	4.74
281.772	4.71
281.986	4.46
282.2	4.47
282.414	4.59
282.627	4.42
282.841	4.04
283.055	4.36
283.269	4.49
283.482	4.66
283.696	4.35
283.91	3.99
284.123	3.83
284.337	4
284.551	3.93
284.764	3.83
284.978	4.13
285.192	4.08
285.405	4.02
285.619	4.26
285.833	4.41
286.046	4.59
286.26	5.05
286.473	5.16
286.687	5.36
286.9	5
287.114	5.1
287.327	5.19
287.541	5.4
287.754	5.17
287.968	4.74
288.181	4.41
288.395	4.45
288.608	4.44
288.822	4.46
289.035	4.14
289.248	4.36
289.462	4.46
289.675	4.5
289.889	4.22
290.102	3.98
290.315	4.22
290.529	4.5
290.742	4.53
290.955	4.14
291.169	4.48
291.382	4.77
291.595	5.01
291.808	5.42
292.022	5.11
292.235	5.18
292.448	5.7
292.661	5.55
292.875	5.28
293.088	5.64
293.301	5.8
293.514	5.46
293.727	5.25
293.94	5.04
294.153	4.88
294.367	4.77
294.58	4.82
294.793	4.66
295.006	4.9
295.219	4.73
295.432	4.64
295.645	4.57
295.858	4.7
296.071	4.57
296.284	4.88
296.497	4.84
296.71	5.07
296.923	5.31
297.136	5.37
297.349	5.12
297.562	5.13
297.775	5.12
297.988	5.33
298.201	5.38
298.414	5.64
298.626	5.62
298.839	5.53
299.052	5.64
299.265	5.44
299.478	5.08
299.691	5.04
299.903	5.23
300.116	4.99
300.329	5.27
300.542	5.11
300.755	5.15
300.967	5.27
301.18	5.54
301.393	5.58
301.605	5.27
301.818	5.69
302.031	5.62
302.243	5.8
302.456	5.74
302.669	5.23
302.881	5.4
303.094	5.41
303.307	5.13
303.519	5.13
303.732	4.93
303.944	5.24
304.157	5.06
304.37	5.01
304.582	5
304.795	5.35
305.007	5.56
305.22	5.54
305.432	5.5
305.645	5.74
305.857	5.54
306.069	5.53
306.282	5.32
306.494	5.32
306.707	5.45
306.919	5.09
307.132	4.99
307.344	5.02
307.556	5.01
307.769	5.06
307.981	4.86
308.193	4.97
308.406	4.82
308.618	5.1
308.83	5.17
309.043	5.27
309.255	5.4
309.467	5.12
309.679	5.14
309.892	5.22
310.104	5.22
310.316	5.13
310.528	5.07
310.74	5.36
310.953	5.31
311.165	5.18
311.377	5.28
311.589	5.41
311.801	5.68
312.013	5.73
312.225	5.83
312.437	5.79
312.649	6.32
312.862	6.6
313.074	6.88
313.286	6.78
313.498	6.94
313.71	6.64
313.922	6.61
314.134	6.78
314.346	6.57
314.558	6.52
314.77	6.87
314.982	6.47
315.193	6.33
315.405	5.79
315.617	5.27
315.829	5.15
316.041	5.14
316.253	5.17
316.465	5.58
316.677	5.63
316.888	5.74
317.1	5.76
317.312	5.74
317.524	6.02
317.736	6.09
317.947	6.7
318.159	7.05
318.371	7.45
318.583	7.39
318.794	6.95
319.006	6.94
319.218	6.78
319.43	6.4
319.641	7.02
319.853	6.57
320.064	7.15
320.276	7.1
320.488	6.63
320.699	6.94
320.911	6.97
321.123	6.82
321.334	6.93
321.546	7.28
321.757	7.34
321.969	7.02
322.18	7.53
322.392	7.11
322.603	7.11
322.815	7.14
323.026	6.68
323.238	6.99
323.449	6.99
323.661	6.64
323.872	6.46
324.083	6.71
324.295	6.5
324.506	6.13
324.718	5.97
324.929	6.16
325.14	6.62
325.352	6.64
325.563	6.49
325.774	6.74
325.986	7.34
326.197	7.23
326.408	7.34
326.62	7.22
326.831	7.59
327.042	7.98
327.253	8.14
327.464	8.02
327.676	8.03
327.887	7.86
328.098	7.78
328.309	7.59
328.52	7.97
328.732	7.78
328.943	7.81
329.154	7.63
329.365	7.38
329.576	7.2
329.787	7.26
329.998	7.4
330.209	7.67
330.42	8.17
330.631	7.92
330.842	7.59
331.053	7.77
331.264	8.01
331.475	8.2
331.686	8.18
331.897	8.23
332.108	8.58
332.319	8.54
332.53	8.81
332.741	8.3
332.952	8.63
333.163	8.87
333.374	8.72
333.585	8.71
333.795	8.68
334.006	9.21
334.217	9.15
334.428	8.94
334.639	9.07
334.849	8.76
335.06	8.78
335.271	8.64
335.482	8.85
335.692	8.9
335.903	9.16
336.114	8.92
336.325	8.3
336.535	8.67
336.746	8.52
336.957	8.31
337.167	8.49
337.378	8.39
337.589	8.92
337.799	8.92
338.01	8.8
338.22	8.66
338.431	8.47
338.642	8.68
338.852	8.38
339.063	8.65
339.273	8.41
339.484	8.38
339.694	8.46
339.905	8.12
340.115	7.73
340.326	7.72
340.536	7.91
340.746	8.16
340.957	8.49
341.167	8.4
341.378	8.11
341.588	8.38
341.799	8.24
342.009	8.61
342.219	8.6
342.43	8.66
342.64	8.91
342.85	8.72
343.061	8.55
343.271	8.31
343.481	8.29
343.691	8.37
343.902	8.47
344.112	8.46
344.322	8.07
344.532	7.93
344.743	7.76
344.953	7.6
345.163	7.44
345.373	7.74
345.583	7.79
345.793	7.65
346.004	7.7
346.214	7.73
346.424	7.78
346.634	7.76
346.844	7.92
347.054	8.21
347.264	8.08
347.474	7.98
347.684	7.8
347.894	7.78
348.104	7.76
348.314	7.59
348.524	7.26
348.734	7.13
348.944	7.1
349.154	7.12
349.364	6.9
349.574	6.73
349.784	6.67
349.994	6.63
350.204	6.39
350.413	6.52
350.623	6.35
350.833	6.47
351.043	6.76
351.253	6.62
351.463	6.35
351.672	6.7
351.882	6.84
352.092	7.31
352.302	7.38
352.511	7.69
352.721	7.46
352.931	7.37
353.141	7.58
353.35	7.58
353.56	7.85
353.77	7.76
353.979	7.58
354.189	7.63
354.399	7.49
354.608	7.27
354.818	7.26
355.027	7.63
355.237	7.96
355.447	7.53
355.656	7.29
355.866	7.08
356.075	7.28
356.285	7.02
356.494	7.11
356.704	7.06
356.913	7.03
357.123	6.63
357.332	6.39
357.542	6.32
357.751	6.54
357.96	6.62
358.17	6.7
358.379	6.71
358.589	6.66
358.798	6.52
359.007	6.48
359.217	6.58
359.426	6.79
359.635	6.9
359.845	6.71
360.054	6.64
360.263	6.63
360.472	6.7
360.682	6.51
360.891	6.7
361.1	6.69
361.309	6.77
361.519	6.86
361.728	6.92
361.937	6.8
362.146	7.04
362.355	7.28
362.564	7.41
362.774	7.37
362.983	7.46
363.192	7.38
363.401	7.42
363.61	7.29
363.819	7.24
364.028	7.07
364.237	7.03
364.446	6.97
364.655	6.64
364.864	6.46
365.073	6.36
365.282	6.48
365.491	6.51
365.7	6.37
365.909	6.4
366.118	6.27
366.327	6.25
366.536	6.36
366.745	6.19
366.954	6.35
367.162	6.45
367.371	6.51
367.58	6.55
367.789	6.27
367.998	6.25
368.207	6.15
368.415	6.2
368.624	6.25
368.833	6.39
369.042	6.52
369.25	6.41
369.459	6.39
369.668	6.24
369.877	5.98
370.085	6.2
370.294	6.17
370.503	6.16
370.711	6.27
370.92	6.34
371.129	6.23
371.337	6.25
371.546	6.19
371.754	6.23
371.963	6.26
372.171	6.2
372.38	6.21
372.589	6.39
372.797	6.51
373.006	6.29
373.214	6.01
373.423	6.09
373.631	6.01
373.84	6.19
374.048	5.92
374.256	5.92
374.465	6.26
374.673	6.28
374.882	6.18
375.09	6.23
375.298	6.41
375.507	6.62
375.715	6.54
375.923	6.31
376.132	5.94
376.34	5.93
376.548	5.93
376.757	5.51
376.965	5.5
377.173	5.38
377.381	5.13
377.59	4.9
377.798	4.66
378.006	4.47
378.214	4.74
378.423	5.11
378.631	5.05
378.839	5.24
379.047	5.68
379.255	5.43
379.463	5.51
379.671	5.5
379.879	5.47
380.088	5.44
380.296	5.39
380.504	5.12
380.712	4.97
380.92	5.08
381.128	4.9
381.336	4.5
381.544	4.67
381.752	4.66
381.96	4.68
382.168	4.62
382.376	4.73
382.584	4.92
382.791	4.86
382.999	4.88
383.207	4.8
383.415	4.97
383.623	5.13
383.831	5.06
384.039	5.04
384.247	5.19
384.454	5.25
384.662	5.12
384.87	5.12
385.078	5.33
385.285	5.44
385.493	5.54
385.701	5.14
385.909	5.28
386.116	5.21
386.324	5.32
386.532	5.18
386.739	5.28
386.947	5.35
387.155	5.27
387.362	5.17
387.57	4.97
387.778	4.79
387.985	4.94
388.193	4.74
388.4	4.65
388.608	4.71
388.816	4.87
389.023	4.88
389.231	4.94
389.438	4.82
389.646	4.94
389.853	4.97
390.061	4.98
390.268	4.96
390.475	4.96
390.683	5.03
390.89	4.93
391.098	4.73
391.305	4.63
391.512	4.59
391.72	4.59
391.927	4.57
392.135	4.72
392.342	4.8
392.549	4.82
392.756	4.83
392.964	4.93
393.171	4.67
393.378	4.82
393.586	4.79
393.793	4.85
394	4.84
394.207	4.68
394.414	4.41
394.622	4.29
394.829	4.3
395.036	4.17
395.243	3.97
395.45	4.41
395.657	4.29
395.864	4.26
396.072	4.14
396.279	4.05
396.486	4.14
396.693	4.24
396.9	4.45
397.107	4.24
397.314	4.23
397.521	4.27
397.728	3.89
397.935	3.96
398.142	4.12
398.349	4.05
398.556	4.07
398.763	3.97
398.97	3.99
399.177	3.75
399.383	3.9
399.59	3.87
399.797	3.8
400.004	3.96
400.211	3.96
400.418	3.9
400.625	3.78
400.831	3.68
401.038	3.76
401.245	3.68
401.452	3.55
401.658	3.58
401.865	3.66
402.072	3.76
402.279	3.79
402.485	3.55
402.692	3.5
402.899	3.59
403.105	3.66
403.312	3.57
403.519	3.52
403.725	3.61
403.932	3.65
404.138	3.65
404.345	3.56
404.552	3.4
404.758	3.53
404.965	3.62
405.171	3.54
405.378	3.57
405.584	3.68
405.791	3.81
405.997	3.84
406.204	3.94
406.41	3.93
406.617	4.19
406.823	4.16
407.029	4.18
407.236	4.08
407.442	4.13
407.649	4.14
407.855	3.99
408.061	3.88
408.268	3.95
408.474	3.74
408.68	3.89
408.887	3.76
409.093	3.83
409.299	3.82
409.505	3.61
409.712	3.66
409.918	3.7
410.124	3.65
410.33	3.59
410.537	3.55
410.743	3.6
410.949	3.39
411.155	3.43
411.361	3.51
411.567	3.33
411.773	3.53
411.98	3.54
412.186	3.48
412.392	3.55
412.598	3.59
412.804	3.61
413.01	3.46
413.216	3.37
413.422	3.28
413.628	3.25
413.834	3.4
414.04	3.46
414.246	3.38
414.452	3.37
414.658	3.42
414.864	3.52
415.07	3.53
415.275	3.68
415.481	3.89
415.687	3.85
415.893	3.79
416.099	3.74
416.305	3.76
416.511	3.75
416.716	3.74
416.922	3.64
417.128	3.62
417.334	3.58
417.539	3.49
417.745	3.37
417.951	3.32
418.157	3.34
418.362	3.37
418.568	3.34
418.774	3.39
418.979	3.41
419.185	3.44
419.391	3.35
419.596	3.35
419.802	3.27
420.008	3.34
420.213	3.37
420.419	3.36
420.624	3.42
420.83	3.36
421.035	3.33
421.241	3.31
421.446	3.31
421.652	3.3
421.857	3.2
422.063	3.26
422.268	3.2
422.474	3.15
422.679	3.13
422.885	2.95
423.09	2.95
423.295	2.89
423.501	2.88
423.706	2.89
423.911	2.93
424.117	2.98
424.322	3.05
424.527	3.07
424.733	3.12
424.938	3.11
425.143	3.21
425.349	3.12
425.554	3.19
425.759	3.17
425.964	3.13
426.169	3.11
426.375	3.11
426.58	3.06
426.785	2.99
426.99	3.08
427.195	3.13
427.4	2.98
427.605	3.16
427.811	3.12
428.016	3.22
428.221	3.31
428.426	3.36
428.631	3.35
428.836	3.33
429.041	3.35
429.246	3.27
429.451	3.28
429.656	3.41
429.861	3.36
430.066	3.44
430.271	3.36
430.476	3.26
430.681	3.23
430.886	3.31
431.09	3.29
431.295	3.32
431.5	3.31
431.705	3.26
431.91	3.26
432.115	3.17
432.32	3.17
432.524	3.13
432.729	3.23
432.934	3.19
433.139	3.17
433.343	3.15
433.548	3.09
433.753	3.11
433.958	3.19
434.162	3.19
434.367	3.29
434.572	3.24
434.776	3.3
434.981	3.14
435.186	3.23
435.39	3.2
435.595	3.19
435.799	3.18
436.004	3.02
436.209	2.85
436.413	2.79
436.618	2.75
436.822	2.74
437.027	2.74
437.231	2.83
437.436	2.83
437.64	2.87
437.845	2.82
438.049	2.77
438.253	2.89
438.458	2.98
438.662	2.99
438.867	3.1
439.071	3.13
439.275	3.12
439.48	3.04
439.684	2.98
439.888	2.94
440.093	3.04
440.297	3.08
440.501	3.09
440.706	3.05
440.91	3.07
441.114	2.92
441.318	2.87
441.523	2.84
441.727	2.86
441.931	2.85
442.135	2.81
442.339	2.73
442.543	2.72
442.748	2.71
442.952	2.79
443.156	2.79
443.36	2.81
443.564	2.86
443.768	2.96
443.972	2.97
444.176	2.89
444.38	2.88
444.584	2.91
444.788	2.93
444.992	2.86
445.196	2.8
445.4	2.73
445.604	2.67
445.808	2.59
446.012	2.54
446.216	2.55
446.42	2.61
446.624	2.67
446.828	2.71
447.032	2.7
447.235	2.68
447.439	2.71
447.643	2.86
447.847	2.94
448.051	3.01
448.254	2.94
448.458	2.96
448.662	3.02
448.866	3.05
449.069	3.03
449.273	3.01
449.477	3.05
449.681	3.03
449.884	3.01
450.088	2.99
450.292	2.93
450.495	2.95
450.699	2.88
450.902	2.88
451.106	2.75
451.31	2.74
451.513	2.69
451.717	2.78
451.92	2.82
452.124	2.87
452.327	2.84
452.531	2.84
452.734	2.93
452.938	2.99
453.141	2.88
453.345	2.93
453.548	2.87
453.752	3.02
453.955	2.91
454.158	2.8
454.362	2.62
454.565	2.64
454.769	2.8
454.972	2.76
455.175	2.71
455.379	2.81
455.582	2.76
455.785	2.69
455.988	2.6
456.192	2.55
456.395	2.62
456.598	2.58
456.801	2.63
457.005	2.58
457.208	2.57
457.411	2.58
457.614	2.52
457.817	2.51
458.021	2.55
458.224	2.58
458.427	2.64
458.63	2.63
458.833	2.63
459.036	2.62
459.239	2.57
459.442	2.53
459.645	2.52
459.848	2.59
460.051	2.6
460.254	2.57
460.457	2.51
460.66	2.55
460.863	2.63
461.066	2.72
461.269	2.73
461.472	2.73
461.675	2.74
461.878	2.85
462.081	2.8
462.284	2.85
462.486	2.92
462.689	2.99
462.892	2.9
463.095	2.88
463.298	2.85
463.5	2.88
463.703	2.92
463.906	3.02
464.109	2.9
464.311	2.92
464.514	2.88
464.717	2.96
464.92	2.98
465.122	3.01
465.325	3.03
465.528	3.04
465.73	3.05
465.933	3.03
466.135	3.08
466.338	3.09
466.541	3.04
466.743	3.04
466.946	3
467.148	2.98
467.351	2.94
467.553	2.96
467.756	2.93
467.958	2.93
468.161	2.98
468.363	2.81
468.566	2.88
468.768	2.84
468.971	2.93
469.173	2.91
469.375	2.93
469.578	2.86
469.78	2.8
469.983	2.82
470.185	2.72
470.387	2.71
470.59	2.87
470.792	2.86
470.994	2.96
471.196	2.91
471.399	2.9
471.601	2.83
471.803	3.01
472.005	3
472.208	2.94
472.41	3.02
472.612	2.96
472.814	2.94
473.016	2.98
473.218	2.96
473.421	2.93
473.623	2.97
473.825	2.93
474.027	2.78
474.229	2.75
474.431	2.88
474.633	2.84
474.835	2.89
475.037	2.81
475.239	2.77
475.441	2.74
475.643	2.86
475.845	2.83
476.047	2.86
476.249	2.92
476.451	2.92
476.653	2.8
476.855	2.84
477.057	2.81
477.258	2.89
477.46	2.89
477.662	3
477.864	2.85
478.066	2.85
478.268	2.96
478.469	2.95
478.671	2.97
478.873	3.05
479.075	2.98
479.276	3.01
479.478	2.92
479.68	2.83
479.882	2.71
480.083	2.78
480.285	2.78
480.487	2.72
480.688	2.77
480.89	2.8
481.091	2.71
481.293	2.65
481.495	2.64
481.696	2.66
481.898	2.63
482.099	2.62
482.301	2.62
482.502	2.61
482.704	2.59
482.905	2.54
483.107	2.51
483.308	2.53
483.51	2.57
483.711	2.55
483.913	2.54
484.114	2.58
484.315	2.6
484.517	2.61
484.718	2.58
484.92	2.63
485.121	2.66
485.322	2.67
485.524	2.68
485.725	2.65
485.926	2.65
486.127	2.67
486.329	2.66
486.53	2.65
486.731	2.64
486.932	2.68
487.134	2.68
487.335	2.67
487.536	2.66
487.737	2.65
487.938	2.69
488.139	2.7
488.341	2.67
488.542	2.69
488.743	2.69
488.944	2.65
489.145	2.59
489.346	2.54
489.547	2.55
489.748	2.58
489.949	2.58
490.15	2.58
490.351	2.58
490.552	2.6
490.753	2.59
490.954	2.63
491.155	2.68
491.356	2.73
491.557	2.74
491.758	2.76
491.959	2.78
492.159	2.81
492.36	2.81
492.561	2.91
492.762	2.92
492.963	2.9
493.164	2.86
493.364	2.83
493.565	2.88
493.766	2.95
493.967	2.96
494.167	2.91
494.368	2.94
494.569	2.95
494.769	2.82
494.97	2.91
495.171	2.95
495.371	2.95
495.572	2.91
495.773	2.95
495.973	2.87
496.174	2.92
496.375	2.98
496.575	2.92
496.776	2.88
496.976	2.98
497.177	2.96
497.377	2.96
497.578	3.03
497.778	3.04
497.979	2.95
498.179	3.09
498.38	3.11
498.58	3.05
498.78	3.14
498.981	3.25
499.181	3.32
499.382	3.36
499.582	3.35
499.782	3.31
499.983	3.38
500.183	3.52
500.383	3.48
500.584	3.47
500.784	3.55
500.984	3.56
501.184	3.55
501.385	3.45
501.585	3.38
501.785	3.48
501.985	3.53
502.185	3.52
502.386	3.47
502.586	3.43
502.786	3.42
502.986	3.46
503.186	3.44
503.386	3.43
503.586	3.47
503.786	3.59
503.987	3.61
504.187	3.64
504.387	3.68
504.587	3.75
504.787	3.77
504.987	3.81
505.187	3.85
505.387	3.85
505.587	3.95
505.786	3.93
505.986	3.9
506.186	3.91
506.386	3.98
506.586	3.99
506.786	3.99
506.986	4.09
507.186	4.08
507.386	4.1
507.585	4.17
507.785	4.19
507.985	4.27
508.185	4.29
508.384	4.31
508.584	4.3
508.784	4.36
508.984	4.38
509.183	4.4
509.383	4.5
509.583	4.54
509.782	4.62
509.982	4.59
510.182	4.64
510.381	4.64
510.581	4.66
510.781	4.7
510.98	4.68
511.18	4.77
511.379	4.77
511.579	4.81
511.778	4.83
511.978	4.83
512.177	4.81
512.377	4.79
512.576	4.83
512.776	4.94
512.975	5
513.175	4.99
513.374	5.02
513.573	5.15
513.773	5.15
513.972	5.19
514.172	5.28
514.371	5.42
514.57	5.54
514.77	5.54
514.969	5.53
515.168	5.56
515.367	5.59
515.567	5.59
515.766	5.61
515.965	5.58
516.164	5.56
516.364	5.53
516.563	5.54
516.762	5.57
516.961	5.63
517.16	5.67
517.359	5.65
517.559	5.77
517.758	5.82
517.957	5.82
518.156	5.84
518.355	5.92
518.554	6.03
518.753	6.12
518.952	6.18
519.151	6.16
519.35	6.17
519.549	6.24
519.748	6.19
519.947	6.24
520.146	6.27
520.345	6.39
520.544	6.36
520.743	6.32
520.942	6.31
521.141	6.3
521.339	6.43
521.538	6.5
521.737	6.57
521.936	6.68
522.135	6.71
522.333	6.76
522.532	6.74
522.731	6.77
522.93	6.78
523.129	6.76
523.327	6.75
523.526	6.75
523.725	6.81
523.923	6.84
524.122	6.82
524.321	6.83
524.519	6.85
524.718	6.9
524.917	6.94
525.115	6.99
525.314	7
525.512	7.07
525.711	7.06
525.909	7.05
526.108	7.07
526.306	7.09
526.505	7.12
526.703	7.17
526.902	7.19
527.1	7.2
527.299	7.24
527.497	7.29
527.696	7.35
527.894	7.43
528.092	7.47
528.291	7.5
528.489	7.57
528.688	7.59
528.886	7.62
529.084	7.68
529.283	7.74
529.481	7.79
529.679	7.81
529.877	7.81
530.076	7.8
530.274	7.84
530.472	7.85
530.67	7.9
530.869	7.95
531.067	7.97
531.265	7.94
531.463	7.99
531.661	8
531.859	8.05
532.057	8.05
532.255	8.12
532.454	8.13
532.652	8.15
532.85	8.19
533.048	8.2
533.246	8.23
533.444	8.29
533.642	8.29
533.84	8.33
534.038	8.36
534.236	8.4
534.434	8.39
534.632	8.38
534.83	8.44
535.027	8.45
535.225	8.47
535.423	8.54
535.621	8.6
535.819	8.65
536.017	8.68
536.215	8.73
536.412	8.77
536.61	8.79
536.808	8.91
537.006	8.9
537.203	8.9
537.401	8.97
537.599	8.96
537.797	9
537.994	9.07
538.192	9.06
538.39	9.07
538.587	9.08
538.785	9.09
538.983	9.05
539.18	9.11
539.378	9.13
539.575	9.14
539.773	9.14
539.97	9.11
540.168	9.11
540.366	9.16
540.563	9.22
540.761	9.28
540.958	9.34
541.155	9.41
541.353	9.42
541.55	9.44
541.748	9.49
541.945	9.52
542.143	9.53
542.34	9.56
542.537	9.55
542.735	9.52
542.932	9.5
543.129	9.52
543.327	9.51
543.524	9.55
543.721	9.54
543.919	9.62
544.116	9.73
544.313	9.88
544.51	9.84
544.708	9.86
544.905	9.91
545.102	9.97
545.299	9.96
545.496	9.96
545.693	9.99
545.891	10.09
546.088	10.06
546.285	10.1
546.482	10.09
546.679	10.15
546.876	10.23
547.073	10.33
547.27	10.35
547.467	10.46
547.664	10.54
547.861	10.58
548.058	10.65
548.255	10.7
548.452	10.65
548.649	10.76
548.846	10.91
549.043	10.91
549.24	10.84
549.437	10.87
549.633	10.83
549.83	10.92
550.027	10.87
550.224	10.79
550.421	10.78
550.618	10.75
550.814	10.65
551.011	10.61
551.208	10.62
551.405	10.62
551.601	10.66
551.798	10.73
551.995	10.68
552.191	10.78
552.388	10.83
552.585	10.78
552.781	10.81
552.978	10.9
553.175	10.95
553.371	11
553.568	11.03
553.764	11.11
553.961	11.08
554.157	11.14
554.354	11.21
554.55	11.34
554.747	11.51
554.943	11.62
555.14	11.57
555.336	11.6
555.533	11.67
555.729	11.75
555.926	11.63
556.122	11.79
556.318	11.82
556.515	11.78
556.711	11.71
556.907	11.76
557.104	11.77
557.3	11.78
557.496	11.81
557.693	11.79
557.889	11.87
558.085	11.94
558.281	11.91
558.478	11.93
558.674	11.93
558.87	12.07
559.066	12.06
559.262	12.02
559.459	12.06
559.655	12.06
559.851	12.17
560.047	12.15
560.243	12.25
560.439	12.33
560.635	12.41
560.831	12.54
561.027	12.56
561.223	12.5
561.419	12.51
561.615	12.58
561.811	12.67
562.007	12.64
562.203	12.73
562.399	12.69
562.595	12.57
562.791	12.54
562.987	12.55
563.183	12.55
563.379	12.71
563.575	12.75
563.771	12.79
563.966	12.85
564.162	12.86
564.358	12.9
564.554	12.97
564.75	13.06
564.945	13.04
565.141	13.01
565.337	12.99
565.533	13
565.728	13.08
565.924	13.14
566.12	13.15
566.315	13.22
566.511	13.26
566.707	13.32
566.902	13.35
567.098	13.39
567.293	13.54
567.489	13.5
567.684	13.49
567.88	13.48
568.076	13.45
568.271	13.39
568.467	13.32
568.662	13.26
568.858	13.23
569.053	13.26
569.248	13.33
569.444	13.32
569.639	13.34
569.835	13.37
570.03	13.44
570.225	13.51
570.421	13.67
570.616	13.74
570.812	13.81
571.007	13.83
571.202	13.9
571.397	14
571.593	13.94
571.788	14.02
571.983	14.05
572.178	14.21
572.374	14.13
572.569	14.06
572.764	14.12
572.959	14.11
573.154	14.11
573.35	14.04
573.545	13.97
573.74	14.06
573.935	14.11
574.13	14.12
574.325	14.01
574.52	14.15
574.715	14.25
574.91	14.17
575.105	14.25
575.3	14.31
575.495	14.51
575.69	14.51
575.885	14.51
576.08	14.54
576.275	14.55
576.47	14.59
576.665	14.68
576.86	14.65
577.055	14.68
577.25	14.64
577.444	14.63
577.639	14.54
577.834	14.65
578.029	14.67
578.224	14.63
578.418	14.66
578.613	14.77
578.808	14.8
579.003	14.82
579.197	14.94
579.392	14.98
579.587	15.15
579.781	15.28
579.976	15.28
580.171	15.3
580.365	15.35
580.56	15.45
580.755	15.46
580.949	15.5
581.144	15.5
581.338	15.46
581.533	15.54
581.727	15.46
581.922	15.29
582.116	15.48
582.311	15.59
582.505	15.61
582.7	15.48
582.894	15.48
583.089	15.4
583.283	15.54
583.478	15.68
583.672	15.69
583.866	15.65
584.061	15.71
584.255	15.58
584.449	15.56
584.644	15.69
584.838	15.63
585.032	15.64
585.226	15.68
585.421	15.74
585.615	15.76
585.809	15.78
586.003	15.83
586.198	15.91
586.392	15.92
586.586	15.86
586.78	15.83
586.974	16.05
587.168	16
587.363	16
587.557	15.92
587.751	15.88
587.945	15.86
588.139	15.9
588.333	15.92
588.527	15.99
588.721	16.12
588.915	16.13
589.109	16.21
589.303	16.2
589.497	16.21
589.691	16.27
589.885	16.29
590.079	16.27
590.273	16.26
590.466	16.25
590.66	16.23
590.854	16.24
591.048	16.2
591.242	16.05
591.436	16.1
591.629	16.23
591.823	16.13
592.017	16.11
592.211	16.08
592.404	16.21
592.598	16.29
592.792	16.31
592.986	16.27
593.179	16.35
593.373	16.41
593.567	16.35
593.76	16.25
593.954	16.25
594.147	16.37
594.341	16.54
594.535	16.45
594.728	16.37
594.922	16.33
595.115	16.36
595.309	16.37
595.502	16.36
595.696	16.5
595.889	16.47
596.083	16.56
596.276	16.45
596.47	16.48
596.663	16.51
596.856	16.48
597.05	16.64
597.243	16.66
597.437	16.76
597.63	16.83
597.823	16.79
598.017	16.95
598.21	17.09
598.403	17.25
598.596	17.04
598.79	17.07
598.983	17.11
599.176	17
599.369	17.05
599.563	16.93
599.756	17.01
599.949	17.11
600.142	17
600.335	16.99
600.528	17.05
600.722	17.39
600.915	17.37
601.108	17.51
601.301	17.58
601.494	17.52
601.687	17.47
601.88	17.45
602.073	17.39
602.266	17.55
602.459	17.41
602.652	17.37
602.845	17.27
603.038	17.48
603.231	17.37
603.424	17.45
603.617	17.47
603.809	17.54
604.002	17.51
604.195	17.6
604.388	17.52
604.581	17.54
604.774	17.55
604.966	17.37
605.159	17.17
605.352	17.22
605.545	17.17
605.737	17.2
605.93	17.25
606.123	17.28
606.316	17.23
606.508	17.27
606.701	17.38
606.894	17.32
607.086	17.6
607.279	17.64
607.471	17.79
607.664	17.72
607.857	17.71
608.049	17.75
608.242	17.85
608.434	17.65
608.627	17.62
608.819	17.49
609.012	17.66
609.204	17.64
609.397	17.57
609.589	17.48
609.782	17.51
609.974	17.6
610.166	17.58
610.359	17.5
610.551	17.88
610.743	17.95
610.936	18.06
611.128	17.91
611.32	17.92
611.513	18.16
611.705	18.06
611.897	18.12
612.09	18.09
612.282	18.2
612.474	18.24
612.666	18.07
612.858	18.22
613.051	18.34
613.243	18.32
613.435	18.36
613.627	18.4
613.819	18.59
614.011	18.77
614.203	18.86
614.395	18.85
614.588	18.88
614.78	18.96
614.972	18.96
615.164	19.05
615.356	19.09
615.548	19.06
615.74	19.04
615.932	19.01
616.124	18.87
616.315	18.85
616.507	18.79
616.699	18.78
616.891	18.84
617.083	18.87
617.275	18.9
617.467	19.11
617.659	19.25
617.85	19.26
618.042	19.4
618.234	19.54
618.426	19.45
618.618	19.62
618.809	19.67
619.001	19.64
619.193	19.62
619.384	19.5
619.576	19.39
619.768	19.24
619.959	19.1
620.151	19.1
620.343	19.04
620.534	19.01
620.726	18.82
620.917	18.79
621.109	18.7
621.301	18.83
621.492	18.93
621.684	18.73
621.875	18.81
622.067	18.88
622.258	18.68
622.45	18.7
622.641	18.77
622.832	18.85
623.024	18.67
623.215	18.85
623.407	18.7
623.598	18.8
623.789	18.98
623.981	18.78
624.172	18.87
624.363	19.02
624.555	19.05
624.746	19.01
624.937	18.97
625.129	19.23
625.32	19.17
625.511	19.03
625.702	18.91
625.893	19.01
626.085	19.23
626.276	19.15
626.467	19.19
626.658	19.05
626.849	19.14
627.04	19.27
627.231	19.29
627.422	19.25
627.614	19.3
627.805	19.29
627.996	19.18
628.187	19.02
628.378	18.94
628.569	18.85
628.76	18.91
628.951	18.99
629.142	18.75
629.332	18.72
629.523	18.73
629.714	18.74
629.905	18.86
630.096	18.88
630.287	19.04
630.478	19.29
630.669	19.42
630.859	19.54
631.05	19.56
631.241	19.72
631.432	19.62
631.623	19.65
631.813	19.71
632.004	19.52
632.195	19.58
632.385	19.77
632.576	19.7
632.767	19.61
632.957	19.69
633.148	19.64
633.339	19.66
633.529	19.8
633.72	19.76
633.91	19.83
634.101	19.94
634.292	20.05
634.482	19.92
634.673	19.91
634.863	19.86
635.054	19.78
635.244	19.7
635.435	19.71
635.625	19.46
635.815	19.57
636.006	19.54
636.196	19.56
636.387	19.57
636.577	19.55
636.767	19.84
636.958	19.96
637.148	19.98
637.338	20.07
637.529	20.18
637.719	20.49
637.909	20.55
638.099	20.66
638.29	20.79
638.48	20.88
638.67	20.77
638.86	20.76
639.05	20.93
639.241	21.09
639.431	21.02
639.621	20.91
639.811	20.73
640.001	20.84
640.191	20.79
640.381	20.74
640.571	20.52
640.761	20.72
640.951	20.33
641.141	20.22
641.331	19.98
641.521	20.05
641.711	20.05
641.901	20.06
642.091	20.01
642.281	19.85
642.471	19.72
642.661	19.68
642.851	19.78
643.041	19.75
643.231	19.64
643.42	19.64
643.61	19.68
643.8	19.79
643.99	19.83
644.18	20
644.369	20.21
644.559	20.5
644.749	20.76
644.939	20.4
645.128	20.41
645.318	20.54
645.508	20.61
645.697	20.79
645.887	20.82
646.076	20.83
646.266	20.65
646.456	20.56
646.645	20.65
646.835	20.57
647.024	20.84
647.214	20.91
647.403	20.76
647.593	20.9
647.782	20.96
647.972	20.95
648.161	21.1
648.351	20.83
648.54	20.87
648.73	20.65
648.919	20.65
649.108	20.48
649.298	20.68
649.487	20.78
649.677	20.66
649.866	20.4
650.055	20.55
650.244	20.63
650.434	20.86
650.623	20.87
650.812	20.88
651.002	20.79
651.191	20.99
651.38	20.88
651.569	20.98
651.758	21.08
651.947	21.11
652.137	20.91
652.326	20.72
652.515	20.76
652.704	20.71
652.893	20.8
653.082	20.8
653.271	20.89
653.46	20.89
653.649	20.85
653.838	20.71
654.027	20.89
654.216	20.85
654.405	20.89
654.594	20.77
654.783	21.08
654.972	20.92
655.161	20.89
655.35	20.89
655.539	20.99
655.728	20.9
655.916	21.07
656.105	20.95
656.294	20.99
656.483	21.06
656.672	21.19
656.86	20.94
657.049	21.03
657.238	21.11
657.427	20.89
657.615	21.01
657.804	21.13
657.993	21.11
658.181	21.25
658.37	21.27
658.559	21.21
658.747	21.19
658.936	21.41
659.125	21.59
659.313	21.72
659.502	21.97
659.69	21.83
659.879	22.11
660.067	22.13
660.256	22.13
660.444	22.27
660.633	22.42
660.821	22.64
661.01	22.44
661.198	22.12
661.387	21.85
661.575	21.74
661.763	21.9
661.952	21.44
662.14	21.45
662.328	21.43
662.517	21.36
662.705	21.07
662.893	20.88
663.082	21.07
663.27	21.23
663.458	21.65
663.646	21.57
663.834	21.62
664.023	21.98
664.211	22.06
664.399	22.08
664.587	21.99
664.775	22.23
664.963	22.3
665.152	22.27
665.34	22.38
665.528	22.11
665.716	22.24
665.904	22.24
666.092	21.95
666.28	21.84
666.468	21.74
666.656	21.93
666.844	22.16
667.032	22.16
667.22	22.21
667.408	22.39
667.596	22.63
667.784	22.8
667.971	22.94
668.159	23.09
668.347	23.23
668.535	23.29
668.723	23.37
668.911	23.31
669.098	23.43
669.286	23.57
669.474	23.54
669.662	23.35
669.849	23.39
670.037	23.04
670.225	22.82
670.413	22.52
670.6	22.53
670.788	22.51
670.976	22.46
671.163	22.3
671.351	22.37
671.538	22.01
671.726	22.05
671.913	21.78
672.101	22.07
672.289	22.13
672.476	22.11
672.664	22.11
672.851	22.05
673.039	22.12
673.226	22.39
673.413	21.96
673.601	22.21
673.788	22.36
673.976	22.5
674.163	22.03
674.35	22.13
674.538	22.5
674.725	22.77
674.912	22.67
675.1	22.61
675.287	22.57
675.474	22.84
675.662	23.02
675.849	22.98
676.036	22.88
676.223	23.42
676.411	23.31
676.598	23.23
676.785	23.2
676.972	23.18
677.159	23.39
677.346	23.37
677.533	23.3
677.721	23.25
677.908	23.29
678.095	23.49
678.282	23.44
678.469	23.64
678.656	23.68
678.843	23.5
679.03	23.4
679.217	23.51
679.404	23.54
679.591	23.68
679.778	23.8
679.964	23.69
680.151	23.64
680.338	23.43
680.525	23.31
680.712	23.34
680.899	23.47
681.086	23.91
681.272	23.75
681.459	23.8
681.646	23.76
681.833	23.71
682.02	23.91
682.206	23.95
682.393	24.25
682.58	24.55
682.766	24.52
682.953	24.43
683.14	24.43
683.326	24.67
683.513	24.59
683.7	24.47
683.886	24.13
684.073	24.25
684.259	24.05
684.446	23.85
684.632	23.88
684.819	24.04
685.005	24.18
685.192	23.76
685.378	23.29
685.565	23.36
685.751	23.42
685.938	23.72
686.124	23.55
686.31	23.56
686.497	23.84
686.683	23.57
686.87	23.39
687.056	23.5
687.242	23.56
687.429	23.61
687.615	23.69
687.801	23.62
687.987	23.42
688.174	23.6
688.36	23.68
688.546	23.75
688.732	23.84
688.918	24.05
689.105	23.87
689.291	24.15
689.477	24.25
689.663	24.39
689.849	24.51
690.035	24.67
690.221	24.56
690.407	24.64
690.593	24.44
690.779	24.54
690.965	24.66
691.151	24.57
691.337	24.54
691.523	24.57
691.709	24.18
691.895	24.12
692.081	24.29
692.267	24.36
692.453	24.53
692.639	24.45
692.825	24.44
693.011	23.98
693.196	24.05
693.382	23.99
693.568	24.09
693.754	24.26
693.94	24.47
694.125	24.05
694.311	23.92
694.497	23.79
694.682	24.09
694.868	24.28
695.054	24.37
695.239	24.57
695.425	24.68
695.611	24.79
695.796	24.86
695.982	24.86
696.168	25.07
696.353	25
696.539	25.15
696.724	25.21
696.91	25.09
697.095	25.31
697.281	25.33
697.466	25.31
697.652	25.36
697.837	25.15
698.023	25.24
698.208	25.38
698.393	25.46
698.579	25.41
698.764	25.16
698.949	25.17
699.135	25.02
699.32	24.88
699.505	24.78
699.691	24.66
699.876	24.7
700.061	24.7
700.246	24.46
700.432	24.47
700.617	24.41
700.802	24.79
700.987	24.88
701.172	25.33
701.358	25.48
701.543	25.5
701.728	25.66
701.913	25.91
702.098	25.93
702.283	26.02
702.468	26.04
702.653	26.01
702.838	25.79
703.023	25.8
703.208	25.3
703.393	25.25
703.578	25.56
703.763	25.41
703.948	25.15
704.133	25.16
704.318	25.28
704.503	25.37
704.688	25.35
704.873	25.55
705.057	25.52
705.242	25.56
705.427	25.64
705.612	25.51
705.797	25.58
705.981	26.16
706.166	26.09
706.351	25.98
706.536	26.26
706.72	26.35
706.905	26.21
707.09	26.27
707.274	26.1
707.459	25.98
707.644	26.09
707.828	26.06
708.013	25.72
708.197	25.83
708.382	25.72
708.567	25.42
708.751	25.23
708.936	24.9
709.12	25.01
709.305	25.47
709.489	25.78
709.673	25.61
709.858	25.78
710.042	26.04
710.227	25.82
710.411	26.07
710.596	25.93
710.78	26.02
710.964	26.44
711.149	26.41
711.333	26.27
711.517	26.12
711.702	26.15
711.886	26.1
712.07	25.96
712.254	26.15
712.438	26.01
712.623	26.13
712.807	25.94
712.991	26.07
713.175	25.99
713.359	25.98
713.544	26.01
713.728	26.18
713.912	26.24
714.096	26.01
714.28	25.75
714.464	25.81
714.648	26.12
714.832	26.48
715.016	26.29
715.2	26.25
715.384	26.35
715.568	26.44
715.752	26.32
715.936	26.12
716.12	26.4
716.304	26.87
716.488	26.88
716.671	26.78
716.855	26.93
717.039	26.77
717.223	26.7
717.407	26.74
717.59	26.64
717.774	26.5
717.958	26.52
718.142	26.21
718.325	25.87
718.509	25.67
718.693	25.95
718.877	25.9
719.06	26.17
719.244	26.83
719.428	26.77
719.611	27.26
719.795	27.55
719.978	28.08
720.162	28.73
720.345	29.15
720.529	29.49
720.713	29.14
720.896	29.11
721.08	29.45
721.263	28.95
721.446	29.12
721.63	28.27
721.813	28.42
721.997	27.9
722.18	27.61
722.364	27.15
722.547	27.23
722.73	27.01
722.914	27.19
723.097	26.67
723.28	26.85
723.464	26.28
723.647	26.67
723.83	26.73
724.013	26.3
724.197	26.13
724.38	26.66
724.563	27.01
724.746	27
724.929	26.66
725.112	26.9
725.296	27.19
725.479	27.4
725.662	27.6
725.845	27.3
726.028	27.58
726.211	27.6
726.394	27.32
726.577	26.94
726.76	27.12
726.943	27.13
727.126	26.78
727.309	26.66
727.492	26.9
727.675	26.58
727.858	26.43
728.041	26.94
728.224	27.32
728.407	27.33
728.589	27.38
728.772	27.24
728.955	27.12
729.138	27.25
729.321	26.87
729.503	27.25
729.686	27.03
729.869	27.02
730.052	26.64
730.234	26.48
730.417	26.23
730.6	26.35
730.782	26.57
730.965	27
731.148	27.54
731.33	27.86
731.513	27.33
731.695	28.07
731.878	28.39
732.061	28.31
732.243	28.01
732.426	27.94
732.608	27.94
732.791	28.05
732.973	27.88
733.156	27.47
733.338	27.68
733.52	27.7
733.703	27.33
733.885	27.85
734.068	28.3
734.25	28.18
734.432	28.69
734.615	28.42
734.797	28.42
734.979	28.27
735.162	27.96
735.344	27.78
735.526	28.11
735.708	28.2
735.891	27.65
736.073	27.6
736.255	28.28
736.437	27.84
736.619	27.9
736.802	28.18
736.984	28.36
737.166	28.92
737.348	28.31
737.53	28.44
737.712	28.18
737.894	28.03
738.076	28.06
738.258	27.66
738.44	27.84
738.622	28.03
738.804	27.89
738.986	28.17
739.168	28.16
739.35	28.78
739.532	28.6
739.714	29
739.896	29.36
740.078	29.29
740.259	29.11
740.441	29.08
740.623	29.12
740.805	28.86
740.987	29.15
741.168	29.18
741.35	28.89
741.532	28.62
741.714	28.61
741.895	28.79
742.077	28.45
742.259	29.01
742.44	29.04
742.622	29.09
742.804	29.03
742.985	28.59
743.167	28.14
743.348	28.52
743.53	28.57
743.711	28.15
743.893	27.52
744.075	27.84
744.256	28.06
744.438	28.49
744.619	28.43
744.8	28.71
744.982	28.64
745.163	29.03
745.345	29.22
745.526	30.02
745.707	30.15
745.889	30.67
746.07	30.19
746.252	29.81
746.433	29.88
746.614	30.42
746.795	30.47
746.977	30.83
747.158	30.11
747.339	29.88
747.52	29.52
747.702	30.08
747.883	29.94
748.064	30.49
748.245	30.55
748.426	29.9
748.607	29.3
748.788	28.82
748.97	29.05
749.151	29.72
749.332	29.94
749.513	30.24
749.694	29.62
749.875	29.33
750.056	28.89
750.237	28.54
750.418	28.64
750.599	28.58
750.78	28.57
750.96	27.89
751.141	27.9
751.322	26.99
751.503	26.46
751.684	26.82
751.865	26.26
752.046	26.53
752.226	27.24
752.407	27.07
752.588	27.27
752.769	27.71
752.949	27.61
753.13	28.17
753.311	28.72
753.492	28.77
753.672	28.47
753.853	29.24
754.034	29.76
754.214	29.85
754.395	30.43
754.575	30.61
754.756	30.25
754.937	30.36
755.117	29.64
755.298	29.49
755.478	29.32
755.659	29.61
755.839	29.28
756.02	28.72
756.2	28.06
756.381	27.95
756.561	27.53
756.741	28.09
756.922	28.44
757.102	28.48
757.283	28.82
757.463	28.72
757.643	28.71
757.823	29.69
758.004	30.44
758.184	30.78
758.364	31.22
758.545	31.29
758.725	31.04
758.905	30.68
759.085	31.42
759.265	31.22
759.446	31.56
759.626	31.75
759.806	30.71
759.986	30.08
760.166	29.74
760.346	28.94
760.526	29.34
760.706	29.7
760.886	29.87
761.066	29.56
761.246	29.87
761.426	29.6
761.606	28.96
761.786	29.65
761.966	29.64
762.146	29.65
762.326	29.9
762.506	29.69
762.686	29.58
762.866	29.62
763.046	29.22
763.225	28.97
763.405	29.19
763.585	29.63
763.765	29.25
763.945	29.15
764.124	29.42
764.304	29.48
764.484	29.57
764.664	29.56
764.843	29.33
765.023	29.41
765.203	29.51
765.382	29.12
765.562	29.18
765.741	29.41
765.921	29.28
766.101	29.53
766.28	29.48
766.46	28.74
766.639	28.61
766.819	28.46
766.998	28.83
767.178	28.68
767.357	29.1
767.537	29.05
767.716	28.82
767.896	29.04
768.075	28.79
768.254	28.66
768.434	29.98
768.613	31.05
768.792	31.61
768.972	32
769.151	31.92
769.33	32.17
769.51	32.73
769.689	32.95
769.868	33.06
770.047	32.53
770.226	32.85
770.406	32.53
770.585	31.93
770.764	32.35
770.943	31.68
771.122	31.38
771.301	31.41
771.48	31.26
771.66	30.9
771.839	31.37
772.018	31.55
772.197	31.59
772.376	31.29
772.555	31.63
772.734	31.89
772.913	32.14
773.092	32.81
773.271	31.28
773.449	30.92
773.628	31.68
773.807	30.77
773.986	31.16
774.165	32.04
774.344	33.1
774.523	32.14
774.701	31.43
774.88	31.7
775.059	31.39
775.238	33.18
775.417	33.18
775.595	33.74
775.774	33.62
775.953	33.41
776.131	32.49
776.31	31
776.489	31.56
776.667	31.62
776.846	31.13
777.025	31.89
777.203	31.15
777.382	30.79
777.56	30.14
777.739	30.69
777.917	30.93
778.096	31.04
778.274	31.3
778.453	30.98
778.631	31.12
778.81	31.65
778.988	31.82
779.166	32.3
779.345	32.29
779.523	31.92
779.702	32.69
779.88	31.86
780.058	31.44
780.237	31.79
780.415	31.64
780.593	31.77
780.771	31.37
780.95	31.25
781.128	31.15
781.306	31.9
781.484	32.1
781.662	32.22
781.841	32.38
782.019	32.71
782.197	31.81
782.375	31.98
782.553	31.95
782.731	32.33
782.909	32.22
783.087	31.7
783.265	30.7
783.443	29.73
783.621	29.93
783.799	29.68
783.977	30.41
784.155	31.49
784.333	31.4
784.511	31.45
784.689	31.03
784.867	30.33
785.045	30.33
785.223	31.47
785.4	32.65
785.578	31.36
785.756	32.24
785.934	30.48
786.112	29.33
786.289	30.22
786.467	29.29
786.645	30.29
786.823	30.7
787	31.26
787.178	30.96
787.356	31.23
787.533	31.02
787.711	31.46
787.889	32.56
788.066	33.46
788.244	32.57
788.421	33.17
788.599	32.45
788.776	32.75
788.954	33.49
789.131	32.81
789.309	32.57
789.486	33.65
789.664	33.31
789.841	33.05
790.019	32.76
790.196	33.64
790.373	34.03
790.551	34.83
790.728	34.56
790.906	33.56
791.083	33.3
791.26	33.25
791.437	33.96
791.615	33.24
791.792	33.15
791.969	33.6
792.146	33.48
792.324	32.57
792.501	32.5
792.678	32.42
792.855	32.51
793.032	34.4
793.209	34.19
793.387	33.12
793.564	34.16
793.741	34.04
793.918	34.1
794.095	33.83
794.272	34.76
794.449	34.2
794.626	34.48
794.803	34.8
794.98	33.75
795.157	33.42
795.334	33.2
795.511	32.59
795.688	32.32
795.864	32.1
796.041	31.64
796.218	31.52
796.395	31.79
796.572	31.39
796.749	31.08
796.925	30.95
797.102	32.49
797.279	32.21
797.456	31.92
797.632	32.78
797.809	33.38
797.986	33.81
798.162	32.91
798.339	32.03
798.516	31.96
798.692	32.49
798.869	32.58
799.046	31.65
799.222	32.04
799.399	33.02
799.575	32.86
799.752	32.97
799.928	31.91
800.105	33.21
800.281	34.31
800.458	34.52
800.634	33.7
800.811	34.26
800.987	34.55
801.163	35.34
801.34	35.01
801.516	35.37
801.692	34.56
801.869	35.37
802.045	35.16
802.221	34.88
802.398	35
802.574	35.41
802.75	35.32
802.926	34.69
803.103	34.59
803.279	34.5
803.455	33.97
803.631	35.02
803.807	35.14
803.983	34.66
804.16	34.57
804.336	34.57
804.512	35.43
804.688	35.22
804.864	35.44
805.04	35.12
805.216	34.61
805.392	34.59
805.568	34.72
805.744	34.98
805.92	34.79
806.096	34.62
806.272	34.76
806.448	34.79
806.623	34.65
806.799	35.72
806.975	35.36
807.151	36.51
807.327	36.29
807.503	36.29
807.678	36.39
807.854	36.97
808.03	37.06
808.206	36.26
808.381	34.54
808.557	34.67
808.733	33.62
808.908	33.77
809.084	33.59
809.26	33.55
809.435	32.98
809.611	32.92
809.787	32.59
809.962	32.27
810.138	33.61
810.313	34.64
810.489	36.07
810.664	36.38
810.84	35.75
811.015	35.9
811.191	36.3
811.366	36.63
811.542	35.99
811.717	35.97
811.892	36.41
812.068	35.85
812.243	35.16
812.419	33.4
812.594	33.77
812.769	35.22
812.944	35.04
813.12	35.62
813.295	34.86
813.47	34.38
813.645	34.11
813.821	34.02
813.996	34.16
814.171	34.59
814.346	34.44
814.521	33.42
814.697	32.79
814.872	32.39
815.047	32.26
815.222	31.75
815.397	33.08
815.572	34.09
815.747	35.15
815.922	34.98
816.097	35.68
816.272	35.2
816.447	36.61
816.622	36.32
816.797	37.44
816.972	37.11
817.147	37.84
817.322	37.09
817.496	36.43
817.671	35.99
817.846	35.42
818.021	35.15
818.196	36.33
818.371	34.69
818.545	34.54
818.72	34.47
818.895	35.18
819.069	34.59
819.244	35.01
819.419	34.76
819.594	33.85
819.768	34.12
819.943	33.57
820.117	33.39
820.292	33.36
820.467	32.79
820.641	32.05
820.816	31.63
820.99	31.48
821.165	31.17
821.339	31.06
821.514	30.92
821.688	30.87
821.863	30.62
822.037	30.42
822.212	30.7
822.386	30.83
822.56	30.83
822.735	30.78
822.909	30.95
823.084	30.95
823.258	30.9
823.432	30.96
823.606	30.78
823.781	30.99
823.955	31.28
824.129	30.75
824.303	31.16
824.478	31.05
824.652	31.19
824.826	31.08
825	31.35
825.174	31.5
825.348	31.69
825.523	32
825.697	32.1
825.871	31.73
826.045	31.97
826.219	31.48
826.393	31.55
826.567	31.43
826.741	31.47
826.915	31.26
827.089	31.36
827.263	31.45
827.437	31.52
827.611	31.7
827.784	31.98
827.958	32.04
828.132	32.92
828.306	33.44
828.48	34.04
828.654	33.81
828.827	33.97
829.001	33.85
829.175	33.99
829.349	34.45
829.522	34.74
829.696	34.54
829.87	34.89
830.044	33.45
830.217	33.16
830.391	32.69
830.565	34.01
830.738	34
830.912	34.4
831.085	34.91
831.259	34.82
831.432	34.47
831.606	34.54
831.779	33.17
831.953	33.8
832.126	33.73
832.3	32.27
832.473	31.66
832.647	31.82
832.82	32.27
832.994	31.81
833.167	32.06
833.34	32.53
833.514	33.14
833.687	33.49
833.86	33
834.034	33.18
834.207	34.39
834.38	34.49
834.553	34.31
834.727	33.66
834.9	33.68
835.073	33.35
835.246	32.65
835.419	32.7
835.593	33.32
835.766	34.42
835.939	34.57
836.112	34.17
836.285	34.28
836.458	34.9
836.631	36.18
836.804	36.36
836.977	35.91
837.15	36.37
837.323	35.59
837.496	36.17
837.669	35.31
837.842	35.77
838.015	36.37
838.188	37.88
838.361	37.43
838.533	36.65
838.706	34.84
838.879	34.6
839.052	35.65
839.225	35.28
839.398	34.07
839.57	34.73
839.743	33.88
839.916	32.8
840.088	30.76
840.261	31.06
840.434	30.76
840.607	33.38
840.779	34.96
840.952	34.18
841.124	33.73
841.297	34.19
841.47	32.45
841.642	32.2
841.815	34.42
841.987	33.76
842.16	35.15
842.332	34
842.505	31.97
842.677	31.08
842.85	31.68
843.022	31.74
843.194	31.86
843.367	36.74
843.539	36.97
843.712	33
843.884	36.27
844.056	33.63
844.229	36.64
844.401	38.45
844.573	39.12
844.745	37.75
844.918	39.81
845.09	41.21
845.262	37.41
845.434	38.14
845.606	42.74
845.779	40.42
845.951	42.6
846.123	42.27
846.295	39.98
846.467	39.52
846.639	37.62
846.811	37.95
846.983	34.94
847.155	32.19
847.327	32.82
847.499	27.91
847.671	26.66
847.843	25.7
848.015	26.44
848.187	29.49
848.359	27.29
848.531	29.95
848.703	28.11
848.875	32.21
849.047	34.58
849.218	33.5
849.39	37.62
849.562	39.8
849.734	39.09
849.905	38.3
850.077	38.64
850.249	40.45
850.421	43.52
850.592	43.43
850.764	40.69
850.936	38.95
851.107	40.34
851.279	37.52
851.451	37.5
851.622	40.47
851.794	40.84
851.965	39.91
852.137	39.98
852.308	37.21
852.48	41.83
852.651	41.99
852.823	41.91
852.994	38.75
853.166	39.88
853.337	43.81
853.509	42.82
853.68	43.7
853.851	44.28
854.023	43.1
854.194	43.7
854.365	39.05
854.537	39.1
854.708	44.02
854.879	46.78
855.05	48.07
855.222	44.29
855.393	43.67
855.564	42.82
855.735	41.82
855.906	44.6
856.078	44.79
856.249	43.68
856.42	44.71
856.591	40.26
856.762	40.39
856.933	39.02
857.104	38.14
857.275	40.02
857.446	39.32
857.617	37.38
857.788	36.73
857.959	37.46
858.13	41.87
858.301	43.53
858.472	44.48
858.643	44.79
858.814	45.56
858.985	46.75
859.155	44.41
859.326	44.86
859.497	45.63
859.668	46.3
859.839	44.21
860.009	41.43
860.18	37.76
860.351	36.23
860.522	36.17
860.692	39.46
860.863	42.47
861.034	43.48
861.204	43.48
861.375	45.43
861.546	41.99
861.716	43.05
861.887	45.74
862.057	47.22
862.228	49.8
862.398	48.11
862.569	44.25
862.739	41.93
862.91	40.91
863.08	43.42
863.251	44.5
863.421	47.95
863.592	46.09
863.762	41.98
863.932	43.33
864.103	42.07
864.273	41.59
864.443	41.16
864.614	42.6
864.784	44.03
864.954	40.96
865.125	43.69
865.295	43.03
865.465	44.7
865.635	50.17
865.805	48.82
865.976	49.35
866.146	52.88
866.316	53.08
866.486	52.64
866.656	55.7
866.826	58.88
866.996	57.04
867.166	57.03
867.336	56.86
867.506	55.91
867.676	52.93
867.846	53.51
868.016	48.16
868.186	47.1
868.356	46.35
868.526	42.67
868.696	40.27
868.866	35.67
869.036	32.49
869.206	33.07
869.376	30.14
869.545	32.41
869.715	31.1
869.885	32.78
870.055	33.15
870.224	34.73
870.394	36.35
870.564	34.73
870.734	33.92
870.903	32.93
871.073	31.64
871.243	32.25
871.412	36.31
871.582	37.58
871.751	39.71
871.921	44.58
872.091	44.6
872.26	45.61
872.43	43.12
872.599	46.76
872.769	48.15
872.938	51.25
873.108	51.89
873.277	48.77
873.446	47.69
873.616	46.24
873.785	47.11
873.955	42.52
874.124	41.98
874.293	49.13
874.463	48.05
874.632	48.53
874.801	45.63
874.971	45.25
875.14	44.62
875.309	44.19
875.478	43.61
875.647	38.16
875.817	43.04
875.986	42.39
876.155	39.55
876.324	39.1
876.493	38.31
876.662	39.75
876.831	41.81
877	40.75
877.17	41.99
877.339	42.32
877.508	42.76
877.677	42.74
877.846	40.54
878.015	41.11
878.184	41.38
878.352	42.66
878.521	41.54
878.69	42.15
878.859	42.03
879.028	39.82
879.197	37.95
879.366	35.4
879.534	35.07
879.703	34.4
879.872	33.58
880.041	34.16
880.21	33.07
880.378	33.06
880.547	32.92
880.716	33.3
880.884	32.67
881.053	33.16
881.222	34.28
881.39	33.46
881.559	33.93
881.727	34.25
881.896	34.41
882.065	33.86
882.233	33.9
882.402	32.86
882.57	33.18
882.739	34.29
882.907	34.95
883.076	34.13
883.244	34.28
883.412	34.07
883.581	33.87
883.749	32.76
883.918	33.47
884.086	33.7
884.254	34.59
884.423	34.49
884.591	33.91
884.759	33.84
884.927	34.9
885.096	34.98
885.264	36.69
885.432	36.95
885.6	39.43
885.769	39.04
885.937	40.81
886.105	42.39
886.273	43.36
886.441	43.3
886.609	42.92
886.777	43.21
886.945	44.42
887.113	44.25
887.281	46.43
887.449	47.1
887.617	48.81
887.785	45.06
887.953	43.98
888.121	43.83
888.289	47.29
888.457	47.68
888.625	46.45
888.793	46.45
888.961	48.69
889.129	44.62
889.296	45.24
889.464	46.28
889.632	49.46
889.8	49.26
889.967	49.39
890.135	46.71
