Data from 2938437_Reflection_1.txt Node
Date: Fri Jun 19 18:33:15 EDT 2015
User: robert
Spectrometer: USB4E03002
Autoset integration time: false
Trigger mode: 4
Integration Time (sec): 1.000000E-1
Scans to average: 10
Electric dark correction enabled: true
Nonlinearity correction enabled: false
Boxcar width: 5
Stray light correction enabled: false
XAxis mode: Wavelengths
Stop averaging: false
Number of Pixels in Spectrum: 3648
>>>>>Begin Spectral Data<<<<<
177.575	123.05
177.794	94.66
178.014	105.82
178.233	98.42
178.452	58.18
178.672	56.37
178.891	-78.56
179.11	116.52
179.33	99.14
179.549	80.2
179.768	93.15
179.987	95.28
180.207	104.78
180.426	95.88
180.645	87.95
180.864	75.47
181.084	76.08
181.303	82.42
181.522	90.67
181.741	84.79
181.96	89.2
182.179	88.8
182.398	81.97
182.618	70.38
182.837	72.48
183.056	75.38
183.275	71.6
183.494	67.87
183.713	71.71
183.932	74.25
184.151	79.58
184.37	78.9
184.589	80.1
184.808	80.87
185.027	86.88
185.246	95.56
185.465	103.42
185.684	103.42
185.903	113.29
186.122	100.54
186.341	85.07
186.56	95.11
186.779	79.75
186.998	83.63
187.216	81.33
187.435	81.62
187.654	84.6
187.873	81.35
188.092	93.78
188.311	89.89
188.53	95.76
188.748	102.94
188.967	99.42
189.186	114.91
189.405	106.48
189.623	119.3
189.842	127.69
190.061	116.9
190.28	122.12
190.498	116.2
190.717	151.05
190.936	136.47
191.154	157.7
191.373	146.78
191.592	161.92
191.81	147.85
192.029	148.61
192.248	199.57
192.466	253.13
192.685	203.08
192.904	194.59
193.122	145.15
193.341	144.28
193.559	111.35
193.778	182.06
193.996	173.38
194.215	204.34
194.433	177.69
194.652	89.2
194.87	105.44
195.089	126.41
195.307	98.46
195.526	101.54
195.744	94.8
195.963	90.61
196.181	71.22
196.399	73.9
196.618	71.4
196.836	74.85
197.055	100.74
197.273	102.23
197.491	106.4
197.71	128.7
197.928	114.72
198.146	99.24
198.365	86.21
198.583	88.18
198.801	81.22
199.019	96.4
199.238	81.43
199.456	69.24
199.674	41.98
199.892	22.73
200.111	17.33
200.329	38.51
200.547	43.47
200.765	51.42
200.983	62.55
201.202	65.96
201.42	59.11
201.638	69.92
201.856	56.26
202.074	54.89
202.292	58.97
202.51	78.23
202.728	64.38
202.946	85.71
203.165	90.27
203.383	65.72
203.601	53.27
203.819	34.85
204.037	21.61
204.255	36.32
204.473	42.51
204.691	40.74
204.909	39.35
205.127	42.94
205.345	38.37
205.562	45.95
205.78	58.91
205.998	57.25
206.216	74.15
206.434	73.44
206.652	71.96
206.87	111.09
207.088	117.01
207.306	126.04
207.523	125.65
207.741	129.93
207.959	136.96
208.177	126.93
208.395	108.2
208.612	100.96
208.83	105.63
209.048	99.92
209.266	79.4
209.483	75.75
209.701	71.53
209.919	75.73
210.136	92.91
210.354	83.31
210.572	84.03
210.79	96.48
211.007	95.14
211.225	81.64
211.442	80.19
211.66	75.79
211.878	79.18
212.095	140.26
212.313	150.27
212.53	125.96
212.748	134.98
212.966	130.74
213.183	126.49
213.401	124.28
213.618	144.48
213.836	147.77
214.053	156.44
214.271	153.69
214.488	58.25
214.705	46.59
214.923	64.82
215.14	65.56
215.358	66.17
215.575	74.48
215.793	84.4
216.01	86.36
216.227	95.84
216.445	92.07
216.662	92.5
216.879	89.34
217.097	87.45
217.314	83.29
217.531	84.18
217.749	76.77
217.966	67.53
218.183	57.12
218.4	60.2
218.618	56.36
218.835	56.26
219.052	47.97
219.269	45
219.487	41.09
219.704	36.69
219.921	38.88
220.138	44.61
220.355	55.73
220.572	62.8
220.79	58.38
221.007	60.67
221.224	65.16
221.441	63.94
221.658	71.19
221.875	73.88
222.092	81.5
222.309	80.23
222.526	79.06
222.743	70.77
222.96	57.16
223.177	52.78
223.394	51.76
223.611	46.15
223.828	52.78
224.045	52.3
224.262	47.48
224.479	48.96
224.696	44.94
224.913	33.67
225.13	28.17
225.347	29.66
225.564	28.75
225.781	29.64
225.997	31.68
226.214	27.78
226.431	25.58
226.648	26.16
226.865	23.58
227.082	21.65
227.298	22.27
227.515	22.2
227.732	23.34
227.949	23.93
228.165	24.07
228.382	22.25
228.599	23.2
228.816	22.33
229.032	23.53
229.249	24.92
229.466	26.42
229.682	27.53
229.899	29.24
230.116	29.98
230.332	30.06
230.549	28.66
230.765	30.9
230.982	26.84
231.199	26.51
231.415	21.79
231.632	18.95
231.848	18.91
232.065	20.32
232.281	16.94
232.498	15.17
232.714	17.04
232.931	17.38
233.147	16.19
233.364	20.26
233.58	20.34
233.797	24.37
234.013	23.45
234.23	22.37
234.446	20.91
234.662	24.34
234.879	26.02
235.095	23.44
235.312	22.06
235.528	22.01
235.744	20.14
235.961	22.49
236.177	21.61
236.393	23.75
236.61	25.76
236.826	27.21
237.042	24.52
237.258	26.02
237.475	27.06
237.691	27.54
237.907	27.48
238.123	26.66
238.339	24.98
238.556	25.89
238.772	25.52
238.988	25.43
239.204	22.89
239.42	21.89
239.636	19.78
239.853	19.82
240.069	18.53
240.285	18.09
240.501	17.18
240.717	16.46
240.933	15.21
241.149	15.33
241.365	14.64
241.581	16.15
241.797	17.01
242.013	17.88
242.229	17.3
242.445	18.18
242.661	18.59
242.877	19.13
243.093	19.54
243.309	20.23
243.525	20.29
243.741	20
243.957	17.46
244.173	16.81
244.388	15.59
244.604	15.52
244.82	14.67
245.036	14.4
245.252	14.74
245.468	14.89
245.683	13.94
245.899	12.88
246.115	12.33
246.331	12.9
246.547	13.11
246.762	13.28
246.978	13.32
247.194	13.9
247.409	13.86
247.625	13.19
247.841	12.94
248.057	13.3
248.272	14.91
248.488	16.09
248.703	16.54
248.919	16.68
249.135	15.77
249.35	15.57
249.566	15.28
249.782	15.92
249.997	15.6
250.213	15.18
250.428	15.13
250.644	13.75
250.859	13.04
251.075	13.27
251.29	13.45
251.506	13.86
251.721	14.45
251.937	14.72
252.152	14.51
252.368	15.34
252.583	15.99
252.798	16.03
253.014	16.54
253.229	15.71
253.445	14.91
253.66	13.78
253.875	14.3
254.091	13.23
254.306	14.02
254.521	13.98
254.737	13.98
254.952	13.92
255.167	14.42
255.383	14.59
255.598	14.85
255.813	15.63
256.028	16.3
256.244	15.11
256.459	14.2
256.674	12.78
256.889	12.82
257.104	12.54
257.32	12.03
257.535	11.59
257.75	11.04
257.965	11.33
258.18	11.05
258.395	10.68
258.61	10.83
258.826	11.15
259.041	11.01
259.256	10.79
259.471	11.06
259.686	11.07
259.901	11.85
260.116	12.08
260.331	11.6
260.546	11.34
260.761	11.76
260.976	12.28
261.191	12.2
261.406	12.86
261.621	12.26
261.836	11.42
262.05	10.63
262.265	9.28
262.48	8.67
262.695	9.1
262.91	10.55
263.125	10.05
263.34	9.75
263.555	10.33
263.769	10.23
263.984	10.68
264.199	11.25
264.414	12.4
264.629	13.16
264.843	14.12
265.058	13.94
265.273	12.9
265.488	12.59
265.702	12.82
265.917	11.88
266.132	12.29
266.346	12.21
266.561	12.25
266.776	12.31
266.99	12.37
267.205	11.92
267.42	12.88
267.634	12.63
267.849	12.47
268.063	12.31
268.278	12.84
268.492	11.98
268.707	12.1
268.922	11.87
269.136	11.87
269.351	11.13
269.565	10.9
269.78	10.47
269.994	10.46
270.209	10.82
270.423	10.31
270.637	9.96
270.852	10.4
271.066	10.76
271.281	11.5
271.495	10.63
271.709	10.83
271.924	11.07
272.138	11.45
272.353	11.37
272.567	11.6
272.781	12.09
272.996	12.33
273.21	12.15
273.424	11.15
273.638	11.01
273.853	12.73
274.067	13.2
274.281	13.23
274.495	12.36
274.71	12.09
274.924	11.72
275.138	11.2
275.352	11.96
275.566	12.27
275.781	13.52
275.995	13.57
276.209	12.18
276.423	12.45
276.637	12.94
276.851	12.87
277.065	14.25
277.279	14.55
277.493	14.74
277.707	14.38
277.921	14.39
278.135	13.94
278.349	13.29
278.563	14.17
278.777	13.42
278.991	13.15
279.205	12.91
279.419	11.75
279.633	11.27
279.847	11.09
280.061	10.98
280.275	11.1
280.489	11.36
280.703	11.73
280.917	11.15
281.131	11.11
281.344	10.68
281.558	11.95
281.772	12.06
281.986	12.48
282.2	13.23
282.414	12.95
282.627	12.09
282.841	12.08
283.055	12.06
283.269	12.21
283.482	12.09
283.696	12.53
283.91	12.09
284.123	12.01
284.337	11.69
284.551	11.23
284.764	11.34
284.978	11.56
285.192	12
285.405	11.53
285.619	11.34
285.833	11.41
286.046	11.53
286.26	11.48
286.473	11.87
286.687	11.73
286.9	11.77
287.114	12.03
287.327	13.21
287.541	12.28
287.754	13.12
287.968	13.49
288.181	13.8
288.395	14.03
288.608	13.93
288.822	14.38
289.035	15.32
289.248	15.23
289.462	15.53
289.675	15.04
289.889	16.39
290.102	16.17
290.315	15.73
290.529	15.5
290.742	14.63
290.955	14.97
291.169	14.36
291.382	13.93
291.595	14.73
291.808	13.61
292.022	13.14
292.235	11.79
292.448	11.37
292.661	11.77
292.875	11.28
293.088	11.63
293.301	11.62
293.514	12.08
293.727	11.47
293.94	11.15
294.153	12.13
294.367	12.75
294.58	12.85
294.793	13.04
295.006	13.14
295.219	13.7
295.432	13.4
295.645	12.77
295.858	12.8
296.071	13.11
296.284	13.04
296.497	12.14
296.71	11.8
296.923	12.12
297.136	12.76
297.349	12.46
297.562	12.62
297.775	13.47
297.988	13.98
298.201	13.35
298.414	13.21
298.626	12.72
298.839	13
299.052	13.25
299.265	12.57
299.478	11.03
299.691	11.39
299.903	11.28
300.116	11.21
300.329	11.74
300.542	12.74
300.755	13.85
300.967	14.48
301.18	15.23
301.393	15.37
301.605	15.66
301.818	16.08
302.031	15.75
302.243	15.75
302.456	15.28
302.669	15.31
302.881	15.72
303.094	14.58
303.307	14.62
303.519	14.57
303.732	14.51
303.944	14.91
304.157	15.78
304.37	16.45
304.582	16.1
304.795	15.59
305.007	15.54
305.22	14.45
305.432	14.81
305.645	15.71
305.857	16.08
306.069	15.58
306.282	14.85
306.494	14.76
306.707	13.9
306.919	13.6
307.132	14.48
307.344	14.62
307.556	14.52
307.769	14.5
307.981	13.4
308.193	13.16
308.406	13.78
308.618	13.99
308.83	13.42
309.043	14.25
309.255	14.79
309.467	14.67
309.679	14.07
309.892	13.99
310.104	14.22
310.316	14.78
310.528	15.06
310.74	15.12
310.953	15.53
311.165	15.32
311.377	15.59
311.589	15.48
311.801	15.06
312.013	15.12
312.225	15.58
312.437	15.15
312.649	14.73
312.862	14.46
313.074	14.09
313.286	14.37
313.498	15.13
313.71	14.27
313.922	14.06
314.134	14.11
314.346	14.69
314.558	14.41
314.77	14.42
314.982	15.43
315.193	15.35
315.405	15.37
315.617	14.14
315.829	14.52
316.041	15.01
316.253	15.63
316.465	16.9
316.677	16.68
316.888	17.64
317.1	18.59
317.312	17.46
317.524	17.18
317.736	17.03
317.947	17.42
318.159	16.85
318.371	16.15
318.583	15.85
318.794	15.42
319.006	15.33
319.218	14.59
319.43	14.11
319.641	14.5
319.853	14.63
320.064	14.66
320.276	15.75
320.488	16.26
320.699	16.66
320.911	16.46
321.123	15.8
321.334	15.37
321.546	15.47
321.757	15.56
321.969	15.44
322.18	14.97
322.392	15.31
322.603	14.63
322.815	14.29
323.026	14.54
323.238	14.42
323.449	14.86
323.661	15.64
323.872	15.29
324.083	15.09
324.295	15.51
324.506	16.26
324.718	16.07
324.929	16.59
325.14	17
325.352	17.38
325.563	17.59
325.774	18.15
325.986	17.12
326.197	17.81
326.408	18.09
326.62	17.21
326.831	17.18
327.042	16.89
327.253	16.56
327.464	15.46
327.676	15.46
327.887	16.15
328.098	15.5
328.309	16.52
328.52	15.32
328.732	15.75
328.943	16.02
329.154	15.87
329.365	15.74
329.576	15.61
329.787	16.96
329.998	16.56
330.209	16.01
330.42	15.92
330.631	15.4
330.842	15.91
331.053	15.67
331.264	15.96
331.475	15.86
331.686	16.46
331.897	16.77
332.108	15.99
332.319	15.71
332.53	16.09
332.741	16.22
332.952	16.7
333.163	16.19
333.374	15.44
333.585	16.26
333.795	15.97
334.006	15.92
334.217	15.52
334.428	15.76
334.639	16.37
334.849	16.12
335.06	15.66
335.271	15.39
335.482	16.39
335.692	16.37
335.903	16.19
336.114	16.48
336.325	16.51
336.535	16.61
336.746	16.24
336.957	15.63
337.167	15.61
337.378	16.44
337.589	17.38
337.799	17.53
338.01	17.95
338.22	17.5
338.431	17.71
338.642	17.41
338.852	17.36
339.063	17.74
339.273	18.42
339.484	18.75
339.694	18.54
339.905	18.04
340.115	18.47
340.326	18.4
340.536	18.56
340.746	18.2
340.957	17.9
341.167	18.9
341.378	18.65
341.588	17.91
341.799	17.35
342.009	16.91
342.219	16.46
342.43	15.22
342.64	15.34
342.85	15.24
343.061	15.83
343.271	16.07
343.481	15.44
343.691	15.76
343.902	16.19
344.112	16.21
344.322	16.08
344.532	16.08
344.743	17.21
344.953	16.84
345.163	16.66
345.373	15.98
345.583	15.92
345.793	15.91
346.004	16.19
346.214	16.15
346.424	16.33
346.634	16.76
346.844	16.68
347.054	16
347.264	15.96
347.474	16.95
347.684	17.05
347.894	17.44
348.104	17.63
348.314	17.88
348.524	17.61
348.734	17.03
348.944	16.62
349.154	16.66
349.364	16.41
349.574	16.95
349.784	16.42
349.994	16.48
350.204	16.01
350.413	15.37
350.623	14.94
350.833	14.6
351.043	15.05
351.253	15.37
351.463	15.17
351.672	15.74
351.882	14.98
352.092	14.99
352.302	14.9
352.511	15.3
352.721	15.09
352.931	14.74
353.141	15.02
353.35	14.8
353.56	14.55
353.77	15.21
353.979	15.12
354.189	14.77
354.399	14.17
354.608	14.36
354.818	13.99
355.027	14.38
355.237	14.75
355.447	14.94
355.656	15.1
355.866	15.1
356.075	14.58
356.285	14.43
356.494	15.02
356.704	14.77
356.913	14.17
357.123	14.12
357.332	13.81
357.542	13.42
357.751	13.63
357.96	13.78
358.17	13.45
358.379	13.6
358.589	13.34
358.798	13.22
359.007	14.04
359.217	14.71
359.426	14.63
359.635	14.65
359.845	14.71
360.054	14.45
360.263	14.12
360.472	14.29
360.682	14.35
360.891	14.52
361.1	14.52
361.309	13.94
361.519	13.85
361.728	14.06
361.937	14.09
362.146	13.93
362.355	13.82
362.564	13.86
362.774	14.1
362.983	13.78
363.192	13.46
363.401	13.65
363.61	13.71
363.819	13.66
364.028	13.43
364.237	13.2
364.446	13.68
364.655	13.61
364.864	13.26
365.073	13.02
365.282	13.14
365.491	13.13
365.7	12.96
365.909	13.01
366.118	13.11
366.327	12.96
366.536	12.84
366.745	12.47
366.954	12.78
367.162	13.52
367.371	13.62
367.58	13.29
367.789	13.48
367.998	13.11
368.207	13.34
368.415	13.23
368.624	13.45
368.833	13.65
369.042	13.52
369.25	13.1
369.459	12.79
369.668	12.37
369.877	12.32
370.085	12.51
370.294	12.53
370.503	12.19
370.711	11.93
370.92	11.98
371.129	11.87
371.337	11.83
371.546	11.8
371.754	11.37
371.963	11.91
372.171	12.09
372.38	12.1
372.589	12.15
372.797	12.2
373.006	12.3
373.214	12.22
373.423	12.39
373.631	12.14
373.84	11.93
374.048	12.14
374.256	11.53
374.465	11.67
374.673	10.89
374.882	11.04
375.09	11.05
375.298	10.86
375.507	10.87
375.715	10.45
375.923	10.34
376.132	10.41
376.34	10.18
376.548	9.95
376.757	9.87
376.965	10.23
377.173	9.95
377.381	9.8
377.59	9.74
377.798	9.61
378.006	9.67
378.214	9.55
378.423	9.56
378.631	9.63
378.839	9.77
379.047	9.62
379.255	9.34
379.463	9.73
379.671	9.74
379.879	9.96
380.088	9.68
380.296	9.93
380.504	10.04
380.712	9.96
380.92	10.16
381.128	10.26
381.336	10.08
381.544	10.2
381.752	9.81
381.96	9.61
382.168	9.21
382.376	9.21
382.584	8.82
382.791	9.24
382.999	9.45
383.207	8.99
383.415	8.94
383.623	9.08
383.831	8.89
384.039	8.82
384.247	8.98
384.454	9.06
384.662	8.94
384.87	8.93
385.078	8.25
385.285	7.78
385.493	7.96
385.701	7.71
385.909	7.44
386.116	7.55
386.324	7.62
386.532	7.31
386.739	7.24
386.947	7.31
387.155	7.23
387.362	7.39
387.57	7.36
387.778	7
387.985	7.27
388.193	7.28
388.4	7.2
388.608	7.1
388.816	7.22
389.023	7.18
389.231	7.11
389.438	7.01
389.646	7.03
389.853	6.9
390.061	6.95
390.268	6.69
390.475	6.56
390.683	6.43
390.89	6.4
391.098	6.32
391.305	6.24
391.512	6.13
391.72	6.2
391.927	6
392.135	6.15
392.342	6.2
392.549	6.17
392.756	6.2
392.964	6.11
393.171	6.13
393.378	6.02
393.586	6.14
393.793	6.2
394	6.19
394.207	6.32
394.414	6.29
394.622	6.23
394.829	6.37
395.036	6.23
395.243	6.35
395.45	6.16
395.657	6.11
395.864	5.9
396.072	5.77
396.279	5.63
396.486	5.51
396.693	5.42
396.9	5.41
397.107	5.13
397.314	5.27
397.521	5.13
397.728	5.25
397.935	4.96
398.142	4.9
398.349	4.82
398.556	4.99
398.763	5.01
398.97	4.91
399.177	4.76
399.383	4.89
399.59	4.99
399.797	4.99
400.004	4.89
400.211	5.14
400.418	5.34
400.625	5.58
400.831	5.61
401.038	5.52
401.245	5.5
401.452	5.62
401.658	5.78
401.865	5.54
402.072	5.66
402.279	5.75
402.485	5.82
402.692	5.62
402.899	5.48
403.105	5.25
403.312	5.28
403.519	5.37
403.725	5.27
403.932	5.14
404.138	5.28
404.345	5.1
404.552	4.97
404.758	5.04
404.965	5.1
405.171	5.06
405.378	5.11
405.584	5.32
405.791	5.12
405.997	5.16
406.204	5.12
406.41	5.14
406.617	5.1
406.823	5.1
407.029	4.93
407.236	4.94
407.442	5.02
407.649	5
407.855	4.69
408.061	4.9
408.268	5.08
408.474	5
408.68	4.73
408.887	4.82
409.093	4.82
409.299	4.87
409.505	4.9
409.712	4.77
409.918	4.76
410.124	4.86
410.33	4.71
410.537	4.46
410.743	4.72
410.949	4.82
411.155	4.89
411.361	4.77
411.567	4.71
411.773	4.5
411.98	4.57
412.186	4.68
412.392	4.69
412.598	4.72
412.804	4.79
413.01	4.61
413.216	4.73
413.422	4.78
413.628	4.79
413.834	4.86
414.04	4.99
414.246	5.03
414.452	5.02
414.658	4.91
414.864	4.9
415.07	4.74
415.275	4.74
415.481	4.67
415.687	4.52
415.893	4.55
416.099	4.48
416.305	4.51
416.511	4.41
416.716	4.34
416.922	4.32
417.128	4.44
417.334	4.53
417.539	4.46
417.745	4.47
417.951	4.44
418.157	4.39
418.362	4.32
418.568	4.17
418.774	4.18
418.979	4.19
419.185	4.23
419.391	4.15
419.596	4.11
419.802	4.16
420.008	4.14
420.213	3.52
420.419	3.62
420.624	3.64
420.83	3.72
421.035	3.68
421.241	3.68
421.446	3.62
421.652	3.6
421.857	3.57
422.063	3.5
422.268	3.45
422.474	4.06
422.679	4.04
422.885	4.02
423.09	4
423.295	3.98
423.501	3.99
423.706	4.05
423.911	4.03
424.117	4.07
424.322	4.08
424.527	4.08
424.733	4.09
424.938	4.09
425.143	4.14
425.349	4.16
425.554	4.17
425.759	4.1
425.964	4.09
426.169	4.13
426.375	4.13
426.58	4.21
426.785	4.3
426.99	4.35
427.195	4.36
427.4	4.35
427.605	4.31
427.811	4.32
428.016	4.38
428.221	4.33
428.426	4.28
428.631	4.3
428.836	4.19
429.041	4.09
429.246	4.03
429.451	3.98
429.656	4
429.861	4.11
430.066	4.08
430.271	4.06
430.476	4.1
430.681	4.14
430.886	4.12
431.09	4.12
431.295	4.11
431.5	4.12
431.705	4.06
431.91	4.06
432.115	4.02
432.32	4.05
432.524	4.02
432.729	3.99
432.934	3.91
433.139	3.8
433.343	3.72
433.548	3.77
433.753	3.85
433.958	3.89
434.162	3.83
434.367	3.73
434.572	3.74
434.776	3.73
434.981	3.64
435.186	3.75
435.39	3.85
435.595	3.95
435.799	3.98
436.004	3.91
436.209	4.04
436.413	4.01
436.618	4.11
436.822	4.09
437.027	4.05
437.231	4.09
437.436	4.09
437.64	4.01
437.845	3.94
438.049	3.89
438.253	3.8
438.458	3.67
438.662	3.7
438.867	3.72
439.071	3.7
439.275	3.73
439.48	3.8
439.684	3.8
439.888	3.83
440.093	3.89
440.297	3.88
440.501	3.96
440.706	3.98
440.91	3.98
441.114	3.91
441.318	3.87
441.523	3.89
441.727	3.76
441.931	3.69
442.135	3.77
442.339	3.74
442.543	3.74
442.748	3.7
442.952	3.71
443.156	3.59
443.36	3.6
443.564	3.64
443.768	3.58
443.972	3.65
444.176	3.66
444.38	3.53
444.584	3.56
444.788	3.51
444.992	3.49
445.196	3.47
445.4	3.53
445.604	3.51
445.808	3.52
446.012	3.57
446.216	3.52
446.42	3.5
446.624	3.54
446.828	3.52
447.032	3.53
447.235	3.54
447.439	3.54
447.643	3.56
447.847	3.58
448.051	3.66
448.254	3.61
448.458	3.68
448.662	3.66
448.866	3.66
449.069	3.59
449.273	3.69
449.477	3.73
449.681	3.78
449.884	3.75
450.088	3.78
450.292	3.64
450.495	3.73
450.699	3.69
450.902	3.71
451.106	3.69
451.31	3.7
451.513	3.69
451.717	3.67
451.92	3.62
452.124	3.63
452.327	3.62
452.531	3.72
452.734	3.79
452.938	3.84
453.141	3.84
453.345	3.86
453.548	3.9
453.752	3.84
453.955	3.91
454.158	3.94
454.362	4.04
454.565	4.13
454.769	4.09
454.972	3.93
455.175	3.84
455.379	3.88
455.582	3.98
455.785	3.94
455.988	4.02
456.192	3.95
456.395	3.86
456.598	3.77
456.801	3.62
457.005	3.52
457.208	3.51
457.411	3.49
457.614	3.49
457.817	3.43
458.021	3.46
458.224	3.43
458.427	3.44
458.63	3.51
458.833	3.54
459.036	3.61
459.239	3.7
459.442	3.76
459.645	3.83
459.848	3.77
460.051	3.85
460.254	3.86
460.457	3.92
460.66	3.91
460.863	3.89
461.066	3.92
461.269	3.97
461.472	3.97
461.675	3.88
461.878	3.83
462.081	4.03
462.284	3.94
462.486	3.95
462.689	3.93
462.892	3.91
463.095	3.82
463.298	3.67
463.5	3.63
463.703	3.64
463.906	3.68
464.109	3.65
464.311	3.58
464.514	3.62
464.717	3.64
464.92	3.61
465.122	3.61
465.325	3.72
465.528	3.91
465.73	3.94
465.933	3.91
466.135	4.01
466.338	4.08
466.541	4.1
466.743	4.15
466.946	4.06
467.148	4.01
467.351	4.13
467.553	4.1
467.756	4.06
467.958	3.97
468.161	4.05
468.363	3.97
468.566	3.9
468.768	3.84
468.971	3.77
469.173	3.88
469.375	3.94
469.578	3.83
469.78	3.75
469.983	3.66
470.185	3.74
470.387	3.61
470.59	3.61
470.792	3.62
470.994	3.64
471.196	3.67
471.399	3.59
471.601	3.58
471.803	3.49
472.005	3.63
472.208	3.72
472.41	3.63
472.612	3.67
472.814	3.57
473.016	3.65
473.218	3.55
473.421	3.49
473.623	3.61
473.825	3.71
474.027	3.82
474.229	3.71
474.431	3.77
474.633	3.82
474.835	3.83
475.037	3.92
475.239	3.8
475.441	3.86
475.643	3.82
475.845	3.74
476.047	3.61
476.249	3.58
476.451	3.62
476.653	3.53
476.855	3.5
477.057	3.49
477.258	3.45
477.46	3.56
477.662	3.51
477.864	3.55
478.066	3.53
478.268	3.62
478.469	3.67
478.671	3.69
478.873	3.67
479.075	3.69
479.276	3.7
479.478	3.72
479.68	3.69
479.882	3.71
480.083	3.67
480.285	3.66
480.487	3.53
480.688	3.46
480.89	3.42
481.091	3.36
481.293	3.34
481.495	3.34
481.696	3.27
481.898	3.25
482.099	3.22
482.301	3.19
482.502	3.18
482.704	3.21
482.905	3.23
483.107	3.22
483.308	3.25
483.51	3.26
483.711	3.25
483.913	3.29
484.114	3.29
484.315	3.35
484.517	3.42
484.718	3.43
484.92	3.38
485.121	3.38
485.322	3.38
485.524	3.42
485.725	3.4
485.926	3.43
486.127	3.45
486.329	3.44
486.53	3.42
486.731	3.37
486.932	3.41
487.134	3.47
487.335	3.47
487.536	3.52
487.737	3.47
487.938	3.49
488.139	3.45
488.341	3.44
488.542	3.47
488.743	3.47
488.944	3.49
489.145	3.44
489.346	3.42
489.547	3.43
489.748	3.4
489.949	3.38
490.15	3.38
490.351	3.33
490.552	3.33
490.753	3.32
490.954	3.36
491.155	3.37
491.356	3.42
491.557	3.47
491.758	3.45
491.959	3.51
492.159	3.61
492.36	3.64
492.561	3.72
492.762	3.75
492.963	3.79
493.164	3.81
493.364	3.84
493.565	3.87
493.766	3.87
493.967	3.97
494.167	3.95
494.368	3.85
494.569	3.84
494.769	3.81
494.97	3.78
495.171	3.76
495.371	3.66
495.572	3.71
495.773	3.69
495.973	3.7
496.174	3.61
496.375	3.64
496.575	3.65
496.776	3.68
496.976	3.69
497.177	3.75
497.377	3.81
497.578	3.95
497.778	3.89
497.979	3.84
498.179	3.82
498.38	3.98
498.58	3.94
498.78	3.97
498.981	3.94
499.181	3.96
499.382	4.07
499.582	3.98
499.782	3.89
499.983	4.02
500.183	4.08
500.383	4.18
500.584	4.07
500.784	4.08
500.984	4.06
501.184	4.12
501.385	4.17
501.585	4.12
501.785	4.14
501.985	4.22
502.185	4.13
502.386	4.08
502.586	4.05
502.786	4.07
502.986	4.07
503.186	4.1
503.386	4.08
503.586	4.06
503.786	4.07
503.987	4.13
504.187	4.11
504.387	4.1
504.587	4.16
504.787	4.16
504.987	4.16
505.187	4.18
505.387	4.28
505.587	4.32
505.786	4.28
505.986	4.26
506.186	4.32
506.386	4.34
506.586	4.3
506.786	4.31
506.986	4.26
507.186	4.27
507.386	4.22
507.585	4.11
507.785	4.14
507.985	4.18
508.185	4.24
508.384	4.24
508.584	4.29
508.784	4.43
508.984	4.45
509.183	4.57
509.383	4.63
509.583	4.7
509.782	4.74
509.982	4.75
510.182	4.83
510.381	4.77
510.581	4.8
510.781	4.78
510.98	4.72
511.18	4.71
511.379	4.67
511.579	4.71
511.778	4.75
511.978	4.87
512.177	4.79
512.377	4.83
512.576	4.91
512.776	4.94
512.975	4.99
513.175	5.02
513.374	5.02
513.573	5.11
513.773	5.09
513.972	5.11
514.172	5.07
514.371	5.11
514.57	5.1
514.77	5.07
514.969	5.01
515.168	5
515.367	5.04
515.567	5.12
515.766	5
515.965	5
516.164	4.91
516.364	4.89
516.563	4.9
516.762	4.88
516.961	4.91
517.16	4.93
517.359	4.94
517.559	4.92
517.758	4.95
517.957	5.05
518.156	5.07
518.355	5.18
518.554	5.24
518.753	5.27
518.952	5.35
519.151	5.4
519.35	5.36
519.549	5.36
519.748	5.43
519.947	5.36
520.146	5.33
520.345	5.3
520.544	5.29
520.743	5.33
520.942	5.41
521.141	5.34
521.339	5.34
521.538	5.38
521.737	5.48
521.936	5.43
522.135	5.47
522.333	5.48
522.532	5.5
522.731	5.51
522.93	5.49
523.129	5.48
523.327	5.51
523.526	5.51
523.725	5.55
523.923	5.53
524.122	5.56
524.321	5.56
524.519	5.62
524.718	5.64
524.917	5.67
525.115	5.62
525.314	5.63
525.512	5.61
525.711	5.6
525.909	5.6
526.108	5.59
526.306	5.56
526.505	5.57
526.703	5.55
526.902	5.56
527.1	5.55
527.299	5.6
527.497	5.59
527.696	5.63
527.894	5.67
528.092	5.66
528.291	5.72
528.489	5.79
528.688	5.83
528.886	5.86
529.084	5.91
529.283	5.95
529.481	6.04
529.679	6.1
529.877	6.13
530.076	6.16
530.274	6.25
530.472	6.24
530.67	6.25
530.869	6.25
531.067	6.3
531.265	6.26
531.463	6.26
531.661	6.21
531.859	6.19
532.057	6.22
532.255	6.3
532.454	6.32
532.652	6.34
532.85	6.38
533.048	6.43
533.246	6.46
533.444	6.56
533.642	6.61
533.84	6.63
534.038	6.73
534.236	6.75
534.434	6.69
534.632	6.63
534.83	6.62
535.027	6.62
535.225	6.62
535.423	6.63
535.621	6.59
535.819	6.65
536.017	6.69
536.215	6.66
536.412	6.71
536.61	6.75
536.808	6.85
537.006	6.92
537.203	6.97
537.401	6.97
537.599	7.01
537.797	7.05
537.994	7
538.192	7.02
538.39	7.07
538.587	7.07
538.785	7.09
538.983	7.09
539.18	7.09
539.378	7.05
539.575	7.13
539.773	7.12
539.97	7.1
540.168	7.14
540.366	7.19
540.563	7.15
540.761	7.18
540.958	7.22
541.155	7.26
541.353	7.31
541.55	7.4
541.748	7.44
541.945	7.47
542.143	7.54
542.34	7.59
542.537	7.64
542.735	7.77
542.932	7.85
543.129	7.87
543.327	7.92
543.524	7.93
543.721	7.95
543.919	7.96
544.116	7.97
544.313	7.95
544.51	7.96
544.708	7.95
544.905	7.92
545.102	7.91
545.299	8
545.496	8.04
545.693	8.09
545.891	8.18
546.088	8.21
546.285	8.27
546.482	8.48
546.679	8.6
546.876	8.59
547.073	8.7
547.27	8.7
547.467	8.64
547.664	8.69
547.861	8.73
548.058	8.73
548.255	8.82
548.452	8.95
548.649	8.98
548.846	8.97
549.043	9.19
549.24	9.2
549.437	9.31
549.633	9.4
549.83	9.4
550.027	9.43
550.224	9.55
550.421	9.47
550.618	9.47
550.814	9.34
551.011	9.33
551.208	9.32
551.405	9.45
551.601	9.58
551.798	9.59
551.995	9.72
552.191	9.79
552.388	9.7
552.585	9.78
552.781	9.83
552.978	9.97
553.175	10.1
553.371	10.16
553.568	10.23
553.764	10.24
553.961	10.36
554.157	10.29
554.354	10.33
554.55	10.46
554.747	10.56
554.943	10.62
555.14	10.68
555.336	10.74
555.533	10.77
555.729	10.87
555.926	10.94
556.122	11.09
556.318	11.22
556.515	11.29
556.711	11.29
556.907	11.38
557.104	11.39
557.3	11.54
557.496	11.61
557.693	11.67
557.889	11.58
558.085	11.63
558.281	11.6
558.478	11.7
558.674	11.8
558.87	11.88
559.066	12.01
559.262	12.11
559.459	12.05
559.655	12.19
559.851	12.26
560.047	12.44
560.243	12.49
560.439	12.53
560.635	12.59
560.831	12.59
561.027	12.58
561.223	12.5
561.419	12.53
561.615	12.64
561.811	12.63
562.007	12.66
562.203	12.7
562.399	12.66
562.595	12.63
562.791	12.82
562.987	12.87
563.183	13.02
563.379	13.11
563.575	13.22
563.771	13.33
563.966	13.34
564.162	13.38
564.358	13.41
564.554	13.55
564.75	13.72
564.945	13.71
565.141	13.92
565.337	14.05
565.533	14.17
565.728	14.25
565.924	14.28
566.12	14.43
566.315	14.57
566.511	14.62
566.707	14.69
566.902	14.74
567.098	14.74
567.293	14.78
567.489	14.85
567.684	14.9
567.88	14.94
568.076	15.07
568.271	15.07
568.467	15.08
568.662	15.14
568.858	15.2
569.053	15.29
569.248	15.34
569.444	15.29
569.639	15.36
569.835	15.46
570.03	15.52
570.225	15.51
570.421	15.52
570.616	15.63
570.812	15.65
571.007	15.75
571.202	15.78
571.397	15.92
571.593	15.94
571.788	15.98
571.983	16.09
572.178	16.17
572.374	16.28
572.569	16.37
572.764	16.42
572.959	16.57
573.154	16.61
573.35	16.68
573.545	16.75
573.74	16.92
573.935	16.97
574.13	17
574.325	17.03
574.52	17.08
574.715	17.09
574.91	17.14
575.105	17.19
575.3	17.24
575.495	17.41
575.69	17.39
575.885	17.41
576.08	17.42
576.275	17.41
576.47	17.56
576.665	17.66
576.86	17.8
577.055	17.96
577.25	18
577.444	18.05
577.639	18.04
577.834	18.16
578.029	18.23
578.224	18.4
578.418	18.46
578.613	18.41
578.808	18.37
579.003	18.29
579.197	18.31
579.392	18.33
579.587	18.46
579.781	18.37
579.976	18.37
580.171	18.38
580.365	18.25
580.56	18.34
580.755	18.51
580.949	18.57
581.144	18.78
581.338	18.78
581.533	18.9
581.727	18.75
581.922	18.99
582.116	19.07
582.311	19.12
582.505	19.28
582.7	19.3
582.894	19.24
583.089	19.28
583.283	19.32
583.478	19.35
583.672	19.42
583.866	19.46
584.061	19.35
584.255	19.38
584.449	19.41
584.644	19.39
584.838	19.49
585.032	19.48
585.226	19.39
585.421	19.41
585.615	19.5
585.809	19.38
586.003	19.54
586.198	19.59
586.392	19.7
586.586	19.83
586.78	19.77
586.974	19.71
587.168	19.85
587.363	19.95
587.557	19.93
587.751	19.81
587.945	19.85
588.139	19.88
588.333	19.98
588.527	19.93
588.721	19.85
588.915	19.97
589.109	20.09
589.303	20
589.497	20.13
589.691	20.24
589.885	20.33
590.079	20.47
590.273	20.54
590.466	20.56
590.66	20.69
590.854	20.8
591.048	20.76
591.242	20.69
591.436	20.8
591.629	20.89
591.823	20.87
592.017	20.83
592.211	20.82
592.404	20.81
592.598	20.73
592.792	20.6
592.986	20.52
593.179	20.6
593.373	20.58
593.567	20.52
593.76	20.39
593.954	20.4
594.147	20.5
594.341	20.54
594.535	20.57
594.728	20.57
594.922	20.65
595.115	20.77
595.309	20.77
595.502	20.75
595.696	20.86
595.889	20.94
596.083	21
596.276	21.01
596.47	21.04
596.663	21.12
596.856	21.22
597.05	21.18
597.243	21.19
597.437	21.26
597.63	21.38
597.823	21.36
598.017	21.36
598.21	21.42
598.403	21.43
598.596	21.41
598.79	21.35
598.983	21.3
599.176	21.49
599.369	21.43
599.563	21.34
599.756	21.44
599.949	21.49
600.142	21.48
600.335	21.43
600.528	21.41
600.722	21.35
600.915	21.48
601.108	21.58
601.301	21.51
601.494	21.58
601.687	21.79
601.88	21.85
602.073	21.78
602.266	21.77
602.459	21.72
602.652	21.72
602.845	21.82
603.038	21.83
603.231	21.79
603.424	21.85
603.617	21.86
603.809	21.91
604.002	21.92
604.195	22.02
604.388	22.02
604.581	22.17
604.774	22.29
604.966	22.28
605.159	22.37
605.352	22.51
605.545	22.57
605.737	22.55
605.93	22.46
606.123	22.52
606.316	22.52
606.508	22.68
606.701	22.68
606.894	22.48
607.086	22.53
607.279	22.39
607.471	22.22
607.664	22.06
607.857	22.14
608.049	22.1
608.242	22.05
608.434	22.03
608.627	21.99
608.819	22.02
609.012	22.2
609.204	22.36
609.397	22.41
609.589	22.67
609.782	22.82
609.974	22.82
610.166	22.91
610.359	22.86
610.551	22.93
610.743	22.82
610.936	22.83
611.128	22.9
611.32	22.79
611.513	22.75
611.705	22.66
611.897	22.68
612.09	22.86
612.282	22.96
612.474	23.03
612.666	23.03
612.858	23.27
613.051	23.22
613.243	23.13
613.435	23.08
613.627	23.19
613.819	23.15
614.011	23.22
614.203	23.07
614.395	22.88
614.588	22.92
614.78	23.01
614.972	22.97
615.164	23.01
615.356	23.12
615.548	23.08
615.74	23.1
615.932	23.11
616.124	23.06
616.315	22.96
616.507	23.1
616.699	23.15
616.891	23.12
617.083	23.18
617.275	23.1
617.467	22.9
617.659	23.12
617.85	23.14
618.042	23.26
618.234	23.25
618.426	23.31
618.618	23.28
618.809	23.41
619.001	23.43
619.193	23.46
619.384	23.4
619.576	23.49
619.768	23.39
619.959	23.34
620.151	23.28
620.343	23.38
620.534	23.35
620.726	23.13
620.917	22.94
621.109	23.12
621.301	23.06
621.492	23.18
621.684	23.32
621.875	23.31
622.067	23.4
622.258	23.26
622.45	23.35
622.641	23.71
622.832	23.96
623.024	23.82
623.215	23.69
623.407	23.69
623.598	23.69
623.789	23.68
623.981	23.62
624.172	23.45
624.363	23.36
624.555	23.24
624.746	22.89
624.937	22.9
625.129	22.97
625.32	22.99
625.511	23.2
625.702	23.13
625.893	23.11
626.085	23.18
626.276	23.18
626.467	23.45
626.658	23.49
626.849	23.61
627.04	23.64
627.231	23.77
627.422	23.71
627.614	23.52
627.805	23.45
627.996	23.38
628.187	23.39
628.378	23.59
628.569	23.55
628.76	23.48
628.951	23.44
629.142	23.43
629.332	23.37
629.523	23.49
629.714	23.52
629.905	23.68
630.096	23.6
630.287	23.7
630.478	23.52
630.669	23.46
630.859	23.4
631.05	23.53
631.241	23.46
631.432	23.45
631.623	23.31
631.813	23.2
632.004	23.31
632.195	23.39
632.385	23.26
632.576	23.55
632.767	23.59
632.957	23.6
633.148	23.61
633.339	23.5
633.529	23.59
633.72	23.69
633.91	23.94
634.101	23.87
634.292	23.95
634.482	24.03
634.673	23.96
634.863	24
635.054	24.03
635.244	23.98
635.435	24.27
635.625	24.35
635.815	24.46
636.006	24.23
636.196	24.32
636.387	24.45
636.577	24.38
636.767	24.41
636.958	24.51
637.148	24.46
637.338	24.52
637.529	24.35
637.719	24.38
637.909	24.25
638.099	24.52
638.29	24.3
638.48	24.19
638.67	24.41
638.86	24.42
639.05	24.2
639.241	24.37
639.431	24.27
639.621	24.36
639.811	24.19
640.001	24.19
640.191	24.13
640.381	24.27
640.571	24.11
640.761	23.97
640.951	23.74
641.141	23.98
641.331	23.86
641.521	24
641.711	24.1
641.901	24.17
642.091	24.18
642.281	24.16
642.471	24.3
642.661	24.56
642.851	24.64
643.041	24.7
643.231	24.65
643.42	24.66
643.61	24.66
643.8	24.69
643.99	24.67
644.18	24.76
644.369	24.84
644.559	24.84
644.749	24.7
644.939	24.63
645.128	24.84
645.318	24.95
645.508	25.08
645.697	25.05
645.887	25
646.076	25.08
646.266	25.03
646.456	24.85
646.645	24.86
646.835	24.98
647.024	25.14
647.214	24.99
647.403	24.79
647.593	24.6
647.782	24.65
647.972	24.45
648.161	24.35
648.351	24.54
648.54	24.63
648.73	24.68
648.919	24.74
649.108	24.51
649.298	24.31
649.487	24.56
649.677	24.87
649.866	24.85
650.055	24.73
650.244	24.73
650.434	24.53
650.623	24.64
650.812	24.8
651.002	24.73
651.191	24.86
651.38	25.12
651.569	24.89
651.758	24.79
651.947	24.84
652.137	25.19
652.326	25.12
652.515	25.2
652.704	25.15
652.893	24.9
653.082	24.95
653.271	24.92
653.46	24.76
653.649	24.67
653.838	24.59
654.027	24.68
654.216	24.58
654.405	24.68
654.594	24.66
654.783	24.56
654.972	24.73
655.161	24.71
655.35	24.8
655.539	25.1
655.728	25.08
655.916	25.15
656.105	24.73
656.294	24.96
656.483	25.11
656.672	25.09
656.86	24.97
657.049	24.65
657.238	24.63
657.427	24.6
657.615	24.39
657.804	24.66
657.993	24.64
658.181	24.69
658.37	24.54
658.559	24.43
658.747	24.54
658.936	24.62
659.125	25.14
659.313	24.97
659.502	25.08
659.69	25.26
659.879	25.18
660.067	25.09
660.256	25.25
660.444	25.26
660.633	25.28
660.821	25.12
661.01	25.28
661.198	24.61
661.387	24.84
661.575	24.6
661.763	24.43
661.952	24.44
662.14	24.55
662.328	24.45
662.517	24.57
662.705	24.51
662.893	24.49
663.082	24.2
663.27	24.55
663.458	24.63
663.646	24.88
663.834	24.97
664.023	25
664.211	25.15
664.399	25.44
664.587	25.36
664.775	25.6
664.963	25.54
665.152	26.01
665.34	26.13
665.528	26.11
665.716	26.1
665.904	26.21
666.092	26.25
666.28	26.36
666.468	26.24
666.656	25.94
666.844	25.96
667.032	26.36
667.22	25.94
667.408	25.66
667.596	25.59
667.784	25.56
667.971	25.54
668.159	25.35
668.347	24.97
668.535	25.07
668.723	25.45
668.911	25.32
669.098	24.95
669.286	25.17
669.474	25.4
669.662	25.06
669.849	25.04
670.037	24.99
670.225	25.09
670.413	25.3
670.6	25.11
670.788	25.1
670.976	24.87
671.163	25.21
671.351	25.33
671.538	25.05
671.726	25.34
671.913	25.47
672.101	25.37
672.289	25.35
672.476	25.32
672.664	25.47
672.851	25.32
673.039	25.74
673.226	25.5
673.413	24.99
673.601	25.24
673.788	25.21
673.976	25.16
674.163	25.43
674.35	25.37
674.538	25.41
674.725	25.55
674.912	25.57
675.1	25.4
675.287	25.63
675.474	26.06
675.662	25.89
675.849	26.1
676.036	25.96
676.223	25.55
676.411	25.67
676.598	25.36
676.785	25.16
676.972	25.15
677.159	25.13
677.346	24.81
677.533	24.66
677.721	24.62
677.908	24.51
678.095	24.63
678.282	24.71
678.469	24.7
678.656	24.87
678.843	24.94
679.03	25.15
679.217	25.31
679.404	25.47
679.591	25.49
679.778	25.38
679.964	25.39
680.151	25.2
680.338	25.34
680.525	25.19
680.712	25.4
680.899	25.34
681.086	25.17
681.272	24.96
681.459	24.97
681.646	25.1
681.833	25.27
682.02	25.19
682.206	25.45
682.393	25.74
682.58	26.03
682.766	25.73
682.953	26.02
683.14	26.21
683.326	26.39
683.513	26.37
683.7	26.56
683.886	26.55
684.073	26.77
684.259	26.41
684.446	26.09
684.632	26
684.819	26.26
685.005	26.08
685.192	25.91
685.378	25.79
685.565	25.96
685.751	25.75
685.938	26.09
686.124	26.19
686.31	26.71
686.497	26.88
686.683	26.82
686.87	26.68
687.056	26.56
687.242	26.6
687.429	26.58
687.615	26.45
687.801	26.6
687.987	26.42
688.174	26.21
688.36	26.03
688.546	25.78
688.732	25.85
688.918	25.74
689.105	25.72
689.291	25.84
689.477	25.93
689.663	26.01
689.849	25.9
690.035	26.16
690.221	26.51
690.407	26.61
690.593	26.74
690.779	26.69
690.965	26.65
691.151	26.59
691.337	26.54
691.523	26.58
691.709	26.33
691.895	26.03
692.081	25.79
692.267	25.62
692.453	25.52
692.639	25.5
692.825	25.6
693.011	25.74
693.196	25.84
693.382	25.72
693.568	25.71
693.754	25.83
693.94	25.91
694.125	26
694.311	26.03
694.497	25.97
694.682	25.69
694.868	25.72
695.054	25.76
695.239	26.04
695.425	25.94
695.611	25.67
695.796	25.63
695.982	25.6
696.168	25.32
696.353	25.03
696.539	24.84
696.724	24.99
696.91	24.82
697.095	24.69
697.281	24.54
697.466	24.64
697.652	24.74
697.837	24.85
698.023	24.79
698.208	24.97
698.393	25.28
698.579	25.63
698.764	25.66
698.949	25.67
699.135	25.8
699.32	25.72
699.505	25.77
699.691	25.79
699.876	25.64
700.061	25.89
700.246	25.89
700.432	25.72
700.617	25.34
700.802	25.04
700.987	24.87
701.172	25.16
701.358	25.2
701.543	25.23
701.728	25.29
701.913	25.27
702.098	25.5
702.283	25.67
702.468	25.77
702.653	25.93
702.838	26.23
703.023	26.36
703.208	26.09
703.393	26.24
703.578	26.21
703.763	26.23
703.948	26.17
704.133	26.11
704.318	25.93
704.503	25.76
704.688	26.03
704.873	26.07
705.057	26.24
705.242	26.16
705.427	26.14
705.612	25.81
705.797	26
705.981	26.16
706.166	26.06
706.351	26.38
706.536	26.5
706.72	26.29
706.905	26.41
707.09	26.26
707.274	26.11
707.459	26.24
707.644	26.54
707.828	26.32
708.013	26.27
708.197	26.28
708.382	25.9
708.567	25.82
708.751	25.9
708.936	25.75
709.12	26.04
709.305	26.5
709.489	26.42
709.673	26.36
709.858	26.49
710.042	26.68
710.227	26.7
710.411	26.71
710.596	26.71
710.78	26.57
710.964	26.82
711.149	26.83
711.333	26.63
711.517	26.77
711.702	26.56
711.886	26.29
712.07	26.16
712.254	26.15
712.438	26.04
712.623	25.98
712.807	25.84
712.991	25.71
713.175	25.63
713.359	25.66
713.544	25.55
713.728	25.83
713.912	26.01
714.096	26.02
714.28	26.3
714.464	26.42
714.648	26.17
714.832	26.19
715.016	26.33
715.2	26.54
715.384	26.75
715.568	26.77
715.752	26.7
715.936	26.77
716.12	26.56
716.304	26.51
716.488	26.57
716.671	26.87
716.855	27.02
717.039	26.68
717.223	26.3
717.407	26.02
717.59	26.4
717.774	26.45
717.958	26.15
718.142	26.3
718.325	26
718.509	25.83
718.693	25.81
718.877	25.6
719.06	25.85
719.244	26.22
719.428	26.28
719.611	25.92
719.795	26.03
719.978	26.26
720.162	26.22
720.345	26.29
720.529	26.84
720.713	27.04
720.896	27.15
721.08	27.18
721.263	26.93
721.446	26.88
721.63	26.78
721.813	26.53
721.997	26.95
722.18	26.73
722.364	26.75
722.547	26.38
722.73	26
722.914	26.37
723.097	25.97
723.28	26.09
723.464	26.35
723.647	26.28
723.83	26.5
724.013	26.56
724.197	27.19
724.38	26.81
724.563	26.73
724.746	27.32
724.929	27.12
725.112	27.3
725.296	26.8
725.479	26.88
725.662	26.74
725.845	26.91
726.028	26.74
726.211	26.54
726.394	26.89
726.577	26.94
726.76	26.54
726.943	26.31
727.126	26.65
727.309	26.73
727.492	26.45
727.675	26.33
727.858	26.02
728.041	25.69
728.224	25.8
728.407	25.99
728.589	26.11
728.772	26.15
728.955	26.52
729.138	26.2
729.321	26.52
729.503	26.6
729.686	26.71
729.869	26.97
730.052	27.29
730.234	26.72
730.417	26.78
730.6	26.78
730.782	26.83
730.965	26.32
731.148	26.18
731.33	26.25
731.513	26.12
731.695	26.1
731.878	26.01
732.061	25.87
732.243	26.52
732.426	26.02
732.608	26.07
732.791	26.08
732.973	26.24
733.156	26.49
733.338	26.31
733.52	26.55
733.703	26.36
733.885	26.81
734.068	26.76
734.25	26.51
734.432	26.86
734.615	26.54
734.797	27.09
734.979	27.65
735.162	27.52
735.344	27.44
735.526	27.2
735.708	27.36
735.891	26.63
736.073	26.43
736.255	26.39
736.437	26.43
736.619	26.59
736.802	25.86
736.984	25.48
737.166	25.62
737.348	26
737.53	25.71
737.712	26.16
737.894	25.96
738.076	26.28
738.258	26.24
738.44	26.09
738.622	25.91
738.804	25.95
738.986	25.65
739.168	25.88
739.35	25.93
739.532	26.3
739.714	25.81
739.896	26.17
740.078	26.48
740.259	26.18
740.441	25.97
740.623	25.81
740.805	26.34
740.987	26.82
741.168	26.26
741.35	26.73
741.532	26.66
741.714	26.78
741.895	26.53
742.077	26.4
742.259	26.92
742.44	27.37
742.622	27.53
742.804	26.91
742.985	26.68
743.167	26.48
743.348	26.23
743.53	26.07
743.711	26.2
743.893	26.55
744.075	26.1
744.256	25.81
744.438	25.71
744.619	25.51
744.8	25.57
744.982	25.59
745.163	26.16
745.345	25.41
745.526	25.37
745.707	25.77
745.889	26.27
746.07	26.49
746.252	26.72
746.433	26.02
746.614	26.44
746.795	26.83
746.977	26.89
747.158	26.77
747.339	26.83
747.52	27.22
747.702	27.08
747.883	26.52
748.064	26.49
748.245	25.83
748.426	26.71
748.607	27.28
748.788	27.3
748.97	27.72
749.151	28.39
749.332	28.47
749.513	28.69
749.694	28.32
749.875	28.85
750.056	29.39
750.237	30.23
750.418	29.55
750.599	29.18
750.78	28.81
750.96	28.56
751.141	28.22
751.322	27.66
751.503	27.43
751.684	27.85
751.865	27.13
752.046	26.76
752.226	26.08
752.407	26.52
752.588	26.09
752.769	26.48
752.949	25.97
753.13	25.73
753.311	26.33
753.492	25.52
753.672	25.13
753.853	25.65
754.034	25.43
754.214	26.36
754.395	26.24
754.575	26.81
754.756	26.38
754.937	26.64
755.117	26.58
755.298	26.67
755.478	27.72
755.659	27.46
755.839	27.51
756.02	27.19
756.2	26.56
756.381	26.71
756.561	26.4
756.741	26.8
756.922	26.62
757.102	26.6
757.283	27.09
757.463	26.58
757.643	27.09
757.823	27.04
758.004	27.5
758.184	28.19
758.364	27.7
758.545	27.8
758.725	27.36
758.905	27.6
759.085	27.53
759.265	26.76
759.446	26.82
759.626	26.73
759.806	26.4
759.986	26.04
760.166	25.63
760.346	25.89
760.526	25.94
760.706	26.45
760.886	26.58
761.066	26.48
761.246	27.02
761.426	27.84
761.606	28.01
761.786	28.29
761.966	28.41
762.146	28.04
762.326	28.19
762.506	28.3
762.686	27.82
762.866	27.86
763.046	27.99
763.225	28.04
763.405	27.76
763.585	27.8
763.765	27.35
763.945	27.32
764.124	27.79
764.304	27.51
764.484	27.25
764.664	27.48
764.843	27.05
765.023	26.94
765.203	26.42
765.382	26.22
765.562	26.12
765.741	26.37
765.921	26.65
766.101	26.5
766.28	26.15
766.46	25.57
766.639	25.75
766.819	25.93
766.998	26.14
767.178	26.64
767.357	26.53
767.537	26.29
767.716	26.41
767.896	25.88
768.075	25.24
768.254	25.89
768.434	26.7
768.613	26.69
768.792	26.91
768.972	27.01
769.151	26.74
769.33	27.52
769.51	27.39
769.689	27.63
769.868	27.82
770.047	28.81
770.226	29.38
770.406	29.19
770.585	28.54
770.764	27.98
770.943	27.48
771.122	27.4
771.301	26.82
771.48	26.59
771.66	26.68
771.839	26.64
772.018	26.39
772.197	25.73
772.376	25.72
772.555	26.09
772.734	26.56
772.913	27.21
773.092	27.48
773.271	27.21
773.449	27.26
773.628	27.28
773.807	27.54
773.986	27.38
774.165	27.36
774.344	27.61
774.523	28.03
774.701	27.26
774.88	27.12
775.059	26.38
775.238	26.61
775.417	26.76
775.595	26.57
775.774	26.58
775.953	26.95
776.131	27.2
776.31	26.74
776.489	26.58
776.667	27.36
776.846	27.64
777.025	28.53
777.203	28.1
777.382	28.64
777.56	28.13
777.739	28.34
777.917	27.59
778.096	27.56
778.274	26.7
778.453	26.19
778.631	26.68
778.81	26.29
778.988	26.66
779.166	26.71
779.345	26.71
779.523	26.82
779.702	26.76
779.88	26.76
780.058	26.2
780.237	26.62
780.415	27.11
780.593	27.81
780.771	28.33
780.95	28.35
781.128	29.05
781.306	28.96
781.484	29.1
781.662	28.23
781.841	28.49
782.019	28.95
782.197	30.08
782.375	29.92
782.553	28.37
782.731	27.96
782.909	26.62
783.087	26.41
783.265	26.61
783.443	27.33
783.621	27.82
783.799	28.62
783.977	29.8
784.155	29.45
784.333	29.49
784.511	30.37
784.689	30.3
784.867	31.76
785.045	31.4
785.223	30.14
785.4	29.72
785.578	29.73
785.756	29.12
785.934	27.31
786.112	26.73
786.289	27.15
786.467	26.43
786.645	26.32
786.823	24.87
787	24.6
787.178	25.08
787.356	24.79
787.533	25.02
787.711	24.76
787.889	25.92
788.066	26.77
788.244	26.14
788.421	26.77
788.599	26.58
788.776	27.09
788.954	27.4
789.131	27.71
789.309	28
789.486	28.4
789.664	29.58
789.841	29.17
790.019	29.15
790.196	29.63
790.373	29.55
790.551	29.53
790.728	29.4
790.906	29.26
791.083	29.45
791.26	28.87
791.437	27.97
791.615	27.8
791.792	27.87
791.969	27.18
792.146	27.05
792.324	27.12
792.501	27.85
792.678	28.75
792.855	29.77
793.032	29.88
793.209	29.61
793.387	30.71
793.564	30.08
793.741	30.01
793.918	30.87
794.095	30.57
794.272	30.18
794.449	29.73
794.626	30.1
794.803	29.39
794.98	28.66
795.157	28.97
795.334	28.3
795.511	28.03
795.688	27.62
795.864	25.79
796.041	26.3
796.218	26.96
796.395	26.52
796.572	25.98
796.749	26.55
796.925	27.29
797.102	27.71
797.279	27.28
797.456	28.28
797.632	28.06
797.809	30.08
797.986	29.84
798.162	29.11
798.339	29.9
798.516	30.01
798.692	29.54
798.869	30.05
799.046	29.07
799.222	29.43
799.399	29.27
799.575	30.72
799.752	30.01
799.928	29.87
800.105	28.9
800.281	28.03
800.458	27.13
800.634	27.45
800.811	25.63
800.987	26.03
801.163	26.73
801.34	25.4
801.516	25.37
801.692	24.11
801.869	24.53
802.045	26.02
802.221	26.79
802.398	26.31
802.574	25.77
802.75	26.9
802.926	27.01
803.103	26.99
803.279	26.99
803.455	25.49
803.631	27.41
803.807	27.26
803.983	26.95
804.16	26.44
804.336	27.75
804.512	28.62
804.688	28.64
804.864	29.13
805.04	28.6
805.216	28.86
805.392	29.61
805.568	28.99
805.744	28.79
805.92	29.43
806.096	29.45
806.272	29.61
806.448	29.04
806.623	28.96
806.799	29.75
806.975	30.01
807.151	29.91
807.327	29.59
807.503	29.45
807.678	29.47
807.854	28.2
808.03	30.03
808.206	28.94
808.381	28.36
808.557	29.16
808.733	28.23
808.908	27.95
809.084	28.66
809.26	29.09
809.435	29.68
809.611	29.91
809.787	30.42
809.962	27.76
810.138	27.72
810.313	28.62
810.489	28.17
810.664	28.1
810.84	28.77
811.015	29.67
811.191	30.24
811.366	30.01
811.542	29.64
811.717	29.02
811.892	30.53
812.068	30.78
812.243	29.5
812.419	28.26
812.594	28.02
812.769	26.78
812.944	25.46
813.12	24.21
813.295	24.3
813.47	24.2
813.645	25.54
813.821	25.19
813.996	25.11
814.171	25.69
814.346	25.6
814.521	26.36
814.697	26.56
814.872	25.72
815.047	26.36
815.222	26.63
815.397	27
815.572	27.03
815.747	27.56
815.922	27.56
816.097	27.81
816.272	27.72
816.447	27.47
816.622	27.5
816.797	29.14
816.972	28.35
817.147	27.2
817.322	26.51
817.496	26.43
817.671	25.7
817.846	27.01
818.021	27.49
818.196	28.23
818.371	28.15
818.545	28.25
818.72	27.78
818.895	28.27
819.069	29.24
819.244	30.38
819.419	30.23
819.594	30.06
819.768	29.63
819.943	28.46
820.117	28.02
820.292	27.96
820.467	27.56
820.641	27.21
820.816	27.15
820.99	26.49
821.165	26.09
821.339	25.77
821.514	25.85
821.688	25.74
821.863	25.79
822.037	25.94
822.212	25.82
822.386	26.13
822.56	26.13
822.735	26.36
822.909	26.77
823.084	26.79
823.258	27.07
823.432	27.01
823.606	27.08
823.781	27.33
823.955	27.32
824.129	27.54
824.303	27.33
824.478	27.47
824.652	27.01
824.826	26.92
825	27.38
825.174	27.1
825.348	27.23
825.523	27.35
825.697	27.37
825.871	27.4
826.045	27.51
826.219	27.26
826.393	27.34
826.567	27.56
826.741	27.29
826.915	26.74
827.089	27.22
827.263	27.34
827.437	27.21
827.611	27.06
827.784	27.2
827.958	27
828.132	27.47
828.306	27.54
828.48	27.26
828.654	27.61
828.827	27.65
829.001	26.98
829.175	26.71
829.349	27.23
829.522	27.55
829.696	27.8
829.87	27.44
830.044	27.63
830.217	28.32
830.391	28.88
830.565	29.18
830.738	29.25
830.912	29.94
831.085	30.35
831.259	29.45
831.432	29.13
831.606	29.03
831.779	28.58
831.953	28.39
832.126	27.33
832.3	26.98
832.473	26.45
832.647	27.63
832.82	27.82
832.994	27.72
833.167	27.57
833.34	27.81
833.514	27.44
833.687	28.04
833.86	27.56
834.034	27.44
834.207	26.99
834.38	26.77
834.553	26
834.727	26.13
834.9	25.91
835.073	26.63
835.246	26.58
835.419	26.94
835.593	27.58
835.766	28.14
835.939	29.02
836.112	29.6
836.285	30.52
836.458	30.56
836.631	30.39
836.804	30.46
836.977	30.5
837.15	30.53
837.323	30.5
837.496	30.14
837.669	28.9
837.842	29.55
838.015	29.87
838.188	29.79
838.361	29.85
838.533	30.56
838.706	31.27
838.879	30.67
839.052	31.37
839.225	32.19
839.398	32.4
839.57	34.23
839.743	33.57
839.916	34.79
840.088	35.51
840.261	36.23
840.434	36.57
840.607	37.22
840.779	38.14
840.952	37.57
841.124	34.8
841.297	34.54
841.47	33.84
841.642	33.3
841.815	32.34
841.987	31.24
842.16	31.85
842.332	31.31
842.505	30.01
842.677	27.92
842.85	28.61
843.022	31.57
843.194	31.67
843.367	31.11
843.539	29.14
843.712	28.6
843.884	30.68
844.056	31.45
844.229	28.91
844.401	29.5
844.573	31.36
844.745	30.07
844.918	30.64
845.09	30.46
845.262	31.13
845.434	33.53
845.606	34.34
845.779	32.51
845.951	32.5
846.123	31.75
846.295	33.16
846.467	32.51
846.639	34.66
846.811	33.77
846.983	33.85
847.155	33.67
847.327	35.87
847.499	36.49
847.671	36.2
847.843	32.42
848.015	33.34
848.187	30.29
848.359	29.19
848.531	28.5
848.703	27.42
848.875	27.35
849.047	29.29
849.218	27.83
849.39	29.18
849.562	28.25
849.734	31.61
849.905	34.02
850.077	36.46
850.249	35.45
850.421	35.34
850.592	37.48
850.764	35.2
850.936	34.37
851.107	36.46
851.279	34.47
851.451	35.82
851.622	35.45
851.794	34.72
851.965	36.3
852.137	38.04
852.308	39.52
852.48	43.25
852.651	47.35
852.823	48.02
852.994	46.64
853.166	45.41
853.337	43.05
853.509	45.82
853.68	44.38
853.851	40.5
854.023	42.65
854.194	40.93
854.365	38.16
854.537	37.22
854.708	34.39
854.879	34.17
855.05	36.58
855.222	37.19
855.393	35.44
855.564	37.62
855.735	41.21
855.906	38.63
856.078	38.6
856.249	39.98
856.42	41.6
856.591	43.46
856.762	41.24
856.933	40.09
857.104	38.99
857.275	37.93
857.446	35.78
857.617	35.13
857.788	37.62
857.959	39.89
858.13	35.55
858.301	32.55
858.472	33.19
858.643	32.76
858.814	33.41
858.985	36.2
859.155	36.94
859.326	40.5
859.497	37.25
859.668	32.29
859.839	30.34
860.009	31.96
860.18	30.19
860.351	28.96
860.522	28.9
860.692	28.79
860.863	27.79
861.034	27.19
861.204	24.44
861.375	26.04
861.546	29.5
861.716	25.75
861.887	26.58
862.057	31.72
862.228	29.51
862.398	34.45
862.569	31.23
862.739	27.99
862.91	27.23
863.08	25.91
863.251	25.89
863.421	25.5
863.592	32.6
863.762	32.76
863.932	28.82
864.103	32.03
864.273	31.33
864.443	35.32
864.614	38.12
864.784	35.71
864.954	38.38
865.125	37.92
865.295	37.21
865.465	37.37
865.635	34.76
865.805	33.08
865.976	33.02
866.146	28.42
866.316	27.17
866.486	26.44
866.656	29.25
866.826	30.55
866.996	28.86
867.166	29.99
867.336	28.32
867.506	31.02
867.676	32.85
867.846	32.29
868.016	34.24
868.186	34.95
868.356	37.22
868.526	39.86
868.696	38.69
868.866	39.83
869.036	41.84
869.206	40.52
869.376	41.13
869.545	39.92
869.715	41.12
869.885	44.76
870.055	44.14
870.224	45.39
870.394	44.52
870.564	46.66
870.734	49.77
870.903	44.78
871.073	44.98
871.243	43.65
871.412	47.36
871.582	45.89
871.751	44.63
871.921	40.58
872.091	39.38
872.26	36.9
872.43	31.51
872.599	32.22
872.769	32.62
872.938	38.34
873.108	35.59
873.277	32.67
873.446	34.06
873.616	33.2
873.785	34.47
873.955	35.61
874.124	35.38
874.293	38.21
874.463	36.51
874.632	34.97
874.801	28.82
874.971	28.37
875.14	28.61
875.309	26.95
875.478	26.22
875.647	26.46
875.817	23.1
875.986	24.9
876.155	23.54
876.324	25.29
876.493	31.92
876.662	31.35
876.831	32.23
877	32.82
877.17	33.77
877.339	37.85
877.508	40.83
877.677	40.05
877.846	37.45
878.015	36.48
878.184	33.45
878.352	31.55
878.521	32.89
878.69	35.27
878.859	33.92
879.028	31.43
879.197	28.89
879.366	28.16
879.534	27.9
879.703	28.83
879.872	27.95
880.041	27.39
880.21	26.64
880.378	27.62
880.547	25.9
880.716	27.47
880.884	28.27
881.053	27.64
881.222	27.21
881.39	26.35
881.559	26.66
881.727	26.9
881.896	27.38
882.065	27.26
882.233	27.47
882.402	28.06
882.57	27.67
882.739	27.62
882.907	28.15
883.076	29.18
883.244	30.05
883.412	29.29
883.581	30
883.749	30.31
883.918	30.84
884.086	30.97
884.254	31.81
884.423	31.5
884.591	31.38
884.759	31.52
884.927	29.63
885.096	29.78
885.264	30.53
885.432	30.09
885.6	29.36
885.769	28.92
885.937	27.75
886.105	26.55
886.273	26.9
886.441	29.25
886.609	29.33
886.777	30.21
886.945	30.57
887.113	29.97
887.281	29.33
887.449	29.34
887.617	29.02
887.785	27.53
887.953	27.97
888.121	28.56
888.289	26.72
888.457	26.12
888.625	28.66
888.793	25.12
888.961	29.75
889.129	31.82
889.296	34.08
889.464	36.25
889.632	40.07
889.8	40.04
889.967	39.48
890.135	38.76
