Data from 2938490_Reflection_2.txt Node
Date: Wed Jun 17 00:46:41 EDT 2015
User: robert
Spectrometer: USB4E03002
Autoset integration time: false
Trigger mode: 4
Integration Time (sec): 1.000000E-1
Scans to average: 10
Electric dark correction enabled: true
Nonlinearity correction enabled: false
Boxcar width: 5
Stray light correction enabled: false
XAxis mode: Wavelengths
Stop averaging: false
Number of Pixels in Spectrum: 3648
>>>>>Begin Spectral Data<<<<<
177.575	42.86
177.794	-85.17
178.014	208.49
178.233	259.78
178.452	191.3
178.672	177.24
178.891	88.15
179.11	-139.22
179.33	-22.21
179.549	15105.26
179.768	-2.97
179.987	25.37
180.207	-53.7
180.426	0.12
180.645	0.73
180.864	-0.33
181.084	32.79
181.303	-33.66
181.522	30.28
181.741	19.14
181.96	79.19
182.179	38.35
182.398	-140.03
182.618	-68.76
182.837	-75.71
183.056	-5.52
183.275	22.55
183.494	-49.46
183.713	90.66
183.932	-4600
184.151	-320.83
184.37	-42.98
184.589	31.78
184.808	83.15
185.027	113.16
185.246	140.23
185.465	10.09
185.684	18.91
185.903	-94.14
186.122	223.78
186.341	-416.02
186.56	-190.7
186.779	-46.69
186.998	-42.31
187.216	13.41
187.435	-131.29
187.654	-47.13
187.873	26.88
188.092	29.11
188.311	26.52
188.53	60.14
188.748	63.83
188.967	74.75
189.186	53.85
189.405	27.53
189.623	21.56
189.842	27.06
190.061	-13.31
190.28	-277.63
190.498	-67.87
190.717	-86.22
190.936	-142.79
191.154	-51.32
191.373	10.18
191.592	253.33
191.81	299.49
192.029	613.54
192.248	-318.49
192.466	1765.52
192.685	318.78
192.904	600.82
193.122	480.03
193.341	416.37
193.559	709.51
193.778	356.95
193.996	193.92
194.215	159.84
194.433	135.96
194.652	163.61
194.87	165.11
195.089	100.9
195.307	71.92
195.526	50.58
195.744	37.35
195.963	9.55
196.181	6.03
196.399	-0.79
196.618	-38.68
196.836	-37.53
197.055	-67.68
197.273	-12.57
197.491	-7.83
197.71	7.47
197.928	-75.14
198.146	-33.4
198.365	-6.46
198.583	-31.95
198.801	-132.64
199.019	-79.62
199.238	-73.69
199.456	-18.69
199.674	-127.06
199.892	-67
200.111	-2690.99
200.329	-449.21
200.547	89.06
200.765	43.08
200.983	298.78
201.202	318.04
201.42	-348.36
201.638	13543.48
201.856	-1778.36
202.074	163.06
202.292	203.9
202.51	116.91
202.728	93.84
202.946	-69.64
203.165	-391.68
203.383	263.42
203.601	171.05
203.819	119.32
204.037	33.87
204.255	21.26
204.473	57.61
204.691	49.99
204.909	90.44
205.127	98.6
205.345	92.99
205.562	83.12
205.78	57.77
205.998	99.55
206.216	99.49
206.434	387.55
206.652	-107.37
206.87	52.68
207.088	80.18
207.306	-21.39
207.523	-155.62
207.741	1664.43
207.959	191.64
208.177	43.38
208.395	1007.01
208.612	-35.72
208.83	150.77
209.048	72.36
209.266	278.87
209.483	-161.67
209.701	-108.82
209.919	146.65
210.136	109.41
210.354	-26.88
210.572	-24.18
210.79	69.32
211.007	-52.86
211.225	-49.66
211.442	-4543.48
211.66	145.46
211.878	406.38
212.095	-663.89
212.313	2039.38
212.53	885.68
212.748	-356.23
212.966	-340.6
213.183	2100.21
213.401	487.25
213.618	301.07
213.836	424.68
214.053	2384.02
214.271	2500.65
214.488	102.08
214.705	100.25
214.923	476.43
215.14	169.01
215.358	89.49
215.575	54.18
215.793	-104.23
216.01	113.09
216.227	32.95
216.445	138.3
216.662	88.04
216.879	97.15
217.097	98.8
217.314	62.84
217.531	69.12
217.749	101.78
217.966	140.73
218.183	87.87
218.4	59.84
218.618	26.26
218.835	17.19
219.052	25.1
219.269	10.04
219.487	23.22
219.704	6.19
219.921	1.41
220.138	4.54
220.355	-1.22
220.572	-1.66
220.79	8.47
221.007	-1.56
221.224	-11.92
221.441	-4.98
221.658	1.48
221.875	-46.2
222.092	-25.12
222.309	-15.56
222.526	-15.33
222.743	-14.29
222.96	1.18
223.177	-7.88
223.394	8.07
223.611	15.16
223.828	8.91
224.045	6.29
224.262	10.64
224.479	9.99
224.696	14.21
224.913	10.89
225.13	18.18
225.347	12.59
225.564	16.5
225.781	13.72
225.997	15.42
226.214	17.39
226.431	18.48
226.648	18.85
226.865	19.33
227.082	19.34
227.298	16.74
227.515	15.04
227.732	16.33
227.949	13.8
228.165	14.22
228.382	12.04
228.599	10.19
228.816	9.91
229.032	10.05
229.249	9.01
229.466	6.86
229.682	9.7
229.899	8.61
230.116	5.96
230.332	7.47
230.549	10.19
230.765	11.98
230.982	13.1
231.199	13.26
231.415	13.54
231.632	14.05
231.848	12.56
232.065	10.12
232.281	13.09
232.498	17.03
232.714	15.81
232.931	12.83
233.147	12.64
233.364	13.78
233.58	13.67
233.797	14.95
234.013	13.84
234.23	14.88
234.446	18.01
234.662	16.8
234.879	17.54
235.095	18.01
235.312	16.63
235.528	17.83
235.744	16.08
235.961	15.1
236.177	12.23
236.393	14.94
236.61	14.5
236.826	11.63
237.042	12.58
237.258	10.9
237.475	11.29
237.691	15.36
237.907	15.45
238.123	16.09
238.339	17.01
238.556	18.01
238.772	18.3
238.988	19.36
239.204	20.23
239.42	21.16
239.636	20.43
239.853	20.45
240.069	19.41
240.285	19.5
240.501	20.01
240.717	19.6
240.933	19.55
241.149	19.06
241.365	19.59
241.581	19.79
241.797	19.85
242.013	20.04
242.229	20.15
242.445	20.27
242.661	19.05
242.877	20.23
243.093	20.49
243.309	20.76
243.525	20.39
243.741	20.85
243.957	19.89
244.173	19.52
244.388	20.46
244.604	20.32
244.82	20.32
245.036	21.28
245.252	20.47
245.468	20.42
245.683	20.88
245.899	20.5
246.115	19.89
246.331	20.11
246.547	19.48
246.762	18.96
246.978	19.19
247.194	18.87
247.409	18.56
247.625	18.39
247.841	18.34
248.057	17.31
248.272	17.41
248.488	16.85
248.703	17.12
248.919	18.12
249.135	17.92
249.35	17.51
249.566	17.32
249.782	17.3
249.997	17.88
250.213	17.46
250.428	17
250.644	17.18
250.859	17.57
251.075	17.97
251.29	16.85
251.506	16.6
251.721	16.03
251.937	16.83
252.152	16.49
252.368	16.1
252.583	16.96
252.798	16.88
253.014	17.13
253.229	16.68
253.445	15.21
253.66	16.34
253.875	16.63
254.091	17.01
254.306	16.17
254.521	14.25
254.737	14.21
254.952	13.58
255.167	14.3
255.383	13.72
255.598	13.35
255.813	14.27
256.028	14.49
256.244	15.07
256.459	15.5
256.674	15.89
256.889	16.38
257.104	15.74
257.32	15.63
257.535	15.47
257.75	16.1
257.965	16.58
258.18	16.66
258.395	16.87
258.61	16.86
258.826	16.19
259.041	16.03
259.256	15.86
259.471	16.02
259.686	16.11
259.901	16.04
260.116	15.46
260.331	15.47
260.546	14.95
260.761	14.36
260.976	13.59
261.191	13.86
261.406	14
261.621	15
261.836	15.43
262.05	15.95
262.265	16.27
262.48	16.67
262.695	16.19
262.91	16.23
263.125	15.76
263.34	15.3
263.555	15.51
263.769	15.34
263.984	14.85
264.199	15.41
264.414	14.7
264.629	13.7
264.843	13.51
265.058	14.09
265.273	13.73
265.488	14.44
265.702	15.16
265.917	14.76
266.132	14.8
266.346	14.46
266.561	13.89
266.776	13.2
266.99	13.65
267.205	13.44
267.42	13.13
267.634	13.6
267.849	13.26
268.063	12.44
268.278	12.69
268.492	12.63
268.707	12.37
268.922	12.25
269.136	13.16
269.351	13.29
269.565	13.22
269.78	12.93
269.994	12.81
270.209	12.58
270.423	12.98
270.637	13.12
270.852	13.72
271.066	13.94
271.281	13.46
271.495	13.63
271.709	13.26
271.924	13.17
272.138	13.34
272.353	13.52
272.567	13.88
272.781	13.74
272.996	13.63
273.21	12.8
273.424	12.95
273.638	13.3
273.853	12.83
274.067	13.11
274.281	14.33
274.495	14.32
274.71	13.99
274.924	13.74
275.138	13.57
275.352	13.7
275.566	13.3
275.781	13.37
275.995	14.04
276.209	13.94
276.423	14.88
276.637	13.7
276.851	13
277.065	13.29
277.279	13.51
277.493	14.02
277.707	13.72
277.921	14.36
278.135	14.78
278.349	13.97
278.563	14.58
278.777	13.8
278.991	14.04
279.205	14.32
279.419	13.96
279.633	13.85
279.847	13.65
280.061	13.75
280.275	13.46
280.489	13.17
280.703	13.97
280.917	14.1
281.131	14.72
281.344	14.35
281.558	14.23
281.772	14.59
281.986	14.61
282.2	14.84
282.414	14.71
282.627	14.66
282.841	14.55
283.055	13.85
283.269	13.53
283.482	13.11
283.696	13.25
283.91	13.71
284.123	13.7
284.337	13.73
284.551	13.6
284.764	13.88
284.978	13.81
285.192	13.58
285.405	14.12
285.619	13.87
285.833	13.48
286.046	13.92
286.26	14.01
286.473	13.51
286.687	13.41
286.9	13.53
287.114	13.72
287.327	14.17
287.541	14.67
287.754	14.35
287.968	14.6
288.181	14.68
288.395	14.74
288.608	14.22
288.822	14.44
289.035	14.65
289.248	14.88
289.462	14.65
289.675	14.59
289.889	14.51
290.102	14.38
290.315	14.11
290.529	14.43
290.742	14.49
290.955	15.14
291.169	15.1
291.382	15.21
291.595	15.28
291.808	15.7
292.022	15.16
292.235	15.27
292.448	15.21
292.661	15.52
292.875	15.86
293.088	15.6
293.301	15.84
293.514	16.14
293.727	16.53
293.94	17.06
294.153	17.02
294.367	17.4
294.58	17.62
294.793	18.04
295.006	17.95
295.219	17.71
295.432	18.06
295.645	17.6
295.858	17.81
296.071	17.27
296.284	17.06
296.497	16.92
296.71	16.87
296.923	16.68
297.136	16.4
297.349	16.83
297.562	16.89
297.775	16.58
297.988	16.76
298.201	16.8
298.414	17.01
298.626	16.65
298.839	17.16
299.052	17.7
299.265	17.8
299.478	17.62
299.691	17.57
299.903	17.79
300.116	17.73
300.329	18.01
300.542	17.69
300.755	17.42
300.967	17.69
301.18	17.19
301.393	16.93
301.605	16.99
301.818	17.15
302.031	16.93
302.243	16.84
302.456	16.81
302.669	16.86
302.881	17.36
303.094	17.86
303.307	17.59
303.519	18.03
303.732	18.28
303.944	18.16
304.157	18.64
304.37	18.59
304.582	18.57
304.795	18.81
305.007	18.78
305.22	18.59
305.432	18.74
305.645	18.82
305.857	18.28
306.069	17.97
306.282	17.82
306.494	17.8
306.707	18.25
306.919	18.51
307.132	18.44
307.344	18.87
307.556	18.88
307.769	19.07
307.981	19.4
308.193	19.69
308.406	19.74
308.618	20.02
308.83	20.32
309.043	19.87
309.255	19.81
309.467	20.26
309.679	19.57
309.892	19.36
310.104	19.41
310.316	19.35
310.528	19.22
310.74	18.98
310.953	18.6
311.165	18.19
311.377	18.25
311.589	18.03
311.801	17.38
312.013	17.6
312.225	17.55
312.437	16.68
312.649	16.59
312.862	16.63
313.074	17.01
313.286	17.11
313.498	17.08
313.71	17.18
313.922	17.42
314.134	17.5
314.346	17.74
314.558	17.9
314.77	18.59
314.982	18.36
315.193	18.28
315.405	18.38
315.617	19.1
315.829	18.87
316.041	18.74
316.253	18.65
316.465	18.67
316.677	18.4
316.888	18.17
317.1	18.07
317.312	18.33
317.524	18.38
317.736	18.68
317.947	18.39
318.159	18.75
318.371	18.48
318.583	18.83
318.794	18.78
319.006	18.44
319.218	19.55
319.43	19.09
319.641	18.77
319.853	18.91
320.064	18.83
320.276	18.59
320.488	17.82
320.699	18.24
320.911	18.42
321.123	18.53
321.334	18.94
321.546	17.84
321.757	17.53
321.969	17.52
322.18	17.43
322.392	17.02
322.603	17.26
322.815	17.61
323.026	17.35
323.238	16.72
323.449	17.03
323.661	16.8
323.872	17.17
324.083	17.85
324.295	17.57
324.506	17.2
324.718	17.31
324.929	16.88
325.14	17.2
325.352	17.13
325.563	17.26
325.774	17.2
325.986	17.4
326.197	17.25
326.408	16.98
326.62	17.32
326.831	18
327.042	17.9
327.253	17.51
327.464	17.81
327.676	17.86
327.887	17.95
328.098	17.88
328.309	17.93
328.52	17.76
328.732	17.63
328.943	17.67
329.154	17.24
329.365	17.4
329.576	18.06
329.787	17.26
329.998	17.48
330.209	17.18
330.42	17.91
330.631	18.14
330.842	18.16
331.053	18.47
331.264	18.53
331.475	18.29
331.686	18.34
331.897	18.27
332.108	18.72
332.319	18.76
332.53	18.88
332.741	18.3
332.952	18
333.163	18.06
333.374	17.87
333.585	17.72
333.795	17.88
334.006	17.55
334.217	17.42
334.428	17.12
334.639	17.17
334.849	17.42
335.06	17.43
335.271	17.09
335.482	17.21
335.692	17.42
335.903	17.48
336.114	17.56
336.325	17.49
336.535	17.7
336.746	18.06
336.957	18.17
337.167	17.91
337.378	17.56
337.589	18.06
337.799	17.65
338.01	17.46
338.22	17.25
338.431	16.91
338.642	17.27
338.852	17.32
339.063	17.5
339.273	16.8
339.484	16.66
339.694	16.71
339.905	16.43
340.115	16.76
340.326	16.36
340.536	16.81
340.746	16.99
340.957	16.94
341.167	16.7
341.378	16.27
341.588	16.49
341.799	16.67
342.009	16.78
342.219	16.78
342.43	16.66
342.64	17.24
342.85	17.1
343.061	17.12
343.271	17.11
343.481	17.34
343.691	17.24
343.902	17.34
344.112	17.62
344.322	17.43
344.532	17.42
344.743	17.45
344.953	17.17
345.163	16.66
345.373	16.64
345.583	16.51
345.793	16.07
346.004	16.3
346.214	15.97
346.424	15.95
346.634	16.48
346.844	16.33
347.054	16.33
347.264	16.4
347.474	16.83
347.684	16.82
347.894	16.74
348.104	17.03
348.314	16.73
348.524	16.9
348.734	16.45
348.944	15.83
349.154	15.94
349.364	16.01
349.574	15.89
349.784	15.46
349.994	15.21
350.204	15.51
350.413	15.29
350.623	15.29
350.833	15.64
351.043	15.53
351.253	15.49
351.463	15.37
351.672	15.05
351.882	15.46
352.092	15.63
352.302	16.01
352.511	15.65
352.721	15.88
352.931	15.97
353.141	15.8
353.35	15.74
353.56	15.76
353.77	15.86
353.979	16.01
354.189	15.28
354.399	15.18
354.608	15.11
354.818	15.16
355.027	14.66
355.237	14.53
355.447	14.71
355.656	14.55
355.866	14.61
356.075	14.71
356.285	14.71
356.494	14.83
356.704	14.83
356.913	14.8
357.123	14.67
357.332	14.94
357.542	14.83
357.751	14.47
357.96	14.77
358.17	14.9
358.379	14.71
358.589	14.64
358.798	14.88
359.007	14.77
359.217	14.51
359.426	14.71
359.635	14.64
359.845	14.71
360.054	14.77
360.263	14.71
360.472	14.59
360.682	14.6
360.891	14.54
361.1	14.61
361.309	14.65
361.519	14.65
361.728	14.27
361.937	14.36
362.146	14.3
362.355	14.31
362.564	14.47
362.774	14.3
362.983	14.19
363.192	14.12
363.401	13.82
363.61	14.05
363.819	14.15
364.028	14.26
364.237	14.01
364.446	13.92
364.655	13.73
364.864	13.48
365.073	13.63
365.282	13.77
365.491	14.09
365.7	14.27
365.909	13.69
366.118	13.56
366.327	13.78
366.536	13.78
366.745	14.08
366.954	14.28
367.162	14.27
367.371	14.37
367.58	14.35
367.789	14.12
367.998	13.75
368.207	14.09
368.415	13.97
368.624	13.88
368.833	13.93
369.042	13.86
369.25	13.84
369.459	13.73
369.668	13.64
369.877	13.56
370.085	13.48
370.294	13.71
370.503	13.98
370.711	14.2
370.92	14.25
371.129	14.19
371.337	13.92
371.546	13.69
371.754	13.7
371.963	13.69
372.171	13.48
372.38	13.56
372.589	13.51
372.797	13.1
373.006	12.86
373.214	12.63
373.423	12.63
373.631	12.77
373.84	12.95
374.048	12.98
374.256	13
374.465	13.1
374.673	13.09
374.882	12.96
375.09	12.89
375.298	12.92
375.507	12.79
375.715	13.03
375.923	13.01
376.132	12.92
376.34	12.82
376.548	12.8
376.757	12.96
376.965	12.59
377.173	12.67
377.381	12.79
377.59	12.88
377.798	13.16
378.006	12.96
378.214	12.76
378.423	12.7
378.631	12.71
378.839	12.67
379.047	12.64
379.255	12.9
379.463	12.75
379.671	12.63
379.879	12.61
380.088	12.43
380.296	12.39
380.504	12.51
380.712	12.58
380.92	12.58
381.128	12.78
381.336	12.74
381.544	12.44
381.752	12.58
381.96	12.7
382.168	12.67
382.376	12.73
382.584	12.64
382.791	12.69
382.999	12.65
383.207	12.65
383.415	12.33
383.623	12.42
383.831	12.59
384.039	12.88
384.247	12.89
384.454	12.86
384.662	12.92
384.87	13.04
385.078	12.99
385.285	12.95
385.493	12.92
385.701	12.96
385.909	12.83
386.116	12.91
386.324	12.64
386.532	12.54
386.739	12.69
386.947	12.73
387.155	12.66
387.362	12.53
387.57	12.48
387.778	12.5
387.985	12.43
388.193	12.36
388.4	12.38
388.608	12.06
388.816	12.07
389.023	11.9
389.231	11.85
389.438	11.74
389.646	11.94
389.853	12.14
390.061	12.08
390.268	12.09
390.475	11.85
390.683	11.85
390.89	11.97
391.098	12.17
391.305	12.18
391.512	12.04
391.72	12.11
391.927	11.92
392.135	11.81
392.342	11.82
392.549	12.01
392.756	12.19
392.964	12.13
393.171	12.24
393.378	11.92
393.586	11.71
393.793	11.67
394	11.74
394.207	11.74
394.414	11.66
394.622	11.55
394.829	11.26
395.036	11.18
395.243	11.05
395.45	10.97
395.657	11.07
395.864	11.27
396.072	11.21
396.279	11.18
396.486	11.24
396.693	11.32
396.9	11.62
397.107	11.72
397.314	11.84
397.521	12.02
397.728	11.95
397.935	12.11
398.142	12.09
398.349	12.39
398.556	12.43
398.763	12.64
398.97	12.72
399.177	12.64
399.383	12.66
399.59	12.39
399.797	12.2
400.004	12.13
400.211	12.15
400.418	12.06
400.625	12.05
400.831	11.94
401.038	11.77
401.245	11.77
401.452	11.77
401.658	11.75
401.865	11.96
402.072	12.03
402.279	12.12
402.485	11.87
402.692	11.93
402.899	11.85
403.105	11.79
403.312	11.72
403.519	11.58
403.725	11.37
403.932	11.31
404.138	11.41
404.345	11.39
404.552	11.45
404.758	11.49
404.965	11.62
405.171	11.57
405.378	11.53
405.584	11.53
405.791	11.59
405.997	11.72
406.204	11.87
406.41	11.73
406.617	11.76
406.823	11.54
407.029	11.62
407.236	11.4
407.442	11.33
407.649	11.38
407.855	11.41
408.061	11.37
408.268	11.29
408.474	11.14
408.68	10.99
408.887	11.05
409.093	11.05
409.299	11.11
409.505	11.05
409.712	11.06
409.918	11.12
410.124	11.06
410.33	10.88
410.537	10.97
410.743	11.02
410.949	11.08
411.155	11.03
411.361	10.98
411.567	10.88
411.773	10.91
411.98	11.06
412.186	10.94
412.392	10.96
412.598	11.07
412.804	10.82
413.01	10.71
413.216	10.83
413.422	10.89
413.628	11
413.834	10.89
414.04	10.89
414.246	10.72
414.452	10.76
414.658	10.76
414.864	10.76
415.07	10.8
415.275	10.72
415.481	10.7
415.687	10.68
415.893	10.74
416.099	10.71
416.305	10.77
416.511	10.77
416.716	10.71
416.922	10.71
417.128	10.78
417.334	10.91
417.539	11.01
417.745	10.95
417.951	10.9
418.157	10.98
418.362	11.08
418.568	11.06
418.774	11.11
418.979	11.24
419.185	11.18
419.391	11.1
419.596	10.97
419.802	10.91
420.008	10.88
420.213	10.28
420.419	10.19
420.624	10.13
420.83	10.16
421.035	10.11
421.241	10.03
421.446	10.06
421.652	10.13
421.857	10.21
422.063	10.31
422.268	10.38
422.474	11.02
422.679	10.95
422.885	10.93
423.09	10.9
423.295	10.82
423.501	10.75
423.706	10.74
423.911	10.73
424.117	10.61
424.322	10.52
424.527	10.41
424.733	10.29
424.938	10.29
425.143	10.34
425.349	10.3
425.554	10.42
425.759	10.46
425.964	10.42
426.169	10.33
426.375	10.47
426.58	10.47
426.785	10.58
426.99	10.72
427.195	10.72
427.4	10.58
427.605	10.6
427.811	10.5
428.016	10.48
428.221	10.49
428.426	10.44
428.631	10.29
428.836	10.37
429.041	10.3
429.246	10.1
429.451	10.15
429.656	10.12
429.861	10.08
430.066	10.13
430.271	10.2
430.476	10.29
430.681	10.4
430.886	10.41
431.09	10.28
431.295	10.38
431.5	10.45
431.705	10.38
431.91	10.53
432.115	10.42
432.32	10.38
432.524	10.35
432.729	10.25
432.934	10.12
433.139	10.21
433.343	10.3
433.548	10.21
433.753	10.15
433.958	10.29
434.162	10.21
434.367	10.22
434.572	10.24
434.776	10.19
434.981	10.32
435.186	10.38
435.39	10.31
435.595	10.31
435.799	10.31
436.004	10.45
436.209	10.37
436.413	10.37
436.618	10.39
436.822	10.46
437.027	10.48
437.231	10.35
437.436	10.34
437.64	10.37
437.845	10.35
438.049	10.45
438.253	10.41
438.458	10.47
438.662	10.53
438.867	10.51
439.071	10.55
439.275	10.56
439.48	10.6
439.684	10.7
439.888	10.6
440.093	10.61
440.297	10.59
440.501	10.59
440.706	10.6
440.91	10.55
441.114	10.63
441.318	10.57
441.523	10.5
441.727	10.52
441.931	10.45
442.135	10.5
442.339	10.48
442.543	10.5
442.748	10.5
442.952	10.39
443.156	10.37
443.36	10.33
443.564	10.35
443.768	10.43
443.972	10.49
444.176	10.47
444.38	10.54
444.584	10.49
444.788	10.5
444.992	10.48
445.196	10.53
445.4	10.57
445.604	10.64
445.808	10.63
446.012	10.55
446.216	10.49
446.42	10.48
446.624	10.46
446.828	10.51
447.032	10.4
447.235	10.36
447.439	10.32
447.643	10.22
447.847	10.17
448.051	9.99
448.254	10.06
448.458	9.98
448.662	9.85
448.866	9.76
449.069	9.74
449.273	9.79
449.477	9.79
449.681	9.63
449.884	9.7
450.088	9.63
450.292	9.8
450.495	9.74
450.699	9.73
450.902	9.84
451.106	9.76
451.31	9.7
451.513	9.72
451.717	9.62
451.92	9.65
452.124	9.56
452.327	9.5
452.531	9.38
452.734	9.45
452.938	9.51
453.141	9.45
453.345	9.47
453.548	9.4
453.752	9.35
453.955	9.4
454.158	9.39
454.362	9.35
454.565	9.37
454.769	9.57
454.972	9.61
455.175	9.6
455.379	9.71
455.582	9.78
455.785	9.78
455.988	9.77
456.192	9.8
456.395	9.83
456.598	9.97
456.801	9.99
457.005	9.91
457.208	9.87
457.411	9.89
457.614	9.8
457.817	9.77
458.021	9.83
458.224	9.81
458.427	9.77
458.63	9.8
458.833	9.73
459.036	9.7
459.239	9.62
459.442	9.57
459.645	9.53
459.848	9.55
460.051	9.56
460.254	9.57
460.457	9.55
460.66	9.61
460.863	9.55
461.066	9.62
461.269	9.62
461.472	9.66
461.675	9.58
461.878	9.65
462.081	9.7
462.284	9.69
462.486	9.62
462.689	9.59
462.892	9.63
463.095	9.66
463.298	9.6
463.5	9.64
463.703	9.63
463.906	9.77
464.109	9.57
464.311	9.41
464.514	9.52
464.717	9.6
464.92	9.69
465.122	9.61
465.325	9.62
465.528	9.69
465.73	9.63
465.933	9.58
466.135	9.63
466.338	9.72
466.541	9.89
466.743	9.85
466.946	9.77
467.148	9.73
467.351	9.76
467.553	9.83
467.756	9.83
467.958	9.87
468.161	9.94
468.363	9.87
468.566	9.8
468.768	9.68
468.971	9.69
469.173	9.75
469.375	9.75
469.578	9.81
469.78	9.83
469.983	9.81
470.185	9.81
470.387	9.82
470.59	9.87
470.792	9.9
470.994	10
471.196	9.9
471.399	9.84
471.601	9.88
471.803	9.88
472.005	9.76
472.208	9.81
472.41	9.83
472.612	9.75
472.814	9.8
473.016	9.87
473.218	9.88
473.421	9.93
473.623	9.96
473.825	9.94
474.027	9.89
474.229	9.92
474.431	9.77
474.633	9.79
474.835	9.83
475.037	9.73
475.239	9.79
475.441	9.77
475.643	9.75
475.845	9.77
476.047	9.73
476.249	9.7
476.451	9.66
476.653	9.74
476.855	9.75
477.057	9.86
477.258	9.88
477.46	9.82
477.662	9.81
477.864	9.75
478.066	9.74
478.268	9.81
478.469	9.85
478.671	9.88
478.873	9.9
479.075	9.87
479.276	9.81
479.478	9.89
479.68	9.87
479.882	9.94
480.083	10.03
480.285	10.08
480.487	10.12
480.688	10.11
480.89	10.13
481.091	10.16
481.293	10.19
481.495	10.19
481.696	10.18
481.898	10.16
482.099	10.11
482.301	10.07
482.502	10.03
482.704	10
482.905	9.98
483.107	9.95
483.308	9.91
483.51	9.89
483.711	9.87
483.913	9.85
484.114	9.87
484.315	9.89
484.517	9.93
484.718	9.96
484.92	9.95
485.121	9.99
485.322	10.05
485.524	10.08
485.725	10.13
485.926	10.12
486.127	10.1
486.329	10.1
486.53	10.04
486.731	10.02
486.932	10
487.134	10.01
487.335	9.98
487.536	9.96
487.737	9.98
487.938	9.93
488.139	9.93
488.341	9.94
488.542	9.94
488.743	9.98
488.944	9.97
489.145	9.97
489.346	9.96
489.547	9.97
489.748	9.94
489.949	9.87
490.15	9.84
490.351	9.84
490.552	9.81
490.753	9.77
490.954	9.76
491.155	9.74
491.356	9.7
491.557	9.69
491.758	9.68
491.959	9.69
492.159	9.68
492.36	9.72
492.561	9.76
492.762	9.74
492.963	9.69
493.164	9.73
493.364	9.75
493.565	9.84
493.766	9.85
493.967	9.83
494.167	9.75
494.368	9.74
494.569	9.73
494.769	9.71
494.97	9.78
495.171	9.84
495.371	9.9
495.572	9.88
495.773	9.79
495.973	9.82
496.174	9.84
496.375	9.88
496.575	9.94
496.776	9.92
496.976	9.9
497.177	9.89
497.377	9.91
497.578	9.8
497.778	9.79
497.979	9.78
498.179	9.73
498.38	9.77
498.58	9.81
498.78	9.75
498.981	9.77
499.181	9.77
499.382	9.78
499.582	9.81
499.782	9.92
499.983	9.93
500.183	10.04
500.383	10.09
500.584	9.97
500.784	9.93
500.984	9.95
501.184	9.96
501.385	9.96
501.585	9.87
501.785	9.81
501.985	9.75
502.185	9.79
502.386	9.81
502.586	9.79
502.786	9.95
502.986	10.09
503.186	10.12
503.386	10.16
503.586	10.24
503.786	10.36
503.987	10.44
504.187	10.53
504.387	10.54
504.587	10.56
504.787	10.63
504.987	10.56
505.187	10.5
505.387	10.51
505.587	10.56
505.786	10.6
505.986	10.56
506.186	10.55
506.386	10.5
506.586	10.55
506.786	10.59
506.986	10.58
507.186	10.64
507.386	10.62
507.585	10.64
507.785	10.66
507.985	10.63
508.185	10.69
508.384	10.74
508.584	10.78
508.784	10.74
508.984	10.8
509.183	10.81
509.383	10.87
509.583	10.95
509.782	10.97
509.982	10.94
510.182	10.97
510.381	10.91
510.581	10.96
510.781	11
510.98	11.03
511.18	10.99
511.379	10.99
511.579	10.95
511.778	10.92
511.978	10.91
512.177	10.9
512.377	10.94
512.576	11.05
512.776	11.05
512.975	11.04
513.175	11.12
513.374	11.13
513.573	11.22
513.773	11.32
513.972	11.42
514.172	11.52
514.371	11.7
514.57	11.78
514.77	11.83
514.969	11.82
515.168	11.82
515.367	11.84
515.567	11.87
515.766	11.85
515.965	11.84
516.164	11.8
516.364	11.82
516.563	11.83
516.762	11.79
516.961	11.73
517.16	11.71
517.359	11.79
517.559	11.8
517.758	11.82
517.957	11.77
518.156	11.71
518.355	11.68
518.554	11.67
518.753	11.5
518.952	11.54
519.151	11.58
519.35	11.59
519.549	11.6
519.748	11.61
519.947	11.68
520.146	11.78
520.345	11.86
520.544	11.94
520.743	12.03
520.942	12.15
521.141	12.21
521.339	12.19
521.538	12.3
521.737	12.36
521.936	12.4
522.135	12.33
522.333	12.43
522.532	12.51
522.731	12.55
522.93	12.51
523.129	12.54
523.327	12.51
523.526	12.55
523.725	12.58
523.923	12.53
524.122	12.54
524.321	12.59
524.519	12.54
524.718	12.54
524.917	12.54
525.115	12.54
525.314	12.63
525.512	12.64
525.711	12.7
525.909	12.72
526.108	12.78
526.306	12.75
526.505	12.79
526.703	12.82
526.902	12.83
527.1	12.87
527.299	12.87
527.497	12.83
527.696	12.8
527.894	12.79
528.092	12.78
528.291	12.73
528.489	12.72
528.688	12.68
528.886	12.7
529.084	12.7
529.283	12.63
529.481	12.63
529.679	12.66
529.877	12.77
530.076	12.8
530.274	12.82
530.472	12.91
530.67	12.96
530.869	13.03
531.067	13.02
531.265	13.05
531.463	13.13
531.661	13.12
531.859	13.05
532.057	13.04
532.255	13.07
532.454	13.03
532.652	12.97
532.85	13.02
533.048	12.97
533.246	12.94
533.444	12.99
533.642	13.02
533.84	13.11
534.038	13.19
534.236	13.23
534.434	13.22
534.632	13.25
534.83	13.35
535.027	13.36
535.225	13.36
535.423	13.41
535.621	13.34
535.819	13.35
536.017	13.37
536.215	13.42
536.412	13.35
536.61	13.36
536.808	13.4
537.006	13.38
537.203	13.42
537.401	13.56
537.599	13.59
537.797	13.6
537.994	13.62
538.192	13.63
538.39	13.68
538.587	13.78
538.785	13.83
538.983	13.92
539.18	13.99
539.378	14.04
539.575	14.03
539.773	14.06
539.97	14.05
540.168	14.06
540.366	14.06
540.563	14.07
540.761	14.08
540.958	14.1
541.155	14.07
541.353	14.09
541.55	14.04
541.748	14.01
541.945	14
542.143	14.07
542.34	14.13
542.537	14.15
542.735	14.21
542.932	14.17
543.129	14.18
543.327	14.24
543.524	14.15
543.721	14.19
543.919	14.29
544.116	14.32
544.313	14.35
544.51	14.38
544.708	14.46
544.905	14.4
545.102	14.48
545.299	14.46
545.496	14.3
545.693	14.41
545.891	14.42
546.088	14.39
546.285	14.39
546.482	14.33
546.679	14.27
546.876	14.23
547.073	14.2
547.27	14.21
547.467	14.25
547.664	14.42
547.861	14.42
548.058	14.43
548.255	14.45
548.452	14.43
548.649	14.6
548.846	14.63
549.043	14.64
549.24	14.76
549.437	14.81
549.633	14.91
549.83	15.03
550.027	15.12
550.224	15.21
550.421	15.31
550.618	15.53
550.814	15.49
551.011	15.46
551.208	15.5
551.405	15.49
551.601	15.46
551.798	15.42
551.995	15.47
552.191	15.36
552.388	15.34
552.585	15.33
552.781	15.31
552.978	15.32
553.175	15.51
553.371	15.56
553.568	15.62
553.764	15.82
553.961	15.84
554.157	15.84
554.354	15.98
554.55	16.07
554.747	16.11
554.943	16.1
555.14	16.28
555.336	16.29
555.533	16.34
555.729	16.4
555.926	16.38
556.122	16.4
556.318	16.36
556.515	16.53
556.711	16.41
556.907	16.41
557.104	16.43
557.3	16.31
557.496	16.18
557.693	16.23
557.889	16.23
558.085	16.25
558.281	16.27
558.478	16.33
558.674	16.33
558.87	16.51
559.066	16.58
559.262	16.76
559.459	16.8
559.655	17.02
559.851	17.06
560.047	17.07
560.243	16.98
560.439	17.11
560.635	17.12
560.831	17.18
561.027	17.24
561.223	17.23
561.419	17.19
561.615	17.2
561.811	17.16
562.007	17.17
562.203	17.14
562.399	17.36
562.595	17.41
562.791	17.45
562.987	17.42
563.183	17.43
563.379	17.59
563.575	17.71
563.771	17.83
563.966	17.8
564.162	17.9
564.358	18.02
564.554	17.98
564.75	18.02
564.945	18.05
565.141	18.14
565.337	18.25
565.533	18.23
565.728	18.21
565.924	18.3
566.12	18.48
566.315	18.39
566.511	18.45
566.707	18.51
566.902	18.41
567.098	18.49
567.293	18.44
567.489	18.35
567.684	18.37
567.88	18.43
568.076	18.35
568.271	18.31
568.467	18.53
568.662	18.53
568.858	18.53
569.053	18.66
569.248	18.66
569.444	18.75
569.639	18.76
569.835	18.84
570.03	18.85
570.225	18.92
570.421	18.89
570.616	18.9
570.812	19
571.007	19.1
571.202	19.2
571.397	19.23
571.593	19.18
571.788	19.31
571.983	19.34
572.178	19.33
572.374	19.36
572.569	19.4
572.764	19.43
572.959	19.43
573.154	19.48
573.35	19.52
573.545	19.57
573.74	19.66
573.935	19.66
574.13	19.62
574.325	19.69
574.52	19.71
574.715	19.81
574.91	19.79
575.105	19.73
575.3	19.67
575.495	19.73
575.69	19.77
575.885	19.72
576.08	19.78
576.275	19.96
576.47	19.99
576.665	20.08
576.86	20.14
577.055	20.13
577.25	20.31
577.444	20.29
577.639	20.21
577.834	20.34
578.029	20.44
578.224	20.47
578.418	20.48
578.613	20.56
578.808	20.48
579.003	20.59
579.197	20.65
579.392	20.62
579.587	20.74
579.781	20.87
579.976	20.81
580.171	21.03
580.365	21.05
580.56	20.97
580.755	21.1
580.949	21.1
581.144	20.98
581.338	21.09
581.533	21.17
581.727	21.25
581.922	21.24
582.116	21.23
582.311	21.11
582.505	21.22
582.7	21.21
582.894	21.08
583.089	21.15
583.283	21.34
583.478	21.31
583.672	21.42
583.866	21.39
584.061	21.42
584.255	21.54
584.449	21.53
584.644	21.55
584.838	21.7
585.032	21.75
585.226	21.8
585.421	21.74
585.615	21.68
585.809	21.73
586.003	21.63
586.198	21.72
586.392	21.84
586.586	21.82
586.78	21.89
586.974	21.97
587.168	22.02
587.363	22.04
587.557	22.17
587.751	22.33
587.945	22.26
588.139	22.52
588.333	22.51
588.527	22.59
588.721	22.72
588.915	22.74
589.109	22.8
589.303	22.78
589.497	22.88
589.691	22.89
589.885	22.83
590.079	22.74
590.273	22.83
590.466	22.89
590.66	22.68
590.854	22.63
591.048	22.67
591.242	22.69
591.436	22.88
591.629	22.93
591.823	22.96
592.017	22.99
592.211	23.17
592.404	23.05
592.598	22.99
592.792	23.11
592.986	23.18
593.179	23.12
593.373	22.97
593.567	23.07
593.76	23.09
593.954	23.06
594.147	23.19
594.341	23.16
594.535	23.15
594.728	23.29
594.922	23.44
595.115	23.41
595.309	23.51
595.502	23.6
595.696	23.55
595.889	23.47
596.083	23.41
596.276	23.44
596.47	23.51
596.663	23.56
596.856	23.5
597.05	23.45
597.243	23.56
597.437	23.49
597.63	23.42
597.823	23.36
598.017	23.42
598.21	23.55
598.403	23.5
598.596	23.46
598.79	23.48
598.983	23.54
599.176	23.55
599.369	23.5
599.563	23.65
599.756	23.74
599.949	23.82
600.142	23.81
600.335	23.84
600.528	23.91
600.722	23.91
600.915	23.84
601.108	24.08
601.301	24.1
601.494	24.16
601.687	24.04
601.88	24.15
602.073	24.09
602.266	24.14
602.459	24.23
602.652	24.21
602.845	24.27
603.038	24.38
603.231	24.29
603.424	24.19
603.617	24.18
603.809	24.26
604.002	24.19
604.195	24.1
604.388	24.21
604.581	24.13
604.774	24.07
604.966	24.03
605.159	24.03
605.352	24.05
605.545	24.27
605.737	24.25
605.93	24.22
606.123	24.2
606.316	24.38
606.508	24.35
606.701	24.52
606.894	24.77
607.086	24.89
607.279	25.01
607.471	24.83
607.664	24.79
607.857	24.94
608.049	25.17
608.242	25.4
608.434	25.44
608.627	25.45
608.819	25.35
609.012	25.24
609.204	25.27
609.397	25.18
609.589	25.35
609.782	25.27
609.974	25.25
610.166	25.08
610.359	24.99
610.551	24.98
610.743	24.92
610.936	24.95
611.128	25.03
611.32	24.97
611.513	24.95
611.705	24.78
611.897	24.82
612.09	24.99
612.282	25.03
612.474	24.87
612.666	24.94
612.858	25.09
613.051	25.07
613.243	25.06
613.435	25.08
613.627	25.1
613.819	25.3
614.011	25.42
614.203	25.14
614.395	25.03
614.588	25.19
614.78	25.1
614.972	24.96
615.164	24.92
615.356	24.99
615.548	24.93
615.74	24.94
615.932	24.85
616.124	24.78
616.315	25.04
616.507	25.06
616.699	25.16
616.891	25.27
617.083	25.23
617.275	25.27
617.467	25.23
617.659	25.31
617.85	25.68
618.042	25.7
618.234	25.75
618.426	25.65
618.618	25.73
618.809	25.76
619.001	25.88
619.193	26.04
619.384	26.17
619.576	26.35
619.768	26.42
619.959	26.18
620.151	26.24
620.343	26.29
620.534	26.38
620.726	26.41
620.917	26.44
621.109	26.4
621.301	26.42
621.492	26.28
621.684	26.18
621.875	26.15
622.067	26.16
622.258	26.38
622.45	26.3
622.641	26.27
622.832	26.21
623.024	26.16
623.215	26.17
623.407	26.12
623.598	26.22
623.789	26.13
623.981	26.34
624.172	26.38
624.363	26.24
624.555	26.33
624.746	26.37
624.937	26.38
625.129	26.45
625.32	26.32
625.511	26.45
625.702	26.57
625.893	26.72
626.085	26.56
626.276	26.62
626.467	26.58
626.658	26.6
626.849	26.5
627.04	26.59
627.231	26.54
627.422	26.7
627.614	26.73
627.805	26.6
627.996	26.64
628.187	26.65
628.378	26.66
628.569	26.76
628.76	26.81
628.951	26.88
629.142	26.94
629.332	26.99
629.523	27.03
629.714	26.94
629.905	26.98
630.096	26.71
630.287	26.7
630.478	26.74
630.669	26.72
630.859	26.71
631.05	26.81
631.241	26.59
631.432	26.66
631.623	26.76
631.813	26.93
632.004	26.93
632.195	27.09
632.385	27.18
632.576	27.16
632.767	27.29
632.957	27.3
633.148	27.3
633.339	27.37
633.529	27.38
633.72	27.26
633.91	27.31
634.101	27.23
634.292	27.26
634.482	27.25
634.673	27.26
634.863	27.09
635.054	27.08
635.244	27.07
635.435	27.15
635.625	27.03
635.815	27.1
636.006	26.84
636.196	27.15
636.387	27.22
636.577	27.39
636.767	27.33
636.958	27.52
637.148	27.47
637.338	27.45
637.529	27.48
637.719	27.58
637.909	27.66
638.099	27.91
638.29	27.71
638.48	27.67
638.67	27.51
638.86	27.55
639.05	27.48
639.241	27.54
639.431	27.46
639.621	27.61
639.811	27.56
640.001	27.52
640.191	27.46
640.381	27.54
640.571	27.63
640.761	27.74
640.951	27.68
641.141	27.54
641.331	27.65
641.521	27.69
641.711	27.53
641.901	27.62
642.091	27.7
642.281	27.72
642.471	27.78
642.661	27.8
642.851	27.68
643.041	27.76
643.231	27.9
643.42	27.85
643.61	27.94
643.8	27.97
643.99	27.92
644.18	27.88
644.369	27.92
644.559	28.24
644.749	28.3
644.939	28.26
645.128	28.18
645.318	28.25
645.508	28.35
645.697	28.47
645.887	28.54
646.076	28.44
646.266	28.48
646.456	28.3
646.645	28.11
646.835	28.11
647.024	28.39
647.214	28.6
647.403	28.73
647.593	28.91
647.782	28.95
647.972	28.96
648.161	29.16
648.351	29.01
648.54	29.28
648.73	29.15
648.919	29.19
649.108	29.16
649.298	29.07
649.487	28.95
649.677	28.76
649.866	28.61
650.055	28.85
650.244	28.91
650.434	29.08
650.623	29.07
650.812	29.28
651.002	29.24
651.191	29.5
651.38	29.69
651.569	29.83
651.758	29.84
651.947	29.98
652.137	29.72
652.326	29.71
652.515	29.83
652.704	29.85
652.893	29.69
653.082	29.51
653.271	29.29
653.46	29.12
653.649	29.11
653.838	29.2
654.027	29.34
654.216	29.27
654.405	29.2
654.594	28.94
654.783	29.04
654.972	29.01
655.161	29.31
655.35	29.28
655.539	29.5
655.728	29.38
655.916	29.5
656.105	29.35
656.294	29.62
656.483	29.92
656.672	29.89
656.86	29.81
657.049	29.83
657.238	29.66
657.427	29.57
657.615	29.44
657.804	29.58
657.993	29.65
658.181	29.69
658.37	29.8
658.559	29.65
658.747	29.72
658.936	29.63
659.125	29.55
659.313	29.66
659.502	29.81
659.69	29.9
659.879	29.95
660.067	29.77
660.256	29.87
660.444	29.69
660.633	29.77
660.821	29.72
661.01	29.74
661.198	29.76
661.387	29.77
661.575	29.76
661.763	29.66
661.952	29.52
662.14	29.55
662.328	29.45
662.517	29.53
662.705	29.41
662.893	29.61
663.082	29.76
663.27	29.56
663.458	29.5
663.646	29.43
663.834	29.68
664.023	29.86
664.211	29.7
664.399	29.86
664.587	29.98
664.775	29.92
664.963	30.06
665.152	30.19
665.34	30.92
665.528	31
665.716	30.94
665.904	30.53
666.092	30.56
666.28	30.81
666.468	30.7
666.656	30.71
666.844	30.74
667.032	30.62
667.22	30.54
667.408	30.28
667.596	30.3
667.784	30.61
667.971	30.76
668.159	30.66
668.347	30.65
668.535	30.61
668.723	30.57
668.911	30.94
669.098	30.9
669.286	30.9
669.474	30.73
669.662	30.81
669.849	30.74
670.037	31.01
670.225	30.72
670.413	30.84
670.6	30.93
670.788	30.96
670.976	30.78
671.163	30.93
671.351	30.95
671.538	31.11
671.726	31.19
671.913	31.09
672.101	31.09
672.289	31.55
672.476	31.27
672.664	31.2
672.851	31.07
673.039	31.26
673.226	31.28
673.413	31.27
673.601	31.6
673.788	31.58
673.976	31.63
674.163	31.56
674.35	31.6
674.538	31.98
674.725	31.85
674.912	31.96
675.1	31.73
675.287	31.7
675.474	31.6
675.662	31.3
675.849	31.22
676.036	31.19
676.223	31.28
676.411	31.33
676.598	31.43
676.785	31.77
676.972	31.54
677.159	31.54
677.346	31.43
677.533	31.54
677.721	31.54
677.908	31.64
678.095	31.75
678.282	31.89
678.469	31.79
678.656	31.66
678.843	31.76
679.03	31.95
679.217	31.93
679.404	32.06
679.591	31.97
679.778	32.21
679.964	32.23
680.151	32.24
680.338	32.02
680.525	32.13
680.712	32.21
680.899	32.1
681.086	32.16
681.272	32.2
681.459	32.05
681.646	31.96
681.833	31.99
682.02	31.99
682.206	31.87
682.393	31.88
682.58	31.89
682.766	31.55
682.953	31.76
683.14	31.47
683.326	31.66
683.513	31.82
683.7	32.08
683.886	31.86
684.073	31.73
684.259	31.76
684.446	31.86
684.632	31.91
684.819	32.04
685.005	31.45
685.192	31.92
685.378	31.89
685.565	31.96
685.751	31.87
685.938	31.85
686.124	31.92
686.31	32.18
686.497	31.96
686.683	31.64
686.87	31.72
687.056	32.08
687.242	31.88
687.429	31.88
687.615	32.04
687.801	31.86
687.987	32.01
688.174	32.17
688.36	32.3
688.546	32.65
688.732	32.74
688.918	32.78
689.105	32.8
689.291	33.07
689.477	33.04
689.663	32.77
689.849	33.37
690.035	33.1
690.221	33.14
690.407	32.84
690.593	32.74
690.779	32.88
690.965	33.08
691.151	33.02
691.337	32.58
691.523	32.66
691.709	32.93
691.895	32.59
692.081	32.69
692.267	32.48
692.453	32.62
692.639	32.34
692.825	32.16
693.011	31.93
693.196	31.96
693.382	32.14
693.568	32.04
693.754	31.87
693.94	32.1
694.125	32.05
694.311	32.25
694.497	32.18
694.682	32.54
694.868	32.89
695.054	32.85
695.239	33.04
695.425	32.63
695.611	32.58
695.796	32.67
695.982	33.1
696.168	33.3
696.353	33.26
696.539	33.51
696.724	33.58
696.91	33.41
697.095	33.6
697.281	33.74
697.466	34.15
697.652	34.31
697.837	34.36
698.023	34.19
698.208	34.17
698.393	34.33
698.579	34.34
698.764	34.02
698.949	34.11
699.135	34.2
699.32	34.05
699.505	34.01
699.691	33.98
699.876	33.97
700.061	33.89
700.246	33.91
700.432	33.64
700.617	33.2
700.802	33.58
700.987	33.56
701.172	33.38
701.358	33.68
701.543	33.68
701.728	33.59
701.913	33.86
702.098	33.58
702.283	33.75
702.468	33.8
702.653	34.11
702.838	34.13
703.023	33.97
703.208	33.66
703.393	33.37
703.578	33.45
703.763	33.42
703.948	33.17
704.133	33.01
704.318	32.89
704.503	32.78
704.688	32.88
704.873	32.92
705.057	32.85
705.242	33.24
705.427	33.11
705.612	33.16
705.797	33.46
705.981	33.48
706.166	34.06
706.351	34.36
706.536	34.92
706.72	34.95
706.905	34.75
707.09	35.02
707.274	35.08
707.459	35.06
707.644	34.82
707.828	34.46
708.013	34.51
708.197	34.12
708.382	33.57
708.567	32.77
708.751	32.68
708.936	32.83
709.12	32.78
709.305	33.01
709.489	33.39
709.673	33.82
709.858	34.01
710.042	33.8
710.227	34.02
710.411	34.46
710.596	34.93
710.78	35.03
710.964	35.43
711.149	35.25
711.333	34.85
711.517	34.87
711.702	34.57
711.886	34.66
712.07	34.43
712.254	34.52
712.438	34.25
712.623	34.31
712.807	34.4
712.991	34.35
713.175	34.47
713.359	34.81
713.544	34.92
713.728	34.94
713.912	34.74
714.096	35.19
714.28	34.99
714.464	34.96
714.648	34.92
714.832	34.81
715.016	34.52
715.2	34.85
715.384	34.76
715.568	34.47
715.752	34.41
715.936	34.59
716.12	34.39
716.304	34.26
716.488	34.42
716.671	34.3
716.855	34.3
717.039	34.17
717.223	34.05
717.407	34.02
717.59	33.81
717.774	34.02
717.958	34.32
718.142	34.39
718.325	34.79
718.509	34.88
718.693	34.83
718.877	35.09
719.06	35.14
719.244	34.94
719.428	35.04
719.611	35.38
719.795	35.56
719.978	35.35
720.162	35.71
720.345	35.6
720.529	35.78
720.713	36.31
720.896	36.03
721.08	36.06
721.263	36.42
721.446	36.33
721.63	36.32
721.813	35.74
721.997	35.7
722.18	35.31
722.364	35.07
722.547	34.79
722.73	34.61
722.914	34.95
723.097	34.75
723.28	34.58
723.464	34.33
723.647	34.24
723.83	34.46
724.013	34.46
724.197	34
724.38	34.32
724.563	34.4
724.746	33.97
724.929	33.81
725.112	34.41
725.296	34.48
725.479	34.81
725.662	34.73
725.845	34.69
726.028	34.47
726.211	34.67
726.394	34.56
726.577	34.93
726.76	35.12
726.943	34.87
727.126	34.58
727.309	34.4
727.492	34.49
727.675	34.71
727.858	35.11
728.041	35.34
728.224	35.94
728.407	36.17
728.589	35.8
728.772	36.21
728.955	36.36
729.138	36.45
729.321	36.63
729.503	36.3
729.686	36.03
729.869	35.39
730.052	35.27
730.234	35.01
730.417	35.17
730.6	35.23
730.782	34.85
730.965	34.95
731.148	34.88
731.33	34.8
731.513	35.02
731.695	35.26
731.878	35.85
732.061	35.8
732.243	35.58
732.426	35.27
732.608	35.08
732.791	35.08
732.973	35.19
733.156	35.2
733.338	35.1
733.52	34.89
733.703	34.96
733.885	34.75
734.068	35.31
734.25	35.75
734.432	35.58
734.615	35.73
734.797	35.7
734.979	35.47
735.162	35.5
735.344	35.62
735.526	35.89
735.708	35.74
735.891	35.91
736.073	35.56
736.255	35.49
736.437	35.85
736.619	35.87
736.802	35.49
736.984	35.4
737.166	35.33
737.348	34.96
737.53	34.9
737.712	34.83
737.894	34.78
738.076	34.66
738.258	34.83
738.44	34.2
738.622	34.27
738.804	35.06
738.986	35.17
739.168	35.12
739.35	35.61
739.532	35.8
739.714	35.4
739.896	35.42
740.078	35.55
740.259	35.53
740.441	36.27
740.623	36.14
740.805	35.83
740.987	36.11
741.168	36.19
741.35	36.88
741.532	36.68
741.714	36.93
741.895	36.8
742.077	37.19
742.259	36.85
742.44	36.61
742.622	36.88
742.804	36.54
742.985	36.24
743.167	36.78
743.348	35.83
743.53	35.98
743.711	36.25
743.893	35.89
744.075	35.11
744.256	34.95
744.438	34.64
744.619	34.81
744.8	35.09
744.982	35.36
745.163	34.6
745.345	34.21
745.526	34.11
745.707	34.12
745.889	34.83
746.07	35.1
746.252	35.44
746.433	35.81
746.614	35.85
746.795	36.4
746.977	35.48
747.158	35.72
747.339	35.88
747.52	36.06
747.702	35.76
747.883	35.54
748.064	35.4
748.245	35.77
748.426	36.3
748.607	35.83
748.788	34.65
748.97	35.42
749.151	35.03
749.332	35.83
749.513	35.2
749.694	35.26
749.875	34.96
750.056	34.83
750.237	34.48
750.418	33.86
750.599	33.93
750.78	35.28
750.96	35.03
751.141	35.63
751.322	35.15
751.503	35.12
751.684	35.86
751.865	36.02
752.046	36.5
752.226	36.48
752.407	37.06
752.588	37.12
752.769	36.27
752.949	36.63
753.13	36.35
753.311	35.92
753.492	36.19
753.672	35.61
753.853	35.19
754.034	35.02
754.214	34.68
754.395	34.13
754.575	34.3
754.756	34.81
754.937	35.08
755.117	35.88
755.298	36.34
755.478	36.39
755.659	36.52
755.839	37.53
756.02	38.21
756.2	38.25
756.381	37.89
756.561	37.97
756.741	37.95
756.922	37.85
757.102	37.83
757.283	38.02
757.463	38.15
757.643	38.71
757.823	38.25
758.004	37.55
758.184	37.91
758.364	38.15
758.545	37.71
758.725	38.25
758.905	38.1
759.085	37.64
759.265	37.66
759.446	37.06
759.626	36.12
759.806	36
759.986	36.33
760.166	36.38
760.346	36.05
760.526	36.66
760.706	36.09
760.886	36.41
761.066	36.52
761.246	36.45
761.426	37.05
761.606	37.24
761.786	37.48
761.966	37.51
762.146	37.71
762.326	38.13
762.506	37.78
762.686	38.02
762.866	37.72
763.046	37.93
763.225	37.79
763.405	37.66
763.585	37.79
763.765	37.67
763.945	37.47
764.124	36.99
764.304	36.98
764.484	37.25
764.664	37.27
764.843	37.05
765.023	36.78
765.203	36.61
765.382	36.77
765.562	36.8
765.741	36.7
765.921	36.67
766.101	36.74
766.28	36.26
766.46	36.23
766.639	35.78
766.819	35.95
766.998	36.23
767.178	36.43
767.357	36.7
767.537	36.17
767.716	35.73
767.896	35.45
768.075	35.36
768.254	35.31
768.434	35.1
768.613	35.53
768.792	35.11
768.972	35.02
769.151	34.99
769.33	34.03
769.51	34.76
769.689	35.71
769.868	35.93
770.047	37.03
770.226	38.08
770.406	37.95
770.585	37.21
770.764	37.57
770.943	37.02
771.122	36.6
771.301	36.78
771.48	36.38
771.66	35.91
771.839	36.4
772.018	35.76
772.197	35.84
772.376	36.5
772.555	37.1
772.734	37.76
772.913	38.04
773.092	38.7
773.271	39.16
773.449	38.73
773.628	39.53
773.807	38.75
773.986	38.13
774.165	36.74
774.344	36.5
774.523	36.26
774.701	35.74
774.88	36.14
775.059	36.36
775.238	36.44
775.417	36.84
775.595	36.75
775.774	37.65
775.953	38.53
776.131	38.62
776.31	37.71
776.489	38.23
776.667	37.71
776.846	37.24
777.025	36.91
777.203	37.64
777.382	37.07
777.56	36.08
777.739	35.64
777.917	35.3
778.096	36.93
778.274	37.46
778.453	36.97
778.631	38.34
778.81	38.31
778.988	37.97
779.166	37.23
779.345	38.12
779.523	38.05
779.702	37.78
779.88	38.34
780.058	36.33
780.237	36.48
780.415	37.26
780.593	36.89
780.771	37.52
780.95	38.2
781.128	38.96
781.306	38.27
781.484	39.31
781.662	39.83
781.841	38.65
782.019	40.03
782.197	39.95
782.375	39.55
782.553	38.11
782.731	37.17
782.909	36.92
783.087	35.83
783.265	36.23
783.443	35.69
783.621	35
783.799	36.33
783.977	36.16
784.155	36.27
784.333	36.33
784.511	37.07
784.689	37.85
784.867	38.15
785.045	38.69
785.223	38.55
785.4	38.52
785.578	39.36
785.756	38.13
785.934	37.73
786.112	38.07
786.289	37.35
786.467	37.25
786.645	37.68
786.823	37
787	37.42
787.178	37.33
787.356	36.92
787.533	35.81
787.711	36.35
787.889	37.52
788.066	37.15
788.244	37.18
788.421	36.76
788.599	35.35
788.776	35.33
788.954	34.3
789.131	35.17
789.309	34.69
789.486	35.31
789.664	34.93
789.841	34.51
790.019	34.65
790.196	34.06
790.373	35.32
790.551	36.33
790.728	36.99
790.906	37.48
791.083	36.46
791.26	37.47
791.437	37.74
791.615	37.7
791.792	36.78
791.969	37.02
792.146	38.22
792.324	37.86
792.501	37.86
792.678	37.86
792.855	38.15
793.032	38.99
793.209	39.07
793.387	38.78
793.564	39.42
793.741	40.31
793.918	39.66
794.095	40.08
794.272	39.7
794.449	40.09
794.626	40.25
794.803	40.04
794.98	39.88
795.157	39.12
795.334	40.08
795.511	40.07
795.688	39.16
795.864	39.19
796.041	39.13
796.218	40.08
796.395	39.85
796.572	39.78
796.749	39.74
796.925	39.72
797.102	39.81
797.279	38.27
797.456	37.88
797.632	37.68
797.809	37.79
797.986	37.47
798.162	37.27
798.339	37.03
798.516	37.68
798.692	37.57
798.869	37.89
799.046	38.78
799.222	39.1
799.399	38.2
799.575	38.3
799.752	37.89
799.928	37.72
800.105	37.1
800.281	36.57
800.458	35.19
800.634	35.17
800.811	35.29
800.987	34.81
801.163	35.08
801.34	36.41
801.516	36.52
801.692	37.25
801.869	37.77
802.045	37.55
802.221	38.2
802.398	39.26
802.574	39
802.75	38.99
802.926	37.54
803.103	37.92
803.279	37.47
803.455	36.31
803.631	36.91
803.807	36.49
803.983	36.67
804.16	36.4
804.336	36
804.512	36.89
804.688	36.05
804.864	37.59
805.04	37.13
805.216	37.89
805.392	38.42
805.568	38.43
805.744	38.33
805.92	39.66
806.096	38.6
806.272	38.8
806.448	38.12
806.623	39.08
806.799	38.42
806.975	38.91
807.151	38.56
807.327	39.47
807.503	38.39
807.678	39.97
807.854	39.24
808.03	40.26
808.206	39.92
808.381	39.97
808.557	39.63
808.733	39.93
808.908	39.65
809.084	40.97
809.26	42.07
809.435	41.37
809.611	37.71
809.787	37.73
809.962	37.67
810.138	38.13
810.313	38.49
810.489	39.06
810.664	39.45
810.84	38.91
811.015	38.07
811.191	37.36
811.366	38.86
811.542	41.1
811.717	40.3
811.892	41.27
812.068	42.2
812.243	40.94
812.419	40
812.594	39.34
812.769	41.26
812.944	39.47
813.12	38.55
813.295	38.7
813.47	38.28
813.645	39.37
813.821	38.47
813.996	36.71
814.171	38.71
814.346	38.23
814.521	39.13
814.697	37.51
814.872	39.62
815.047	40.51
815.222	39.92
815.397	40.18
815.572	40.51
815.747	41.31
815.922	41.07
816.097	40.48
816.272	41.09
816.447	41.78
816.622	43.16
816.797	41.41
816.972	40.19
817.147	39.52
817.322	39.83
817.496	39.47
817.671	39.54
817.846	41.13
818.021	39.66
818.196	39.64
818.371	38.46
818.545	37.91
818.72	39.82
818.895	40.42
819.069	41.42
819.244	42.02
819.419	41.2
819.594	40.9
819.768	40.09
819.943	40.89
820.117	40.02
820.292	40.2
820.467	39.91
820.641	39.17
820.816	39.3
820.99	38.99
821.165	38.54
821.339	38.72
821.514	38.68
821.688	38.84
821.863	38.65
822.037	38.83
822.212	38.69
822.386	38.58
822.56	38.53
822.735	38.59
822.909	38.64
823.084	38.37
823.258	38.09
823.432	38.16
823.606	38.11
823.781	38.26
823.955	38.19
824.129	38.1
824.303	38.22
824.478	38.22
824.652	38.01
824.826	37.74
825	37.95
825.174	37.95
825.348	37.82
825.523	37.36
825.697	37.49
825.871	37.64
826.045	37.83
826.219	37.99
826.393	38.38
826.567	38.33
826.741	38.77
826.915	39.15
827.089	39.62
827.263	39.12
827.437	39.16
827.611	38.39
827.784	38.4
827.958	38.69
828.132	38.1
828.306	37.8
828.48	37.15
828.654	37.11
828.827	36.78
829.001	36.27
829.175	37.05
829.349	36.66
829.522	37.3
829.696	37.3
829.87	37.18
830.044	38.02
830.217	36.81
830.391	38.29
830.565	37.15
830.738	36.13
830.912	36.12
831.085	35.77
831.259	36.66
831.432	36.97
831.606	37
831.779	36.66
831.953	35.98
832.126	37.49
832.3	36.8
832.473	37.11
832.647	37.65
832.82	37.28
832.994	36.92
833.167	37.68
833.34	37.18
833.514	36.8
833.687	36.49
833.86	36.92
834.034	35.97
834.207	36.48
834.38	36.98
834.553	37.88
834.727	39.22
834.9	39.74
835.073	39.67
835.246	39.5
835.419	39.95
835.593	41.29
835.766	40.17
835.939	41.2
836.112	41.13
836.285	40.62
836.458	39.53
836.631	38.4
836.804	37.47
836.977	38.12
837.15	39.35
837.323	39.15
837.496	38.53
837.669	39.72
837.842	39.43
838.015	38.98
838.188	40.1
838.361	39.89
838.533	39.17
838.706	39.42
838.879	35.31
839.052	33.93
839.225	35.76
839.398	34.66
839.57	37.4
839.743	37.99
839.916	37.75
840.088	38.6
840.261	38.82
840.434	37.72
840.607	38.32
840.779	40.1
840.952	41.61
841.124	39.97
841.297	42.12
841.47	40.5
841.642	41.29
841.815	42.39
841.987	41.8
842.16	40.76
842.332	42.74
842.505	41.03
842.677	42.78
842.85	43.81
843.022	44.91
843.194	43.97
843.367	45.52
843.539	44.76
843.712	44.71
843.884	42.92
844.056	44.18
844.229	44.1
844.401	47.72
844.573	47.81
844.745	45.3
844.918	44.74
845.09	41.1
845.262	37.63
845.434	36.21
845.606	39.99
845.779	38.75
845.951	39.16
846.123	38.58
846.295	37.85
846.467	37.91
846.639	36.9
846.811	40.17
846.983	37.74
847.155	41.55
847.327	42.01
847.499	38.57
847.671	40.87
847.843	40.33
848.015	39.62
848.187	41.92
848.359	40.48
848.531	40.41
848.703	38.69
848.875	41.77
849.047	38.5
849.218	39.05
849.39	39.64
849.562	41.09
849.734	41.28
849.905	43.1
850.077	39.41
850.249	37.34
850.421	39.04
850.592	37.04
850.764	36.35
850.936	37.7
851.107	40.28
851.279	39.24
851.451	35.39
851.622	32.95
851.794	35.12
851.965	39.42
852.137	40.98
852.308	42.43
852.48	47.65
852.651	48.97
852.823	46.05
852.994	41.14
853.166	41.5
853.337	47.06
853.509	52.99
853.68	52.67
853.851	49.5
854.023	51.52
854.194	49.73
854.365	45.43
854.537	46.9
854.708	51.83
854.879	53.38
855.05	52.56
855.222	48.06
855.393	44.6
855.564	39.91
855.735	41.52
855.906	40.15
856.078	39.77
856.249	41.33
856.42	42.7
856.591	40.68
856.762	43.18
856.933	45.06
857.104	47.68
857.275	50.45
857.446	52.64
857.617	48.8
857.788	46.55
857.959	48.22
858.13	47.2
858.301	45.79
858.472	42.48
858.643	43.42
858.814	39.18
858.985	38.62
859.155	32.84
859.326	34.87
859.497	40.66
859.668	42.56
859.839	40.78
860.009	37.16
860.18	36.63
860.351	36.5
860.522	33.67
860.692	36.26
860.863	34.66
861.034	38.69
861.204	36.03
861.375	35.69
861.546	37.46
861.716	38.69
861.887	42.5
862.057	44.83
862.228	45.58
862.398	42.39
862.569	44.02
862.739	45.67
862.91	45.86
863.08	46.57
863.251	50.86
863.421	45.92
863.592	47.15
863.762	46
863.932	40.55
864.103	43.13
864.273	51.26
864.443	49.84
864.614	44.91
864.784	42.19
864.954	45.55
865.125	41.17
865.295	44.75
865.465	39.99
865.635	43.28
865.805	49.44
865.976	49.06
866.146	43.68
866.316	46.81
866.486	48.8
866.656	52.7
866.826	53.43
866.996	52.08
867.166	51.01
867.336	54.17
867.506	53.47
867.676	47.8
867.846	50.69
868.016	53.85
868.186	47.75
868.356	46.31
868.526	41.51
868.696	40.87
868.866	45.9
869.036	41.45
869.206	43.08
869.376	43.99
869.545	41.7
869.715	37.56
869.885	39.77
870.055	41.93
870.224	39.22
870.394	44.01
870.564	46.41
870.734	46.03
870.903	52.34
871.073	51.81
871.243	49.65
871.412	56.84
871.582	57.39
871.751	57.67
871.921	58.1
872.091	62.5
872.26	62.02
872.43	57.47
872.599	54.25
872.769	54.27
872.938	56.04
873.108	57.04
873.277	52.55
873.446	52.88
873.616	52.24
873.785	53.89
873.955	52.66
874.124	48.8
874.293	43.36
874.463	40.74
874.632	37.92
874.801	36.51
874.971	36.47
875.14	40.14
875.309	44.5
875.478	39.2
875.647	38.23
875.817	34.6
875.986	39.26
876.155	45.66
876.324	46.12
876.493	43.47
876.662	41.51
876.831	42.78
877	39.71
877.17	35.53
877.339	37.87
877.508	38.77
877.677	43.71
877.846	40.39
878.015	42.43
878.184	42.54
878.352	45.51
878.521	44.8
878.69	42.96
878.859	45.65
879.028	45.88
879.197	43.27
879.366	45.57
879.534	43.84
879.703	43.92
879.872	41.86
880.041	41.39
880.21	40.12
880.378	40.55
880.547	41.35
880.716	41.66
880.884	41.43
881.053	42.5
881.222	40.74
881.39	40.9
881.559	41.35
881.727	41.24
881.896	41.64
882.065	42.13
882.233	41.73
882.402	41.45
882.57	41.08
882.739	41.76
882.907	41.93
883.076	42.63
883.244	42.25
883.412	42.16
883.581	41.91
883.749	41.77
883.918	41.14
884.086	41.79
884.254	41.94
884.423	41.76
884.591	40.82
884.759	40.59
884.927	40.88
885.096	40.42
885.264	39.73
885.432	40.06
885.6	40.53
885.769	40.39
885.937	38.98
886.105	37.43
886.273	37.75
886.441	38.16
886.609	39.25
886.777	37.22
886.945	39.61
887.113	40.39
887.281	42.12
887.449	41.16
887.617	45.23
887.785	48.24
887.953	50.98
888.121	52.81
888.289	54.1
888.457	52.38
888.625	52.39
888.793	52.04
888.961	50.4
889.129	47.39
889.296	46.27
889.464	44.29
889.632	44.33
889.8	43.15
889.967	37.19
890.135	35.96
