Data from 2938517_Reflection_2.txt Node
Date: Tue Jun 16 22:29:14 EDT 2015
User: robert
Spectrometer: USB4E03002
Autoset integration time: false
Trigger mode: 4
Integration Time (sec): 1.000000E-1
Scans to average: 10
Electric dark correction enabled: true
Nonlinearity correction enabled: false
Boxcar width: 5
Stray light correction enabled: false
XAxis mode: Wavelengths
Stop averaging: false
Number of Pixels in Spectrum: 3648
>>>>>Begin Spectral Data<<<<<
177.575	57.13
177.794	-3.68
178.014	21.01
178.233	41.6
178.452	72.46
178.672	136.08
178.891	560.64
179.11	-340.91
179.33	-936.77
179.549	-13.17
179.768	80.84
179.987	157.88
180.207	39.12
180.426	8.57
180.645	-277.44
180.864	320.88
181.084	67.24
181.303	77.09
181.522	91.96
181.741	88.65
181.96	82.41
182.179	96.95
182.398	142.45
182.618	121.14
182.837	102.18
183.056	79.55
183.275	83.64
183.494	3.69
183.713	159.16
183.932	263.32
184.151	188.34
184.37	931.55
184.589	-34.47
184.808	47.83
185.027	93.24
185.246	77.9
185.465	97.42
185.684	90.76
185.903	139.08
186.122	111.49
186.341	113.48
186.56	102.17
186.779	143.91
186.998	240.67
187.216	236.86
187.435	117.14
187.654	143.86
187.873	266.87
188.092	175.77
188.311	133.09
188.53	104.27
188.748	-131.56
188.967	522.58
189.186	63.02
189.405	79.69
189.623	43.58
189.842	61
190.061	31.26
190.28	-2.54
190.498	9.63
190.717	12.7
190.936	51
191.154	61.22
191.373	41.8
191.592	43.05
191.81	5.86
192.029	50.73
192.248	1.95
192.466	24.47
192.685	70.45
192.904	109.62
193.122	78.8
193.341	124.83
193.559	86.67
193.778	134.21
193.996	81.78
194.215	2.35
194.433	-22.2
194.652	-133.75
194.87	-217.27
195.089	-96.93
195.307	1.65
195.526	99.7
195.744	113.19
195.963	127.91
196.181	124.66
196.399	122.53
196.618	146.74
196.836	130.57
197.055	99.2
197.273	147.93
197.491	192.79
197.71	152.56
197.928	156.21
198.146	125.5
198.365	97.76
198.583	106.7
198.801	98.59
199.019	65.26
199.238	58.91
199.456	68.36
199.674	45.4
199.892	25.21
200.111	23.07
200.329	42.05
200.547	49.09
200.765	51.65
200.983	53.48
201.202	34.63
201.42	37.06
201.638	28.95
201.856	46.6
202.074	32.04
202.292	52.35
202.51	56.38
202.728	58.69
202.946	62.78
203.165	58.73
203.383	33.75
203.601	49.78
203.819	91.12
204.037	106.82
204.255	74.25
204.473	78.53
204.691	74.52
204.909	89.59
205.127	81.19
205.345	69.02
205.562	60.91
205.78	68.95
205.998	61.16
206.216	-5.26
206.434	-28.79
206.652	-32.48
206.87	-27.74
207.088	-96.82
207.306	-155.24
207.523	-64.14
207.741	-43.27
207.959	-3.44
208.177	10.84
208.395	-9.51
208.612	20.32
208.83	28.3
209.048	22.97
209.266	28.56
209.483	27.01
209.701	22.86
209.919	43.32
210.136	36.12
210.354	39.35
210.572	41.4
210.79	44.3
211.007	50.85
211.225	57.66
211.442	65.08
211.66	58.67
211.878	71.61
212.095	77.93
212.313	75.12
212.53	80.68
212.748	84.87
212.966	85.03
213.183	94.7
213.401	96.45
213.618	96.07
213.836	94.55
214.053	96.95
214.271	100.21
214.488	96.57
214.705	105.48
214.923	82.07
215.14	60.69
215.358	54.54
215.575	49.32
215.793	50.87
216.01	30.55
216.227	25.32
216.445	26.09
216.662	22.98
216.879	40.22
217.097	27.33
217.314	27.67
217.531	37.39
217.749	33.08
217.966	41.99
218.183	36.7
218.4	37.46
218.618	31.77
218.835	32.34
219.052	8.79
219.269	-7.23
219.487	-2.64
219.704	4.21
219.921	4.59
220.138	10.36
220.355	6.78
220.572	10.17
220.79	13.9
221.007	14.01
221.224	11.37
221.441	19.69
221.658	19.65
221.875	25.3
222.092	16.22
222.309	11.21
222.526	11.59
222.743	1.3
222.96	1.04
223.177	1.51
223.394	5.17
223.611	7.14
223.828	9.1
224.045	13.85
224.262	13.04
224.479	14.8
224.696	16.69
224.913	18.34
225.13	19.59
225.347	16.73
225.564	16.02
225.781	14.17
225.997	13.9
226.214	13.11
226.431	10.74
226.648	8.68
226.865	10.15
227.082	10.31
227.298	9.27
227.515	9.32
227.732	10.2
227.949	10.02
228.165	10.29
228.382	9.39
228.599	9.19
228.816	10.33
229.032	11.8
229.249	10.74
229.466	10.07
229.682	9.03
229.899	9.9
230.116	10.82
230.332	12.01
230.549	11.05
230.765	12.49
230.982	11.96
231.199	10.71
231.415	9.98
231.632	10.54
231.848	12.91
232.065	14.83
232.281	14.58
232.498	12.37
232.714	11.69
232.931	14.01
233.147	13.28
233.364	13.79
233.58	14.04
233.797	14.84
234.013	14.51
234.23	12.61
234.446	13.24
234.662	13.15
234.879	15.12
235.095	15.68
235.312	15.6
235.528	16.24
235.744	17.58
235.961	15.3
236.177	15.03
236.393	15.68
236.61	16.95
236.826	15.98
237.042	14.7
237.258	13.65
237.475	12.85
237.691	12.37
237.907	12.8
238.123	10.8
238.339	11.97
238.556	11.17
238.772	10.1
238.988	10.41
239.204	10.61
239.42	11.22
239.636	10.88
239.853	11.47
240.069	11.93
240.285	11.51
240.501	12.27
240.717	12.69
240.933	12.81
241.149	12.93
241.365	12.57
241.581	11.92
241.797	11.45
242.013	11.92
242.229	11.25
242.445	10.92
242.661	10.65
242.877	10.4
243.093	9.9
243.309	9.77
243.525	9.86
243.741	9.47
243.957	10.07
244.173	10.25
244.388	9.96
244.604	9.99
244.82	9.5
245.036	9.78
245.252	9.87
245.468	9.77
245.683	9.75
245.899	9.56
246.115	9.96
246.331	9.76
246.547	9.27
246.762	9.02
246.978	9.13
247.194	9.26
247.409	9.07
247.625	8.88
247.841	8.94
248.057	8.74
248.272	9.1
248.488	9.02
248.703	8.73
248.919	9.82
249.135	10.38
249.35	9.96
249.566	10.3
249.782	9.74
249.997	10.51
250.213	10.27
250.428	9.73
250.644	9.21
250.859	8.36
251.075	8.51
251.29	8.21
251.506	7.88
251.721	8.23
251.937	8.35
252.152	8.38
252.368	7.55
252.583	8.01
252.798	9.4
253.014	10.3
253.229	10.94
253.445	11.94
253.66	11.71
253.875	10.8
254.091	10.75
254.306	10.26
254.521	10.8
254.737	10.36
254.952	9.26
255.167	7.6
255.383	6.84
255.598	6.96
255.813	6.38
256.028	5.85
256.244	6.66
256.459	6.75
256.674	6.95
256.889	7.27
257.104	6.91
257.32	6.82
257.535	7.02
257.75	6.94
257.965	6.62
258.18	6.43
258.395	6.71
258.61	6.88
258.826	6.53
259.041	6.58
259.256	6.1
259.471	6.34
259.686	6.76
259.901	6.74
260.116	7.12
260.331	7.42
260.546	7.7
260.761	7.32
260.976	7.11
261.191	7.51
261.406	7.03
261.621	8.08
261.836	7.77
262.05	7.92
262.265	7.97
262.48	8.28
262.695	8.51
262.91	8.12
263.125	8.54
263.34	8.42
263.555	8.42
263.769	8.8
263.984	8.29
264.199	8.44
264.414	8
264.629	8.14
264.843	7.56
265.058	7.49
265.273	7.82
265.488	8.06
265.702	7.91
265.917	7.94
266.132	7.62
266.346	7.62
266.561	7.82
266.776	7.77
266.99	7.79
267.205	7.73
267.42	7.52
267.634	7.75
267.849	7.62
268.063	7.84
268.278	7.74
268.492	7.75
268.707	8.02
268.922	7.35
269.136	7.31
269.351	6.98
269.565	6.75
269.78	6.47
269.994	6.17
270.209	6.18
270.423	5.76
270.637	5.89
270.852	6.03
271.066	5.63
271.281	6.02
271.495	6.02
271.709	6.27
271.924	6.33
272.138	6.66
272.353	7.36
272.567	7.41
272.781	8.04
272.996	7.68
273.21	7.82
273.424	8.05
273.638	7.55
273.853	7.4
274.067	7.23
274.281	7.06
274.495	7.06
274.71	6.51
274.924	6.59
275.138	6.45
275.352	6.53
275.566	6.75
275.781	6.69
275.995	7.25
276.209	7.32
276.423	7.69
276.637	7.87
276.851	8.1
277.065	7.81
277.279	7.98
277.493	7.71
277.707	7.86
277.921	7.51
278.135	7.84
278.349	7.81
278.563	7.77
278.777	7.56
278.991	8.06
279.205	8.04
279.419	7.91
279.633	7.53
279.847	7.95
280.061	7.9
280.275	7.93
280.489	7.48
280.703	7.12
280.917	7.34
281.131	7.32
281.344	6.97
281.558	6.71
281.772	6.93
281.986	6.71
282.2	6.59
282.414	6.37
282.627	6.38
282.841	6.75
283.055	7.01
283.269	6.76
283.482	6.85
283.696	7.27
283.91	6.92
284.123	6.75
284.337	7.14
284.551	6.93
284.764	7.05
284.978	6.77
285.192	6.76
285.405	6.63
285.619	6.63
285.833	6.63
286.046	6.35
286.26	6.4
286.473	6.65
286.687	6.94
286.9	7.03
287.114	7.14
287.327	7.34
287.541	7.21
287.754	7.27
287.968	7.56
288.181	7.51
288.395	7.2
288.608	7.33
288.822	7.42
289.035	6.89
289.248	7.3
289.462	7.52
289.675	7.58
289.889	7.25
290.102	7.43
290.315	7.11
290.529	7.24
290.742	7.65
290.955	8.07
291.169	8.09
291.382	8.54
291.595	8.28
291.808	8.19
292.022	8.2
292.235	8.54
292.448	8.58
292.661	8.98
292.875	9
293.088	8.94
293.301	9.09
293.514	9
293.727	8.69
293.94	8.65
294.153	8.84
294.367	8.89
294.58	8.87
294.793	9.04
295.006	8.96
295.219	8.98
295.432	8.74
295.645	8.59
295.858	8.66
296.071	8.74
296.284	9.07
296.497	9.11
296.71	9.23
296.923	9.47
297.136	9.45
297.349	9.65
297.562	9.7
297.775	10.01
297.988	10.06
298.201	10.34
298.414	10.8
298.626	10.7
298.839	10.72
299.052	10.31
299.265	10.53
299.478	10.19
299.691	10.39
299.903	10.39
300.116	10.61
300.329	10.48
300.542	10.37
300.755	10.39
300.967	10.11
301.18	10.33
301.393	10.85
301.605	10.69
301.818	11.11
302.031	10.65
302.243	11.05
302.456	10.76
302.669	11.17
302.881	10.99
303.094	10.76
303.307	10.78
303.519	10.61
303.732	11.07
303.944	11.08
304.157	10.99
304.37	10.95
304.582	10.38
304.795	10.79
305.007	10.66
305.22	11.23
305.432	11.23
305.645	10.97
305.857	10.75
306.069	10.32
306.282	10.55
306.494	10.53
306.707	10.71
306.919	10.84
307.132	10.82
307.344	10.57
307.556	10.23
307.769	10.1
307.981	10.54
308.193	10.52
308.406	10.41
308.618	10.3
308.83	10.55
309.043	10.74
309.255	10.97
309.467	10.75
309.679	10.69
309.892	10.78
310.104	10.99
310.316	10.76
310.528	10.83
310.74	10.81
310.953	10.76
311.165	10.7
311.377	10.61
311.589	10.79
311.801	10.87
312.013	11.26
312.225	10.97
312.437	10.83
312.649	10.92
312.862	10.83
313.074	10.94
313.286	10.9
313.498	10.74
313.71	10.57
313.922	10.24
314.134	9.84
314.346	9.48
314.558	10.14
314.77	10.01
314.982	10.21
315.193	10.38
315.405	10.66
315.617	10.74
315.829	10.66
316.041	10.78
316.253	10.62
316.465	11.05
316.677	11.38
316.888	11.06
317.1	10.85
317.312	10.86
317.524	10.78
317.736	10.52
317.947	10.28
318.159	10.55
318.371	10.54
318.583	10.1
318.794	10.34
319.006	10.63
319.218	10.54
319.43	11.41
319.641	11.35
319.853	11.45
320.064	11.27
320.276	11.78
320.488	11.46
320.699	11.51
320.911	12.17
321.123	12.02
321.334	11.99
321.546	12.04
321.757	11.27
321.969	11.69
322.18	11.23
322.392	11.31
322.603	11.15
322.815	11.18
323.026	11.53
323.238	11.35
323.449	11.74
323.661	11.21
323.872	11.44
324.083	12.06
324.295	11.68
324.506	12.59
324.718	12.45
324.929	12.19
325.14	12.45
325.352	12.04
325.563	12.21
325.774	11.76
325.986	12.09
326.197	11.97
326.408	11.66
326.62	11.97
326.831	11.55
327.042	11.51
327.253	11.69
327.464	11.51
327.676	11.4
327.887	11.48
328.098	11.61
328.309	12.11
328.52	12.49
328.732	12.19
328.943	12.04
329.154	12.42
329.365	12.65
329.576	12.75
329.787	12.95
329.998	12.9
330.209	12.96
330.42	13.3
330.631	12.84
330.842	12.37
331.053	13.14
331.264	13.06
331.475	12.87
331.686	12.79
331.897	12.5
332.108	12.07
332.319	12.67
332.53	12.29
332.741	11.8
332.952	11.66
333.163	11.86
333.374	11.41
333.585	11.13
333.795	10.84
334.006	11.06
334.217	11.2
334.428	11.4
334.639	11.18
334.849	11.71
335.06	12.09
335.271	11.91
335.482	11.7
335.692	11.69
335.903	12.04
336.114	12.53
336.325	12.23
336.535	12.17
336.746	11.85
336.957	11.83
337.167	11.56
337.378	11.56
337.589	11.71
337.799	11.59
338.01	11.56
338.22	11.42
338.431	10.82
338.642	11.04
338.852	11.16
339.063	11.75
339.273	11.87
339.484	11.64
339.694	11.3
339.905	11.2
340.115	11.36
340.326	11.78
340.536	11.82
340.746	12.02
340.957	11.97
341.167	11.62
341.378	11.34
341.588	11.15
341.799	11.16
342.009	11.07
342.219	11.04
342.43	10.77
342.64	10.58
342.85	10.47
343.061	10.46
343.271	10.55
343.481	10.95
343.691	11.2
343.902	11.11
344.112	11.31
344.322	11.68
344.532	11.67
344.743	12.02
344.953	11.92
345.163	12.23
345.373	12.16
345.583	12.14
345.793	12.02
346.004	11.76
346.214	11.64
346.424	11.71
346.634	11.58
346.844	11.71
347.054	11.41
347.264	11.56
347.474	11.25
347.684	11.31
347.894	11.24
348.104	11.07
348.314	10.97
348.524	11.09
348.734	10.62
348.944	10.67
349.154	10.78
349.364	10.76
349.574	10.78
349.784	10.69
349.994	10.74
350.204	10.69
350.413	10.83
350.623	10.85
350.833	10.52
351.043	10.64
351.253	10.54
351.463	10.25
351.672	10.14
351.882	9.73
352.092	9.88
352.302	9.88
352.511	10.02
352.721	9.94
352.931	9.95
353.141	10.37
353.35	10.38
353.56	10.35
353.77	10.44
353.979	10.68
354.189	10.91
354.399	10.59
354.608	10.41
354.818	10.41
355.027	10.72
355.237	10.59
355.447	10.59
355.656	10.72
355.866	10.47
356.075	10.55
356.285	10.64
356.494	10.43
356.704	10.28
356.913	10.32
357.123	10.55
357.332	10.16
357.542	10.27
357.751	10.03
357.96	10.33
358.17	10.33
358.379	10.33
358.589	9.97
358.798	9.92
359.007	10.05
359.217	9.98
359.426	9.54
359.635	9.58
359.845	9.58
360.054	9.7
360.263	9.32
360.472	9.4
360.682	9.44
360.891	9.58
361.1	9.92
361.309	10.03
361.519	9.84
361.728	9.94
361.937	9.99
362.146	9.78
362.355	9.78
362.564	9.73
362.774	9.64
362.983	9.66
363.192	9.76
363.401	9.47
363.61	9.43
363.819	9.66
364.028	9.5
364.237	9.47
364.446	9.68
364.655	9.54
364.864	9.69
365.073	9.79
365.282	9.56
365.491	9.54
365.7	9.66
365.909	9.46
366.118	9.29
366.327	9.27
366.536	9.06
366.745	9.01
366.954	9.11
367.162	8.85
367.371	8.92
367.58	8.85
367.789	8.7
367.998	8.44
368.207	8.42
368.415	8.51
368.624	8.77
368.833	8.88
369.042	9.01
369.25	8.98
369.459	9.02
369.668	8.79
369.877	8.76
370.085	8.85
370.294	8.86
370.503	8.9
370.711	8.96
370.92	8.84
371.129	8.95
371.337	8.82
371.546	8.67
371.754	8.7
371.963	8.89
372.171	8.63
372.38	8.51
372.589	8.59
372.797	8.55
373.006	8.35
373.214	8.29
373.423	7.93
373.631	7.98
373.84	8.01
374.048	7.99
374.256	7.87
374.465	8.34
374.673	8.37
374.882	8.39
375.09	8.54
375.298	8.62
375.507	8.68
375.715	8.83
375.923	8.66
376.132	8.68
376.34	8.49
376.548	8.43
376.757	8.24
376.965	8.19
377.173	8.1
377.381	7.99
377.59	8.05
377.798	7.88
378.006	7.88
378.214	8.13
378.423	8.29
378.631	8.61
378.839	8.62
379.047	8.53
379.255	8.34
379.463	8.28
379.671	8.42
379.879	8.36
380.088	8.57
380.296	8.68
380.504	8.51
380.712	8.39
380.92	8.28
381.128	8.28
381.336	8.31
381.544	8.52
381.752	8.45
381.96	8.23
382.168	8.22
382.376	7.9
382.584	7.81
382.791	8.02
382.999	7.96
383.207	8.02
383.415	7.62
383.623	7.63
383.831	7.7
384.039	7.7
384.247	7.94
384.454	7.94
384.662	8.15
384.87	8.31
385.078	8.1
385.285	8.01
385.493	7.78
385.701	8.24
385.909	8.19
386.116	7.97
386.324	8.09
386.532	7.99
386.739	8.11
386.947	8.2
387.155	7.93
387.362	8.03
387.57	8.22
387.778	8.43
387.985	8.29
388.193	8.48
388.4	8.52
388.608	8.6
388.816	8.57
389.023	8.54
389.231	8.21
389.438	8.36
389.646	8.13
389.853	8.04
390.061	7.96
390.268	8.01
390.475	7.98
390.683	7.74
390.89	7.45
391.098	7.41
391.305	7.43
391.512	7.56
391.72	7.31
391.927	7.47
392.135	7.48
392.342	7.46
392.549	7.42
392.756	7.39
392.964	7.56
393.171	7.67
393.378	7.6
393.586	7.34
393.793	7.33
394	7.52
394.207	7.45
394.414	7.27
394.622	7.2
394.829	7.18
395.036	6.83
395.243	6.94
395.45	7
395.657	6.93
395.864	7.08
396.072	7.09
396.279	7.09
396.486	7.13
396.693	7.23
396.9	7.25
397.107	7.22
397.314	7.34
397.521	7.13
397.728	7.08
397.935	7.16
398.142	7.22
398.349	7.28
398.556	7.17
398.763	7.21
398.97	7.26
399.177	7.35
399.383	7.42
399.59	7.46
399.797	7.32
400.004	7.15
400.211	7.25
400.418	7.25
400.625	7.03
400.831	7.09
401.038	6.89
401.245	6.78
401.452	6.89
401.658	6.76
401.865	6.84
402.072	6.95
402.279	7.12
402.485	7.09
402.692	6.98
402.899	7.03
403.105	6.91
403.312	6.8
403.519	6.99
403.725	6.79
403.932	6.94
404.138	6.78
404.345	6.87
404.552	6.86
404.758	6.74
404.965	6.58
405.171	6.63
405.378	6.8
405.584	6.85
405.791	6.58
405.997	6.6
406.204	6.48
406.41	6.7
406.617	6.67
406.823	6.61
407.029	6.82
407.236	7.04
407.442	7.04
407.649	6.97
407.855	7.28
408.061	7.41
408.268	7.32
408.474	7.35
408.68	7.26
408.887	7.25
409.093	7.27
409.299	7.23
409.505	7.21
409.712	7.13
409.918	7.12
410.124	6.95
410.33	6.77
410.537	6.83
410.743	6.93
410.949	6.98
411.155	7.03
411.361	6.97
411.567	6.84
411.773	6.93
411.98	7.12
412.186	6.91
412.392	6.86
412.598	6.99
412.804	7
413.01	6.95
413.216	6.78
413.422	6.76
413.628	6.71
413.834	6.81
414.04	6.63
414.246	6.61
414.452	6.63
414.658	6.56
414.864	6.59
415.07	6.63
415.275	6.58
415.481	6.65
415.687	6.62
415.893	6.7
416.099	6.68
416.305	6.67
416.511	6.51
416.716	6.51
416.922	6.56
417.128	6.46
417.334	6.37
417.539	6.38
417.745	6.39
417.951	6.37
418.157	6.36
418.362	6.2
418.568	6.22
418.774	6.17
418.979	6.17
419.185	6.23
419.391	6.33
419.596	6.33
419.802	6.26
420.008	6.27
420.213	6.55
420.419	6.53
420.624	6.61
420.83	6.57
421.035	6.69
421.241	6.67
421.446	6.6
421.652	6.52
421.857	6.43
422.063	6.42
422.268	6.38
422.474	6
422.679	5.97
422.885	5.92
423.09	5.94
423.295	5.86
423.501	5.94
423.706	5.98
423.911	6.01
424.117	6.07
424.322	6.09
424.527	6.15
424.733	6.22
424.938	6.28
425.143	6.39
425.349	6.34
425.554	6.36
425.759	6.34
425.964	6.26
426.169	6.23
426.375	6.22
426.58	6.24
426.785	6.14
426.99	6.1
427.195	6.13
427.4	6.12
427.605	6.16
427.811	6.17
428.016	6.28
428.221	6.34
428.426	6.38
428.631	6.29
428.836	6.34
429.041	6.3
429.246	6.38
429.451	6.29
429.656	6.2
429.861	6.22
430.066	6.2
430.271	6.07
430.476	6.04
430.681	5.88
430.886	5.98
431.09	5.89
431.295	5.86
431.5	5.91
431.705	5.87
431.91	5.83
432.115	5.78
432.32	5.78
432.524	5.77
432.729	5.85
432.934	5.95
433.139	5.88
433.343	5.96
433.548	5.97
433.753	5.85
433.958	5.92
434.162	5.98
434.367	6
434.572	5.98
434.776	6.04
434.981	5.82
435.186	5.76
435.39	5.78
435.595	5.66
435.799	5.6
436.004	5.65
436.209	5.61
436.413	5.62
436.618	5.6
436.822	5.64
437.027	5.54
437.231	5.72
437.436	5.71
437.64	5.67
437.845	5.73
438.049	5.92
438.253	5.86
438.458	5.83
438.662	5.83
438.867	5.81
439.071	5.84
439.275	5.89
439.48	5.92
439.684	6.08
439.888	6.14
440.093	6.08
440.297	6
440.501	5.95
440.706	5.95
440.91	5.94
441.114	5.93
441.318	5.89
441.523	5.91
441.727	5.85
441.931	5.79
442.135	5.78
442.339	5.69
442.543	5.74
442.748	5.83
442.952	5.92
443.156	5.9
443.36	5.91
443.564	5.85
443.768	5.79
443.972	5.71
444.176	5.65
444.38	5.64
444.584	5.71
444.788	5.67
444.992	5.61
445.196	5.58
445.4	5.51
445.604	5.52
445.808	5.57
446.012	5.58
446.216	5.61
446.42	5.59
446.624	5.49
446.828	5.54
447.032	5.53
447.235	5.54
447.439	5.48
447.643	5.57
447.847	5.58
448.051	5.58
448.254	5.59
448.458	5.6
448.662	5.59
448.866	5.71
449.069	5.68
449.273	5.64
449.477	5.68
449.681	5.65
449.884	5.65
450.088	5.56
450.292	5.63
450.495	5.65
450.699	5.63
450.902	5.64
451.106	5.6
451.31	5.58
451.513	5.59
451.717	5.5
451.92	5.55
452.124	5.51
452.327	5.48
452.531	5.29
452.734	5.3
452.938	5.23
453.141	5.28
453.345	5.28
453.548	5.35
453.752	5.28
453.955	5.33
454.158	5.32
454.362	5.34
454.565	5.43
454.769	5.54
454.972	5.49
455.175	5.55
455.379	5.57
455.582	5.57
455.785	5.54
455.988	5.59
456.192	5.58
456.395	5.54
456.598	5.59
456.801	5.55
457.005	5.47
457.208	5.4
457.411	5.41
457.614	5.36
457.817	5.33
458.021	5.33
458.224	5.37
458.427	5.36
458.63	5.29
458.833	5.3
459.036	5.25
459.239	5.26
459.442	5.3
459.645	5.25
459.848	5.16
460.051	5.23
460.254	5.21
460.457	5.19
460.66	5.17
460.863	5.34
461.066	5.2
461.269	5.29
461.472	5.3
461.675	5.35
461.878	5.43
462.081	5.49
462.284	5.4
462.486	5.36
462.689	5.36
462.892	5.32
463.095	5.2
463.298	5.33
463.5	5.34
463.703	5.44
463.906	5.34
464.109	5.35
464.311	5.37
464.514	5.34
464.717	5.37
464.92	5.41
465.122	5.44
465.325	5.45
465.528	5.45
465.73	5.43
465.933	5.37
466.135	5.45
466.338	5.37
466.541	5.36
466.743	5.45
466.946	5.46
467.148	5.43
467.351	5.45
467.553	5.54
467.756	5.51
467.958	5.58
468.161	5.62
468.363	5.57
468.566	5.71
468.768	5.81
468.971	5.73
469.173	5.77
469.375	5.81
469.578	5.78
469.78	5.69
469.983	5.69
470.185	5.63
470.387	5.65
470.59	5.68
470.792	5.62
470.994	5.49
471.196	5.57
471.399	5.51
471.601	5.46
471.803	5.48
472.005	5.5
472.208	5.52
472.41	5.52
472.612	5.51
472.814	5.49
473.016	5.45
473.218	5.57
473.421	5.57
473.623	5.62
473.825	5.61
474.027	5.76
474.229	5.75
474.431	5.73
474.633	5.69
474.835	5.63
475.037	5.64
475.239	5.7
475.441	5.58
475.643	5.54
475.845	5.47
476.047	5.5
476.249	5.39
476.451	5.37
476.653	5.37
476.855	5.36
477.057	5.32
477.258	5.25
477.46	5.08
477.662	5.03
477.864	5.08
478.066	5.16
478.268	5.16
478.469	5.14
478.671	5.22
478.873	5.11
479.075	5.16
479.276	5.27
479.478	5.38
479.68	5.44
479.882	5.54
480.083	5.55
480.285	5.53
480.487	5.5
480.688	5.56
480.89	5.48
481.091	5.56
481.293	5.49
481.495	5.47
481.696	5.44
481.898	5.43
482.099	5.42
482.301	5.43
482.502	5.44
482.704	5.43
482.905	5.42
483.107	5.41
483.308	5.38
483.51	5.37
483.711	5.37
483.913	5.38
484.114	5.41
484.315	5.39
484.517	5.36
484.718	5.37
484.92	5.39
485.121	5.38
485.322	5.4
485.524	5.41
485.725	5.51
485.926	5.5
486.127	5.48
486.329	5.41
486.53	5.43
486.731	5.41
486.932	5.35
487.134	5.34
487.335	5.34
487.536	5.39
487.737	5.4
487.938	5.37
488.139	5.36
488.341	5.42
488.542	5.48
488.743	5.49
488.944	5.55
489.145	5.56
489.346	5.59
489.547	5.6
489.748	5.59
489.949	5.62
490.15	5.61
490.351	5.61
490.552	5.61
490.753	5.64
490.954	5.6
491.155	5.59
491.356	5.6
491.557	5.65
491.758	5.63
491.959	5.67
492.159	5.66
492.36	5.61
492.561	5.66
492.762	5.63
492.963	5.61
493.164	5.73
493.364	5.7
493.565	5.76
493.766	5.65
493.967	5.71
494.167	5.7
494.368	5.64
494.569	5.69
494.769	5.66
494.97	5.7
495.171	5.7
495.371	5.65
495.572	5.71
495.773	5.74
495.973	5.82
496.174	5.85
496.375	5.85
496.575	5.85
496.776	5.9
496.976	5.93
497.177	5.87
497.377	5.88
497.578	5.95
497.778	5.98
497.979	5.86
498.179	5.86
498.38	5.83
498.58	5.87
498.78	5.94
498.981	5.94
499.181	5.91
499.382	5.93
499.582	5.91
499.782	5.87
499.983	5.85
500.183	6.04
500.383	5.98
500.584	6.01
500.784	5.99
500.984	6.01
501.184	6.05
501.385	6.11
501.585	6.13
501.785	6.25
501.985	6.26
502.185	6.32
502.386	6.26
502.586	6.33
502.786	6.27
502.986	6.29
503.186	6.33
503.386	6.38
503.586	6.38
503.786	6.53
503.987	6.51
504.187	6.57
504.387	6.57
504.587	6.58
504.787	6.58
504.987	6.67
505.187	6.66
505.387	6.68
505.587	6.62
505.786	6.66
505.986	6.59
506.186	6.5
506.386	6.52
506.586	6.5
506.786	6.52
506.986	6.56
507.186	6.62
507.386	6.71
507.585	6.74
507.785	6.83
507.985	6.83
508.185	6.91
508.384	6.99
508.584	7.01
508.784	7.06
508.984	7.1
509.183	7.06
509.383	7.02
509.583	7.02
509.782	7.07
509.982	7.08
510.182	7.11
510.381	7.03
510.581	7.07
510.781	7.06
510.98	7.13
511.18	7.11
511.379	7.22
511.579	7.25
511.778	7.24
511.978	7.24
512.177	7.21
512.377	7.21
512.576	7.34
512.776	7.38
512.975	7.52
513.175	7.56
513.374	7.65
513.573	7.71
513.773	7.73
513.972	7.73
514.172	7.71
514.371	7.84
514.57	7.95
514.77	7.97
514.969	7.97
515.168	7.89
515.367	7.93
515.567	7.94
515.766	7.89
515.965	7.97
516.164	7.96
516.364	8.04
516.563	8.02
516.762	7.98
516.961	7.99
517.16	7.99
517.359	8.09
517.559	8.06
517.758	8.09
517.957	8.15
518.156	8.11
518.355	8.2
518.554	8.2
518.753	8.18
518.952	8.22
519.151	8.21
519.35	8.3
519.549	8.3
519.748	8.29
519.947	8.33
520.146	8.32
520.345	8.41
520.544	8.41
520.743	8.37
520.942	8.42
521.141	8.47
521.339	8.46
521.538	8.43
521.737	8.46
521.936	8.57
522.135	8.6
522.333	8.69
522.532	8.69
522.731	8.68
522.93	8.77
523.129	8.81
523.327	8.82
523.526	8.91
523.725	8.96
523.923	8.91
524.122	8.97
524.321	8.94
524.519	8.93
524.718	8.94
524.917	8.99
525.115	9.03
525.314	9.02
525.512	9.11
525.711	9.16
525.909	9.15
526.108	9.19
526.306	9.17
526.505	9.19
526.703	9.19
526.902	9.21
527.1	9.27
527.299	9.25
527.497	9.26
527.696	9.23
527.894	9.17
528.092	9.19
528.291	9.16
528.489	9.13
528.688	9.12
528.886	9.12
529.084	9.12
529.283	9.06
529.481	9.1
529.679	9.14
529.877	9.16
530.076	9.22
530.274	9.33
530.472	9.41
530.67	9.54
530.869	9.63
531.067	9.69
531.265	9.76
531.463	9.78
531.661	9.77
531.859	9.78
532.057	9.75
532.255	9.77
532.454	9.7
532.652	9.75
532.85	9.71
533.048	9.69
533.246	9.69
533.444	9.71
533.642	9.79
533.84	9.88
534.038	9.89
534.236	10.02
534.434	10.06
534.632	10.13
534.83	10.18
535.027	10.28
535.225	10.32
535.423	10.38
535.621	10.37
535.819	10.34
536.017	10.32
536.215	10.39
536.412	10.4
536.61	10.48
536.808	10.47
537.006	10.4
537.203	10.37
537.401	10.38
537.599	10.4
537.797	10.44
537.994	10.52
538.192	10.64
538.39	10.71
538.587	10.67
538.785	10.7
538.983	10.76
539.18	10.81
539.378	10.86
539.575	10.91
539.773	10.91
539.97	10.9
540.168	10.86
540.366	10.84
540.563	10.8
540.761	10.83
540.958	10.8
541.155	10.8
541.353	10.8
541.55	10.8
541.748	10.79
541.945	10.82
542.143	10.82
542.34	10.84
542.537	10.76
542.735	10.76
542.932	10.86
543.129	10.88
543.327	10.96
543.524	10.99
543.721	11.03
543.919	11.07
544.116	11.13
544.313	11.22
544.51	11.28
544.708	11.41
544.905	11.46
545.102	11.39
545.299	11.45
545.496	11.44
545.693	11.5
545.891	11.5
546.088	11.54
546.285	11.54
546.482	11.55
546.679	11.57
546.876	11.59
547.073	11.69
547.27	11.78
547.467	11.8
547.664	11.92
547.861	11.95
548.058	12.03
548.255	12.15
548.452	12.19
548.649	12.24
548.846	12.42
549.043	12.44
549.24	12.4
549.437	12.55
549.633	12.63
549.83	12.68
550.027	12.76
550.224	12.67
550.421	12.73
550.618	12.8
550.814	12.92
551.011	12.88
551.208	12.99
551.405	13.15
551.601	13.12
551.798	13.06
551.995	13.13
552.191	13.22
552.388	13.37
552.585	13.31
552.781	13.32
552.978	13.22
553.175	13.25
553.371	13.34
553.568	13.32
553.764	13.34
553.961	13.49
554.157	13.38
554.354	13.35
554.55	13.47
554.747	13.55
554.943	13.55
555.14	13.77
555.336	13.86
555.533	13.9
555.729	13.96
555.926	14
556.122	14.04
556.318	14.23
556.515	14.41
556.711	14.36
556.907	14.59
557.104	14.74
557.3	14.8
557.496	14.81
557.693	14.88
557.889	14.94
558.085	15.03
558.281	15.09
558.478	15.16
558.674	15.12
558.87	15.34
559.066	15.33
559.262	15.3
559.459	15.38
559.655	15.5
559.851	15.47
560.047	15.56
560.243	15.59
560.439	15.65
560.635	15.69
560.831	15.78
561.027	15.75
561.223	15.73
561.419	15.93
561.615	15.99
561.811	16.09
562.007	16.31
562.203	16.29
562.399	16.46
562.595	16.55
562.791	16.57
562.987	16.65
563.183	16.63
563.379	16.77
563.575	16.76
563.771	16.89
563.966	16.94
564.162	16.95
564.358	17.08
564.554	17.23
564.75	17.26
564.945	17.34
565.141	17.38
565.337	17.38
565.533	17.38
565.728	17.43
565.924	17.38
566.12	17.43
566.315	17.5
566.511	17.47
566.707	17.39
566.902	17.46
567.098	17.52
567.293	17.63
567.489	17.76
567.684	17.75
567.88	17.86
568.076	17.86
568.271	17.98
568.467	18.05
568.662	18.28
568.858	18.39
569.053	18.55
569.248	18.59
569.444	18.65
569.639	18.81
569.835	18.94
570.03	19.02
570.225	19.15
570.421	19.15
570.616	19.13
570.812	19.18
571.007	19.22
571.202	19.21
571.397	19.33
571.593	19.36
571.788	19.49
571.983	19.56
572.178	19.57
572.374	19.7
572.569	19.7
572.764	19.81
572.959	19.8
573.154	19.82
573.35	19.82
573.545	19.92
573.74	20.04
573.935	20.01
574.13	20.06
574.325	20.11
574.52	20.11
574.715	20.31
574.91	20.28
575.105	20.34
575.3	20.46
575.495	20.57
575.69	20.53
575.885	20.55
576.08	20.45
576.275	20.42
576.47	20.48
576.665	20.46
576.86	20.49
577.055	20.53
577.25	20.45
577.444	20.33
577.639	20.46
577.834	20.42
578.029	20.42
578.224	20.53
578.418	20.63
578.613	20.72
578.808	20.84
579.003	20.87
579.197	20.91
579.392	21.05
579.587	21.24
579.781	21.18
579.976	21.39
580.171	21.47
580.365	21.54
580.56	21.61
580.755	21.67
580.949	21.8
581.144	21.68
581.338	21.88
581.533	21.85
581.727	21.87
581.922	21.96
582.116	21.95
582.311	21.92
582.505	22.01
582.7	21.94
582.894	22.02
583.089	21.93
583.283	22.02
583.478	22.03
583.672	22.24
583.866	22.29
584.061	22.36
584.255	22.32
584.449	22.46
584.644	22.48
584.838	22.51
585.032	22.38
585.226	22.48
585.421	22.47
585.615	22.41
585.809	22.34
586.003	22.33
586.198	22.25
586.392	22.21
586.586	22.22
586.78	22.15
586.974	22.11
587.168	22.11
587.363	21.97
587.557	22.1
587.751	22.18
587.945	22.23
588.139	22.28
588.333	22.29
588.527	22.37
588.721	22.37
588.915	22.46
589.109	22.67
589.303	22.76
589.497	22.81
589.691	22.88
589.885	22.82
590.079	22.85
590.273	22.83
590.466	22.87
590.66	22.84
590.854	22.88
591.048	22.94
591.242	22.88
591.436	22.9
591.629	23.15
591.823	23.05
592.017	23.15
592.211	23.11
592.404	23.17
592.598	23.17
592.792	23.24
592.986	23.18
593.179	23.23
593.373	23.33
593.567	23.33
593.76	23.29
593.954	23.31
594.147	23.34
594.341	23.46
594.535	23.32
594.728	23.35
594.922	23.39
595.115	23.45
595.309	23.37
595.502	23.32
595.696	23.37
595.889	23.26
596.083	23.2
596.276	23.17
596.47	23.07
596.663	23.21
596.856	23.28
597.05	23.36
597.243	23.21
597.437	23.26
597.63	23.18
597.823	23.02
598.017	22.98
598.21	23.11
598.403	22.96
598.596	22.99
598.79	23.02
598.983	22.95
599.176	22.82
599.369	23
599.563	23.01
599.756	23.21
599.949	23.47
600.142	23.55
600.335	23.58
600.528	23.69
600.722	23.78
600.915	23.92
601.108	23.88
601.301	23.89
601.494	23.94
601.687	24.1
601.88	24.09
602.073	24.02
602.266	24.06
602.459	23.99
602.652	24.14
602.845	24.15
603.038	24.14
603.231	24.25
603.424	24.17
603.617	24.13
603.809	24.04
604.002	24.01
604.195	23.97
604.388	24.01
604.581	24.1
604.774	23.93
604.966	23.88
605.159	23.84
605.352	23.84
605.545	24.02
605.737	24.2
605.93	24.31
606.123	24.33
606.316	24.4
606.508	24.5
606.701	24.52
606.894	24.61
607.086	24.73
607.279	24.75
607.471	24.67
607.664	24.6
607.857	24.37
608.049	24.28
608.242	24.24
608.434	24.42
608.627	24.37
608.819	24.43
609.012	24.44
609.204	24.36
609.397	24.29
609.589	24.37
609.782	24.36
609.974	24.46
610.166	24.44
610.359	24.57
610.551	24.47
610.743	24.44
610.936	24.33
611.128	24.33
611.32	24.25
611.513	24.33
611.705	24.36
611.897	24.35
612.09	24.44
612.282	24.56
612.474	24.4
612.666	24.3
612.858	24.34
613.051	24.46
613.243	24.45
613.435	24.62
613.627	24.48
613.819	24.52
614.011	24.48
614.203	24.45
614.395	24.39
614.588	24.56
614.78	24.59
614.972	24.56
615.164	24.63
615.356	24.73
615.548	24.83
615.74	24.95
615.932	24.88
616.124	25.09
616.315	24.9
616.507	25.04
616.699	25.09
616.891	25.14
617.083	25.21
617.275	25.07
617.467	25.03
617.659	24.98
617.85	24.96
618.042	25.11
618.234	24.89
618.426	25.21
618.618	25.02
618.809	24.9
619.001	24.84
619.193	24.82
619.384	24.85
619.576	24.89
619.768	24.73
619.959	24.88
620.151	24.79
620.343	24.99
620.534	24.92
620.726	25.07
620.917	25.15
621.109	25.18
621.301	25.13
621.492	25.2
621.684	25.24
621.875	25.39
622.067	25.13
622.258	25.11
622.45	24.98
622.641	24.94
622.832	24.96
623.024	24.84
623.215	25.03
623.407	25.13
623.598	25.15
623.789	25.19
623.981	25.08
624.172	25.16
624.363	24.96
624.555	25.13
624.746	25.28
624.937	25.36
625.129	25.27
625.32	25.08
625.511	25.01
625.702	24.95
625.893	24.86
626.085	25.02
626.276	25.06
626.467	25.27
626.658	25.24
626.849	25.15
627.04	25.17
627.231	25.36
627.422	25.34
627.614	25.37
627.805	25.48
627.996	25.44
628.187	25.41
628.378	25.46
628.569	25.3
628.76	25.3
628.951	25.22
629.142	25.1
629.332	25.05
629.523	25.31
629.714	25.48
629.905	25.44
630.096	25.45
630.287	25.53
630.478	25.58
630.669	25.77
630.859	25.93
631.05	25.84
631.241	25.74
631.432	25.7
631.623	25.55
631.813	25.47
632.004	25.4
632.195	25.4
632.385	25.39
632.576	25.38
632.767	25.42
632.957	25.24
633.148	25.39
633.339	25.59
633.529	25.61
633.72	25.64
633.91	25.6
634.101	25.63
634.292	25.76
634.482	25.79
634.673	25.54
634.863	25.52
635.054	25.43
635.244	25.49
635.435	25.46
635.625	25.42
635.815	25.35
636.006	25.34
636.196	25.14
636.387	25.33
636.577	25.41
636.767	25.83
636.958	25.8
637.148	25.91
637.338	25.77
637.529	25.76
637.719	26.11
637.909	26.18
638.099	26.12
638.29	26.39
638.48	26.17
638.67	25.91
638.86	25.73
639.05	25.78
639.241	25.7
639.431	25.82
639.621	25.65
639.811	25.38
640.001	25.36
640.191	25.58
640.381	25.63
640.571	25.67
640.761	25.72
640.951	25.77
641.141	25.59
641.331	25.82
641.521	25.97
641.711	26.02
641.901	26.14
642.091	26.32
642.281	26.26
642.471	26.24
642.661	26.2
642.851	26.45
643.041	26.22
643.231	26.25
643.42	26.13
643.61	25.93
643.8	25.98
643.99	25.99
644.18	25.79
644.369	25.86
644.559	25.82
644.749	25.9
644.939	25.61
645.128	25.88
645.318	26.19
645.508	26.25
645.697	26.36
645.887	26.52
646.076	26.32
646.266	26.43
646.456	26.25
646.645	26.21
646.835	25.98
647.024	26.19
647.214	26.07
647.403	25.98
647.593	25.77
647.782	25.7
647.972	25.57
648.161	25.75
648.351	25.82
648.54	25.81
648.73	25.74
648.919	26.06
649.108	25.8
649.298	25.81
649.487	25.65
649.677	25.88
649.866	25.81
650.055	25.99
650.244	26.08
650.434	26.03
650.623	25.94
650.812	25.96
651.002	25.75
651.191	25.89
651.38	25.85
651.569	25.82
651.758	25.95
651.947	26.19
652.137	26.19
652.326	26.03
652.515	25.95
652.704	26.2
652.893	26.12
653.082	26.29
653.271	26.3
653.46	26.31
653.649	26.45
653.838	26.27
654.027	26.06
654.216	26.03
654.405	26.19
654.594	26.14
654.783	26.06
654.972	26.51
655.161	26.46
655.35	26.32
655.539	26.2
655.728	26.2
655.916	26
656.105	26.16
656.294	26.04
656.483	25.99
656.672	26.02
656.86	25.99
657.049	25.74
657.238	25.85
657.427	25.95
657.615	26.09
657.804	26.05
657.993	26.31
658.181	26.1
658.37	26.12
658.559	26.01
658.747	26
658.936	26.09
659.125	26.5
659.313	26.33
659.502	26.5
659.69	26.46
659.879	26.52
660.067	26.34
660.256	26.49
660.444	26.47
660.633	26.46
660.821	26.69
661.01	26.64
661.198	26.24
661.387	26.53
661.575	26.46
661.763	26.71
661.952	26.69
662.14	26.78
662.328	27
662.517	26.8
662.705	26.82
662.893	26.5
663.082	26.54
663.27	26.36
663.458	26.11
663.646	25.88
663.834	25.61
664.023	25.5
664.211	25.33
664.399	25.11
664.587	25.5
664.775	25.49
664.963	25.67
665.152	25.78
665.34	25.97
665.528	25.94
665.716	26.23
665.904	26.16
666.092	26.43
666.28	26.72
666.468	26.84
666.656	26.76
666.844	26.92
667.032	26.97
667.22	26.56
667.408	26.39
667.596	26.66
667.784	26.53
667.971	26.52
668.159	26.42
668.347	26.33
668.535	25.99
668.723	25.84
668.911	25.54
669.098	25.45
669.286	25.84
669.474	26.12
669.662	25.79
669.849	25.83
670.037	25.79
670.225	25.86
670.413	25.84
670.6	25.78
670.788	26.08
670.976	26.43
671.163	26.53
671.351	26.22
671.538	26.08
671.726	26.24
671.913	26.15
672.101	26.28
672.289	26.07
672.476	26.2
672.664	26.66
672.851	26.07
673.039	25.86
673.226	25.94
673.413	26.11
673.601	26.07
673.788	25.86
673.976	25.91
674.163	25.82
674.35	26.11
674.538	26.03
674.725	26
674.912	26.26
675.1	26.1
675.287	26.1
675.474	26.01
675.662	26.11
675.849	26.25
676.036	26.43
676.223	26.48
676.411	26.6
676.598	26.71
676.785	26.66
676.972	26.97
677.159	27.35
677.346	27.35
677.533	27.68
677.721	27.56
677.908	27.73
678.095	27.61
678.282	27.64
678.469	27.39
678.656	27.14
678.843	27.27
679.03	27.23
679.217	27.15
679.404	26.97
679.591	26.88
679.778	26.8
679.964	26.58
680.151	26.5
680.338	26.62
680.525	26.73
680.712	26.97
680.899	27.06
681.086	26.7
681.272	26.62
681.459	26.77
681.646	26.79
681.833	26.88
682.02	27.04
682.206	27.13
682.393	26.89
682.58	27.06
682.766	26.99
682.953	26.53
683.14	26.79
683.326	26.87
683.513	27.01
683.7	26.81
683.886	26.98
684.073	26.94
684.259	26.98
684.446	27.18
684.632	27.03
684.819	27.05
685.005	27.19
685.192	27
685.378	27.25
685.565	27.13
685.751	27.3
685.938	27.14
686.124	27.15
686.31	26.92
686.497	26.79
686.683	26.86
686.87	26.99
687.056	27.08
687.242	27.26
687.429	27.07
687.615	26.89
687.801	27.02
687.987	27.34
688.174	27.51
688.36	27.68
688.546	27.91
688.732	27.89
688.918	27.57
689.105	27.63
689.291	27.49
689.477	27.56
689.663	27.88
689.849	27.47
690.035	27.12
690.221	26.87
690.407	27.2
690.593	27.18
690.779	27.3
690.965	27.59
691.151	27.36
691.337	27.64
691.523	27.78
691.709	27.6
691.895	27.85
692.081	27.58
692.267	27.7
692.453	27.39
692.639	27.34
692.825	27.01
693.011	26.86
693.196	26.97
693.382	26.99
693.568	26.85
693.754	27.06
693.94	26.96
694.125	27.46
694.311	27.61
694.497	27.54
694.682	27.37
694.868	27.38
695.054	27.55
695.239	27.49
695.425	27.34
695.611	27.27
695.796	27.23
695.982	27.53
696.168	27.36
696.353	27.25
696.539	27.27
696.724	27.16
696.91	27.31
697.095	27.3
697.281	27.29
697.466	27.29
697.652	27.5
697.837	27.38
698.023	27.31
698.208	27.51
698.393	27.55
698.579	27.63
698.764	27.9
698.949	27.98
699.135	27.84
699.32	28.02
699.505	28
699.691	27.63
699.876	27.72
700.061	27.58
700.246	27.23
700.432	27.16
700.617	27.08
700.802	27.06
700.987	26.53
701.172	26.64
701.358	26.59
701.543	27.01
701.728	27.08
701.913	26.89
702.098	27.16
702.283	27.46
702.468	27.72
702.653	27.83
702.838	27.74
703.023	28.02
703.208	27.96
703.393	27.83
703.578	27.23
703.763	27.25
703.948	27.6
704.133	27.17
704.318	27.4
704.503	26.85
704.688	26.74
704.873	27.02
705.057	27.08
705.242	27.02
705.427	26.66
705.612	26.97
705.797	26.87
705.981	26.55
706.166	26.61
706.351	26.63
706.536	27.03
706.72	26.86
706.905	26.55
707.09	26.71
707.274	26.8
707.459	26.92
707.644	26.91
707.828	26.79
708.013	26.85
708.197	27.18
708.382	26.61
708.567	26.53
708.751	26.54
708.936	26.84
709.12	26.67
709.305	26.88
709.489	27.35
709.673	27.31
709.858	27.36
710.042	27.29
710.227	26.86
710.411	26.99
710.596	26.96
710.78	27.07
710.964	26.95
711.149	27.03
711.333	26.63
711.517	26.56
711.702	26.47
711.886	26.5
712.07	26.73
712.254	26.95
712.438	27
712.623	26.76
712.807	26.76
712.991	26.48
713.175	26.26
713.359	26.29
713.544	26.23
713.728	26.37
713.912	26.45
714.096	25.98
714.28	26.08
714.464	26.49
714.648	26.47
714.832	26.45
715.016	26.58
715.2	26.8
715.384	27.01
715.568	26.83
715.752	26.82
715.936	27.14
716.12	27.46
716.304	27.69
716.488	27.52
716.671	27.95
716.855	27.8
717.039	27.91
717.223	27.94
717.407	27.99
717.59	27.99
717.774	27.69
717.958	27.31
718.142	27.63
718.325	27.45
718.509	27.2
718.693	26.61
718.877	26.58
719.06	26.35
719.244	26.39
719.428	26.4
719.611	26.78
719.795	27.39
719.978	27.52
720.162	26.73
720.345	26.68
720.529	26.87
720.713	27.42
720.896	28.03
721.08	28.19
721.263	28.29
721.446	28.26
721.63	27.63
721.813	27.35
721.997	27.32
722.18	28.06
722.364	28.11
722.547	27.28
722.73	27.08
722.914	26.9
723.097	26.74
723.28	26.51
723.464	26.44
723.647	26.52
723.83	26.2
724.013	26.32
724.197	26.18
724.38	26.16
724.563	26.99
724.746	26.93
724.929	27.16
725.112	27.74
725.296	27.72
725.479	27.89
725.662	28.13
725.845	28.22
726.028	28.26
726.211	28.05
726.394	27.77
726.577	27.78
726.76	27.94
726.943	27.46
727.126	27.26
727.309	27.26
727.492	26.97
727.675	27.45
727.858	27.6
728.041	27.71
728.224	27.67
728.407	27.81
728.589	27.05
728.772	27.08
728.955	27.56
729.138	27.54
729.321	27.61
729.503	27.71
729.686	27.6
729.869	27.56
730.052	27.33
730.234	27.69
730.417	27.73
730.6	28.22
730.782	28.09
730.965	28.01
731.148	27.78
731.33	27.75
731.513	27.85
731.695	27.8
731.878	27.62
732.061	27.61
732.243	27.27
732.426	27.26
732.608	27.3
732.791	27.42
732.973	27.15
733.156	27.27
733.338	27.43
733.52	27.43
733.703	27.7
733.885	27.76
734.068	27.7
734.25	27.49
734.432	27.78
734.615	28.2
734.797	28.09
734.979	28.1
735.162	27.96
735.344	27.99
735.526	27.74
735.708	27.37
735.891	28.22
736.073	28.73
736.255	28.96
736.437	28.37
736.619	27.85
736.802	27.84
736.984	28.01
737.166	27.94
737.348	27.73
737.53	28.1
737.712	27.73
737.894	27.57
738.076	27.06
738.258	26.97
738.44	27.23
738.622	27.78
738.804	28.03
738.986	27.83
739.168	27.72
739.35	27.83
739.532	27.61
739.714	27.87
739.896	27.06
740.078	27.2
740.259	27.88
740.441	28.18
740.623	27.44
740.805	27.01
740.987	26.6
741.168	27.18
741.35	27.47
741.532	27.39
741.714	27.27
741.895	27.76
742.077	27.67
742.259	27.39
742.44	27.09
742.622	27.2
742.804	27.41
742.985	27.81
743.167	27.26
743.348	27.15
743.53	27.32
743.711	27.36
743.893	27.12
744.075	27.06
744.256	26.68
744.438	26.88
744.619	27.18
744.8	27.23
744.982	27.31
745.163	27.39
745.345	27.11
745.526	27.13
745.707	27.12
745.889	27.87
746.07	27.4
746.252	27.86
746.433	27.43
746.614	27.07
746.795	27.05
746.977	27.15
747.158	27.23
747.339	27.72
747.52	27.74
747.702	28.25
747.883	27.55
748.064	28.16
748.245	28.23
748.426	28.95
748.607	29.38
748.788	29.15
748.97	28.19
749.151	28.03
749.332	27.85
749.513	28.16
749.694	27.7
749.875	28.24
750.056	28.31
750.237	28.32
750.418	28.53
750.599	28.6
750.78	29.16
750.96	29.74
751.141	29.46
751.322	29.01
751.503	28.3
751.684	28.68
751.865	27.83
752.046	27.55
752.226	27.17
752.407	26.52
752.588	25.94
752.769	25.56
752.949	26.01
753.13	26.57
753.311	26.65
753.492	26.73
753.672	26.25
753.853	26.75
754.034	27.62
754.214	27.21
754.395	27.44
754.575	28.04
754.756	27.92
754.937	27.49
755.117	27.9
755.298	27.95
755.478	28.61
755.659	28.99
755.839	28.6
756.02	27.41
756.2	27.98
756.381	27.5
756.561	27.29
756.741	27.77
756.922	28.19
757.102	28.03
757.283	28.42
757.463	28.6
757.643	28.58
757.823	29.2
758.004	30.45
758.184	30.09
758.364	29.74
758.545	29.51
758.725	29.34
758.905	29.33
759.085	28.59
759.265	28.11
759.446	27.62
759.626	26.83
759.806	26.46
759.986	25.56
760.166	25.92
760.346	25.86
760.526	26.35
760.706	26.25
760.886	26.19
761.066	27.07
761.246	27.39
761.426	27.37
761.606	27.83
761.786	27.5
761.966	27.85
762.146	27.99
762.326	28.05
762.506	27.94
762.686	27.74
762.866	27.6
763.046	27.47
763.225	27.48
763.405	27.19
763.585	27.54
763.765	27.55
763.945	27.47
764.124	27.17
764.304	27.57
764.484	27.47
764.664	27.47
764.843	27.71
765.023	27.46
765.203	27.1
765.382	27.19
765.562	27.39
765.741	27.38
765.921	27.52
766.101	27.08
766.28	26.74
766.46	26.6
766.639	27.14
766.819	26.85
766.998	27.29
767.178	27.76
767.357	28.02
767.537	27.13
767.716	27.48
767.896	27.17
768.075	27.82
768.254	28.32
768.434	28.69
768.613	28.34
768.792	28.48
768.972	28.45
769.151	27.77
769.33	28.05
769.51	27.7
769.689	28.08
769.868	27.53
770.047	28.17
770.226	28.08
770.406	28.46
770.585	28.69
770.764	28.58
770.943	27.55
771.122	27.77
771.301	27.54
771.48	27.92
771.66	27.63
771.839	27.39
772.018	27.23
772.197	26.73
772.376	26.55
772.555	26.2
772.734	26.49
772.913	27.19
773.092	26.92
773.271	27.11
773.449	27.52
773.628	27.55
773.807	28.97
773.986	28.47
774.165	28.45
774.344	28.11
774.523	28.33
774.701	28.08
774.88	28.25
775.059	28.83
775.238	28.67
775.417	28.3
775.595	28.75
775.774	27.95
775.953	28.3
776.131	28.07
776.31	27.89
776.489	27.74
776.667	27.64
776.846	26.82
777.025	26.74
777.203	26.44
777.382	26.56
777.56	25.87
777.739	26.14
777.917	25.86
778.096	27.02
778.274	27.17
778.453	27.42
778.631	28.19
778.81	29.6
778.988	28.91
779.166	29.43
779.345	29.34
779.523	28.94
779.702	29.44
779.88	29.27
780.058	28.89
780.237	28.78
780.415	28.72
780.593	28.06
780.771	27.43
780.95	28.42
781.128	28.48
781.306	28.57
781.484	28.92
781.662	28.16
781.841	28.21
782.019	27.46
782.197	27.6
782.375	27.29
782.553	27.96
782.731	28.03
782.909	28.16
783.087	27.92
783.265	28.13
783.443	28.09
783.621	28.5
783.799	28.23
783.977	28.2
784.155	28.44
784.333	28.89
784.511	28.53
784.689	28.42
784.867	28.3
785.045	28.62
785.223	28.03
785.4	28.1
785.578	28.08
785.756	27.96
785.934	28.39
786.112	28.37
786.289	28.24
786.467	27.58
786.645	28.15
786.823	27.27
787	26.81
787.178	26.74
787.356	27.04
787.533	27.41
787.711	27.02
787.889	26.76
788.066	25.64
788.244	26.5
788.421	27.05
788.599	26.79
788.776	27.48
788.954	26.92
789.131	27.58
789.309	26.94
789.486	26.86
789.664	27.45
789.841	27.98
790.019	29.2
790.196	28.68
790.373	29.09
790.551	28.58
790.728	27.82
790.906	28.2
791.083	28.34
791.26	28.76
791.437	28.49
791.615	29.07
791.792	29.34
791.969	29.77
792.146	29.42
792.324	28.64
792.501	29.38
792.678	29.81
792.855	30.28
793.032	29.67
793.209	29.43
793.387	28.51
793.564	27.74
793.741	26.45
793.918	25.96
794.095	26.29
794.272	26.79
794.449	26.28
794.626	26.54
794.803	26.51
794.98	27.72
795.157	27.56
795.334	28.8
795.511	30.07
795.688	30.9
795.864	30.86
796.041	30.74
796.218	30.63
796.395	29.76
796.572	30.23
796.749	30.61
796.925	28.96
797.102	29.31
797.279	28.59
797.456	28.35
797.632	28.31
797.809	28.05
797.986	27.6
798.162	26.64
798.339	26.88
798.516	26.66
798.692	26.11
798.869	26.85
799.046	27.84
799.222	27.78
799.399	27.8
799.575	27.21
799.752	27.65
799.928	27.76
800.105	29.28
800.281	29.73
800.458	29.17
800.634	29.34
800.811	29.17
800.987	28.09
801.163	28.46
801.34	27.25
801.516	27.82
801.692	28.27
801.869	27.65
802.045	28.13
802.221	28.68
802.398	29.05
802.574	28.71
802.75	28.87
802.926	29.6
803.103	29.35
803.279	30.68
803.455	31.28
803.631	30.32
803.807	30.01
803.983	28.98
804.16	28.31
804.336	28.09
804.512	28.02
804.688	28.64
804.864	28.62
805.04	29.34
805.216	28.44
805.392	27.74
805.568	28.47
805.744	28.13
805.92	28.02
806.096	28.83
806.272	28.32
806.448	28.32
806.623	28.28
806.799	27.56
806.975	27.9
807.151	28.61
807.327	28.86
807.503	28.14
807.678	29.22
807.854	27.99
808.03	26.7
808.206	26.97
808.381	26.43
808.557	26.99
808.733	26.79
808.908	24.43
809.084	22.57
809.26	22.5
809.435	23.14
809.611	22.69
809.787	23.13
809.962	24.46
810.138	23.42
810.313	23.74
810.489	22.69
810.664	22.29
810.84	23.23
811.015	24.82
811.191	25.48
811.366	25.56
811.542	26.17
811.717	27.07
811.892	27.79
812.068	29.56
812.243	31.22
812.419	29.9
812.594	30.6
812.769	31.45
812.944	30.84
813.12	30.31
813.295	29.13
813.47	29.17
813.645	28.34
813.821	26.87
813.996	26.32
814.171	24.93
814.346	25.93
814.521	26.92
814.697	27.55
814.872	26.73
815.047	26.11
815.222	26.98
815.397	27.25
815.572	28.33
815.747	28.7
815.922	28.05
816.097	28.26
816.272	26.85
816.447	26.21
816.622	26.05
816.797	25.94
816.972	26.25
817.147	25.73
817.322	26.66
817.496	26.95
817.671	27.26
817.846	28.73
818.021	29.36
818.196	29.98
818.371	30.1
818.545	28.95
818.72	29.23
818.895	29.03
819.069	29.28
819.244	28.05
819.419	27.27
819.594	27.1
819.768	26.86
819.943	26.57
820.117	26.66
820.292	26.52
820.467	26.94
820.641	27.01
820.816	26.94
820.99	26.93
821.165	26.82
821.339	27.01
821.514	27.01
821.688	26.82
821.863	26.97
822.037	27.13
822.212	27.33
822.386	27.01
822.56	27.12
822.735	27.33
822.909	27.32
823.084	27.55
823.258	27.5
823.432	27.56
823.606	27.84
823.781	27.83
823.955	27.93
824.129	28.01
824.303	28.1
824.478	28.19
824.652	27.8
824.826	27.42
825	27.35
825.174	27.35
825.348	27.3
825.523	26.87
825.697	26.54
825.871	26.62
826.045	26.17
826.219	26.79
826.393	26.91
826.567	27.23
826.741	28.02
826.915	27.89
827.089	28.62
827.263	28.74
827.437	28.41
827.611	28.43
827.784	27.91
827.958	28.03
828.132	27.54
828.306	27.3
828.48	27.69
828.654	27.79
828.827	28.05
829.001	27.34
829.175	27.03
829.349	27.68
829.522	27.99
829.696	29.27
829.87	29.87
830.044	29.88
830.217	29.39
830.391	28.71
830.565	27.27
830.738	27.16
830.912	26.97
831.085	27.22
831.259	27.09
831.432	27.32
831.606	27.24
831.779	26.35
831.953	26.89
832.126	27.5
832.3	27.44
832.473	28.03
832.647	27.39
832.82	27.06
832.994	26.88
833.167	26.9
833.34	26.4
833.514	26.26
833.687	26.12
833.86	26.12
834.034	26.08
834.207	26.19
834.38	26.69
834.553	27.67
834.727	28.18
834.9	28.52
835.073	28.07
835.246	28.52
835.419	27.57
835.593	27.9
835.766	28.07
835.939	29.06
836.112	29.15
836.285	27.95
836.458	27.49
836.631	27.37
836.804	26.65
836.977	28.48
837.15	27.99
837.323	28.68
837.496	29.65
837.669	30.09
837.842	29.01
838.015	28.43
838.188	29.72
838.361	27.96
838.533	27.61
838.706	28.62
838.879	27.51
839.052	26.85
839.225	27.7
839.398	28.04
839.57	27.28
839.743	26.66
839.916	28.62
840.088	27.42
840.261	28.69
840.434	29.48
840.607	29.28
840.779	30.38
840.952	31.86
841.124	30.45
841.297	29.65
841.47	29.99
841.642	32.22
841.815	30.12
841.987	31.75
842.16	33.21
842.332	32.56
842.505	31.84
842.677	30.76
842.85	31.9
843.022	32.05
843.194	30.93
843.367	31.3
843.539	30.62
843.712	31.45
843.884	32.57
844.056	30.39
844.229	30.26
844.401	32.2
844.573	31.27
844.745	29.28
844.918	31.42
845.09	31.5
845.262	31.45
845.434	29.87
845.606	29.41
845.779	28.96
845.951	30.5
846.123	29.12
846.295	27.76
846.467	30.79
846.639	29.42
846.811	26.39
846.983	27.22
847.155	27.57
847.327	28.67
847.499	31.47
847.671	32.89
847.843	33.83
848.015	35.13
848.187	36.39
848.359	35.31
848.531	37.67
848.703	40.83
848.875	41.72
849.047	41.16
849.218	42.78
849.39	40.59
849.562	39.64
849.734	38.57
849.905	39.12
850.077	36.43
850.249	35.81
850.421	35.69
850.592	33.12
850.764	31.94
850.936	32.44
851.107	28.13
851.279	30.24
851.451	26.24
851.622	26.6
851.794	26.61
851.965	27.7
852.137	28.97
852.308	27.87
852.48	29.6
852.651	30.75
852.823	30.5
852.994	31.62
853.166	29.46
853.337	30.13
853.509	30.44
853.68	31.91
853.851	31.47
854.023	31.97
854.194	34.09
854.365	32.5
854.537	32.8
854.708	29.5
854.879	29.67
855.05	29.65
855.222	32.67
855.393	34.52
855.564	32.13
855.735	32.45
855.906	30.79
856.078	28.1
856.249	30.56
856.42	28.92
856.591	29.77
856.762	29.49
856.933	32.18
857.104	32.76
857.275	30
857.446	32.31
857.617	32.56
857.788	31.3
857.959	31.72
858.13	29.91
858.301	34.38
858.472	35.48
858.643	36.97
858.814	36.01
858.985	34.3
859.155	30.43
859.326	30.88
859.497	31.78
859.668	36.19
859.839	38.37
860.009	38.5
860.18	36.87
860.351	40.8
860.522	39.42
860.692	40.15
860.863	41.08
861.034	42.99
861.204	37.37
861.375	35.69
861.546	28.81
861.716	24.08
861.887	26.42
862.057	23.1
862.228	20.75
862.398	20.95
862.569	22.89
862.739	22.7
862.91	25.08
863.08	32.6
863.251	33.56
863.421	38.29
863.592	38.47
863.762	35.84
863.932	37.91
864.103	37.27
864.273	36.26
864.443	33.9
864.614	31.55
864.784	30.57
864.954	26.98
865.125	24.86
865.295	23.84
865.465	26.28
865.635	24.96
865.805	24.15
865.976	22.98
866.146	25.9
866.316	22.97
866.486	24.81
866.656	25.5
866.826	23.79
866.996	24.44
867.166	24.36
867.336	23.73
867.506	28.66
867.676	29.36
867.846	29.01
868.016	30.88
868.186	37.09
868.356	34.09
868.526	32.19
868.696	35.93
868.866	35.53
869.036	34.14
869.206	36.16
869.376	36.02
869.545	32.91
869.715	32.56
869.885	29.06
870.055	21.31
870.224	25.68
870.394	26.44
870.564	26.54
870.734	28.01
870.903	32.7
871.073	34.73
871.243	32.2
871.412	34.88
871.582	36.98
871.751	33.42
871.921	37.55
872.091	36.63
872.26	38.52
872.43	38.84
872.599	39.91
872.769	34.19
872.938	30.43
873.108	31.47
873.277	33.59
873.446	31
873.616	32.16
873.785	30.6
873.955	25.58
874.124	24.39
874.293	27.26
874.463	25.25
874.632	27.52
874.801	30.92
874.971	30.67
875.14	26.19
875.309	28.58
875.478	30.82
875.647	32.59
875.817	37.88
875.986	36
876.155	35.66
876.324	37.22
876.493	38.13
876.662	36.38
876.831	37.61
877	38.78
877.17	42.12
877.339	48.67
877.508	49.66
877.677	44.58
877.846	45.74
878.015	48.76
878.184	47.21
878.352	45.18
878.521	43.93
878.69	42.15
878.859	41.69
879.028	39.94
879.197	35.85
879.366	31.89
879.534	32.39
879.703	32
879.872	28.65
880.041	27.03
880.21	25.9
880.378	25.55
880.547	24.46
880.716	23.8
880.884	23.53
881.053	22.7
881.222	24.4
881.39	24.17
881.559	24.37
881.727	25.12
881.896	25.63
882.065	25.93
882.233	26.48
882.402	27.43
882.57	27.29
882.739	27.21
882.907	27.2
883.076	26.44
883.244	27.3
883.412	26.86
883.581	26.25
883.749	26.37
883.918	26.66
884.086	26.4
884.254	26.18
884.423	26.75
884.591	26.21
884.759	26.43
884.927	26.93
885.096	26.13
885.264	27.32
885.432	27.19
885.6	27.74
885.769	26.51
885.937	26.45
886.105	24.95
886.273	24.27
886.441	25.49
886.609	24.49
886.777	24.12
886.945	24.14
887.113	24.66
887.281	24.64
887.449	23.09
887.617	28.46
887.785	30.18
887.953	31.85
888.121	33.78
888.289	34.21
888.457	34.59
888.625	32.43
888.793	33.51
888.961	29.1
889.129	30.73
889.296	32.11
889.464	28.59
889.632	25.62
889.8	24.9
889.967	21.08
890.135	17.61
