Data from 2938546_Reflection_1.txt Node
Date: Mon Jun 15 00:21:27 EDT 2015
User: robert
Spectrometer: USB4E03002
Autoset integration time: false
Trigger mode: 4
Integration Time (sec): 1.000000E-1
Scans to average: 10
Electric dark correction enabled: true
Nonlinearity correction enabled: false
Boxcar width: 5
Stray light correction enabled: false
XAxis mode: Wavelengths
Stop averaging: false
Number of Pixels in Spectrum: 3648
>>>>>Begin Spectral Data<<<<<
177.575	-48.55
177.794	-81.52
178.014	-112.48
178.233	-44.27
178.452	-47.33
178.672	-54.22
178.891	-29.41
179.11	-18.09
179.33	-183.75
179.549	-24.81
179.768	-43.79
179.987	-68.52
180.207	-110.36
180.426	-300.82
180.645	-160.99
180.864	-297.44
181.084	-246.83
181.303	-882.97
181.522	787.5
181.741	-592.77
181.96	3786.98
182.179	305.2
182.398	571.48
182.618	363.46
182.837	-5291.78
183.056	-662.69
183.275	-309.57
183.494	1683.41
183.713	-472.68
183.932	351.9
184.151	278.31
184.37	232.25
184.589	316.59
184.808	265.04
185.027	233.12
185.246	172.35
185.465	189.89
185.684	166.55
185.903	191.34
186.122	174.36
186.341	485.71
186.56	429.73
186.779	-10.39
186.998	-14.1
187.216	-8.64
187.435	-16.24
187.654	6.01
187.873	-3.79
188.092	-27.95
188.311	9.63
188.53	8.31
188.748	6.67
188.967	-2.63
189.186	-47.76
189.405	-53.09
189.623	-64.59
189.842	-35.81
190.061	-50.39
190.28	-82.11
190.498	-114.98
190.717	-164.83
190.936	-675.29
191.154	-755.96
191.373	-5853.33
191.592	-910.89
191.81	275.6
192.029	221.94
192.248	270.65
192.466	231.3
192.685	195.09
192.904	133.83
193.122	152.9
193.341	238.37
193.559	256.2
193.778	254.62
193.996	134.2
194.215	222.09
194.433	137.91
194.652	73.61
194.87	28.48
195.089	329.38
195.307	75.22
195.526	194.2
195.744	1903.01
195.963	-201.9
196.181	-397.56
196.399	-119.91
196.618	105.17
196.836	1004.47
197.055	220.61
197.273	575.27
197.491	172.24
197.71	125.44
197.928	128.4
198.146	169.73
198.365	358
198.583	540.23
198.801	-1265.1
199.019	1193.32
199.238	-22158.62
199.456	-151.61
199.674	-778.32
199.892	-983.42
200.111	-95.32
200.329	-154.09
200.547	-387.93
200.765	-1685.67
200.983	-419.94
201.202	-1420.79
201.42	-809.06
201.638	-232.79
201.856	404
202.074	874.62
202.292	-315.21
202.51	-254.21
202.728	-284.43
202.946	554.67
203.165	199.68
203.383	228.41
203.601	139.72
203.819	199.82
204.037	143.21
204.255	150.07
204.473	138.3
204.691	122.8
204.909	103.47
205.127	103.06
205.345	94.43
205.562	93.21
205.78	68.47
205.998	58.62
206.216	-125.74
206.434	-1174.02
206.652	232.81
206.87	85.63
207.088	139.64
207.306	90.64
207.523	34.22
207.741	-26.66
207.959	-64.65
208.177	-1939.16
208.395	-388.29
208.612	-428.49
208.83	1131.44
209.048	472.6
209.266	288.43
209.483	225.55
209.701	182.12
209.919	133.74
210.136	115.14
210.354	132.76
210.572	118.43
210.79	95.89
211.007	98.99
211.225	123.04
211.442	135.05
211.66	233.4
211.878	300.52
212.095	535.82
212.313	336.32
212.53	355.01
212.748	278.24
212.966	269.76
213.183	231.86
213.401	216.05
213.618	226.52
213.836	184.75
214.053	186.7
214.271	193.21
214.488	41.49
214.705	58.04
214.923	101.81
215.14	105.41
215.358	108.64
215.575	115.68
215.793	103.35
216.01	77.14
216.227	85.36
216.445	63.84
216.662	71.82
216.879	100.1
217.097	86.27
217.314	76.57
217.531	68.98
217.749	73.05
217.966	73.78
218.183	71.56
218.4	63.99
218.618	68.19
218.835	79.36
219.052	57.59
219.269	50.22
219.487	47.35
219.704	38.85
219.921	39.76
220.138	25.95
220.355	12.18
220.572	7.89
220.79	21.94
221.007	15.8
221.224	-8.01
221.441	9.78
221.658	16.56
221.875	6.75
222.092	8.2
222.309	3.13
222.526	10.8
222.743	7.3
222.96	7.07
223.177	-0.59
223.394	5.79
223.611	12.84
223.828	10.07
224.045	9.43
224.262	13.22
224.479	11.9
224.696	14.79
224.913	13.06
225.13	12.21
225.347	12.25
225.564	14.38
225.781	11.07
225.997	10.18
226.214	10.39
226.431	9.69
226.648	9.27
226.865	10.23
227.082	8.45
227.298	9.1
227.515	9.4
227.732	9.02
227.949	9.3
228.165	10.01
228.382	10.58
228.599	10.46
228.816	9.76
229.032	9.89
229.249	9.86
229.466	10.31
229.682	11.3
229.899	12.64
230.116	13.36
230.332	11.7
230.549	9.54
230.765	7.26
230.982	8.34
231.199	7.82
231.415	8.43
231.632	8.25
231.848	10.25
232.065	9.78
232.281	9.46
232.498	7.79
232.714	8.56
232.931	10.97
233.147	12.55
233.364	11.18
233.58	13.63
233.797	13.43
234.013	14.4
234.23	14.2
234.446	13.36
234.662	14.68
234.879	17.06
235.095	17.1
235.312	18.75
235.528	18.85
235.744	18.03
235.961	17.15
236.177	18.44
236.393	16.54
236.61	18.39
236.826	17.98
237.042	15.63
237.258	15.86
237.475	15.9
237.691	13.64
237.907	10.77
238.123	12.61
238.339	11.59
238.556	10.29
238.772	10.46
238.988	10.07
239.204	8.78
239.42	9.23
239.636	8.2
239.853	9.71
240.069	9.9
240.285	10.52
240.501	10.21
240.717	10.04
240.933	10.44
241.149	10.01
241.365	9.46
241.581	10.3
241.797	10.42
242.013	10.93
242.229	10.19
242.445	10.21
242.661	10.51
242.877	10.45
243.093	10.42
243.309	10.93
243.525	10.9
243.741	10.95
243.957	9.83
244.173	9.21
244.388	9.3
244.604	9.06
244.82	9.32
245.036	8.88
245.252	8.72
245.468	8.79
245.683	8.15
245.899	7.99
246.115	7.63
246.331	7.8
246.547	7.61
246.762	7.41
246.978	7.62
247.194	7.49
247.409	8.01
247.625	8.04
247.841	8.32
248.057	9.05
248.272	9.77
248.488	9.56
248.703	9.95
248.919	10.89
249.135	10.74
249.35	9.96
249.566	9.46
249.782	9.04
249.997	8.37
250.213	7.21
250.428	6.88
250.644	6.93
250.859	7.49
251.075	7.44
251.29	7.34
251.506	7.38
251.721	7.77
251.937	7.56
252.152	7.49
252.368	8.07
252.583	8.53
252.798	7.72
253.014	7.37
253.229	6.51
253.445	6.28
253.66	6.22
253.875	6.71
254.091	7.16
254.306	7.96
254.521	8.31
254.737	8.8
254.952	8.39
255.167	9.54
255.383	9.59
255.598	9.49
255.813	8.71
256.028	8.93
256.244	8.19
256.459	7.47
256.674	7.03
256.889	6.85
257.104	6.54
257.32	7.19
257.535	6.61
257.75	6.74
257.965	6.76
258.18	7.18
258.395	6.86
258.61	6.95
258.826	6.79
259.041	6.83
259.256	6.81
259.471	6.97
259.686	6.75
259.901	7.16
260.116	6.99
260.331	7.43
260.546	7.17
260.761	7.62
260.976	7.7
261.191	7.94
261.406	8.13
261.621	8.08
261.836	7.92
262.05	8.25
262.265	8.42
262.48	8.61
262.695	8.03
262.91	7.66
263.125	7.16
263.34	7.46
263.555	7.67
263.769	8.15
263.984	7.32
264.199	7.2
264.414	6.75
264.629	6.62
264.843	6.08
265.058	6.31
265.273	6.53
265.488	6.21
265.702	5.79
265.917	5.81
266.132	5.55
266.346	6.13
266.561	5.79
266.776	5.97
266.99	6.04
267.205	6.79
267.42	7.05
267.634	7.48
267.849	7.92
268.063	7.87
268.278	7.91
268.492	7.27
268.707	6.9
268.922	7.81
269.136	7.57
269.351	7.01
269.565	6.35
269.78	6.32
269.994	6.06
270.209	6.02
270.423	6.07
270.637	5.7
270.852	5.93
271.066	6.03
271.281	5.58
271.495	5.77
271.709	6.18
271.924	6.31
272.138	6
272.353	6.19
272.567	6.25
272.781	6.34
272.996	6.31
273.21	6.52
273.424	6.66
273.638	6.49
273.853	6.65
274.067	6.23
274.281	6.46
274.495	6.3
274.71	5.82
274.924	5.68
275.138	5.5
275.352	5.67
275.566	5.68
275.781	5.61
275.995	6.04
276.209	5.5
276.423	5.77
276.637	5.95
276.851	6.21
277.065	6.52
277.279	6.51
277.493	6.5
277.707	6.51
277.921	6.71
278.135	6.97
278.349	6.21
278.563	6.19
278.777	6.56
278.991	6.15
279.205	6.04
279.419	5.79
279.633	6.03
279.847	6
280.061	6.27
280.275	6.12
280.489	5.89
280.703	6.37
280.917	6.66
281.131	5.88
281.344	6.18
281.558	6.35
281.772	6.36
281.986	6.43
282.2	6.41
282.414	6.55
282.627	6.29
282.841	6.16
283.055	6
283.269	5.49
283.482	5.95
283.696	5.57
283.91	5.41
284.123	5.71
284.337	5.28
284.551	5.46
284.764	5.33
284.978	5.13
285.192	5.3
285.405	5.19
285.619	5.19
285.833	4.53
286.046	4.45
286.26	4.74
286.473	4.5
286.687	4.53
286.9	4.2
287.114	4.19
287.327	4.53
287.541	4.27
287.754	4.52
287.968	4.81
288.181	5.25
288.395	5.26
288.608	4.91
288.822	4.85
289.035	4.71
289.248	4.92
289.462	4.74
289.675	4.87
289.889	5.18
290.102	4.73
290.315	5.01
290.529	5.04
290.742	5.38
290.955	5.42
291.169	5.25
291.382	5.62
291.595	5.37
291.808	5.37
292.022	5.42
292.235	5.46
292.448	5.53
292.661	5.54
292.875	5.46
293.088	5.25
293.301	5.29
293.514	5.49
293.727	5.63
293.94	5.7
294.153	5.86
294.367	5.26
294.58	5.25
294.793	4.99
295.006	4.64
295.219	4.43
295.432	4.61
295.645	4.94
295.858	4.89
296.071	4.71
296.284	4.7
296.497	4.69
296.71	4.78
296.923	5.09
297.136	5.19
297.349	5.53
297.562	5.78
297.775	5.72
297.988	5.52
298.201	5.59
298.414	5.5
298.626	5.7
298.839	5.87
299.052	6.18
299.265	5.99
299.478	6.77
299.691	6.44
299.903	6.45
300.116	6.63
300.329	6.62
300.542	6.62
300.755	6.77
300.967	6.77
301.18	6.36
301.393	5.96
301.605	5.5
301.818	5
302.031	4.97
302.243	5.31
302.456	5.29
302.669	5.35
302.881	5.72
303.094	5.84
303.307	5.69
303.519	6.27
303.732	6.72
303.944	7.04
304.157	7.27
304.37	7.61
304.582	7.13
304.795	7.06
305.007	6.84
305.22	6.77
305.432	6.81
305.645	6.76
305.857	6.37
306.069	6.44
306.282	6.7
306.494	6.6
306.707	6.54
306.919	6.62
307.132	6.4
307.344	6.71
307.556	6.74
307.769	6.52
307.981	6.25
308.193	6.12
308.406	6.25
308.618	5.78
308.83	5.83
309.043	5.73
309.255	5.63
309.467	5.4
309.679	5.45
309.892	5.06
310.104	4.96
310.316	5.38
310.528	5.16
310.74	5.12
310.953	5.34
311.165	5.1
311.377	5.24
311.589	5.62
311.801	5.76
312.013	5.5
312.225	5.35
312.437	5.58
312.649	5.53
312.862	6.07
313.074	5.84
313.286	5.54
313.498	6.03
313.71	5.71
313.922	5.41
314.134	5.42
314.346	5.55
314.558	5.82
314.77	5.78
314.982	5.71
315.193	5.73
315.405	5.76
315.617	5.83
315.829	5.62
316.041	5.74
316.253	5.75
316.465	5.8
316.677	5.51
316.888	5.39
317.1	5.05
317.312	4.94
317.524	4.55
317.736	4.5
317.947	4.7
318.159	4.73
318.371	4.65
318.583	4.21
318.794	4.27
319.006	4.11
319.218	4.26
319.43	4.7
319.641	4.89
319.853	5.05
320.064	5.08
320.276	4.81
320.488	5.12
320.699	5.68
320.911	5.96
321.123	6.39
321.334	6.53
321.546	6.78
321.757	6.91
321.969	7.06
322.18	6.85
322.392	6.71
322.603	7.05
322.815	6.58
323.026	6.58
323.238	6.78
323.449	6.95
323.661	7.11
323.872	6.83
324.083	6.87
324.295	6.86
324.506	7.32
324.718	7.3
324.929	7.15
325.14	7.42
325.352	7.33
325.563	7.56
325.774	7.27
325.986	7.17
326.197	7.61
326.408	7.93
326.62	7.91
326.831	7.84
327.042	7.88
327.253	7.91
327.464	7.82
327.676	7.61
327.887	7.27
328.098	7.05
328.309	6.68
328.52	6.36
328.732	6.11
328.943	5.77
329.154	5.91
329.365	6.46
329.576	6.26
329.787	6.66
329.998	6.62
330.209	7.12
330.42	7.36
330.631	7.73
330.842	8.02
331.053	7.9
331.264	7.98
331.475	7.86
331.686	7.87
331.897	7.97
332.108	6.97
332.319	7.23
332.53	7.06
332.741	7.03
332.952	6.67
333.163	6.47
333.374	6.35
333.585	6.35
333.795	6.33
334.006	6.08
334.217	6.39
334.428	7.08
334.639	7.18
334.849	6.79
335.06	6.52
335.271	6.76
335.482	6.79
335.692	6.82
335.903	6.83
336.114	6.71
336.325	6.74
336.535	6.99
336.746	7.27
336.957	6.87
337.167	7.2
337.378	7.63
337.589	7.85
337.799	7.6
338.01	7.77
338.22	8.02
338.431	7.66
338.642	7.28
338.852	6.97
339.063	6.59
339.273	6.85
339.484	6.88
339.694	6.66
339.905	6.71
340.115	7.1
340.326	7.08
340.536	6.76
340.746	7.12
340.957	7.63
341.167	7.69
341.378	7.7
341.588	7.56
341.799	7.39
342.009	7.73
342.219	7.79
342.43	8.06
342.64	7.82
342.85	7.79
343.061	7.6
343.271	7.4
343.481	7.16
343.691	7.12
343.902	7.36
344.112	7.39
344.322	7.06
344.532	7.02
344.743	6.92
344.953	7.29
345.163	7.51
345.373	7.59
345.583	7.37
345.793	7.29
346.004	7.01
346.214	6.52
346.424	6.74
346.634	6.98
346.844	6.84
347.054	6.63
347.264	6.19
347.474	6.33
347.684	6.73
347.894	6.95
348.104	6.91
348.314	7.04
348.524	7.55
348.734	7.21
348.944	6.7
349.154	7.15
349.364	6.82
349.574	6.95
349.784	6.79
349.994	6.43
350.204	6.44
350.413	6.44
350.623	6.49
350.833	6.07
351.043	6.03
351.253	6.22
351.463	5.79
351.672	6.06
351.882	6.2
352.092	6.29
352.302	6.2
352.511	5.96
352.721	6.13
352.931	6.29
353.141	6.35
353.35	6.54
353.56	6.92
353.77	6.7
353.979	6.39
354.189	6.45
354.399	6.62
354.608	6.7
354.818	7.19
355.027	7.06
355.237	6.93
355.447	6.72
355.656	6.45
355.866	5.97
356.075	5.9
356.285	6.12
356.494	6.03
356.704	5.59
356.913	5.5
357.123	5.32
357.332	5.12
357.542	5.17
357.751	5.38
357.96	5.56
358.17	5.82
358.379	5.95
358.589	5.81
358.798	5.61
359.007	5.57
359.217	5.61
359.426	5.24
359.635	5.42
359.845	5.28
360.054	5.27
360.263	5.38
360.472	5.1
360.682	5.11
360.891	5.3
361.1	5.14
361.309	5.08
361.519	4.98
361.728	5.34
361.937	5.48
362.146	5.76
362.355	5.76
362.564	5.45
362.774	5.62
362.983	5.57
363.192	5.56
363.401	5.87
363.61	6
363.819	6.05
364.028	6.02
364.237	5.86
364.446	5.41
364.655	5.32
364.864	5.65
365.073	5.72
365.282	5.83
365.491	5.61
365.7	5.39
365.909	5.42
366.118	5.34
366.327	5.25
366.536	5.42
366.745	5.58
366.954	5.73
367.162	5.54
367.371	5.65
367.58	5.37
367.789	5.31
367.998	5.47
368.207	5.5
368.415	5.38
368.624	5.35
368.833	4.87
369.042	4.96
369.25	4.9
369.459	4.98
369.668	4.91
369.877	4.98
370.085	5.19
370.294	5.16
370.503	5.09
370.711	5.23
370.92	5.17
371.129	5.51
371.337	5.39
371.546	5.17
371.754	5.2
371.963	5.1
372.171	5.04
372.38	4.66
372.589	4.6
372.797	4.51
373.006	4.6
373.214	4.75
373.423	4.86
373.631	4.66
373.84	4.64
374.048	4.32
374.256	4.4
374.465	4.62
374.673	4.68
374.882	4.83
375.09	4.81
375.298	4.71
375.507	4.63
375.715	4.52
375.923	4.59
376.132	4.85
376.34	5.19
376.548	5.12
376.757	5.04
376.965	5.2
377.173	5
377.381	4.96
377.59	5.08
377.798	4.74
378.006	4.62
378.214	4.73
378.423	4.8
378.631	4.52
378.839	4.17
379.047	4.01
379.255	4.06
379.463	4.22
379.671	4.3
379.879	4.18
380.088	4.21
380.296	4.07
380.504	4.19
380.712	4.26
380.92	4.35
381.128	4.45
381.336	4.46
381.544	4.24
381.752	4.17
381.96	4.37
382.168	4.26
382.376	4.37
382.584	4.66
382.791	4.52
382.999	4.33
383.207	4.27
383.415	4.54
383.623	4.71
383.831	4.92
384.039	4.96
384.247	4.87
384.454	5.21
384.662	5.16
384.87	4.98
385.078	4.94
385.285	4.83
385.493	4.89
385.701	4.76
385.909	4.74
386.116	4.49
386.324	4.25
386.532	4.15
386.739	3.77
386.947	3.8
387.155	3.78
387.362	3.92
387.57	3.78
387.778	3.55
387.985	3.34
388.193	3.29
388.4	3.29
388.608	3.49
388.816	3.41
389.023	3.63
389.231	3.76
389.438	3.6
389.646	3.4
389.853	3.43
390.061	3.54
390.268	3.88
390.475	3.91
390.683	3.92
390.89	3.79
391.098	3.85
391.305	3.81
391.512	3.82
391.72	3.93
391.927	3.85
392.135	4.02
392.342	4.11
392.549	4.04
392.756	4.01
392.964	4.01
393.171	3.93
393.378	3.85
393.586	3.75
393.793	3.75
394	3.85
394.207	3.95
394.414	3.86
394.622	3.77
394.829	3.66
395.036	3.54
395.243	3.54
395.45	3.69
395.657	3.79
395.864	3.81
396.072	3.74
396.279	3.71
396.486	3.83
396.693	3.72
396.9	3.72
397.107	3.7
397.314	3.65
397.521	3.65
397.728	3.48
397.935	3.6
398.142	3.73
398.349	3.79
398.556	3.65
398.763	3.53
398.97	3.59
399.177	3.51
399.383	3.43
399.59	3.52
399.797	3.62
400.004	3.62
400.211	3.4
400.418	3.18
400.625	3.07
400.831	3.23
401.038	3.42
401.245	3.43
401.452	3.35
401.658	3.45
401.865	3.56
402.072	3.52
402.279	3.62
402.485	3.5
402.692	3.44
402.899	3.45
403.105	3.27
403.312	3.03
403.519	3.09
403.725	3.18
403.932	3.19
404.138	3
404.345	3.02
404.552	3.12
404.758	3.38
404.965	3.46
405.171	3.49
405.378	3.53
405.584	3.55
405.791	3.48
405.997	3.37
406.204	3.23
406.41	3.39
406.617	3.44
406.823	3.27
407.029	3.32
407.236	3.32
407.442	3.35
407.649	3.28
407.855	3.49
408.061	3.37
408.268	3.59
408.474	3.57
408.68	3.55
408.887	3.43
409.093	3.4
409.299	3.31
409.505	3.35
409.712	3.34
409.918	3.38
410.124	3.25
410.33	3.26
410.537	3.23
410.743	3.41
410.949	3.34
411.155	3.27
411.361	3.24
411.567	3.19
411.773	3.01
411.98	2.92
412.186	3.07
412.392	3
412.598	3.12
412.804	2.98
413.01	2.77
413.216	2.84
413.422	2.8
413.628	2.71
413.834	2.67
414.04	2.88
414.246	2.9
414.452	2.9
414.658	2.91
414.864	2.96
415.07	3.08
415.275	3.08
415.481	3.1
415.687	3.17
415.893	3.22
416.099	3.26
416.305	3.2
416.511	3.13
416.716	2.96
416.922	2.98
417.128	2.89
417.334	2.85
417.539	2.81
417.745	2.75
417.951	2.72
418.157	2.82
418.362	2.8
418.568	2.71
418.774	2.66
418.979	2.78
419.185	2.77
419.391	2.82
419.596	2.78
419.802	2.88
420.008	2.89
420.213	2.14
420.419	2.03
420.624	2.09
420.83	2.16
421.035	2.19
421.241	2.18
421.446	2.21
421.652	2.15
421.857	2.13
422.063	2.12
422.268	2.14
422.474	2.92
422.679	2.92
422.885	2.83
423.09	2.78
423.295	2.77
423.501	2.7
423.706	2.65
423.911	2.66
424.117	2.7
424.322	2.59
424.527	2.53
424.733	2.44
424.938	2.44
425.143	2.47
425.349	2.5
425.554	2.54
425.759	2.59
425.964	2.65
426.169	2.7
426.375	2.67
426.58	2.75
426.785	2.84
426.99	2.85
427.195	2.9
427.4	2.81
427.605	2.73
427.811	2.77
428.016	2.68
428.221	2.56
428.426	2.46
428.631	2.43
428.836	2.44
429.041	2.44
429.246	2.44
429.451	2.38
429.656	2.39
429.861	2.45
430.066	2.37
430.271	2.45
430.476	2.43
430.681	2.44
430.886	2.42
431.09	2.45
431.295	2.42
431.5	2.47
431.705	2.48
431.91	2.55
432.115	2.48
432.32	2.55
432.524	2.58
432.729	2.64
432.934	2.54
433.139	2.54
433.343	2.53
433.548	2.53
433.753	2.51
433.958	2.53
434.162	2.49
434.367	2.42
434.572	2.39
434.776	2.25
434.981	2.34
435.186	2.4
435.39	2.48
435.595	2.45
435.799	2.46
436.004	2.45
436.209	2.52
436.413	2.55
436.618	2.68
436.822	2.67
437.027	2.72
437.231	2.62
437.436	2.6
437.64	2.52
437.845	2.58
438.049	2.52
438.253	2.46
438.458	2.41
438.662	2.37
438.867	2.41
439.071	2.44
439.275	2.44
439.48	2.44
439.684	2.46
439.888	2.52
440.093	2.5
440.297	2.54
440.501	2.62
440.706	2.66
440.91	2.68
441.114	2.58
441.318	2.57
441.523	2.52
441.727	2.56
441.931	2.64
442.135	2.64
442.339	2.67
442.543	2.65
442.748	2.63
442.952	2.49
443.156	2.5
443.36	2.56
443.564	2.49
443.768	2.51
443.972	2.56
444.176	2.45
444.38	2.43
444.584	2.36
444.788	2.31
444.992	2.33
445.196	2.43
445.4	2.41
445.604	2.38
445.808	2.39
446.012	2.39
446.216	2.3
446.42	2.38
446.624	2.35
446.828	2.39
447.032	2.43
447.235	2.41
447.439	2.32
447.643	2.34
447.847	2.41
448.051	2.36
448.254	2.48
448.458	2.52
448.662	2.49
448.866	2.57
449.069	2.62
449.273	2.6
449.477	2.52
449.681	2.52
449.884	2.51
450.088	2.5
450.292	2.55
450.495	2.53
450.699	2.57
450.902	2.44
451.106	2.33
451.31	2.28
451.513	2.32
451.717	2.32
451.92	2.37
452.124	2.36
452.327	2.28
452.531	2.28
452.734	2.19
452.938	2.15
453.141	2.31
453.345	2.49
453.548	2.41
453.752	2.37
453.955	2.51
454.158	2.5
454.362	2.6
454.565	2.64
454.769	2.78
454.972	2.81
455.175	2.79
455.379	2.73
455.582	2.55
455.785	2.63
455.988	2.62
456.192	2.53
456.395	2.51
456.598	2.51
456.801	2.52
457.005	2.5
457.208	2.46
457.411	2.46
457.614	2.45
457.817	2.5
458.021	2.44
458.224	2.53
458.427	2.52
458.63	2.53
458.833	2.43
459.036	2.41
459.239	2.4
459.442	2.38
459.645	2.41
459.848	2.5
460.051	2.44
460.254	2.57
460.457	2.43
460.66	2.42
460.863	2.44
461.066	2.44
461.269	2.45
461.472	2.34
461.675	2.37
461.878	2.43
462.081	2.32
462.284	2.32
462.486	2.13
462.689	2.19
462.892	2.25
463.095	2.21
463.298	2.27
463.5	2.32
463.703	2.29
463.906	2.38
464.109	2.25
464.311	2.3
464.514	2.35
464.717	2.38
464.92	2.32
465.122	2.3
465.325	2.42
465.528	2.5
465.73	2.46
465.933	2.52
466.135	2.42
466.338	2.44
466.541	2.49
466.743	2.47
466.946	2.51
467.148	2.59
467.351	2.68
467.553	2.5
467.756	2.36
467.958	2.3
468.161	2.28
468.363	2.34
468.566	2.23
468.768	2.17
468.971	2.05
469.173	2
469.375	1.9
469.578	1.78
469.78	1.94
469.983	1.93
470.185	2.02
470.387	2
470.59	2.01
470.792	2.12
470.994	2.05
471.196	2.13
471.399	2.21
471.601	2.24
471.803	2.32
472.005	2.12
472.208	2.13
472.41	2.14
472.612	2.28
472.814	2.29
473.016	2.28
473.218	2.4
473.421	2.36
473.623	2.31
473.825	2.4
474.027	2.38
474.229	2.48
474.431	2.57
474.633	2.57
474.835	2.46
475.037	2.44
475.239	2.41
475.441	2.32
475.643	2.4
475.845	2.35
476.047	2.29
476.249	2.28
476.451	2.37
476.653	2.4
476.855	2.32
477.057	2.31
477.258	2.27
477.46	2.3
477.662	2.38
477.864	2.32
478.066	2.41
478.268	2.39
478.469	2.39
478.671	2.33
478.873	2.31
479.075	2.34
479.276	2.26
479.478	2.26
479.68	2.25
479.882	2.21
480.083	2.23
480.285	2.2
480.487	2.26
480.688	2.28
480.89	2.25
481.091	2.22
481.293	2.24
481.495	2.29
481.696	2.24
481.898	2.23
482.099	2.22
482.301	2.22
482.502	2.22
482.704	2.22
482.905	2.23
483.107	2.24
483.308	2.24
483.51	2.23
483.711	2.21
483.913	2.25
484.114	2.27
484.315	2.28
484.517	2.28
484.718	2.32
484.92	2.31
485.121	2.25
485.322	2.26
485.524	2.27
485.725	2.28
485.926	2.27
486.127	2.27
486.329	2.29
486.53	2.3
486.731	2.31
486.932	2.29
487.134	2.33
487.335	2.35
487.536	2.35
487.737	2.34
487.938	2.33
488.139	2.35
488.341	2.33
488.542	2.29
488.743	2.27
488.944	2.25
489.145	2.23
489.346	2.19
489.547	2.19
489.748	2.23
489.949	2.21
490.15	2.18
490.351	2.22
490.552	2.21
490.753	2.26
490.954	2.27
491.155	2.28
491.356	2.28
491.557	2.23
491.758	2.22
491.959	2.23
492.159	2.24
492.36	2.33
492.561	2.25
492.762	2.29
492.963	2.26
493.164	2.29
493.364	2.31
493.565	2.23
493.766	2.26
493.967	2.29
494.167	2.23
494.368	2.22
494.569	2.2
494.769	2.26
494.97	2.2
495.171	2.25
495.371	2.23
495.572	2.22
495.773	2.32
495.973	2.37
496.174	2.37
496.375	2.32
496.575	2.32
496.776	2.33
496.976	2.43
497.177	2.48
497.377	2.4
497.578	2.39
497.778	2.41
497.979	2.43
498.179	2.36
498.38	2.38
498.58	2.37
498.78	2.42
498.981	2.48
499.181	2.39
499.382	2.4
499.582	2.47
499.782	2.5
499.983	2.47
500.183	2.53
500.383	2.59
500.584	2.56
500.784	2.7
500.984	2.77
501.184	2.69
501.385	2.67
501.585	2.72
501.785	2.76
501.985	2.85
502.185	2.93
502.386	2.84
502.586	2.88
502.786	2.95
502.986	2.93
503.186	2.85
503.386	2.87
503.586	3.01
503.786	2.94
503.987	2.88
504.187	2.86
504.387	2.85
504.587	2.96
504.787	3.01
504.987	2.96
505.187	2.95
505.387	2.99
505.587	2.99
505.786	2.92
505.986	2.98
506.186	3.02
506.386	2.98
506.586	3.02
506.786	2.94
506.986	2.95
507.186	2.96
507.386	3
507.585	3.04
507.785	3.06
507.985	3.02
508.185	3.01
508.384	3.01
508.584	3.03
508.784	2.99
508.984	3.02
509.183	2.98
509.383	3.06
509.583	3.08
509.782	3.05
509.982	3.13
510.182	3.15
510.381	3.21
510.581	3.19
510.781	3.27
510.98	3.29
511.18	3.32
511.379	3.34
511.579	3.3
511.778	3.29
511.978	3.35
512.177	3.33
512.377	3.35
512.576	3.34
512.776	3.32
512.975	3.29
513.175	3.33
513.374	3.34
513.573	3.45
513.773	3.5
513.972	3.49
514.172	3.48
514.371	3.49
514.57	3.51
514.77	3.51
514.969	3.56
515.168	3.54
515.367	3.61
515.567	3.62
515.766	3.52
515.965	3.48
516.164	3.55
516.364	3.51
516.563	3.49
516.762	3.55
516.961	3.56
517.16	3.66
517.359	3.7
517.559	3.66
517.758	3.66
517.957	3.75
518.156	3.85
518.355	3.85
518.554	3.96
518.753	3.99
518.952	3.95
519.151	4.05
519.35	4.05
519.549	4.08
519.748	4.11
519.947	4.11
520.146	4.04
520.345	4.02
520.544	4.02
520.743	4.05
520.942	4.1
521.141	4.17
521.339	4.08
521.538	4.08
521.737	4.08
521.936	4.09
522.135	4.17
522.333	4.23
522.532	4.22
522.731	4.25
522.93	4.29
523.129	4.33
523.327	4.34
523.526	4.39
523.725	4.36
523.923	4.4
524.122	4.46
524.321	4.52
524.519	4.58
524.718	4.63
524.917	4.64
525.115	4.58
525.314	4.59
525.512	4.61
525.711	4.58
525.909	4.62
526.108	4.64
526.306	4.65
526.505	4.59
526.703	4.58
526.902	4.57
527.1	4.59
527.299	4.66
527.497	4.66
527.696	4.71
527.894	4.76
528.092	4.81
528.291	4.83
528.489	4.86
528.688	4.91
528.886	4.97
529.084	5
529.283	5.04
529.481	5.05
529.679	5.09
529.877	5.09
530.076	5.13
530.274	5.12
530.472	5.1
530.67	5.11
530.869	5.15
531.067	5.16
531.265	5.21
531.463	5.18
531.661	5.17
531.859	5.23
532.057	5.25
532.255	5.23
532.454	5.28
532.652	5.33
532.85	5.4
533.048	5.4
533.246	5.46
533.444	5.5
533.642	5.56
533.84	5.61
534.038	5.59
534.236	5.57
534.434	5.61
534.632	5.58
534.83	5.57
535.027	5.52
535.225	5.57
535.423	5.52
535.621	5.53
535.819	5.52
536.017	5.53
536.215	5.59
536.412	5.66
536.61	5.68
536.808	5.74
537.006	5.77
537.203	5.88
537.401	5.92
537.599	5.92
537.797	5.97
537.994	6.01
538.192	6.03
538.39	6
538.587	5.99
538.785	6.03
538.983	6.02
539.18	6.06
539.378	6.03
539.575	5.96
539.773	6.01
539.97	6
540.168	6.03
540.366	6.05
540.563	6.1
540.761	6.12
540.958	6.17
541.155	6.23
541.353	6.27
541.55	6.29
541.748	6.34
541.945	6.4
542.143	6.47
542.34	6.5
542.537	6.48
542.735	6.53
542.932	6.64
543.129	6.68
543.327	6.68
543.524	6.72
543.721	6.81
543.919	6.89
544.116	6.92
544.313	6.94
544.51	6.96
544.708	7.01
544.905	7.1
545.102	7.08
545.299	7.07
545.496	7.14
545.693	7.12
545.891	7.12
546.088	7.12
546.285	7.09
546.482	7.19
546.679	7.31
546.876	7.43
547.073	7.37
547.27	7.41
547.467	7.51
547.664	7.57
547.861	7.7
548.058	7.79
548.255	7.97
548.452	8.21
548.649	8.17
548.846	8.23
549.043	8.24
549.24	8.35
549.437	8.42
549.633	8.41
549.83	8.37
550.027	8.32
550.224	8.3
550.421	8.27
550.618	8.21
550.814	8.26
551.011	8.28
551.208	8.33
551.405	8.42
551.601	8.49
551.798	8.52
551.995	8.56
552.191	8.62
552.388	8.62
552.585	8.65
552.781	8.73
552.978	8.85
553.175	8.85
553.371	8.95
553.568	8.95
553.764	9
553.961	9.06
554.157	9.12
554.354	9.22
554.55	9.46
554.747	9.41
554.943	9.32
555.14	9.37
555.336	9.47
555.533	9.52
555.729	9.55
555.926	9.48
556.122	9.46
556.318	9.5
556.515	9.5
556.711	9.44
556.907	9.47
557.104	9.6
557.3	9.58
557.496	9.5
557.693	9.51
557.889	9.52
558.085	9.72
558.281	9.81
558.478	9.86
558.674	9.98
558.87	10.05
559.066	10.22
559.262	10.25
559.459	10.37
559.655	10.43
559.851	10.56
560.047	10.64
560.243	10.66
560.439	10.77
560.635	10.78
560.831	10.83
561.027	10.84
561.223	10.95
561.419	11.03
561.615	11.04
561.811	11.03
562.007	10.95
562.203	10.94
562.399	10.87
562.595	10.84
562.791	10.99
562.987	11.11
563.183	11.17
563.379	11.15
563.575	11.29
563.771	11.27
563.966	11.35
564.162	11.5
564.358	11.6
564.554	11.68
564.75	11.83
564.945	11.81
565.141	11.8
565.337	11.92
565.533	11.96
565.728	11.92
565.924	12.01
566.12	12.16
566.315	12.18
566.511	12.29
566.707	12.4
566.902	12.4
567.098	12.47
567.293	12.55
567.489	12.58
567.684	12.61
567.88	12.67
568.076	12.81
568.271	12.92
568.467	13.03
568.662	13.06
568.858	13.15
569.053	13.17
569.248	13.26
569.444	13.21
569.639	13.18
569.835	13.23
570.03	13.29
570.225	13.25
570.421	13.13
570.616	13.16
570.812	13.21
571.007	13.31
571.202	13.35
571.397	13.34
571.593	13.46
571.788	13.57
571.983	13.7
572.178	13.71
572.374	13.81
572.569	13.99
572.764	14.05
572.959	14
573.154	13.92
573.35	13.95
573.545	14.07
573.74	14.08
573.935	14.06
574.13	13.99
574.325	14.11
574.52	14.12
574.715	14.16
574.91	14.19
575.105	14.29
575.3	14.37
575.495	14.48
575.69	14.6
575.885	14.7
576.08	14.8
576.275	14.91
576.47	14.89
576.665	14.97
576.86	15
577.055	14.93
577.25	14.91
577.444	14.88
577.639	14.87
577.834	14.8
578.029	14.85
578.224	14.9
578.418	14.99
578.613	14.96
578.808	14.89
579.003	14.91
579.197	15.06
579.392	15.32
579.587	15.52
579.781	15.55
579.976	15.56
580.171	15.42
580.365	15.32
580.56	15.35
580.755	15.49
580.949	15.64
581.144	15.59
581.338	15.55
581.533	15.37
581.727	15.4
581.922	15.44
582.116	15.56
582.311	15.74
582.505	16.04
582.7	16.04
582.894	15.99
583.089	15.98
583.283	16.13
583.478	16.17
583.672	16.22
583.866	16.2
584.061	16.21
584.255	16.11
584.449	16.25
584.644	16.04
584.838	16.02
585.032	16.02
585.226	15.97
585.421	15.89
585.615	16.05
585.809	16.12
586.003	16.1
586.198	16.22
586.392	16.32
586.586	16.14
586.78	16.13
586.974	16.21
587.168	16.33
587.363	16.42
587.557	16.46
587.751	16.33
587.945	16.38
588.139	16.39
588.333	16.53
588.527	16.57
588.721	16.83
588.915	16.97
589.109	16.99
589.303	17.02
589.497	17.19
589.691	17.19
589.885	17.22
590.079	17.27
590.273	17.4
590.466	17.36
590.66	17.3
590.854	17.15
591.048	17.13
591.242	17.18
591.436	17.25
591.629	17.24
591.823	17.36
592.017	17.36
592.211	17.29
592.404	17.25
592.598	17.28
592.792	17.36
592.986	17.47
593.179	17.51
593.373	17.39
593.567	17.27
593.76	17.34
593.954	17.41
594.147	17.53
594.341	17.66
594.535	17.77
594.728	17.63
594.922	17.74
595.115	17.63
595.309	17.76
595.502	17.9
595.696	17.98
595.889	17.91
596.083	17.89
596.276	17.82
596.47	17.76
596.663	17.66
596.856	17.76
597.05	17.83
597.243	17.98
597.437	18.05
597.63	18.14
597.823	18.24
598.017	18.23
598.21	18.23
598.403	18.48
598.596	18.76
598.79	18.83
598.983	18.9
599.176	18.83
599.369	18.76
599.563	18.76
599.756	18.75
599.949	18.78
600.142	18.88
600.335	18.91
600.528	18.78
600.722	18.6
600.915	18.48
601.108	18.54
601.301	18.46
601.494	18.45
601.687	18.41
601.88	18.46
602.073	18.23
602.266	18.29
602.459	18.26
602.652	18.24
602.845	18.27
603.038	18.32
603.231	18.35
603.424	18.36
603.617	18.37
603.809	18.24
604.002	18.21
604.195	18.42
604.388	18.44
604.581	18.49
604.774	18.58
604.966	18.6
605.159	18.86
605.352	18.72
605.545	18.82
605.737	18.97
605.93	19
606.123	18.93
606.316	18.98
606.508	18.96
606.701	19.08
606.894	19.04
607.086	19.07
607.279	18.92
607.471	18.89
607.664	19.01
607.857	19
608.049	19.09
608.242	19.21
608.434	19.28
608.627	19.37
608.819	19.35
609.012	19.32
609.204	19.16
609.397	19.17
609.589	19.37
609.782	19.26
609.974	19.21
610.166	19.18
610.359	19.09
610.551	18.95
610.743	18.78
610.936	18.76
611.128	18.86
611.32	19.01
611.513	19.08
611.705	18.86
611.897	18.98
612.09	19.2
612.282	19.28
612.474	19.32
612.666	19.46
612.858	19.49
613.051	19.61
613.243	19.57
613.435	19.77
613.627	19.78
613.819	19.99
614.011	20.05
614.203	19.69
614.395	19.76
614.588	19.75
614.78	19.68
614.972	19.9
615.164	19.87
615.356	20.06
615.548	20.05
615.74	20.1
615.932	20
616.124	19.79
616.315	20.12
616.507	20.11
616.699	20.3
616.891	20.34
617.083	20.25
617.275	20.32
617.467	20.19
617.659	20.13
617.85	20.05
618.042	20.25
618.234	20.59
618.426	20.55
618.618	20.65
618.809	20.5
619.001	20.51
619.193	20.44
619.384	20.33
619.576	20.29
619.768	20.33
619.959	20.47
620.151	20.53
620.343	20.3
620.534	20.28
620.726	20.28
620.917	20.27
621.109	20.48
621.301	20.48
621.492	20.42
621.684	20.49
621.875	20.71
622.067	20.71
622.258	20.69
622.45	20.66
622.641	20.4
622.832	20.25
623.024	20.37
623.215	20.34
623.407	20.3
623.598	20.36
623.789	20.45
623.981	20.23
624.172	20.21
624.363	20.04
624.555	20.08
624.746	20.22
624.937	20.36
625.129	20.36
625.32	20.36
625.511	20.5
625.702	20.44
625.893	20.47
626.085	20.53
626.276	20.48
626.467	20.63
626.658	20.56
626.849	20.63
627.04	20.6
627.231	20.58
627.422	20.51
627.614	20.54
627.805	20.63
627.996	20.73
628.187	20.69
628.378	20.8
628.569	20.71
628.76	20.81
628.951	20.83
629.142	20.89
629.332	21
629.523	21.03
629.714	21.08
629.905	21.17
630.096	20.94
630.287	20.97
630.478	20.89
630.669	21.06
630.859	21.05
631.05	21.04
631.241	21.06
631.432	20.88
631.623	20.8
631.813	20.78
632.004	20.64
632.195	20.66
632.385	20.87
632.576	21.07
632.767	20.89
632.957	21.06
633.148	21.17
633.339	21.25
633.529	21.47
633.72	21.5
633.91	21.47
634.101	21.49
634.292	21.64
634.482	21.27
634.673	21.3
634.863	21.59
635.054	21.36
635.244	21.51
635.435	21.39
635.625	21.34
635.815	21.28
636.006	21.22
636.196	21.43
636.387	21.34
636.577	21.55
636.767	21.52
636.958	21.33
637.148	21.46
637.338	21.31
637.529	21.44
637.719	21.52
637.909	21.63
638.099	21.83
638.29	21.8
638.48	21.9
638.67	21.87
638.86	21.78
639.05	21.72
639.241	21.74
639.431	21.84
639.621	21.73
639.811	21.64
640.001	21.6
640.191	21.53
640.381	21.48
640.571	21.36
640.761	21.38
640.951	21.52
641.141	21.63
641.331	21.64
641.521	21.33
641.711	21.4
641.901	21.35
642.091	21.35
642.281	21.42
642.471	21.39
642.661	21.43
642.851	21.53
643.041	21.29
643.231	21.14
643.42	21.21
643.61	21.25
643.8	21.28
643.99	21.55
644.18	21.63
644.369	21.7
644.559	21.77
644.749	21.82
644.939	21.85
645.128	21.94
645.318	21.98
645.508	21.87
645.697	22.02
645.887	22.03
646.076	22.06
646.266	22.31
646.456	22
646.645	22.07
646.835	22.16
647.024	22.03
647.214	22.08
647.403	22.24
647.593	22.33
647.782	22.28
647.972	22.23
648.161	21.95
648.351	21.75
648.54	21.94
648.73	21.81
648.919	21.65
649.108	21.8
649.298	21.81
649.487	21.8
649.677	22.04
649.866	21.89
650.055	22.09
650.244	22.2
650.434	22.15
650.623	22.15
650.812	22.31
651.002	22.52
651.191	22.35
651.38	22.34
651.569	22.21
651.758	22.16
651.947	22.58
652.137	22.52
652.326	22.53
652.515	22.65
652.704	22.73
652.893	22.79
653.082	22.76
653.271	22.9
653.46	22.71
653.649	22.92
653.838	22.88
654.027	22.63
654.216	22.63
654.405	22.86
654.594	22.8
654.783	22.86
654.972	22.55
655.161	22.5
655.35	22.37
655.539	22.84
655.728	22.62
655.916	22.6
656.105	22.72
656.294	22.63
656.483	22.49
656.672	22.64
656.86	22.68
657.049	22.9
657.238	22.91
657.427	22.88
657.615	22.73
657.804	22.78
657.993	22.64
658.181	22.69
658.37	22.74
658.559	22.66
658.747	22.47
658.936	22.5
659.125	22.33
659.313	22.21
659.502	22.42
659.69	22.38
659.879	22.38
660.067	22.8
660.256	22.62
660.444	22.67
660.633	22.59
660.821	22.99
661.01	23.03
661.198	23.2
661.387	23.51
661.575	23.49
661.763	23.68
661.952	23.82
662.14	23.33
662.328	23.62
662.517	23.42
662.705	23.78
662.893	23.65
663.082	23.38
663.27	23.28
663.458	23.15
663.646	23
663.834	22.66
664.023	22.75
664.211	23.05
664.399	22.89
664.587	23.04
664.775	22.82
664.963	22.84
665.152	23.02
665.34	23.18
665.528	23.19
665.716	23.38
665.904	23.29
666.092	23.41
666.28	23.44
666.468	23.7
666.656	23.81
666.844	23.91
667.032	23.8
667.22	23.93
667.408	23.93
667.596	23.86
667.784	23.91
667.971	24.33
668.159	23.97
668.347	23.91
668.535	23.54
668.723	23.38
668.911	23.21
669.098	23.42
669.286	23.43
669.474	23.28
669.662	23.37
669.849	23.43
670.037	23.2
670.225	23.77
670.413	23.72
670.6	24.11
670.788	24.02
670.976	24.12
671.163	24
671.351	23.83
671.538	24.19
671.726	24.07
671.913	23.94
672.101	23.8
672.289	23.53
672.476	23.54
672.664	23.47
672.851	23.68
673.039	24.02
673.226	23.61
673.413	23.41
673.601	23.13
673.788	23.35
673.976	23.41
674.163	23.69
674.35	23.77
674.538	24.04
674.725	23.9
674.912	23.9
675.1	23.81
675.287	24.33
675.474	24.39
675.662	24.22
675.849	23.99
676.036	24.2
676.223	24.34
676.411	24.04
676.598	23.9
676.785	23.92
676.972	24.06
677.159	23.96
677.346	23.75
677.533	23.95
677.721	24.18
677.908	24.53
678.095	24.23
678.282	24.32
678.469	24.62
678.656	24.59
678.843	24.47
679.03	24.52
679.217	24.44
679.404	24.55
679.591	24.42
679.778	24.59
679.964	24.4
680.151	24.58
680.338	24.35
680.525	24.28
680.712	24.09
680.899	24.14
681.086	23.97
681.272	23.85
681.459	23.91
681.646	23.97
681.833	23.9
682.02	24.16
682.206	24.09
682.393	24.11
682.58	24.22
682.766	24.41
682.953	24.57
683.14	24.69
683.326	24.99
683.513	25.08
683.7	25.21
683.886	25.35
684.073	25.14
684.259	25.26
684.446	25.48
684.632	25.47
684.819	25.64
685.005	25.82
685.192	25.62
685.378	25.34
685.565	25.28
685.751	25.17
685.938	25.07
686.124	25.26
686.31	25
686.497	25.02
686.683	24.77
686.87	24.54
687.056	24.48
687.242	24.71
687.429	24.77
687.615	24.51
687.801	24.72
687.987	24.74
688.174	24.5
688.36	24.74
688.546	24.46
688.732	24.68
688.918	24.84
689.105	24.65
689.291	24.44
689.477	24.74
689.663	24.89
689.849	24.51
690.035	24.57
690.221	24.71
690.407	24.82
690.593	24.85
690.779	25.02
690.965	24.73
691.151	25.08
691.337	25.44
691.523	25.39
691.709	25.7
691.895	25.97
692.081	26.02
692.267	25.81
692.453	25.4
692.639	25.46
692.825	25.14
693.011	25.21
693.196	25.18
693.382	24.75
693.568	24.83
693.754	24.54
693.94	24.39
694.125	24.11
694.311	24.48
694.497	24.81
694.682	24.89
694.868	24.83
695.054	24.94
695.239	24.61
695.425	24.88
695.611	24.71
695.796	24.55
695.982	24.92
696.168	24.91
696.353	24.84
696.539	24.69
696.724	24.49
696.91	24.52
697.095	24.57
697.281	24.54
697.466	24.42
697.652	24.42
697.837	24.5
698.023	24.31
698.208	24.39
698.393	24.34
698.579	24.42
698.764	24.7
698.949	24.75
699.135	24.81
699.32	25
699.505	25
699.691	25.04
699.876	25.05
700.061	25.12
700.246	25.13
700.432	25.01
700.617	25.32
700.802	25.36
700.987	25.35
701.172	25.2
701.358	24.89
701.543	25.21
701.728	25.34
701.913	25.43
702.098	25.25
702.283	25.23
702.468	25.3
702.653	24.94
702.838	24.9
703.023	24.65
703.208	24.92
703.393	24.44
703.578	24.5
703.763	24.4
703.948	24.48
704.133	24.9
704.318	25.16
704.503	25.14
704.688	25.31
704.873	25.43
705.057	25.78
705.242	25.8
705.427	26.15
705.612	25.88
705.797	25.85
705.981	26.02
706.166	25.92
706.351	25.69
706.536	25.73
706.72	25.55
706.905	25.51
707.09	25.04
707.274	25.05
707.459	25.68
707.644	25.87
707.828	25.74
708.013	25.63
708.197	25.77
708.382	26
708.567	26.12
708.751	26.13
708.936	26.12
709.12	26.62
709.305	26.49
709.489	26.15
709.673	25.72
709.858	26.04
710.042	26.07
710.227	25.96
710.411	25.92
710.596	25.77
710.78	25.85
710.964	25.82
711.149	25.84
711.333	26.4
711.517	26.6
711.702	26.97
711.886	26.85
712.07	26.78
712.254	26.56
712.438	26.34
712.623	26.36
712.807	25.99
712.991	26.14
713.175	26.12
713.359	25.76
713.544	25.79
713.728	25.54
713.912	25.43
714.096	25.6
714.28	25.64
714.464	26.14
714.648	26
714.832	26.23
715.016	26.24
715.2	26.2
715.384	26.04
715.568	26.19
715.752	26.65
715.936	26.9
716.12	26.74
716.304	26.85
716.488	26.69
716.671	27.27
716.855	27.51
717.039	27.18
717.223	27.29
717.407	27.38
717.59	27.06
717.774	26.44
717.958	26.29
718.142	26.38
718.325	26.68
718.509	26.13
718.693	26.12
718.877	26.27
719.06	26.17
719.244	26.33
719.428	26.08
719.611	26.26
719.795	26.36
719.978	26.78
720.162	26.67
720.345	26.07
720.529	26.22
720.713	26.07
720.896	25.57
721.08	25.7
721.263	25.16
721.446	25.4
721.63	25.63
721.813	25.97
721.997	25.47
722.18	25.43
722.364	26.14
722.547	25.93
722.73	25.4
722.914	25.86
723.097	26.32
723.28	26.64
723.464	26.05
723.647	25.8
723.83	25.98
724.013	26.48
724.197	26.84
724.38	26.66
724.563	27.2
724.746	27.99
724.929	28.07
725.112	27.65
725.296	27.78
725.479	28.63
725.662	28.4
725.845	28.32
726.028	27.94
726.211	27.68
726.394	27.37
726.577	27.03
726.76	26.74
726.943	26.11
727.126	26.01
727.309	25.95
727.492	25.39
727.675	25.68
727.858	25.78
728.041	25.61
728.224	25.4
728.407	25.29
728.589	25.59
728.772	25.32
728.955	25.69
729.138	26.02
729.321	25.87
729.503	25.61
729.686	25.5
729.869	24.89
730.052	25.03
730.234	25.2
730.417	25.34
730.6	25.19
730.782	25.3
730.965	25.55
731.148	24.96
731.33	25.19
731.513	25.71
731.695	25.89
731.878	26.34
732.061	26.51
732.243	26.5
732.426	26.2
732.608	26.4
732.791	25.93
732.973	25.74
733.156	26.09
733.338	26.05
733.52	26.2
733.703	26.15
733.885	26.28
734.068	26.22
734.25	26.27
734.432	26.55
734.615	26.55
734.797	27.37
734.979	27.33
735.162	27.14
735.344	26.99
735.526	26.53
735.708	26.32
735.891	26.54
736.073	25.92
736.255	25.82
736.437	25.79
736.619	25.35
736.802	25.12
736.984	25.27
737.166	25.79
737.348	26.02
737.53	26.04
737.712	26.29
737.894	26.1
738.076	26.57
738.258	26.82
738.44	27.06
738.622	27.46
738.804	27.48
738.986	27.23
739.168	26.96
739.35	26.67
739.532	26.53
739.714	26.44
739.896	26.18
740.078	26.6
740.259	26.67
740.441	26.41
740.623	26.1
740.805	26.17
740.987	26.21
741.168	26.58
741.35	26.72
741.532	27.7
741.714	27.57
741.895	27.68
742.077	27.87
742.259	27.47
742.44	27.86
742.622	28.7
742.804	28.02
742.985	28.09
743.167	28.47
743.348	28.27
743.53	28.02
743.711	27.79
743.893	27.7
744.075	27.73
744.256	27.65
744.438	28
744.619	27.13
744.8	27.64
744.982	27.64
745.163	27.06
745.345	27.34
745.526	27.21
745.707	27.96
745.889	28.74
746.07	28.5
746.252	29.04
746.433	28.62
746.614	28.77
746.795	28.74
746.977	28.89
747.158	28.61
747.339	28.89
747.52	29
747.702	28.79
747.883	27.79
748.064	27.3
748.245	27.39
748.426	27.23
748.607	26.99
748.788	27.26
748.97	27.28
749.151	27.2
749.332	27.22
749.513	27.25
749.694	27.42
749.875	28.16
750.056	28.71
750.237	28.41
750.418	28.58
750.599	28.5
750.78	27.56
750.96	27.45
751.141	27.46
751.322	27.39
751.503	27.11
751.684	26.94
751.865	26.81
752.046	27.12
752.226	27.18
752.407	27.21
752.588	27.6
752.769	28.48
752.949	28.14
753.13	28.15
753.311	28.49
753.492	28.41
753.672	28.63
753.853	28.39
754.034	28.23
754.214	28.08
754.395	27.55
754.575	27.44
754.756	26.89
754.937	27.07
755.117	27.64
755.298	27.35
755.478	27.12
755.659	26.64
755.839	26.24
756.02	25.92
756.2	26.14
756.381	26.68
756.561	28.16
756.741	29.23
756.922	29.09
757.102	28.88
757.283	28.32
757.463	29.46
757.643	29.97
757.823	29.97
758.004	30.71
758.184	30.4
758.364	30.78
758.545	29.83
758.725	29.11
758.905	29.21
759.085	29.04
759.265	29.4
759.446	28.72
759.626	28.36
759.806	28.27
759.986	27.28
760.166	27.4
760.346	27.02
760.526	27.08
760.706	27.04
760.886	27.07
761.066	27.3
761.246	27.83
761.426	27.9
761.606	27.6
761.786	27.73
761.966	27.78
762.146	27.74
762.326	27.51
762.506	27.72
762.686	27.83
762.866	27.96
763.046	27.67
763.225	27.27
763.405	27.34
763.585	27.49
763.765	27.46
763.945	27.25
764.124	27.68
764.304	27.93
764.484	27.69
764.664	28.03
764.843	28.35
765.023	28.73
765.203	28.8
765.382	28.51
765.562	28.41
765.741	28.51
765.921	28.93
766.101	28.52
766.28	28.51
766.46	28.2
766.639	27.23
766.819	26.7
766.998	26.73
767.178	26.9
767.357	27.31
767.537	27.74
767.716	27.99
767.896	27.97
768.075	28.08
768.254	28.19
768.434	28.94
768.613	29.76
768.792	29.58
768.972	30.25
769.151	30.04
769.33	30.05
769.51	30.29
769.689	29.89
769.868	30.02
770.047	30.36
770.226	30.43
770.406	30.67
770.585	30.57
770.764	31.16
770.943	30.28
771.122	30.36
771.301	30.82
771.48	30.32
771.66	30.81
771.839	30.54
772.018	30.7
772.197	30.59
772.376	29.55
772.555	29.94
772.734	29.3
772.913	29.1
773.092	28.98
773.271	27.74
773.449	27.69
773.628	27.97
773.807	29.39
773.986	28.43
774.165	28.49
774.344	29.17
774.523	28.54
774.701	29.43
774.88	29.08
775.059	28.16
775.238	28.75
775.417	28.5
775.595	28.23
775.774	27.02
775.953	27.73
776.131	27.58
776.31	27.5
776.489	28.2
776.667	28.25
776.846	28.65
777.025	29.25
777.203	29.36
777.382	30.6
777.56	29.96
777.739	30.1
777.917	29.43
778.096	29.44
778.274	29.13
778.453	28.79
778.631	27.99
778.81	28.35
778.988	28.73
779.166	27.98
779.345	28.59
779.523	28.72
779.702	29.02
779.88	30
780.058	29.17
780.237	28.87
780.415	27.91
780.593	28.19
780.771	28.39
780.95	28.55
781.128	29.75
781.306	27.75
781.484	27.64
781.662	27.52
781.841	27.71
782.019	29.06
782.197	29.57
782.375	31.1
782.553	31.59
782.731	30.74
782.909	30.75
783.087	30.31
783.265	31.23
783.443	31.65
783.621	31.51
783.799	30.91
783.977	30.28
784.155	29.82
784.333	28.85
784.511	28.29
784.689	28.48
784.867	27.9
785.045	27.35
785.223	27.19
785.4	27.09
785.578	27.04
785.756	27.27
785.934	27.61
786.112	27.69
786.289	29.3
786.467	28.87
786.645	29.51
786.823	30.25
787	30.6
787.178	30.44
787.356	30.24
787.533	29.55
787.711	29.32
787.889	29.67
788.066	29.76
788.244	28.66
788.421	28.71
788.599	28.29
788.776	28.06
788.954	27.79
789.131	27.92
789.309	28.5
789.486	30.6
789.664	30.62
789.841	29.79
790.019	29.53
790.196	29.54
790.373	29.74
790.551	29.71
790.728	29.53
790.906	29.82
791.083	29.85
791.26	30.56
791.437	29.14
791.615	29.16
791.792	29.27
791.969	29.42
792.146	29.83
792.324	30.32
792.501	31.42
792.678	31.72
792.855	31.75
793.032	31.26
793.209	30.91
793.387	30.27
793.564	30.67
793.741	30.46
793.918	31.09
794.095	30.57
794.272	29.73
794.449	28.19
794.626	27.71
794.803	27.51
794.98	27.52
795.157	26.18
795.334	26.66
795.511	26.08
795.688	26.73
795.864	25.65
796.041	26.05
796.218	26.93
796.395	27.41
796.572	27.87
796.749	28.61
796.925	29.29
797.102	30.45
797.279	30.88
797.456	29.98
797.632	30.67
797.809	30.74
797.986	31.06
798.162	30.55
798.339	30.2
798.516	30.23
798.692	29.92
798.869	29.63
799.046	29.95
799.222	30.03
799.399	30.78
799.575	29.11
799.752	30.04
799.928	28.91
800.105	29.18
800.281	28.55
800.458	28.83
800.634	29
800.811	28.41
800.987	27.78
801.163	27.51
801.34	27.97
801.516	28.98
801.692	28.37
801.869	29.7
802.045	29.23
802.221	29.8
802.398	29.66
802.574	28.99
802.75	30.25
802.926	30.3
803.103	29.91
803.279	29.22
803.455	29.78
803.631	30.17
803.807	29.56
803.983	31.26
804.16	31.72
804.336	30.92
804.512	30.8
804.688	30.35
804.864	30.55
805.04	30.86
805.216	31.76
805.392	30.72
805.568	31.56
805.744	31.71
805.92	29.91
806.096	29.79
806.272	30.35
806.448	31.76
806.623	32.47
806.799	31.43
806.975	31.45
807.151	30.85
807.327	31.39
807.503	30.78
807.678	29.67
807.854	30.6
808.03	31.54
808.206	30.66
808.381	29.28
808.557	28.45
808.733	28.88
808.908	29.26
809.084	29.72
809.26	29.13
809.435	29.04
809.611	30.4
809.787	29.47
809.962	28.53
810.138	30.11
810.313	30.55
810.489	30.48
810.664	31.25
810.84	30.09
811.015	29.35
811.191	29.15
811.366	28.3
811.542	26.86
811.717	26.92
811.892	27.16
812.068	26.29
812.243	25.94
812.419	26.12
812.594	25.35
812.769	25.89
812.944	26.52
813.12	26.99
813.295	27.09
813.47	27.99
813.645	27.79
813.821	29.03
813.996	28.46
814.171	28.55
814.346	28.31
814.521	30.01
814.697	29.74
814.872	29.23
815.047	29.4
815.222	30.9
815.397	30.59
815.572	32.38
815.747	32.05
815.922	33.39
816.097	32.39
816.272	32.03
816.447	29.87
816.622	29.04
816.797	28.98
816.972	29.07
817.147	27.3
817.322	27.45
817.496	26.46
817.671	24.61
817.846	24.84
818.021	26.67
818.196	27.26
818.371	26.61
818.545	27.94
818.72	29.43
818.895	29.8
819.069	30.9
819.244	30.37
819.419	30.61
819.594	31.38
819.768	30.66
819.943	30.19
820.117	29.41
820.292	29.93
820.467	29.46
820.641	28.89
820.816	28.44
820.99	28.19
821.165	28.52
821.339	28.23
821.514	27.92
821.688	27.95
821.863	28
822.037	28.23
822.212	28.33
822.386	28.39
822.56	28.33
822.735	28.57
822.909	28.53
823.084	28.49
823.258	28.51
823.432	28.44
823.606	28.48
823.781	28.44
823.955	28.59
824.129	28.69
824.303	28.94
824.478	29.19
824.652	28.77
824.826	28.72
825	29.09
825.174	29.14
825.348	29.7
825.523	29.58
825.697	28.91
825.871	29.16
826.045	29.06
826.219	28.84
826.393	28.57
826.567	28.48
826.741	28.74
826.915	28.72
827.089	29.08
827.263	29.25
827.437	29.29
827.611	29.67
827.784	28.97
827.958	28.79
828.132	28.63
828.306	28.6
828.48	29.45
828.654	29.73
828.827	28.79
829.001	28.07
829.175	28.32
829.349	28.81
829.522	29.68
829.696	29.61
829.87	30.24
830.044	30.82
830.217	31.36
830.391	30.58
830.565	29.71
830.738	31.22
830.912	32.32
831.085	30.98
831.259	29.74
831.432	28.91
831.606	29.51
831.779	28.52
831.953	28.53
832.126	28.64
832.3	28.68
832.473	29.04
832.647	27.69
832.82	28.36
832.994	28.73
833.167	29.18
833.34	29.33
833.514	29.43
833.687	29.34
833.86	29.74
834.034	29.26
834.207	30.03
834.38	30.57
834.553	31.4
834.727	31.2
834.9	31.16
835.073	31.49
835.246	31.59
835.419	31.84
835.593	32.01
835.766	30.85
835.939	30.67
836.112	30.2
836.285	29.03
836.458	29.64
836.631	28.79
836.804	29.29
836.977	29.55
837.15	29.76
837.323	28.98
837.496	29.05
837.669	30.06
837.842	30.9
838.015	30.58
838.188	32.88
838.361	32.43
838.533	33.41
838.706	33.59
838.879	33.7
839.052	34.12
839.225	33.58
839.398	33.73
839.57	34.67
839.743	35.5
839.916	35.39
840.088	33.97
840.261	32.63
840.434	31.38
840.607	31.54
840.779	29.29
840.952	28.72
841.124	30.36
841.297	31.02
841.47	30.63
841.642	28.97
841.815	28.72
841.987	29.83
842.16	32.43
842.332	33.95
842.505	34.29
842.677	36.05
842.85	35.26
843.022	37.06
843.194	37.61
843.367	38.1
843.539	37.57
843.712	38.98
843.884	37.68
844.056	34.89
844.229	34.58
844.401	33.04
844.573	35.36
844.745	37.49
844.918	36.01
845.09	36.84
845.262	34.74
845.434	38.07
845.606	38.25
845.779	38.5
845.951	36.06
846.123	35.96
846.295	36.66
846.467	33.87
846.639	32.64
846.811	31.73
846.983	30.25
847.155	30.62
847.327	30.69
847.499	28.81
847.671	27.05
847.843	29.13
848.015	28.02
848.187	27.78
848.359	29.94
848.531	27.8
848.703	27.71
848.875	27.12
849.047	26.28
849.218	24.43
849.39	26.77
849.562	26.36
849.734	29.28
849.905	31.25
850.077	30.3
850.249	30.04
850.421	29.03
850.592	27.21
850.764	30.74
850.936	37.62
851.107	36.36
851.279	32.5
851.451	37
851.622	35.76
851.794	37.71
851.965	37.99
852.137	35.03
852.308	40.35
852.48	43.39
852.651	39.32
852.823	36.45
852.994	37.78
853.166	39.64
853.337	39.58
853.509	39.68
853.68	36.27
853.851	37.3
854.023	34.47
854.194	36.73
854.365	34.65
854.537	34.64
854.708	33.96
854.879	35.04
855.05	34.06
855.222	31.42
855.393	33.19
855.564	33.32
855.735	32.87
855.906	33.31
856.078	28.64
856.249	29.83
856.42	29.3
856.591	35.43
856.762	34.25
856.933	37.35
857.104	38.86
857.275	37.05
857.446	35.01
857.617	38.52
857.788	46.14
857.959	48.75
858.13	48.8
858.301	49.58
858.472	42.18
858.643	39.53
858.814	39.3
858.985	39.67
859.155	40.31
859.326	43.89
859.497	42.48
859.668	46.08
859.839	46.23
860.009	45.06
860.18	45.83
860.351	45.9
860.522	50.79
860.692	51.12
860.863	50.35
861.034	51.22
861.204	49.77
861.375	49.29
861.546	42.15
861.716	40.99
861.887	38.91
862.057	32.68
862.228	36.3
862.398	31.5
862.569	26.7
862.739	27.05
862.91	29.15
863.08	29.65
863.251	35.17
863.421	33.43
863.592	36.61
863.762	46.6
863.932	53.58
864.103	49.95
864.273	53.86
864.443	54.2
864.614	52.56
864.784	48.11
864.954	48.5
865.125	43.06
865.295	44.75
865.465	41.9
865.635	39.65
865.805	39.75
865.976	38.53
866.146	33.93
866.316	34.54
866.486	38.27
866.656	40.55
866.826	41.7
866.996	43.63
867.166	47.48
867.336	49.21
867.506	47.18
867.676	48.02
867.846	47.94
868.016	50.27
868.186	49.76
868.356	51.48
868.526	46.47
868.696	46.5
868.866	44.93
869.036	42.72
869.206	41.98
869.376	42
869.545	36.63
869.715	33.72
869.885	38.4
870.055	39.1
870.224	35.14
870.394	36.29
870.564	34.66
870.734	36.41
870.903	36.97
871.073	40.81
871.243	40.77
871.412	43.27
871.582	48.92
871.751	45.11
871.921	46.16
872.091	50
872.26	49.47
872.43	50.57
872.599	51.63
872.769	49.14
872.938	46.09
873.108	47.2
873.277	50.99
873.446	46.7
873.616	49.95
873.785	51.28
873.955	50.82
874.124	52.67
874.293	48.52
874.463	46.63
874.632	47.44
874.801	46.91
874.971	45.3
875.14	44.5
875.309	47.87
875.478	43.87
875.647	40.75
875.817	34.48
875.986	34.21
876.155	43.42
876.324	45.73
876.493	45.44
876.662	45.06
876.831	43.82
877	40.79
877.17	40.43
877.339	42.37
877.508	43.09
877.677	45.22
877.846	43.56
878.015	31.13
878.184	24.11
878.352	24.54
878.521	25.23
878.69	20.81
878.859	21.66
879.028	19.81
879.197	20.72
879.366	21.7
879.534	23.08
879.703	26.18
879.872	31.91
880.041	35.71
880.21	33.67
880.378	33.25
880.547	34.6
880.716	34.06
880.884	34.49
881.053	34.19
881.222	34.95
881.39	35.39
881.559	34.44
881.727	34.26
881.896	33.06
882.065	34.15
882.233	34.37
882.402	33.72
882.57	33.6
882.739	33.3
882.907	33.06
883.076	32.31
883.244	31.97
883.412	32.7
883.581	31.89
883.749	32.77
883.918	32.01
884.086	31.97
884.254	32.76
884.423	32.07
884.591	33.02
884.759	33.85
884.927	33.6
885.096	33.6
885.264	34.17
885.432	35.18
885.6	34.26
885.769	34.07
885.937	33.28
886.105	34.12
886.273	35.88
886.441	35.16
886.609	34.57
886.777	35.17
886.945	34.75
887.113	32.78
887.281	32.77
887.449	35.42
887.617	35.14
887.785	35.44
887.953	34.06
888.121	39.29
888.289	38.85
888.457	39.33
888.625	40.77
888.793	42.35
888.961	42.47
889.129	46.67
889.296	46.38
889.464	50.92
889.632	54.01
889.8	56.34
889.967	49.74
890.135	50.66
