Data from 2938506_Reflection_2.txt Node
Date: Tue Jun 16 23:02:56 EDT 2015
User: robert
Spectrometer: USB4E03002
Autoset integration time: false
Trigger mode: 4
Integration Time (sec): 1.000000E-1
Scans to average: 10
Electric dark correction enabled: true
Nonlinearity correction enabled: false
Boxcar width: 5
Stray light correction enabled: false
XAxis mode: Wavelengths
Stop averaging: false
Number of Pixels in Spectrum: 3648
>>>>>Begin Spectral Data<<<<<
177.575	111
177.794	101.95
178.014	51.44
178.233	63.72
178.452	53.85
178.672	98.49
178.891	68.69
179.11	-3587.5
179.33	921.88
179.549	70.73
179.768	59.78
179.987	449.32
180.207	-10.61
180.426	10.87
180.645	46.02
180.864	55.19
181.084	57.69
181.303	39.35
181.522	17.03
181.741	19.89
181.96	43.3
182.179	36.42
182.398	46.88
182.618	78.01
182.837	88.17
183.056	79.02
183.275	70.89
183.494	84.85
183.713	83.69
183.932	95.65
184.151	86.83
184.37	72.72
184.589	90.69
184.808	97.67
185.027	72.89
185.246	76.78
185.465	76.11
185.684	71.11
185.903	67.96
186.122	70.98
186.341	74.04
186.56	96.13
186.779	295.47
186.998	107.19
187.216	77.64
187.435	79.78
187.654	79.9
187.873	62.64
188.092	83.45
188.311	53.65
188.53	65.59
188.748	63.41
188.967	53.4
189.186	53.34
189.405	46.33
189.623	58.74
189.842	64.36
190.061	48.54
190.28	29.74
190.498	32.76
190.717	43.74
190.936	44.86
191.154	48.62
191.373	65.97
191.592	63.82
191.81	80.97
192.029	62.92
192.248	55.65
192.466	55.05
192.685	74.55
192.904	73.49
193.122	64.67
193.341	67.64
193.559	75.94
193.778	51.64
193.996	63.78
194.215	49.01
194.433	61.65
194.652	83.27
194.87	86.62
195.089	88.25
195.307	92.07
195.526	110.62
195.744	84.4
195.963	90.34
196.181	111.88
196.399	90.24
196.618	98.5
196.836	93.92
197.055	57.74
197.273	76.44
197.491	66.42
197.71	79.56
197.928	61.25
198.146	88.6
198.365	81.05
198.583	88.51
198.801	89.52
199.019	78.87
199.238	84.04
199.456	88.36
199.674	85.34
199.892	86.65
200.111	78.94
200.329	83.35
200.547	85.55
200.765	80.49
200.983	67.22
201.202	74.22
201.42	113.5
201.638	104.59
201.856	108.37
202.074	77.88
202.292	76.11
202.51	53.2
202.728	60.6
202.946	33.51
203.165	50.95
203.383	65.69
203.601	50.65
203.819	28.37
204.037	9.54
204.255	20.55
204.473	41.38
204.691	33.14
204.909	59.24
205.127	50.86
205.345	57.56
205.562	60.8
205.78	47.11
205.998	44.75
206.216	31.86
206.434	34.5
206.652	40.79
206.87	46.94
207.088	69.9
207.306	74.2
207.523	97.74
207.741	102.98
207.959	92.06
208.177	107.46
208.395	105.52
208.612	102.55
208.83	100.12
209.048	104.37
209.266	87.51
209.483	75.52
209.701	57.97
209.919	37.53
210.136	26.14
210.354	15.25
210.572	5.89
210.79	-1.89
211.007	15.35
211.225	11.39
211.442	12.38
211.66	9.64
211.878	8.77
212.095	-66.7
212.313	-58.56
212.53	-44.62
212.748	-60.91
212.966	-60.05
213.183	-36.6
213.401	-58.75
213.618	-57.4
213.836	-49.67
214.053	-33.68
214.271	-34.5
214.488	63.06
214.705	46.1
214.923	44.36
215.14	23.17
215.358	28.91
215.575	58.26
215.793	47.63
216.01	47.8
216.227	35.24
216.445	25.1
216.662	27.86
216.879	34.48
217.097	33.01
217.314	29.14
217.531	30.72
217.749	22.41
217.966	13.53
218.183	13.78
218.4	10.37
218.618	7.65
218.835	14.26
219.052	8.5
219.269	-9.96
219.487	5.96
219.704	-3.83
219.921	9.3
220.138	7.9
220.355	-0.41
220.572	4.07
220.79	24.86
221.007	23.68
221.224	22.87
221.441	26.04
221.658	32.39
221.875	21.39
222.092	27.65
222.309	28.3
222.526	33.18
222.743	34.26
222.96	31.86
223.177	27.06
223.394	26.58
223.611	25.45
223.828	22.34
224.045	16.4
224.262	19.44
224.479	19.96
224.696	17.1
224.913	15.31
225.13	14.81
225.347	13.25
225.564	11.66
225.781	13.61
225.997	15.63
226.214	15.04
226.431	16.03
226.648	15.7
226.865	15.44
227.082	14.67
227.298	14.03
227.515	13.16
227.732	12.59
227.949	12.26
228.165	10.37
228.382	9.68
228.599	9.45
228.816	9.8
229.032	9.94
229.249	10.48
229.466	10.53
229.682	9.95
229.899	10.56
230.116	10.78
230.332	11.26
230.549	14.94
230.765	13.51
230.982	15.05
231.199	13.82
231.415	13.33
231.632	10.7
231.848	11.35
232.065	13.22
232.281	14.43
232.498	15.21
232.714	14.65
232.931	11.46
233.147	12.47
233.364	11.38
233.58	12.48
233.797	10.48
234.013	10.91
234.23	10.5
234.446	9.11
234.662	6.33
234.879	6.71
235.095	7.07
235.312	6.69
235.528	7.13
235.744	6.45
235.961	6.15
236.177	6.77
236.393	7.53
236.61	9.23
236.826	8.49
237.042	7.92
237.258	7.39
237.475	5.57
237.691	5.99
237.907	5.98
238.123	7.18
238.339	8.01
238.556	8.16
238.772	8.81
238.988	7.26
239.204	8.21
239.42	9.61
239.636	8.61
239.853	9.03
240.069	10.23
240.285	10.02
240.501	9.59
240.717	8.86
240.933	8.55
241.149	8.61
241.365	9.43
241.581	8.53
241.797	8.9
242.013	8.98
242.229	9.59
242.445	8.76
242.661	8.98
242.877	9.1
243.093	9.69
243.309	10.08
243.525	10.08
243.741	9.39
243.957	10.22
244.173	9.21
244.388	10.01
244.604	9.45
244.82	9.61
245.036	9.24
245.252	8.86
245.468	8.67
245.683	8.43
245.899	8.46
246.115	8.65
246.331	8.5
246.547	8.68
246.762	8.56
246.978	8.59
247.194	8.44
247.409	9.05
247.625	9.31
247.841	9.15
248.057	9.68
248.272	9.07
248.488	9.27
248.703	9.4
248.919	9.04
249.135	8.54
249.35	8.14
249.566	8.67
249.782	7.51
249.997	7.81
250.213	7.86
250.428	7.9
250.644	8.5
250.859	7.9
251.075	7.82
251.29	8.13
251.506	7.57
251.721	7.65
251.937	6.73
252.152	7.12
252.368	7.01
252.583	6.83
252.798	6.49
253.014	6.22
253.229	5.97
253.445	7.44
253.66	7.27
253.875	7.63
254.091	8.44
254.306	9.57
254.521	9.7
254.737	9.75
254.952	9.64
255.167	9.12
255.383	7.89
255.598	8.21
255.813	6.51
256.028	6.49
256.244	7.04
256.459	6.5
256.674	5.94
256.889	5.72
257.104	5.91
257.32	6.08
257.535	6.06
257.75	6.53
257.965	6.42
258.18	6.73
258.395	6.62
258.61	6.76
258.826	6.87
259.041	6.87
259.256	6.86
259.471	6.68
259.686	6.63
259.901	6.85
260.116	6.72
260.331	6.9
260.546	6.82
260.761	6.51
260.976	6.14
261.191	6.53
261.406	6.42
261.621	6.24
261.836	6.28
262.05	7.4
262.265	7.64
262.48	7.95
262.695	8.43
262.91	8.92
263.125	9.29
263.34	9.34
263.555	8.91
263.769	8.67
263.984	8.86
264.199	8.86
264.414	7.3
264.629	6.61
264.843	6.08
265.058	5.28
265.273	4.9
265.488	5.71
265.702	5.8
265.917	5.52
266.132	5.51
266.346	5.53
266.561	5.66
266.776	5.9
266.99	6.18
267.205	5.93
267.42	5.89
267.634	5.68
267.849	5.15
268.063	5.03
268.278	4.88
268.492	5.28
268.707	5.46
268.922	5.2
269.136	5.17
269.351	5.39
269.565	6.09
269.78	6.02
269.994	6.19
270.209	6.18
270.423	5.86
270.637	6.06
270.852	5.86
271.066	5.98
271.281	5.89
271.495	5.79
271.709	5.54
271.924	5.56
272.138	5.92
272.353	5.78
272.567	5.66
272.781	5.74
272.996	5.64
273.21	5.73
273.424	5.02
273.638	5.11
273.853	5.46
274.067	5.34
274.281	5.08
274.495	5.53
274.71	5.4
274.924	5.35
275.138	5.9
275.352	6.18
275.566	5.91
275.781	5.83
275.995	6.04
276.209	6.15
276.423	6.32
276.637	7.26
276.851	6.09
277.065	6.26
277.279	6.86
277.493	6.88
277.707	6.56
277.921	6.33
278.135	7.06
278.349	6.95
278.563	6.71
278.777	6.34
278.991	5.72
279.205	6.69
279.419	6.58
279.633	6.26
279.847	5.99
280.061	5.94
280.275	6.45
280.489	6.62
280.703	6.66
280.917	6.84
281.131	7.02
281.344	6.42
281.558	6.02
281.772	5.54
281.986	5.25
282.2	4.92
282.414	5.09
282.627	4.78
282.841	4.6
283.055	4.39
283.269	4.48
283.482	4.81
283.696	4.95
283.91	4.89
284.123	5.58
284.337	5.4
284.551	5.34
284.764	5.68
284.978	5.93
285.192	5.71
285.405	5.83
285.619	5.79
285.833	5.33
286.046	5.34
286.26	5.49
286.473	5.09
286.687	5.52
286.9	6.04
287.114	5.41
287.327	5.41
287.541	5
287.754	4.79
287.968	4.64
288.181	4.8
288.395	4.88
288.608	4.9
288.822	4.91
289.035	4.94
289.248	4.46
289.462	4.68
289.675	4.41
289.889	4.76
290.102	4.66
290.315	4.32
290.529	4.35
290.742	3.89
290.955	3.55
291.169	3.8
291.382	3.9
291.595	4.48
291.808	4.59
292.022	4.81
292.235	4.86
292.448	5.04
292.661	5.66
292.875	6.18
293.088	6.77
293.301	6.76
293.514	6.5
293.727	6.28
293.94	5.92
294.153	5.88
294.367	6.2
294.58	5.98
294.793	5.91
295.006	5.76
295.219	5.54
295.432	5.28
295.645	5.33
295.858	5.4
296.071	5.61
296.284	5.89
296.497	5.96
296.71	5.69
296.923	5.9
297.136	5.88
297.349	6.04
297.562	5.96
297.775	6.23
297.988	6.35
298.201	6.62
298.414	6.88
298.626	6.45
298.839	6.22
299.052	6.43
299.265	6.34
299.478	6.67
299.691	6.62
299.903	6.55
300.116	6.63
300.329	6.53
300.542	6.35
300.755	6.39
300.967	6.75
301.18	6.98
301.393	6.75
301.605	6.55
301.818	6.92
302.031	6.65
302.243	6.74
302.456	7.09
302.669	7.24
302.881	6.88
303.094	6.3
303.307	6.18
303.519	6.48
303.732	6.33
303.944	6.62
304.157	6.3
304.37	6.49
304.582	6.15
304.795	5.85
305.007	5.71
305.22	5.74
305.432	6.03
305.645	6.04
305.857	5.76
306.069	6.46
306.282	6.31
306.494	6.03
306.707	5.83
306.919	6.22
307.132	6.08
307.344	6.39
307.556	6.59
307.769	6.45
307.981	6.71
308.193	6.68
308.406	6.33
308.618	6.7
308.83	6.65
309.043	6.77
309.255	6.78
309.467	6.75
309.679	6.83
309.892	6.99
310.104	7.16
310.316	7.01
310.528	7.05
310.74	7.19
310.953	7.03
311.165	7.23
311.377	7.53
311.589	7.85
311.801	7.85
312.013	7.49
312.225	7.19
312.437	6.78
312.649	6.75
312.862	6.76
313.074	6.48
313.286	6.33
313.498	6.2
313.71	5.91
313.922	5.64
314.134	5.5
314.346	5.24
314.558	5.7
314.77	6.45
314.982	6.54
315.193	6.63
315.405	6.88
315.617	6.71
315.829	7.06
316.041	7.36
316.253	7.28
316.465	7.62
316.677	8.16
316.888	7.95
317.1	7.53
317.312	7.89
317.524	7.44
317.736	7.45
317.947	8.06
318.159	8.15
318.371	7.56
318.583	7.9
318.794	7.53
319.006	7.61
319.218	7.81
319.43	8.11
319.641	8.21
319.853	8.87
320.064	8.54
320.276	8.33
320.488	7.88
320.699	8.31
320.911	7.81
321.123	8.46
321.334	8.76
321.546	8.96
321.757	8.48
321.969	7.79
322.18	7.26
322.392	7.42
322.603	7.58
322.815	7.95
323.026	7.91
323.238	8.11
323.449	7.47
323.661	7.11
323.872	7.02
324.083	6.78
324.295	6.74
324.506	7.59
324.718	7.91
324.929	7.57
325.14	7.48
325.352	7.6
325.563	7.4
325.774	8.16
325.986	8.28
326.197	8
326.408	8.4
326.62	8.96
326.831	8.58
327.042	8.15
327.253	8.32
327.464	8.03
327.676	7.75
327.887	8.08
328.098	7.81
328.309	7.54
328.52	8.25
328.732	8.94
328.943	8.63
329.154	8.87
329.365	9.22
329.576	9.33
329.787	9.78
329.998	10.13
330.209	10.1
330.42	10.13
330.631	10.2
330.842	9.55
331.053	8.7
331.264	8.67
331.475	8.37
331.686	8.19
331.897	8.46
332.108	8.14
332.319	7.84
332.53	7.62
332.741	7.67
332.952	7.5
333.163	7.87
333.374	8.38
333.585	8.64
333.795	8.11
334.006	8.36
334.217	8.2
334.428	8.35
334.639	8.51
334.849	8.53
335.06	8.75
335.271	9.05
335.482	8.7
335.692	8.5
335.903	8.56
336.114	8.78
336.325	8.78
336.535	8.88
336.746	8.65
336.957	8.66
337.167	8.47
337.378	8.03
337.589	7.89
337.799	8.52
338.01	8.5
338.22	8.56
338.431	8.76
338.642	8.53
338.852	8.34
339.063	8.74
339.273	9.14
339.484	9.7
339.694	9.56
339.905	9.6
340.115	9.15
340.326	9.28
340.536	9.02
340.746	8.94
340.957	9.05
341.167	9.23
341.378	8.98
341.588	8.53
341.799	8.35
342.009	8.33
342.219	8.14
342.43	8.24
342.64	7.78
342.85	7.75
343.061	8.07
343.271	7.89
343.481	7.65
343.691	8.03
343.902	8.34
344.112	8.52
344.322	8.52
344.532	8.72
344.743	8.56
344.953	8.73
345.163	8.84
345.373	8.31
345.583	8.54
345.793	8.87
346.004	8.6
346.214	8.28
346.424	8
346.634	8.45
346.844	8.29
347.054	8.29
347.264	8.51
347.474	8.71
347.684	8.61
347.894	8.54
348.104	8.32
348.314	8.43
348.524	8.38
348.734	8.37
348.944	7.75
349.154	8.05
349.364	8.18
349.574	7.91
349.784	7.74
349.994	7.85
350.204	7.91
350.413	8
350.623	7.8
350.833	7.67
351.043	7.37
351.253	7.75
351.463	7.33
351.672	7.45
351.882	7.21
352.092	7.36
352.302	7.6
352.511	7.67
352.721	7.71
352.931	7.72
353.141	8
353.35	8.12
353.56	8.17
353.77	8.01
353.979	7.8
354.189	8.1
354.399	8.15
354.608	8.21
354.818	7.78
355.027	7.54
355.237	7.61
355.447	7.6
355.656	7.56
355.866	7.62
356.075	7.85
356.285	7.85
356.494	7.86
356.704	7.56
356.913	7.58
357.123	7.85
357.332	7.6
357.542	7.6
357.751	7.48
357.96	7.69
358.17	7.2
358.379	6.99
358.589	7.18
358.798	7
359.007	6.68
359.217	6.78
359.426	6.63
359.635	6.72
359.845	6.85
360.054	6.87
360.263	6.69
360.472	6.74
360.682	6.89
360.891	6.77
361.1	6.87
361.309	7.11
361.519	6.96
361.728	6.93
361.937	7.3
362.146	7.07
362.355	7.27
362.564	7.32
362.774	7.42
362.983	7.26
363.192	7.08
363.401	7.2
363.61	7.07
363.819	7.29
364.028	7.16
364.237	6.83
364.446	6.77
364.655	6.45
364.864	6.73
365.073	7
365.282	7.09
365.491	7.17
365.7	7.2
365.909	7.36
366.118	6.84
366.327	7.09
366.536	7.16
366.745	7.29
366.954	7.48
367.162	7.26
367.371	7.24
367.58	7.42
367.789	7.46
367.998	7.21
368.207	7.22
368.415	7.37
368.624	7.44
368.833	7.44
369.042	7.62
369.25	7.49
369.459	7.35
369.668	7.17
369.877	6.98
370.085	6.73
370.294	6.85
370.503	7.16
370.711	6.86
370.92	6.66
371.129	6.53
371.337	6.1
371.546	5.97
371.754	6.03
371.963	6.16
372.171	6.24
372.38	6.41
372.589	6.1
372.797	5.78
373.006	5.97
373.214	6.3
373.423	6.24
373.631	6.39
373.84	6.41
374.048	6.47
374.256	6.39
374.465	6.42
374.673	6.27
374.882	6.44
375.09	6.29
375.298	6.33
375.507	5.95
375.715	6
375.923	6.03
376.132	5.87
376.34	5.61
376.548	5.5
376.757	5.54
376.965	5.59
377.173	5.53
377.381	5.38
377.59	5.26
377.798	5.35
378.006	5.3
378.214	5.3
378.423	5.5
378.631	5.52
378.839	5.64
379.047	5.61
379.255	5.63
379.463	5.85
379.671	6.04
379.879	6.16
380.088	6.18
380.296	6.05
380.504	6.03
380.712	6.11
380.92	6.31
381.128	6.29
381.336	6.34
381.544	6.49
381.752	6.27
381.96	6.25
382.168	6.17
382.376	6.35
382.584	6.49
382.791	6.28
382.999	6.02
383.207	6.08
383.415	5.99
383.623	5.6
383.831	5.4
384.039	5.59
384.247	5.72
384.454	5.75
384.662	5.48
384.87	5.58
385.078	5.56
385.285	5.51
385.493	5.44
385.701	5.22
385.909	5.63
386.116	5.51
386.324	5.37
386.532	5.21
386.739	5.21
386.947	5.26
387.155	5.17
387.362	5.33
387.57	5.59
387.778	5.32
387.985	5.53
388.193	5.35
388.4	5.52
388.608	5.46
388.816	5.51
389.023	5.4
389.231	5.6
389.438	5.58
389.646	5.56
389.853	5.39
390.061	5.33
390.268	5.2
390.475	5.29
390.683	5.27
390.89	5.17
391.098	5.03
391.305	4.93
391.512	4.83
391.72	4.6
391.927	4.6
392.135	4.65
392.342	4.85
392.549	5.03
392.756	5
392.964	4.94
393.171	5.1
393.378	5.02
393.586	5.19
393.793	5.11
394	5.2
394.207	5.24
394.414	5.08
394.622	4.95
394.829	4.84
395.036	4.64
395.243	4.4
395.45	4.33
395.657	4.48
395.864	4.54
396.072	4.54
396.279	4.6
396.486	4.46
396.693	4.63
396.9	4.63
397.107	4.55
397.314	4.63
397.521	4.89
397.728	4.8
397.935	4.84
398.142	4.66
398.349	4.58
398.556	4.6
398.763	4.5
398.97	4.33
399.177	4.41
399.383	4.5
399.59	4.56
399.797	4.63
400.004	4.59
400.211	4.65
400.418	4.58
400.625	4.3
400.831	4.2
401.038	4.14
401.245	4.1
401.452	4.04
401.658	3.86
401.865	3.65
402.072	3.44
402.279	3.27
402.485	3.21
402.692	3.34
402.899	3.6
403.105	3.61
403.312	3.73
403.519	3.85
403.725	3.83
403.932	3.85
404.138	3.8
404.345	3.71
404.552	3.84
404.758	3.85
404.965	3.91
405.171	3.71
405.378	3.94
405.584	3.89
405.791	3.68
405.997	3.76
406.204	3.75
406.41	3.93
406.617	4.12
406.823	4.13
407.029	4.06
407.236	3.87
407.442	4.03
407.649	3.87
407.855	4.06
408.061	4.21
408.268	4.11
408.474	4.11
408.68	3.93
408.887	3.92
409.093	4.01
409.299	3.92
409.505	4.02
409.712	4.08
409.918	4.1
410.124	3.84
410.33	3.94
410.537	3.74
410.743	3.82
410.949	4.03
411.155	4.08
411.361	3.99
411.567	4.27
411.773	4.38
411.98	4.32
412.186	4.22
412.392	4.26
412.598	4.02
412.804	4.22
413.01	4.32
413.216	4.19
413.422	4.16
413.628	4.05
413.834	3.85
414.04	3.73
414.246	3.78
414.452	3.82
414.658	4
414.864	4.09
415.07	4.01
415.275	3.78
415.481	3.8
415.687	3.69
415.893	3.72
416.099	3.77
416.305	3.6
416.511	3.54
416.716	3.46
416.922	3.39
417.128	3.41
417.334	3.46
417.539	3.52
417.745	3.6
417.951	3.62
418.157	3.58
418.362	3.46
418.568	3.5
418.774	3.41
418.979	3.32
419.185	3.3
419.391	3.29
419.596	3.25
419.802	3.15
420.008	3.06
420.213	3.7
420.419	3.69
420.624	3.71
420.83	3.65
421.035	3.69
421.241	3.72
421.446	3.61
421.652	3.54
421.857	3.49
422.063	3.47
422.268	3.47
422.474	2.86
422.679	2.9
422.885	2.9
423.09	2.97
423.295	2.98
423.501	3.02
423.706	3.13
423.911	3.21
424.117	3.19
424.322	3.26
424.527	3.27
424.733	3.25
424.938	3.3
425.143	3.24
425.349	3.28
425.554	3.38
425.759	3.37
425.964	3.33
426.169	3.16
426.375	3.36
426.58	3.4
426.785	3.35
426.99	3.26
427.195	3.29
427.4	3.26
427.605	3.22
427.811	3.06
428.016	3.1
428.221	3.16
428.426	3.21
428.631	3.09
428.836	3.09
429.041	3.16
429.246	3.08
429.451	2.98
429.656	3.02
429.861	2.91
430.066	2.92
430.271	2.87
430.476	2.84
430.681	2.79
430.886	2.82
431.09	2.8
431.295	2.74
431.5	2.75
431.705	2.79
431.91	2.83
432.115	2.95
432.32	2.93
432.524	2.86
432.729	2.79
432.934	2.91
433.139	2.83
433.343	2.79
433.548	2.88
433.753	2.99
433.958	2.97
434.162	2.93
434.367	2.84
434.572	2.88
434.776	3.12
434.981	3.07
435.186	2.93
435.39	2.96
435.595	2.93
435.799	2.85
436.004	2.84
436.209	2.82
436.413	2.82
436.618	2.79
436.822	2.78
437.027	2.63
437.231	2.65
437.436	2.78
437.64	2.8
437.845	2.76
438.049	2.68
438.253	2.63
438.458	2.59
438.662	2.65
438.867	2.72
439.071	2.72
439.275	2.73
439.48	2.86
439.684	2.86
439.888	2.77
440.093	2.82
440.297	2.83
440.501	2.85
440.706	2.86
440.91	2.78
441.114	2.71
441.318	2.73
441.523	2.68
441.727	2.65
441.931	2.62
442.135	2.66
442.339	2.63
442.543	2.72
442.748	2.82
442.952	2.91
443.156	2.94
443.36	3.01
443.564	3.02
443.768	3.04
443.972	2.95
444.176	2.92
444.38	3
444.584	3.07
444.788	3.03
444.992	2.9
445.196	2.82
445.4	2.79
445.604	2.68
445.808	2.68
446.012	2.71
446.216	2.72
446.42	2.72
446.624	2.66
446.828	2.61
447.032	2.57
447.235	2.55
447.439	2.74
447.643	2.72
447.847	2.83
448.051	2.79
448.254	2.8
448.458	2.73
448.662	2.77
448.866	2.83
449.069	2.8
449.273	2.79
449.477	2.84
449.681	2.73
449.884	2.75
450.088	2.65
450.292	2.63
450.495	2.65
450.699	2.68
450.902	2.59
451.106	2.53
451.31	2.45
451.513	2.44
451.717	2.43
451.92	2.33
452.124	2.31
452.327	2.4
452.531	2.38
452.734	2.35
452.938	2.39
453.141	2.42
453.345	2.39
453.548	2.49
453.752	2.51
453.955	2.48
454.158	2.56
454.362	2.49
454.565	2.52
454.769	2.56
454.972	2.47
455.175	2.48
455.379	2.55
455.582	2.64
455.785	2.7
455.988	2.7
456.192	2.76
456.395	2.68
456.598	2.85
456.801	2.8
457.005	2.75
457.208	2.78
457.411	2.79
457.614	2.79
457.817	2.72
458.021	2.63
458.224	2.71
458.427	2.71
458.63	2.68
458.833	2.63
459.036	2.56
459.239	2.57
459.442	2.59
459.645	2.62
459.848	2.59
460.051	2.57
460.254	2.6
460.457	2.52
460.66	2.47
460.863	2.44
461.066	2.47
461.269	2.56
461.472	2.6
461.675	2.6
461.878	2.58
462.081	2.55
462.284	2.72
462.486	2.74
462.689	2.72
462.892	2.8
463.095	2.89
463.298	2.93
463.5	2.84
463.703	2.77
463.906	2.79
464.109	2.79
464.311	2.79
464.514	2.75
464.717	2.73
464.92	2.84
465.122	2.85
465.325	2.73
465.528	2.63
465.73	2.7
465.933	2.82
466.135	2.78
466.338	2.76
466.541	2.79
466.743	2.75
466.946	2.75
467.148	2.71
467.351	2.66
467.553	2.75
467.756	2.83
467.958	2.87
468.161	2.92
468.363	2.95
468.566	2.99
468.768	3.05
468.971	3.04
469.173	3.05
469.375	3.07
469.578	3.11
469.78	3.2
469.983	3.08
470.185	3.05
470.387	2.92
470.59	2.87
470.792	2.82
470.994	2.75
471.196	2.82
471.399	2.85
471.601	2.85
471.803	2.75
472.005	2.62
472.208	2.63
472.41	2.73
472.612	2.73
472.814	2.75
473.016	2.74
473.218	2.69
473.421	2.68
473.623	2.66
473.825	2.53
474.027	2.59
474.229	2.7
474.431	2.79
474.633	2.68
474.835	2.67
475.037	2.63
475.239	2.62
475.441	2.66
475.643	2.63
475.845	2.69
476.047	2.78
476.249	2.83
476.451	2.71
476.653	2.71
476.855	2.68
477.057	2.74
477.258	2.72
477.46	2.71
477.662	2.78
477.864	2.78
478.066	2.7
478.268	2.68
478.469	2.66
478.671	2.73
478.873	2.77
479.075	2.8
479.276	2.67
479.478	2.67
479.68	2.67
479.882	2.62
480.083	2.61
480.285	2.65
480.487	2.67
480.688	2.65
480.89	2.65
481.091	2.63
481.293	2.64
481.495	2.7
481.696	2.75
481.898	2.76
482.099	2.73
482.301	2.75
482.502	2.73
482.704	2.7
482.905	2.72
483.107	2.75
483.308	2.74
483.51	2.73
483.711	2.73
483.913	2.71
484.114	2.7
484.315	2.74
484.517	2.69
484.718	2.73
484.92	2.74
485.121	2.67
485.322	2.61
485.524	2.62
485.725	2.65
485.926	2.65
486.127	2.69
486.329	2.67
486.53	2.66
486.731	2.68
486.932	2.62
487.134	2.61
487.335	2.7
487.536	2.69
487.737	2.67
487.938	2.66
488.139	2.63
488.341	2.59
488.542	2.7
488.743	2.7
488.944	2.67
489.145	2.75
489.346	2.74
489.547	2.69
489.748	2.72
489.949	2.71
490.15	2.74
490.351	2.74
490.552	2.75
490.753	2.67
490.954	2.66
491.155	2.67
491.356	2.67
491.557	2.69
491.758	2.74
491.959	2.76
492.159	2.77
492.36	2.71
492.561	2.71
492.762	2.73
492.963	2.74
493.164	2.78
493.364	2.81
493.565	2.75
493.766	2.76
493.967	2.7
494.167	2.68
494.368	2.73
494.569	2.7
494.769	2.7
494.97	2.68
495.171	2.69
495.371	2.73
495.572	2.73
495.773	2.73
495.973	2.76
496.174	2.73
496.375	2.75
496.575	2.84
496.776	2.97
496.976	2.98
497.177	3.02
497.377	3.08
497.578	3.1
497.778	3.14
497.979	3.24
498.179	3.24
498.38	3.33
498.58	3.35
498.78	3.25
498.981	3.21
499.181	3.31
499.382	3.27
499.582	3.23
499.782	3.27
499.983	3.26
500.183	3.16
500.383	3.16
500.584	3.12
500.784	3.23
500.984	3.21
501.184	3.25
501.385	3.25
501.585	3.27
501.785	3.28
501.985	3.29
502.185	3.36
502.386	3.41
502.586	3.45
502.786	3.49
502.986	3.47
503.186	3.43
503.386	3.41
503.586	3.41
503.786	3.44
503.987	3.47
504.187	3.45
504.387	3.45
504.587	3.46
504.787	3.42
504.987	3.5
505.187	3.5
505.387	3.54
505.587	3.55
505.786	3.57
505.986	3.58
506.186	3.56
506.386	3.57
506.586	3.63
506.786	3.68
506.986	3.68
507.186	3.65
507.386	3.68
507.585	3.76
507.785	3.8
507.985	3.83
508.185	3.87
508.384	3.97
508.584	3.97
508.784	3.9
508.984	3.85
509.183	3.93
509.383	3.89
509.583	3.87
509.782	3.84
509.982	3.87
510.182	3.84
510.381	3.87
510.581	3.83
510.781	3.78
510.98	3.81
511.18	3.92
511.379	3.85
511.579	3.94
511.778	3.97
511.978	4.05
512.177	4.03
512.377	4.08
512.576	4.02
512.776	4.03
512.975	4.13
513.175	4.15
513.374	4.13
513.573	4.17
513.773	4.21
513.972	4.27
514.172	4.26
514.371	4.33
514.57	4.34
514.77	4.37
514.969	4.43
515.168	4.48
515.367	4.52
515.567	4.49
515.766	4.56
515.965	4.56
516.164	4.61
516.364	4.62
516.563	4.68
516.762	4.67
516.961	4.71
517.16	4.69
517.359	4.67
517.559	4.71
517.758	4.74
517.957	4.73
518.156	4.75
518.355	4.76
518.554	4.75
518.753	4.73
518.952	4.79
519.151	4.82
519.35	4.9
519.549	4.9
519.748	4.88
519.947	4.93
520.146	4.98
520.345	4.99
520.544	4.92
520.743	5.04
520.942	5
521.141	4.96
521.339	4.98
521.538	4.92
521.737	4.98
521.936	5.09
522.135	5.04
522.333	5.13
522.532	5.16
522.731	5.19
522.93	5.13
523.129	5.17
523.327	5.2
523.526	5.21
523.725	5.29
523.923	5.25
524.122	5.23
524.321	5.31
524.519	5.29
524.718	5.28
524.917	5.32
525.115	5.35
525.314	5.36
525.512	5.39
525.711	5.41
525.909	5.4
526.108	5.47
526.306	5.46
526.505	5.46
526.703	5.48
526.902	5.5
527.1	5.52
527.299	5.52
527.497	5.55
527.696	5.55
527.894	5.6
528.092	5.63
528.291	5.64
528.489	5.69
528.688	5.7
528.886	5.73
529.084	5.73
529.283	5.7
529.481	5.75
529.679	5.8
529.877	5.87
530.076	5.83
530.274	5.83
530.472	5.87
530.67	5.86
530.869	5.91
531.067	5.86
531.265	5.93
531.463	6.03
531.661	6.06
531.859	6.06
532.057	6.08
532.255	6.07
532.454	6.1
532.652	6.14
532.85	6.19
533.048	6.2
533.246	6.27
533.444	6.34
533.642	6.38
533.84	6.36
534.038	6.37
534.236	6.43
534.434	6.47
534.632	6.51
534.83	6.46
535.027	6.48
535.225	6.51
535.423	6.55
535.621	6.55
535.819	6.53
536.017	6.55
536.215	6.56
536.412	6.53
536.61	6.51
536.808	6.53
537.006	6.65
537.203	6.61
537.401	6.68
537.599	6.72
537.797	6.68
537.994	6.7
538.192	6.81
538.39	6.85
538.587	6.93
538.785	7
538.983	7.07
539.18	7.06
539.378	7.09
539.575	7.09
539.773	7.09
539.97	7.13
540.168	7.15
540.366	7.15
540.563	7.2
540.761	7.26
540.958	7.31
541.155	7.3
541.353	7.28
541.55	7.32
541.748	7.31
541.945	7.38
542.143	7.4
542.34	7.43
542.537	7.48
542.735	7.51
542.932	7.49
543.129	7.54
543.327	7.56
543.524	7.69
543.721	7.75
543.919	7.87
544.116	7.94
544.313	7.96
544.51	8.07
544.708	8.08
544.905	8.14
545.102	8.17
545.299	8.24
545.496	8.34
545.693	8.39
545.891	8.37
546.088	8.4
546.285	8.4
546.482	8.49
546.679	8.53
546.876	8.55
547.073	8.54
547.27	8.63
547.467	8.64
547.664	8.74
547.861	8.76
548.058	8.78
548.255	8.79
548.452	8.88
548.649	8.97
548.846	9.05
549.043	9.19
549.24	9.28
549.437	9.31
549.633	9.36
549.83	9.24
550.027	9.33
550.224	9.58
550.421	9.64
550.618	9.68
550.814	9.8
551.011	9.73
551.208	9.77
551.405	9.76
551.601	9.83
551.798	9.83
551.995	9.97
552.191	10.12
552.388	10.04
552.585	10.08
552.781	10.16
552.978	10.11
553.175	10.24
553.371	10.37
553.568	10.51
553.764	10.55
553.961	10.71
554.157	10.83
554.354	10.8
554.55	10.94
554.747	11.11
554.943	11.16
555.14	11.26
555.336	11.29
555.533	11.32
555.729	11.35
555.926	11.36
556.122	11.34
556.318	11.29
556.515	11.31
556.711	11.42
556.907	11.39
557.104	11.41
557.3	11.48
557.496	11.59
557.693	11.64
557.889	11.76
558.085	11.81
558.281	11.96
558.478	12.02
558.674	12.22
558.87	12.15
559.066	12.13
559.262	12.22
559.459	12.36
559.655	12.48
559.851	12.48
560.047	12.51
560.243	12.64
560.439	12.6
560.635	12.72
560.831	12.72
561.027	12.8
561.223	12.98
561.419	13.15
561.615	13.12
561.811	13.19
562.007	13.4
562.203	13.47
562.399	13.59
562.595	13.81
562.791	13.89
562.987	13.96
563.183	14.08
563.379	14.09
563.575	14.13
563.771	14.19
563.966	14.3
564.162	14.38
564.358	14.43
564.554	14.45
564.75	14.44
564.945	14.43
565.141	14.52
565.337	14.64
565.533	14.69
565.728	14.72
565.924	14.79
566.12	14.75
566.315	14.79
566.511	14.95
566.707	15.03
566.902	15.13
567.098	15.27
567.293	15.33
567.489	15.32
567.684	15.39
567.88	15.44
568.076	15.54
568.271	15.65
568.467	15.77
568.662	15.85
568.858	15.99
569.053	16.03
569.248	16.11
569.444	16.14
569.639	16.25
569.835	16.49
570.03	16.62
570.225	16.7
570.421	16.82
570.616	16.88
570.812	16.94
571.007	16.96
571.202	17.04
571.397	17.13
571.593	17.22
571.788	17.38
571.983	17.46
572.178	17.57
572.374	17.6
572.569	17.6
572.764	17.67
572.959	17.67
573.154	17.7
573.35	17.79
573.545	17.81
573.74	17.91
573.935	17.84
574.13	17.86
574.325	17.86
574.52	18.01
574.715	18.13
574.91	18.14
575.105	18.24
575.3	18.36
575.495	18.4
575.69	18.6
575.885	18.75
576.08	18.89
576.275	18.91
576.47	18.87
576.665	18.84
576.86	18.93
577.055	18.94
577.25	18.98
577.444	19.11
577.639	19.24
577.834	19.2
578.029	19.14
578.224	19.3
578.418	19.35
578.613	19.62
578.808	19.81
579.003	19.81
579.197	19.94
579.392	20.07
579.587	20.06
579.781	20.07
579.976	20.15
580.171	20.15
580.365	20.08
580.56	20.26
580.755	20.22
580.949	20.29
581.144	20.4
581.338	20.6
581.533	20.67
581.727	20.8
581.922	20.84
582.116	20.98
582.311	21.14
582.505	21.18
582.7	21.22
582.894	21.33
583.089	21.24
583.283	21.16
583.478	20.99
583.672	20.96
583.866	21.04
584.061	21.06
584.255	21.16
584.449	21.11
584.644	21.21
584.838	21.24
585.032	21.18
585.226	21.29
585.421	21.45
585.615	21.62
585.809	21.76
586.003	21.78
586.198	21.96
586.392	21.85
586.586	21.93
586.78	21.86
586.974	21.96
587.168	22.07
587.363	22.04
587.557	22
587.751	21.98
587.945	21.97
588.139	21.83
588.333	21.85
588.527	21.97
588.721	21.98
588.915	22.11
589.109	22.07
589.303	22.21
589.497	22.26
589.691	22.48
589.885	22.6
590.079	22.69
590.273	22.85
590.466	22.85
590.66	22.68
590.854	22.84
591.048	22.83
591.242	22.76
591.436	22.74
591.629	22.82
591.823	22.76
592.017	22.73
592.211	22.71
592.404	22.8
592.598	22.95
592.792	23.26
592.986	23.23
593.179	23.4
593.373	23.56
593.567	23.56
593.76	23.58
593.954	23.59
594.147	23.68
594.341	23.75
594.535	23.71
594.728	23.6
594.922	23.49
595.115	23.6
595.309	23.57
595.502	23.52
595.696	23.61
595.889	23.59
596.083	23.65
596.276	23.67
596.47	23.65
596.663	23.64
596.856	23.71
597.05	23.76
597.243	23.66
597.437	23.66
597.63	23.79
597.823	23.88
598.017	23.99
598.21	24.04
598.403	24.23
598.596	24.29
598.79	24.38
598.983	24.36
599.176	24.36
599.369	24.56
599.563	24.7
599.756	24.77
599.949	24.59
600.142	24.68
600.335	24.85
600.528	24.63
600.722	24.61
600.915	24.62
601.108	24.64
601.301	24.63
601.494	24.71
601.687	24.77
601.88	24.87
602.073	25.02
602.266	24.98
602.459	24.96
602.652	25.13
602.845	25.24
603.038	25.31
603.231	25.39
603.424	25.54
603.617	25.44
603.809	25.38
604.002	25.27
604.195	25.3
604.388	25.32
604.581	25.23
604.774	25.23
604.966	25.2
605.159	25.22
605.352	25.2
605.545	25.09
605.737	25.23
605.93	25.23
606.123	25.34
606.316	25.33
606.508	25.41
606.701	25.49
606.894	25.36
607.086	25.39
607.279	25.44
607.471	25.6
607.664	25.68
607.857	25.51
608.049	25.54
608.242	25.53
608.434	25.45
608.627	25.45
608.819	25.38
609.012	25.56
609.204	25.5
609.397	25.48
609.589	25.36
609.782	25.33
609.974	25.51
610.166	25.61
610.359	25.6
610.551	25.63
610.743	25.64
610.936	25.71
611.128	25.69
611.32	25.74
611.513	25.77
611.705	25.91
611.897	26
612.09	26.07
612.282	25.91
612.474	25.99
612.666	26.01
612.858	26.09
613.051	26.1
613.243	26.02
613.435	26.1
613.627	26.14
613.819	26.06
614.011	26.08
614.203	25.99
614.395	26.16
614.588	26.05
614.78	26.12
614.972	26.1
615.164	26.22
615.356	26.28
615.548	26.09
615.74	26.08
615.932	26.03
616.124	25.98
616.315	25.97
616.507	26.01
616.699	26.09
616.891	26.05
617.083	26.02
617.275	25.96
617.467	26.07
617.659	26.34
617.85	26.48
618.042	26.69
618.234	26.66
618.426	26.7
618.618	26.54
618.809	26.59
619.001	26.56
619.193	26.67
619.384	26.87
619.576	26.72
619.768	26.5
619.959	26.33
620.151	26.33
620.343	26.29
620.534	26.2
620.726	26.33
620.917	26.46
621.109	26.54
621.301	26.42
621.492	26.17
621.684	26.17
621.875	26.45
622.067	26.55
622.258	26.6
622.45	26.78
622.641	26.74
622.832	26.73
623.024	26.58
623.215	26.71
623.407	26.82
623.598	26.81
623.789	26.86
623.981	26.85
624.172	26.83
624.363	26.66
624.555	26.52
624.746	26.73
624.937	26.74
625.129	26.78
625.32	26.69
625.511	26.64
625.702	26.78
625.893	26.72
626.085	26.62
626.276	26.7
626.467	26.81
626.658	26.82
626.849	26.71
627.04	26.84
627.231	26.83
627.422	26.87
627.614	27.01
627.805	26.98
627.996	27.02
628.187	27.2
628.378	27.18
628.569	27.16
628.76	27.28
628.951	27.35
629.142	27.25
629.332	27.28
629.523	27.26
629.714	27.13
629.905	27.21
630.096	27.3
630.287	27.28
630.478	27.31
630.669	27.37
630.859	27.4
631.05	27.5
631.241	27.47
631.432	27.37
631.623	27.47
631.813	27.6
632.004	27.58
632.195	27.63
632.385	27.59
632.576	27.54
632.767	27.63
632.957	27.6
633.148	27.63
633.339	27.72
633.529	27.77
633.72	27.78
633.91	27.79
634.101	27.81
634.292	27.87
634.482	27.86
634.673	27.97
634.863	27.81
635.054	27.89
635.244	28.05
635.435	28.01
635.625	28.05
635.815	28.04
636.006	27.97
636.196	27.95
636.387	27.8
636.577	27.86
636.767	27.7
636.958	27.79
637.148	27.73
637.338	27.75
637.529	27.73
637.719	27.71
637.909	27.65
638.099	27.65
638.29	27.62
638.48	27.82
638.67	27.71
638.86	27.68
639.05	27.67
639.241	27.6
639.431	27.43
639.621	27.36
639.811	27.5
640.001	27.58
640.191	27.77
640.381	27.65
640.571	27.57
640.761	27.55
640.951	27.76
641.141	27.66
641.331	27.94
641.521	27.9
641.711	28.02
641.901	27.97
642.091	28.04
642.281	27.94
642.471	28.15
642.661	28.23
642.851	28.21
643.041	28.17
643.231	28.33
643.42	28.32
643.61	28.44
643.8	28.54
643.99	28.55
644.18	28.55
644.369	28.56
644.559	28.47
644.749	28.42
644.939	28.54
645.128	28.59
645.318	28.43
645.508	28.27
645.697	28.26
645.887	28.35
646.076	28.45
646.266	28.38
646.456	28.36
646.645	28.54
646.835	28.28
647.024	28.34
647.214	28.33
647.403	28.7
647.593	28.78
647.782	28.81
647.972	28.64
648.161	28.52
648.351	28.61
648.54	28.79
648.73	28.6
648.919	28.69
649.108	28.74
649.298	28.76
649.487	28.71
649.677	28.75
649.866	28.67
650.055	28.74
650.244	28.85
650.434	28.72
650.623	28.73
650.812	28.79
651.002	29.06
651.191	28.91
651.38	29.02
651.569	28.9
651.758	28.88
651.947	28.9
652.137	28.84
652.326	28.8
652.515	28.96
652.704	28.9
652.893	28.84
653.082	28.63
653.271	28.77
653.46	28.49
653.649	28.53
653.838	28.49
654.027	28.52
654.216	28.6
654.405	28.6
654.594	28.71
654.783	28.84
654.972	28.73
655.161	28.94
655.35	29.03
655.539	29.17
655.728	29.08
655.916	29.16
656.105	29.18
656.294	29.13
656.483	29.23
656.672	28.92
656.86	28.78
657.049	29.06
657.238	28.75
657.427	28.7
657.615	28.73
657.804	28.92
657.993	28.87
658.181	28.77
658.37	28.83
658.559	28.83
658.747	29.13
658.936	29.12
659.125	29.03
659.313	29.28
659.502	29.36
659.69	29.35
659.879	29.2
660.067	29.16
660.256	29.28
660.444	29.18
660.633	29.09
660.821	29.05
661.01	29.29
661.198	29.38
661.387	29.36
661.575	29.27
661.763	29.32
661.952	29.15
662.14	29.05
662.328	28.99
662.517	29.01
662.705	29.07
662.893	29.04
663.082	28.54
663.27	28.61
663.458	28.58
663.646	28.56
663.834	28.6
664.023	28.76
664.211	29.17
664.399	29.06
664.587	29.37
664.775	29.31
664.963	29.14
665.152	29.25
665.34	28.94
665.528	29.06
665.716	28.77
665.904	29.04
666.092	29.09
666.28	28.91
666.468	29.05
666.656	28.96
666.844	28.95
667.032	28.88
667.22	28.99
667.408	28.99
667.596	28.74
667.784	29.14
667.971	28.95
668.159	28.77
668.347	28.81
668.535	28.72
668.723	28.6
668.911	28.69
669.098	28.98
669.286	29.25
669.474	29.43
669.662	29.63
669.849	29.69
670.037	29.76
670.225	29.95
670.413	29.75
670.6	29.79
670.788	30
670.976	30.12
671.163	30.08
671.351	29.87
671.538	29.75
671.726	29.85
671.913	29.75
672.101	29.61
672.289	29.61
672.476	29.75
672.664	30.02
672.851	29.91
673.039	29.88
673.226	29.73
673.413	29.8
673.601	29.84
673.788	29.7
673.976	29.63
674.163	29.79
674.35	29.98
674.538	30.02
674.725	29.94
674.912	29.85
675.1	29.88
675.287	29.86
675.474	29.75
675.662	29.64
675.849	29.77
676.036	29.82
676.223	29.72
676.411	29.86
676.598	29.56
676.785	29.62
676.972	29.68
677.159	29.48
677.346	29.53
677.533	29.54
677.721	29.49
677.908	29.36
678.095	29.56
678.282	29.37
678.469	29.16
678.656	29.36
678.843	29.21
679.03	29.06
679.217	28.99
679.404	28.98
679.591	28.99
679.778	29.25
679.964	29.26
680.151	29.02
680.338	29.23
680.525	29.17
680.712	28.97
680.899	28.94
681.086	29.02
681.272	29.08
681.459	29.23
681.646	29.3
681.833	29.34
682.02	29.56
682.206	29.41
682.393	29.45
682.58	29.86
682.766	30.22
682.953	30.36
683.14	30.5
683.326	30.75
683.513	30.82
683.7	30.65
683.886	30.84
684.073	30.48
684.259	30.71
684.446	30.66
684.632	30.45
684.819	30.32
685.005	30.09
685.192	29.82
685.378	29.5
685.565	29.28
685.751	29.26
685.938	29.01
686.124	29.23
686.31	29.45
686.497	29.35
686.683	29.16
686.87	29.32
687.056	29.54
687.242	29.87
687.429	30.28
687.615	30.38
687.801	30.49
687.987	30.38
688.174	30.62
688.36	30.35
688.546	30.4
688.732	30.56
688.918	30.6
689.105	30.59
689.291	30.64
689.477	30.2
689.663	30.15
689.849	30.32
690.035	30.64
690.221	30.3
690.407	30.29
690.593	30.33
690.779	30.31
690.965	30.21
691.151	30.13
691.337	30.04
691.523	30.15
691.709	30.15
691.895	29.92
692.081	29.7
692.267	29.82
692.453	30.13
692.639	29.99
692.825	29.84
693.011	29.89
693.196	29.97
693.382	30.05
693.568	30.3
693.754	30.21
693.94	30.02
694.125	30.02
694.311	29.94
694.497	29.85
694.682	29.84
694.868	29.86
695.054	29.82
695.239	29.83
695.425	29.74
695.611	29.77
695.796	29.86
695.982	30.14
696.168	30.34
696.353	30.32
696.539	30.25
696.724	30.21
696.91	30.33
697.095	30.27
697.281	30.33
697.466	30.32
697.652	30.11
697.837	30.17
698.023	30.22
698.208	30.07
698.393	30.01
698.579	29.96
698.764	30.1
698.949	30.05
699.135	30.12
699.32	30.12
699.505	30.15
699.691	30.3
699.876	30.2
700.061	30.31
700.246	30.61
700.432	30.79
700.617	31.1
700.802	31.11
700.987	31.05
701.172	30.45
701.358	30.67
701.543	30.71
701.728	30.7
701.913	30.6
702.098	30.3
702.283	30.25
702.468	30.3
702.653	29.96
702.838	29.96
703.023	30.09
703.208	31
703.393	30.76
703.578	30.73
703.763	30.79
703.948	30.67
704.133	30.72
704.318	30.48
704.503	30.54
704.688	30.82
704.873	30.73
705.057	30.92
705.242	31.13
705.427	30.93
705.612	31.11
705.797	31.23
705.981	31.37
706.166	31.26
706.351	31.36
706.536	31.18
706.72	31.13
706.905	30.95
707.09	30.66
707.274	30.28
707.459	30.25
707.644	29.88
707.828	29.87
708.013	30.03
708.197	30.39
708.382	30.54
708.567	30.43
708.751	30.29
708.936	30.74
709.12	30.83
709.305	30.69
709.489	30.69
709.673	30.98
709.858	30.7
710.042	30.62
710.227	30.46
710.411	30.34
710.596	30.7
710.78	31.06
710.964	30.73
711.149	30.74
711.333	31.08
711.517	31.17
711.702	31.16
711.886	31.1
712.07	31
712.254	30.7
712.438	30.7
712.623	30.88
712.807	30.38
712.991	30.35
713.175	30.49
713.359	30.28
713.544	30.38
713.728	30.36
713.912	30.35
714.096	30.66
714.28	31.1
714.464	31.23
714.648	31.12
714.832	31.16
715.016	31.11
715.2	30.89
715.384	30.56
715.568	30.33
715.752	30.35
715.936	30.29
716.12	30.35
716.304	30.01
716.488	29.81
716.671	29.46
716.855	29.55
717.039	29.68
717.223	29.82
717.407	30.28
717.59	30.51
717.774	30.11
717.958	30.04
718.142	29.6
718.325	29.78
718.509	29.55
718.693	29.62
718.877	30.01
719.06	30.04
719.244	29.58
719.428	29.52
719.611	29.55
719.795	29.91
719.978	30.25
720.162	30.44
720.345	30.02
720.529	30.29
720.713	30.48
720.896	30.62
721.08	30.68
721.263	31.09
721.446	31.03
721.63	30.8
721.813	30.61
721.997	30.68
722.18	30.73
722.364	31.33
722.547	31.67
722.73	31.83
722.914	31.35
723.097	31.2
723.28	31.31
723.464	31.51
723.647	31.42
723.83	32.02
724.013	32.33
724.197	32.49
724.38	32.45
724.563	32.09
724.746	31.54
724.929	31.74
725.112	31.99
725.296	31.63
725.479	31.57
725.662	31.91
725.845	31.05
726.028	30.81
726.211	30.64
726.394	30.21
726.577	30.35
726.76	30.46
726.943	30.26
727.126	30.11
727.309	30.29
727.492	30.2
727.675	29.95
727.858	30.11
728.041	29.73
728.224	29.91
728.407	30.55
728.589	30.37
728.772	30.67
728.955	30.59
729.138	30.94
729.321	31.06
729.503	30.78
729.686	30.93
729.869	31.23
730.052	31.64
730.234	31.17
730.417	31.18
730.6	30.9
730.782	31.19
730.965	31.08
731.148	30.68
731.33	30.55
731.513	30.38
731.695	30.45
731.878	30.18
732.061	29.93
732.243	30.32
732.426	29.83
732.608	30.26
732.791	29.76
732.973	29.73
733.156	29.98
733.338	29.82
733.52	30.62
733.703	30.54
733.885	30.74
734.068	30.62
734.25	30.5
734.432	30.37
734.615	29.98
734.797	29.94
734.979	30.42
735.162	30.11
735.344	30.25
735.526	29.7
735.708	30.16
735.891	30.01
736.073	30.29
736.255	30.53
736.437	30.52
736.619	30.29
736.802	30.7
736.984	30.45
737.166	30.54
737.348	30.79
737.53	31.15
737.712	30.35
737.894	30.6
738.076	31.04
738.258	31.05
738.44	31.83
738.622	32.07
738.804	32.03
738.986	31.92
739.168	31.87
739.35	31.67
739.532	31.32
739.714	31.52
739.896	31.48
740.078	30.75
740.259	30.29
740.441	29.75
740.623	30.12
740.805	30.01
740.987	30.26
741.168	29.99
741.35	29.9
741.532	29.35
741.714	29.36
741.895	29.11
742.077	29.49
742.259	29.71
742.44	30.13
742.622	29.97
742.804	30.47
742.985	30.13
743.167	30.19
743.348	30.35
743.53	30.48
743.711	30.29
743.893	30.52
744.075	30.56
744.256	29.97
744.438	29.43
744.619	29.33
744.8	28.39
744.982	28.31
745.163	28.34
745.345	28.09
745.526	28.5
745.707	28.88
745.889	28.99
746.07	29.03
746.252	29.99
746.433	29.93
746.614	29.89
746.795	29.83
746.977	29.63
747.158	29.74
747.339	29.62
747.52	29.26
747.702	28.78
747.883	28.57
748.064	27.91
748.245	27.33
748.426	27.54
748.607	28.17
748.788	28.17
748.97	28.68
749.151	28.25
749.332	28.53
749.513	28.56
749.694	28
749.875	27.88
750.056	28.48
750.237	28.09
750.418	27.66
750.599	27.14
750.78	27
750.96	26.52
751.141	27.21
751.322	27.41
751.503	27.42
751.684	28.74
751.865	29.06
752.046	28.73
752.226	30.09
752.407	30.31
752.588	30.42
752.769	30.93
752.949	31.69
753.13	31.96
753.311	31.26
753.492	30.94
753.672	31.23
753.853	30.9
754.034	31.11
754.214	30.63
754.395	30.82
754.575	30.79
754.756	30.55
754.937	29.52
755.117	28.96
755.298	29.52
755.478	30.04
755.659	29.18
755.839	29.11
756.02	29.27
756.2	29.19
756.381	28.97
756.561	29.08
756.741	29.04
756.922	29.5
757.102	29.39
757.283	29.67
757.463	29.54
757.643	30.07
757.823	30.31
758.004	30.72
758.184	30.25
758.364	30.5
758.545	30.15
758.725	30.14
758.905	29.88
759.085	30.56
759.265	30.76
759.446	31.23
759.626	31.35
759.806	31.28
759.986	30.49
760.166	31.1
760.346	31.03
760.526	31.41
760.706	31.49
760.886	31.89
761.066	31.35
761.246	30.96
761.426	30.81
761.606	30.78
761.786	30.97
761.966	31.29
762.146	30.81
762.326	31.43
762.506	31.21
762.686	31.14
762.866	31.09
763.046	31.2
763.225	30.89
763.405	30.83
763.585	30.53
763.765	30.09
763.945	29.62
764.124	29.69
764.304	28.96
764.484	28.97
764.664	28.88
764.843	28.96
765.023	28.87
765.203	29.27
765.382	29.47
765.562	29.55
765.741	29.41
765.921	29.81
766.101	29.66
766.28	29.91
766.46	29.79
766.639	29.9
766.819	29.59
766.998	29.58
767.178	29.38
767.357	28.49
767.537	28.92
767.716	30.21
767.896	30.02
768.075	30.94
768.254	30.95
768.434	30.8
768.613	30.38
768.792	30.44
768.972	29.95
769.151	29.53
769.33	30.45
769.51	30.22
769.689	29.01
769.868	29.25
770.047	28.83
770.226	28.37
770.406	28.82
770.585	29.01
770.764	28.99
770.943	30.07
771.122	31.21
771.301	30.99
771.48	30.58
771.66	31.05
771.839	30.97
772.018	30.18
772.197	30.14
772.376	29.96
772.555	30.23
772.734	30.11
772.913	29.78
773.092	28.73
773.271	28.58
773.449	28.46
773.628	28.04
773.807	28.56
773.986	29.03
774.165	29.29
774.344	29.53
774.523	28.92
774.701	28.4
774.88	28.76
775.059	28.2
775.238	27.46
775.417	27.3
775.595	28.14
775.774	27.38
775.953	27.92
776.131	28.69
776.31	27.85
776.489	28.48
776.667	29.05
776.846	28.67
777.025	29.9
777.203	30.86
777.382	31.83
777.56	31.78
777.739	31.84
777.917	31.36
778.096	30.52
778.274	30.59
778.453	30.31
778.631	30.36
778.81	29.62
778.988	29.26
779.166	29.2
779.345	27.62
779.523	27.31
779.702	26.89
779.88	26.27
780.058	27.21
780.237	28.49
780.415	28.2
780.593	28.48
780.771	29.43
780.95	29.65
781.128	29.26
781.306	29.94
781.484	29.04
781.662	29.23
781.841	29.52
782.019	28.35
782.197	27.23
782.375	26.97
782.553	26.27
782.731	24.59
782.909	24.1
783.087	24.17
783.265	24.35
783.443	25.68
783.621	26.03
783.799	26.16
783.977	26.28
784.155	26.94
784.333	28
784.511	27.51
784.689	29.41
784.867	29.27
785.045	29.96
785.223	29.03
785.4	28.8
785.578	28.76
785.756	28.73
785.934	29.15
786.112	28.63
786.289	28.48
786.467	29.63
786.645	29.06
786.823	29.5
787	28.91
787.178	30.21
787.356	30.31
787.533	30.56
787.711	30.86
787.889	30.95
788.066	31.74
788.244	31.4
788.421	31.11
788.599	31.17
788.776	30.65
788.954	30.52
789.131	30.51
789.309	30.6
789.486	29.63
789.664	29.59
789.841	29.77
790.019	29.3
790.196	28.96
790.373	29.21
790.551	29.5
790.728	30.96
790.906	31.56
791.083	31.75
791.26	31.28
791.437	30.97
791.615	30.51
791.792	30.57
791.969	30.27
792.146	30.47
792.324	30.47
792.501	31.52
792.678	30.85
792.855	31.29
793.032	30.42
793.209	30.92
793.387	32.4
793.564	33.04
793.741	32.78
793.918	32.59
794.095	33.01
794.272	32.32
794.449	31.87
794.626	31.47
794.803	31.12
794.98	31.34
795.157	31.35
795.334	31.9
795.511	31.58
795.688	30.93
795.864	31.62
796.041	31.89
796.218	31.28
796.395	30.78
796.572	30.72
796.749	31.39
796.925	31.06
797.102	30.95
797.279	30.5
797.456	29.81
797.632	30.16
797.809	29.35
797.986	29.06
798.162	30.59
798.339	30.75
798.516	30.79
798.692	28.94
798.869	30.23
799.046	29.98
799.222	28.79
799.399	29.2
799.575	29.44
799.752	29.57
799.928	28.69
800.105	28.24
800.281	27.09
800.458	27.11
800.634	27.7
800.811	26.23
800.987	26
801.163	28.08
801.34	28.8
801.516	28.65
801.692	29.43
801.869	30.42
802.045	30.24
802.221	30.12
802.398	30.5
802.574	31.57
802.75	31.85
802.926	31.18
803.103	30.33
803.279	30.5
803.455	30.74
803.631	30.48
803.807	30.86
803.983	30.99
804.16	31.12
804.336	31.36
804.512	30.34
804.688	31.13
804.864	30.71
805.04	30.81
805.216	29.67
805.392	29.99
805.568	29.87
805.744	29.91
805.92	29.2
806.096	29.31
806.272	28.94
806.448	29.22
806.623	28.54
806.799	29.86
806.975	29.14
807.151	30.47
807.327	30.2
807.503	30.4
807.678	30.08
807.854	31.5
808.03	31.85
808.206	32.05
808.381	32.04
808.557	31.51
808.733	31.3
808.908	31.67
809.084	31.79
809.26	31.03
809.435	30.38
809.611	29.75
809.787	28.56
809.962	29.44
810.138	28.82
810.313	29.28
810.489	30.72
810.664	31.64
810.84	32.48
811.015	30.94
811.191	31.46
811.366	30.89
811.542	31.18
811.717	32.18
811.892	31.19
812.068	31.8
812.243	31.4
812.419	29.96
812.594	28.79
812.769	28.33
812.944	27.75
813.12	27.86
813.295	29.97
813.47	30.35
813.645	29.12
813.821	29.49
813.996	29.38
814.171	29.72
814.346	30.55
814.521	30.37
814.697	30.14
814.872	31.84
815.047	30.82
815.222	28.96
815.397	28.21
815.572	29.02
815.747	28.22
815.922	30.34
816.097	30.53
816.272	30.29
816.447	31
816.622	30.59
816.797	30.94
816.972	32.18
817.147	33.32
817.322	33.06
817.496	31.91
817.671	32.42
817.846	30.96
818.021	30.39
818.196	29.96
818.371	29.99
818.545	31.13
818.72	30.89
818.895	30.66
819.069	30.94
819.244	31.55
819.419	31.46
819.594	31.35
819.768	31.09
819.943	31.36
820.117	31.19
820.292	31.04
820.467	30.47
820.641	29.74
820.816	29.64
820.99	29.3
821.165	28.98
821.339	28.94
821.514	29.06
821.688	28.97
821.863	28.94
822.037	29.3
822.212	29.24
822.386	29.2
822.56	29.36
822.735	29.31
822.909	29.3
823.084	29.63
823.258	29.58
823.432	29.45
823.606	29.26
823.781	29.11
823.955	28.96
824.129	29.01
824.303	29.31
824.478	29.25
824.652	29.34
824.826	28.91
825	28.57
825.174	29.66
825.348	29.67
825.523	30.04
825.697	30.12
825.871	29.95
826.045	29.87
826.219	29.14
826.393	28.96
826.567	28.97
826.741	29.75
826.915	29.9
827.089	29.56
827.263	29.95
827.437	29.92
827.611	30
827.784	29.71
827.958	29.82
828.132	29.95
828.306	30.56
828.48	30.54
828.654	30.36
828.827	29.79
829.001	29.41
829.175	28.93
829.349	29.22
829.522	28.93
829.696	29.13
829.87	29.49
830.044	29.86
830.217	29.8
830.391	30.25
830.565	29.89
830.738	31.16
830.912	31.37
831.085	31.38
831.259	30.19
831.432	31.03
831.606	31.84
831.779	30.74
831.953	30.73
832.126	30.33
832.3	30.7
832.473	30.43
832.647	29.96
832.82	29.88
832.994	29.75
833.167	29.44
833.34	28.63
833.514	28.21
833.687	28.02
833.86	27.8
834.034	28.43
834.207	27.68
834.38	28.12
834.553	27.96
834.727	27.84
834.9	27.83
835.073	28.13
835.246	28.22
835.419	28.29
835.593	28.32
835.766	28.9
835.939	28.67
836.112	28.57
836.285	29.01
836.458	29.36
836.631	28.7
836.804	28.19
836.977	28.95
837.15	29.03
837.323	29.36
837.496	29.3
837.669	29.63
837.842	28.92
838.015	29.98
838.188	30
838.361	29.91
838.533	30.19
838.706	31.49
838.879	30.43
839.052	30.36
839.225	29.72
839.398	31.34
839.57	30.66
839.743	31.18
839.916	31.44
840.088	31.82
840.261	31.66
840.434	30.03
840.607	29.88
840.779	31.45
840.952	32.71
841.124	32.7
841.297	32.67
841.47	32.43
841.642	29.92
841.815	28.47
841.987	27.29
842.16	26.32
842.332	29.76
842.505	30.41
842.677	29.75
842.85	28.56
843.022	30.01
843.194	29.17
843.367	29.69
843.539	33.67
843.712	32.92
843.884	32.52
844.056	38.13
844.229	38.61
844.401	35.8
844.573	35.58
844.745	34.95
844.918	35.25
845.09	35.71
845.262	34.33
845.434	32.69
845.606	34.41
845.779	35.48
845.951	29.51
846.123	26.73
846.295	27.32
846.467	27.39
846.639	28.94
846.811	26.78
846.983	27.05
847.155	26.6
847.327	25.4
847.499	24.64
847.671	22.27
847.843	21.5
848.015	24.61
848.187	27.55
848.359	28.06
848.531	30.88
848.703	32.63
848.875	32.31
849.047	32.25
849.218	30.93
849.39	30.52
849.562	31.48
849.734	34.48
849.905	31.76
850.077	30.74
850.249	29.36
850.421	28.52
850.592	26.57
850.764	26.32
850.936	28.54
851.107	30.76
851.279	34.06
851.451	38.13
851.622	38.02
851.794	39.91
851.965	40.52
852.137	40.45
852.308	36.58
852.48	37.91
852.651	39.71
852.823	36.6
852.994	36.6
853.166	35.44
853.337	32.19
853.509	28.99
853.68	26.98
853.851	31.29
854.023	29.01
854.194	31.24
854.365	31.43
854.537	32.58
854.708	35.42
854.879	38.56
855.05	34.83
855.222	34.59
855.393	35.16
855.564	38.86
855.735	32.29
855.906	34.41
856.078	32.68
856.249	31.92
856.42	29.07
856.591	30.2
856.762	30.38
856.933	32.12
857.104	32.39
857.275	32.15
857.446	30.72
857.617	34.43
857.788	33.68
857.959	36.17
858.13	37.55
858.301	37.81
858.472	35.92
858.643	34.56
858.814	36.31
858.985	36.8
859.155	41.12
859.326	41.41
859.497	40.47
859.668	44.12
859.839	41.06
860.009	39.32
860.18	40.44
860.351	43.06
860.522	43.79
860.692	46.07
860.863	45.68
861.034	41.17
861.204	42.62
861.375	41.83
861.546	38.72
861.716	40.41
861.887	42.21
862.057	41.63
862.228	42.1
862.398	38.69
862.569	35.53
862.739	34.44
862.91	36.98
863.08	37.29
863.251	40.15
863.421	41.88
863.592	41.36
863.762	39.54
863.932	39.24
864.103	36.63
864.273	39.11
864.443	38.49
864.614	40.95
864.784	42.18
864.954	40.17
865.125	37.97
865.295	39.17
865.465	37.88
865.635	34.69
865.805	33.63
865.976	33.31
866.146	32.24
866.316	32.22
866.486	31.94
866.656	30.87
866.826	27.75
866.996	26.23
867.166	22.79
867.336	27.5
867.506	35.73
867.676	38.67
867.846	38.1
868.016	37.49
868.186	35.86
868.356	32.8
868.526	32.23
868.696	33.47
868.866	34.78
869.036	34.51
869.206	29.08
869.376	26.22
869.545	25.31
869.715	23.95
869.885	22.72
870.055	22.52
870.224	21.77
870.394	21.67
870.564	21.22
870.734	23.98
870.903	27.91
871.073	29.68
871.243	28.79
871.412	27.2
871.582	29.83
871.751	31.79
871.921	35.01
872.091	34.44
872.26	32.36
872.43	34.06
872.599	31.48
872.769	25.93
872.938	24.7
873.108	26.02
873.277	27.81
873.446	29.1
873.616	30.64
873.785	31.26
873.955	38.07
874.124	38.42
874.293	38.97
874.463	40.05
874.632	40.88
874.801	40.27
874.971	41.47
875.14	38.6
875.309	37.77
875.478	38.22
875.647	36.93
875.817	32.26
875.986	32.88
876.155	30.35
876.324	27.66
876.493	30.86
876.662	34.12
876.831	30.96
877	27.99
877.17	25.29
877.339	25.69
877.508	25.16
877.677	24.93
877.846	24.26
878.015	27.67
878.184	25.54
878.352	24.11
878.521	22.91
878.69	27.57
878.859	29.26
879.028	30.54
879.197	29.11
879.366	29.39
879.534	29.68
879.703	30.21
879.872	29.43
880.041	29.94
880.21	30.44
880.378	30.68
880.547	28.05
880.716	28.61
880.884	28.78
881.053	28.04
881.222	27.67
881.39	27.81
881.559	27.76
881.727	27.84
881.896	27.85
882.065	28.68
882.233	28.71
882.402	28.88
882.57	28.52
882.739	28.37
882.907	27.99
883.076	28.04
883.244	28.03
883.412	28.1
883.581	27.72
883.749	27.72
883.918	25.96
884.086	25.4
884.254	25.96
884.423	26.46
884.591	25.62
884.759	25.87
884.927	26.69
885.096	26.68
885.264	27.39
885.432	27.21
885.6	27.72
885.769	28.04
885.937	28.71
886.105	28.68
886.273	28.77
886.441	29.67
886.609	30.53
886.777	28.34
886.945	25.36
887.113	24.1
887.281	24.58
887.449	23.83
887.617	24.66
887.785	24.16
887.953	21.55
888.121	19.72
888.289	22.51
888.457	22.42
888.625	26.53
888.793	27.88
888.961	28.65
889.129	31.62
889.296	31.17
889.464	32.56
889.632	33.52
889.8	36.01
889.967	38.32
890.135	35.62
