Data from 2938580_Reflection_2.txt Node
Date: Sun Jun 14 21:12:45 EDT 2015
User: robert
Spectrometer: USB4E03002
Autoset integration time: false
Trigger mode: 4
Integration Time (sec): 1.000000E-1
Scans to average: 10
Electric dark correction enabled: true
Nonlinearity correction enabled: false
Boxcar width: 5
Stray light correction enabled: false
XAxis mode: Wavelengths
Stop averaging: false
Number of Pixels in Spectrum: 3648
>>>>>Begin Spectral Data<<<<<
177.575	134.34
177.794	180.2
178.014	1032.47
178.233	-6171.87
178.452	-284.52
178.672	-75.11
178.891	134.79
179.11	104.23
179.33	101.95
179.549	164.42
179.768	336.66
179.987	222.8
180.207	259.59
180.426	338.83
180.645	442.66
180.864	234.37
181.084	221.25
181.303	281.67
181.522	240.6
181.741	235.44
181.96	139.63
182.179	138.78
182.398	124.3
182.618	104.01
182.837	95.17
183.056	59.65
183.275	90.28
183.494	117.4
183.713	112.71
183.932	115.83
184.151	123.97
184.37	188.15
184.589	159.47
184.808	175.55
185.027	169.55
185.246	247.82
185.465	245.2
185.684	225.8
185.903	220.26
186.122	185.85
186.341	192.45
186.56	202.21
186.779	161.79
186.998	139.11
187.216	167.05
187.435	163.82
187.654	136.68
187.873	171.28
188.092	200.86
188.311	163.6
188.53	178.86
188.748	212.92
188.967	418.6
189.186	310.26
189.405	-1303.92
189.623	-27391.67
189.842	-432.73
190.061	-464.78
190.28	-518.87
190.498	-1020.69
190.717	-2752.97
190.936	966.27
191.154	1135.5
191.373	322.85
191.592	646.2
191.81	222.57
192.029	229.18
192.248	167.8
192.466	128.44
192.685	126.64
192.904	134.23
193.122	149.09
193.341	146.52
193.559	127.66
193.778	160.35
193.996	162.73
194.215	176.3
194.433	170.96
194.652	160.18
194.87	185.95
195.089	177.13
195.307	147.45
195.526	137.81
195.744	153.84
195.963	137.23
196.181	152.57
196.399	146.26
196.618	122.07
196.836	103.76
197.055	101.1
197.273	82.84
197.491	102.68
197.71	126.24
197.928	128.44
198.146	118.2
198.365	128.92
198.583	95.1
198.801	100.14
199.019	107.66
199.238	119.51
199.456	104.98
199.674	104.53
199.892	83.6
200.111	50.64
200.329	48.37
200.547	55.11
200.765	55.44
200.983	42.49
201.202	20.38
201.42	36.51
201.638	44.61
201.856	40.99
202.074	40.31
202.292	26.35
202.51	52.16
202.728	38.76
202.946	32.66
203.165	51.02
203.383	61.07
203.601	86.4
203.819	74.72
204.037	53.58
204.255	74.63
204.473	97.68
204.691	98.94
204.909	74.94
205.127	99.89
205.345	86.36
205.562	86.82
205.78	108.3
205.998	101.84
206.216	80.89
206.434	95.69
206.652	84.67
206.87	78.13
207.088	74.48
207.306	97.21
207.523	87.06
207.741	94.41
207.959	85.72
208.177	59.58
208.395	49.52
208.612	64.61
208.83	55.28
209.048	63.88
209.266	84.2
209.483	93.8
209.701	73.65
209.919	76.51
210.136	75.68
210.354	87.7
210.572	109.27
210.79	115.13
211.007	119.31
211.225	127.26
211.442	104.06
211.66	84.02
211.878	93.99
212.095	102.02
212.313	99.39
212.53	92.72
212.748	74.56
212.966	60.76
213.183	66.39
213.401	49.25
213.618	58.38
213.836	65.99
214.053	59.19
214.271	48.11
214.488	44.28
214.705	40.24
214.923	32.83
215.14	45.25
215.358	41.73
215.575	36.45
215.793	51.48
216.01	39.46
216.227	35.4
216.445	37.47
216.662	40.13
216.879	31.02
217.097	27.01
217.314	37.37
217.531	33.94
217.749	46.47
217.966	61.42
218.183	46.34
218.4	44.4
218.618	57.64
218.835	44.41
219.052	37.76
219.269	48.95
219.487	45.39
219.704	42.78
219.921	40.9
220.138	34.29
220.355	26.55
220.572	29.83
220.79	30.48
221.007	24.34
221.224	29.5
221.441	34.86
221.658	27.69
221.875	30.1
222.092	27.75
222.309	27.59
222.526	27.01
222.743	28.02
222.96	27.09
223.177	27.06
223.394	23.97
223.611	21.14
223.828	21.99
224.045	25.9
224.262	22.71
224.479	16.69
224.696	20.18
224.913	21.53
225.13	20.55
225.347	20.31
225.564	18.32
225.781	18.14
225.997	18.15
226.214	15.68
226.431	14.29
226.648	14.02
226.865	15.48
227.082	13.08
227.298	11.72
227.515	11.53
227.732	10.85
227.949	11.19
228.165	10.55
228.382	10.29
228.599	10.26
228.816	10.19
229.032	10.42
229.249	10.86
229.466	11.25
229.682	12.28
229.899	13.2
230.116	13.95
230.332	12.24
230.549	13.54
230.765	13.82
230.982	14.21
231.199	14.06
231.415	14.46
231.632	13.89
231.848	13.6
232.065	11.92
232.281	9.77
232.498	10.63
232.714	13.54
232.931	13.61
233.147	13.84
233.364	14.12
233.58	13.95
233.797	16.4
234.013	16.44
234.23	18.84
234.446	20.24
234.662	21.1
234.879	20.56
235.095	19.07
235.312	19.65
235.528	21.5
235.744	20.3
235.961	20.56
236.177	15.61
236.393	16.68
236.61	16.38
236.826	17.19
237.042	17.75
237.258	17.85
237.475	17.77
237.691	17.34
237.907	15.21
238.123	15.65
238.339	15.52
238.556	16.9
238.772	13.98
238.988	11.26
239.204	10.95
239.42	10.88
239.636	11.11
239.853	11.43
240.069	11.2
240.285	10.69
240.501	10.39
240.717	9.92
240.933	9.35
241.149	10.59
241.365	11.92
241.581	11.78
241.797	11.58
242.013	10.42
242.229	10.28
242.445	10.74
242.661	11.08
242.877	11.42
243.093	12.05
243.309	12.31
243.525	11.94
243.741	10.23
243.957	10.19
244.173	9.59
244.388	10.69
244.604	10.4
244.82	9.61
245.036	9.59
245.252	9.68
245.468	9.46
245.683	9.37
245.899	9.47
246.115	9.71
246.331	9.57
246.547	10.01
246.762	9.72
246.978	9.59
247.194	9.94
247.409	9.7
247.625	9.47
247.841	9.33
248.057	9.28
248.272	9.19
248.488	9.49
248.703	9.34
248.919	9.14
249.135	9.55
249.35	9.36
249.566	9.13
249.782	9.68
249.997	8.95
250.213	8.66
250.428	9.17
250.644	9.18
250.859	9.04
251.075	8.9
251.29	8.45
251.506	8.52
251.721	8.99
251.937	8.48
252.152	7.83
252.368	9.14
252.583	9.38
252.798	8.66
253.014	8.53
253.229	7.84
253.445	8.53
253.66	9.15
253.875	8.66
254.091	8.11
254.306	8.51
254.521	8.68
254.737	7.62
254.952	8.69
255.167	9.38
255.383	9.23
255.598	9.56
255.813	8.76
256.028	8.65
256.244	8.36
256.459	8.1
256.674	8.44
256.889	8.5
257.104	8.21
257.32	7.54
257.535	7.6
257.75	7.39
257.965	7.28
258.18	7.17
258.395	6.85
258.61	6.96
258.826	7.12
259.041	6.94
259.256	6.61
259.471	6.37
259.686	6.32
259.901	5.89
260.116	5.77
260.331	5.58
260.546	5.92
260.761	5.92
260.976	5.3
261.191	5.6
261.406	5.54
261.621	6.41
261.836	7.04
262.05	7.71
262.265	8.33
262.48	8.87
262.695	9.32
262.91	9.54
263.125	10
263.34	10.93
263.555	10.24
263.769	9.72
263.984	9.19
264.199	9.32
264.414	8.63
264.629	8.08
264.843	7.76
265.058	8.18
265.273	7.67
265.488	7.45
265.702	6.68
265.917	6.63
266.132	6.68
266.346	6.31
266.561	6.41
266.776	6.31
266.99	6.6
267.205	6.54
267.42	5.6
267.634	5.43
267.849	5.44
268.063	6.03
268.278	6.08
268.492	6.68
268.707	7.11
268.922	7.14
269.136	7.64
269.351	7.4
269.565	7.26
269.78	7.12
269.994	7.06
270.209	7.15
270.423	6.92
270.637	7.22
270.852	6.99
271.066	7.14
271.281	7.04
271.495	6.85
271.709	6.76
271.924	6.95
272.138	7.34
272.353	7.83
272.567	7.86
272.781	8.23
272.996	8
273.21	7.92
273.424	7.85
273.638	7.83
273.853	7.36
274.067	7.57
274.281	8.02
274.495	7.76
274.71	7.79
274.924	7.53
275.138	6.95
275.352	6.86
275.566	7.31
275.781	7.12
275.995	7.11
276.209	7.76
276.423	7.75
276.637	7.04
276.851	7.18
277.065	6.6
277.279	6.82
277.493	7.32
277.707	7.48
277.921	7.46
278.135	7.16
278.349	6.94
278.563	6.15
278.777	6.48
278.991	6.75
279.205	6.81
279.419	6.85
279.633	6.61
279.847	6.29
280.061	5.63
280.275	4.97
280.489	5.51
280.703	5.52
280.917	5.8
281.131	5.43
281.344	5.52
281.558	5.74
281.772	5.69
281.986	5.85
282.2	5.79
282.414	5.8
282.627	5.9
282.841	5.54
283.055	5.66
283.269	5.96
283.482	6.11
283.696	5.82
283.91	5.47
284.123	5.46
284.337	5.25
284.551	5.38
284.764	5.5
284.978	5.78
285.192	5.49
285.405	5.44
285.619	5.37
285.833	5.35
286.046	5.26
286.26	5.81
286.473	5.65
286.687	6.07
286.9	5.77
287.114	5.72
287.327	5.59
287.541	6.02
287.754	6.2
287.968	5.75
288.181	5.53
288.395	5.57
288.608	5.34
288.822	5.57
289.035	5.23
289.248	5.64
289.462	5.83
289.675	5.65
289.889	5.59
290.102	5.47
290.315	5.87
290.529	6.01
290.742	6.07
290.955	5.83
291.169	5.84
291.382	5.8
291.595	5.61
291.808	5.85
292.022	6.06
292.235	5.9
292.448	5.99
292.661	5.95
292.875	6.05
293.088	6.57
293.301	6.74
293.514	6.59
293.727	6.54
293.94	6.43
294.153	6.47
294.367	6.14
294.58	6.29
294.793	6.14
295.006	6.17
295.219	6.13
295.432	5.96
295.645	5.77
295.858	5.93
296.071	6.02
296.284	6.03
296.497	5.95
296.71	6.18
296.923	6.49
297.136	6.6
297.349	6.72
297.562	6.61
297.775	6.64
297.988	7.02
298.201	7
298.414	7.07
298.626	7.26
298.839	7.23
299.052	7.06
299.265	6.63
299.478	6.53
299.691	6.62
299.903	6.57
300.116	6.29
300.329	6.19
300.542	6.24
300.755	6.58
300.967	6.77
301.18	6.84
301.393	7
301.605	6.9
301.818	6.98
302.031	6.78
302.243	7.26
302.456	7.19
302.669	7.24
302.881	7.31
303.094	7.2
303.307	7.26
303.519	7.2
303.732	7.28
303.944	7.35
304.157	7.36
304.37	7.31
304.582	7
304.795	7.34
305.007	7.17
305.22	7.01
305.432	6.69
305.645	6.52
305.857	6.19
306.069	6.29
306.282	6.19
306.494	6.28
306.707	6.02
306.919	6.14
307.132	6.15
307.344	6.18
307.556	6.19
307.769	6.44
307.981	6.17
308.193	6.36
308.406	6.39
308.618	6.73
308.83	6.4
309.043	6.86
309.255	6.77
309.467	6.73
309.679	6.84
309.892	6.96
310.104	6.91
310.316	6.81
310.528	6.88
310.74	6.92
310.953	6.65
311.165	6.59
311.377	6.2
311.589	6.11
311.801	5.94
312.013	5.61
312.225	5.57
312.437	5.47
312.649	5.75
312.862	5.68
313.074	5.7
313.286	5.85
313.498	6.21
313.71	6.33
313.922	6.22
314.134	6.39
314.346	6.27
314.558	6.05
314.77	6.37
314.982	6.75
315.193	6.86
315.405	6.71
315.617	6.68
315.829	6.69
316.041	6.71
316.253	6.99
316.465	7.31
316.677	7.68
316.888	7.92
317.1	7.71
317.312	7.06
317.524	7.17
317.736	7.22
317.947	7.21
318.159	7.36
318.371	7.75
318.583	8.17
318.794	7.46
319.006	7.38
319.218	7.28
319.43	7.59
319.641	7.95
319.853	7.56
320.064	7.7
320.276	7.93
320.488	7.33
320.699	7.38
320.911	7.18
321.123	7.5
321.334	7.47
321.546	8.08
321.757	7.67
321.969	7.38
322.18	7.98
322.392	7.98
322.603	7.99
322.815	8.03
323.026	7.6
323.238	7.63
323.449	7.73
323.661	7.71
323.872	7.12
324.083	7.56
324.295	7.56
324.506	7.1
324.718	6.8
324.929	6.79
325.14	7.26
325.352	7.41
325.563	7.04
325.774	7.06
325.986	7.11
326.197	7.22
326.408	6.88
326.62	7.03
326.831	7.32
327.042	7.51
327.253	7.59
327.464	7.23
327.676	7.49
327.887	7.74
328.098	7.86
328.309	7.82
328.52	7.97
328.732	8.21
328.943	8.36
329.154	8.43
329.365	8.35
329.576	8.32
329.787	8.65
329.998	8.72
330.209	8.77
330.42	8.71
330.631	8.96
330.842	8.84
331.053	8.64
331.264	8.39
331.475	8.73
331.686	8.8
331.897	8.73
332.108	8.9
332.319	8.55
332.53	8.76
332.741	8.82
332.952	8.57
333.163	8.6
333.374	8.83
333.585	8.63
333.795	8.06
334.006	8.41
334.217	8.62
334.428	8.12
334.639	8.43
334.849	8.13
335.06	8.01
335.271	7.95
335.482	8.41
335.692	8.57
335.903	9.01
336.114	9.25
336.325	8.67
336.535	8.49
336.746	8.79
336.957	8.51
337.167	8.65
337.378	8.42
337.589	8.64
337.799	8.57
338.01	8.56
338.22	8.6
338.431	8.23
338.642	8.69
338.852	8.52
339.063	8.4
339.273	8.36
339.484	8.28
339.694	8.47
339.905	8.68
340.115	8
340.326	7.37
340.536	7.55
340.746	7.7
340.957	7.65
341.167	7.78
341.378	8.14
341.588	8.28
341.799	8.02
342.009	8.3
342.219	8.23
342.43	8.48
342.64	8.74
342.85	8.48
343.061	8.46
343.271	8.41
343.481	8.22
343.691	8.03
343.902	8.14
344.112	8.28
344.322	7.9
344.532	7.77
344.743	7.82
344.953	7.73
345.163	7.64
345.373	7.88
345.583	7.94
345.793	7.83
346.004	7.59
346.214	7.34
346.424	7.31
346.634	7.37
346.844	7.31
347.054	7.07
347.264	7.32
347.474	7.24
347.684	7.05
347.894	6.86
348.104	7.22
348.314	7.21
348.524	6.89
348.734	7.05
348.944	7.17
349.154	7.26
349.364	7.44
349.574	6.97
349.784	6.95
349.994	7.28
350.204	7.3
350.413	7.12
350.623	7.06
350.833	7.41
351.043	7.24
351.253	7.22
351.463	6.7
351.672	6.84
351.882	6.92
352.092	7.2
352.302	6.82
352.511	6.87
352.721	6.74
352.931	6.77
353.141	6.7
353.35	6.9
353.56	6.88
353.77	7.38
353.979	7.26
354.189	7.62
354.399	7.38
354.608	7.15
354.818	7.01
355.027	7.03
355.237	7.2
355.447	7.15
355.656	6.84
355.866	6.9
356.075	6.83
356.285	6.65
356.494	6.3
356.704	6.26
356.913	6.41
357.123	6.34
357.332	6.16
357.542	6.05
357.751	6.13
357.96	6.09
358.17	5.85
358.379	5.91
358.589	5.95
358.798	6.09
359.007	6.03
359.217	6.05
359.426	5.97
359.635	6.22
359.845	6.07
360.054	6.15
360.263	6.32
360.472	6.28
360.682	6.17
360.891	6.16
361.1	5.93
361.309	6.08
361.519	6.16
361.728	6.41
361.937	6.34
362.146	6.56
362.355	6.51
362.564	6.63
362.774	6.73
362.983	6.59
363.192	6.67
363.401	6.95
363.61	6.94
363.819	6.9
364.028	6.7
364.237	6.78
364.446	6.57
364.655	6.4
364.864	6.12
365.073	5.95
365.282	6.3
365.491	6.4
365.7	6.3
365.909	6.23
366.118	6.43
366.327	6.34
366.536	6.2
366.745	6.36
366.954	6.62
367.162	6.72
367.371	6.66
367.58	6.57
367.789	6.1
367.998	5.93
368.207	5.96
368.415	5.54
368.624	5.91
368.833	5.98
369.042	5.93
369.25	5.92
369.459	5.77
369.668	6.1
369.877	5.76
370.085	5.79
370.294	6.01
370.503	5.84
370.711	6.04
370.92	5.97
371.129	5.99
371.337	5.96
371.546	5.77
371.754	6.05
371.963	5.81
372.171	5.74
372.38	5.82
372.589	5.65
372.797	5.99
373.006	5.83
373.214	5.66
373.423	5.76
373.631	5.81
373.84	5.72
374.048	5.47
374.256	5.51
374.465	5.89
374.673	6
374.882	5.69
375.09	5.56
375.298	5.62
375.507	5.68
375.715	5.36
375.923	5.25
376.132	5.28
376.34	5.17
376.548	5.26
376.757	4.95
376.965	4.99
377.173	5.2
377.381	5.13
377.59	5.12
377.798	5.05
378.006	5.28
378.214	5.21
378.423	5.21
378.631	5.2
378.839	5.23
379.047	5.52
379.255	5.13
379.463	5.18
379.671	5.03
379.879	4.7
380.088	4.78
380.296	4.77
380.504	4.84
380.712	4.79
380.92	4.73
381.128	4.5
381.336	4.23
381.544	4.59
381.752	4.64
381.96	4.76
382.168	4.92
382.376	4.77
382.584	4.66
382.791	4.44
382.999	4.38
383.207	4.41
383.415	4.67
383.623	4.82
383.831	4.62
384.039	4.49
384.247	4.53
384.454	4.54
384.662	4.57
384.87	4.5
385.078	4.75
385.285	4.71
385.493	4.91
385.701	4.59
385.909	4.46
386.116	4.55
386.324	4.69
386.532	4.49
386.739	4.41
386.947	4.48
387.155	4.54
387.362	4.59
387.57	4.58
387.778	4.35
387.985	4.47
388.193	4.64
388.4	4.57
388.608	4.62
388.816	4.81
389.023	4.91
389.231	4.89
389.438	4.72
389.646	4.73
389.853	4.94
390.061	4.98
390.268	5.02
390.475	4.91
390.683	4.9
390.89	4.78
391.098	4.68
391.305	4.74
391.512	4.58
391.72	4.58
391.927	4.49
392.135	4.44
392.342	4.54
392.549	4.45
392.756	4.38
392.964	4.48
393.171	4.49
393.378	4.51
393.586	4.42
393.793	4.45
394	4.56
394.207	4.43
394.414	4.46
394.622	4.43
394.829	4.55
395.036	4.53
395.243	4.44
395.45	4.68
395.657	4.69
395.864	4.5
396.072	4.7
396.279	4.64
396.486	4.76
396.693	4.7
396.9	4.74
397.107	4.67
397.314	4.63
397.521	4.78
397.728	4.67
397.935	4.5
398.142	4.72
398.349	4.45
398.556	4.46
398.763	4.39
398.97	4.42
399.177	4.28
399.383	4.34
399.59	4.33
399.797	4.21
400.004	4.09
400.211	4.2
400.418	4.24
400.625	4.34
400.831	4.35
401.038	4.31
401.245	4.18
401.452	4.12
401.658	3.99
401.865	4.04
402.072	3.97
402.279	3.89
402.485	3.72
402.692	3.6
402.899	3.54
403.105	3.62
403.312	3.71
403.519	3.66
403.725	3.61
403.932	3.7
404.138	3.78
404.345	3.84
404.552	3.89
404.758	4.07
404.965	4.1
405.171	4.09
405.378	3.92
405.584	3.96
405.791	3.99
405.997	4.08
406.204	4.17
406.41	4.11
406.617	4.12
406.823	4.11
407.029	4.02
407.236	3.98
407.442	3.97
407.649	4.05
407.855	3.95
408.061	4.02
408.268	4.1
408.474	3.78
408.68	3.79
408.887	3.76
409.093	3.79
409.299	3.87
409.505	3.71
409.712	3.8
409.918	3.76
410.124	3.69
410.33	3.62
410.537	3.65
410.743	3.82
410.949	3.7
411.155	3.67
411.361	3.69
411.567	3.61
411.773	3.7
411.98	3.61
412.186	3.67
412.392	3.68
412.598	3.71
412.804	3.68
413.01	3.69
413.216	3.7
413.422	3.73
413.628	3.53
413.834	3.53
414.04	3.57
414.246	3.66
414.452	3.7
414.658	3.64
414.864	3.6
415.07	3.52
415.275	3.46
415.481	3.54
415.687	3.42
415.893	3.48
416.099	3.43
416.305	3.46
416.511	3.34
416.716	3.22
416.922	3.24
417.128	3.35
417.334	3.28
417.539	3.31
417.745	3.27
417.951	3.32
418.157	3.36
418.362	3.43
418.568	3.45
418.774	3.5
418.979	3.55
419.185	3.61
419.391	3.51
419.596	3.51
419.802	3.47
420.008	3.48
420.213	3.5
420.419	3.55
420.624	3.61
420.83	3.5
421.035	3.53
421.241	3.51
421.446	3.43
421.652	3.41
421.857	3.45
422.063	3.42
422.268	3.4
422.474	3.29
422.679	3.16
422.885	3.05
423.09	3.1
423.295	3.02
423.501	3.01
423.706	3.02
423.911	3.03
424.117	3.03
424.322	3.13
424.527	3.17
424.733	3.26
424.938	3.37
425.143	3.43
425.349	3.41
425.554	3.45
425.759	3.55
425.964	3.61
426.169	3.61
426.375	3.69
426.58	3.53
426.785	3.58
426.99	3.68
427.195	3.62
427.4	3.49
427.605	3.58
427.811	3.55
428.016	3.6
428.221	3.62
428.426	3.57
428.631	3.51
428.836	3.56
429.041	3.43
429.246	3.32
429.451	3.41
429.656	3.46
429.861	3.43
430.066	3.51
430.271	3.34
430.476	3.2
430.681	3.26
430.886	3.26
431.09	3.29
431.295	3.36
431.5	3.36
431.705	3.24
431.91	3.34
432.115	3.28
432.32	3.25
432.524	3.28
432.729	3.41
432.934	3.4
433.139	3.49
433.343	3.49
433.548	3.39
433.753	3.37
433.958	3.47
434.162	3.42
434.367	3.43
434.572	3.45
434.776	3.47
434.981	3.41
435.186	3.47
435.39	3.45
435.595	3.44
435.799	3.5
436.004	3.39
436.209	3.3
436.413	3.28
436.618	3.28
436.822	3.24
437.027	3.2
437.231	3.16
437.436	3.15
437.64	3.07
437.845	2.99
438.049	2.97
438.253	3.12
438.458	3.11
438.662	3.11
438.867	3.18
439.071	3.2
439.275	3.21
439.48	3.25
439.684	3.22
439.888	3.24
440.093	3.32
440.297	3.32
440.501	3.28
440.706	3.32
440.91	3.36
441.114	3.24
441.318	3.22
441.523	3.24
441.727	3.17
441.931	3.23
442.135	3.21
442.339	3.16
442.543	3.12
442.748	3.16
442.952	3.2
443.156	3.13
443.36	3.14
443.564	3.18
443.768	3.18
443.972	3.28
444.176	3.1
444.38	3.04
444.584	3.11
444.788	3.11
444.992	3.08
445.196	3.07
445.4	3.07
445.604	3.03
445.808	2.99
446.012	2.94
446.216	2.91
446.42	3.02
446.624	3.07
446.828	3.03
447.032	3.04
447.235	3.01
447.439	3.04
447.643	3.09
447.847	3.13
448.051	3.19
448.254	3.18
448.458	3.2
448.662	3.23
448.866	3.21
449.069	3.2
449.273	3.25
449.477	3.32
449.681	3.23
449.884	3.12
450.088	3.18
450.292	3.08
450.495	3.06
450.699	3
450.902	2.98
451.106	2.96
451.31	3.03
451.513	2.96
451.717	2.93
451.92	2.97
452.124	3.04
452.327	3.05
452.531	3.01
452.734	3.13
452.938	3.13
453.141	3.03
453.345	3.01
453.548	2.89
453.752	2.88
453.955	2.85
454.158	2.81
454.362	2.73
454.565	2.66
454.769	2.81
454.972	2.76
455.175	2.78
455.379	2.91
455.582	2.92
455.785	2.89
455.988	2.97
456.192	2.97
456.395	2.93
456.598	2.97
456.801	3.03
457.005	2.97
457.208	2.97
457.411	2.97
457.614	2.88
457.817	2.91
458.021	2.89
458.224	2.87
458.427	2.88
458.63	2.9
458.833	2.86
459.036	2.84
459.239	2.8
459.442	2.8
459.645	2.73
459.848	2.77
460.051	2.73
460.254	2.75
460.457	2.72
460.66	2.66
460.863	2.67
461.066	2.82
461.269	2.86
461.472	2.92
461.675	2.98
461.878	3.11
462.081	3.08
462.284	3.14
462.486	3.18
462.689	3.26
462.892	3.35
463.095	3.37
463.298	3.28
463.5	3.3
463.703	3.32
463.906	3.32
464.109	3.25
464.311	3.25
464.514	3.31
464.717	3.4
464.92	3.39
465.122	3.35
465.325	3.36
465.528	3.43
465.73	3.45
465.933	3.45
466.135	3.49
466.338	3.52
466.541	3.59
466.743	3.56
466.946	3.59
467.148	3.59
467.351	3.57
467.553	3.54
467.756	3.43
467.958	3.38
468.161	3.35
468.363	3.3
468.566	3.23
468.768	3.22
468.971	3.22
469.173	3.08
469.375	3.07
469.578	2.99
469.78	2.93
469.983	3.03
470.185	3.02
470.387	3.02
470.59	3.01
470.792	3.15
470.994	3.1
471.196	3.08
471.399	3.2
471.601	3.18
471.803	3.3
472.005	3.33
472.208	3.23
472.41	3.3
472.612	3.27
472.814	3.26
473.016	3.36
473.218	3.42
473.421	3.37
473.623	3.29
473.825	3.25
474.027	3.2
474.229	3.18
474.431	3.27
474.633	3.2
474.835	3.27
475.037	3.23
475.239	3.07
475.441	3.01
475.643	3.08
475.845	3.16
476.047	3.18
476.249	3.21
476.451	3.25
476.653	3.18
476.855	3.2
477.057	3.15
477.258	3.15
477.46	3.17
477.662	3.24
477.864	3.18
478.066	3.09
478.268	3.14
478.469	3.16
478.671	3.08
478.873	3.14
479.075	3.09
479.276	3.11
479.478	3.13
479.68	3.08
479.882	3.02
480.083	3.07
480.285	3.11
480.487	3.04
480.688	3.03
480.89	3.08
481.091	3.04
481.293	3.02
481.495	3.02
481.696	3
481.898	2.96
482.099	2.95
482.301	2.95
482.502	2.93
482.704	2.93
482.905	2.92
483.107	2.9
483.308	2.9
483.51	2.91
483.711	2.88
483.913	2.89
484.114	2.94
484.315	2.97
484.517	2.97
484.718	2.95
484.92	2.96
485.121	2.95
485.322	2.96
485.524	2.97
485.725	2.98
485.926	2.96
486.127	2.96
486.329	2.92
486.53	2.91
486.731	2.89
486.932	2.95
487.134	2.95
487.335	2.95
487.536	2.94
487.737	2.91
487.938	2.91
488.139	2.94
488.341	2.95
488.542	2.97
488.743	2.98
488.944	2.99
489.145	3.01
489.346	2.98
489.547	2.99
489.748	3.02
489.949	3.04
490.15	3.05
490.351	3.04
490.552	3.06
490.753	3.03
490.954	3.04
491.155	3.06
491.356	3.02
491.557	3.05
491.758	3.09
491.959	3.11
492.159	3.13
492.36	3.15
492.561	3.2
492.762	3.22
492.963	3.27
493.164	3.27
493.364	3.34
493.565	3.33
493.766	3.37
493.967	3.4
494.167	3.41
494.368	3.42
494.569	3.39
494.769	3.32
494.97	3.41
495.171	3.41
495.371	3.38
495.572	3.36
495.773	3.37
495.973	3.33
496.174	3.31
496.375	3.31
496.575	3.32
496.776	3.32
496.976	3.42
497.177	3.36
497.377	3.4
497.578	3.42
497.778	3.37
497.979	3.4
498.179	3.43
498.38	3.51
498.58	3.49
498.78	3.51
498.981	3.5
499.181	3.5
499.382	3.46
499.582	3.5
499.782	3.55
499.983	3.56
500.183	3.64
500.383	3.72
500.584	3.7
500.784	3.75
500.984	3.72
501.184	3.83
501.385	3.85
501.585	3.9
501.785	3.93
501.985	3.96
502.185	3.95
502.386	3.85
502.586	3.71
502.786	3.66
502.986	3.74
503.186	3.76
503.386	3.75
503.586	3.79
503.786	3.85
503.987	3.79
504.187	3.76
504.387	3.87
504.587	3.95
504.787	4
504.987	4.1
505.187	4.16
505.387	4.18
505.587	4.23
505.786	4.22
505.986	4.18
506.186	4.32
506.386	4.4
506.586	4.41
506.786	4.42
506.986	4.43
507.186	4.39
507.386	4.31
507.585	4.3
507.785	4.31
507.985	4.33
508.185	4.36
508.384	4.31
508.584	4.26
508.784	4.25
508.984	4.25
509.183	4.29
509.383	4.34
509.583	4.36
509.782	4.4
509.982	4.38
510.182	4.37
510.381	4.32
510.581	4.34
510.781	4.42
510.98	4.44
511.18	4.51
511.379	4.52
511.579	4.61
511.778	4.66
511.978	4.63
512.177	4.63
512.377	4.64
512.576	4.73
512.776	4.73
512.975	4.73
513.175	4.7
513.374	4.71
513.573	4.71
513.773	4.66
513.972	4.66
514.172	4.76
514.371	4.83
514.57	4.91
514.77	4.96
514.969	5.01
515.168	5.01
515.367	5.05
515.567	5.06
515.766	5.14
515.965	5.12
516.164	5.1
516.364	5.13
516.563	5.14
516.762	5.16
516.961	5.25
517.16	5.26
517.359	5.3
517.559	5.32
517.758	5.34
517.957	5.36
518.156	5.38
518.355	5.44
518.554	5.47
518.753	5.55
518.952	5.6
519.151	5.51
519.35	5.52
519.549	5.5
519.748	5.49
519.947	5.53
520.146	5.58
520.345	5.62
520.544	5.62
520.743	5.67
520.942	5.61
521.141	5.55
521.339	5.68
521.538	5.74
521.737	5.74
521.936	5.81
522.135	5.8
522.333	5.8
522.532	5.76
522.731	5.79
522.93	5.77
523.129	5.79
523.327	5.83
523.526	5.81
523.725	5.84
523.923	5.91
524.122	5.87
524.321	5.91
524.519	5.9
524.718	5.99
524.917	6.02
525.115	6.09
525.314	6.09
525.512	6.1
525.711	6.05
525.909	6.04
526.108	6.05
526.306	6.11
526.505	6.1
526.703	6.14
526.902	6.14
527.1	6.15
527.299	6.12
527.497	6.18
527.696	6.23
527.894	6.29
528.092	6.3
528.291	6.32
528.489	6.32
528.688	6.38
528.886	6.43
529.084	6.47
529.283	6.5
529.481	6.56
529.679	6.53
529.877	6.55
530.076	6.55
530.274	6.63
530.472	6.65
530.67	6.71
530.869	6.7
531.067	6.71
531.265	6.69
531.463	6.74
531.661	6.76
531.859	6.84
532.057	6.8
532.255	6.8
532.454	6.84
532.652	6.85
532.85	6.85
533.048	6.93
533.246	6.94
533.444	6.99
533.642	6.96
533.84	6.99
534.038	7.01
534.236	7.08
534.434	7.17
534.632	7.14
534.83	7.18
535.027	7.3
535.225	7.25
535.423	7.29
535.621	7.31
535.819	7.43
536.017	7.46
536.215	7.42
536.412	7.44
536.61	7.52
536.808	7.59
537.006	7.62
537.203	7.62
537.401	7.67
537.599	7.63
537.797	7.65
537.994	7.64
538.192	7.63
538.39	7.69
538.587	7.66
538.785	7.6
538.983	7.55
539.18	7.54
539.378	7.51
539.575	7.49
539.773	7.55
539.97	7.53
540.168	7.52
540.366	7.51
540.563	7.58
540.761	7.61
540.958	7.66
541.155	7.71
541.353	7.75
541.55	7.79
541.748	7.83
541.945	7.86
542.143	7.88
542.34	7.92
542.537	8
542.735	7.99
542.932	8
543.129	8.01
543.327	8.01
543.524	8.07
543.721	8.07
543.919	8.16
544.116	8.19
544.313	8.33
544.51	8.32
544.708	8.34
544.905	8.37
545.102	8.45
545.299	8.5
545.496	8.56
545.693	8.55
545.891	8.66
546.088	8.64
546.285	8.66
546.482	8.65
546.679	8.76
546.876	8.77
547.073	8.85
547.27	8.9
547.467	8.92
547.664	8.95
547.861	8.98
548.058	8.98
548.255	9.12
548.452	9.19
548.649	9.28
548.846	9.29
549.043	9.31
549.24	9.26
549.437	9.22
549.633	9.26
549.83	9.24
550.027	9.34
550.224	9.34
550.421	9.26
550.618	9.22
550.814	9.08
551.011	9.16
551.208	9.22
551.405	9.23
551.601	9.36
551.798	9.4
551.995	9.49
552.191	9.53
552.388	9.6
552.585	9.6
552.781	9.66
552.978	9.85
553.175	9.88
553.371	9.87
553.568	9.96
553.764	10
553.961	10.01
554.157	10
554.354	9.94
554.55	9.98
554.747	10.1
554.943	10.17
555.14	10.23
555.336	10.21
555.533	10.31
555.729	10.38
555.926	10.27
556.122	10.41
556.318	10.45
556.515	10.51
556.711	10.51
556.907	10.55
557.104	10.65
557.3	10.55
557.496	10.56
557.693	10.61
557.889	10.67
558.085	10.67
558.281	10.57
558.478	10.64
558.674	10.63
558.87	10.73
559.066	10.81
559.262	10.71
559.459	10.73
559.655	10.75
559.851	10.75
560.047	10.82
560.243	10.97
560.439	11.03
560.635	11.08
560.831	11.14
561.027	11.14
561.223	11.09
561.419	11.17
561.615	11.26
561.811	11.4
562.007	11.42
562.203	11.43
562.399	11.34
562.595	11.35
562.791	11.43
562.987	11.53
563.183	11.56
563.379	11.67
563.575	11.7
563.771	11.78
563.966	11.76
564.162	11.81
564.358	11.77
564.554	11.87
564.75	11.96
564.945	11.93
565.141	11.93
565.337	11.89
565.533	11.91
565.728	11.97
565.924	11.96
566.12	12.05
566.315	12.16
566.511	12.2
566.707	12.25
566.902	12.28
567.098	12.34
567.293	12.47
567.489	12.51
567.684	12.48
567.88	12.44
568.076	12.47
568.271	12.4
568.467	12.35
568.662	12.43
568.858	12.5
569.053	12.48
569.248	12.49
569.444	12.47
569.639	12.53
569.835	12.66
570.03	12.64
570.225	12.68
570.421	12.8
570.616	12.79
570.812	12.85
571.007	12.88
571.202	12.89
571.397	13.03
571.593	13.01
571.788	13.01
571.983	13
572.178	13.16
572.374	13.21
572.569	13.26
572.764	13.37
572.959	13.33
573.154	13.3
573.35	13.41
573.545	13.31
573.74	13.37
573.935	13.32
574.13	13.29
574.325	13.22
574.52	13.26
574.715	13.23
574.91	13.19
575.105	13.28
575.3	13.28
575.495	13.32
575.69	13.36
575.885	13.44
576.08	13.54
576.275	13.63
576.47	13.73
576.665	13.73
576.86	13.84
577.055	13.84
577.25	13.88
577.444	13.95
577.639	14.02
577.834	14.06
578.029	13.98
578.224	14.09
578.418	14.1
578.613	14.34
578.808	14.48
579.003	14.3
579.197	14.36
579.392	14.36
579.587	14.53
579.781	14.43
579.976	14.47
580.171	14.53
580.365	14.68
580.56	14.75
580.755	14.53
580.949	14.56
581.144	14.61
581.338	14.68
581.533	14.75
581.727	14.78
581.922	14.81
582.116	14.96
582.311	15.09
582.505	14.92
582.7	14.85
582.894	15
583.089	14.86
583.283	15.01
583.478	15.17
583.672	15.12
583.866	15.1
584.061	15.15
584.255	14.95
584.449	14.96
584.644	15.12
584.838	15.11
585.032	15.2
585.226	15.31
585.421	15.32
585.615	15.25
585.809	15.22
586.003	15.16
586.198	15.31
586.392	15.44
586.586	15.48
586.78	15.46
586.974	15.49
587.168	15.38
587.363	15.53
587.557	15.48
587.751	15.47
587.945	15.54
588.139	15.54
588.333	15.51
588.527	15.47
588.721	15.38
588.915	15.45
589.109	15.62
589.303	15.72
589.497	15.49
589.691	15.63
589.885	15.65
590.079	15.72
590.273	15.73
590.466	15.74
590.66	15.79
590.854	15.88
591.048	15.84
591.242	15.78
591.436	15.65
591.629	15.78
591.823	15.72
592.017	15.79
592.211	15.8
592.404	15.86
592.598	15.89
592.792	15.91
592.986	15.88
593.179	15.9
593.373	15.89
593.567	15.93
593.76	15.9
593.954	15.93
594.147	15.99
594.341	15.94
594.535	15.88
594.728	15.8
594.922	15.79
595.115	15.74
595.309	15.82
595.502	15.79
595.696	15.88
595.889	15.87
596.083	15.93
596.276	15.87
596.47	15.94
596.663	15.95
596.856	16.03
597.05	16.14
597.243	16.29
597.437	16.31
597.63	16.38
597.823	16.42
598.017	16.46
598.21	16.49
598.403	16.46
598.596	16.41
598.79	16.39
598.983	16.31
599.176	16.27
599.369	16.35
599.563	16.35
599.756	16.43
599.949	16.31
600.142	16.3
600.335	16.29
600.528	16.34
600.722	16.42
600.915	16.52
601.108	16.73
601.301	16.84
601.494	16.76
601.687	16.6
601.88	16.58
602.073	16.59
602.266	16.79
602.459	16.79
602.652	16.83
602.845	16.91
603.038	16.97
603.231	16.89
603.424	16.84
603.617	16.76
603.809	16.9
604.002	16.92
604.195	17
604.388	16.91
604.581	16.83
604.774	16.83
604.966	16.69
605.159	16.66
605.352	16.6
605.545	16.66
605.737	16.72
605.93	16.73
606.123	16.86
606.316	16.75
606.508	16.81
606.701	17.02
606.894	17.05
607.086	17.19
607.279	17.33
607.471	17.43
607.664	17.48
607.857	17.38
608.049	17.51
608.242	17.53
608.434	17.55
608.627	17.56
608.819	17.6
609.012	17.56
609.204	17.64
609.397	17.62
609.589	17.62
609.782	17.54
609.974	17.64
610.166	17.51
610.359	17.42
610.551	17.5
610.743	17.52
610.936	17.41
611.128	17.51
611.32	17.53
611.513	17.51
611.705	17.51
611.897	17.44
612.09	17.55
612.282	17.66
612.474	17.61
612.666	17.76
612.858	17.9
613.051	18.05
613.243	17.98
613.435	17.87
613.627	17.81
613.819	17.8
614.011	18.17
614.203	18.3
614.395	18.28
614.588	18.42
614.78	18.35
614.972	18.29
615.164	18.11
615.356	18.09
615.548	18.13
615.74	18.27
615.932	18.43
616.124	18.21
616.315	18.32
616.507	18.31
616.699	18.19
616.891	18.14
617.083	18.15
617.275	18.21
617.467	18.46
617.659	18.6
617.85	18.56
618.042	18.49
618.234	18.39
618.426	18.3
618.618	18.35
618.809	18.47
619.001	18.5
619.193	18.47
619.384	18.54
619.576	18.46
619.768	18.33
619.959	18.3
620.151	18.25
620.343	18.35
620.534	18.13
620.726	18.11
620.917	18.23
621.109	18.31
621.301	18.37
621.492	18.52
621.684	18.37
621.875	18.31
622.067	18.29
622.258	18.29
622.45	18.31
622.641	18.21
622.832	18.07
623.024	17.88
623.215	17.89
623.407	17.94
623.598	17.88
623.789	17.98
623.981	17.86
624.172	17.93
624.363	17.96
624.555	18.03
624.746	18.18
624.937	18.33
625.129	18.5
625.32	18.45
625.511	18.38
625.702	18.24
625.893	18.32
626.085	18.56
626.276	18.54
626.467	18.57
626.658	18.49
626.849	18.6
627.04	18.63
627.231	18.51
627.422	18.51
627.614	18.48
627.805	18.55
627.996	18.46
628.187	18.38
628.378	18.36
628.569	18.43
628.76	18.36
628.951	18.32
629.142	18.3
629.332	18.34
629.523	18.33
629.714	18.23
629.905	18.35
630.096	18.51
630.287	18.55
630.478	18.51
630.669	18.43
630.859	18.73
631.05	18.73
631.241	18.7
631.432	18.8
631.623	18.81
631.813	18.91
632.004	18.79
632.195	18.68
632.385	18.85
632.576	18.91
632.767	19.03
632.957	19.1
633.148	19.21
633.339	19.29
633.529	19.3
633.72	19.36
633.91	19.45
634.101	19.55
634.292	19.61
634.482	19.52
634.673	19.68
634.863	19.54
635.054	19.45
635.244	19.42
635.435	19.46
635.625	19.36
635.815	19.37
636.006	19.37
636.196	19.3
636.387	19.32
636.577	19.26
636.767	19.44
636.958	19.73
637.148	19.69
637.338	19.75
637.529	19.81
637.719	19.95
637.909	20.03
638.099	19.98
638.29	20.15
638.48	20.34
638.67	20.43
638.86	20.3
639.05	20.09
639.241	20.26
639.431	20.15
639.621	20.01
639.811	19.89
640.001	19.77
640.191	19.87
640.381	19.83
640.571	19.53
640.761	19.57
640.951	19.41
641.141	19.57
641.331	19.3
641.521	19.44
641.711	19.41
641.901	19.35
642.091	19.48
642.281	19.33
642.471	19.15
642.661	19.29
642.851	19.41
643.041	19.17
643.231	18.95
643.42	19.09
643.61	18.72
643.8	18.75
643.99	18.97
644.18	19.07
644.369	19.32
644.559	19.63
644.749	19.5
644.939	19.06
645.128	19.43
645.318	19.45
645.508	19.21
645.697	19.64
645.887	19.75
646.076	19.61
646.266	19.51
646.456	19.43
646.645	19.42
646.835	19.64
647.024	19.92
647.214	19.83
647.403	19.84
647.593	20.04
647.782	19.94
647.972	19.86
648.161	20.17
648.351	20.1
648.54	20.12
648.73	19.99
648.919	19.83
649.108	19.86
649.298	19.77
649.487	19.92
649.677	19.79
649.866	19.65
650.055	19.85
650.244	19.67
650.434	19.72
650.623	19.76
650.812	19.73
651.002	19.7
651.191	19.6
651.38	19.76
651.569	19.78
651.758	19.94
651.947	20.01
652.137	19.84
652.326	19.62
652.515	19.63
652.704	19.7
652.893	19.83
653.082	19.98
653.271	20.18
653.46	20.21
653.649	20.11
653.838	20.14
654.027	20.34
654.216	20.27
654.405	20.51
654.594	20.52
654.783	20.43
654.972	20.23
655.161	20.12
655.35	19.82
655.539	19.65
655.728	19.61
655.916	19.7
656.105	19.58
656.294	19.61
656.483	19.61
656.672	19.64
656.86	19.59
657.049	19.82
657.238	20.03
657.427	20.11
657.615	20.12
657.804	20.39
657.993	20.42
658.181	20.39
658.37	20.34
658.559	20.28
658.747	20.29
658.936	20.34
659.125	20.45
659.313	20.38
659.502	20.48
659.69	20.62
659.879	20.7
660.067	20.53
660.256	20.66
660.444	20.89
660.633	21.04
660.821	21.08
661.01	20.91
661.198	20.66
661.387	20.63
661.575	20.54
661.763	20.86
661.952	20.63
662.14	20.69
662.328	20.5
662.517	20.27
662.705	20.24
662.893	20.21
663.082	20.64
663.27	20.8
663.458	20.82
663.646	20.83
663.834	20.43
664.023	20.59
664.211	20.84
664.399	21.33
664.587	21.31
664.775	21.18
664.963	21.17
665.152	20.83
665.34	20.73
665.528	20.68
665.716	20.86
665.904	20.96
666.092	20.81
666.28	20.58
666.468	20.4
666.656	20.48
666.844	20.74
667.032	20.96
667.22	21.27
667.408	21.39
667.596	21.39
667.784	21.46
667.971	21.48
668.159	21.4
668.347	21.37
668.535	21.28
668.723	21.44
668.911	21.58
669.098	21.54
669.286	21.29
669.474	21.31
669.662	21.38
669.849	21.2
670.037	21.1
670.225	21.24
670.413	21.27
670.6	21.63
670.788	21.51
670.976	21.25
671.163	21.12
671.351	21.44
671.538	21.36
671.726	21.16
671.913	21.25
672.101	21.42
672.289	21.24
672.476	21.21
672.664	20.72
672.851	20.7
673.039	20.71
673.226	20.8
673.413	20.4
673.601	20.55
673.788	20.87
673.976	20.96
674.163	20.74
674.35	20.7
674.538	20.93
674.725	21.16
674.912	21.23
675.1	21.09
675.287	21.3
675.474	21.55
675.662	21.47
675.849	21.28
676.036	21.19
676.223	21.33
676.411	21.59
676.598	21.53
676.785	21.64
676.972	21.64
677.159	22.04
677.346	21.92
677.533	21.98
677.721	22.02
677.908	22.35
678.095	22.54
678.282	22.59
678.469	22.48
678.656	22.52
678.843	22.33
679.03	22.25
679.217	22.07
679.404	22.07
679.591	22.21
679.778	22.24
679.964	21.89
680.151	21.77
680.338	21.61
680.525	21.56
680.712	21.29
680.899	21.37
681.086	21.66
681.272	21.72
681.459	21.55
681.646	21.17
681.833	21.14
682.02	21.27
682.206	21.3
682.393	21.41
682.58	21.59
682.766	21.97
682.953	21.99
683.14	22.07
683.326	22.15
683.513	22.3
683.7	22.39
683.886	22.16
684.073	22.28
684.259	22.28
684.446	22.17
684.632	22.24
684.819	22.09
685.005	22.39
685.192	22.2
685.378	22.31
685.565	22.4
685.751	22.5
685.938	22.86
686.124	22.93
686.31	22.81
686.497	23.13
686.683	23.09
686.87	23.09
687.056	22.95
687.242	22.86
687.429	22.63
687.615	22.65
687.801	22.61
687.987	22.47
688.174	22.35
688.36	22.38
688.546	22.48
688.732	22.33
688.918	22.52
689.105	22.31
689.291	22.35
689.477	22.44
689.663	22.57
689.849	22.62
690.035	22.75
690.221	22.72
690.407	22.8
690.593	22.63
690.779	22.87
690.965	22.78
691.151	22.84
691.337	23.09
691.523	22.81
691.709	22.6
691.895	22.96
692.081	22.93
692.267	23.08
692.453	23.46
692.639	23.34
692.825	23.04
693.011	22.72
693.196	22.68
693.382	22.67
693.568	22.93
693.754	22.79
693.94	22.5
694.125	22.52
694.311	22.27
694.497	22
694.682	22.05
694.868	22.17
695.054	22.4
695.239	22.77
695.425	22.48
695.611	22.4
695.796	22.48
695.982	22.55
696.168	22.33
696.353	22.28
696.539	22.28
696.724	22.34
696.91	22.44
697.095	22.63
697.281	22.62
697.466	22.62
697.652	22.7
697.837	22.62
698.023	22.53
698.208	22.49
698.393	22.68
698.579	22.58
698.764	22.5
698.949	22.35
699.135	22.27
699.32	21.89
699.505	22.03
699.691	21.95
699.876	21.97
700.061	22.05
700.246	22.24
700.432	22.23
700.617	22.4
700.802	23.06
700.987	23
701.172	23.21
701.358	23.45
701.543	23.3
701.728	23.63
701.913	23.61
702.098	23.57
702.283	23.61
702.468	23.48
702.653	23.31
702.838	22.57
703.023	23.1
703.208	22.59
703.393	22.76
703.578	22.86
703.763	22.89
703.948	22.84
704.133	23.09
704.318	22.95
704.503	23.38
704.688	23.66
704.873	23.88
705.057	23.47
705.242	23.74
705.427	23.46
705.612	23.46
705.797	23.45
705.981	23.68
706.166	23.48
706.351	23.51
706.536	23.32
706.72	23.16
706.905	23.18
707.09	23.41
707.274	23.33
707.459	23.47
707.644	23.53
707.828	23.44
708.013	23.93
708.197	24.09
708.382	24.29
708.567	24.28
708.751	24.17
708.936	23.88
709.12	23.95
709.305	24.16
709.489	24.38
709.673	24.44
709.858	24.29
710.042	24.03
710.227	23.86
710.411	23.7
710.596	24.02
710.78	24.45
710.964	24.84
711.149	25.07
711.333	25.09
711.517	25.12
711.702	25.14
711.886	25.26
712.07	25.21
712.254	25.55
712.438	26.05
712.623	25.9
712.807	25.55
712.991	25.45
713.175	25.12
713.359	24.95
713.544	24.69
713.728	24.57
713.912	24.52
714.096	24.17
714.28	23.72
714.464	23.3
714.648	23.03
714.832	22.83
715.016	23.14
715.2	23.08
715.384	22.97
715.568	23.26
715.752	23.31
715.936	23.28
716.12	23.47
716.304	23.9
716.488	23.8
716.671	23.97
716.855	24.25
717.039	23.76
717.223	23.8
717.407	24.12
717.59	23.88
717.774	23.78
717.958	23.8
718.142	23.66
718.325	23.26
718.509	23.47
718.693	23.36
718.877	23.54
719.06	23.79
719.244	24.3
719.428	23.74
719.611	24.05
719.795	24.05
719.978	24.34
720.162	24.98
720.345	25.27
720.529	24.86
720.713	24.67
720.896	24.6
721.08	24.68
721.263	24.23
721.446	24.93
721.63	24.74
721.813	24.66
721.997	24.27
722.18	23.94
722.364	23.79
722.547	24.37
722.73	24.47
722.914	24.8
723.097	24.47
723.28	24.63
723.464	24
723.647	23.69
723.83	23.99
724.013	23.66
724.197	23.39
724.38	23.89
724.563	24.02
724.746	24.06
724.929	23.78
725.112	24.13
725.296	24.24
725.479	24.25
725.662	24.58
725.845	24.69
726.028	25.18
726.211	25.38
726.394	24.71
726.577	24.81
726.76	24.89
726.943	24.76
727.126	24.1
727.309	24.05
727.492	24.39
727.675	24.36
727.858	24.22
728.041	24.36
728.224	24.36
728.407	24.45
728.589	24.01
728.772	24.15
728.955	24.22
729.138	24.42
729.321	24.01
729.503	24.43
729.686	24.05
729.869	24.06
730.052	23.89
730.234	23.85
730.417	23.85
730.6	23.97
730.782	23.83
730.965	23.94
731.148	24.44
731.33	24.86
731.513	24.25
731.695	24.8
731.878	24.8
732.061	24.9
732.243	25.12
732.426	25.19
732.608	25.56
732.791	25.87
732.973	25.89
733.156	25.84
733.338	26.26
733.52	26.03
733.703	25.76
733.885	26.29
734.068	26.2
734.25	26.19
734.432	26.16
734.615	26.13
734.797	25.58
734.979	25.33
735.162	24.92
735.344	24.24
735.526	24.76
735.708	24.89
735.891	24.63
736.073	24.63
736.255	24.64
736.437	24.43
736.619	23.93
736.802	24.66
736.984	25.12
737.166	25.44
737.348	25.11
737.53	25.36
737.712	25.05
737.894	24.72
738.076	25.04
738.258	24.77
738.44	25.31
738.622	25.54
738.804	25.07
738.986	24.67
739.168	24.46
739.35	24.69
739.532	24.52
739.714	25.51
739.896	25.72
740.078	25.6
740.259	25.68
740.441	25.42
740.623	25.25
740.805	25.22
740.987	26.02
741.168	26.24
741.35	26.8
741.532	26.53
741.714	25.79
741.895	25.43
742.077	25.28
742.259	25.06
742.44	25.2
742.622	25.7
742.804	25.5
742.985	25.3
743.167	25.07
743.348	25.1
743.53	25.39
743.711	25.48
743.893	25.47
744.075	26.07
744.256	26.56
744.438	27.41
744.619	26.96
744.8	27.26
744.982	26.84
745.163	26.84
745.345	26.62
745.526	26.69
745.707	27.24
745.889	27.41
746.07	26.36
746.252	26.5
746.433	25.99
746.614	26.23
746.795	26.68
746.977	26.43
747.158	26.04
747.339	26.19
747.52	26.14
747.702	25.51
747.883	26.06
748.064	26.51
748.245	26.16
748.426	26.24
748.607	26.15
748.788	24.93
748.97	25.46
749.151	26.3
749.332	26.2
749.513	26.04
749.694	26.17
749.875	25.99
750.056	25.76
750.237	25.91
750.418	25.8
750.599	25.78
750.78	26.04
750.96	25.55
751.141	25.18
751.322	25.22
751.503	25.22
751.684	25.27
751.865	24.64
752.046	25.11
752.226	24.48
752.407	24.07
752.588	23.88
752.769	24.34
752.949	24.57
753.13	25.11
753.311	24.17
753.492	24.18
753.672	24.09
753.853	24.71
754.034	24.89
754.214	26.21
754.395	26.58
754.575	26.95
754.756	27.08
754.937	27.45
755.117	26.86
755.298	27.38
755.478	27.73
755.659	27.41
755.839	27.17
756.02	26.98
756.2	26.38
756.381	26.06
756.561	25.97
756.741	25.97
756.922	25.45
757.102	25.77
757.283	26.17
757.463	25
757.643	25.55
757.823	25.93
758.004	25.53
758.184	25.69
758.364	26.07
758.545	25.75
758.725	25.35
758.905	25.31
759.085	26.07
759.265	25.84
759.446	26.43
759.626	26.09
759.806	25.41
759.986	25.83
760.166	25.25
760.346	24.65
760.526	24.99
760.706	25.08
760.886	25.4
761.066	25.34
761.246	25.43
761.426	25.35
761.606	25.54
761.786	26.02
761.966	26
762.146	26.08
762.326	26.26
762.506	25.99
762.686	26.16
762.866	25.93
763.046	25.41
763.225	25.5
763.405	25.43
763.585	25.36
763.765	25.18
763.945	24.81
764.124	24.8
764.304	24.9
764.484	25.48
764.664	25.55
764.843	25.59
765.023	25.89
765.203	25.58
765.382	25.74
765.562	26.02
765.741	25.92
765.921	26.01
766.101	26.2
766.28	26.25
766.46	25.74
766.639	25.48
766.819	25.1
766.998	24.67
767.178	25.35
767.357	25.71
767.537	25.9
767.716	26.43
767.896	26.16
768.075	26.39
768.254	26.35
768.434	26.37
768.613	26.94
768.792	27.29
768.972	27.88
769.151	27.87
769.33	27.82
769.51	28.12
769.689	27.85
769.868	28.58
770.047	28.33
770.226	29.05
770.406	29.31
770.585	29.42
770.764	29.82
770.943	29.23
771.122	28.32
771.301	28.48
771.48	27.01
771.66	26.69
771.839	26.74
772.018	26.73
772.197	25.95
772.376	25.43
772.555	25.23
772.734	25.59
772.913	26.3
773.092	26.49
773.271	26.19
773.449	26.96
773.628	27.38
773.807	27.37
773.986	27.42
774.165	27.44
774.344	27.77
774.523	27.71
774.701	26.95
774.88	26.64
775.059	26.97
775.238	27.53
775.417	27.08
775.595	27.04
775.774	26.9
775.953	26.44
776.131	26.12
776.31	25.77
776.489	25.29
776.667	25.48
776.846	24.98
777.025	25.09
777.203	24.82
777.382	24.74
777.56	24.5
777.739	24.98
777.917	25.38
778.096	26.43
778.274	26.99
778.453	27.15
778.631	27.55
778.81	27.87
778.988	27.5
779.166	27.48
779.345	28.1
779.523	28.2
779.702	28.05
779.88	27.68
780.058	26.19
780.237	26.92
780.415	27.25
780.593	27.61
780.771	27.71
780.95	27.92
781.128	28.07
781.306	28.41
781.484	28.76
781.662	28.9
781.841	29.79
782.019	30.9
782.197	29.64
782.375	29.61
782.553	29.03
782.731	28.54
782.909	28.94
783.087	29.01
783.265	27.85
783.443	26.56
783.621	27.07
783.799	26.41
783.977	27.31
784.155	27.83
784.333	27.77
784.511	28.89
784.689	28.31
784.867	27.38
785.045	26.39
785.223	27.77
785.4	28.18
785.578	27.54
785.756	28.64
785.934	26.6
786.112	26.19
786.289	26.13
786.467	25.15
786.645	26.46
786.823	26.83
787	28.06
787.178	28.02
787.356	28.4
787.533	28.47
787.711	27.56
787.889	29.11
788.066	29.23
788.244	29.59
788.421	29.38
788.599	28.92
788.776	29.08
788.954	28.73
789.131	28.18
789.309	28.18
789.486	27.89
789.664	28.38
789.841	27.95
790.019	27.58
790.196	27.28
790.373	27.42
790.551	28.14
790.728	28.35
790.906	28.55
791.083	28.41
791.26	28.87
791.437	29.34
791.615	28.09
791.792	28.17
791.969	29.42
792.146	29.6
792.324	29.13
792.501	28.77
792.678	28.72
792.855	26.99
793.032	27.04
793.209	26.92
793.387	27.08
793.564	28.12
793.741	27.31
793.918	26.34
794.095	27.03
794.272	28.68
794.449	27.64
794.626	27.33
794.803	28.76
794.98	29.16
795.157	29.1
795.334	28.92
795.511	29.02
795.688	29.28
795.864	29.07
796.041	27.99
796.218	26.11
796.395	27.06
796.572	26.94
796.749	27.08
796.925	27.09
797.102	27.85
797.279	27.13
797.456	27.77
797.632	27.59
797.809	28.72
797.986	29.44
798.162	30.07
798.339	30.14
798.516	30.9
798.692	31.7
798.869	31.38
799.046	30.35
799.222	30.54
799.399	29.52
799.575	30.05
799.752	29.97
799.928	29.75
800.105	29.78
800.281	29.88
800.458	29.19
800.634	28.34
800.811	28.89
800.987	29.43
801.163	30.91
801.34	31.6
801.516	31.59
801.692	31.21
801.869	31.58
802.045	31.73
802.221	31.19
802.398	31.74
802.574	31.6
802.75	31.62
802.926	31.71
803.103	30.16
803.279	29.36
803.455	29.89
803.631	29.7
803.807	30.64
803.983	30.53
804.16	30.63
804.336	29.8
804.512	29.2
804.688	29.53
804.864	29.77
805.04	30.36
805.216	29.94
805.392	28.71
805.568	28.67
805.744	28.49
805.92	28.47
806.096	28.41
806.272	29.41
806.448	30.96
806.623	29.41
806.799	29.52
806.975	29.09
807.151	30.76
807.327	31.71
807.503	32.23
807.678	31.72
807.854	32.55
808.03	32.81
808.206	31.93
808.381	31.22
808.557	31.95
808.733	31
808.908	30.84
809.084	29.87
809.26	28.91
809.435	29.2
809.611	27.85
809.787	26.49
809.962	26.36
810.138	27.19
810.313	27.33
810.489	28.71
810.664	29.37
810.84	28.86
811.015	29.78
811.191	31.11
811.366	31.24
811.542	32.18
811.717	33.17
811.892	33.09
812.068	32.6
812.243	32.26
812.419	31.8
812.594	32.22
812.769	32.84
812.944	32.53
813.12	32.11
813.295	30.26
813.47	29.37
813.645	29.7
813.821	29.48
813.996	30.67
814.171	31.1
814.346	30.27
814.521	29.59
814.697	29.15
814.872	28.81
815.047	29.12
815.222	30.14
815.397	31.19
815.572	31.71
815.747	31.88
815.922	30.82
816.097	30.89
816.272	29.93
816.447	30.57
816.622	31.92
816.797	32.64
816.972	30.78
817.147	30.95
817.322	30.75
817.496	29.4
817.671	29.85
817.846	30.37
818.021	29.94
818.196	31.12
818.371	29.83
818.545	29.39
818.72	28.72
818.895	30.37
819.069	30.13
819.244	29.73
819.419	29.64
819.594	28.69
819.768	28.21
819.943	27.88
820.117	28.03
820.292	27.94
820.467	27.61
820.641	27.31
820.816	27.05
820.99	26.65
821.165	26.58
821.339	26.71
821.514	26.85
821.688	26.82
821.863	26.78
822.037	26.47
822.212	26.53
822.386	26.39
822.56	26.52
822.735	26.55
822.909	26.75
823.084	26.94
823.258	26.78
823.432	26.86
823.606	26.64
823.781	26.6
823.955	26.71
824.129	26.79
824.303	27.23
824.478	27.06
824.652	26.91
824.826	27.06
825	26.79
825.174	26.97
825.348	26.53
825.523	26.85
825.697	27.02
825.871	27.09
826.045	27.2
826.219	26.58
826.393	26.73
826.567	26.34
826.741	26.38
826.915	26.59
827.089	27.01
827.263	27.78
827.437	27.82
827.611	27.84
827.784	28.19
827.958	27.86
828.132	28.62
828.306	29.15
828.48	29.74
828.654	29.32
828.827	29.63
829.001	29.74
829.175	29.55
829.349	29.78
829.522	30.24
829.696	29.86
829.87	30.68
830.044	30.7
830.217	30.42
830.391	31.06
830.565	32.32
830.738	32.39
830.912	32.17
831.085	32.15
831.259	32.6
831.432	32.03
831.606	32.46
831.779	31.22
831.953	31.01
832.126	29.47
832.3	27.3
832.473	27.3
832.647	26.87
832.82	26.18
832.994	26.45
833.167	26.9
833.34	27.19
833.514	27.39
833.687	27.87
833.86	27.47
834.034	28.64
834.207	30.2
834.38	29.8
834.553	30.26
834.727	30.66
834.9	30.23
835.073	29.75
835.246	30.07
835.419	29.79
835.593	30.03
835.766	31.3
835.939	30.34
836.112	30.18
836.285	30.14
836.458	29.82
836.631	29.64
836.804	30.33
836.977	30.26
837.15	29.89
837.323	29.56
837.496	29.55
837.669	28.11
837.842	29.25
838.015	29.38
838.188	29.27
838.361	28.68
838.533	29.64
838.706	29.69
838.879	28.41
839.052	29.51
839.225	30.48
839.398	30.93
839.57	31.36
839.743	31.23
839.916	31.98
840.088	33.79
840.261	33.39
840.434	33.15
840.607	32.13
840.779	33.29
840.952	32.17
841.124	30.8
841.297	31.11
841.47	30.48
841.642	32.33
841.815	31.56
841.987	29.69
842.16	31.44
842.332	29.77
842.505	28.61
842.677	28.31
842.85	28.54
843.022	30.16
843.194	31
843.367	34.92
843.539	32.73
843.712	32.96
843.884	34.22
844.056	34.45
844.229	37.61
844.401	39.43
844.573	39.8
844.745	39.4
844.918	37.48
845.09	36.63
845.262	33.58
845.434	35.46
845.606	36.97
845.779	36.04
845.951	34.63
846.123	34.21
846.295	36.29
846.467	37.74
846.639	38.04
846.811	40.49
846.983	38.51
847.155	36.99
847.327	36.28
847.499	34.76
847.671	36.39
847.843	37.13
848.015	35.9
848.187	33.87
848.359	34.74
848.531	36.66
848.703	37.29
848.875	39.42
849.047	40.27
849.218	41.22
849.39	43.07
849.562	43.37
849.734	42.36
849.905	43.08
850.077	46.21
850.249	43.77
850.421	44.56
850.592	43.35
850.764	42.41
850.936	40.22
851.107	40.14
851.279	38.3
851.451	38.52
851.622	41.84
851.794	41.25
851.965	43.05
852.137	41
852.308	36.3
852.48	37.09
852.651	37.17
852.823	38.29
852.994	35.95
853.166	35.1
853.337	34.91
853.509	36.88
853.68	40.37
853.851	34.18
854.023	36.64
854.194	40.84
854.365	39.7
854.537	40.24
854.708	45.17
854.879	47.93
855.05	50.46
855.222	49.27
855.393	44.68
855.564	42.71
855.735	44.91
855.906	42.52
856.078	43.28
856.249	43.74
856.42	42.11
856.591	39.72
856.762	37.87
856.933	34.29
857.104	33.24
857.275	36.53
857.446	36.33
857.617	38.99
857.788	45.44
857.959	42.82
858.13	40.18
858.301	43.64
858.472	41.1
858.643	38.82
858.814	41.9
858.985	46.04
859.155	42.46
859.326	43.26
859.497	38.86
859.668	33.75
859.839	32.95
860.009	32.48
860.18	30.95
860.351	29.24
860.522	30.29
860.692	29.58
860.863	27
861.034	29.63
861.204	29.92
861.375	30.57
861.546	34.75
861.716	37.52
861.887	38.75
862.057	37.29
862.228	41.27
862.398	41.34
862.569	40.41
862.739	39.43
862.91	37.74
863.08	36.16
863.251	40.66
863.421	39.26
863.592	39.84
863.762	41.32
863.932	39.94
864.103	40.8
864.273	41.32
864.443	42.51
864.614	43.32
864.784	46.41
864.954	47.09
865.125	46.87
865.295	44.19
865.465	45.51
865.635	48.76
865.805	52.07
865.976	48.22
866.146	51.86
866.316	50.33
866.486	48.04
866.656	45.76
866.826	44.86
866.996	43.5
867.166	47.52
867.336	47.01
867.506	42.44
867.676	42.66
867.846	45.27
868.016	41.77
868.186	39.46
868.356	38.71
868.526	35.2
868.696	37.32
868.866	33.55
869.036	27.85
869.206	28.46
869.376	25.95
869.545	23.9
869.715	19.65
869.885	21
870.055	24.84
870.224	27.87
870.394	31.74
870.564	29.96
870.734	31.74
870.903	34.93
871.073	32.8
871.243	39.37
871.412	43.32
871.582	48.93
871.751	49.78
871.921	50.41
872.091	53.49
872.26	53.91
872.43	53.65
872.599	54.73
872.769	54.36
872.938	56.07
873.108	51.99
873.277	51
873.446	47.55
873.616	47.61
873.785	48.8
873.955	44.75
874.124	44.85
874.293	45.86
874.463	43.34
874.632	42.43
874.801	42.48
874.971	43.54
875.14	40.61
875.309	41.37
875.478	40.33
875.647	36.94
875.817	37.9
875.986	37.72
876.155	35.42
876.324	34.96
876.493	32.76
876.662	31.89
876.831	33.61
877	36.16
877.17	36.88
877.339	35.12
877.508	35.41
877.677	37.06
877.846	40.34
878.015	45.72
878.184	47.62
878.352	52.14
878.521	51.26
878.69	50.71
878.859	48.32
879.028	44.88
879.197	44.19
879.366	41.44
879.534	38.25
879.703	36.71
879.872	34.65
880.041	34.02
880.21	31.6
880.378	31.74
880.547	30.61
880.716	31.27
880.884	30.88
881.053	31.35
881.222	31.58
881.39	31.27
881.559	30.57
881.727	30.53
881.896	30.25
882.065	30.3
882.233	30.31
882.402	30.01
882.57	29.1
882.739	29.97
882.907	29.98
883.076	29.63
883.244	29.7
883.412	30.09
883.581	30.18
883.749	29.71
883.918	30.11
884.086	29.99
884.254	31.69
884.423	31.97
884.591	31.56
884.759	32.42
884.927	33.04
885.096	33.24
885.264	33.67
885.432	33.67
885.6	35.31
885.769	35.12
885.937	35.19
886.105	34.34
886.273	37.6
886.441	38.17
886.609	36.43
886.777	36.05
886.945	37.4
887.113	37.81
887.281	39.28
887.449	38.73
887.617	39.65
887.785	39.39
887.953	39.39
888.121	35.91
888.289	37.51
888.457	39.68
888.625	44.33
888.793	42.39
888.961	43.5
889.129	43.28
889.296	46.59
889.464	47.44
889.632	50.78
889.8	50.68
889.967	53.94
890.135	54.88
