Data from 2938445_Reflection_2.txt Node
Date: Fri Jun 19 18:11:48 EDT 2015
User: robert
Spectrometer: USB4E03002
Autoset integration time: false
Trigger mode: 4
Integration Time (sec): 1.000000E-1
Scans to average: 10
Electric dark correction enabled: true
Nonlinearity correction enabled: false
Boxcar width: 5
Stray light correction enabled: false
XAxis mode: Wavelengths
Stop averaging: false
Number of Pixels in Spectrum: 3648
>>>>>Begin Spectral Data<<<<<
177.575	209.39
177.794	247.46
178.014	93.88
178.233	-432.74
178.452	200
178.672	26.08
178.891	65.44
179.11	-166.94
179.33	-268.2
179.549	59.46
179.768	-188.82
179.987	-103.11
180.207	1455.17
180.426	-227.14
180.645	-5.58
180.864	-2.56
181.084	18.01
181.303	10.97
181.522	-20.37
181.741	-59.16
181.96	-137.92
182.179	-122.2
182.398	-279.77
182.618	-74.39
182.837	-158.43
183.056	-295.02
183.275	19518
183.494	891.73
183.713	-5011.66
183.932	3544.99
184.151	687.4
184.37	2273.97
184.589	464.95
184.808	312.52
185.027	299.2
185.246	342.97
185.465	516.57
185.684	1641.78
185.903	1928.81
186.122	573.64
186.341	578.37
186.56	983.68
186.779	472.11
186.998	529.81
187.216	-833.73
187.435	-251.46
187.654	-189.78
187.873	-1488.51
188.092	7146.08
188.311	2423.19
188.53	-2313.33
188.748	-600.59
188.967	-269.66
189.186	-449.69
189.405	-385.68
189.623	-1756.48
189.842	775.58
190.061	2389.47
190.28	-247.95
190.498	-530.07
190.717	-38280
190.936	-709.02
191.154	-519.76
191.373	-962.8
191.592	4.17
191.81	-37.88
192.029	-46.81
192.248	-40.99
192.466	-34.53
192.685	-92.18
192.904	-110.39
193.122	-66.07
193.341	-90.56
193.559	-166.7
193.778	-92.15
193.996	-295.42
194.215	-139.69
194.433	-78.93
194.652	-68.19
194.87	-20.99
195.089	-12.97
195.307	28.07
195.526	18.37
195.744	25.16
195.963	6.17
196.181	-21.67
196.399	-22.78
196.618	-371.87
196.836	788.5
197.055	891.8
197.273	1284.4
197.491	288.15
197.71	320.35
197.928	192.72
198.146	328.07
198.365	1084.91
198.583	230.79
198.801	229.53
199.019	772.67
199.238	466.8
199.456	2106.67
199.674	505.04
199.892	-196.97
200.111	268.86
200.329	-1117.76
200.547	372.44
200.765	612.81
200.983	-121.2
201.202	2.23
201.42	-127.44
201.638	-195.82
201.856	-127.67
202.074	-165.24
202.292	-245.88
202.51	-117.57
202.728	-271.27
202.946	-174.95
203.165	-375.45
203.383	-433.68
203.601	-471.25
203.819	-570.86
204.037	-222.59
204.255	-526.68
204.473	1455.08
204.691	787.1
204.909	-2732.29
205.127	-492.43
205.345	-369
205.562	-193.67
205.78	-436.44
205.998	-236.1
206.216	-98.04
206.434	-333.89
206.652	-166.33
206.87	-70.87
207.088	-24.6
207.306	17.89
207.523	46.23
207.741	98.12
207.959	211.45
208.177	159.28
208.395	21.4
208.612	-180.46
208.83	-83.37
209.048	-67.36
209.266	-118.16
209.483	-41.84
209.701	-301.33
209.919	-125.4
210.136	-247.21
210.354	-145.05
210.572	-162.44
210.79	-80.62
211.007	-154.98
211.225	-78.68
211.442	-79.76
211.66	-54.06
211.878	-291.57
212.095	-215.67
212.313	-236.33
212.53	-228.35
212.748	-167.94
212.966	-177.76
213.183	-198.37
213.401	-123.79
213.618	-139.47
213.836	-126.42
214.053	-85.57
214.271	-58.72
214.488	-7.29
214.705	-11.1
214.923	-1.64
215.14	-12.04
215.358	12.97
215.575	25.14
215.793	8.32
216.01	15.03
216.227	-5.84
216.445	-57.64
216.662	-96.42
216.879	-164.73
217.097	-111.79
217.314	-169.9
217.531	-155.56
217.749	-555.32
217.966	-582.47
218.183	-881.37
218.4	-448.81
218.618	-375.4
218.835	-512.06
219.052	-562.61
219.269	-254.97
219.487	-186.89
219.704	-182.57
219.921	-129.13
220.138	-44.14
220.355	-34.49
220.572	-13.4
220.79	-9.74
221.007	-5.78
221.224	-2.95
221.441	-1.82
221.658	-8.02
221.875	-22.33
222.092	-5.28
222.309	-11.75
222.526	-38.45
222.743	-30.24
222.96	-26.21
223.177	-22.07
223.394	-14.96
223.611	-3.9
223.828	-3.23
224.045	-4.34
224.262	3.72
224.479	-0.85
224.696	0.58
224.913	0.95
225.13	0.94
225.347	4.86
225.564	4.74
225.781	1.4
225.997	0.43
226.214	2.49
226.431	5.89
226.648	6.9
226.865	6.93
227.082	8.43
227.298	11.87
227.515	10.02
227.732	10.79
227.949	12.22
228.165	11.42
228.382	12.61
228.599	11.2
228.816	10.85
229.032	10.19
229.249	11.19
229.466	10.68
229.682	8.48
229.899	11.94
230.116	7.5
230.332	6.43
230.549	10.97
230.765	12
230.982	13.49
231.199	13.04
231.415	14.95
231.632	14.57
231.848	18.27
232.065	19.53
232.281	15.41
232.498	18.84
232.714	13.9
232.931	9.06
233.147	7.49
233.364	8.09
233.58	12.54
233.797	9.15
234.013	6.27
234.23	0.53
234.446	0.93
234.662	3.01
234.879	2.83
235.095	4.6
235.312	9.04
235.528	8.9
235.744	11.25
235.961	6.72
236.177	6.63
236.393	7.69
236.61	8.97
236.826	9.44
237.042	7.88
237.258	5.51
237.475	3.87
237.691	2.75
237.907	4.12
238.123	2.07
238.339	2.86
238.556	7.15
238.772	10.9
238.988	11.48
239.204	10.55
239.42	12.6
239.636	13.52
239.853	15.21
240.069	14.46
240.285	14.74
240.501	14.08
240.717	14.91
240.933	13.26
241.149	12.16
241.365	11.34
241.581	11.65
241.797	11.02
242.013	11.07
242.229	10.84
242.445	10.24
242.661	9.62
242.877	10.57
243.093	9.58
243.309	10
243.525	9.21
243.741	9.96
243.957	9.51
244.173	9.9
244.388	10.41
244.604	10.67
244.82	10.79
245.036	11.34
245.252	11.23
245.468	10.75
245.683	10.59
245.899	10.49
246.115	10.91
246.331	11.07
246.547	10.89
246.762	10.41
246.978	9.99
247.194	10.32
247.409	9.88
247.625	9.78
247.841	10.1
248.057	9.67
248.272	9.65
248.488	9.69
248.703	10.2
248.919	10.54
249.135	9.52
249.35	9.94
249.566	10.12
249.782	9.5
249.997	9.42
250.213	9.89
250.428	10.26
250.644	10.69
250.859	9.66
251.075	8.17
251.29	7.15
251.506	7.93
251.721	7.38
251.937	6.19
252.152	5.8
252.368	5.35
252.583	5.56
252.798	6.68
253.014	6.57
253.229	6.25
253.445	6.96
253.66	7.91
253.875	8.43
254.091	8.27
254.306	8.95
254.521	8.41
254.737	8.24
254.952	6.95
255.167	6.39
255.383	6.89
255.598	8.63
255.813	9.05
256.028	8.51
256.244	7.02
256.459	6.89
256.674	6.86
256.889	7.53
257.104	7.76
257.32	8.15
257.535	8.13
257.75	7.93
257.965	7.35
258.18	7.56
258.395	7.25
258.61	7.64
258.826	7.8
259.041	7.9
259.256	7.6
259.471	6.99
259.686	6.84
259.901	6.62
260.116	6.56
260.331	6.33
260.546	6.17
260.761	6
260.976	5.78
261.191	5.21
261.406	4.01
261.621	4.97
261.836	6.17
262.05	6.27
262.265	5.67
262.48	4.16
262.695	3.75
262.91	4.79
263.125	6.61
263.34	7.56
263.555	7.72
263.769	8.09
263.984	8.12
264.199	8.23
264.414	7.68
264.629	8.44
264.843	9.32
265.058	9.63
265.273	7.53
265.488	6.22
265.702	4.89
265.917	6.02
266.132	6.36
266.346	5.31
266.561	4.41
266.776	5.2
266.99	4.35
267.205	3.83
267.42	4.49
267.634	5.52
267.849	6.51
268.063	7.76
268.278	7.65
268.492	7.62
268.707	8.23
268.922	9.35
269.136	8.61
269.351	9.05
269.565	9.45
269.78	8.97
269.994	9.03
270.209	9.18
270.423	8.47
270.637	7.66
270.852	7.71
271.066	7.33
271.281	6.86
271.495	7.56
271.709	7.3
271.924	7.23
272.138	7.43
272.353	7.24
272.567	6.53
272.781	6.8
272.996	7.51
273.21	7.47
273.424	8.03
273.638	7.76
273.853	6.79
274.067	7.2
274.281	6.85
274.495	7.08
274.71	7.01
274.924	6.71
275.138	7.15
275.352	6.67
275.566	7.47
275.781	7.97
275.995	8.35
276.209	8.88
276.423	8.9
276.637	8.66
276.851	8.45
277.065	7.72
277.279	7.94
277.493	7.62
277.707	7.39
277.921	6.96
278.135	6.5
278.349	6.4
278.563	6.51
278.777	6.55
278.991	7.33
279.205	6.5
279.419	5.99
279.633	6.1
279.847	6.23
280.061	7.1
280.275	7.08
280.489	6.58
280.703	7.02
280.917	7.38
281.131	7.11
281.344	6.68
281.558	7.39
281.772	7.88
281.986	7.48
282.2	7.72
282.414	7.12
282.627	6.96
282.841	7.73
283.055	7.42
283.269	7.2
283.482	7.73
283.696	7.87
283.91	8.39
284.123	8.71
284.337	9.03
284.551	8.07
284.764	8.3
284.978	8.32
285.192	7.7
285.405	7.1
285.619	6.11
285.833	5.86
286.046	6.21
286.26	5.38
286.473	5.8
286.687	5.66
286.9	6.9
287.114	6.91
287.327	6.56
287.541	7.1
287.754	7.71
287.968	8.24
288.181	8.35
288.395	8.11
288.608	8.18
288.822	7.37
289.035	7.71
289.248	7.56
289.462	7.67
289.675	7.43
289.889	7.39
290.102	7.38
290.315	7.62
290.529	7.3
290.742	7.52
290.955	7.46
291.169	8
291.382	7.52
291.595	6.72
291.808	7.17
292.022	7.75
292.235	6.95
292.448	7.53
292.661	7.06
292.875	7.55
293.088	7.94
293.301	8.1
293.514	7.93
293.727	8.47
293.94	8.79
294.153	7.98
294.367	8.45
294.58	9.3
294.793	9.31
295.006	9.77
295.219	9.61
295.432	9.04
295.645	8.83
295.858	8.23
296.071	8.12
296.284	8.62
296.497	9.12
296.71	9.09
296.923	8.45
297.136	8.11
297.349	8.59
297.562	8.48
297.775	9.31
297.988	9.49
298.201	10.11
298.414	9.8
298.626	9.11
298.839	8.73
299.052	8.5
299.265	8.69
299.478	8.37
299.691	7.19
299.903	7.23
300.116	6.24
300.329	6.32
300.542	6.58
300.755	7.06
300.967	7.53
301.18	8.01
301.393	8
301.605	8.02
301.818	8.29
302.031	9.05
302.243	9.58
302.456	9.64
302.669	10.17
302.881	10.82
303.094	11.08
303.307	10.56
303.519	10.22
303.732	9.87
303.944	10.16
304.157	10.17
304.37	9.78
304.582	9.26
304.795	10.46
305.007	10.12
305.22	9.48
305.432	9.52
305.645	9.79
305.857	9.53
306.069	10.24
306.282	10.31
306.494	10.31
306.707	10.42
306.919	11.25
307.132	9.9
307.344	9.92
307.556	9.65
307.769	10.09
307.981	9.86
308.193	9.98
308.406	9.22
308.618	9.6
308.83	9.42
309.043	9.01
309.255	8.09
309.467	8.86
309.679	8.89
309.892	9.53
310.104	8.85
310.316	9.17
310.528	9.56
310.74	9.92
310.953	9.59
311.165	9.92
311.377	9.86
311.589	10.14
311.801	8.9
312.013	8.8
312.225	8.18
312.437	8.4
312.649	8.03
312.862	7.06
313.074	7.08
313.286	6.64
313.498	7.11
313.71	8.47
313.922	7.82
314.134	8.7
314.346	7.83
314.558	7.75
314.77	7.88
314.982	7.98
315.193	8.66
315.405	8.34
315.617	8.35
315.829	7.3
316.041	6.37
316.253	7.51
316.465	8.3
316.677	9.36
316.888	9.35
317.1	9.08
317.312	9.79
317.524	8.1
317.736	8.77
317.947	9.97
318.159	10.96
318.371	10.93
318.583	10.41
318.794	9.9
319.006	9.52
319.218	9.69
319.43	8.94
319.641	8.74
319.853	10.47
320.064	10.37
320.276	8.91
320.488	7.6
320.699	6.62
320.911	6.8
321.123	7.17
321.334	8.01
321.546	7.9
321.757	8.66
321.969	8.08
322.18	7.36
322.392	6.47
322.603	7.54
322.815	7.87
323.026	8.29
323.238	8.79
323.449	8.8
323.661	8.02
323.872	8.76
324.083	9.05
324.295	9.04
324.506	9.05
324.718	10.1
324.929	9.94
325.14	10.37
325.352	11
325.563	10.61
325.774	9.86
325.986	10.62
326.197	9.83
326.408	9.34
326.62	9.73
326.831	10.04
327.042	9.06
327.253	8.73
327.464	8.17
327.676	8.7
327.887	9.2
328.098	9.74
328.309	8.91
328.52	9.19
328.732	9.5
328.943	9.46
329.154	10.07
329.365	11.31
329.576	11.55
329.787	12.27
329.998	11.51
330.209	10.6
330.42	10.71
330.631	10.55
330.842	11.48
331.053	11.35
331.264	11.05
331.475	10.9
331.686	11.13
331.897	10.99
332.108	11.34
332.319	11.71
332.53	12.04
332.741	11.86
332.952	11.74
333.163	10.83
333.374	11.5
333.585	11.76
333.795	12.33
334.006	11.69
334.217	12.13
334.428	11.96
334.639	11.76
334.849	12.12
335.06	12.02
335.271	13.14
335.482	13.11
335.692	12.47
335.903	12.91
336.114	12.23
336.325	12.17
336.535	12.28
336.746	11.86
336.957	11.87
337.167	11.75
337.378	12.6
337.589	11.84
337.799	11.89
338.01	12.33
338.22	13.02
338.431	12.57
338.642	12.7
338.852	11.67
339.063	11.5
339.273	10.83
339.484	10.78
339.694	9.33
339.905	9.56
340.115	9.77
340.326	9.29
340.536	8.46
340.746	9.78
340.957	10.62
341.167	11.52
341.378	11.24
341.588	12.39
341.799	12.58
342.009	13.32
342.219	13.54
342.43	14.16
342.64	14.57
342.85	14.18
343.061	13.47
343.271	12.93
343.481	12.2
343.691	12.32
343.902	11.69
344.112	11.83
344.322	11.25
344.532	11.32
344.743	11.03
344.953	9.95
345.163	10.11
345.373	9.63
345.583	9.9
345.793	10.04
346.004	10.37
346.214	10.39
346.424	9.75
346.634	10.43
346.844	10.63
347.054	9.71
347.264	10.93
347.474	10.92
347.684	11.05
347.894	9.99
348.104	9.77
348.314	10.18
348.524	10.49
348.734	10.28
348.944	10.02
349.154	9.35
349.364	9.94
349.574	9.57
349.784	10.14
349.994	10.52
350.204	10.44
350.413	10.6
350.623	10.9
350.833	10.63
351.043	10.94
351.253	11.1
351.463	11.38
351.672	11.32
351.882	10.92
352.092	10.27
352.302	10.4
352.511	11.39
352.721	11.79
352.931	11.36
353.141	11.47
353.35	11.2
353.56	11.14
353.77	11.01
353.979	11.01
354.189	10.68
354.399	11
354.608	10.72
354.818	10.72
355.027	10.48
355.237	10.08
355.447	10.17
355.656	10.88
355.866	10.71
356.075	10.72
356.285	10.53
356.494	11.14
356.704	10.71
356.913	11.3
357.123	10.98
357.332	10.87
357.542	11.46
357.751	11.58
357.96	11.81
358.17	11.65
358.379	11.61
358.589	11.56
358.798	11.42
359.007	11.44
359.217	11.24
359.426	11.28
359.635	11.59
359.845	11.19
360.054	10.92
360.263	10.3
360.472	10.64
360.682	10.4
360.891	10.36
361.1	10.41
361.309	10.32
361.519	9.83
361.728	9.76
361.937	9.29
362.146	9.32
362.355	8.94
362.564	8.9
362.774	8.62
362.983	8.78
363.192	8.68
363.401	8.55
363.61	8.39
363.819	8.66
364.028	8.86
364.237	8.86
364.446	8.35
364.655	8.64
364.864	8.68
365.073	8.79
365.282	8.46
365.491	8.48
365.7	8.97
365.909	8.99
366.118	8.16
366.327	8.13
366.536	8.59
366.745	8.88
366.954	8.87
367.162	8.85
367.371	9.13
367.58	9.26
367.789	9.02
367.998	8.78
368.207	9.1
368.415	9.73
368.624	9.55
368.833	9.34
369.042	9.27
369.25	9.42
369.459	9.66
369.668	8.92
369.877	8.92
370.085	9.55
370.294	9.09
370.503	9.07
370.711	9.29
370.92	9.17
371.129	9.17
371.337	9.06
371.546	9.19
371.754	8.95
371.963	9.31
372.171	9.23
372.38	9.09
372.589	9
372.797	8.6
373.006	8.72
373.214	8.55
373.423	8.02
373.631	7.74
373.84	7.27
374.048	7.7
374.256	7.75
374.465	8.07
374.673	7.5
374.882	7.64
375.09	7.69
375.298	7.46
375.507	7.38
375.715	7.67
375.923	7.78
376.132	7.98
376.34	7.58
376.548	7.43
376.757	7.46
376.965	7.69
377.173	7.73
377.381	7.52
377.59	7.19
377.798	7.41
378.006	7.12
378.214	7.32
378.423	7.3
378.631	7.44
378.839	7.3
379.047	7.03
379.255	6.93
379.463	6.93
379.671	7.08
379.879	7.15
380.088	6.87
380.296	6.95
380.504	7.06
380.712	6.8
380.92	6.22
381.128	6.06
381.336	5.91
381.544	5.87
381.752	5.59
381.96	5.8
382.168	5.84
382.376	5.71
382.584	5.79
382.791	5.67
382.999	5.99
383.207	6.12
383.415	6.03
383.623	6.23
383.831	6.33
384.039	6.51
384.247	6.25
384.454	6.1
384.662	5.89
384.87	5.93
385.078	5.83
385.285	5.52
385.493	5.61
385.701	5.73
385.909	5.48
386.116	5.03
386.324	4.93
386.532	4.99
386.739	5.13
386.947	5.43
387.155	5.2
387.362	5.05
387.57	5.02
387.778	4.88
387.985	4.79
388.193	4.96
388.4	5.09
388.608	5.13
388.816	5.1
389.023	5.17
389.231	4.98
389.438	5.11
389.646	5.23
389.853	5.18
390.061	5.17
390.268	5.33
390.475	5.04
390.683	5.03
390.89	4.81
391.098	4.91
391.305	4.81
391.512	4.86
391.72	4.5
391.927	4.3
392.135	4.3
392.342	4.49
392.549	4.15
392.756	4.23
392.964	4.23
393.171	4.47
393.378	4.49
393.586	4.44
393.793	4.5
394	4.88
394.207	5.05
394.414	5.1
394.622	4.82
394.829	4.92
395.036	4.99
395.243	5.1
395.45	5.16
395.657	4.92
395.864	4.68
396.072	4.75
396.279	4.46
396.486	4.39
396.693	4.25
396.9	4.47
397.107	4.5
397.314	4.52
397.521	4.39
397.728	4.26
397.935	4.44
398.142	4.56
398.349	4.21
398.556	4.17
398.763	3.94
398.97	3.84
399.177	3.6
399.383	3.63
399.59	3.44
399.797	3.56
400.004	3.36
400.211	3.3
400.418	3.5
400.625	3.72
400.831	3.86
401.038	3.98
401.245	4.06
401.452	4.17
401.658	4.23
401.865	4.17
402.072	4.16
402.279	4.2
402.485	4.13
402.692	3.96
402.899	3.93
403.105	3.8
403.312	3.93
403.519	3.91
403.725	3.95
403.932	3.82
404.138	3.88
404.345	3.84
404.552	3.96
404.758	3.97
404.965	3.95
405.171	3.98
405.378	4
405.584	3.98
405.791	3.97
405.997	4.04
406.204	4.06
406.41	3.96
406.617	4.02
406.823	3.9
407.029	3.87
407.236	3.77
407.442	3.64
407.649	3.81
407.855	3.73
408.061	3.79
408.268	3.6
408.474	3.64
408.68	3.75
408.887	3.77
409.093	3.82
409.299	3.74
409.505	3.65
409.712	3.61
409.918	3.61
410.124	3.51
410.33	3.41
410.537	3.44
410.743	3.46
410.949	3.52
411.155	3.45
411.361	3.35
411.567	3.43
411.773	3.64
411.98	3.61
412.186	3.41
412.392	3.44
412.598	3.37
412.804	3.25
413.01	3.17
413.216	3.02
413.422	2.97
413.628	2.99
413.834	3.08
414.04	3.13
414.246	3.24
414.452	3.48
414.658	3.46
414.864	3.51
415.07	3.63
415.275	3.67
415.481	3.74
415.687	3.84
415.893	3.91
416.099	3.91
416.305	3.84
416.511	3.79
416.716	3.62
416.922	3.78
417.128	3.89
417.334	3.86
417.539	3.83
417.745	3.86
417.951	3.73
418.157	3.75
418.362	3.71
418.568	3.7
418.774	3.77
418.979	3.87
419.185	3.78
419.391	3.76
419.596	3.83
419.802	3.84
420.008	3.85
420.213	3.92
420.419	3.88
420.624	3.91
420.83	3.94
421.035	3.99
421.241	3.88
421.446	3.94
421.652	3.91
421.857	3.93
422.063	4
422.268	4.02
422.474	3.93
422.679	3.93
422.885	3.89
423.09	3.9
423.295	3.77
423.501	3.83
423.706	3.75
423.911	3.74
424.117	3.65
424.322	3.52
424.527	3.41
424.733	3.51
424.938	3.46
425.143	3.36
425.349	3.29
425.554	3.41
425.759	3.43
425.964	3.42
426.169	3.32
426.375	3.33
426.58	3.48
426.785	3.58
426.99	3.57
427.195	3.7
427.4	3.72
427.605	3.71
427.811	3.66
428.016	3.54
428.221	3.65
428.426	3.67
428.631	3.69
428.836	3.55
429.041	3.55
429.246	3.43
429.451	3.37
429.656	3.49
429.861	3.47
430.066	3.39
430.271	3.45
430.476	3.33
430.681	3.3
430.886	3.3
431.09	3.33
431.295	3.35
431.5	3.45
431.705	3.39
431.91	3.35
432.115	3.44
432.32	3.35
432.524	3.3
432.729	3.45
432.934	3.63
433.139	3.56
433.343	3.5
433.548	3.48
433.753	3.49
433.958	3.57
434.162	3.57
434.367	3.52
434.572	3.59
434.776	3.64
434.981	3.45
435.186	3.38
435.39	3.4
435.595	3.48
435.799	3.45
436.004	3.39
436.209	3.33
436.413	3.37
436.618	3.37
436.822	3.33
437.027	3.37
437.231	3.45
437.436	3.47
437.64	3.51
437.845	3.54
438.049	3.6
438.253	3.62
438.458	3.59
438.662	3.54
438.867	3.54
439.071	3.61
439.275	3.62
439.48	3.74
439.684	3.71
439.888	3.69
440.093	3.64
440.297	3.6
440.501	3.58
440.706	3.57
440.91	3.58
441.114	3.6
441.318	3.61
441.523	3.53
441.727	3.44
441.931	3.4
442.135	3.41
442.339	3.41
442.543	3.4
442.748	3.44
442.952	3.45
443.156	3.47
443.36	3.49
443.564	3.49
443.768	3.55
443.972	3.51
444.176	3.51
444.38	3.53
444.584	3.53
444.788	3.61
444.992	3.6
445.196	3.58
445.4	3.62
445.604	3.53
445.808	3.52
446.012	3.41
446.216	3.42
446.42	3.46
446.624	3.4
446.828	3.39
447.032	3.38
447.235	3.32
447.439	3.32
447.643	3.28
447.847	3.34
448.051	3.29
448.254	3.31
448.458	3.34
448.662	3.27
448.866	3.3
449.069	3.24
449.273	3.21
449.477	3.15
449.681	3.21
449.884	3.11
450.088	3.07
450.292	3.14
450.495	3.19
450.699	3.25
450.902	3.22
451.106	3.18
451.31	3.21
451.513	3.12
451.717	3.17
451.92	3.2
452.124	3.36
452.327	3.37
452.531	3.34
452.734	3.43
452.938	3.33
453.141	3.37
453.345	3.54
453.548	3.46
453.752	3.44
453.955	3.49
454.158	3.39
454.362	3.29
454.565	3.32
454.769	3.3
454.972	3.34
455.175	3.39
455.379	3.42
455.582	3.34
455.785	3.39
455.988	3.43
456.192	3.44
456.395	3.51
456.598	3.42
456.801	3.41
457.005	3.37
457.208	3.31
457.411	3.33
457.614	3.29
457.817	3.26
458.021	3.26
458.224	3.35
458.427	3.33
458.63	3.32
458.833	3.33
459.036	3.32
459.239	3.33
459.442	3.32
459.645	3.3
459.848	3.35
460.051	3.37
460.254	3.44
460.457	3.41
460.66	3.39
460.863	3.38
461.066	3.42
461.269	3.45
461.472	3.56
461.675	3.55
461.878	3.57
462.081	3.53
462.284	3.5
462.486	3.36
462.689	3.21
462.892	3.31
463.095	3.42
463.298	3.44
463.5	3.41
463.703	3.37
463.906	3.37
464.109	3.33
464.311	3.44
464.514	3.5
464.717	3.55
464.92	3.57
465.122	3.52
465.325	3.41
465.528	3.44
465.73	3.46
465.933	3.44
466.135	3.45
466.338	3.42
466.541	3.38
466.743	3.29
466.946	3.37
467.148	3.47
467.351	3.49
467.553	3.56
467.756	3.46
467.958	3.53
468.161	3.57
468.363	3.57
468.566	3.51
468.768	3.48
468.971	3.45
469.173	3.37
469.375	3.35
469.578	3.3
469.78	3.31
469.983	3.4
470.185	3.31
470.387	3.25
470.59	3.28
470.792	3.4
470.994	3.4
471.196	3.42
471.399	3.46
471.601	3.45
471.803	3.52
472.005	3.49
472.208	3.49
472.41	3.44
472.612	3.43
472.814	3.29
473.016	3.27
473.218	3.2
473.421	3.27
473.623	3.3
473.825	3.24
474.027	3.17
474.229	3.15
474.431	3.1
474.633	3.08
474.835	3.12
475.037	3.2
475.239	3.12
475.441	3.25
475.643	3.2
475.845	3.2
476.047	3.21
476.249	3.31
476.451	3.25
476.653	3.27
476.855	3.32
477.057	3.38
477.258	3.45
477.46	3.59
477.662	3.53
477.864	3.59
478.066	3.53
478.268	3.53
478.469	3.42
478.671	3.46
478.873	3.52
479.075	3.66
479.276	3.58
479.478	3.54
479.68	3.57
479.882	3.61
480.083	3.6
480.285	3.65
480.487	3.64
480.688	3.67
480.89	3.72
481.091	3.7
481.293	3.65
481.495	3.66
481.696	3.65
481.898	3.6
482.099	3.58
482.301	3.57
482.502	3.55
482.704	3.54
482.905	3.53
483.107	3.48
483.308	3.48
483.51	3.47
483.711	3.47
483.913	3.46
484.114	3.47
484.315	3.49
484.517	3.5
484.718	3.51
484.92	3.57
485.121	3.61
485.322	3.67
485.524	3.67
485.725	3.69
485.926	3.7
486.127	3.7
486.329	3.7
486.53	3.65
486.731	3.65
486.932	3.61
487.134	3.57
487.335	3.54
487.536	3.54
487.737	3.52
487.938	3.51
488.139	3.5
488.341	3.54
488.542	3.57
488.743	3.59
488.944	3.57
489.145	3.61
489.346	3.66
489.547	3.58
489.748	3.56
489.949	3.58
490.15	3.59
490.351	3.59
490.552	3.58
490.753	3.57
490.954	3.56
491.155	3.58
491.356	3.54
491.557	3.52
491.758	3.58
491.959	3.54
492.159	3.51
492.36	3.48
492.561	3.46
492.762	3.43
492.963	3.39
493.164	3.39
493.364	3.33
493.565	3.41
493.766	3.4
493.967	3.45
494.167	3.48
494.368	3.47
494.569	3.52
494.769	3.49
494.97	3.52
495.171	3.55
495.371	3.55
495.572	3.65
495.773	3.66
495.973	3.65
496.174	3.69
496.375	3.72
496.575	3.74
496.776	3.75
496.976	3.84
497.177	3.84
497.377	3.83
497.578	3.83
497.778	3.78
497.979	3.79
498.179	3.84
498.38	3.74
498.58	3.78
498.78	3.85
498.981	3.78
499.181	3.73
499.382	3.71
499.582	3.66
499.782	3.74
499.983	3.76
500.183	3.65
500.383	3.65
500.584	3.67
500.784	3.66
500.984	3.66
501.184	3.63
501.385	3.58
501.585	3.68
501.785	3.64
501.985	3.66
502.185	3.62
502.386	3.69
502.586	3.71
502.786	3.76
502.986	3.78
503.186	3.73
503.386	3.71
503.586	3.74
503.786	3.68
503.987	3.82
504.187	3.71
504.387	3.78
504.587	3.81
504.787	3.76
504.987	3.7
505.187	3.76
505.387	3.81
505.587	3.89
505.786	3.97
505.986	3.95
506.186	3.9
506.386	4.09
506.586	4.04
506.786	4.07
506.986	4.15
507.186	4.16
507.386	4.09
507.585	4.08
507.785	4.07
507.985	4
508.185	3.98
508.384	4
508.584	3.94
508.784	3.96
508.984	3.92
509.183	3.88
509.383	3.87
509.583	3.87
509.782	3.87
509.982	3.91
510.182	3.86
510.381	4.01
510.581	4.02
510.781	3.98
510.98	4.01
511.18	4
511.379	4.01
511.579	4.09
511.778	4.12
511.978	4.11
512.177	4.09
512.377	4.21
512.576	4.15
512.776	4.08
512.975	4.09
513.175	4.03
513.374	4.11
513.573	4.15
513.773	4.19
513.972	4.15
514.172	4.21
514.371	4.22
514.57	4.2
514.77	4.28
514.969	4.38
515.168	4.47
515.367	4.56
515.567	4.6
515.766	4.57
515.965	4.54
516.164	4.57
516.364	4.55
516.563	4.54
516.762	4.53
516.961	4.51
517.16	4.53
517.359	4.47
517.559	4.48
517.758	4.42
517.957	4.5
518.156	4.5
518.355	4.51
518.554	4.53
518.753	4.56
518.952	4.52
519.151	4.55
519.35	4.59
519.549	4.6
519.748	4.55
519.947	4.59
520.146	4.5
520.345	4.43
520.544	4.49
520.743	4.51
520.942	4.54
521.141	4.68
521.339	4.73
521.538	4.67
521.737	4.73
521.936	4.82
522.135	4.84
522.333	4.86
522.532	4.94
522.731	4.94
522.93	4.89
523.129	4.86
523.327	4.9
523.526	4.91
523.725	4.89
523.923	4.9
524.122	4.88
524.321	4.9
524.519	4.97
524.718	4.97
524.917	4.95
525.115	5.04
525.314	5.1
525.512	5.06
525.711	5.07
525.909	5.09
526.108	5.16
526.306	5.21
526.505	5.24
526.703	5.2
526.902	5.24
527.1	5.25
527.299	5.27
527.497	5.28
527.696	5.29
527.894	5.35
528.092	5.34
528.291	5.34
528.489	5.28
528.688	5.24
528.886	5.28
529.084	5.27
529.283	5.29
529.481	5.26
529.679	5.25
529.877	5.26
530.076	5.18
530.274	5.23
530.472	5.2
530.67	5.31
530.869	5.31
531.067	5.29
531.265	5.29
531.463	5.31
531.661	5.34
531.859	5.33
532.057	5.4
532.255	5.4
532.454	5.42
532.652	5.37
532.85	5.36
533.048	5.43
533.246	5.48
533.444	5.51
533.642	5.52
533.84	5.51
534.038	5.54
534.236	5.47
534.434	5.49
534.632	5.55
534.83	5.62
535.027	5.63
535.225	5.65
535.423	5.63
535.621	5.7
535.819	5.71
536.017	5.77
536.215	5.78
536.412	5.75
536.61	5.78
536.808	5.71
537.006	5.73
537.203	5.74
537.401	5.73
537.599	5.7
537.797	5.68
537.994	5.71
538.192	5.71
538.39	5.77
538.587	5.89
538.785	5.97
538.983	5.97
539.18	6.02
539.378	6.09
539.575	6.06
539.773	6.14
539.97	6.14
540.168	6.14
540.366	6.12
540.563	6.1
540.761	6.07
540.958	6.04
541.155	6.09
541.353	6.09
541.55	6.05
541.748	6.08
541.945	6.09
542.143	6.08
542.34	6.04
542.537	6.09
542.735	6.07
542.932	6.09
543.129	6.08
543.327	6.09
543.524	6.03
543.721	6.09
543.919	6.11
544.116	6.14
544.313	6.16
544.51	6.26
544.708	6.25
544.905	6.33
545.102	6.37
545.299	6.41
545.496	6.42
545.693	6.45
545.891	6.42
546.088	6.41
546.285	6.47
546.482	6.55
546.679	6.55
546.876	6.67
547.073	6.64
547.27	6.61
547.467	6.64
547.664	6.72
547.861	6.81
548.058	6.83
548.255	6.87
548.452	6.81
548.649	6.83
548.846	6.94
549.043	6.85
549.24	6.93
549.437	6.97
549.633	6.99
549.83	6.92
550.027	6.97
550.224	6.99
550.421	7.08
550.618	7.03
550.814	7.05
551.011	7.01
551.208	7.08
551.405	7.23
551.601	7.32
551.798	7.48
551.995	7.53
552.191	7.52
552.388	7.58
552.585	7.62
552.781	7.7
552.978	7.71
553.175	7.68
553.371	7.58
553.568	7.5
553.764	7.49
553.961	7.33
554.157	7.5
554.354	7.64
554.55	7.67
554.747	7.64
554.943	7.59
555.14	7.66
555.336	7.79
555.533	7.95
555.729	7.86
555.926	7.82
556.122	7.85
556.318	7.82
556.515	7.8
556.711	7.77
556.907	7.84
557.104	8.01
557.3	7.94
557.496	8.04
557.693	8.09
557.889	8.14
558.085	8.16
558.281	8.23
558.478	8.31
558.674	8.32
558.87	8.43
559.066	8.41
559.262	8.46
559.459	8.66
559.655	8.67
559.851	8.56
560.047	8.74
560.243	8.88
560.439	8.96
560.635	8.85
560.831	8.95
561.027	8.97
561.223	9.04
561.419	8.92
561.615	8.81
561.811	8.85
562.007	9.04
562.203	8.89
562.399	8.98
562.595	9.01
562.791	9.04
562.987	9.06
563.183	9.01
563.379	9.11
563.575	9.31
563.771	9.31
563.966	9.3
564.162	9.25
564.358	9.5
564.554	9.49
564.75	9.54
564.945	9.7
565.141	9.7
565.337	9.88
565.533	9.86
565.728	9.91
565.924	9.96
566.12	10.01
566.315	10.18
566.511	10.16
566.707	10.27
566.902	10.31
567.098	10.27
567.293	10.37
567.489	10.39
567.684	10.45
567.88	10.54
568.076	10.65
568.271	10.75
568.467	10.74
568.662	10.74
568.858	10.75
569.053	10.87
569.248	10.94
569.444	10.96
569.639	10.93
569.835	10.9
570.03	10.86
570.225	10.85
570.421	10.74
570.616	10.88
570.812	11.04
571.007	11.05
571.202	11.03
571.397	11.11
571.593	11.07
571.788	11.12
571.983	11.19
572.178	11.17
572.374	11.3
572.569	11.42
572.764	11.37
572.959	11.26
573.154	11.22
573.35	11.28
573.545	11.29
573.74	11.35
573.935	11.41
574.13	11.43
574.325	11.55
574.52	11.47
574.715	11.48
574.91	11.51
575.105	11.63
575.3	11.66
575.495	11.65
575.69	11.65
575.885	11.64
576.08	11.69
576.275	11.76
576.47	11.68
576.665	11.78
576.86	11.8
577.055	11.79
577.25	11.83
577.444	11.98
577.639	12.08
577.834	11.96
578.029	12.16
578.224	12
578.418	12.13
578.613	12.23
578.808	12.27
579.003	12.27
579.197	12.18
579.392	12.12
579.587	12.21
579.781	12.23
579.976	12.42
580.171	12.47
580.365	12.67
580.56	12.43
580.755	12.49
580.949	12.45
581.144	12.59
581.338	12.77
581.533	12.79
581.727	12.72
581.922	12.73
582.116	12.77
582.311	12.68
582.505	12.66
582.7	12.82
582.894	12.74
583.089	12.79
583.283	12.83
583.478	12.79
583.672	12.85
583.866	12.9
584.061	12.74
584.255	12.78
584.449	12.82
584.644	12.94
584.838	13.08
585.032	13.17
585.226	13.31
585.421	13.35
585.615	13.28
585.809	13.33
586.003	13.47
586.198	13.58
586.392	13.57
586.586	13.67
586.78	13.64
586.974	13.55
587.168	13.49
587.363	13.5
587.557	13.49
587.751	13.65
587.945	13.66
588.139	13.66
588.333	13.7
588.527	13.56
588.721	13.48
588.915	13.45
589.109	13.45
589.303	13.53
589.497	13.46
589.691	13.39
589.885	13.45
590.079	13.42
590.273	13.38
590.466	13.35
590.66	13.48
590.854	13.66
591.048	13.63
591.242	13.72
591.436	13.66
591.629	13.64
591.823	13.72
592.017	13.66
592.211	13.8
592.404	13.78
592.598	13.89
592.792	13.92
592.986	13.73
593.179	13.91
593.373	13.94
593.567	14.04
593.76	14.17
593.954	14.14
594.147	14.28
594.341	14.22
594.535	14.3
594.728	14.38
594.922	14.53
595.115	14.76
595.309	14.75
595.502	14.74
595.696	14.75
595.889	14.7
596.083	14.89
596.276	14.79
596.47	14.77
596.663	14.65
596.856	14.65
597.05	14.52
597.243	14.44
597.437	14.4
597.63	14.43
597.823	14.53
598.017	14.56
598.21	14.47
598.403	14.55
598.596	14.61
598.79	14.77
598.983	14.77
599.176	14.81
599.369	14.64
599.563	14.74
599.756	14.79
599.949	14.59
600.142	14.63
600.335	14.63
600.528	14.72
600.722	14.87
600.915	14.87
601.108	14.88
601.301	14.91
601.494	15.03
601.687	15.11
601.88	15.06
602.073	15.15
602.266	15.12
602.459	15.26
602.652	15.16
602.845	15.09
603.038	15.12
603.231	15.07
603.424	15.16
603.617	15.28
603.809	15.16
604.002	15.11
604.195	15.17
604.388	15.16
604.581	14.92
604.774	14.9
604.966	14.85
605.159	14.7
605.352	14.72
605.545	14.68
605.737	14.53
605.93	14.57
606.123	14.82
606.316	14.82
606.508	14.88
606.701	15.17
606.894	15.33
607.086	15.43
607.279	15.61
607.471	15.72
607.664	15.8
607.857	15.84
608.049	15.84
608.242	15.78
608.434	15.87
608.627	15.94
608.819	15.78
609.012	15.71
609.204	15.8
609.397	15.85
609.589	15.83
609.782	15.8
609.974	15.73
610.166	15.62
610.359	15.54
610.551	15.46
610.743	15.39
610.936	15.48
611.128	15.39
611.32	15.39
611.513	15.36
611.705	15.33
611.897	15.38
612.09	15.42
612.282	15.44
612.474	15.54
612.666	15.45
612.858	15.54
613.051	15.48
613.243	15.44
613.435	15.41
613.627	15.36
613.819	15.2
614.011	15.16
614.203	15.22
614.395	15.56
614.588	15.58
614.78	15.66
614.972	15.57
615.164	15.66
615.356	15.76
615.548	15.68
615.74	15.7
615.932	15.97
616.124	15.85
616.315	15.87
616.507	15.52
616.699	15.33
616.891	15.27
617.083	15.22
617.275	15.22
617.467	15.41
617.659	15.52
617.85	15.34
618.042	15.23
618.234	15.39
618.426	15.33
618.618	15.33
618.809	15.6
619.001	15.65
619.193	15.62
619.384	15.77
619.576	15.69
619.768	15.54
619.959	15.85
620.151	15.87
620.343	15.69
620.534	15.82
620.726	15.97
620.917	15.76
621.109	15.76
621.301	16.06
621.492	15.81
621.684	15.81
621.875	16.03
622.067	16.04
622.258	16.07
622.45	16.17
622.641	16.22
622.832	16.03
623.024	16.25
623.215	16.33
623.407	16.18
623.598	16.34
623.789	16.24
623.981	16.14
624.172	16.16
624.363	16.22
624.555	16.22
624.746	16.21
624.937	16.4
625.129	16.28
625.32	16.34
625.511	16.32
625.702	16.26
625.893	16.4
626.085	16.29
626.276	16.37
626.467	16.27
626.658	16.41
626.849	16.48
627.04	16.57
627.231	16.59
627.422	16.56
627.614	16.66
627.805	16.66
627.996	16.69
628.187	16.74
628.378	16.47
628.569	16.39
628.76	16.13
628.951	16.01
629.142	15.93
629.332	15.99
629.523	15.94
629.714	15.95
629.905	16.01
630.096	16.01
630.287	16.08
630.478	16.18
630.669	16.33
630.859	16.69
631.05	16.58
631.241	16.7
631.432	16.66
631.623	16.83
631.813	16.78
632.004	16.79
632.195	16.68
632.385	16.78
632.576	16.9
632.767	16.9
632.957	16.83
633.148	17.11
633.339	17.01
633.529	16.93
633.72	16.79
633.91	16.92
634.101	16.85
634.292	17.01
634.482	16.96
634.673	16.9
634.863	17.01
635.054	16.91
635.244	16.59
635.435	16.57
635.625	16.74
635.815	16.81
636.006	16.74
636.196	16.8
636.387	16.69
636.577	16.81
636.767	16.7
636.958	16.56
637.148	16.65
637.338	16.83
637.529	16.86
637.719	16.8
637.909	16.8
638.099	16.71
638.29	16.78
638.48	16.71
638.67	16.53
638.86	16.74
639.05	16.8
639.241	16.92
639.431	16.88
639.621	16.76
639.811	16.9
640.001	16.93
640.191	16.93
640.381	16.82
640.571	17.07
640.761	17.15
640.951	16.72
641.141	16.66
641.331	16.39
641.521	16.4
641.711	16.48
641.901	16.24
642.091	16.35
642.281	16.36
642.471	16.4
642.661	16.02
642.851	16.29
643.041	16.57
643.231	16.62
643.42	16.83
643.61	16.9
643.8	17
643.99	17.24
644.18	17.12
644.369	17.18
644.559	17.27
644.749	17.62
644.939	17.2
645.128	17.34
645.318	17.39
645.508	17.34
645.697	17.28
645.887	17.12
646.076	17.09
646.266	17.09
646.456	17.22
646.645	17.37
646.835	17.36
647.024	17.58
647.214	17.4
647.403	17.42
647.593	17.36
647.782	17.56
647.972	17.63
648.161	17.49
648.351	17.64
648.54	17.36
648.73	17.31
648.919	17.15
649.108	17.12
649.298	17.04
649.487	17.14
649.677	17.12
649.866	16.99
650.055	17.2
650.244	17.29
650.434	17.32
650.623	17.17
650.812	17.09
651.002	17.34
651.191	17.42
651.38	17.74
651.569	17.67
651.758	17.76
651.947	17.9
652.137	17.86
652.326	17.88
652.515	17.67
652.704	17.96
652.893	17.8
653.082	17.52
653.271	17.4
653.46	17.15
653.649	17.03
653.838	16.95
654.027	16.83
654.216	16.83
654.405	16.74
654.594	16.8
654.783	16.78
654.972	17.02
655.161	17.07
655.35	17.1
655.539	17.5
655.728	17.64
655.916	17.57
656.105	17.45
656.294	17.55
656.483	17.58
656.672	17.63
656.86	17.67
657.049	17.75
657.238	17.82
657.427	17.86
657.615	17.7
657.804	17.72
657.993	17.92
658.181	18.12
658.37	17.87
658.559	17.85
658.747	17.91
658.936	18.02
659.125	18.32
659.313	18.48
659.502	18.4
659.69	18.43
659.879	18.29
660.067	18.23
660.256	17.9
660.444	17.94
660.633	17.97
660.821	17.73
661.01	17.56
661.198	17.23
661.387	17.07
661.575	17.13
661.763	17.18
661.952	17.28
662.14	17.22
662.328	17.46
662.517	17.58
662.705	17.65
662.893	17.94
663.082	17.94
663.27	17.8
663.458	17.64
663.646	17.75
663.834	17.77
664.023	18.02
664.211	18.23
664.399	18.23
664.587	18.23
664.775	18.39
664.963	18.29
665.152	18.4
665.34	18.43
665.528	18.41
665.716	18.52
665.904	18.54
666.092	18.24
666.28	18.31
666.468	18.47
666.656	18.67
666.844	18.53
667.032	18.57
667.22	18.58
667.408	18.53
667.596	18.7
667.784	18.33
667.971	18.25
668.159	18.29
668.347	18.12
668.535	17.96
668.723	18.06
668.911	18.15
669.098	18.12
669.286	18.17
669.474	18.17
669.662	18.32
669.849	18.3
670.037	18.29
670.225	18.37
670.413	18.27
670.6	18.5
670.788	18.33
670.976	18.23
671.163	18.41
671.351	18.15
671.538	18.43
671.726	18.35
671.913	18.64
672.101	18.58
672.289	18.49
672.476	18.52
672.664	18.4
672.851	18.42
673.039	18.45
673.226	18.55
673.413	18.54
673.601	18.03
673.788	18.12
673.976	18.1
674.163	18.35
674.35	18.38
674.538	18.45
674.725	18.55
674.912	18.37
675.1	18.44
675.287	18.09
675.474	18.38
675.662	18.66
675.849	18.57
676.036	18.67
676.223	18.83
676.411	18.76
676.598	18.6
676.785	18.62
676.972	18.99
677.159	19.14
677.346	19.32
677.533	19.4
677.721	19.44
677.908	19.3
678.095	19.25
678.282	19.18
678.469	19.19
678.656	19.37
678.843	19.36
679.03	19.19
679.217	19.07
679.404	19.08
679.591	19.04
679.778	19.06
679.964	19.16
680.151	19.3
680.338	19.18
680.525	19.14
680.712	19.19
680.899	19.31
681.086	19.42
681.272	19.44
681.459	19.59
681.646	19.69
681.833	19.83
682.02	19.99
682.206	19.69
682.393	19.46
682.58	19.84
682.766	19.75
682.953	19.61
683.14	19.48
683.326	19.52
683.513	19.25
683.7	19.1
683.886	18.87
684.073	18.72
684.259	18.76
684.446	18.92
684.632	18.72
684.819	18.7
685.005	18.58
685.192	18.58
685.378	18.42
685.565	18.48
685.751	18.35
685.938	18.22
686.124	18.17
686.31	18.37
686.497	18.63
686.683	18.46
686.87	18.4
687.056	18.61
687.242	18.43
687.429	18.42
687.615	18.45
687.801	18.83
687.987	18.93
688.174	19.11
688.36	18.99
688.546	18.61
688.732	18.77
688.918	19.05
689.105	18.88
689.291	19.06
689.477	19.15
689.663	19.3
689.849	19.01
690.035	19.19
690.221	19.47
690.407	19.79
690.593	19.86
690.779	19.89
690.965	19.62
691.151	19.65
691.337	19.49
691.523	19.72
691.709	19.75
691.895	19.85
692.081	19.6
692.267	19
692.453	18.66
692.639	18.81
692.825	18.78
693.011	18.77
693.196	19.04
693.382	19.16
693.568	18.9
693.754	18.66
693.94	18.84
694.125	18.77
694.311	18.62
694.497	18.88
694.682	18.57
694.868	18.51
695.054	18.44
695.239	18.24
695.425	18.36
695.611	18.56
695.796	18.84
695.982	18.48
696.168	18.8
696.353	18.93
696.539	18.73
696.724	18.86
696.91	19.11
697.095	19.34
697.281	19.3
697.466	19.51
697.652	19.57
697.837	19.52
698.023	19.78
698.208	19.76
698.393	19.94
698.579	20.05
698.764	20.2
698.949	20.14
699.135	20.19
699.32	20.33
699.505	19.94
699.691	19.89
699.876	19.76
700.061	19.65
700.246	19.53
700.432	19.63
700.617	19.52
700.802	19.43
700.987	19.37
701.172	19.16
701.358	19.25
701.543	19.15
701.728	18.96
701.913	19.07
702.098	19.07
702.283	19.23
702.468	19.27
702.653	19.41
702.838	19.46
703.023	19.57
703.208	19.62
703.393	19.69
703.578	19.86
703.763	20.13
703.948	19.97
704.133	19.75
704.318	19.73
704.503	19.6
704.688	19.35
704.873	19.27
705.057	19.14
705.242	19.44
705.427	19.34
705.612	19.75
705.797	19.62
705.981	19.65
706.166	19.92
706.351	19.7
706.536	19.78
706.72	20.2
706.905	20.27
707.09	20.48
707.274	20.16
707.459	20.04
707.644	19.35
707.828	19.72
708.013	19.89
708.197	20.15
708.382	20.16
708.567	19.98
708.751	19.75
708.936	19.85
709.12	19.91
709.305	19.66
709.489	19.78
709.673	20.3
709.858	19.74
710.042	19.56
710.227	19.35
710.411	19.47
710.596	19.67
710.78	19.48
710.964	19.29
711.149	19.26
711.333	19.33
711.517	19.21
711.702	18.97
711.886	19.28
712.07	19.38
712.254	19.32
712.438	19.17
712.623	18.67
712.807	19.05
712.991	19.45
713.175	19.21
713.359	19.5
713.544	19.67
713.728	20.1
713.912	19.82
714.096	19.83
714.28	19.75
714.464	19.82
714.648	20.36
714.832	20.16
715.016	19.86
715.2	19.93
715.384	19.72
715.568	19.51
715.752	19.3
715.936	19.3
716.12	19.26
716.304	19.56
716.488	19.63
716.671	19.64
716.855	19.69
717.039	19.58
717.223	19.77
717.407	20
717.59	19.86
717.774	19.65
717.958	19.74
718.142	19.64
718.325	19.28
718.509	19.28
718.693	19.4
718.877	19.29
719.06	19.78
719.244	19.45
719.428	19.34
719.611	19.72
719.795	19.71
719.978	19.68
720.162	19.83
720.345	19.88
720.529	20
720.713	20.01
720.896	20.52
721.08	19.92
721.263	19.98
721.446	20.23
721.63	20.45
721.813	20.63
721.997	20.56
722.18	20.44
722.364	20.33
722.547	20.44
722.73	19.82
722.914	19.31
723.097	19.49
723.28	19.82
723.464	19.77
723.647	19.47
723.83	19.35
724.013	19.87
724.197	20.03
724.38	19.94
724.563	19.46
724.746	19.92
724.929	20.32
725.112	20.2
725.296	19.92
725.479	20.02
725.662	20.38
725.845	20.67
726.028	20.55
726.211	20.44
726.394	20.3
726.577	20.37
726.76	19.86
726.943	19.85
727.126	20.26
727.309	20.48
727.492	20.45
727.675	20.21
727.858	20.13
728.041	20.08
728.224	20.09
728.407	20.35
728.589	20.91
728.772	21.14
728.955	20.87
729.138	20.63
729.321	20.47
729.503	20.59
729.686	20.25
729.869	20.05
730.052	19.74
730.234	19.91
730.417	20
730.6	19.71
730.782	19.39
730.965	19.65
731.148	19.95
731.33	20.07
731.513	19.72
731.695	20.03
731.878	20.08
732.061	19.97
732.243	19.68
732.426	19.53
732.608	19.34
732.791	19.13
732.973	18.88
733.156	18.51
733.338	18.35
733.52	18.24
733.703	17.67
733.885	17.58
734.068	17.76
734.25	17.7
734.432	17.56
734.615	18.08
734.797	18.83
734.979	18.74
735.162	18.55
735.344	18.46
735.526	18.89
735.708	19.82
735.891	19.39
736.073	20
736.255	20.38
736.437	20.76
736.619	20.7
736.802	20.63
736.984	20.64
737.166	21.32
737.348	21.18
737.53	20.97
737.712	20.33
737.894	20.99
738.076	20.79
738.258	20.65
738.44	20.7
738.622	20.51
738.804	20.36
738.986	20.61
739.168	20.18
739.35	19.87
739.532	19.68
739.714	19.84
739.896	20.15
740.078	19.53
740.259	19.75
740.441	19.46
740.623	19.56
740.805	19.6
740.987	19.55
741.168	19.41
741.35	20.19
741.532	20.68
741.714	19.74
741.895	19.38
742.077	19.89
742.259	19.81
742.44	19.65
742.622	19.19
742.804	18.44
742.985	18.62
743.167	18.76
743.348	18.39
743.53	17.63
743.711	18.15
743.893	18.25
744.075	18.03
744.256	18.27
744.438	18.99
744.619	18.96
744.8	19.65
744.982	19.11
745.163	19.22
745.345	18.87
745.526	19.56
745.707	20.05
745.889	19.63
746.07	19.83
746.252	19.53
746.433	18.92
746.614	19.18
746.795	19.07
746.977	19.53
747.158	19.5
747.339	20.36
747.52	20.05
747.702	20.62
747.883	20.7
748.064	21.03
748.245	20.8
748.426	20.94
748.607	20.91
748.788	21.14
748.97	21.36
749.151	21.21
749.332	20.97
749.513	21.02
749.694	20.41
749.875	20.51
750.056	20.33
750.237	20.71
750.418	20.53
750.599	20.46
750.78	20.75
750.96	20.41
751.141	20.77
751.322	20.63
751.503	20.86
751.684	21.33
751.865	21.3
752.046	21.41
752.226	20.79
752.407	21.21
752.588	20.99
752.769	20.63
752.949	20.37
753.13	20.56
753.311	20.77
753.492	20.8
753.672	20.65
753.853	21.01
754.034	20.32
754.214	20.99
754.395	21
754.575	21.6
754.756	21.21
754.937	21.97
755.117	21.24
755.298	21.56
755.478	21.16
755.659	20.74
755.839	20.67
756.02	20.94
756.2	20.3
756.381	19.84
756.561	19.96
756.741	20.48
756.922	20.66
757.102	20.83
757.283	20.33
757.463	20.07
757.643	20.85
757.823	20.9
758.004	20.45
758.184	21.44
758.364	22.73
758.545	22.31
758.725	22.67
758.905	21.71
759.085	22.21
759.265	22.91
759.446	22.89
759.626	22.73
759.806	22.4
759.986	22.82
760.166	21.83
760.346	21.26
760.526	21.02
760.706	21.25
760.886	21.17
761.066	21.24
761.246	20.59
761.426	21.13
761.606	20.86
761.786	21.08
761.966	21.3
762.146	21.91
762.326	21.72
762.506	21.85
762.686	21.66
762.866	21.58
763.046	21.43
763.225	21.59
763.405	21.18
763.585	21.12
763.765	20.95
763.945	20.93
764.124	20.95
764.304	20.64
764.484	20.83
764.664	20.88
764.843	21.45
765.023	21.52
765.203	21.21
765.382	21.45
765.562	21.4
765.741	21.36
765.921	21.16
766.101	20.75
766.28	20.92
766.46	20.94
766.639	20.47
766.819	20.37
766.998	20.29
767.178	21.25
767.357	20.98
767.537	21.67
767.716	22.22
767.896	22.55
768.075	22.5
768.254	22.68
768.434	22.47
768.613	22.65
768.792	22.33
768.972	23.04
769.151	22.15
769.33	21.85
769.51	20.55
769.689	20.37
769.868	20.4
770.047	20.95
770.226	20.84
770.406	20.74
770.585	20.67
770.764	20.31
770.943	19.24
771.122	19.06
771.301	19.81
771.48	20.67
771.66	19.86
771.839	19.08
772.018	18.6
772.197	18.83
772.376	20.15
772.555	19.9
772.734	20.24
772.913	20.41
773.092	20.97
773.271	20.73
773.449	20.59
773.628	21.39
773.807	22.43
773.986	21.98
774.165	21.66
774.344	20.68
774.523	20.82
774.701	21.31
774.88	21.58
775.059	21.26
775.238	21.73
775.417	21.55
775.595	20.86
775.774	20.43
775.953	19.96
776.131	19.98
776.31	19.31
776.489	19.57
776.667	18.2
776.846	17.55
777.025	17.22
777.203	16.48
777.382	17.34
777.56	17.86
777.739	17.65
777.917	17.54
778.096	16.99
778.274	17.39
778.453	17.31
778.631	17.51
778.81	17.6
778.988	18.09
779.166	17.92
779.345	17.15
779.523	16.71
779.702	17.09
779.88	17.84
780.058	18.23
780.237	17.72
780.415	17.89
780.593	19.39
780.771	18.92
780.95	18.37
781.128	18.69
781.306	18.45
781.484	18.78
781.662	18.3
781.841	18.65
782.019	19.94
782.197	19.82
782.375	18.99
782.553	18.49
782.731	18.6
782.909	18.61
783.087	18.54
783.265	19.8
783.443	20.38
783.621	20.36
783.799	20.13
783.977	19.09
784.155	19.97
784.333	20.07
784.511	20.39
784.689	20.9
784.867	21.4
785.045	22.76
785.223	21.52
785.4	20.89
785.578	21.27
785.756	20.33
785.934	20.65
786.112	20.22
786.289	21.38
786.467	20.56
786.645	20.62
786.823	20.37
787	20.03
787.178	19.8
787.356	19.66
787.533	19.42
787.711	19.93
787.889	19.1
788.066	19.25
788.244	19.02
788.421	18.65
788.599	19.2
788.776	19.03
788.954	18.99
789.131	19.75
789.309	20.06
789.486	20.14
789.664	19.93
789.841	20.94
790.019	20.61
790.196	20.4
790.373	20.72
790.551	20.44
790.728	20.98
790.906	20.99
791.083	21.38
791.26	21.31
791.437	21.87
791.615	22.89
791.792	22.15
791.969	22.87
792.146	22.12
792.324	22.21
792.501	22.58
792.678	22.69
792.855	22.2
793.032	21.84
793.209	20.89
793.387	20.13
793.564	20.4
793.741	21.35
793.918	21.58
794.095	21.7
794.272	22.17
794.449	20.6
794.626	20.8
794.803	21.19
794.98	21.51
795.157	22.89
795.334	22.65
795.511	22.08
795.688	20.88
795.864	19.8
796.041	19.96
796.218	20.07
796.395	20.16
796.572	19.99
796.749	19.96
796.925	19.08
797.102	18.44
797.279	19.18
797.456	19.12
797.632	20.17
797.809	20.25
797.986	20.99
798.162	20.69
798.339	21.35
798.516	21.32
798.692	21.61
798.869	21.86
799.046	22.06
799.222	21.63
799.399	21.54
799.575	20.06
799.752	20.06
799.928	19.89
800.105	20.45
800.281	21.29
800.458	20.94
800.634	20.46
800.811	20.89
800.987	21.01
801.163	21.79
801.34	21.34
801.516	21.7
801.692	21.73
801.869	20.92
802.045	21.08
802.221	20.07
802.398	19.38
802.574	18.87
802.75	17.63
802.926	17.03
803.103	16.47
803.279	17.38
803.455	18.41
803.631	18.8
803.807	18.76
803.983	18.41
804.16	18.35
804.336	19.41
804.512	19.39
804.688	19.89
804.864	19.99
805.04	19.58
805.216	18.25
805.392	17.11
805.568	16.36
805.744	17.48
805.92	16.41
806.096	16.34
806.272	15.51
806.448	15.71
806.623	16.57
806.799	17.56
806.975	18.01
807.151	19.54
807.327	20.56
807.503	22.62
807.678	22.28
807.854	23.08
808.03	23.67
808.206	24.07
808.381	23.15
808.557	23.28
808.733	23.34
808.908	22.84
809.084	23.3
809.26	24.09
809.435	23.04
809.611	22.7
809.787	22.14
809.962	22.63
810.138	22.68
810.313	23.29
810.489	22.59
810.664	21.39
810.84	21.6
811.015	19.75
811.191	18.48
811.366	18.09
811.542	17.78
811.717	18.96
811.892	18.2
812.068	18.46
812.243	17.91
812.419	18.28
812.594	18.31
812.769	19.63
812.944	20.43
813.12	19.7
813.295	20.24
813.47	20.76
813.645	20.05
813.821	18.65
813.996	19.37
814.171	20.87
814.346	18.91
814.521	20.24
814.697	18.69
814.872	17.61
815.047	20.15
815.222	20.9
815.397	21.16
815.572	20.21
815.747	22.17
815.922	20.82
816.097	19.22
816.272	20.69
816.447	20.06
816.622	20.87
816.797	22.95
816.972	22.53
817.147	21.3
817.322	20.29
817.496	20.79
817.671	21.12
817.846	20.81
818.021	21.38
818.196	21.43
818.371	20.92
818.545	20.97
818.72	20.86
818.895	20
819.069	20.02
819.244	20.13
819.419	20.67
819.594	20.74
819.768	21.75
819.943	21.72
820.117	22.14
820.292	22.37
820.467	22.38
820.641	22.06
820.816	22.29
820.99	22.69
821.165	22.78
821.339	23.09
821.514	22.66
821.688	22.76
821.863	22.88
822.037	22.75
822.212	22.64
822.386	22.63
822.56	22.74
822.735	22.75
822.909	22.99
823.084	23.21
823.258	23.08
823.432	23.52
823.606	23.49
823.781	23.69
823.955	23.92
824.129	23.88
824.303	23.8
824.478	23.94
824.652	24.04
824.826	23.68
825	23.15
825.174	22.75
825.348	22.43
825.523	22.06
825.697	21.93
825.871	21.73
826.045	22.15
826.219	22.59
826.393	22.37
826.567	22.22
826.741	22.19
826.915	22.41
827.089	22.69
827.263	22.61
827.437	22.96
827.611	22.93
827.784	22.91
827.958	22.77
828.132	22.19
828.306	22.48
828.48	22.33
828.654	22.39
828.827	22.71
829.001	22.49
829.175	22.55
829.349	21.39
829.522	21.09
829.696	20.75
829.87	20.99
830.044	21.28
830.217	20.78
830.391	20.75
830.565	19.39
830.738	18.96
830.912	18.86
831.085	18.7
831.259	19.91
831.432	18.95
831.606	19.11
831.779	18.27
831.953	18.27
832.126	19.05
832.3	19.99
832.473	21.65
832.647	22.14
832.82	22.12
832.994	21.99
833.167	21.43
833.34	22.12
833.514	22.84
833.687	23.57
833.86	23.81
834.034	23.57
834.207	22.69
834.38	22.13
834.553	22.03
834.727	22.45
834.9	23.05
835.073	24.61
835.246	25.01
835.419	23.92
835.593	23.42
835.766	22.78
835.939	22.15
836.112	22.34
836.285	22.16
836.458	21.78
836.631	21.22
836.804	21.61
836.977	20.21
837.15	20.69
837.323	21.12
837.496	21.34
837.669	21.79
837.842	21.78
838.015	21.2
838.188	21.31
838.361	20.34
838.533	20.17
838.706	18.52
838.879	18.11
839.052	17.07
839.225	15.47
839.398	14.92
839.57	15.57
839.743	15.82
839.916	17.99
840.088	18.45
840.261	18.89
840.434	17.48
840.607	17.76
840.779	17.48
840.952	17.86
841.124	20.56
841.297	22.79
841.47	20.78
841.642	21.55
841.815	20.48
841.987	19.66
842.16	20.3
842.332	21.09
842.505	20.98
842.677	17.53
842.85	18.5
843.022	18.83
843.194	16.09
843.367	20.14
843.539	18.86
843.712	18.74
843.884	19.74
844.056	19.91
844.229	21.73
844.401	22.18
844.573	25.42
844.745	21.69
844.918	19.65
845.09	19.14
845.262	16.07
845.434	17.24
845.606	14.4
845.779	13.25
845.951	13.88
846.123	13.78
846.295	13.8
846.467	14.1
846.639	14.05
846.811	17.31
846.983	15.82
847.155	13.08
847.327	13.59
847.499	17.08
847.671	17.01
847.843	16.01
848.015	13.88
848.187	12.66
848.359	10.68
848.531	14.84
848.703	14.53
848.875	15.8
849.047	19.05
849.218	15.42
849.39	15.19
849.562	16.11
849.734	14.37
849.905	18.37
850.077	18.41
850.249	24.5
850.421	22.88
850.592	21.96
850.764	26.24
850.936	24.7
851.107	29
851.279	24.94
851.451	21.24
851.622	17.39
851.794	13.62
851.965	11.8
852.137	5.18
852.308	3.75
852.48	0.09
852.651	-3.69
852.823	0.76
852.994	0.95
853.166	1.21
853.337	3.2
853.509	6.94
853.68	5.65
853.851	9.08
854.023	10.57
854.194	9.7
854.365	10.03
854.537	7.31
854.708	4.31
854.879	0.18
855.05	5.04
855.222	4.53
855.393	4.99
855.564	5.71
855.735	3.56
855.906	5.9
856.078	4.01
856.249	-1.01
856.42	8.75
856.591	11.12
856.762	8.23
856.933	5.7
857.104	7.56
857.275	10.14
857.446	10.77
857.617	9.05
857.788	6.43
857.959	12.11
858.13	16.45
858.301	10.97
858.472	8.47
858.643	8.44
858.814	10.11
858.985	10.75
859.155	8.56
859.326	5.79
859.497	7.88
859.668	12.13
859.839	9.56
860.009	6.76
860.18	5.99
860.351	8.43
860.522	13.53
860.692	11.5
860.863	11.4
861.034	9.54
861.204	12.68
861.375	14.88
861.546	13.52
861.716	13.65
861.887	10.23
862.057	10.79
862.228	10.96
862.398	4.9
862.569	5.74
862.739	3.87
862.91	3.3
863.08	3.68
863.251	1.65
863.421	-0.49
863.592	-2.16
863.762	5.58
863.932	9.87
864.103	8.02
864.273	12.29
864.443	9.43
864.614	8.23
864.784	9.32
864.954	5.66
865.125	9.01
865.295	10.71
865.465	10.89
865.635	10.84
865.805	8.02
865.976	10.67
866.146	11.52
866.316	16.92
866.486	17.24
866.656	20.05
866.826	23.47
866.996	18.59
867.166	17.67
867.336	19.63
867.506	20.14
867.676	18.27
867.846	15.76
868.016	11.53
868.186	4.88
868.356	3.1
868.526	2.43
868.696	4.39
868.866	7.05
869.036	6.06
869.206	8.2
869.376	1.11
869.545	2.85
869.715	-2.14
869.885	2.1
870.055	9.7
870.224	11.04
870.394	12.41
870.564	9.33
870.734	8.71
870.903	6.63
871.073	2
871.243	4.85
871.412	4.35
871.582	9.32
871.751	7.67
871.921	5.59
872.091	5.55
872.26	1.99
872.43	3.68
872.599	-1.51
872.769	1.6
872.938	0.67
873.108	-3.9
873.277	-3.44
873.446	-2.65
873.616	3.74
873.785	3.51
873.955	10.68
874.124	12.92
874.293	16.39
874.463	18.67
874.632	16.48
874.801	17.92
874.971	26.2
875.14	24.55
875.309	21.35
875.478	14.04
875.647	14.19
875.817	3.85
875.986	-0.33
876.155	-2.98
876.324	3.3
876.493	4.19
876.662	4.25
876.831	2.74
877	3.57
877.17	8.35
877.339	14.92
877.508	15.04
877.677	18.64
877.846	19.49
878.015	22.23
878.184	15.3
878.352	19.72
878.521	21.37
878.69	19.46
878.859	20.35
879.028	20.89
879.197	19.86
879.366	20.17
879.534	21.39
879.703	23.58
879.872	23.15
880.041	26.16
880.21	25.39
880.378	25.78
880.547	25.63
880.716	25.81
880.884	25.93
881.053	26.3
881.222	26.15
881.39	25.45
881.559	25.39
881.727	24.61
881.896	24.34
882.065	24.18
882.233	24.19
882.402	24.69
882.57	25.11
882.739	25.03
882.907	24.57
883.076	24.27
883.244	25.09
883.412	25.23
883.581	25.23
883.749	25.06
883.918	24.21
884.086	23.88
884.254	23.48
884.423	22.8
884.591	22.25
884.759	21.59
884.927	21.76
885.096	20.44
885.264	19.49
885.432	19.41
885.6	18.87
885.769	19.93
885.937	19.96
886.105	20.08
886.273	18.44
886.441	15.25
886.609	15.66
886.777	14.29
886.945	13.51
887.113	12.97
887.281	12.18
887.449	13.47
887.617	13.57
887.785	10.69
887.953	7.5
888.121	9.34
888.289	13.97
888.457	14.91
888.625	17.98
888.793	17.66
888.961	16.66
889.129	13.19
889.296	9.96
889.464	7.9
889.632	10.45
889.8	12.75
889.967	11.95
890.135	9.29
