Data from 2938481_Reflection_2.txt Node
Date: Wed Jun 17 01:10:55 EDT 2015
User: robert
Spectrometer: USB4E03002
Autoset integration time: false
Trigger mode: 4
Integration Time (sec): 1.000000E-1
Scans to average: 10
Electric dark correction enabled: true
Nonlinearity correction enabled: false
Boxcar width: 5
Stray light correction enabled: false
XAxis mode: Wavelengths
Stop averaging: false
Number of Pixels in Spectrum: 3648
>>>>>Begin Spectral Data<<<<<
177.575	114.07
177.794	55.69
178.014	-118.45
178.233	48.71
178.452	-1378.05
178.672	2837.93
178.891	402.23
179.11	72.35
179.33	125.31
179.549	229.95
179.768	705.13
179.987	-463.73
180.207	-40.1
180.426	-35.77
180.645	-86.08
180.864	-6.55
181.084	71.23
181.303	394.71
181.522	83.59
181.741	225.17
181.96	79.63
182.179	67.67
182.398	30.16
182.618	25.55
182.837	39.03
183.056	-0.5
183.275	-37.96
183.494	58.74
183.713	116.86
183.932	192.42
184.151	63.27
184.37	26.56
184.589	32.05
184.808	9.11
185.027	22.37
185.246	-0.12
185.465	38.79
185.684	43.96
185.903	49.79
186.122	58.63
186.341	63.23
186.56	55.97
186.779	78.17
186.998	76.41
187.216	60.29
187.435	49.12
187.654	44.67
187.873	-31.46
188.092	82.91
188.311	117.87
188.53	222.11
188.748	399.81
188.967	482.65
189.186	-21815
189.405	260.82
189.623	209.37
189.842	247
190.061	852.71
190.28	351.76
190.498	200.8
190.717	80.92
190.936	40.94
191.154	19.73
191.373	44.66
191.592	57.13
191.81	63.83
192.029	75.87
192.248	82.3
192.466	83.99
192.685	134.07
192.904	130.14
193.122	190.13
193.341	761.43
193.559	473.96
193.778	308.81
193.996	187.69
194.215	332.06
194.433	-141.21
194.652	-511.91
194.87	84.42
195.089	-9
195.307	24.08
195.526	22.22
195.744	44.32
195.963	33.4
196.181	21.52
196.399	39.97
196.618	50.46
196.836	32.27
197.055	37.88
197.273	-60.16
197.491	-49.54
197.71	-18.13
197.928	-3.21
198.146	-21.85
198.365	-47.14
198.583	-21.33
198.801	-19.79
199.019	9.62
199.238	0.29
199.456	52.74
199.674	145.43
199.892	228.69
200.111	54.8
200.329	77.27
200.547	45.42
200.765	63.95
200.983	81.15
201.202	60.75
201.42	106.77
201.638	116.94
201.856	148.39
202.074	116.73
202.292	98.83
202.51	94.76
202.728	96.17
202.946	96.51
203.165	95.72
203.383	58.71
203.601	69.67
203.819	53.13
204.037	38.01
204.255	31.02
204.473	23.54
204.691	-6.41
204.909	-8.48
205.127	-3.74
205.345	-16.41
205.562	-1.32
205.78	44.76
205.998	41.54
206.216	40.17
206.434	59.91
206.652	64.35
206.87	94.1
207.088	110.59
207.306	103.42
207.523	51.75
207.741	52.95
207.959	55.72
208.177	-71.84
208.395	-510.34
208.612	727.62
208.83	-1178.23
209.048	-7991.67
209.266	1760.32
209.483	-304.68
209.701	-1184.41
209.919	-1395.93
210.136	-1132.85
210.354	-103.23
210.572	49.72
210.79	58.58
211.007	46.43
211.225	59.51
211.442	53.77
211.66	48.61
211.878	42.07
212.095	20.9
212.313	38.74
212.53	51.94
212.748	42.6
212.966	24.41
213.183	39.65
213.401	58.45
213.618	36.36
213.836	51.56
214.053	44.1
214.271	59.33
214.488	65.29
214.705	26.16
214.923	23.15
215.14	7.7
215.358	24.51
215.575	23.93
215.793	29
216.01	24.11
216.227	32.62
216.445	23.63
216.662	7.13
216.879	12.96
217.097	34.38
217.314	38.12
217.531	31.7
217.749	27.28
217.966	32.23
218.183	16.01
218.4	9.81
218.618	6.41
218.835	16.86
219.052	11.64
219.269	2.26
219.487	9.29
219.704	5.44
219.921	-5.21
220.138	-6.84
220.355	-12.98
220.572	-13.83
220.79	-5.52
221.007	-0.66
221.224	-4.51
221.441	6.73
221.658	12.94
221.875	9.95
222.092	13.02
222.309	17.65
222.526	16.56
222.743	16.65
222.96	18.16
223.177	13.41
223.394	8.15
223.611	7.86
223.828	-0.3
224.045	5.1
224.262	10.98
224.479	9.18
224.696	7.19
224.913	4.51
225.13	1.99
225.347	1.52
225.564	5.04
225.781	4.14
225.997	5.83
226.214	9.12
226.431	8.49
226.648	5.52
226.865	4.17
227.082	5.87
227.298	6.13
227.515	5.78
227.732	6.34
227.949	5.88
228.165	6.6
228.382	5.96
228.599	4.6
228.816	3.75
229.032	4.59
229.249	5.21
229.466	5.23
229.682	6.51
229.899	7.74
230.116	7.59
230.332	8.49
230.549	7.07
230.765	8.26
230.982	9.79
231.199	11.69
231.415	11.59
231.632	13.45
231.848	12.08
232.065	10.63
232.281	10.91
232.498	11.8
232.714	11.11
232.931	12.36
233.147	10.31
233.364	9.74
233.58	6.79
233.797	7.65
234.013	7.95
234.23	6.75
234.446	8.19
234.662	8.54
234.879	6.46
235.095	5.96
235.312	7.1
235.528	8.56
235.744	8.95
235.961	10.91
236.177	10.87
236.393	10.4
236.61	11
236.826	9.89
237.042	8.17
237.258	9.1
237.475	9.89
237.691	9.14
237.907	9.49
238.123	8.97
238.339	8.8
238.556	8.21
238.772	7.36
238.988	8.38
239.204	8.55
239.42	9.49
239.636	9.97
239.853	9.97
240.069	9.75
240.285	9.92
240.501	10.3
240.717	10.37
240.933	9.96
241.149	9.63
241.365	9.55
241.581	9.58
241.797	9.7
242.013	9.3
242.229	9.04
242.445	9.22
242.661	8.71
242.877	8.1
243.093	7.42
243.309	8.32
243.525	9.22
243.741	8.77
243.957	8.43
244.173	8.22
244.388	8.51
244.604	8.14
244.82	8.42
245.036	8.65
245.252	8.69
245.468	8.81
245.683	8.41
245.899	8.37
246.115	8.72
246.331	8.87
246.547	8.82
246.762	9.05
246.978	9.43
247.194	9.17
247.409	9.21
247.625	9.51
247.841	9.27
248.057	9.25
248.272	8.89
248.488	8.57
248.703	8.13
248.919	7.85
249.135	7.07
249.35	6.41
249.566	5.83
249.782	5.82
249.997	5.23
250.213	4.77
250.428	4.97
250.644	5.09
250.859	5.61
251.075	5.86
251.29	5.79
251.506	6.05
251.721	6.4
251.937	7.25
252.152	6.57
252.368	6.96
252.583	7.96
252.798	9.05
253.014	9.44
253.229	8.43
253.445	9.23
253.66	9.34
253.875	9.26
254.091	9.05
254.306	7.93
254.521	8.56
254.737	8.62
254.952	8.13
255.167	6.98
255.383	6.77
255.598	7.1
255.813	6.39
256.028	6.77
256.244	7.47
256.459	7.66
256.674	7.42
256.889	7.21
257.104	7.22
257.32	7
257.535	6.75
257.75	6.71
257.965	6.66
258.18	6.42
258.395	6.24
258.61	6
258.826	6.04
259.041	6.58
259.256	6.59
259.471	6.68
259.686	6.89
259.901	7.06
260.116	7.2
260.331	6.84
260.546	7.24
260.761	7.34
260.976	7.36
261.191	6.65
261.406	5.75
261.621	5.7
261.836	5.5
262.05	5.48
262.265	5.77
262.48	5.82
262.695	6.74
262.91	6.41
263.125	6.2
263.34	5.89
263.555	7.11
263.769	7.39
263.984	7.1
264.199	6.45
264.414	6.4
264.629	6.24
264.843	5.62
265.058	4.77
265.273	5.04
265.488	5.15
265.702	5
265.917	4.16
266.132	4.31
266.346	4.42
266.561	5.2
266.776	5.28
266.99	5.63
267.205	5.91
267.42	6.81
267.634	6.92
267.849	6.81
268.063	7.27
268.278	7.54
268.492	7.55
268.707	7.74
268.922	7.07
269.136	6.68
269.351	6.07
269.565	6.27
269.78	5.79
269.994	5.74
270.209	5.98
270.423	5.58
270.637	5.53
270.852	5.27
271.066	5.38
271.281	5.67
271.495	5.98
271.709	5.84
271.924	5.57
272.138	5.67
272.353	5.72
272.567	5.55
272.781	5.76
272.996	6.05
273.21	6.6
273.424	5.9
273.638	5.7
273.853	5.63
274.067	5.71
274.281	5.45
274.495	5.17
274.71	5.4
274.924	5.3
275.138	5.19
275.352	4.59
275.566	4.61
275.781	4.85
275.995	5.09
276.209	5.33
276.423	5.32
276.637	5.85
276.851	6.22
277.065	5.72
277.279	6.13
277.493	6.2
277.707	6.55
277.921	5.53
278.135	5.56
278.349	4.82
278.563	5.26
278.777	5.13
278.991	5.24
279.205	4.96
279.419	5.26
279.633	4.78
279.847	4.64
280.061	4.99
280.275	5.54
280.489	5.85
280.703	6.35
280.917	5.81
281.131	6.59
281.344	6.51
281.558	6.75
281.772	6.25
281.986	6.17
282.2	6.31
282.414	6.35
282.627	5.99
282.841	6.18
283.055	6.31
283.269	6.27
283.482	5.94
283.696	5.57
283.91	5.55
284.123	5.81
284.337	6.48
284.551	6.58
284.764	6.22
284.978	6.72
285.192	6.17
285.405	5.81
285.619	5.85
285.833	5.94
286.046	6.49
286.26	6.26
286.473	6.51
286.687	5.97
286.9	6.03
287.114	6.16
287.327	6.09
287.541	6.08
287.754	6.51
287.968	6.27
288.181	6.35
288.395	6.28
288.608	6.33
288.822	6.4
289.035	6.46
289.248	6.2
289.462	6.49
289.675	6.2
289.889	6.42
290.102	6.32
290.315	6.42
290.529	6.19
290.742	5.81
290.955	5.85
291.169	5.62
291.382	5.8
291.595	5.96
291.808	5.87
292.022	6.26
292.235	6.32
292.448	6.25
292.661	6.23
292.875	6.45
293.088	6.42
293.301	6.73
293.514	6.93
293.727	7.02
293.94	6.99
294.153	6.93
294.367	6.93
294.58	7.13
294.793	7.4
295.006	7.51
295.219	7.5
295.432	8.06
295.645	7.8
295.858	7.82
296.071	7.87
296.284	7.7
296.497	7.59
296.71	7.46
296.923	7.2
297.136	7.33
297.349	7.6
297.562	7.51
297.775	7.02
297.988	7.33
298.201	6.94
298.414	6.77
298.626	6.92
298.839	7.48
299.052	7.16
299.265	7.16
299.478	6.71
299.691	6.61
299.903	6.81
300.116	6.86
300.329	6.25
300.542	6.31
300.755	6.48
300.967	6.8
301.18	5.65
301.393	5.53
301.605	5.4
301.818	5.34
302.031	5.19
302.243	5.02
302.456	5.12
302.669	5.48
302.881	6.08
303.094	5.8
303.307	5.64
303.519	6.25
303.732	6.93
303.944	7.24
304.157	7.38
304.37	6.97
304.582	7.31
304.795	7.05
305.007	7.32
305.22	6.87
305.432	6.67
305.645	6.27
305.857	6.52
306.069	6.63
306.282	6.76
306.494	6.7
306.707	7.34
306.919	6.76
307.132	7.21
307.344	6.87
307.556	6.53
307.769	6.83
307.981	7.02
308.193	6.79
308.406	6.83
308.618	6.65
308.83	6.59
309.043	6.35
309.255	6.6
309.467	5.85
309.679	6.24
309.892	6.45
310.104	6.51
310.316	6.64
310.528	6.52
310.74	6.38
310.953	6.59
311.165	6.58
311.377	6.58
311.589	6.18
311.801	6.66
312.013	6.42
312.225	6.42
312.437	6.2
312.649	6.75
312.862	6.8
313.074	6.2
313.286	6.16
313.498	6.39
313.71	6.54
313.922	7.25
314.134	7.71
314.346	8.16
314.558	8.7
314.77	8.72
314.982	8.07
315.193	7.72
315.405	8.42
315.617	8.14
315.829	8
316.041	7.88
316.253	7.59
316.465	6.87
316.677	6.37
316.888	6.06
317.1	6.63
317.312	7.05
317.524	7.52
317.736	7.2
317.947	8.06
318.159	8.14
318.371	8.79
318.583	8.99
318.794	9.44
319.006	9.26
319.218	9.03
319.43	9.09
319.641	8.42
319.853	8.33
320.064	8.29
320.276	7.51
320.488	7.54
320.699	7.43
320.911	7.2
321.123	7.05
321.334	7.34
321.546	7.63
321.757	7.49
321.969	7.84
322.18	7.97
322.392	8.33
322.603	8.67
322.815	8.59
323.026	8.11
323.238	8.15
323.449	8.21
323.661	7.99
323.872	8.09
324.083	8.27
324.295	8.32
324.506	8.82
324.718	9.1
324.929	9.29
325.14	9.17
325.352	9.41
325.563	9.63
325.774	9.92
325.986	9.83
326.197	9.67
326.408	9.36
326.62	9.5
326.831	9.52
327.042	9.17
327.253	9.11
327.464	9.26
327.676	9.6
327.887	9.74
328.098	9.57
328.309	9.88
328.52	10.33
328.732	10.45
328.943	10.74
329.154	10.79
329.365	10.91
329.576	11.11
329.787	11.59
329.998	10.96
330.209	10.82
330.42	11.05
330.631	11.42
330.842	10.76
331.053	10.73
331.264	10.44
331.475	10.14
331.686	10.12
331.897	10.07
332.108	9.79
332.319	10.39
332.53	10.23
332.741	10.45
332.952	10.31
333.163	10.38
333.374	10.66
333.585	10.34
333.795	10.16
334.006	9.74
334.217	9.93
334.428	9.98
334.639	9.8
334.849	9.66
335.06	9.93
335.271	9.98
335.482	10.51
335.692	10.32
335.903	10.2
336.114	10.53
336.325	10.96
336.535	10.51
336.746	10.43
336.957	10.48
337.167	10.89
337.378	10.13
337.589	10.26
337.799	10.03
338.01	10.24
338.22	10.7
338.431	10.71
338.642	10.67
338.852	10.53
339.063	10.84
339.273	10.54
339.484	10.29
339.694	10.6
339.905	10.37
340.115	10.11
340.326	9.57
340.536	9.43
340.746	9.26
340.957	8.77
341.167	8.8
341.378	8.69
341.588	8.81
341.799	8.9
342.009	8.99
342.219	8.89
342.43	8.84
342.64	9.02
342.85	8.82
343.061	8.8
343.271	9.08
343.481	9.42
343.691	9.17
343.902	9.2
344.112	8.94
344.322	8.64
344.532	8.57
344.743	8.72
344.953	8.66
345.163	8.75
345.373	8.37
345.583	8.63
345.793	8.19
346.004	8.16
346.214	8.1
346.424	8.41
346.634	8.42
346.844	8.72
347.054	8.74
347.264	8.96
347.474	8.78
347.684	9.28
347.894	9.34
348.104	9.58
348.314	9.35
348.524	9.22
348.734	9.03
348.944	8.88
349.154	8.49
349.364	8.22
349.574	7.92
349.784	8.11
349.994	8.09
350.204	7.98
350.413	8
350.623	8.27
350.833	8.19
351.043	8.46
351.253	8.08
351.463	8.11
351.672	8.44
351.882	8.62
352.092	8.64
352.302	8.91
352.511	8.73
352.721	8.5
352.931	8.39
353.141	8.54
353.35	8.54
353.56	9.12
353.77	9.17
353.979	9.23
354.189	9.1
354.399	9.19
354.608	8.94
354.818	9.13
355.027	9.31
355.237	9.13
355.447	9.12
355.656	8.89
355.866	8.78
356.075	8.67
356.285	8.65
356.494	8.58
356.704	8.39
356.913	8.43
357.123	8.11
357.332	8.15
357.542	8.53
357.751	8.36
357.96	8.03
358.17	8.25
358.379	8.55
358.589	8.27
358.798	8.49
359.007	8.66
359.217	8.37
359.426	8.62
359.635	8.4
359.845	8.22
360.054	8.32
360.263	8.61
360.472	8.47
360.682	8.15
360.891	8.09
361.1	8.01
361.309	7.92
361.519	7.99
361.728	7.9
361.937	8.08
362.146	8.09
362.355	7.98
362.564	8.08
362.774	8.03
362.983	8.03
363.192	8.08
363.401	8.08
363.61	7.96
363.819	7.87
364.028	7.76
364.237	7.7
364.446	7.77
364.655	7.84
364.864	7.8
365.073	7.97
365.282	8.44
365.491	8.54
365.7	8.19
365.909	8.41
366.118	8.57
366.327	8.58
366.536	8.31
366.745	8.08
366.954	7.98
367.162	7.66
367.371	7.39
367.58	6.89
367.789	6.78
367.998	7.23
368.207	7
368.415	7.4
368.624	7.41
368.833	7.7
369.042	7.85
369.25	7.79
369.459	8.06
369.668	8.04
369.877	8.21
370.085	8.31
370.294	8.07
370.503	7.97
370.711	7.75
370.92	7.77
371.129	7.87
371.337	7.78
371.546	7.83
371.754	7.93
371.963	7.98
372.171	8.01
372.38	7.92
372.589	7.96
372.797	8.14
373.006	7.82
373.214	7.7
373.423	7.58
373.631	7.68
373.84	7.85
374.048	7.52
374.256	7.45
374.465	7.01
374.673	6.94
374.882	6.89
375.09	6.89
375.298	7.13
375.507	7.24
375.715	7.36
375.923	7.12
376.132	6.89
376.34	6.99
376.548	7.08
376.757	7.37
376.965	7.54
377.173	7.53
377.381	7.5
377.59	7.31
377.798	7.35
378.006	6.92
378.214	7.14
378.423	7.19
378.631	7.31
378.839	7.16
379.047	7.01
379.255	6.82
379.463	6.67
379.671	6.38
379.879	6.51
380.088	6.36
380.296	6.56
380.504	6.6
380.712	6.58
380.92	6.21
381.128	6.19
381.336	6.21
381.544	6.1
381.752	6.28
381.96	6.38
382.168	6.26
382.376	6.37
382.584	6.44
382.791	6.14
382.999	5.87
383.207	5.98
383.415	5.89
383.623	5.95
383.831	6
384.039	6.03
384.247	6.16
384.454	6.12
384.662	6.12
384.87	6.2
385.078	6.41
385.285	6.74
385.493	6.8
385.701	7.12
385.909	7.08
386.116	7.07
386.324	7.05
386.532	6.98
386.739	7.04
386.947	6.87
387.155	6.65
387.362	6.63
387.57	6.56
387.778	6.55
387.985	6.36
388.193	6.77
388.4	6.82
388.608	6.87
388.816	6.84
389.023	6.97
389.231	7.14
389.438	7.09
389.646	7.04
389.853	7.05
390.061	7.05
390.268	6.96
390.475	6.7
390.683	6.8
390.89	6.64
391.098	6.63
391.305	6.49
391.512	6.4
391.72	6.27
391.927	6.19
392.135	6.01
392.342	5.85
392.549	5.9
392.756	5.92
392.964	5.75
393.171	5.93
393.378	6.05
393.586	5.99
393.793	5.9
394	6.06
394.207	6.07
394.414	6.11
394.622	6.24
394.829	6.02
395.036	5.9
395.243	5.84
395.45	5.75
395.657	5.6
395.864	5.46
396.072	5.5
396.279	5.59
396.486	5.47
396.693	5.64
396.9	5.6
397.107	5.78
397.314	5.89
397.521	6.05
397.728	6.08
397.935	6.11
398.142	6.19
398.349	6.25
398.556	6.13
398.763	6.27
398.97	6.26
399.177	6.31
399.383	6.43
399.59	6.2
399.797	6.19
400.004	5.99
400.211	5.89
400.418	5.73
400.625	5.67
400.831	5.56
401.038	5.41
401.245	5.2
401.452	5.2
401.658	5.1
401.865	5.22
402.072	5.05
402.279	5.23
402.485	5.18
402.692	5.34
402.899	5.35
403.105	5.41
403.312	5.45
403.519	5.62
403.725	5.63
403.932	5.64
404.138	5.59
404.345	5.73
404.552	5.68
404.758	5.67
404.965	5.71
405.171	5.61
405.378	5.52
405.584	5.57
405.791	5.38
405.997	5.25
406.204	5.28
406.41	5.31
406.617	5.4
406.823	5.18
407.029	5.32
407.236	5.25
407.442	5.39
407.649	5.47
407.855	5.47
408.061	5.39
408.268	5.41
408.474	5.31
408.68	5.28
408.887	5.11
409.093	5.31
409.299	5.41
409.505	5.46
409.712	5.23
409.918	5.07
410.124	5.08
410.33	5.24
410.537	5.22
410.743	5.08
410.949	5.12
411.155	5.09
411.361	5.09
411.567	4.96
411.773	4.77
411.98	4.76
412.186	4.91
412.392	4.83
412.598	4.89
412.804	4.89
413.01	5.03
413.216	4.9
413.422	4.88
413.628	4.58
413.834	4.66
414.04	4.7
414.246	4.82
414.452	4.86
414.658	4.99
414.864	4.92
415.07	4.96
415.275	5.1
415.481	5.07
415.687	5.13
415.893	5.25
416.099	5.1
416.305	5.1
416.511	5
416.716	4.9
416.922	4.91
417.128	4.93
417.334	4.9
417.539	4.82
417.745	4.86
417.951	4.8
418.157	4.83
418.362	4.81
418.568	4.81
418.774	4.8
418.979	4.84
419.185	4.75
419.391	4.7
419.596	4.7
419.802	4.62
420.008	4.6
420.213	4.55
420.419	4.51
420.624	4.53
420.83	4.59
421.035	4.61
421.241	4.65
421.446	4.65
421.652	4.66
421.857	4.63
422.063	4.72
422.268	4.67
422.474	4.7
422.679	4.68
422.885	4.65
423.09	4.49
423.295	4.57
423.501	4.5
423.706	4.5
423.911	4.51
424.117	4.55
424.322	4.49
424.527	4.5
424.733	4.58
424.938	4.6
425.143	4.59
425.349	4.65
425.554	4.63
425.759	4.6
425.964	4.57
426.169	4.6
426.375	4.55
426.58	4.53
426.785	4.58
426.99	4.47
427.195	4.51
427.4	4.61
427.605	4.74
427.811	4.84
428.016	4.99
428.221	5.1
428.426	5.01
428.631	5.15
428.836	5.29
429.041	5.21
429.246	5.29
429.451	5.19
429.656	5.16
429.861	5.14
430.066	5.07
430.271	4.93
430.476	4.83
430.681	4.9
430.886	4.82
431.09	4.75
431.295	4.82
431.5	4.87
431.705	5
431.91	4.91
432.115	4.92
432.32	4.87
432.524	4.87
432.729	4.95
432.934	4.86
433.139	4.81
433.343	4.84
433.548	4.89
433.753	4.83
433.958	4.61
434.162	4.72
434.367	4.63
434.572	4.55
434.776	4.68
434.981	4.51
435.186	4.47
435.39	4.42
435.595	4.33
435.799	4.31
436.004	4.31
436.209	4.4
436.413	4.3
436.618	4.3
436.822	4.25
437.027	4.24
437.231	4.31
437.436	4.4
437.64	4.43
437.845	4.41
438.049	4.37
438.253	4.36
438.458	4.29
438.662	4.35
438.867	4.45
439.071	4.57
439.275	4.54
439.48	4.58
439.684	4.51
439.888	4.56
440.093	4.67
440.297	4.65
440.501	4.69
440.706	4.76
440.91	4.82
441.114	4.74
441.318	4.64
441.523	4.57
441.727	4.49
441.931	4.55
442.135	4.55
442.339	4.47
442.543	4.53
442.748	4.53
442.952	4.57
443.156	4.48
443.36	4.49
443.564	4.56
443.768	4.57
443.972	4.6
444.176	4.54
444.38	4.54
444.584	4.47
444.788	4.43
444.992	4.38
445.196	4.36
445.4	4.35
445.604	4.36
445.808	4.42
446.012	4.42
446.216	4.48
446.42	4.46
446.624	4.42
446.828	4.54
447.032	4.44
447.235	4.46
447.439	4.45
447.643	4.52
447.847	4.56
448.051	4.42
448.254	4.37
448.458	4.35
448.662	4.41
448.866	4.42
449.069	4.41
449.273	4.54
449.477	4.51
449.681	4.49
449.884	4.43
450.088	4.31
450.292	4.34
450.495	4.41
450.699	4.4
450.902	4.4
451.106	4.44
451.31	4.36
451.513	4.29
451.717	4.36
451.92	4.36
452.124	4.35
452.327	4.36
452.531	4.34
452.734	4.34
452.938	4.24
453.141	4.12
453.345	4.05
453.548	4.09
453.752	4.23
453.955	4.11
454.158	4.21
454.362	4.26
454.565	4.2
454.769	4.22
454.972	4.12
455.175	4.18
455.379	4.27
455.582	4.36
455.785	4.39
455.988	4.32
456.192	4.32
456.395	4.23
456.598	4.14
456.801	4.26
457.005	4.28
457.208	4.31
457.411	4.4
457.614	4.43
457.817	4.41
458.021	4.38
458.224	4.4
458.427	4.34
458.63	4.32
458.833	4.34
459.036	4.27
459.239	4.31
459.442	4.35
459.645	4.28
459.848	4.29
460.051	4.15
460.254	4.16
460.457	4.16
460.66	4.25
460.863	4.31
461.066	4.39
461.269	4.56
461.472	4.5
461.675	4.47
461.878	4.47
462.081	4.37
462.284	4.58
462.486	4.59
462.689	4.52
462.892	4.45
463.095	4.43
463.298	4.39
463.5	4.24
463.703	4.17
463.906	4.14
464.109	4.14
464.311	4.2
464.514	4.13
464.717	4
464.92	4.09
465.122	4.13
465.325	4.19
465.528	4.23
465.73	4.19
465.933	4.29
466.135	4.36
466.338	4.43
466.541	4.35
466.743	4.33
466.946	4.42
467.148	4.39
467.351	4.44
467.553	4.44
467.756	4.3
467.958	4.37
468.161	4.35
468.363	4.35
468.566	4.19
468.768	4.3
468.971	4.36
469.173	4.3
469.375	4.26
469.578	4.3
469.78	4.37
469.983	4.46
470.185	4.45
470.387	4.53
470.59	4.48
470.792	4.4
470.994	4.43
471.196	4.4
471.399	4.47
471.601	4.52
471.803	4.5
472.005	4.45
472.208	4.32
472.41	4.32
472.612	4.24
472.814	4.33
473.016	4.56
473.218	4.69
473.421	4.76
473.623	4.72
473.825	4.71
474.027	4.66
474.229	4.64
474.431	4.78
474.633	4.85
474.835	4.84
475.037	4.83
475.239	4.85
475.441	4.67
475.643	4.78
475.845	4.79
476.047	4.8
476.249	4.8
476.451	4.75
476.653	4.85
476.855	4.75
477.057	4.81
477.258	4.76
477.46	4.66
477.662	4.7
477.864	4.57
478.066	4.67
478.268	4.67
478.469	4.6
478.671	4.63
478.873	4.63
479.075	4.67
479.276	4.65
479.478	4.64
479.68	4.71
479.882	4.68
480.083	4.62
480.285	4.52
480.487	4.54
480.688	4.57
480.89	4.57
481.091	4.52
481.293	4.5
481.495	4.47
481.696	4.48
481.898	4.46
482.099	4.44
482.301	4.46
482.502	4.47
482.704	4.45
482.905	4.47
483.107	4.46
483.308	4.43
483.51	4.42
483.711	4.43
483.913	4.42
484.114	4.45
484.315	4.47
484.517	4.48
484.718	4.47
484.92	4.45
485.121	4.44
485.322	4.45
485.524	4.49
485.725	4.53
485.926	4.52
486.127	4.53
486.329	4.49
486.53	4.48
486.731	4.46
486.932	4.48
487.134	4.48
487.335	4.48
487.536	4.49
487.737	4.47
487.938	4.44
488.139	4.46
488.341	4.49
488.542	4.51
488.743	4.6
488.944	4.64
489.145	4.59
489.346	4.63
489.547	4.65
489.748	4.68
489.949	4.71
490.15	4.75
490.351	4.79
490.552	4.73
490.753	4.72
490.954	4.69
491.155	4.67
491.356	4.72
491.557	4.74
491.758	4.72
491.959	4.72
492.159	4.69
492.36	4.7
492.561	4.7
492.762	4.75
492.963	4.75
493.164	4.68
493.364	4.73
493.565	4.75
493.766	4.75
493.967	4.75
494.167	4.66
494.368	4.73
494.569	4.7
494.769	4.74
494.97	4.76
495.171	4.82
495.371	4.83
495.572	4.85
495.773	4.9
495.973	4.85
496.174	4.88
496.375	4.94
496.575	4.93
496.776	4.98
496.976	4.93
497.177	4.9
497.377	4.91
497.578	4.94
497.778	4.97
497.979	4.92
498.179	5.05
498.38	5.12
498.58	5.17
498.78	5.18
498.981	5.16
499.181	5.19
499.382	5.24
499.582	5.3
499.782	5.32
499.983	5.25
500.183	5.33
500.383	5.27
500.584	5.22
500.784	5.21
500.984	5.26
501.184	5.4
501.385	5.42
501.585	5.44
501.785	5.49
501.985	5.63
502.185	5.65
502.386	5.59
502.586	5.6
502.786	5.62
502.986	5.66
503.186	5.54
503.386	5.46
503.586	5.44
503.786	5.47
503.987	5.39
504.187	5.33
504.387	5.4
504.587	5.44
504.787	5.49
504.987	5.51
505.187	5.51
505.387	5.56
505.587	5.59
505.786	5.6
505.986	5.68
506.186	5.68
506.386	5.64
506.586	5.69
506.786	5.73
506.986	5.73
507.186	5.87
507.386	5.89
507.585	5.92
507.785	5.97
507.985	6.08
508.185	6.03
508.384	6.11
508.584	6.08
508.784	6.07
508.984	6.12
509.183	6.17
509.383	6.12
509.583	6.13
509.782	6.22
509.982	6.25
510.182	6.22
510.381	6.26
510.581	6.3
510.781	6.41
510.98	6.45
511.18	6.48
511.379	6.59
511.579	6.61
511.778	6.59
511.978	6.77
512.177	6.79
512.377	6.84
512.576	6.83
512.776	6.76
512.975	6.81
513.175	6.86
513.374	6.86
513.573	6.78
513.773	6.9
513.972	7.04
514.172	6.87
514.371	6.9
514.57	6.91
514.77	7.02
514.969	7.06
515.168	7.07
515.367	7.11
515.567	7.2
515.766	7.25
515.965	7.17
516.164	7.18
516.364	7.23
516.563	7.26
516.762	7.21
516.961	7.21
517.16	7.29
517.359	7.32
517.559	7.34
517.758	7.29
517.957	7.3
518.156	7.37
518.355	7.37
518.554	7.46
518.753	7.45
518.952	7.55
519.151	7.58
519.35	7.66
519.549	7.72
519.748	7.73
519.947	7.78
520.146	7.8
520.345	7.78
520.544	7.8
520.743	7.69
520.942	7.72
521.141	7.68
521.339	7.63
521.538	7.58
521.737	7.68
521.936	7.7
522.135	7.75
522.333	7.87
522.532	7.95
522.731	7.98
522.93	8.1
523.129	8.19
523.327	8.31
523.526	8.33
523.725	8.39
523.923	8.35
524.122	8.38
524.321	8.39
524.519	8.38
524.718	8.43
524.917	8.49
525.115	8.54
525.314	8.49
525.512	8.54
525.711	8.59
525.909	8.55
526.108	8.58
526.306	8.63
526.505	8.66
526.703	8.67
526.902	8.69
527.1	8.7
527.299	8.66
527.497	8.69
527.696	8.69
527.894	8.71
528.092	8.74
528.291	8.79
528.489	8.73
528.688	8.76
528.886	8.77
529.084	8.74
529.283	8.73
529.481	8.77
529.679	8.81
529.877	8.83
530.076	8.86
530.274	8.91
530.472	8.9
530.67	9.01
530.869	9.07
531.067	9.04
531.265	9.12
531.463	9.15
531.661	9.23
531.859	9.18
532.057	9.15
532.255	9.14
532.454	9.17
532.652	9.19
532.85	9.19
533.048	9.17
533.246	9.21
533.444	9.21
533.642	9.26
533.84	9.22
534.038	9.31
534.236	9.41
534.434	9.43
534.632	9.39
534.83	9.39
535.027	9.45
535.225	9.45
535.423	9.49
535.621	9.48
535.819	9.49
536.017	9.56
536.215	9.6
536.412	9.64
536.61	9.67
536.808	9.75
537.006	9.77
537.203	9.76
537.401	9.8
537.599	9.82
537.797	9.83
537.994	9.83
538.192	9.86
538.39	9.9
538.587	9.94
538.785	10.01
538.983	10.01
539.18	10.05
539.378	10.1
539.575	10.14
539.773	10.2
539.97	10.25
540.168	10.31
540.366	10.32
540.563	10.3
540.761	10.3
540.958	10.32
541.155	10.33
541.353	10.36
541.55	10.37
541.748	10.4
541.945	10.39
542.143	10.4
542.34	10.41
542.537	10.39
542.735	10.46
542.932	10.44
543.129	10.46
543.327	10.54
543.524	10.56
543.721	10.57
543.919	10.6
544.116	10.67
544.313	10.74
544.51	10.74
544.708	10.88
544.905	10.88
545.102	11.02
545.299	11.12
545.496	11.13
545.693	11.15
545.891	11.28
546.088	11.26
546.285	11.35
546.482	11.33
546.679	11.35
546.876	11.34
547.073	11.3
547.27	11.24
547.467	11.21
547.664	11.31
547.861	11.42
548.058	11.36
548.255	11.45
548.452	11.35
548.649	11.4
548.846	11.51
549.043	11.61
549.24	11.78
549.437	11.75
549.633	11.77
549.83	11.76
550.027	11.67
550.224	11.78
550.421	11.76
550.618	11.92
550.814	11.98
551.011	11.95
551.208	11.92
551.405	12
551.601	12.13
551.798	12.23
551.995	12.26
552.191	12.34
552.388	12.43
552.585	12.54
552.781	12.49
552.978	12.53
553.175	12.56
553.371	12.59
553.568	12.52
553.764	12.48
553.961	12.44
554.157	12.54
554.354	12.39
554.55	12.28
554.747	12.32
554.943	12.3
555.14	12.4
555.336	12.52
555.533	12.7
555.729	12.84
555.926	13.07
556.122	13.11
556.318	13.13
556.515	13.34
556.711	13.52
556.907	13.44
557.104	13.58
557.3	13.68
557.496	13.82
557.693	13.77
557.889	13.78
558.085	13.64
558.281	13.8
558.478	13.8
558.674	13.92
558.87	13.99
559.066	14.06
559.262	14.15
559.459	14.1
559.655	14.03
559.851	14.01
560.047	14.14
560.243	14.25
560.439	14.23
560.635	14.3
560.831	14.36
561.027	14.27
561.223	14.37
561.419	14.5
561.615	14.59
561.811	14.67
562.007	14.81
562.203	14.81
562.399	14.95
562.595	15
562.791	14.99
562.987	14.99
563.183	15
563.379	15.1
563.575	15.1
563.771	15.03
563.966	15.15
564.162	15.04
564.358	15
564.554	14.98
564.75	14.96
564.945	15.11
565.141	15.12
565.337	15.26
565.533	15.32
565.728	15.37
565.924	15.5
566.12	15.48
566.315	15.67
566.511	15.86
566.707	15.92
566.902	16.01
567.098	15.97
567.293	16.08
567.489	16
567.684	16.03
567.88	15.99
568.076	16.02
568.271	16.05
568.467	16.1
568.662	16.11
568.858	16.18
569.053	16.2
569.248	16.38
569.444	16.39
569.639	16.51
569.835	16.52
570.03	16.55
570.225	16.67
570.421	16.71
570.616	16.73
570.812	16.7
571.007	16.72
571.202	16.88
571.397	16.7
571.593	16.79
571.788	16.84
571.983	16.86
572.178	16.93
572.374	16.88
572.569	16.87
572.764	16.8
572.959	16.91
573.154	17.03
573.35	17.05
573.545	17.25
573.74	17.21
573.935	17.15
574.13	17.19
574.325	17.14
574.52	17.3
574.715	17.39
574.91	17.49
575.105	17.48
575.3	17.42
575.495	17.44
575.69	17.47
575.885	17.48
576.08	17.59
576.275	17.66
576.47	17.89
576.665	17.81
576.86	17.9
577.055	17.95
577.25	18.1
577.444	18.21
577.639	18.36
577.834	18.39
578.029	18.66
578.224	18.82
578.418	18.78
578.613	18.75
578.808	18.82
579.003	18.82
579.197	18.89
579.392	18.84
579.587	18.72
579.781	18.57
579.976	18.63
580.171	18.56
580.365	18.65
580.56	18.92
580.755	19.01
580.949	18.93
581.144	19.15
581.338	19.11
581.533	19.19
581.727	19.44
581.922	19.6
582.116	19.68
582.311	19.66
582.505	19.58
582.7	19.41
582.894	19.23
583.089	19.18
583.283	19.07
583.478	19.15
583.672	19.03
583.866	18.93
584.061	18.72
584.255	18.6
584.449	18.76
584.644	18.72
584.838	18.83
585.032	19.07
585.226	19.27
585.421	19.3
585.615	19.38
585.809	19.49
586.003	19.7
586.198	19.9
586.392	20.06
586.586	19.98
586.78	20.05
586.974	20.1
587.168	20.07
587.363	19.92
587.557	20
587.751	20.05
587.945	20.14
588.139	20.09
588.333	20.27
588.527	20.28
588.721	20.36
588.915	20.45
589.109	20.41
589.303	20.49
589.497	20.75
589.691	20.67
589.885	20.75
590.079	20.71
590.273	20.75
590.466	20.66
590.66	20.73
590.854	20.64
591.048	20.69
591.242	20.75
591.436	20.68
591.629	20.71
591.823	20.83
592.017	20.77
592.211	20.97
592.404	21.07
592.598	21.06
592.792	20.92
592.986	21.02
593.179	20.9
593.373	20.89
593.567	21.04
593.76	21.04
593.954	20.93
594.147	21
594.341	20.9
594.535	20.89
594.728	20.95
594.922	21.12
595.115	21.21
595.309	21.37
595.502	21.48
595.696	21.43
595.889	21.44
596.083	21.57
596.276	21.49
596.47	21.53
596.663	21.59
596.856	21.56
597.05	21.45
597.243	21.38
597.437	21.33
597.63	21.25
597.823	21.25
598.017	21.38
598.21	21.37
598.403	21.46
598.596	21.4
598.79	21.32
598.983	21.34
599.176	21.55
599.369	21.7
599.563	21.79
599.756	21.94
599.949	22.19
600.142	22.03
600.335	21.93
600.528	22.09
600.722	22.29
600.915	22.31
601.108	22.45
601.301	22.56
601.494	22.63
601.687	22.62
601.88	22.65
602.073	22.61
602.266	22.75
602.459	22.82
602.652	22.67
602.845	22.66
603.038	22.71
603.231	22.63
603.424	22.51
603.617	22.5
603.809	22.52
604.002	22.45
604.195	22.45
604.388	22.38
604.581	22.42
604.774	22.56
604.966	22.47
605.159	22.46
605.352	22.47
605.545	22.51
605.737	22.6
605.93	22.77
606.123	22.92
606.316	22.96
606.508	23.16
606.701	23.33
606.894	23.41
607.086	23.39
607.279	23.43
607.471	23.34
607.664	23.25
607.857	23.1
608.049	22.99
608.242	23.02
608.434	23
608.627	22.88
608.819	22.69
609.012	22.65
609.204	22.71
609.397	22.63
609.589	22.81
609.782	22.98
609.974	23.01
610.166	23.15
610.359	23.02
610.551	22.89
610.743	23.03
610.936	23.17
611.128	23.06
611.32	23.09
611.513	23.16
611.705	23.28
611.897	23.2
612.09	23.23
612.282	23.05
612.474	23.08
612.666	23.1
612.858	22.87
613.051	22.77
613.243	22.88
613.435	22.84
613.627	22.98
613.819	22.95
614.011	22.99
614.203	23.05
614.395	22.92
614.588	23.02
614.78	23.08
614.972	23.26
615.164	23.32
615.356	23.31
615.548	23.5
615.74	23.38
615.932	23.24
616.124	23.3
616.315	23.54
616.507	23.75
616.699	23.79
616.891	23.8
617.083	23.77
617.275	23.84
617.467	23.92
617.659	23.93
617.85	24.13
618.042	24.18
618.234	24.12
618.426	23.87
618.618	23.85
618.809	23.95
619.001	24
619.193	23.93
619.384	23.97
619.576	24.02
619.768	23.96
619.959	23.82
620.151	24.06
620.343	24.06
620.534	24.26
620.726	24.38
620.917	24.25
621.109	24.32
621.301	24.45
621.492	24.51
621.684	24.44
621.875	24.49
622.067	24.56
622.258	24.36
622.45	24.33
622.641	24.26
622.832	24.15
623.024	24.14
623.215	24.17
623.407	24.14
623.598	24.23
623.789	24.2
623.981	24.3
624.172	24.39
624.363	24.36
624.555	24.34
624.746	24.52
624.937	24.55
625.129	24.52
625.32	24.46
625.511	24.52
625.702	24.5
625.893	24.53
626.085	24.48
626.276	24.38
626.467	24.44
626.658	24.61
626.849	24.38
627.04	24.39
627.231	24.5
627.422	24.53
627.614	24.53
627.805	24.51
627.996	24.69
628.187	24.62
628.378	24.76
628.569	24.86
628.76	24.71
628.951	24.77
629.142	24.84
629.332	24.78
629.523	24.98
629.714	25.14
629.905	25.16
630.096	25.03
630.287	25.08
630.478	24.94
630.669	24.85
630.859	24.94
631.05	25.02
631.241	25.07
631.432	25.33
631.623	25.1
631.813	24.89
632.004	24.64
632.195	24.69
632.385	24.65
632.576	24.68
632.767	24.82
632.957	25
633.148	25.05
633.339	25.04
633.529	24.8
633.72	24.96
633.91	25.02
634.101	25.25
634.292	25.35
634.482	25.52
634.673	25.51
634.863	25.37
635.054	25.24
635.244	25.26
635.435	25.3
635.625	25.45
635.815	25.49
636.006	25.66
636.196	25.66
636.387	25.59
636.577	25.45
636.767	25.67
636.958	25.84
637.148	25.98
637.338	25.82
637.529	25.75
637.719	25.85
637.909	25.71
638.099	25.58
638.29	25.49
638.48	25.32
638.67	25.47
638.86	25.48
639.05	25.53
639.241	25.53
639.431	25.61
639.621	25.76
639.811	25.64
640.001	25.75
640.191	25.82
640.381	25.94
640.571	26.22
640.761	26.26
640.951	26.29
641.141	26.05
641.331	26
641.521	25.98
641.711	25.78
641.901	25.83
642.091	25.77
642.281	25.66
642.471	25.58
642.661	25.46
642.851	25.44
643.041	25.23
643.231	25.36
643.42	25.58
643.61	25.84
643.8	25.95
643.99	26.03
644.18	26.27
644.369	26.27
644.559	26.61
644.749	26.8
644.939	26.67
645.128	26.76
645.318	26.78
645.508	26.5
645.697	26.53
645.887	26.4
646.076	26.33
646.266	26.19
646.456	26.41
646.645	26.15
646.835	26
647.024	26.17
647.214	26.2
647.403	26
647.593	25.92
647.782	25.74
647.972	25.95
648.161	25.95
648.351	25.97
648.54	25.8
648.73	25.91
648.919	25.92
649.108	25.95
649.298	26.05
649.487	26.36
649.677	26.46
649.866	26.49
650.055	26.16
650.244	26.28
650.434	26.23
650.623	26.17
650.812	26.14
651.002	26.31
651.191	26.4
651.38	26.54
651.569	26.41
651.758	26.38
651.947	26.41
652.137	26.58
652.326	26.47
652.515	26.5
652.704	26.9
652.893	27.04
653.082	26.77
653.271	26.81
653.46	26.72
653.649	26.8
653.838	26.93
654.027	26.81
654.216	27.12
654.405	27.11
654.594	27.01
654.783	26.84
654.972	26.71
655.161	26.72
655.35	26.64
655.539	26.55
655.728	26.5
655.916	26.37
656.105	26.55
656.294	26.5
656.483	26.51
656.672	26.59
656.86	26.5
657.049	26.6
657.238	26.66
657.427	26.69
657.615	26.65
657.804	26.66
657.993	26.74
658.181	26.76
658.37	26.88
658.559	26.94
658.747	26.9
658.936	27.1
659.125	27.07
659.313	27.01
659.502	26.87
659.69	26.91
659.879	26.96
660.067	26.92
660.256	27
660.444	26.79
660.633	26.74
660.821	26.9
661.01	26.83
661.198	26.89
661.387	27.04
661.575	27.2
661.763	27.4
661.952	27.24
662.14	27.37
662.328	27.14
662.517	27.13
662.705	26.86
662.893	26.67
663.082	26.64
663.27	26.77
663.458	26.67
663.646	26.73
663.834	26.8
664.023	26.9
664.211	26.86
664.399	27.12
664.587	27.07
664.775	27.44
664.963	27.48
665.152	27.41
665.34	27.24
665.528	27.35
665.716	27.37
665.904	27.2
666.092	27.36
666.28	27.54
666.468	27.46
666.656	27.33
666.844	27.06
667.032	27.12
667.22	27.18
667.408	27.25
667.596	27.3
667.784	27.19
667.971	27.21
668.159	27.06
668.347	26.94
668.535	26.86
668.723	27.04
668.911	27.35
669.098	27.51
669.286	27.53
669.474	27.38
669.662	27.02
669.849	27.03
670.037	27.04
670.225	27.19
670.413	27.22
670.6	27.29
670.788	27.38
670.976	27.36
671.163	27.12
671.351	27.08
671.538	27.35
671.726	27.68
671.913	27.48
672.101	27.48
672.289	27.65
672.476	27.71
672.664	27.46
672.851	27.83
673.039	27.88
673.226	28.33
673.413	28.38
673.601	28.09
673.788	28.17
673.976	28.47
674.163	28.33
674.35	28.3
674.538	28.35
674.725	28.61
674.912	28.09
675.1	28.2
675.287	27.77
675.474	28.16
675.662	28.36
675.849	28.16
676.036	28.18
676.223	28.24
676.411	28.25
676.598	28.24
676.785	27.98
676.972	28.2
677.159	28.14
677.346	28.36
677.533	27.9
677.721	27.91
677.908	28.15
678.095	28.06
678.282	28.38
678.469	28.31
678.656	28.2
678.843	28.52
679.03	28.59
679.217	28.58
679.404	28.59
679.591	28.77
679.778	28.73
679.964	28.83
680.151	28.94
680.338	28.77
680.525	28.7
680.712	28.66
680.899	28.76
681.086	28.55
681.272	28.42
681.459	28.54
681.646	28.35
681.833	28.55
682.02	28.41
682.206	28.3
682.393	28.36
682.58	28.31
682.766	28.53
682.953	28.31
683.14	28.42
683.326	28.41
683.513	28.24
683.7	28.52
683.886	28.45
684.073	28.6
684.259	28.76
684.446	28.53
684.632	28.94
684.819	28.96
685.005	28.95
685.192	29.02
685.378	29.54
685.565	29.59
685.751	29.46
685.938	29.12
686.124	29.15
686.31	29.29
686.497	29.45
686.683	28.96
686.87	28.87
687.056	28.86
687.242	29.03
687.429	28.65
687.615	28.61
687.801	28.42
687.987	28.72
688.174	28.64
688.36	28.62
688.546	28.55
688.732	28.83
688.918	28.8
689.105	28.82
689.291	28.72
689.477	28.74
689.663	28.75
689.849	28.99
690.035	28.84
690.221	28.6
690.407	28.5
690.593	28.87
690.779	28.87
690.965	28.68
691.151	28.65
691.337	28.66
691.523	28.59
691.709	28.75
691.895	28.59
692.081	28.55
692.267	28.56
692.453	28.17
692.639	28
692.825	27.59
693.011	28.01
693.196	27.93
693.382	27.6
693.568	27.71
693.754	27.71
693.94	27.71
694.125	28.01
694.311	28.11
694.497	28.44
694.682	28.55
694.868	29.11
695.054	29.37
695.239	29.78
695.425	29.93
695.611	30.23
695.796	30.21
695.982	30.02
696.168	29.86
696.353	29.99
696.539	29.95
696.724	29.88
696.91	29.73
697.095	29.59
697.281	29.41
697.466	29.49
697.652	29.19
697.837	29.27
698.023	29.34
698.208	29.51
698.393	29.57
698.579	29.53
698.764	29.53
698.949	29.49
699.135	29.38
699.32	29.4
699.505	29.28
699.691	29.44
699.876	29.26
700.061	29.44
700.246	29.01
700.432	29.1
700.617	29.22
700.802	28.95
700.987	28.84
701.172	28.79
701.358	28.45
701.543	28.91
701.728	28.86
701.913	28.79
702.098	28.76
702.283	29.01
702.468	28.71
702.653	28.62
702.838	28.54
703.023	28.87
703.208	28.66
703.393	29.3
703.578	28.99
703.763	28.9
703.948	29.18
704.133	29.11
704.318	29.17
704.503	29.41
704.688	29.48
704.873	29.54
705.057	29.29
705.242	29.54
705.427	29.35
705.612	29.33
705.797	29.39
705.981	29.63
706.166	29.8
706.351	29.39
706.536	29.15
706.72	28.83
706.905	29.1
707.09	29.3
707.274	29.31
707.459	29.4
707.644	29.34
707.828	29.38
708.013	28.83
708.197	29.07
708.382	29.45
708.567	29.54
708.751	29.92
708.936	29.99
709.12	29.9
709.305	29.94
709.489	29.95
709.673	29.79
709.858	29.7
710.042	29.76
710.227	29.34
710.411	29.21
710.596	29.22
710.78	29.45
710.964	29.24
711.149	29.46
711.333	29.65
711.517	29.57
711.702	30.09
711.886	30.17
712.07	30.4
712.254	30.55
712.438	30.67
712.623	30.67
712.807	30.5
712.991	30.84
713.175	30.8
713.359	30.64
713.544	30.57
713.728	30.31
713.912	30.18
714.096	30
714.28	30.06
714.464	30.07
714.648	30.11
714.832	30.24
715.016	29.9
715.2	29.95
715.384	29.87
715.568	29.65
715.752	29.4
715.936	29.48
716.12	29.76
716.304	29.95
716.488	30.12
716.671	30.28
716.855	29.74
717.039	29.33
717.223	28.67
717.407	28.56
717.59	28.63
717.774	28.97
717.958	28.96
718.142	28.53
718.325	28.04
718.509	27.65
718.693	27.26
718.877	27.36
719.06	28.22
719.244	28.77
719.428	28.72
719.611	28.84
719.795	28.79
719.978	29.02
720.162	29.33
720.345	29.66
720.529	29.82
720.713	29.65
720.896	29.91
721.08	29.82
721.263	29.62
721.446	30.09
721.63	29.94
721.813	29.68
721.997	29.59
722.18	29.39
722.364	29.34
722.547	29.58
722.73	29.93
722.914	29.83
723.097	29.56
723.28	29.99
723.464	29.78
723.647	30.54
723.83	30.48
724.013	30.2
724.197	30.39
724.38	30.11
724.563	29.89
724.746	30.36
724.929	30.69
725.112	30.73
725.296	30.12
725.479	30.16
725.662	29.61
725.845	30.08
726.028	30.01
726.211	29.84
726.394	29.9
726.577	29.83
726.76	29.56
726.943	29.48
727.126	29.11
727.309	29.64
727.492	29.68
727.675	30.09
727.858	29.96
728.041	30.41
728.224	30.2
728.407	30.52
728.589	30.49
728.772	30.36
728.955	30.08
729.138	30.69
729.321	29.96
729.503	30.21
729.686	29.85
729.869	29.78
730.052	29.31
730.234	29.78
730.417	29.48
730.6	29.52
730.782	29.34
730.965	29.26
731.148	29.22
731.33	29.93
731.513	29.66
731.695	29.35
731.878	29.51
732.061	29.86
732.243	29.88
732.426	29.87
732.608	30.22
732.791	30.46
732.973	31
733.156	31.22
733.338	31.28
733.52	31.55
733.703	32.04
733.885	31.91
734.068	31.99
734.25	31.51
734.432	31.6
734.615	31.3
734.797	31.3
734.979	31.5
735.162	31.1
735.344	30.94
735.526	31.08
735.708	30.92
735.891	30.58
736.073	30.19
736.255	30.46
736.437	30.69
736.619	31.23
736.802	31.49
736.984	30.93
737.166	30.8
737.348	30.32
737.53	29.73
737.712	29.88
737.894	30.13
738.076	30.37
738.258	30.58
738.44	30.18
738.622	29.78
738.804	29.5
738.986	29.32
739.168	29.62
739.35	29.88
739.532	29.68
739.714	29.33
739.896	29.2
740.078	29.01
740.259	29.05
740.441	28.61
740.623	28.79
740.805	29.02
740.987	28.87
741.168	28.81
741.35	29.19
741.532	29.45
741.714	29.59
741.895	30.19
742.077	30.06
742.259	29.74
742.44	30.43
742.622	30.28
742.804	29.6
742.985	29.77
743.167	29.37
743.348	29.22
743.53	29.16
743.711	29.41
743.893	28.87
744.075	29.7
744.256	29.67
744.438	29.6
744.619	29.01
744.8	29.64
744.982	29.78
745.163	29.85
745.345	30.11
745.526	30.3
745.707	30.09
745.889	30.58
746.07	30.07
746.252	30.19
746.433	30.33
746.614	30.54
746.795	29.83
746.977	30.09
747.158	30.65
747.339	30.41
747.52	30.81
747.702	31.58
747.883	31.08
748.064	31.49
748.245	31.59
748.426	31.12
748.607	31.72
748.788	31.99
748.97	32.3
749.151	31.64
749.332	32.13
749.513	31.43
749.694	30.91
749.875	30.82
750.056	30.89
750.237	30.41
750.418	30.92
750.599	30.57
750.78	30.8
750.96	30.02
751.141	29.95
751.322	29.48
751.503	29.65
751.684	29.56
751.865	30.02
752.046	29.46
752.226	29.18
752.407	29.98
752.588	29.79
752.769	29.85
752.949	30.01
753.13	30.97
753.311	31.39
753.492	31.64
753.672	31.27
753.853	31.28
754.034	31.75
754.214	32.02
754.395	30.81
754.575	31.69
754.756	32.02
754.937	32.57
755.117	31.58
755.298	30.71
755.478	29.78
755.659	29.47
755.839	29.3
756.02	28.91
756.2	29.55
756.381	30.19
756.561	29.36
756.741	28.8
756.922	28.86
757.102	29.07
757.283	29.37
757.463	29.64
757.643	30.71
757.823	30.66
758.004	30.99
758.184	30.45
758.364	30.58
758.545	30.69
758.725	30.9
758.905	30.46
759.085	30.42
759.265	30.79
759.446	30.97
759.626	29.73
759.806	29.63
759.986	29.34
760.166	30.06
760.346	29.7
760.526	29.76
760.706	29.34
760.886	29.41
761.066	29.79
761.246	29.45
761.426	30.07
761.606	30.56
761.786	30.78
761.966	30.43
762.146	30.14
762.326	30.37
762.506	30.19
762.686	30.46
762.866	30.31
763.046	30.18
763.225	30.21
763.405	29.98
763.585	29.93
763.765	29.85
763.945	30
764.124	30.17
764.304	30.11
764.484	30.8
764.664	30.84
764.843	30.88
765.023	30.97
765.203	31
765.382	30.9
765.562	31.37
765.741	31.47
765.921	31.15
766.101	31.32
766.28	31.05
766.46	30.27
766.639	30.03
766.819	30.77
766.998	31.13
767.178	31.08
767.357	31.13
767.537	30.78
767.716	29.99
767.896	30.52
768.075	30.21
768.254	30.75
768.434	30.76
768.613	30.88
768.792	29.92
768.972	29.1
769.151	29.11
769.33	29.66
769.51	30.07
769.689	30.54
769.868	29.79
770.047	29.51
770.226	29.29
770.406	29.61
770.585	30.29
770.764	30.83
770.943	31.25
771.122	31.09
771.301	30.86
771.48	30.53
771.66	31.07
771.839	31.65
772.018	32.61
772.197	33.05
772.376	32.74
772.555	32.64
772.734	32.54
772.913	32.35
773.092	32.44
773.271	32.24
773.449	32.31
773.628	31.88
773.807	31.59
773.986	31.19
774.165	30.47
774.344	30.17
774.523	30.07
774.701	29.51
774.88	29.8
775.059	29.86
775.238	29.6
775.417	29.41
775.595	29.8
775.774	30.42
775.953	30.05
776.131	30.3
776.31	30.29
776.489	29.51
776.667	29
776.846	29.1
777.025	29
777.203	28.43
777.382	29.42
777.56	29.93
777.739	30.34
777.917	30.01
778.096	29.86
778.274	30.24
778.453	30.41
778.631	31.73
778.81	31.34
778.988	31.62
779.166	32.31
779.345	31.52
779.523	31.22
779.702	30.21
779.88	30.19
780.058	30.07
780.237	29.95
780.415	29.63
780.593	28.71
780.771	28.29
780.95	27.81
781.128	27.83
781.306	28.19
781.484	28.45
781.662	28.71
781.841	29.6
782.019	29.25
782.197	28.94
782.375	29.65
782.553	30.74
782.731	30.77
782.909	31.37
783.087	31.23
783.265	30.49
783.443	29.38
783.621	30.15
783.799	29.22
783.977	30.8
784.155	31.18
784.333	31.88
784.511	30.6
784.689	31.33
784.867	30.91
785.045	31.33
785.223	31.67
785.4	31.21
785.578	30.78
785.756	31.13
785.934	30.03
786.112	30.24
786.289	28.76
786.467	29.88
786.645	30.11
786.823	30.47
787	30.57
787.178	31.15
787.356	31.34
787.533	31.98
787.711	32.7
787.889	32.47
788.066	33.09
788.244	33.34
788.421	32.82
788.599	32.66
788.776	32.47
788.954	32.22
789.131	31.49
789.309	32.45
789.486	32.23
789.664	32.23
789.841	32.59
790.019	31.34
790.196	32.03
790.373	32.28
790.551	32.37
790.728	33.09
790.906	32.84
791.083	32.64
791.26	32.22
791.437	32.46
791.615	32.1
791.792	32.29
791.969	32.87
792.146	32.62
792.324	32.42
792.501	31.7
792.678	30.04
792.855	30.96
793.032	31.94
793.209	32.05
793.387	31.83
793.564	30.48
793.741	30.19
793.918	29.66
794.095	29.72
794.272	30.59
794.449	30.73
794.626	32
794.803	31.21
794.98	30.88
795.157	30.84
795.334	30.38
795.511	30.99
795.688	30.83
795.864	32.8
796.041	33.1
796.218	31.84
796.395	31.36
796.572	30.76
796.749	31.46
796.925	31.14
797.102	31.13
797.279	31.5
797.456	31.96
797.632	31.85
797.809	30.14
797.986	30.26
798.162	31.43
798.339	31.43
798.516	31.63
798.692	30.51
798.869	30.29
799.046	29.23
799.222	27.71
799.399	28.61
799.575	28.72
799.752	30.04
799.928	29.37
800.105	28.65
800.281	29.6
800.458	29.66
800.634	30.56
800.811	31.17
800.987	31.05
801.163	32.45
801.34	31.69
801.516	32.56
801.692	31.66
801.869	32.41
802.045	33.09
802.221	32.35
802.398	32.16
802.574	31.85
802.75	31.34
802.926	33.04
803.103	32.78
803.279	31.94
803.455	31.52
803.631	31.6
803.807	30.72
803.983	30.51
804.16	31.4
804.336	31.8
804.512	31.48
804.688	32.24
804.864	31.16
805.04	30.67
805.216	31.83
805.392	31.43
805.568	30.7
805.744	30.51
805.92	30.17
806.096	29.77
806.272	29.88
806.448	29.36
806.623	29.73
806.799	30.87
806.975	32.39
807.151	31.91
807.327	32.08
807.503	32.06
807.678	33.04
807.854	33.51
808.03	34.44
808.206	34.59
808.381	34.87
808.557	34.5
808.733	33.13
808.908	31.91
809.084	31.45
809.26	32.16
809.435	33.44
809.611	33.75
809.787	32.47
809.962	32.27
810.138	32.7
810.313	33.07
810.489	32.53
810.664	33.04
810.84	34.09
811.015	34.06
811.191	35.31
811.366	34.74
811.542	33.43
811.717	33.87
811.892	34.67
812.068	35.2
812.243	35.02
812.419	34.87
812.594	34.75
812.769	33.18
812.944	32.97
813.12	31.65
813.295	31.18
813.47	32.26
813.645	33.1
813.821	31.32
813.996	29.46
814.171	27.84
814.346	29.5
814.521	29.67
814.697	30.67
814.872	30.23
815.047	29.58
815.222	29.5
815.397	28.68
815.572	28.14
815.747	27.46
815.922	28.44
816.097	30.23
816.272	28.82
816.447	29.68
816.622	29.68
816.797	30.11
816.972	30.18
817.147	30.45
817.322	30.9
817.496	31.92
817.671	32.48
817.846	31.87
818.021	32.36
818.196	32.19
818.371	32.42
818.545	32.24
818.72	32.86
818.895	31.81
819.069	31.64
819.244	30.87
819.419	29.69
819.594	30.29
819.768	30.38
819.943	30.31
820.117	30.22
820.292	29.81
820.467	29.73
820.641	29.89
820.816	30.37
820.99	30.57
821.165	30.71
821.339	30.77
821.514	30.57
821.688	30.49
821.863	30.35
822.037	30.53
822.212	30.54
822.386	30.48
822.56	30.36
822.735	30.34
822.909	30.13
823.084	29.9
823.258	29.84
823.432	29.78
823.606	29.77
823.781	29.68
823.955	29.45
824.129	29.6
824.303	29.69
824.478	29.91
824.652	29.96
824.826	30.14
825	30.53
825.174	30.7
825.348	30.76
825.523	30.41
825.697	30.45
825.871	30.56
826.045	30.01
826.219	29.88
826.393	30.02
826.567	29.82
826.741	29.45
826.915	29.29
827.089	29.56
827.263	29.58
827.437	30.02
827.611	30.02
827.784	29.84
827.958	29.73
828.132	29.94
828.306	28.8
828.48	28.83
828.654	29.13
828.827	29.23
829.001	29.08
829.175	29
829.349	28.97
829.522	28.9
829.696	29.84
829.87	30.54
830.044	30.29
830.217	31.5
830.391	31.23
830.565	32
830.738	31.93
830.912	31.07
831.085	30.88
831.259	30.69
831.432	30.44
831.606	29.57
831.779	29.92
831.953	29.14
832.126	28.18
832.3	28.83
832.473	28.2
832.647	27.49
832.82	27.45
832.994	27.51
833.167	27.54
833.34	27.69
833.514	27.3
833.687	26.71
833.86	27.37
834.034	28.07
834.207	27.94
834.38	28.42
834.553	29.25
834.727	29.4
834.9	30.36
835.073	30.37
835.246	30.47
835.419	30.46
835.593	30.94
835.766	31.26
835.939	30.92
836.112	30.17
836.285	28.79
836.458	28.09
836.631	28.03
836.804	26.65
836.977	26.49
837.15	26.62
837.323	25.8
837.496	25.6
837.669	25.31
837.842	25.93
838.015	26.56
838.188	27.7
838.361	29.76
838.533	29.61
838.706	29.47
838.879	31.1
839.052	30.65
839.225	32.23
839.398	33.5
839.57	33.67
839.743	32.75
839.916	33.43
840.088	32.68
840.261	30.74
840.434	31.16
840.607	30.49
840.779	29.41
840.952	30.42
841.124	30.98
841.297	30.55
841.47	29.87
841.642	28.8
841.815	28.43
841.987	29.18
842.16	28.44
842.332	28.13
842.505	27.97
842.677	27.53
842.85	27.34
843.022	25.73
843.194	27.12
843.367	26.92
843.539	27.83
843.712	29.58
843.884	32.5
844.056	35.02
844.229	35.35
844.401	37.09
844.573	35.45
844.745	34.82
844.918	36.1
845.09	35.04
845.262	36.46
845.434	39.01
845.606	36.04
845.779	32.53
845.951	32.6
846.123	32.75
846.295	32.61
846.467	34.56
846.639	33.74
846.811	33.03
846.983	31.99
847.155	31.63
847.327	30.69
847.499	31.17
847.671	31.69
847.843	29.6
848.015	27.86
848.187	27.97
848.359	25.43
848.531	27.97
848.703	28.46
848.875	28.6
849.047	28.49
849.218	28.49
849.39	30
849.562	31.2
849.734	32.41
849.905	35.32
850.077	34.52
850.249	37
850.421	36.66
850.592	37.71
850.764	36.16
850.936	38.58
851.107	38.26
851.279	40.57
851.451	40.64
851.622	39.2
851.794	39.13
851.965	39.82
852.137	38.86
852.308	37.84
852.48	36.84
852.651	35.79
852.823	32.07
852.994	30.29
853.166	28.19
853.337	29.1
853.509	28.05
853.68	24.93
853.851	24.85
854.023	26.29
854.194	26.93
854.365	26.51
854.537	31.75
854.708	29.97
854.879	30.81
855.05	27.27
855.222	26.89
855.393	29.91
855.564	35.08
855.735	32.13
855.906	32.1
856.078	31.07
856.249	29.7
856.42	28.51
856.591	30.16
856.762	34.64
856.933	37.08
857.104	38.91
857.275	40.23
857.446	35.25
857.617	38.01
857.788	39.44
857.959	38.05
858.13	42.6
858.301	41.51
858.472	41.23
858.643	37.42
858.814	35.43
858.985	27.79
859.155	28.05
859.326	31.68
859.497	30.99
859.668	31.35
859.839	34.65
860.009	35.06
860.18	33.61
860.351	34.13
860.522	31.34
860.692	32.23
860.863	35.82
861.034	34.07
861.204	28.26
861.375	33.46
861.546	29.44
861.716	25.68
861.887	19.15
862.057	20.63
862.228	17.5
862.398	17.31
862.569	19.28
862.739	26.86
862.91	24.26
863.08	30.7
863.251	26.72
863.421	29.22
863.592	30.3
863.762	32.4
863.932	31.66
864.103	35.39
864.273	38.96
864.443	41.11
864.614	39.06
864.784	38.5
864.954	34.92
865.125	34.9
865.295	36.32
865.465	35.52
865.635	34.18
865.805	34.41
865.976	35.48
866.146	35.78
866.316	31.11
866.486	27.37
866.656	25.98
866.826	23.54
866.996	21.54
867.166	21.2
867.336	21.72
867.506	20.65
867.676	19.83
867.846	19.71
868.016	21.63
868.186	22.23
868.356	21.66
868.526	26.97
868.696	29.2
868.866	32.05
869.036	28.89
869.206	31.18
869.376	35.94
869.545	31.97
869.715	32.55
869.885	32.68
870.055	33.86
870.224	37.8
870.394	36.55
870.564	38.71
870.734	39.92
870.903	43.2
871.073	41.29
871.243	38.37
871.412	43.62
871.582	44.9
871.751	44.88
871.921	45.96
872.091	40.42
872.26	40.4
872.43	40.23
872.599	36.86
872.769	33.55
872.938	32.52
873.108	32.23
873.277	32.16
873.446	28
873.616	24.84
873.785	22.45
873.955	26.3
874.124	29.99
874.293	30.09
874.463	31.48
874.632	31.15
874.801	32.57
874.971	34.67
875.14	32.08
875.309	35.42
875.478	36.68
875.647	36.18
875.817	36.6
875.986	31.74
876.155	29.51
876.324	25.21
876.493	27.61
876.662	24.61
876.831	20.56
877	23.12
877.17	18.91
877.339	18.92
877.508	19.48
877.677	16.66
877.846	20.32
878.015	21.35
878.184	24.75
878.352	25.8
878.521	28.93
878.69	31.9
878.859	32.39
879.028	33.34
879.197	37
879.366	37.84
879.534	39.7
879.703	38.88
879.872	36.59
880.041	34.34
880.21	34.25
880.378	34.54
880.547	33.93
880.716	33.48
880.884	33.31
881.053	30.68
881.222	29.98
881.39	29.5
881.559	29.91
881.727	30.91
881.896	31.65
882.065	30.82
882.233	30.93
882.402	31.38
882.57	31.19
882.739	30.39
882.907	30.89
883.076	31.25
883.244	31.7
883.412	31.09
883.581	30.63
883.749	30.35
883.918	30.47
884.086	30.11
884.254	30
884.423	29.94
884.591	29.94
884.759	30.12
884.927	30.22
885.096	29.69
885.264	29.03
885.432	29.81
885.6	30.52
885.769	31.28
885.937	31.12
886.105	29.85
886.273	28.12
886.441	29.49
886.609	27.89
886.777	26.97
886.945	27.91
887.113	29.41
887.281	30.97
887.449	30.42
887.617	28.77
887.785	26.9
887.953	28.01
888.121	31.37
888.289	31.33
888.457	35.58
888.625	37.25
888.793	35.48
888.961	34.29
889.129	32.26
889.296	30.65
889.464	32.84
889.632	35.77
889.8	35.31
889.967	34.37
890.135	37.75
