Data from 2938518_Reflection_3.txt Node
Date: Tue Jun 16 22:24:45 EDT 2015
User: robert
Spectrometer: USB4E03002
Autoset integration time: false
Trigger mode: 4
Integration Time (sec): 1.000000E-1
Scans to average: 10
Electric dark correction enabled: true
Nonlinearity correction enabled: false
Boxcar width: 5
Stray light correction enabled: false
XAxis mode: Wavelengths
Stop averaging: false
Number of Pixels in Spectrum: 3648
>>>>>Begin Spectral Data<<<<<
177.575	-182.47
177.794	-134.18
178.014	-58.04
178.233	-45.62
178.452	-44.59
178.672	-49.25
178.891	103.74
179.11	1772.73
179.33	4377.4
179.549	1036.49
179.768	440.72
179.987	661.54
180.207	691.45
180.426	256.9
180.645	207.7
180.864	196.17
181.084	207.88
181.303	148.35
181.522	114.02
181.741	96.93
181.96	102.86
182.179	114.7
182.398	95.97
182.618	81.72
182.837	82.68
183.056	67.51
183.275	76.22
183.494	73.16
183.713	77.66
183.932	78.51
184.151	76.11
184.37	77.96
184.589	79.06
184.808	80.76
185.027	91.06
185.246	104.64
185.465	118.13
185.684	134.85
185.903	119.4
186.122	116.6
186.341	105.62
186.56	134.29
186.779	179.73
186.998	225.83
187.216	248.51
187.435	296.18
187.654	364.78
187.873	515.08
188.092	655.17
188.311	-771.32
188.53	-460.77
188.748	-562
188.967	-12025
189.186	609.56
189.405	273.54
189.623	220.06
189.842	237.2
190.061	159.2
190.28	127.81
190.498	101.64
190.717	104.93
190.936	99.5
191.154	114.91
191.373	113.97
191.592	109.5
191.81	96.66
192.029	100.3
192.248	103.03
192.466	151.12
192.685	176.91
192.904	185.33
193.122	165.07
193.341	153.94
193.559	129.55
193.778	145.95
193.996	194.75
194.215	211.93
194.433	205.72
194.652	189.59
194.87	166.02
195.089	146.77
195.307	143.21
195.526	165.22
195.744	157.67
195.963	180.83
196.181	159.38
196.399	131.55
196.618	144.32
196.836	121.4
197.055	124.65
197.273	122.78
197.491	122.1
197.71	133.01
197.928	111.68
198.146	124.02
198.365	111.92
198.583	109.3
198.801	123.37
199.019	105.8
199.238	121.52
199.456	109.4
199.674	112.21
199.892	118.81
200.111	108.76
200.329	92.4
200.547	80.57
200.765	65.92
200.983	57.06
201.202	51.78
201.42	66.69
201.638	65.9
201.856	71.01
202.074	64.72
202.292	46.13
202.51	59.11
202.728	78.79
202.946	89.01
203.165	103.12
203.383	135.13
203.601	133.98
203.819	82.45
204.037	79.54
204.255	88.61
204.473	85.99
204.691	92.53
204.909	81.74
205.127	78.98
205.345	68.04
205.562	73.71
205.78	85.67
205.998	73.81
206.216	95.09
206.434	109.82
206.652	102.1
206.87	110.64
207.088	116.82
207.306	123.16
207.523	119.42
207.741	121.76
207.959	127.22
208.177	110.85
208.395	118.3
208.612	116.61
208.83	111.22
209.048	118.29
209.266	112.02
209.483	91.65
209.701	88.21
209.919	91.33
210.136	98.64
210.354	95.92
210.572	107.4
210.79	101.31
211.007	97.52
211.225	99.14
211.442	85.99
211.66	96.4
211.878	114.66
212.095	179.29
212.313	188.59
212.53	205.93
212.748	199.54
212.966	197.94
213.183	200.48
213.401	226.46
213.618	199.98
213.836	229.63
214.053	206.38
214.271	196.54
214.488	109.53
214.705	111.67
214.923	98.73
215.14	84.52
215.358	70.64
215.575	67.03
215.793	69.89
216.01	67.9
216.227	71.87
216.445	62.65
216.662	71.53
216.879	70.45
217.097	64.13
217.314	57.6
217.531	57.4
217.749	61.43
217.966	63.15
218.183	60.08
218.4	55.05
218.618	56.82
218.835	60.42
219.052	62.32
219.269	67.14
219.487	70
219.704	79.59
219.921	79.05
220.138	82.93
220.355	76.33
220.572	72.44
220.79	77.12
221.007	69.55
221.224	69.28
221.441	63.75
221.658	63.88
221.875	62.25
222.092	56.78
222.309	51.78
222.526	47.21
222.743	47.61
222.96	47.75
223.177	47.81
223.394	44.49
223.611	42.86
223.828	44.63
224.045	45.57
224.262	45.51
224.479	42.38
224.696	43.61
224.913	40.09
225.13	36.32
225.347	33.18
225.564	29.47
225.781	27.31
225.997	27.06
226.214	25.6
226.431	22.92
226.648	20.22
226.865	19.99
227.082	18.43
227.298	17.68
227.515	17.97
227.732	17.16
227.949	16.88
228.165	17.55
228.382	16.76
228.599	16.63
228.816	16.46
229.032	16.34
229.249	15.64
229.466	15.41
229.682	17.39
229.899	17.67
230.116	17.61
230.332	20.03
230.549	18.96
230.765	18.69
230.982	20.94
231.199	21.18
231.415	23.02
231.632	23.64
231.848	23.09
232.065	21.53
232.281	22.03
232.498	22.63
232.714	21.64
232.931	22.27
233.147	23.75
233.364	22.47
233.58	22.62
233.797	21.66
234.013	22.82
234.23	23.15
234.446	21.41
234.662	21.87
234.879	22.61
235.095	22.3
235.312	23.62
235.528	24.33
235.744	23.88
235.961	21.85
236.177	21.45
236.393	22.91
236.61	23.18
236.826	24.98
237.042	25.63
237.258	25.52
237.475	26.18
237.691	25.52
237.907	24.09
238.123	23.85
238.339	25.19
238.556	24.76
238.772	22.93
238.988	22.91
239.204	21.36
239.42	19.42
239.636	18.48
239.853	16.4
240.069	14.9
240.285	14.51
240.501	13.57
240.717	12.65
240.933	11.88
241.149	11.54
241.365	11.15
241.581	11.5
241.797	11.54
242.013	11.62
242.229	12.38
242.445	13.41
242.661	13.16
242.877	13.66
243.093	14.31
243.309	14.75
243.525	13.91
243.741	14.02
243.957	13.63
244.173	13.49
244.388	13.65
244.604	12.56
244.82	11.54
245.036	10.88
245.252	10.8
245.468	10.49
245.683	10.31
245.899	10.32
246.115	10.24
246.331	9.85
246.547	9.82
246.762	9.79
246.978	10.17
247.194	10.59
247.409	11.25
247.625	11.43
247.841	11.19
248.057	11.64
248.272	12.19
248.488	12.41
248.703	12.98
248.919	12.66
249.135	12.02
249.35	11.59
249.566	11.27
249.782	10.98
249.997	10.86
250.213	11.36
250.428	11.25
250.644	11.31
250.859	11.42
251.075	11.58
251.29	12.23
251.506	12.22
251.721	12.34
251.937	13.05
252.152	13.25
252.368	13.22
252.583	13.89
252.798	14.35
253.014	15.49
253.229	14.66
253.445	15.05
253.66	14.13
253.875	13.58
254.091	14.64
254.306	13.8
254.521	14.1
254.737	13.76
254.952	12.31
255.167	11.96
255.383	11.02
255.598	10.4
255.813	9.53
256.028	9.66
256.244	10.17
256.459	9.72
256.674	9.55
256.889	9.06
257.104	8.88
257.32	9.27
257.535	9.03
257.75	8.85
257.965	9.03
258.18	9.28
258.395	9.34
258.61	9.07
258.826	9.1
259.041	9.26
259.256	9.51
259.471	9.7
259.686	9.59
259.901	9.55
260.116	9.58
260.331	9.16
260.546	9.07
260.761	9.03
260.976	9.37
261.191	9.35
261.406	9.11
261.621	8.72
261.836	8.14
262.05	8.16
262.265	8.73
262.48	9.46
262.695	10.34
262.91	10.14
263.125	10.42
263.34	10.1
263.555	9.75
263.769	10.16
263.984	10.27
264.199	10.6
264.414	10.39
264.629	10.09
264.843	9.41
265.058	9.19
265.273	9.45
265.488	9.23
265.702	9.5
265.917	10.22
266.132	9.97
266.346	9.84
266.561	9.87
266.776	10.25
266.99	10.25
267.205	10.57
267.42	11.01
267.634	10.98
267.849	10.99
268.063	10.45
268.278	9.64
268.492	9.71
268.707	10.02
268.922	9.77
269.136	9.31
269.351	9.21
269.565	8.83
269.78	8.73
269.994	8.1
270.209	7.89
270.423	8.32
270.637	8.3
270.852	7.82
271.066	7.8
271.281	8.21
271.495	8.29
271.709	8.71
271.924	8.42
272.138	8.3
272.353	9.03
272.567	9.36
272.781	9.43
272.996	9.85
273.21	10.39
273.424	10.3
273.638	9.92
273.853	10.29
274.067	9.85
274.281	10.45
274.495	10.78
274.71	10.51
274.924	10.16
275.138	9.8
275.352	9.12
275.566	9.07
275.781	9.15
275.995	9.16
276.209	9.04
276.423	8.97
276.637	9.26
276.851	8.99
277.065	8.82
277.279	9
277.493	9.56
277.707	9.96
277.921	10.2
278.135	10.08
278.349	10.25
278.563	10.04
278.777	9.86
278.991	9.75
279.205	9.71
279.419	9.83
279.633	10.29
279.847	9.87
280.061	9.86
280.275	9.86
280.489	9.48
280.703	9.44
280.917	9.66
281.131	9.72
281.344	9.86
281.558	9.38
281.772	9.48
281.986	8.96
282.2	9.06
282.414	8.82
282.627	8.61
282.841	9.11
283.055	9.39
283.269	9.06
283.482	8.86
283.696	8.37
283.91	9.04
284.123	8.6
284.337	8.83
284.551	8.61
284.764	8.88
284.978	8.89
285.192	8.65
285.405	8.36
285.619	8.39
285.833	8.77
286.046	8.72
286.26	8.31
286.473	8.85
286.687	8.61
286.9	8.73
287.114	8.9
287.327	9.09
287.541	8.97
287.754	8.91
287.968	9.34
288.181	9.18
288.395	9.04
288.608	9.34
288.822	9.17
289.035	9.35
289.248	9.17
289.462	9.29
289.675	9.1
289.889	9.42
290.102	9.66
290.315	9.59
290.529	9.83
290.742	9.87
290.955	9.94
291.169	10.15
291.382	10.35
291.595	10.78
291.808	10.67
292.022	11.07
292.235	10.85
292.448	10.96
292.661	10.56
292.875	10.3
293.088	10.84
293.301	10.34
293.514	10.16
293.727	9.91
293.94	9.88
294.153	9.19
294.367	8.95
294.58	8.54
294.793	8.46
295.006	8.74
295.219	8.88
295.432	9
295.645	9.09
295.858	9.01
296.071	8.84
296.284	8.67
296.497	9.07
296.71	8.84
296.923	9.29
297.136	9.07
297.349	9.05
297.562	9.15
297.775	9.01
297.988	9.44
298.201	9.86
298.414	10.16
298.626	10.15
298.839	10.33
299.052	10.32
299.265	10.69
299.478	11.01
299.691	11.08
299.903	11.01
300.116	10.58
300.329	10.59
300.542	10.73
300.755	10.7
300.967	10.84
301.18	10.6
301.393	11.15
301.605	10.52
301.818	10.32
302.031	10.23
302.243	9.87
302.456	10.28
302.669	10.1
302.881	10.17
303.094	10.32
303.307	10.49
303.519	10.71
303.732	10.89
303.944	11.06
304.157	11.63
304.37	11.52
304.582	11.92
304.795	11.65
305.007	11.7
305.22	11.12
305.432	11.39
305.645	11.38
305.857	11.44
306.069	11.18
306.282	11.37
306.494	10.66
306.707	10.93
306.919	10.78
307.132	11.1
307.344	11.01
307.556	11.31
307.769	11.36
307.981	11.42
308.193	11.61
308.406	11.33
308.618	11.51
308.83	11.53
309.043	11.38
309.255	11.21
309.467	10.95
309.679	11.1
309.892	10.88
310.104	10.68
310.316	10.77
310.528	10.35
310.74	10.89
310.953	10.57
311.165	10.76
311.377	10.78
311.589	10.96
311.801	10.88
312.013	10.8
312.225	10.82
312.437	10.37
312.649	10.37
312.862	10.68
313.074	10.13
313.286	10.18
313.498	10.55
313.71	10.7
313.922	10.87
314.134	10.86
314.346	10.77
314.558	11.14
314.77	11.92
314.982	11.71
315.193	11.79
315.405	12.04
315.617	11.76
315.829	11.27
316.041	11.17
316.253	11.27
316.465	12.02
316.677	11.72
316.888	11.59
317.1	11.37
317.312	11.57
317.524	11.58
317.736	11.75
317.947	12.84
318.159	12.87
318.371	12.73
318.583	12.9
318.794	12.73
319.006	13.49
319.218	13.22
319.43	13.31
319.641	13.38
319.853	13.25
320.064	13.19
320.276	12.77
320.488	13.03
320.699	13.67
320.911	13.76
321.123	13.19
321.334	13.21
321.546	13.49
321.757	13.68
321.969	14
322.18	14.48
322.392	14.27
322.603	14.27
322.815	14.25
323.026	13.84
323.238	13.58
323.449	13.91
323.661	13.67
323.872	14
324.083	13.71
324.295	13.22
324.506	12.65
324.718	12.96
324.929	12.92
325.14	13.02
325.352	13.3
325.563	13.7
325.774	13.83
325.986	14.13
326.197	14.47
326.408	14.86
326.62	15.16
326.831	15.49
327.042	15.73
327.253	16.23
327.464	16.42
327.676	16.26
327.887	16.12
328.098	16.22
328.309	16.57
328.52	16.5
328.732	16.38
328.943	16.49
329.154	16.72
329.365	16.25
329.576	16.27
329.787	16.04
329.998	16.74
330.209	17.07
330.42	17.19
330.631	17.24
330.842	17.13
331.053	17.12
331.264	17.24
331.475	17.1
331.686	17.9
331.897	18.03
332.108	18.31
332.319	18.08
332.53	17.82
332.741	17.89
332.952	17.78
333.163	17.79
333.374	17.89
333.585	17.7
333.795	17.68
334.006	17.21
334.217	16.4
334.428	16.51
334.639	16.67
334.849	16.94
335.06	16.91
335.271	16.78
335.482	16.86
335.692	16.78
335.903	16.89
336.114	17.02
336.325	17.2
336.535	17.83
336.746	17.92
336.957	17.95
337.167	18.14
337.378	18.19
337.589	18.2
337.799	17.83
338.01	18.05
338.22	18
338.431	18.59
338.642	18.8
338.852	18.76
339.063	18.66
339.273	18.32
339.484	18.01
339.694	18.19
339.905	18.04
340.115	18.22
340.326	18.11
340.536	18.11
340.746	17.44
340.957	17.04
341.167	17.04
341.378	16.94
341.588	17.01
341.799	17
342.009	16.86
342.219	16.81
342.43	16.69
342.64	16.6
342.85	16.75
343.061	16.82
343.271	17.15
343.481	16.76
343.691	16.84
343.902	16.88
344.112	16.89
344.322	17.11
344.532	17.01
344.743	16.99
344.953	16.92
345.163	16.82
345.373	16.92
345.583	16.73
345.793	16.71
346.004	16.88
346.214	16.62
346.424	16.55
346.634	16.43
346.844	16.8
347.054	17.14
347.264	17.4
347.474	17.23
347.684	17.09
347.894	16.7
348.104	17.18
348.314	17.27
348.524	17.4
348.734	17.19
348.944	17.14
349.154	17.03
349.364	16.44
349.574	16.24
349.784	16.24
349.994	16.53
350.204	16.65
350.413	16.36
350.623	16.08
350.833	16.15
351.043	16.09
351.253	15.69
351.463	15.45
351.672	15.99
351.882	15.97
352.092	15.84
352.302	15.52
352.511	15.74
352.721	15.9
352.931	16.08
353.141	15.78
353.35	16.49
353.56	16.7
353.77	17
353.979	16.82
354.189	16.82
354.399	16.98
354.608	17.23
354.818	17.25
355.027	17.15
355.237	16.95
355.447	17.2
355.656	16.83
355.866	16.87
356.075	16.66
356.285	16.65
356.494	16.83
356.704	16.74
356.913	16.72
357.123	16.62
357.332	16.39
357.542	16.26
357.751	16.37
357.96	16.17
358.17	16.15
358.379	16.13
358.589	16.07
358.798	15.76
359.007	15.67
359.217	15.39
359.426	15.2
359.635	15.53
359.845	15.69
360.054	15.47
360.263	15.38
360.472	15.2
360.682	15.07
360.891	15.04
361.1	15.02
361.309	15.13
361.519	15.23
361.728	15.38
361.937	15.13
362.146	14.92
362.355	15.11
362.564	15.17
362.774	15.29
362.983	15.32
363.192	15.27
363.401	15.37
363.61	15.31
363.819	15.28
364.028	15.13
364.237	15.01
364.446	14.91
364.655	14.45
364.864	14.5
365.073	14.6
365.282	14.69
365.491	14.58
365.7	14.46
365.909	14.29
366.118	14.22
366.327	14.03
366.536	14.04
366.745	14.11
366.954	14.28
367.162	14.55
367.371	14.38
367.58	14.16
367.789	14.04
367.998	13.96
368.207	14.07
368.415	13.95
368.624	13.8
368.833	13.82
369.042	13.76
369.25	14.04
369.459	13.83
369.668	13.76
369.877	13.7
370.085	13.9
370.294	14.11
370.503	13.99
370.711	13.9
370.92	13.91
371.129	14.1
371.337	13.95
371.546	13.49
371.754	13.36
371.963	13.09
372.171	13.11
372.38	13.08
372.589	12.98
372.797	13.11
373.006	13.01
373.214	13.31
373.423	13.05
373.631	13.06
373.84	13.11
374.048	12.88
374.256	13
374.465	13.08
374.673	13.11
374.882	12.92
375.09	12.64
375.298	12.93
375.507	12.84
375.715	12.91
375.923	13.14
376.132	13.23
376.34	13.33
376.548	13.26
376.757	13.15
376.965	13.01
377.173	13.01
377.381	13.25
377.59	13.27
377.798	12.94
378.006	12.89
378.214	12.85
378.423	12.72
378.631	12.58
378.839	12.64
379.047	12.43
379.255	12.27
379.463	12.3
379.671	12.1
379.879	11.79
380.088	11.98
380.296	11.7
380.504	11.6
380.712	11.75
380.92	11.96
381.128	12.05
381.336	11.94
381.544	11.8
381.752	11.55
381.96	11.64
382.168	11.59
382.376	11.64
382.584	11.85
382.791	11.52
382.999	11.41
383.207	11.13
383.415	10.9
383.623	11.04
383.831	11.18
384.039	11.2
384.247	11.15
384.454	11.01
384.662	10.9
384.87	10.77
385.078	10.8
385.285	10.52
385.493	10.5
385.701	10.57
385.909	10.4
386.116	10.35
386.324	10.36
386.532	10.33
386.739	10.5
386.947	10.55
387.155	10.44
387.362	10.38
387.57	10.61
387.778	10.52
387.985	10.31
388.193	10.43
388.4	10.32
388.608	10.29
388.816	9.92
389.023	9.93
389.231	9.63
389.438	9.74
389.646	9.81
389.853	9.7
390.061	9.62
390.268	9.64
390.475	9.53
390.683	9.6
390.89	9.49
391.098	9.7
391.305	9.73
391.512	9.83
391.72	9.68
391.927	9.49
392.135	9.37
392.342	9.41
392.549	9.48
392.756	9.36
392.964	9.14
393.171	9.13
393.378	9.23
393.586	8.95
393.793	9.04
394	9.1
394.207	9.25
394.414	9.32
394.622	9.34
394.829	9.35
395.036	9.3
395.243	9.53
395.45	9.44
395.657	9.09
395.864	9.22
396.072	9.23
396.279	9.04
396.486	8.99
396.693	8.83
396.9	8.82
397.107	8.47
397.314	8.66
397.521	8.51
397.728	8.47
397.935	8.56
398.142	8.48
398.349	8.32
398.556	8.33
398.763	8.41
398.97	8.53
399.177	8.4
399.383	8.57
399.59	8.26
399.797	8.3
400.004	8.33
400.211	8.33
400.418	8.18
400.625	8.18
400.831	8.08
401.038	7.8
401.245	7.73
401.452	7.75
401.658	7.67
401.865	7.85
402.072	7.9
402.279	7.93
402.485	7.79
402.692	7.79
402.899	7.67
403.105	7.77
403.312	7.68
403.519	7.65
403.725	7.63
403.932	7.6
404.138	7.57
404.345	7.37
404.552	7.39
404.758	7.34
404.965	7.32
405.171	7.31
405.378	7.28
405.584	7.39
405.791	7.45
405.997	7.52
406.204	7.63
406.41	7.64
406.617	7.63
406.823	7.4
407.029	7.53
407.236	7.55
407.442	7.67
407.649	7.73
407.855	7.63
408.061	7.63
408.268	7.45
408.474	7.33
408.68	7.32
408.887	7.4
409.093	7.51
409.299	7.49
409.505	7.51
409.712	7.38
409.918	7.44
410.124	7.42
410.33	7.37
410.537	7.42
410.743	7.58
410.949	7.56
411.155	7.73
411.361	7.63
411.567	7.59
411.773	7.42
411.98	7.51
412.186	7.36
412.392	7.46
412.598	7.19
412.804	7.19
413.01	7
413.216	6.94
413.422	6.68
413.628	6.73
413.834	6.69
414.04	6.7
414.246	6.55
414.452	6.47
414.658	6.36
414.864	6.52
415.07	6.5
415.275	6.6
415.481	6.55
415.687	6.53
415.893	6.6
416.099	6.57
416.305	6.6
416.511	6.5
416.716	6.4
416.922	6.47
417.128	6.33
417.334	6.32
417.539	6.14
417.745	6.16
417.951	6.2
418.157	6.16
418.362	6.23
418.568	6.14
418.774	6.16
418.979	6.22
419.185	6.15
419.391	6.14
419.596	6.14
419.802	6.15
420.008	6.04
420.213	5.91
420.419	5.86
420.624	5.76
420.83	5.73
421.035	5.81
421.241	5.76
421.446	5.71
421.652	5.74
421.857	5.64
422.063	5.64
422.268	5.75
422.474	5.82
422.679	5.79
422.885	5.75
423.09	5.69
423.295	5.59
423.501	5.62
423.706	5.66
423.911	5.61
424.117	5.77
424.322	5.81
424.527	5.76
424.733	5.66
424.938	5.66
425.143	5.69
425.349	5.81
425.554	5.83
425.759	5.73
425.964	5.68
426.169	5.79
426.375	5.62
426.58	5.6
426.785	5.67
426.99	5.85
427.195	5.84
427.4	5.9
427.605	5.94
427.811	5.97
428.016	5.86
428.221	5.96
428.426	5.82
428.631	5.82
428.836	5.76
429.041	5.66
429.246	5.59
429.451	5.6
429.656	5.42
429.861	5.4
430.066	5.37
430.271	5.52
430.476	5.46
430.681	5.49
430.886	5.49
431.09	5.46
431.295	5.37
431.5	5.33
431.705	5.32
431.91	5.46
432.115	5.4
432.32	5.4
432.524	5.28
432.729	5.25
432.934	5.26
433.139	5.27
433.343	5.42
433.548	5.48
433.753	5.46
433.958	5.43
434.162	5.46
434.367	5.44
434.572	5.37
434.776	5.47
434.981	5.53
435.186	5.49
435.39	5.55
435.595	5.51
435.799	5.45
436.004	5.43
436.209	5.43
436.413	5.25
436.618	5.28
436.822	5.36
437.027	5.36
437.231	5.25
437.436	5.24
437.64	5.16
437.845	5.13
438.049	5.11
438.253	5.11
438.458	5.16
438.662	5.2
438.867	5.22
439.071	5.18
439.275	5.17
439.48	5.24
439.684	5.21
439.888	5.21
440.093	5.12
440.297	5.12
440.501	5.16
440.706	5.16
440.91	5.23
441.114	5.18
441.318	5.25
441.523	5.28
441.727	5.27
441.931	5.31
442.135	5.35
442.339	5.29
442.543	5.38
442.748	5.29
442.952	5.27
443.156	5.18
443.36	5.16
443.564	5.08
443.768	5.02
443.972	5.03
444.176	5
444.38	5.02
444.584	5.03
444.788	4.98
444.992	4.99
445.196	4.98
445.4	4.96
445.604	4.96
445.808	4.97
446.012	4.96
446.216	4.86
446.42	4.89
446.624	4.82
446.828	4.9
447.032	4.82
447.235	4.89
447.439	4.89
447.643	4.93
447.847	4.97
448.051	4.96
448.254	4.92
448.458	4.99
448.662	5.03
448.866	5.09
449.069	5.11
449.273	5.23
449.477	5.11
449.681	4.98
449.884	4.99
450.088	4.99
450.292	4.98
450.495	5.05
450.699	5.12
450.902	5.11
451.106	4.94
451.31	4.88
451.513	4.98
451.717	5.02
451.92	5.09
452.124	5.09
452.327	5.09
452.531	5.17
452.734	5.2
452.938	5.14
453.141	5.05
453.345	5.15
453.548	5.08
453.752	4.91
453.955	4.89
454.158	4.86
454.362	4.69
454.565	4.65
454.769	4.63
454.972	4.61
455.175	4.63
455.379	4.6
455.582	4.63
455.785	4.65
455.988	4.62
456.192	4.64
456.395	4.7
456.598	4.88
456.801	4.79
457.005	4.74
457.208	4.73
457.411	4.64
457.614	4.65
457.817	4.66
458.021	4.64
458.224	4.67
458.427	4.58
458.63	4.59
458.833	4.56
459.036	4.47
459.239	4.51
459.442	4.48
459.645	4.5
459.848	4.53
460.051	4.46
460.254	4.48
460.457	4.49
460.66	4.55
460.863	4.56
461.066	4.67
461.269	4.79
461.472	4.8
461.675	4.82
461.878	4.93
462.081	4.92
462.284	5
462.486	5.07
462.689	5.08
462.892	5.14
463.095	5.05
463.298	4.86
463.5	5.05
463.703	5.04
463.906	5.1
464.109	5.05
464.311	5
464.514	5.08
464.717	5.13
464.92	5.15
465.122	5.21
465.325	5.34
465.528	5.48
465.73	5.4
465.933	5.32
466.135	5.25
466.338	5.2
466.541	5.26
466.743	5.22
466.946	5.14
467.148	5.08
467.351	4.98
467.553	4.9
467.756	4.83
467.958	4.84
468.161	4.89
468.363	4.91
468.566	5.02
468.768	5.1
468.971	5.02
469.173	5.07
469.375	5.04
469.578	4.96
469.78	4.99
469.983	4.97
470.185	4.94
470.387	4.88
470.59	4.91
470.792	4.87
470.994	4.85
471.196	4.8
471.399	4.76
471.601	4.77
471.803	4.77
472.005	4.87
472.208	4.88
472.41	5.03
472.612	5.16
472.814	5.15
473.016	5.2
473.218	5.26
473.421	5.23
473.623	5.29
473.825	5.36
474.027	5.45
474.229	5.29
474.431	5.31
474.633	5.11
474.835	5.14
475.037	5.14
475.239	5.03
475.441	4.95
475.643	5
475.845	4.91
476.047	5
476.249	4.99
476.451	5
476.653	5.02
476.855	5.05
477.057	4.99
477.258	4.95
477.46	5.05
477.662	5.07
477.864	5.11
478.066	5.13
478.268	5.05
478.469	5.05
478.671	5.06
478.873	5.04
479.075	5.1
479.276	5.02
479.478	5.01
479.68	4.93
479.882	4.87
480.083	4.87
480.285	4.88
480.487	4.91
480.688	4.88
480.89	4.85
481.091	4.81
481.293	4.76
481.495	4.72
481.696	4.7
481.898	4.68
482.099	4.68
482.301	4.65
482.502	4.62
482.704	4.58
482.905	4.56
483.107	4.56
483.308	4.54
483.51	4.51
483.711	4.5
483.913	4.48
484.114	4.49
484.315	4.47
484.517	4.47
484.718	4.42
484.92	4.43
485.121	4.43
485.322	4.45
485.524	4.47
485.725	4.48
485.926	4.51
486.127	4.55
486.329	4.54
486.53	4.58
486.731	4.57
486.932	4.62
487.134	4.62
487.335	4.59
487.536	4.56
487.737	4.55
487.938	4.57
488.139	4.63
488.341	4.61
488.542	4.58
488.743	4.58
488.944	4.62
489.145	4.66
489.346	4.64
489.547	4.68
489.748	4.67
489.949	4.75
490.15	4.7
490.351	4.63
490.552	4.63
490.753	4.65
490.954	4.62
491.155	4.61
491.356	4.6
491.557	4.62
491.758	4.67
491.959	4.69
492.159	4.62
492.36	4.65
492.561	4.67
492.762	4.68
492.963	4.73
493.164	4.74
493.364	4.77
493.565	4.79
493.766	4.9
493.967	4.86
494.167	4.91
494.368	4.96
494.569	5.03
494.769	5.07
494.97	5.13
495.171	5.14
495.371	5.14
495.572	5.14
495.773	5.1
495.973	5.13
496.174	5.16
496.375	5.22
496.575	5.3
496.776	5.31
496.976	5.39
497.177	5.42
497.377	5.52
497.578	5.62
497.778	5.65
497.979	5.76
498.179	5.67
498.38	5.68
498.58	5.75
498.78	5.73
498.981	5.77
499.181	5.71
499.382	5.68
499.582	5.66
499.782	5.71
499.983	5.79
500.183	5.82
500.383	5.85
500.584	5.86
500.784	5.86
500.984	5.88
501.184	5.94
501.385	6.04
501.585	6.21
501.785	6.19
501.985	6.25
502.185	6.24
502.386	6.27
502.586	6.31
502.786	6.43
502.986	6.48
503.186	6.46
503.386	6.47
503.586	6.55
503.786	6.5
503.987	6.56
504.187	6.53
504.387	6.59
504.587	6.63
504.787	6.73
504.987	6.77
505.187	6.72
505.387	6.8
505.587	6.91
505.786	7
505.986	7.01
506.186	7.13
506.386	7.18
506.586	7.21
506.786	7.26
506.986	7.28
507.186	7.23
507.386	7.33
507.585	7.35
507.785	7.32
507.985	7.33
508.185	7.44
508.384	7.43
508.584	7.41
508.784	7.49
508.984	7.57
509.183	7.57
509.383	7.69
509.583	7.72
509.782	7.75
509.982	7.86
510.182	7.88
510.381	7.86
510.581	7.93
510.781	8.12
510.98	8.2
511.18	8.22
511.379	8.38
511.579	8.42
511.778	8.51
511.978	8.57
512.177	8.55
512.377	8.58
512.576	8.67
512.776	8.72
512.975	8.68
513.175	8.65
513.374	8.64
513.573	8.65
513.773	8.72
513.972	8.71
514.172	8.83
514.371	8.9
514.57	8.99
514.77	9.08
514.969	9.21
515.168	9.3
515.367	9.35
515.567	9.42
515.766	9.49
515.965	9.48
516.164	9.53
516.364	9.54
516.563	9.56
516.762	9.54
516.961	9.55
517.16	9.52
517.359	9.5
517.559	9.6
517.758	9.65
517.957	9.68
518.156	9.79
518.355	9.86
518.554	9.86
518.753	9.96
518.952	10.03
519.151	10.07
519.35	10.16
519.549	10.22
519.748	10.18
519.947	10.3
520.146	10.4
520.345	10.48
520.544	10.55
520.743	10.68
520.942	10.69
521.141	10.75
521.339	10.87
521.538	10.82
521.737	10.95
521.936	11.07
522.135	11.05
522.333	11.01
522.532	10.93
522.731	10.94
522.93	11.01
523.129	11.11
523.327	11.26
523.526	11.26
523.725	11.4
523.923	11.39
524.122	11.45
524.321	11.48
524.519	11.53
524.718	11.57
524.917	11.62
525.115	11.61
525.314	11.65
525.512	11.62
525.711	11.67
525.909	11.67
526.108	11.65
526.306	11.71
526.505	11.69
526.703	11.76
526.902	11.8
527.1	11.79
527.299	11.82
527.497	11.83
527.696	11.84
527.894	11.87
528.092	11.89
528.291	11.91
528.489	11.89
528.688	11.96
528.886	11.95
529.084	12.02
529.283	12.08
529.481	12.12
529.679	12.15
529.877	12.23
530.076	12.26
530.274	12.34
530.472	12.38
530.67	12.49
530.869	12.55
531.067	12.62
531.265	12.55
531.463	12.59
531.661	12.64
531.859	12.65
532.057	12.67
532.255	12.68
532.454	12.69
532.652	12.74
532.85	12.73
533.048	12.74
533.246	12.75
533.444	12.85
533.642	12.88
533.84	12.91
534.038	12.98
534.236	13.04
534.434	13.01
534.632	13
534.83	13.1
535.027	13.17
535.225	13.24
535.423	13.24
535.621	13.29
535.819	13.32
536.017	13.37
536.215	13.38
536.412	13.41
536.61	13.52
536.808	13.57
537.006	13.46
537.203	13.47
537.401	13.59
537.599	13.71
537.797	13.7
537.994	13.78
538.192	13.79
538.39	13.89
538.587	13.91
538.785	14.01
538.983	14.11
539.18	14.18
539.378	14.18
539.575	14.08
539.773	14.08
539.97	14.06
540.168	14.05
540.366	14.09
540.563	14.08
540.761	14.05
540.958	13.99
541.155	13.98
541.353	14
541.55	14.02
541.748	14.06
541.945	14.05
542.143	14.09
542.34	14.12
542.537	14.14
542.735	14.2
542.932	14.28
543.129	14.38
543.327	14.45
543.524	14.56
543.721	14.57
543.919	14.65
544.116	14.76
544.313	14.92
544.51	14.98
544.708	15.03
544.905	15.03
545.102	15.1
545.299	15.13
545.496	15.14
545.693	15.15
545.891	15.24
546.088	15.22
546.285	15.33
546.482	15.29
546.679	15.34
546.876	15.39
547.073	15.52
547.27	15.62
547.467	15.64
547.664	15.7
547.861	15.82
548.058	15.89
548.255	16.07
548.452	16.04
548.649	16.27
548.846	16.35
549.043	16.45
549.24	16.45
549.437	16.4
549.633	16.59
549.83	16.64
550.027	16.68
550.224	16.67
550.421	16.61
550.618	16.65
550.814	16.58
551.011	16.59
551.208	16.59
551.405	16.63
551.601	16.71
551.798	16.62
551.995	16.61
552.191	16.65
552.388	16.74
552.585	16.77
552.781	16.82
552.978	16.76
553.175	16.94
553.371	17.08
553.568	17.06
553.764	17.12
553.961	17.2
554.157	17.3
554.354	17.22
554.55	17.25
554.747	17.31
554.943	17.38
555.14	17.53
555.336	17.45
555.533	17.36
555.729	17.46
555.926	17.46
556.122	17.58
556.318	17.76
556.515	17.97
556.711	18
556.907	18.24
557.104	18.31
557.3	18.41
557.496	18.47
557.693	18.57
557.889	18.67
558.085	18.79
558.281	18.91
558.478	18.96
558.674	18.94
558.87	18.93
559.066	18.88
559.262	18.93
559.459	18.84
559.655	18.88
559.851	18.87
560.047	18.97
560.243	19.04
560.439	19.06
560.635	19.07
560.831	19.13
561.027	19.19
561.223	19.22
561.419	19.23
561.615	19.3
561.811	19.49
562.007	19.49
562.203	19.54
562.399	19.49
562.595	19.42
562.791	19.44
562.987	19.56
563.183	19.65
563.379	19.66
563.575	19.73
563.771	19.79
563.966	19.78
564.162	19.89
564.358	19.96
564.554	20.03
564.75	20.17
564.945	20.27
565.141	20.22
565.337	20.4
565.533	20.41
565.728	20.43
565.924	20.61
566.12	20.72
566.315	20.76
566.511	20.69
566.707	20.8
566.902	20.82
567.098	20.91
567.293	20.92
567.489	20.95
567.684	21.05
567.88	21.1
568.076	20.98
568.271	21.03
568.467	21.16
568.662	21.22
568.858	21.33
569.053	21.28
569.248	21.24
569.444	21.39
569.639	21.4
569.835	21.49
570.03	21.56
570.225	21.65
570.421	21.78
570.616	21.85
570.812	21.99
571.007	21.98
571.202	22.14
571.397	22.23
571.593	22.26
571.788	22.35
571.983	22.46
572.178	22.53
572.374	22.69
572.569	22.63
572.764	22.64
572.959	22.61
573.154	22.73
573.35	22.79
573.545	22.81
573.74	22.82
573.935	22.85
574.13	22.84
574.325	22.86
574.52	22.89
574.715	22.89
574.91	22.96
575.105	23.13
575.3	23.1
575.495	23.17
575.69	23.18
575.885	23.37
576.08	23.39
576.275	23.47
576.47	23.54
576.665	23.46
576.86	23.57
577.055	23.67
577.25	23.59
577.444	23.63
577.639	23.68
577.834	23.87
578.029	23.83
578.224	23.86
578.418	23.82
578.613	24.01
578.808	24.03
579.003	24.06
579.197	24.05
579.392	24.28
579.587	24.42
579.781	24.38
579.976	24.33
580.171	24.38
580.365	24.43
580.56	24.51
580.755	24.52
580.949	24.7
581.144	24.81
581.338	24.82
581.533	24.73
581.727	24.78
581.922	24.69
582.116	24.74
582.311	24.69
582.505	24.74
582.7	24.85
582.894	24.96
583.089	24.99
583.283	25.02
583.478	25.15
583.672	25.16
583.866	25.16
584.061	25.23
584.255	25.29
584.449	25.36
584.644	25.51
584.838	25.47
585.032	25.38
585.226	25.37
585.421	25.33
585.615	25.36
585.809	25.39
586.003	25.43
586.198	25.62
586.392	25.72
586.586	25.78
586.78	25.75
586.974	25.86
587.168	25.81
587.363	25.82
587.557	25.92
587.751	25.9
587.945	25.93
588.139	25.94
588.333	26.02
588.527	25.99
588.721	25.89
588.915	25.85
589.109	25.84
589.303	26.01
589.497	25.94
589.691	25.84
589.885	25.75
590.079	25.83
590.273	25.9
590.466	25.78
590.66	25.73
590.854	25.86
591.048	25.93
591.242	25.98
591.436	25.9
591.629	26.21
591.823	26.25
592.017	26.41
592.211	26.35
592.404	26.33
592.598	26.4
592.792	26.58
592.986	26.66
593.179	26.68
593.373	26.58
593.567	26.65
593.76	26.48
593.954	26.74
594.147	26.9
594.341	27
594.535	27.01
594.728	26.93
594.922	26.88
595.115	26.84
595.309	26.79
595.502	26.79
595.696	26.85
595.889	26.99
596.083	26.83
596.276	26.78
596.47	26.84
596.663	26.83
596.856	26.99
597.05	27.11
597.243	27.16
597.437	27.23
597.63	27.35
597.823	27.4
598.017	27.41
598.21	27.58
598.403	27.54
598.596	27.57
598.79	27.61
598.983	27.43
599.176	27.47
599.369	27.68
599.563	27.73
599.756	27.74
599.949	27.82
600.142	27.69
600.335	27.62
600.528	27.67
600.722	27.77
600.915	27.89
601.108	28.11
601.301	27.96
601.494	27.98
601.687	27.92
601.88	27.93
602.073	27.82
602.266	27.92
602.459	27.87
602.652	27.85
602.845	27.73
603.038	27.64
603.231	27.79
603.424	27.77
603.617	27.7
603.809	27.78
604.002	27.7
604.195	27.81
604.388	27.81
604.581	27.94
604.774	28.07
604.966	28.09
605.159	28.06
605.352	27.91
605.545	27.96
605.737	27.88
605.93	27.85
606.123	27.93
606.316	27.88
606.508	27.95
606.701	27.96
606.894	27.92
607.086	27.99
607.279	28.13
607.471	28.07
607.664	28.12
607.857	28.15
608.049	28.3
608.242	28.36
608.434	28.35
608.627	28.29
608.819	28.19
609.012	28.28
609.204	28.23
609.397	28.17
609.589	28.38
609.782	28.39
609.974	28.58
610.166	28.53
610.359	28.58
610.551	28.6
610.743	28.65
610.936	28.59
611.128	28.56
611.32	28.55
611.513	28.59
611.705	28.4
611.897	28.32
612.09	28.38
612.282	28.5
612.474	28.48
612.666	28.47
612.858	28.32
613.051	28.6
613.243	28.53
613.435	28.53
613.627	28.69
613.819	28.78
614.011	29.36
614.203	29.23
614.395	29.17
614.588	29.13
614.78	29.23
614.972	29.67
615.164	29.54
615.356	29.48
615.548	29.47
615.74	29.42
615.932	29.38
616.124	29
616.315	29.12
616.507	29.23
616.699	29.44
616.891	29.34
617.083	29.26
617.275	29.42
617.467	29.39
617.659	29.41
617.85	29.65
618.042	29.7
618.234	29.6
618.426	29.5
618.618	29.33
618.809	29.17
619.001	29.13
619.193	29.09
619.384	28.95
619.576	29.31
619.768	29.47
619.959	29.22
620.151	29.42
620.343	29.46
620.534	29.61
620.726	29.74
620.917	29.94
621.109	29.88
621.301	29.89
621.492	29.83
621.684	29.75
621.875	29.77
622.067	29.9
622.258	29.73
622.45	29.88
622.641	29.75
622.832	29.62
623.024	29.53
623.215	29.85
623.407	29.83
623.598	30.07
623.789	29.92
623.981	29.91
624.172	29.83
624.363	29.81
624.555	29.76
624.746	29.74
624.937	29.64
625.129	29.74
625.32	29.67
625.511	29.71
625.702	29.51
625.893	29.48
626.085	29.46
626.276	29.56
626.467	29.77
626.658	29.61
626.849	29.53
627.04	29.64
627.231	29.52
627.422	29.53
627.614	29.56
627.805	29.65
627.996	29.75
628.187	29.79
628.378	29.66
628.569	29.47
628.76	29.73
628.951	29.71
629.142	29.78
629.332	29.72
629.523	29.68
629.714	29.54
629.905	29.68
630.096	29.79
630.287	29.98
630.478	29.9
630.669	29.99
630.859	29.98
631.05	30.15
631.241	30.32
631.432	30.32
631.623	30.33
631.813	30.41
632.004	30.25
632.195	30.17
632.385	29.96
632.576	30.01
632.767	29.88
632.957	30.02
633.148	30
633.339	29.87
633.529	29.95
633.72	29.99
633.91	30.07
634.101	29.98
634.292	29.95
634.482	29.83
634.673	29.99
634.863	30.02
635.054	29.96
635.244	30.06
635.435	30.08
635.625	30.08
635.815	30.06
636.006	29.99
636.196	30.21
636.387	30.32
636.577	30.35
636.767	30.38
636.958	30.28
637.148	30.23
637.338	30.11
637.529	30.07
637.719	30.25
637.909	30.16
638.099	30.1
638.29	30.27
638.48	30.16
638.67	30.3
638.86	30.34
639.05	30.5
639.241	30.48
639.431	30.24
639.621	30.26
639.811	29.99
640.001	30.33
640.191	30.26
640.381	30.02
640.571	30.24
640.761	30.24
640.951	30.04
641.141	30.01
641.331	29.7
641.521	30.02
641.711	30.01
641.901	30.03
642.091	29.91
642.281	30.06
642.471	30.17
642.661	30.01
642.851	30.23
643.041	30.3
643.231	30.3
643.42	30.65
643.61	30.83
643.8	30.87
643.99	31
644.18	30.94
644.369	31.11
644.559	31.1
644.749	31.21
644.939	30.92
645.128	31.04
645.318	30.82
645.508	30.7
645.697	30.55
645.887	30.63
646.076	30.47
646.266	30.41
646.456	30.23
646.645	30.41
646.835	30.34
647.024	30.43
647.214	30.35
647.403	30.62
647.593	30.69
647.782	30.7
647.972	30.68
648.161	30.96
648.351	31.01
648.54	31.23
648.73	30.86
648.919	31.02
649.108	31.19
649.298	31.12
649.487	31.08
649.677	31.11
649.866	31.07
650.055	31.12
650.244	30.84
650.434	30.91
650.623	30.97
650.812	31.09
651.002	30.87
651.191	30.83
651.38	30.87
651.569	30.95
651.758	30.76
651.947	30.98
652.137	30.8
652.326	31.24
652.515	31.18
652.704	30.96
652.893	30.89
653.082	30.97
653.271	31.07
653.46	31.26
653.649	31.25
653.838	31.52
654.027	31.43
654.216	31.27
654.405	31.13
654.594	30.97
654.783	31
654.972	31.29
655.161	31.35
655.35	31.21
655.539	31.44
655.728	31.33
655.916	31.06
656.105	31
656.294	31.49
656.483	31.29
656.672	31.27
656.86	31.15
657.049	30.94
657.238	30.96
657.427	30.98
657.615	30.67
657.804	30.74
657.993	30.71
658.181	30.83
658.37	30.8
658.559	30.9
658.747	30.87
658.936	31.1
659.125	31.25
659.313	31.08
659.502	31.15
659.69	31.1
659.879	31.16
660.067	31.28
660.256	31.16
660.444	30.99
660.633	31.08
660.821	31.35
661.01	31.21
661.198	31.1
661.387	31.48
661.575	31.49
661.763	31.63
661.952	31.87
662.14	32.14
662.328	32.16
662.517	32.37
662.705	32.26
662.893	32.15
663.082	32.2
663.27	32.26
663.458	31.89
663.646	31.91
663.834	31.93
664.023	31.63
664.211	31.52
664.399	31.6
664.587	31.44
664.775	31.33
664.963	31.6
665.152	31.83
665.34	31.93
665.528	32
665.716	31.81
665.904	31.78
666.092	31.89
666.28	31.69
666.468	31.8
666.656	31.82
666.844	32.3
667.032	32.17
667.22	32.1
667.408	32.1
667.596	32.3
667.784	32.37
667.971	32.21
668.159	32.01
668.347	32.18
668.535	31.98
668.723	31.92
668.911	31.54
669.098	31.4
669.286	31.28
669.474	31.16
669.662	31.33
669.849	31.1
670.037	31.19
670.225	31.48
670.413	31.42
670.6	31.45
670.788	31.61
670.976	31.78
671.163	31.78
671.351	31.8
671.538	31.94
671.726	31.75
671.913	31.85
672.101	31.99
672.289	31.93
672.476	31.98
672.664	32.24
672.851	32.2
673.039	32.1
673.226	32.1
673.413	32.24
673.601	32.18
673.788	31.98
673.976	32.21
674.163	32.24
674.35	32.4
674.538	32.52
674.725	32.29
674.912	31.92
675.1	31.55
675.287	31.51
675.474	31.29
675.662	31.51
675.849	31.7
676.036	31.83
676.223	31.73
676.411	31.4
676.598	31.14
676.785	30.98
676.972	31.36
677.159	31.7
677.346	31.71
677.533	31.65
677.721	31.4
677.908	31.48
678.095	31.37
678.282	31.62
678.469	31.67
678.656	31.65
678.843	31.83
679.03	31.79
679.217	31.88
679.404	31.91
679.591	31.95
679.778	32.05
679.964	31.96
680.151	31.8
680.338	31.51
680.525	31.65
680.712	31.94
680.899	32.07
681.086	32.09
681.272	32.13
681.459	32.08
681.646	32.17
681.833	32.04
682.02	31.86
682.206	32.01
682.393	32.2
682.58	31.91
682.766	31.79
682.953	31.69
683.14	31.84
683.326	32.14
683.513	32.4
683.7	32.33
683.886	32.45
684.073	32.76
684.259	32.82
684.446	32.94
684.632	33.06
684.819	33.09
685.005	33.13
685.192	33.29
685.378	33.2
685.565	33.18
685.751	33.03
685.938	33.04
686.124	33.29
686.31	33.16
686.497	33.04
686.683	33.23
686.87	33.27
687.056	33.03
687.242	32.93
687.429	32.66
687.615	32.64
687.801	32.94
687.987	32.95
688.174	32.64
688.36	33.05
688.546	33.02
688.732	32.6
688.918	32.56
689.105	32.55
689.291	32.54
689.477	32.41
689.663	32.6
689.849	32.37
690.035	32.35
690.221	32.19
690.407	32.03
690.593	32.25
690.779	32.59
690.965	32.83
691.151	32.89
691.337	32.76
691.523	33.11
691.709	33
691.895	33.48
692.081	33.38
692.267	33.79
692.453	33.73
692.639	33.41
692.825	33.5
693.011	33.39
693.196	33.58
693.382	33.54
693.568	32.94
693.754	33.08
693.94	32.49
694.125	33
694.311	32.38
694.497	32.04
694.682	32.21
694.868	32.47
695.054	32.18
695.239	32.18
695.425	32.08
695.611	32.53
695.796	32.33
695.982	32.42
696.168	31.78
696.353	31.93
696.539	32.25
696.724	32.22
696.91	31.76
697.095	31.99
697.281	31.74
697.466	31.94
697.652	31.92
697.837	31.87
698.023	31.97
698.208	32.18
698.393	32.3
698.579	32.07
698.764	32
698.949	32.36
699.135	32.07
699.32	32.39
699.505	32.06
699.691	31.9
699.876	31.91
700.061	31.88
700.246	31.93
700.432	32.03
700.617	32.35
700.802	32.14
700.987	31.83
701.172	32.52
701.358	32.35
701.543	32.94
701.728	33.19
701.913	33.67
702.098	33.97
702.283	33.99
702.468	34.07
702.653	34
702.838	34.57
703.023	34.31
703.208	33.7
703.393	33.67
703.578	33.48
703.763	33.48
703.948	33.1
704.133	33.14
704.318	32.92
704.503	32.84
704.688	32.76
704.873	32.38
705.057	32.56
705.242	32.91
705.427	33.14
705.612	33.18
705.797	33.22
705.981	33.5
706.166	33.37
706.351	33.42
706.536	33.26
706.72	33.07
706.905	33.24
707.09	33.23
707.274	32.97
707.459	33.03
707.644	33.05
707.828	33.28
708.013	33.1
708.197	33.23
708.382	33.39
708.567	33.16
708.751	33.21
708.936	33.13
709.12	33.73
709.305	33.95
709.489	33.96
709.673	33.62
709.858	33.48
710.042	33.41
710.227	33.5
710.411	33.53
710.596	33.93
710.78	33.88
710.964	34
711.149	33.79
711.333	33.73
711.517	33.24
711.702	33.79
711.886	33.96
712.07	33.8
712.254	33.21
712.438	33.21
712.623	33.09
712.807	33.31
712.991	33.62
713.175	33.58
713.359	33.8
713.544	33.95
713.728	33.26
713.912	32.91
714.096	32.92
714.28	32.93
714.464	32.8
714.648	32.74
714.832	32.84
715.016	32.52
715.2	32.4
715.384	32.26
715.568	32.47
715.752	32.86
715.936	33
716.12	33.08
716.304	33.69
716.488	33.9
716.671	34.22
716.855	34.3
717.039	34.25
717.223	34.49
717.407	33.99
717.59	34
717.774	33.72
717.958	33.53
718.142	33.3
718.325	33.11
718.509	33
718.693	32.6
718.877	32.11
719.06	32.28
719.244	32.6
719.428	32.92
719.611	32.84
719.795	33.29
719.978	34.02
720.162	34.47
720.345	34
720.529	33.94
720.713	34.01
720.896	34.37
721.08	34.3
721.263	33.41
721.446	33.56
721.63	33.63
721.813	33.2
721.997	32.9
722.18	32.58
722.364	33.18
722.547	33.16
722.73	33
722.914	33.03
723.097	33.37
723.28	33.72
723.464	33.68
723.647	33.83
723.83	34.1
724.013	34.01
724.197	34.34
724.38	34.28
724.563	34.22
724.746	34.41
724.929	34.56
725.112	34.47
725.296	34.17
725.479	34.02
725.662	33.75
725.845	33.78
726.028	33.31
726.211	33.11
726.394	32.91
726.577	32.87
726.76	33.22
726.943	33.15
727.126	33.13
727.309	33.33
727.492	33.66
727.675	34.08
727.858	33.87
728.041	34.18
728.224	34.17
728.407	34.48
728.589	34.96
728.772	34.5
728.955	34.46
729.138	34.27
729.321	34.09
729.503	34.14
729.686	34
729.869	34.21
730.052	33.83
730.234	34.32
730.417	34.12
730.6	33.74
730.782	34.14
730.965	33.7
731.148	33.57
731.33	33.76
731.513	33.65
731.695	33.68
731.878	33.36
732.061	33.31
732.243	33.09
732.426	32.72
732.608	32.85
732.791	32.86
732.973	33.53
733.156	33.59
733.338	33.4
733.52	33.26
733.703	32.8
733.885	32.77
734.068	32.99
734.25	33.5
734.432	33.7
734.615	33.47
734.797	33.22
734.979	32.39
735.162	32.73
735.344	33.1
735.526	33.36
735.708	33.4
735.891	34.09
736.073	34
736.255	33.2
736.437	33.59
736.619	33.69
736.802	34.11
736.984	34.93
737.166	34.79
737.348	34.87
737.53	34.33
737.712	34.65
737.894	34.59
738.076	34.82
738.258	35.19
738.44	34.88
738.622	35.16
738.804	34.54
738.986	34.2
739.168	33.7
739.35	33.99
739.532	34.53
739.714	34.66
739.896	34.35
740.078	33.76
740.259	33.5
740.441	34.02
740.623	33.87
740.805	33.65
740.987	34.2
741.168	34.23
741.35	33.85
741.532	33.46
741.714	33.43
741.895	33.07
742.077	33.69
742.259	33.35
742.44	32.95
742.622	32.93
742.804	33.72
742.985	33.34
743.167	33.59
743.348	33.39
743.53	33.46
743.711	33.03
743.893	33.36
744.075	33.25
744.256	34.13
744.438	33.92
744.619	34.07
744.8	33.86
744.982	33.56
745.163	33.92
745.345	34.12
745.526	34.61
745.707	34.96
745.889	34.54
746.07	34.69
746.252	33.91
746.433	34.83
746.614	34.78
746.795	35.44
746.977	35.58
747.158	35.65
747.339	35.45
747.52	35.61
747.702	35.34
747.883	35.28
748.064	35.06
748.245	35.06
748.426	34.33
748.607	34.4
748.788	33.72
748.97	33.92
749.151	33.54
749.332	34
749.513	33.56
749.694	33.58
749.875	34.63
750.056	34.84
750.237	34.67
750.418	34.96
750.599	34.34
750.78	34.06
750.96	33.88
751.141	33.99
751.322	33.49
751.503	33.44
751.684	34.19
751.865	33.64
752.046	33.73
752.226	34.3
752.407	34.07
752.588	35.1
752.769	35.66
752.949	35.76
753.13	35.84
753.311	35.83
753.492	36.69
753.672	35.93
753.853	35.64
754.034	35.53
754.214	34.74
754.395	34.54
754.575	33.7
754.756	33.4
754.937	33.41
755.117	32.95
755.298	32.87
755.478	32.29
755.659	32.18
755.839	31.83
756.02	32.16
756.2	32.55
756.381	33.5
756.561	33.85
756.741	34.1
756.922	33.95
757.102	33.82
757.283	34.01
757.463	33.78
757.643	34.22
757.823	35.2
758.004	35.21
758.184	35.46
758.364	34.93
758.545	35.28
758.725	34.75
758.905	35.24
759.085	35.89
759.265	35.85
759.446	35.7
759.626	35.7
759.806	35
759.986	34.55
760.166	33.77
760.346	32.7
760.526	32.44
760.706	32.26
760.886	31.18
761.066	31.18
761.246	31.87
761.426	32.4
761.606	31.77
761.786	32.29
761.966	32.8
762.146	33.44
762.326	33.83
762.506	33.75
762.686	34.08
762.866	34.23
763.046	33.78
763.225	33.08
763.405	32.8
763.585	33.24
763.765	33.35
763.945	32.73
764.124	32.65
764.304	33.11
764.484	33.49
764.664	33.38
764.843	33.83
765.023	34.33
765.203	34.2
765.382	33.9
765.562	33.77
765.741	33.3
765.921	34.15
766.101	34.26
766.28	33.57
766.46	33.13
766.639	32.49
766.819	32.67
766.998	32.56
767.178	33.13
767.357	33.07
767.537	33.21
767.716	33.4
767.896	32.42
768.075	32.43
768.254	32.18
768.434	32.61
768.613	33.39
768.792	32.94
768.972	32.9
769.151	33.13
769.33	33.42
769.51	33.43
769.689	33.66
769.868	33.95
770.047	34.16
770.226	34.38
770.406	33.4
770.585	33.71
770.764	33.7
770.943	34.55
771.122	34.39
771.301	34.83
771.48	34.71
771.66	34.21
771.839	34.8
772.018	34.59
772.197	35.01
772.376	36.23
772.555	35.77
772.734	36.35
772.913	35.05
773.092	35.04
773.271	35.91
773.449	36.44
773.628	36.55
773.807	36.13
773.986	36.12
774.165	36.84
774.344	36.75
774.523	37.29
774.701	36.43
774.88	37.37
775.059	37.41
775.238	36.75
775.417	36.41
775.595	36.97
775.774	37.29
775.953	36.95
776.131	36.39
776.31	36.09
776.489	35.93
776.667	36.07
776.846	35.51
777.025	35.99
777.203	35.35
777.382	35.63
777.56	35.09
777.739	34.86
777.917	34.28
778.096	34.23
778.274	33.79
778.453	34.05
778.631	34.54
778.81	34.92
778.988	34.54
779.166	34.35
779.345	34.14
779.523	34.12
779.702	34.12
779.88	35.12
780.058	35.96
780.237	36.77
780.415	36.73
780.593	36.57
780.771	36.24
780.95	36.93
781.128	37.36
781.306	36.9
781.484	37.14
781.662	37.3
781.841	36.96
782.019	35.97
782.197	34.97
782.375	34.9
782.553	34.61
782.731	35.1
782.909	33.71
783.087	34.02
783.265	35.06
783.443	34.76
783.621	34.35
783.799	34.8
783.977	35.33
784.155	35.09
784.333	33.86
784.511	33.99
784.689	33.66
784.867	34.84
785.045	35.04
785.223	35.43
785.4	36.63
785.578	36.91
785.756	36.68
785.934	36.39
786.112	37.11
786.289	39
786.467	39.22
786.645	39.08
786.823	38.14
787	38.05
787.178	37.26
787.356	36.25
787.533	36.22
787.711	36.32
787.889	35.87
788.066	35.26
788.244	34.78
788.421	34.45
788.599	34.5
788.776	34.19
788.954	33.72
789.131	34.33
789.309	34.91
789.486	34.61
789.664	35.25
789.841	36.21
790.019	36.49
790.196	35.88
790.373	36.29
790.551	36.94
790.728	37.56
790.906	37.97
791.083	38.47
791.26	38.6
791.437	38.78
791.615	38.13
791.792	37.7
791.969	37.39
792.146	37.33
792.324	37.16
792.501	37.58
792.678	38.24
792.855	38.54
793.032	37.18
793.209	37.46
793.387	37.64
793.564	37.03
793.741	36.6
793.918	37.48
794.095	38.09
794.272	37.33
794.449	36.02
794.626	36.31
794.803	36.03
794.98	35.89
795.157	35.27
795.334	35.9
795.511	35.69
795.688	36.99
795.864	35.96
796.041	35.72
796.218	36.37
796.395	37.05
796.572	36.14
796.749	36.03
796.925	35.41
797.102	35.84
797.279	34.77
797.456	35.49
797.632	34.17
797.809	35.12
797.986	35.08
798.162	35.46
798.339	34.38
798.516	34.34
798.692	32.82
798.869	34.37
799.046	33.31
799.222	34.13
799.399	34.14
799.575	34.05
799.752	33.97
799.928	33.32
800.105	32.17
800.281	32.75
800.458	33.69
800.634	36.01
800.811	35.61
800.987	35.05
801.163	34.8
801.34	35.55
801.516	36.57
801.692	36.9
801.869	37.8
802.045	39.89
802.221	39.09
802.398	38.85
802.574	38.52
802.75	37.31
802.926	38.25
803.103	38.97
803.279	37.86
803.455	36.06
803.631	36.39
803.807	36.36
803.983	34.45
804.16	34.87
804.336	33.31
804.512	31.86
804.688	33.1
804.864	33.35
805.04	32.28
805.216	33.93
805.392	35.59
805.568	35.84
805.744	35.87
805.92	37.9
806.096	38.47
806.272	39.79
806.448	41.58
806.623	41.4
806.799	41.56
806.975	41.71
807.151	39.83
807.327	38.59
807.503	37.11
807.678	36.88
807.854	35.68
808.03	35.75
808.206	35.07
808.381	34.28
808.557	33.17
808.733	31.48
808.908	32.32
809.084	33.68
809.26	34.75
809.435	35.39
809.611	35.84
809.787	35.83
809.962	34.86
810.138	35.11
810.313	34.38
810.489	35.67
810.664	36.72
810.84	34.61
811.015	34.31
811.191	34.7
811.366	35.61
811.542	34.86
811.717	35.3
811.892	35.02
812.068	35.54
812.243	35.15
812.419	34.67
812.594	35.26
812.769	36.61
812.944	36.26
813.12	36.05
813.295	32.91
813.47	33.51
813.645	33.27
813.821	34.97
813.996	35.05
814.171	36.55
814.346	37.16
814.521	37.32
814.697	37.8
814.872	36.62
815.047	37.18
815.222	39.81
815.397	39.1
815.572	39.03
815.747	38.47
815.922	37.77
816.097	37.68
816.272	39.29
816.447	38.94
816.622	38.15
816.797	40.26
816.972	39.95
817.147	38.24
817.322	38.16
817.496	37.61
817.671	37.77
817.846	37.93
818.021	37.71
818.196	36.85
818.371	36.11
818.545	36.62
818.72	35.69
818.895	34.84
819.069	35.73
819.244	36.12
819.419	36.11
819.594	35.42
819.768	34.87
819.943	34.4
820.117	33.72
820.292	34.27
820.467	33.98
820.641	33.77
820.816	33.26
820.99	33.05
821.165	32.81
821.339	32.86
821.514	33.17
821.688	33.09
821.863	32.74
822.037	32.54
822.212	32.34
822.386	32.43
822.56	32.6
822.735	32.85
822.909	32.79
823.084	32.72
823.258	32.52
823.432	32.37
823.606	32.34
823.781	32.93
823.955	33.12
824.129	33.08
824.303	32.93
824.478	32.94
824.652	32.6
824.826	32.69
825	32.63
825.174	32.61
825.348	32.64
825.523	32.81
825.697	32.07
825.871	32.23
826.045	32.13
826.219	32.35
826.393	32.34
826.567	32.87
826.741	33.16
826.915	33.36
827.089	33.94
827.263	33.89
827.437	34.02
827.611	34.91
827.784	35.02
827.958	35.69
828.132	35.7
828.306	35.61
828.48	35.69
828.654	35.94
828.827	35.97
829.001	35.54
829.175	35.42
829.349	35.91
829.522	36
829.696	36.54
829.87	36.16
830.044	36.88
830.217	36.14
830.391	36.7
830.565	36.64
830.738	36.95
830.912	37.2
831.085	37.58
831.259	37.95
831.432	36.92
831.606	35.91
831.779	36.72
831.953	36.75
832.126	36.99
832.3	36.77
832.473	37.09
832.647	37
832.82	37.57
832.994	37.98
833.167	37.4
833.34	37.03
833.514	37.57
833.687	36.95
833.86	36.18
834.034	36.5
834.207	35.91
834.38	35.64
834.553	36.01
834.727	35.8
834.9	35.76
835.073	34.73
835.246	35.1
835.419	34.83
835.593	35.18
835.766	34.89
835.939	35.94
836.112	36.87
836.285	37.32
836.458	38.23
836.631	37.84
836.804	37.79
836.977	40.56
837.15	41.43
837.323	41.15
837.496	41.41
837.669	42.47
837.842	41.39
838.015	40.99
838.188	40.02
838.361	38.06
838.533	37.29
838.706	36.4
838.879	35.47
839.052	36.32
839.225	36.27
839.398	36.54
839.57	35.86
839.743	37.14
839.916	38.59
840.088	39.27
840.261	40.16
840.434	40.97
840.607	41.82
840.779	41.92
840.952	40.43
841.124	40.04
841.297	40.08
841.47	42.38
841.642	41.92
841.815	40.6
841.987	39.74
842.16	39.03
842.332	39.84
842.505	41.57
842.677	41.14
842.85	41.89
843.022	44.6
843.194	44.74
843.367	43.28
843.539	41.35
843.712	41.21
843.884	42.27
844.056	42.92
844.229	44.22
844.401	41.67
844.573	40.84
844.745	40.87
844.918	39.89
845.09	40.18
845.262	43.1
845.434	44.71
845.606	45.2
845.779	45.27
845.951	48.23
846.123	46.12
846.295	47.77
846.467	50.31
846.639	51.88
846.811	52.17
846.983	52.75
847.155	48.66
847.327	48.22
847.499	49.09
847.671	50.09
847.843	44.72
848.015	44.66
848.187	46.18
848.359	46.9
848.531	44.08
848.703	45.26
848.875	46.45
849.047	45.94
849.218	46.7
849.39	43.55
849.562	42.8
849.734	47.39
849.905	47.16
850.077	44.79
850.249	37.31
850.421	42.14
850.592	41.69
850.764	41.56
850.936	45.7
851.107	43.53
851.279	43.92
851.451	47.68
851.622	44.56
851.794	44.33
851.965	46.43
852.137	53.56
852.308	50.1
852.48	50.91
852.651	48.29
852.823	48.85
852.994	49.14
853.166	49.2
853.337	44.24
853.509	45.39
853.68	45.31
853.851	40.47
854.023	41.27
854.194	39.17
854.365	37.19
854.537	39.41
854.708	38.07
854.879	41.07
855.05	45.15
855.222	47.63
855.393	47.75
855.564	51.33
855.735	58.39
855.906	59.62
856.078	61.97
856.249	61.9
856.42	62.66
856.591	63.43
856.762	61.03
856.933	54.54
857.104	51.75
857.275	51.83
857.446	50.84
857.617	47.92
857.788	45.44
857.959	47.9
858.13	48.28
858.301	46.01
858.472	40.62
858.643	38.82
858.814	42.37
858.985	45.72
859.155	47.3
859.326	46.25
859.497	44.66
859.668	44.64
859.839	43.32
860.009	45.4
860.18	46.8
860.351	53.47
860.522	58.87
860.692	58.89
860.863	57.83
861.034	55.07
861.204	55.79
861.375	59
861.546	60.33
861.716	60.09
861.887	55.65
862.057	55.46
862.228	52.89
862.398	49.68
862.569	52.01
862.739	52.75
862.91	51.44
863.08	51.16
863.251	47.66
863.421	46.24
863.592	48.08
863.762	48.98
863.932	47.82
864.103	48.31
864.273	54.55
864.443	49.31
864.614	52.13
864.784	56.85
864.954	56.67
865.125	58.11
865.295	61.22
865.465	58.33
865.635	57.01
865.805	61.84
865.976	63.78
866.146	58.03
866.316	59.11
866.486	55.76
866.656	53.73
866.826	53.47
866.996	51.6
867.166	48.77
867.336	50.17
867.506	52.98
867.676	44.42
867.846	43.6
868.016	40.44
868.186	45.65
868.356	45.53
868.526	43.96
868.696	43.92
868.866	50.43
869.036	48.72
869.206	52.39
869.376	52.28
869.545	56.19
869.715	57.24
869.885	57.68
870.055	54.46
870.224	54.29
870.394	55.54
870.564	63.73
870.734	57.04
870.903	58.21
871.073	53.38
871.243	53.58
871.412	54.9
871.582	54.59
871.751	58.19
871.921	58.91
872.091	58.66
872.26	57.58
872.43	53.22
872.599	54.77
872.769	56.49
872.938	57
873.108	56.4
873.277	56.15
873.446	54.47
873.616	50.18
873.785	52.11
873.955	50.3
874.124	50.81
874.293	52.75
874.463	55.82
874.632	54.16
874.801	53.95
874.971	56.24
875.14	56.6
875.309	56.56
875.478	56.78
875.647	53.74
875.817	53.73
875.986	56.12
876.155	51.09
876.324	51.88
876.493	52.62
876.662	53.81
876.831	51.43
877	50.94
877.17	50.74
877.339	52.2
877.508	53.3
877.677	54.02
877.846	49.13
878.015	47.27
878.184	40.91
878.352	42.62
878.521	43.74
878.69	40.63
878.859	39.17
879.028	41.8
879.197	41.33
879.366	40.08
879.534	38.83
879.703	39.91
879.872	40.72
880.041	42.01
880.21	39.32
880.378	38
880.547	37.9
880.716	39
880.884	38.25
881.053	37.54
881.222	37.55
881.39	37.82
881.559	37.3
881.727	37.3
881.896	36.36
882.065	36.22
882.233	34.85
882.402	34.96
882.57	33.76
882.739	33.37
882.907	32.98
883.076	32.48
883.244	32.27
883.412	31.95
883.581	31.5
883.749	32.41
883.918	32.36
884.086	33.96
884.254	34.86
884.423	36.2
884.591	36.1
884.759	36.5
884.927	37.01
885.096	36.18
885.264	37.43
885.432	38.79
885.6	38.28
885.769	38.25
885.937	39.39
886.105	39.66
886.273	40.91
886.441	42.13
886.609	44.5
886.777	45.83
886.945	50.27
887.113	52.97
887.281	52.15
887.449	53.35
887.617	54.59
887.785	54.72
887.953	54.53
888.121	51.35
888.289	50.35
888.457	51.34
888.625	49.05
888.793	50.49
888.961	48.43
889.129	50.25
889.296	48.14
889.464	49.01
889.632	47.06
889.8	46.69
889.967	49.15
890.135	53.21
