Data from 2938578_Reflection_1.txt Node
Date: Sun Jun 14 21:29:22 EDT 2015
User: robert
Spectrometer: USB4E03002
Autoset integration time: false
Trigger mode: 4
Integration Time (sec): 1.000000E-1
Scans to average: 10
Electric dark correction enabled: true
Nonlinearity correction enabled: false
Boxcar width: 5
Stray light correction enabled: false
XAxis mode: Wavelengths
Stop averaging: false
Number of Pixels in Spectrum: 3648
>>>>>Begin Spectral Data<<<<<
177.575	322.77
177.794	455.41
178.014	6900
178.233	-16825
178.452	-1552.01
178.672	-831.88
178.891	-57.65
179.11	248.56
179.33	223.27
179.549	295.39
179.768	526.27
179.987	357.39
180.207	395.77
180.426	634.37
180.645	683.81
180.864	408.43
181.084	370.23
181.303	490.97
181.522	305.13
181.741	261.09
181.96	186.09
182.179	202.96
182.398	209.33
182.618	219.21
182.837	183.14
183.056	148.74
183.275	177.6
183.494	227.12
183.713	210.57
183.932	213.01
184.151	227.46
184.37	244.04
184.589	215.54
184.808	208.88
185.027	198.46
185.246	268.11
185.465	273.05
185.684	276.55
185.903	324.98
186.122	279.08
186.341	277.56
186.56	288.28
186.779	245.1
186.998	232.35
187.216	278.72
187.435	266.66
187.654	254.86
187.873	284.06
188.092	323.55
188.311	244.43
188.53	308.31
188.748	364.57
188.967	765.42
189.186	663.39
189.405	-2382.19
189.623	-48963.89
189.842	-792.95
190.061	-802.65
190.28	-857.76
190.498	-1719.29
190.717	-4457.36
190.936	1389.8
191.154	1418.7
191.373	468.76
191.592	938.23
191.81	291.33
192.029	392.53
192.248	241.91
192.466	202.9
192.685	181.56
192.904	207.7
193.122	196.63
193.341	190.86
193.559	191.64
193.778	216.07
193.996	199.02
194.215	221.53
194.433	201.94
194.652	168.86
194.87	180.1
195.089	192.77
195.307	157.98
195.526	153.53
195.744	179.57
195.963	163.53
196.181	199.94
196.399	221.6
196.618	185.5
196.836	173.85
197.055	203.26
197.273	190.16
197.491	217.74
197.71	252.01
197.928	268.54
198.146	248.19
198.365	318.45
198.583	216.68
198.801	178.66
199.019	199.82
199.238	216.38
199.456	185.21
199.674	191.64
199.892	173.66
200.111	147.08
200.329	139.03
200.547	133.99
200.765	117.73
200.983	109.85
201.202	102.04
201.42	107.1
201.638	100.46
201.856	96.44
202.074	108.58
202.292	117.38
202.51	192.88
202.728	188.44
202.946	176.53
203.165	186.15
203.383	192.63
203.601	195.29
203.819	211.03
204.037	237.12
204.255	271.46
204.473	334.81
204.691	257.29
204.909	219.39
205.127	221.66
205.345	160.86
205.562	165.62
205.78	174.8
205.998	173.28
206.216	153.93
206.434	160.52
206.652	148.26
206.87	145.49
207.088	148.15
207.306	155.05
207.523	156.28
207.741	192.05
207.959	186.37
208.177	151.75
208.395	163
208.612	189.18
208.83	153.48
209.048	142.78
209.266	128.16
209.483	126.11
209.701	122.47
209.919	125.54
210.136	124.25
210.354	138
210.572	156.18
210.79	150.59
211.007	142.35
211.225	164.92
211.442	165.07
211.66	178.54
211.878	202.96
212.095	299.78
212.313	265.88
212.53	283.06
212.748	241.29
212.966	239.4
213.183	238.01
213.401	218.36
213.618	238.07
213.836	302.56
214.053	271.17
214.271	217.68
214.488	139.89
214.705	152.65
214.923	133.12
215.14	131.88
215.358	114.76
215.575	89.86
215.793	112.97
216.01	100.37
216.227	90.8
216.445	93.65
216.662	83.5
216.879	72.03
217.097	47.39
217.314	55.37
217.531	82.9
217.749	91.2
217.966	114.8
218.183	93.43
218.4	94.5
218.618	93.03
218.835	81.93
219.052	81.98
219.269	91.53
219.487	100.71
219.704	98.69
219.921	88.57
220.138	85.58
220.355	76.94
220.572	73.76
220.79	71.42
221.007	73.02
221.224	75.52
221.441	82.76
221.658	79.86
221.875	81.79
222.092	81.15
222.309	69.64
222.526	65.74
222.743	66.55
222.96	65.28
223.177	63.98
223.394	57.29
223.611	52.86
223.828	50.88
224.045	48.4
224.262	44.04
224.479	39.67
224.696	40.21
224.913	39.92
225.13	37.94
225.347	35.32
225.564	31.69
225.781	28.88
225.997	27.79
226.214	23.77
226.431	23.1
226.648	20.91
226.865	20.93
227.082	19.4
227.298	18.49
227.515	17.33
227.732	17.51
227.949	17.92
228.165	17.65
228.382	16.79
228.599	16.21
228.816	15.31
229.032	15.09
229.249	14.98
229.466	16.09
229.682	17.21
229.899	17.17
230.116	16.55
230.332	17.39
230.549	18.65
230.765	19.51
230.982	21.41
231.199	23.15
231.415	24.03
231.632	22.83
231.848	22.63
232.065	20.34
232.281	20.41
232.498	21.17
232.714	22.01
232.931	22.38
233.147	21.95
233.364	21.75
233.58	19.5
233.797	22.43
234.013	22.79
234.23	22.78
234.446	23.44
234.662	23.82
234.879	23.69
235.095	22.03
235.312	21.16
235.528	24.33
235.744	23.7
235.961	25.55
236.177	21.24
236.393	22.28
236.61	22.22
236.826	23.38
237.042	23.01
237.258	21.63
237.475	20.48
237.691	20.46
237.907	17.38
238.123	17.46
238.339	16.76
238.556	17.38
238.772	16.09
238.988	13.1
239.204	12.63
239.42	12.76
239.636	13.19
239.853	12.89
240.069	12.25
240.285	12.57
240.501	11.56
240.717	11.3
240.933	11.3
241.149	11.34
241.365	12.61
241.581	12.14
241.797	11.88
242.013	10.61
242.229	10.85
242.445	11.05
242.661	10.27
242.877	11.36
243.093	11.71
243.309	11.39
243.525	11.84
243.741	11.76
243.957	12.06
244.173	11.35
244.388	11.93
244.604	11.4
244.82	10.99
245.036	10.84
245.252	10.47
245.468	10.07
245.683	9.85
245.899	9.83
246.115	9.13
246.331	8.91
246.547	9.12
246.762	8.96
246.978	8.84
247.194	9.29
247.409	9.37
247.625	9.44
247.841	9.24
248.057	9.62
248.272	9.46
248.488	10.11
248.703	10.27
248.919	10.89
249.135	11.07
249.35	12.14
249.566	11.15
249.782	11.12
249.997	11.19
250.213	10.81
250.428	10.34
250.644	10.05
250.859	10.53
251.075	10.6
251.29	9.93
251.506	10.13
251.721	9.49
251.937	9.78
252.152	10.66
252.368	10.91
252.583	12.17
252.798	12.28
253.014	12.44
253.229	11.05
253.445	11.24
253.66	11.07
253.875	11.93
254.091	12.71
254.306	12.59
254.521	12.1
254.737	10.76
254.952	10.36
255.167	10.36
255.383	9.94
255.598	10.5
255.813	9.55
256.028	9.53
256.244	8.77
256.459	8.2
256.674	8.35
256.889	8.04
257.104	7.63
257.32	7.7
257.535	7.84
257.75	7.85
257.965	7.81
258.18	7.86
258.395	7.64
258.61	7.66
258.826	7.3
259.041	7.3
259.256	7.18
259.471	7.37
259.686	7.15
259.901	6.81
260.116	6.89
260.331	6.57
260.546	6.86
260.761	7.16
260.976	6.82
261.191	7.55
261.406	7.55
261.621	8.45
261.836	8.72
262.05	8.87
262.265	9.09
262.48	9.27
262.695	9.58
262.91	10.27
263.125	10.18
263.34	11.23
263.555	10.98
263.769	10.46
263.984	9.46
264.199	9.5
264.414	9.32
264.629	9.3
264.843	8.82
265.058	9.36
265.273	8.33
265.488	8.52
265.702	7.34
265.917	6.77
266.132	7.32
266.346	7.3
266.561	7.57
266.776	7.82
266.99	8.16
267.205	8.08
267.42	7.61
267.634	7.15
267.849	6.78
268.063	7.4
268.278	8.5
268.492	8.31
268.707	8.23
268.922	8.2
269.136	7.95
269.351	7.67
269.565	7.59
269.78	6.94
269.994	7.82
270.209	7.64
270.423	7.16
270.637	6.66
270.852	6.41
271.066	6.59
271.281	6.32
271.495	6.22
271.709	6.29
271.924	6.33
272.138	7.38
272.353	7.21
272.567	7.71
272.781	8.43
272.996	8.29
273.21	8.34
273.424	8.25
273.638	8.28
273.853	8.64
274.067	8.73
274.281	9.56
274.495	9.11
274.71	9.25
274.924	8.74
275.138	8.28
275.352	8.44
275.566	8.97
275.781	9.14
275.995	9.57
276.209	9.82
276.423	9.83
276.637	9.07
276.851	8.75
277.065	8.27
277.279	8.83
277.493	9.3
277.707	9.26
277.921	8.91
278.135	7.95
278.349	7.48
278.563	6.75
278.777	7
278.991	6.93
279.205	7.14
279.419	7.33
279.633	7.05
279.847	6.76
280.061	6.62
280.275	6.51
280.489	7.78
280.703	8.15
280.917	8.15
281.131	8.01
281.344	8.01
281.558	7.86
281.772	7.46
281.986	7.09
282.2	6.89
282.414	6.78
282.627	6.41
282.841	5.86
283.055	5.67
283.269	6.04
283.482	5.76
283.696	5.67
283.91	5.59
284.123	5.64
284.337	5.89
284.551	5.74
284.764	5.92
284.978	6.19
285.192	5.9
285.405	5.87
285.619	5.93
285.833	6.43
286.046	6.46
286.26	6.7
286.473	6.7
286.687	7.16
286.9	7.18
287.114	7.09
287.327	7.11
287.541	7.54
287.754	7.22
287.968	7.05
288.181	6.46
288.395	6.39
288.608	6.73
288.822	6.74
289.035	6.37
289.248	6.78
289.462	6.95
289.675	6.93
289.889	6.96
290.102	6.99
290.315	7.12
290.529	7.5
290.742	7.69
290.955	7.36
291.169	7.74
291.382	8.07
291.595	8.17
291.808	8.51
292.022	8.68
292.235	8.6
292.448	9.11
292.661	8.7
292.875	8.45
293.088	8.85
293.301	8.98
293.514	8.71
293.727	8.22
293.94	8.02
294.153	7.94
294.367	7.54
294.58	7.37
294.793	6.84
295.006	7.13
295.219	7.03
295.432	6.85
295.645	6.86
295.858	6.83
296.071	6.79
296.284	6.88
296.497	6.94
296.71	7.29
296.923	7.66
297.136	8.05
297.349	8.17
297.562	8.11
297.775	8.29
297.988	8.39
298.201	8.57
298.414	8.64
298.626	8.66
298.839	8.52
299.052	8.53
299.265	8.24
299.478	8.15
299.691	8.15
299.903	8.38
300.116	8.08
300.329	8.04
300.542	8.39
300.755	8.56
300.967	8.7
301.18	8.51
301.393	8.51
301.605	8.56
301.818	8.63
302.031	8.39
302.243	8.43
302.456	8.53
302.669	8.34
302.881	8.41
303.094	8.75
303.307	8.73
303.519	8.52
303.732	8.74
303.944	8.89
304.157	9.22
304.37	9.46
304.582	9.6
304.795	10.06
305.007	10.82
305.22	10.83
305.432	10.74
305.645	10.95
305.857	11.25
306.069	11.07
306.282	10.85
306.494	10.55
306.707	10.25
306.919	10.12
307.132	9.62
307.344	9.35
307.556	9.03
307.769	9.07
307.981	8.56
308.193	8.55
308.406	8.29
308.618	8.36
308.83	8.21
309.043	8.49
309.255	8.52
309.467	8.36
309.679	8.32
309.892	8.42
310.104	8.21
310.316	8.21
310.528	8.18
310.74	8.46
310.953	8.46
311.165	8.24
311.377	8.2
311.589	8.34
311.801	8.46
312.013	8.33
312.225	8.61
312.437	8.85
312.649	9.46
312.862	9.63
313.074	9.16
313.286	9.29
313.498	9.97
313.71	9.62
313.922	9.49
314.134	9.37
314.346	9.26
314.558	9.18
314.77	9.39
314.982	9.28
315.193	9.35
315.405	9.94
315.617	9.89
315.829	9.71
316.041	9.66
316.253	9.88
316.465	10.57
316.677	11.08
316.888	10.96
317.1	10.82
317.312	10.55
317.524	10.62
317.736	10.81
317.947	10.9
318.159	11.35
318.371	12.17
318.583	12.27
318.794	11.91
319.006	11.42
319.218	11.46
319.43	11.08
319.641	11.35
319.853	11.54
320.064	11.5
320.276	11.55
320.488	10.61
320.699	10.68
320.911	10.71
321.123	10.96
321.334	11.14
321.546	11.35
321.757	11.82
321.969	11.68
322.18	11.34
322.392	10.92
322.603	10.92
322.815	11.3
323.026	10.7
323.238	10.37
323.449	10.04
323.661	10.03
323.872	9.73
324.083	9.81
324.295	9.79
324.506	9.5
324.718	9.48
324.929	9.8
325.14	9.89
325.352	10.22
325.563	10.62
325.774	10.7
325.986	10.51
326.197	10.32
326.408	10.22
326.62	9.92
326.831	10.5
327.042	10.87
327.253	10.29
327.464	10.25
327.676	9.87
327.887	9.43
328.098	9.46
328.309	9.75
328.52	10.55
328.732	10.65
328.943	10.9
329.154	11
329.365	10.39
329.576	10.16
329.787	10.51
329.998	11.03
330.209	11.42
330.42	11.52
330.631	11.42
330.842	11.06
331.053	10.89
331.264	10.82
331.475	10.94
331.686	11.35
331.897	11.77
332.108	11.88
332.319	11.36
332.53	11.27
332.741	11.11
332.952	11.07
333.163	10.84
333.374	10.79
333.585	10.63
333.795	10.27
334.006	10.55
334.217	10.48
334.428	10.19
334.639	10.36
334.849	9.84
335.06	9.72
335.271	9.27
335.482	9.48
335.692	9.51
335.903	9.78
336.114	9.57
336.325	9.21
336.535	9.73
336.746	9.67
336.957	9.97
337.167	10.31
337.378	10.45
337.589	10.89
337.799	11.01
338.01	11.14
338.22	10.82
338.431	10.66
338.642	10.86
338.852	10.09
339.063	9.96
339.273	9.55
339.484	9.71
339.694	9.54
339.905	9.94
340.115	9.59
340.326	9.38
340.536	9.75
340.746	10.06
340.957	9.95
341.167	10.12
341.378	10.11
341.588	10.26
341.799	10.04
342.009	10.27
342.219	9.81
342.43	9.92
342.64	9.96
342.85	9.94
343.061	10.03
343.271	10.23
343.481	10.02
343.691	9.86
343.902	9.94
344.112	9.99
344.322	9.78
344.532	9.69
344.743	9.48
344.953	9.46
345.163	9.14
345.373	9
345.583	8.92
345.793	8.77
346.004	8.86
346.214	8.92
346.424	8.83
346.634	8.8
346.844	8.51
347.054	8.49
347.264	8.4
347.474	8.77
347.684	8.89
347.894	8.6
348.104	8.8
348.314	8.47
348.524	7.93
348.734	7.72
348.944	7.55
349.154	7.91
349.364	8.01
349.574	7.76
349.784	7.37
349.994	7.4
350.204	7.35
350.413	7.35
350.623	7.53
350.833	7.73
351.043	7.99
351.253	8.34
351.463	7.68
351.672	7.79
351.882	7.84
352.092	8.14
352.302	7.97
352.511	8.17
352.721	8.03
352.931	8.17
353.141	8.48
353.35	8.73
353.56	8.69
353.77	9.25
353.979	9.12
354.189	9.26
354.399	9.1
354.608	8.76
354.818	8.55
355.027	8.68
355.237	8.64
355.447	8.23
355.656	7.75
355.866	7.72
356.075	7.67
356.285	7.58
356.494	7.57
356.704	7.29
356.913	7.3
357.123	7.31
357.332	7.09
357.542	7.05
357.751	6.97
357.96	7.19
358.17	6.76
358.379	6.82
358.589	6.54
358.798	6.32
359.007	6.42
359.217	6.57
359.426	6.3
359.635	6.7
359.845	6.6
360.054	6.73
360.263	6.78
360.472	7.03
360.682	6.78
360.891	7.02
361.1	6.97
361.309	7.15
361.519	7.27
361.728	7.59
361.937	7.38
362.146	7.45
362.355	7.63
362.564	7.65
362.774	7.69
362.983	7.62
363.192	7.43
363.401	7.61
363.61	7.36
363.819	7.37
364.028	7.26
364.237	7.25
364.446	7.25
364.655	7.06
364.864	6.87
365.073	6.75
365.282	7.11
365.491	7.21
365.7	7.06
365.909	7.38
366.118	7.37
366.327	7.24
366.536	7.3
366.745	7.53
366.954	7.53
367.162	7.64
367.371	7.67
367.58	7.63
367.789	7.59
367.998	7.47
368.207	7.29
368.415	7.05
368.624	7.4
368.833	7.42
369.042	7.14
369.25	7.3
369.459	7.23
369.668	7.14
369.877	6.87
370.085	6.95
370.294	7.05
370.503	7.07
370.711	7.37
370.92	7.24
371.129	7.19
371.337	7.2
371.546	7.01
371.754	7.02
371.963	7.01
372.171	7.27
372.38	7.19
372.589	7.27
372.797	7.41
373.006	7.07
373.214	6.89
373.423	6.94
373.631	7.04
373.84	7.06
374.048	6.85
374.256	6.86
374.465	6.95
374.673	6.9
374.882	7.03
375.09	6.95
375.298	7.03
375.507	7.01
375.715	6.84
375.923	6.56
376.132	6.44
376.34	6.4
376.548	6.38
376.757	6.15
376.965	6.35
377.173	6.2
377.381	6.12
377.59	6
377.798	6.01
378.006	6.08
378.214	6.27
378.423	6.49
378.631	6.46
378.839	6.57
379.047	6.8
379.255	6.6
379.463	6.71
379.671	6.51
379.879	6.53
380.088	6.73
380.296	6.51
380.504	6.51
380.712	6.34
380.92	6.48
381.128	6.52
381.336	6.08
381.544	6.21
381.752	6.21
381.96	6.24
382.168	6.05
382.376	5.92
382.584	6.1
382.791	5.99
382.999	6.06
383.207	5.93
383.415	6.08
383.623	6.28
383.831	6.14
384.039	5.89
384.247	6.04
384.454	6.35
384.662	6.21
384.87	6.19
385.078	6.38
385.285	6.22
385.493	6.5
385.701	6.18
385.909	6.23
386.116	6.23
386.324	6.48
386.532	6.44
386.739	6.2
386.947	6.29
387.155	6.3
387.362	6.14
387.57	6.15
387.778	5.95
387.985	6.06
388.193	6.07
388.4	6.1
388.608	6.15
388.816	6.18
389.023	6.23
389.231	6.22
389.438	6.01
389.646	6.15
389.853	6.27
390.061	6.24
390.268	6.18
390.475	6.08
390.683	6.17
390.89	6.07
391.098	6.05
391.305	5.97
391.512	5.78
391.72	5.87
391.927	5.71
392.135	5.79
392.342	5.71
392.549	5.66
392.756	5.56
392.964	5.47
393.171	5.5
393.378	5.44
393.586	5.37
393.793	5.51
394	5.45
394.207	5.46
394.414	5.3
394.622	5.37
394.829	5.52
395.036	5.56
395.243	5.47
395.45	5.52
395.657	5.49
395.864	5.47
396.072	5.51
396.279	5.46
396.486	5.45
396.693	5.49
396.9	5.51
397.107	5.44
397.314	5.58
397.521	5.68
397.728	5.4
397.935	5.43
398.142	5.55
398.349	5.56
398.556	5.52
398.763	5.43
398.97	5.53
399.177	5.36
399.383	5.27
399.59	5.07
399.797	5
400.004	5.18
400.211	5.06
400.418	5.16
400.625	4.97
400.831	5.16
401.038	5.28
401.245	4.98
401.452	4.99
401.658	4.97
401.865	5.06
402.072	5.05
402.279	5.13
402.485	5.07
402.692	4.95
402.899	4.91
403.105	4.81
403.312	4.87
403.519	4.91
403.725	4.94
403.932	5.03
404.138	4.94
404.345	4.98
404.552	4.76
404.758	4.88
404.965	4.93
405.171	4.85
405.378	4.8
405.584	4.74
405.791	4.86
405.997	4.93
406.204	5.04
406.41	5.16
406.617	5.14
406.823	5.24
407.029	5.24
407.236	5.18
407.442	5.44
407.649	5.49
407.855	5.37
408.061	5.27
408.268	5.23
408.474	5.02
408.68	4.91
408.887	4.94
409.093	4.96
409.299	4.89
409.505	4.71
409.712	4.64
409.918	4.57
410.124	4.54
410.33	4.46
410.537	4.38
410.743	4.43
410.949	4.45
411.155	4.47
411.361	4.42
411.567	4.36
411.773	4.47
411.98	4.49
412.186	4.68
412.392	4.62
412.598	4.78
412.804	4.84
413.01	4.76
413.216	4.64
413.422	4.63
413.628	4.53
413.834	4.63
414.04	4.57
414.246	4.49
414.452	4.45
414.658	4.5
414.864	4.37
415.07	4.31
415.275	4.43
415.481	4.47
415.687	4.46
415.893	4.51
416.099	4.36
416.305	4.51
416.511	4.48
416.716	4.42
416.922	4.4
417.128	4.5
417.334	4.54
417.539	4.47
417.745	4.44
417.951	4.38
418.157	4.34
418.362	4.4
418.568	4.31
418.774	4.35
418.979	4.41
419.185	4.39
419.391	4.34
419.596	4.24
419.802	4.15
420.008	4.19
420.213	4.35
420.419	4.41
420.624	4.46
420.83	4.45
421.035	4.44
421.241	4.44
421.446	4.48
421.652	4.48
421.857	4.5
422.063	4.49
422.268	4.43
422.474	4.2
422.679	4.17
422.885	4.06
423.09	4.04
423.295	3.97
423.501	3.94
423.706	3.89
423.911	3.85
424.117	3.96
424.322	4.1
424.527	4.15
424.733	4.23
424.938	4.2
425.143	4.28
425.349	4.28
425.554	4.29
425.759	4.28
425.964	4.37
426.169	4.37
426.375	4.27
426.58	4.17
426.785	4.23
426.99	4.3
427.195	4.37
427.4	4.38
427.605	4.5
427.811	4.58
428.016	4.59
428.221	4.57
428.426	4.58
428.631	4.51
428.836	4.48
429.041	4.49
429.246	4.34
429.451	4.38
429.656	4.36
429.861	4.32
430.066	4.34
430.271	4.28
430.476	4.2
430.681	4.24
430.886	4.29
431.09	4.35
431.295	4.29
431.5	4.3
431.705	4.21
431.91	4.16
432.115	4.06
432.32	3.99
432.524	3.94
432.729	4.06
432.934	3.96
433.139	3.99
433.343	3.97
433.548	3.89
433.753	3.94
433.958	4.03
434.162	4.11
434.367	4.29
434.572	4.34
434.776	4.33
434.981	4.22
435.186	4.21
435.39	4.18
435.595	4.25
435.799	4.27
436.004	4.17
436.209	4.07
436.413	4
436.618	3.86
436.822	3.75
437.027	3.71
437.231	3.7
437.436	3.76
437.64	3.74
437.845	3.58
438.049	3.57
438.253	3.59
438.458	3.66
438.662	3.65
438.867	3.76
439.071	3.91
439.275	3.95
439.48	3.93
439.684	3.89
439.888	3.92
440.093	4
440.297	4
440.501	4
440.706	3.91
440.91	4
441.114	3.81
441.318	3.76
441.523	3.84
441.727	3.8
441.931	3.84
442.135	3.83
442.339	3.79
442.543	3.87
442.748	3.89
442.952	4
443.156	3.88
443.36	3.93
443.564	3.92
443.768	3.88
443.972	3.91
444.176	3.85
444.38	3.81
444.584	3.86
444.788	3.84
444.992	3.8
445.196	3.72
445.4	3.73
445.604	3.64
445.808	3.61
446.012	3.54
446.216	3.52
446.42	3.6
446.624	3.59
446.828	3.57
447.032	3.51
447.235	3.45
447.439	3.45
447.643	3.55
447.847	3.68
448.051	3.77
448.254	3.86
448.458	4.02
448.662	4.05
448.866	4.07
449.069	4.09
449.273	4.15
449.477	4.24
449.681	4.27
449.884	4.23
450.088	4.28
450.292	4.16
450.495	4.07
450.699	4.02
450.902	3.96
451.106	3.91
451.31	3.95
451.513	3.9
451.717	3.85
451.92	3.84
452.124	3.9
452.327	3.82
452.531	3.79
452.734	3.89
452.938	3.83
453.141	3.79
453.345	3.86
453.548	3.71
453.752	3.77
453.955	3.86
454.158	3.86
454.362	3.79
454.565	3.81
454.769	3.95
454.972	3.91
455.175	3.94
455.379	4
455.582	3.96
455.785	3.91
455.988	3.87
456.192	3.7
456.395	3.66
456.598	3.52
456.801	3.62
457.005	3.59
457.208	3.65
457.411	3.59
457.614	3.55
457.817	3.52
458.021	3.49
458.224	3.57
458.427	3.69
458.63	3.74
458.833	3.74
459.036	3.7
459.239	3.63
459.442	3.52
459.645	3.49
459.848	3.52
460.051	3.55
460.254	3.63
460.457	3.53
460.66	3.49
460.863	3.55
461.066	3.68
461.269	3.62
461.472	3.7
461.675	3.74
461.878	3.92
462.081	3.91
462.284	3.89
462.486	3.91
462.689	3.91
462.892	3.96
463.095	3.79
463.298	3.78
463.5	3.8
463.703	3.77
463.906	3.86
464.109	3.64
464.311	3.66
464.514	3.83
464.717	3.95
464.92	3.93
465.122	3.93
465.325	4.02
465.528	4.06
465.73	4.12
465.933	4.16
466.135	4.18
466.338	4.23
466.541	4.2
466.743	4.07
466.946	3.99
467.148	4.04
467.351	3.99
467.553	3.91
467.756	3.79
467.958	3.76
468.161	3.68
468.363	3.57
468.566	3.63
468.768	3.62
468.971	3.6
469.173	3.53
469.375	3.53
469.578	3.37
469.78	3.35
469.983	3.45
470.185	3.39
470.387	3.35
470.59	3.44
470.792	3.5
470.994	3.58
471.196	3.54
471.399	3.66
471.601	3.64
471.803	3.79
472.005	3.84
472.208	3.83
472.41	3.92
472.612	3.97
472.814	3.95
473.016	3.9
473.218	3.87
473.421	3.88
473.623	3.77
473.825	3.76
474.027	3.74
474.229	3.65
474.431	3.72
474.633	3.73
474.835	3.77
475.037	3.73
475.239	3.73
475.441	3.67
475.643	3.74
475.845	3.82
476.047	3.79
476.249	3.83
476.451	3.92
476.653	3.81
476.855	3.71
477.057	3.67
477.258	3.69
477.46	3.63
477.662	3.71
477.864	3.65
478.066	3.59
478.268	3.6
478.469	3.56
478.671	3.5
478.873	3.56
479.075	3.64
479.276	3.62
479.478	3.56
479.68	3.58
479.882	3.51
480.083	3.61
480.285	3.62
480.487	3.58
480.688	3.55
480.89	3.59
481.091	3.51
481.293	3.45
481.495	3.43
481.696	3.42
481.898	3.35
482.099	3.36
482.301	3.35
482.502	3.32
482.704	3.32
482.905	3.33
483.107	3.3
483.308	3.32
483.51	3.32
483.711	3.31
483.913	3.33
484.114	3.39
484.315	3.37
484.517	3.36
484.718	3.35
484.92	3.38
485.121	3.37
485.322	3.39
485.524	3.38
485.725	3.42
485.926	3.4
486.127	3.39
486.329	3.38
486.53	3.39
486.731	3.36
486.932	3.4
487.134	3.4
487.335	3.39
487.536	3.35
487.737	3.36
487.938	3.34
488.139	3.39
488.341	3.36
488.542	3.38
488.743	3.35
488.944	3.37
489.145	3.36
489.346	3.27
489.547	3.33
489.748	3.35
489.949	3.38
490.15	3.38
490.351	3.37
490.552	3.41
490.753	3.38
490.954	3.4
491.155	3.39
491.356	3.39
491.557	3.49
491.758	3.44
491.959	3.43
492.159	3.41
492.36	3.38
492.561	3.37
492.762	3.31
492.963	3.33
493.164	3.33
493.364	3.36
493.565	3.39
493.766	3.35
493.967	3.37
494.167	3.41
494.368	3.45
494.569	3.46
494.769	3.49
494.97	3.61
495.171	3.63
495.371	3.58
495.572	3.6
495.773	3.56
495.973	3.54
496.174	3.57
496.375	3.62
496.575	3.59
496.776	3.62
496.976	3.65
497.177	3.65
497.377	3.63
497.578	3.67
497.778	3.63
497.979	3.62
498.179	3.71
498.38	3.73
498.58	3.64
498.78	3.65
498.981	3.65
499.181	3.65
499.382	3.63
499.582	3.7
499.782	3.73
499.983	3.85
500.183	3.89
500.383	3.92
500.584	3.87
500.784	3.93
500.984	3.9
501.184	3.88
501.385	3.94
501.585	3.9
501.785	3.81
501.985	3.84
502.185	3.75
502.386	3.74
502.586	3.66
502.786	3.73
502.986	3.7
503.186	3.75
503.386	3.73
503.586	3.66
503.786	3.74
503.987	3.77
504.187	3.78
504.387	3.85
504.587	3.87
504.787	3.82
504.987	3.71
505.187	3.81
505.387	3.76
505.587	3.87
505.786	3.91
505.986	3.88
506.186	3.88
506.386	3.93
506.586	3.91
506.786	3.85
506.986	3.87
507.186	3.97
507.386	3.93
507.585	3.93
507.785	3.92
507.985	3.88
508.185	3.87
508.384	3.9
508.584	3.78
508.784	3.76
508.984	3.8
509.183	3.87
509.383	3.8
509.583	3.78
509.782	3.76
509.982	3.73
510.182	3.73
510.381	3.65
510.581	3.7
510.781	3.76
510.98	3.77
511.18	3.8
511.379	3.77
511.579	3.84
511.778	3.87
511.978	3.85
512.177	3.8
512.377	3.75
512.576	3.86
512.776	3.82
512.975	3.84
513.175	3.84
513.374	3.87
513.573	3.88
513.773	3.83
513.972	3.82
514.172	3.88
514.371	3.99
514.57	4.14
514.77	4.05
514.969	4.07
515.168	4.07
515.367	4.07
515.567	4.05
515.766	4.04
515.965	4.05
516.164	4.06
516.364	4.14
516.563	4.16
516.762	4.13
516.961	4.2
517.16	4.17
517.359	4.14
517.559	4.17
517.758	4.19
517.957	4.25
518.156	4.25
518.355	4.25
518.554	4.25
518.753	4.25
518.952	4.27
519.151	4.19
519.35	4.2
519.549	4.28
519.748	4.19
519.947	4.23
520.146	4.21
520.345	4.22
520.544	4.22
520.743	4.17
520.942	4.09
521.141	4.13
521.339	4.22
521.538	4.21
521.737	4.12
521.936	4.25
522.135	4.15
522.333	4.14
522.532	4.09
522.731	4.12
522.93	4.13
523.129	4.15
523.327	4.05
523.526	4.07
523.725	4.15
523.923	4.18
524.122	4.15
524.321	4.18
524.519	4.21
524.718	4.25
524.917	4.23
525.115	4.22
525.314	4.21
525.512	4.26
525.711	4.22
525.909	4.2
526.108	4.2
526.306	4.19
526.505	4.18
526.703	4.19
526.902	4.22
527.1	4.21
527.299	4.23
527.497	4.24
527.696	4.27
527.894	4.31
528.092	4.32
528.291	4.33
528.489	4.34
528.688	4.37
528.886	4.37
529.084	4.37
529.283	4.42
529.481	4.48
529.679	4.52
529.877	4.52
530.076	4.49
530.274	4.5
530.472	4.54
530.67	4.62
530.869	4.61
531.067	4.64
531.265	4.64
531.463	4.67
531.661	4.66
531.859	4.73
532.057	4.73
532.255	4.79
532.454	4.8
532.652	4.81
532.85	4.81
533.048	4.89
533.246	4.95
533.444	4.97
533.642	4.94
533.84	4.91
534.038	4.88
534.236	4.88
534.434	4.85
534.632	4.82
534.83	4.81
535.027	4.8
535.225	4.72
535.423	4.73
535.621	4.76
535.819	4.79
536.017	4.84
536.215	4.85
536.412	4.93
536.61	5.01
536.808	5.07
537.006	5.12
537.203	5.21
537.401	5.3
537.599	5.27
537.797	5.36
537.994	5.48
538.192	5.53
538.39	5.51
538.587	5.48
538.785	5.45
538.983	5.47
539.18	5.44
539.378	5.39
539.575	5.36
539.773	5.35
539.97	5.3
540.168	5.27
540.366	5.31
540.563	5.33
540.761	5.33
540.958	5.32
541.155	5.31
541.353	5.37
541.55	5.36
541.748	5.41
541.945	5.4
542.143	5.42
542.34	5.47
542.537	5.41
542.735	5.4
542.932	5.44
543.129	5.47
543.327	5.55
543.524	5.56
543.721	5.61
543.919	5.67
544.116	5.85
544.313	5.94
544.51	5.92
544.708	6
544.905	6.03
545.102	6.05
545.299	6.12
545.496	6.19
545.693	6.18
545.891	6.23
546.088	6.2
546.285	6.15
546.482	6.12
546.679	6.14
546.876	6.12
547.073	6.16
547.27	6.28
547.467	6.27
547.664	6.25
547.861	6.35
548.058	6.46
548.255	6.59
548.452	6.75
548.649	6.82
548.846	6.88
549.043	6.95
549.24	7.04
549.437	7.02
549.633	7.01
549.83	7.03
550.027	7.08
550.224	7.06
550.421	6.93
550.618	6.83
550.814	6.89
551.011	6.94
551.208	7.02
551.405	6.99
551.601	7.08
551.798	7.19
551.995	7.23
552.191	7.27
552.388	7.23
552.585	7.21
552.781	7.26
552.978	7.3
553.175	7.36
553.371	7.41
553.568	7.46
553.764	7.52
553.961	7.54
554.157	7.55
554.354	7.54
554.55	7.77
554.747	8.02
554.943	8.17
555.14	8.26
555.336	8.3
555.533	8.37
555.729	8.54
555.926	8.55
556.122	8.7
556.318	8.76
556.515	8.95
556.711	8.8
556.907	8.83
557.104	8.86
557.3	8.82
557.496	8.93
557.693	8.91
557.889	8.95
558.085	8.93
558.281	9.03
558.478	9.1
558.674	8.96
558.87	9.14
559.066	9.17
559.262	9.08
559.459	9.16
559.655	9.16
559.851	9.27
560.047	9.32
560.243	9.5
560.439	9.45
560.635	9.52
560.831	9.65
561.027	9.64
561.223	9.7
561.419	9.8
561.615	9.9
561.811	9.99
562.007	10.12
562.203	10.1
562.399	9.95
562.595	9.94
562.791	10.17
562.987	10.29
563.183	10.42
563.379	10.46
563.575	10.57
563.771	10.57
563.966	10.65
564.162	10.6
564.358	10.68
564.554	10.79
564.75	10.89
564.945	10.67
565.141	10.59
565.337	10.59
565.533	10.62
565.728	10.61
565.924	10.62
566.12	10.65
566.315	10.83
566.511	10.77
566.707	10.94
566.902	10.92
567.098	11.16
567.293	11.31
567.489	11.32
567.684	11.39
567.88	11.46
568.076	11.57
568.271	11.55
568.467	11.37
568.662	11.51
568.858	11.5
569.053	11.63
569.248	11.64
569.444	11.62
569.639	11.72
569.835	11.86
570.03	11.89
570.225	11.92
570.421	12.04
570.616	12.16
570.812	12.16
571.007	12.17
571.202	12.25
571.397	12.34
571.593	12.44
571.788	12.41
571.983	12.42
572.178	12.53
572.374	12.56
572.569	12.62
572.764	12.74
572.959	12.8
573.154	12.83
573.35	12.78
573.545	12.92
573.74	12.91
573.935	13
574.13	13.01
574.325	12.97
574.52	13.13
574.715	13.13
574.91	13.04
575.105	13.24
575.3	13.33
575.495	13.5
575.69	13.41
575.885	13.6
576.08	13.65
576.275	13.74
576.47	13.88
576.665	13.85
576.86	13.99
577.055	14.08
577.25	14.01
577.444	14.1
577.639	14.17
577.834	14.2
578.029	14.12
578.224	14.18
578.418	14.27
578.613	14.4
578.808	14.44
579.003	14.44
579.197	14.55
579.392	14.65
579.587	14.76
579.781	14.78
579.976	14.96
580.171	14.98
580.365	15.09
580.56	15.17
580.755	15.13
580.949	15.13
581.144	15.07
581.338	15.1
581.533	15.11
581.727	15.09
581.922	15.12
582.116	15.14
582.311	15.23
582.505	15.27
582.7	15.18
582.894	15.38
583.089	15.47
583.283	15.69
583.478	15.95
583.672	16.06
583.866	16.02
584.061	15.87
584.255	15.73
584.449	15.87
584.644	16.04
584.838	16.17
585.032	16.11
585.226	16.04
585.421	16.15
585.615	16.04
585.809	15.96
586.003	16.05
586.198	16.39
586.392	16.55
586.586	16.49
586.78	16.46
586.974	16.49
587.168	16.47
587.363	16.64
587.557	16.44
587.751	16.39
587.945	16.47
588.139	16.54
588.333	16.48
588.527	16.56
588.721	16.65
588.915	16.69
589.109	16.74
589.303	16.77
589.497	16.59
589.691	16.86
589.885	16.9
590.079	16.84
590.273	16.8
590.466	16.75
590.66	16.71
590.854	16.85
591.048	16.67
591.242	16.63
591.436	16.58
591.629	16.77
591.823	16.59
592.017	16.66
592.211	16.78
592.404	16.87
592.598	16.84
592.792	16.9
592.986	16.93
593.179	17.1
593.373	17.1
593.567	17.2
593.76	17.19
593.954	17.17
594.147	17.35
594.341	17.35
594.535	17.31
594.728	17.3
594.922	17.37
595.115	17.24
595.309	17.23
595.502	17.26
595.696	17.29
595.889	17.34
596.083	17.39
596.276	17.3
596.47	17.38
596.663	17.41
596.856	17.44
597.05	17.45
597.243	17.39
597.437	17.43
597.63	17.42
597.823	17.54
598.017	17.55
598.21	17.74
598.403	17.78
598.596	17.82
598.79	17.77
598.983	17.89
599.176	17.75
599.369	17.88
599.563	17.91
599.756	17.99
599.949	17.97
600.142	17.99
600.335	18.03
600.528	18.09
600.722	18.12
600.915	18.28
601.108	18.36
601.301	18.55
601.494	18.62
601.687	18.57
601.88	18.66
602.073	18.56
602.266	18.59
602.459	18.44
602.652	18.43
602.845	18.31
603.038	18.33
603.231	18.25
603.424	18.18
603.617	18.15
603.809	18.16
604.002	18.02
604.195	18.05
604.388	18
604.581	18.06
604.774	18.04
604.966	17.94
605.159	17.83
605.352	17.76
605.545	17.78
605.737	17.77
605.93	17.84
606.123	18.09
606.316	18.17
606.508	18.26
606.701	18.34
606.894	18.33
607.086	18.58
607.279	18.69
607.471	18.8
607.664	18.81
607.857	18.68
608.049	18.78
608.242	18.71
608.434	18.55
608.627	18.53
608.819	18.45
609.012	18.57
609.204	18.52
609.397	18.55
609.589	18.66
609.782	18.6
609.974	18.78
610.166	18.74
610.359	18.78
610.551	18.87
610.743	18.85
610.936	18.84
611.128	18.61
611.32	18.6
611.513	18.61
611.705	18.41
611.897	18.45
612.09	18.51
612.282	18.52
612.474	18.54
612.666	18.62
612.858	19
613.051	19.22
613.243	19.35
613.435	19.37
613.627	19.36
613.819	19.43
614.011	20.11
614.203	20.18
614.395	20.11
614.588	20.15
614.78	20.08
614.972	19.9
615.164	19.85
615.356	19.83
615.548	19.81
615.74	19.92
615.932	20
616.124	19.24
616.315	19.41
616.507	19.58
616.699	19.39
616.891	19.54
617.083	19.5
617.275	19.52
617.467	19.61
617.659	19.75
617.85	19.84
618.042	19.87
618.234	20.09
618.426	19.79
618.618	19.82
618.809	19.84
619.001	19.62
619.193	19.68
619.384	19.62
619.576	19.69
619.768	19.58
619.959	19.44
620.151	19.45
620.343	19.43
620.534	19.3
620.726	19.24
620.917	19.44
621.109	19.57
621.301	19.72
621.492	19.79
621.684	19.6
621.875	19.72
622.067	19.79
622.258	19.72
622.45	19.73
622.641	19.9
622.832	19.8
623.024	19.7
623.215	19.96
623.407	19.78
623.598	19.73
623.789	19.79
623.981	19.63
624.172	19.53
624.363	19.48
624.555	19.54
624.746	19.38
624.937	19.33
625.129	19.51
625.32	19.23
625.511	19.29
625.702	19.26
625.893	19.4
626.085	19.6
626.276	19.67
626.467	19.72
626.658	19.51
626.849	19.68
627.04	19.86
627.231	19.87
627.422	20.01
627.614	20.03
627.805	20.08
627.996	20.15
628.187	19.98
628.378	19.96
628.569	20.12
628.76	20.31
628.951	20.24
629.142	20.11
629.332	20.01
629.523	19.91
629.714	19.78
629.905	19.85
630.096	19.74
630.287	19.89
630.478	19.96
630.669	19.91
630.859	19.98
631.05	20.09
631.241	20.29
631.432	20.29
631.623	20.28
631.813	20.46
632.004	20.3
632.195	20.21
632.385	20.25
632.576	20.09
632.767	20.09
632.957	20.22
633.148	20.34
633.339	20.14
633.529	20.15
633.72	20.21
633.91	20.06
634.101	20.18
634.292	20.23
634.482	20.27
634.673	20.5
634.863	20.47
635.054	20.41
635.244	20.44
635.435	20.56
635.625	20.55
635.815	20.52
636.006	20.78
636.196	20.92
636.387	21
636.577	20.93
636.767	20.87
636.958	20.91
637.148	20.87
637.338	20.73
637.529	20.8
637.719	20.86
637.909	21.05
638.099	20.92
638.29	20.7
638.48	20.85
638.67	21.04
638.86	21.13
639.05	21.16
639.241	21.35
639.431	21.37
639.621	21.15
639.811	21.16
640.001	20.85
640.191	20.76
640.381	20.93
640.571	20.6
640.761	20.24
640.951	20.09
641.141	20.12
641.331	19.75
641.521	19.95
641.711	20.13
641.901	20.07
642.091	20.42
642.281	20.32
642.471	20.17
642.661	20.37
642.851	20.56
643.041	20.3
643.231	20.32
643.42	20.47
643.61	20.23
643.8	20.11
643.99	20
644.18	19.88
644.369	20.31
644.559	20.69
644.749	20.83
644.939	20.53
645.128	20.76
645.318	20.67
645.508	20.73
645.697	20.97
645.887	21.08
646.076	21.14
646.266	21.14
646.456	21.02
646.645	20.98
646.835	20.85
647.024	20.99
647.214	21.25
647.403	21.31
647.593	21.2
647.782	21.19
647.972	21.31
648.161	21.68
648.351	21.65
648.54	21.64
648.73	21.33
648.919	21.4
649.108	21.49
649.298	21.45
649.487	21.47
649.677	21.56
649.866	21.39
650.055	21.35
650.244	21.32
650.434	21.34
650.623	21.23
650.812	21.34
651.002	21.21
651.191	21.35
651.38	21.21
651.569	21.33
651.758	21.24
651.947	21.31
652.137	21.3
652.326	21.18
652.515	21.25
652.704	21.32
652.893	21.34
653.082	21.61
653.271	21.77
653.46	21.91
653.649	21.93
653.838	21.95
654.027	21.96
654.216	21.86
654.405	21.95
654.594	21.87
654.783	21.85
654.972	21.69
655.161	21.43
655.35	21.02
655.539	21
655.728	20.71
655.916	20.77
656.105	20.71
656.294	20.84
656.483	20.74
656.672	20.94
656.86	20.83
657.049	20.86
657.238	20.98
657.427	21.1
657.615	20.95
657.804	21.16
657.993	21.16
658.181	21.13
658.37	21.14
658.559	21.01
658.747	21
658.936	21.17
659.125	21.06
659.313	21.1
659.502	21.08
659.69	21.26
659.879	21.31
660.067	21.41
660.256	21.48
660.444	21.47
660.633	21.74
660.821	21.64
661.01	21.43
661.198	21.62
661.387	21.56
661.575	21.8
661.763	21.96
661.952	21.83
662.14	21.89
662.328	21.93
662.517	21.99
662.705	21.79
662.893	21.92
663.082	22.11
663.27	22.5
663.458	22.41
663.646	22.23
663.834	22.09
664.023	22.2
664.211	22.38
664.399	22.6
664.587	22.26
664.775	22.31
664.963	22.13
665.152	22.24
665.34	22.08
665.528	22.03
665.716	22.19
665.904	22.02
666.092	22.08
666.28	21.91
666.468	21.8
666.656	22.01
666.844	22.1
667.032	22.41
667.22	22.39
667.408	22.34
667.596	22.67
667.784	22.35
667.971	22.72
668.159	22.73
668.347	22.51
668.535	22.47
668.723	22.61
668.911	22.7
669.098	22.69
669.286	22.59
669.474	22.37
669.662	22.19
669.849	22.52
670.037	22.18
670.225	21.86
670.413	21.89
670.6	21.85
670.788	21.9
670.976	21.64
671.163	21.63
671.351	21.97
671.538	22.18
671.726	22.21
671.913	21.97
672.101	21.89
672.289	21.55
672.476	21.43
672.664	21.83
672.851	21.5
673.039	21.54
673.226	21.37
673.413	20.92
673.601	20.82
673.788	21.01
673.976	21.06
674.163	21.26
674.35	21.75
674.538	22.04
674.725	21.83
674.912	22.07
675.1	22.08
675.287	22.2
675.474	22.48
675.662	22.82
675.849	22.64
676.036	22.67
676.223	22.94
676.411	22.95
676.598	22.92
676.785	22.72
676.972	22.58
677.159	22.88
677.346	22.8
677.533	22.83
677.721	22.75
677.908	22.96
678.095	22.93
678.282	22.8
678.469	22.83
678.656	22.79
678.843	22.79
679.03	22.52
679.217	22.8
679.404	22.87
679.591	22.71
679.778	22.59
679.964	22.36
680.151	22.43
680.338	22.22
680.525	22.21
680.712	22.25
680.899	22.38
681.086	23.05
681.272	22.68
681.459	22.77
681.646	22.88
681.833	22.96
682.02	23.12
682.206	23.21
682.393	23.2
682.58	23.48
682.766	23.54
682.953	23.55
683.14	23.24
683.326	23.53
683.513	23.14
683.7	23.06
683.886	23.01
684.073	23.22
684.259	23.03
684.446	23.13
684.632	23.24
684.819	23.15
685.005	22.94
685.192	23
685.378	22.93
685.565	23.29
685.751	23.11
685.938	23.41
686.124	23.28
686.31	23.27
686.497	23.37
686.683	23
686.87	23.28
687.056	23.52
687.242	23.29
687.429	23.01
687.615	22.95
687.801	23.33
687.987	22.93
688.174	23.1
688.36	23.27
688.546	23.6
688.732	23.61
688.918	23.35
689.105	23.31
689.291	23.6
689.477	23.74
689.663	23.8
689.849	23.51
690.035	23.6
690.221	23.19
690.407	23.5
690.593	23.4
690.779	23.41
690.965	23.67
691.151	23.82
691.337	23.84
691.523	23.66
691.709	23.61
691.895	23.89
692.081	24.04
692.267	24.35
692.453	24.09
692.639	23.76
692.825	23.78
693.011	23.27
693.196	23.14
693.382	22.91
693.568	22.74
693.754	22.77
693.94	22.69
694.125	22.75
694.311	22.57
694.497	22.79
694.682	22.97
694.868	23.15
695.054	23.47
695.239	23.83
695.425	23.84
695.611	24.08
695.796	23.93
695.982	23.79
696.168	23.38
696.353	23.23
696.539	23.07
696.724	23.18
696.91	23
697.095	22.95
697.281	22.87
697.466	22.78
697.652	22.82
697.837	22.89
698.023	22.87
698.208	23.01
698.393	23.18
698.579	23.17
698.764	22.83
698.949	22.78
699.135	22.72
699.32	22.43
699.505	22.34
699.691	22.25
699.876	22.21
700.061	22.46
700.246	22.42
700.432	22.27
700.617	22.22
700.802	22.36
700.987	22.53
701.172	23.37
701.358	23.42
701.543	23.79
701.728	24.01
701.913	23.7
702.098	23.54
702.283	23.63
702.468	23.59
702.653	23.79
702.838	24.33
703.023	24.4
703.208	23.64
703.393	24.05
703.578	24.24
703.763	24.37
703.948	24.53
704.133	24.64
704.318	24.88
704.503	24.69
704.688	24.52
704.873	24.13
705.057	24.1
705.242	24.34
705.427	24
705.612	24
705.797	23.54
705.981	23.89
706.166	23.78
706.351	23.58
706.536	24.07
706.72	24.09
706.905	24.06
707.09	23.93
707.274	23.58
707.459	23.46
707.644	23.75
707.828	23.87
708.013	23.79
708.197	23.82
708.382	23.69
708.567	23.79
708.751	23.65
708.936	23.7
709.12	24.12
709.305	24.2
709.489	24.62
709.673	24.18
709.858	24.31
710.042	24.68
710.227	24.39
710.411	24.49
710.596	24.48
710.78	24.53
710.964	24.79
711.149	25.07
711.333	25.16
711.517	24.86
711.702	24.95
711.886	24.72
712.07	24.73
712.254	25.27
712.438	25.53
712.623	25.38
712.807	25.4
712.991	25.53
713.175	24.88
713.359	24.85
713.544	25.1
713.728	25.06
713.912	25.27
714.096	25.04
714.28	24.66
714.464	24.54
714.648	24.33
714.832	24.45
715.016	24.34
715.2	24.38
715.384	24.51
715.568	24.46
715.752	24.76
715.936	24.82
716.12	24.78
716.304	24.98
716.488	24.64
716.671	25.08
716.855	25.04
717.039	24.83
717.223	24.71
717.407	24.94
717.59	25.16
717.774	24.8
717.958	24.63
718.142	24.48
718.325	24.11
718.509	24.38
718.693	24.38
718.877	24.27
719.06	24.15
719.244	24.55
719.428	24.07
719.611	23.92
719.795	23.73
719.978	24.21
720.162	24.86
720.345	25.62
720.529	25.79
720.713	25.68
720.896	25.79
721.08	26
721.263	26.13
721.446	26.6
721.63	26.6
721.813	26.93
721.997	26.6
722.18	26.09
722.364	25.71
722.547	26.04
722.73	26.13
722.914	26.6
723.097	26.58
723.28	26.75
723.464	26.28
723.647	25.65
723.83	25.48
724.013	25.19
724.197	25.18
724.38	25.48
724.563	25.56
724.746	25.51
724.929	25.25
725.112	25.52
725.296	24.91
725.479	24.56
725.662	25.03
725.845	25.33
726.028	25.26
726.211	25.15
726.394	24.82
726.577	24.4
726.76	24.64
726.943	24.61
727.126	23.9
727.309	23.95
727.492	24.28
727.675	24.57
727.858	24.08
728.041	24.39
728.224	24.58
728.407	24.7
728.589	25.06
728.772	24.84
728.955	25.07
729.138	25.62
729.321	25.59
729.503	26.12
729.686	25.7
729.869	26.12
730.052	26.06
730.234	26.29
730.417	26.37
730.6	26.25
730.782	26.12
730.965	25.92
731.148	26.02
731.33	26.03
731.513	25.79
731.695	26.02
731.878	25.75
732.061	25.29
732.243	25.04
732.426	24.58
732.608	24.66
732.791	24.86
732.973	24.59
733.156	24.49
733.338	24.93
733.52	24.98
733.703	24.97
733.885	25.5
734.068	26.15
734.25	26.13
734.432	26.53
734.615	26.13
734.797	25.92
734.979	26.11
735.162	26.06
735.344	25.66
735.526	25.63
735.708	25.73
735.891	25.73
736.073	25.72
736.255	25.88
736.437	25.66
736.619	25.57
736.802	25.99
736.984	26.13
737.166	26.8
737.348	26.61
737.53	26.65
737.712	26.33
737.894	25.93
738.076	26.24
738.258	26.34
738.44	26.32
738.622	27.05
738.804	26.82
738.986	26.37
739.168	25.54
739.35	25.71
739.532	25.61
739.714	25.98
739.896	25.8
740.078	25.73
740.259	25.6
740.441	26.25
740.623	25.85
740.805	25.63
740.987	26.29
741.168	26.18
741.35	26.62
741.532	26.67
741.714	26.69
741.895	27.04
742.077	26.74
742.259	26.83
742.44	26.41
742.622	26.57
742.804	26.67
742.985	26.63
743.167	26.6
743.348	26.35
743.53	26
743.711	25.99
743.893	25.86
744.075	25.91
744.256	25.88
744.438	26.39
744.619	26.03
744.8	25.79
744.982	25.37
745.163	25.77
745.345	25.92
745.526	26.81
745.707	26.39
745.889	26.91
746.07	26.79
746.252	27.32
746.433	26.86
746.614	27.36
746.795	27.52
746.977	27.36
747.158	27.1
747.339	26.93
747.52	26.55
747.702	26.36
747.883	26
748.064	26.38
748.245	25.64
748.426	25.49
748.607	24.98
748.788	24.92
748.97	25.36
749.151	25.74
749.332	26.49
749.513	26.01
749.694	26.49
749.875	27.19
750.056	26.95
750.237	26.74
750.418	27.18
750.599	26.94
750.78	26.66
750.96	26.51
751.141	26.24
751.322	25.43
751.503	26.35
751.684	25.83
751.865	24.41
752.046	24.34
752.226	24.83
752.407	24.5
752.588	24.77
752.769	25.36
752.949	25.28
753.13	25.83
753.311	26.21
753.492	25.44
753.672	26
753.853	27.36
754.034	27.56
754.214	28.33
754.395	28.37
754.575	28.98
754.756	28.88
754.937	29
755.117	27.98
755.298	27.56
755.478	27.52
755.659	27.74
755.839	26.65
756.02	26.46
756.2	25.2
756.381	25.3
756.561	24.83
756.741	24.75
756.922	25.14
757.102	26.08
757.283	26.18
757.463	26.07
757.643	26.04
757.823	26.89
758.004	27.26
758.184	27.7
758.364	28.04
758.545	28.65
758.725	28.47
758.905	28.09
759.085	28.17
759.265	27.81
759.446	28.07
759.626	28.24
759.806	27.49
759.986	27.19
760.166	27.07
760.346	26.31
760.526	26.22
760.706	26.27
760.886	25.69
761.066	26.07
761.246	26.73
761.426	26.49
761.606	25.95
761.786	26.2
761.966	25.55
762.146	25.44
762.326	25.74
762.506	25.34
762.686	25.21
762.866	25.51
763.046	24.65
763.225	24.49
763.405	24.33
763.585	24.52
763.765	24.31
763.945	24.55
764.124	24.81
764.304	24.9
764.484	25.21
764.664	25.35
764.843	25.45
765.023	25.92
765.203	25.45
765.382	25.37
765.562	25.46
765.741	25.76
765.921	26.41
766.101	26.41
766.28	26.37
766.46	25.81
766.639	25.84
766.819	26.02
766.998	26.28
767.178	27
767.357	27.35
767.537	27.45
767.716	27.32
767.896	26.28
768.075	26.02
768.254	24.88
768.434	25.61
768.613	26.22
768.792	26.3
768.972	26.43
769.151	26.13
769.33	26.88
769.51	27.55
769.689	27.58
769.868	28.58
770.047	29.83
770.226	30.92
770.406	30.62
770.585	30.52
770.764	30.32
770.943	29.56
771.122	29.44
771.301	29.31
771.48	29.1
771.66	29.13
771.839	28.79
772.018	27.18
772.197	27.59
772.376	26.91
772.555	27.29
772.734	27.89
772.913	27.4
773.092	27.99
773.271	27.2
773.449	26.84
773.628	26.8
773.807	27.13
773.986	27.82
774.165	27.63
774.344	28.96
774.523	28.31
774.701	28.38
774.88	30.05
775.059	29.66
775.238	30.38
775.417	30.43
775.595	31.22
775.774	30.86
775.953	30.3
776.131	30.68
776.31	30.09
776.489	29.61
776.667	29.25
776.846	27.94
777.025	27.75
777.203	27.36
777.382	27.1
777.56	26.35
777.739	27.14
777.917	27.37
778.096	26.81
778.274	26.58
778.453	27.37
778.631	26.85
778.81	27.17
778.988	28.05
779.166	28.36
779.345	27.83
779.523	27.23
779.702	26.85
779.88	27.06
780.058	26.13
780.237	26.29
780.415	25.84
780.593	26.7
780.771	26.8
780.95	27.6
781.128	27.88
781.306	29.23
781.484	30.24
781.662	30.19
781.841	30.97
782.019	32.26
782.197	31.93
782.375	32.26
782.553	31.84
782.731	31.48
782.909	29.79
783.087	29.74
783.265	28.85
783.443	27.63
783.621	27.59
783.799	26.21
783.977	27.51
784.155	27.26
784.333	27.54
784.511	27.17
784.689	26.92
784.867	27.09
785.045	26.32
785.223	26.53
785.4	27.42
785.578	27.65
785.756	28.63
785.934	26.68
786.112	27.49
786.289	27.06
786.467	27.68
786.645	28.82
786.823	28.94
787	29.46
787.178	29.53
787.356	29.42
787.533	28.89
787.711	28.16
787.889	28.99
788.066	28.72
788.244	28.31
788.421	27.95
788.599	28.13
788.776	28.84
788.954	29.28
789.131	28.28
789.309	28.78
789.486	30.05
789.664	30.79
789.841	31.25
790.019	31.87
790.196	32.09
790.373	32.06
790.551	33.19
790.728	31.67
790.906	32.17
791.083	31.98
791.26	32
791.437	31.59
791.615	31.6
791.792	30.35
791.969	30.21
792.146	30.49
792.324	30.79
792.501	29.43
792.678	30.46
792.855	29.43
793.032	30.96
793.209	31.5
793.387	31.17
793.564	30.61
793.741	30.79
793.918	30.91
794.095	30.69
794.272	31.25
794.449	31.25
794.626	31.26
794.803	30.34
794.98	30.21
795.157	29.04
795.334	29.35
795.511	29.83
795.688	30.21
795.864	29.54
796.041	29.52
796.218	29.32
796.395	28.81
796.572	28.59
796.749	29.74
796.925	29.15
797.102	30.96
797.279	30.1
797.456	30.03
797.632	29.78
797.809	30.27
797.986	31.57
798.162	31.12
798.339	30.79
798.516	31.19
798.692	31.84
798.869	31.75
799.046	30.06
799.222	30.46
799.399	30.23
799.575	30.1
799.752	29.58
799.928	28.21
800.105	27.76
800.281	28.92
800.458	27.93
800.634	27.08
800.811	27.98
800.987	28.71
801.163	30.22
801.34	30.32
801.516	30.94
801.692	31.53
801.869	31.93
802.045	33.44
802.221	33.56
802.398	34.45
802.574	34.57
802.75	34.61
802.926	34.93
803.103	33.86
803.279	33.7
803.455	34.01
803.631	34.5
803.807	34.54
803.983	34.28
804.16	34.57
804.336	33.74
804.512	33.8
804.688	33.71
804.864	33.77
805.04	33.65
805.216	33.91
805.392	33.18
805.568	33.58
805.744	33.72
805.92	33.81
806.096	33.1
806.272	34.9
806.448	35.44
806.623	36.4
806.799	35.86
806.975	34.98
807.151	34.99
807.327	34.46
807.503	33.29
807.678	33.11
807.854	32.93
808.03	32.66
808.206	31.72
808.381	31.18
808.557	30.26
808.733	30.11
808.908	31.06
809.084	31.39
809.26	31.33
809.435	32.04
809.611	32.21
809.787	30.95
809.962	30.29
810.138	30.43
810.313	30.16
810.489	31.11
810.664	30.96
810.84	30.08
811.015	31.18
811.191	32.96
811.366	32.84
811.542	32.73
811.717	33.4
811.892	34.78
812.068	35.42
812.243	34.98
812.419	35.06
812.594	35.15
812.769	36.07
812.944	35.41
813.12	35.2
813.295	35.27
813.47	35.22
813.645	36.14
813.821	34.66
813.996	33.61
814.171	33.92
814.346	32.16
814.521	34.32
814.697	33.83
814.872	32.94
815.047	32.93
815.222	32.48
815.397	32.96
815.572	32.76
815.747	33.44
815.922	33.99
816.097	35.76
816.272	36.19
816.447	34.44
816.622	34.53
816.797	35.53
816.972	35.23
817.147	35.75
817.322	36.35
817.496	35.5
817.671	36.89
817.846	37.17
818.021	35.51
818.196	35.19
818.371	35.28
818.545	36.08
818.72	36.06
818.895	35.57
819.069	34.7
819.244	33.76
819.419	33.63
819.594	32.29
819.768	31.32
819.943	31.02
820.117	30.72
820.292	30.15
820.467	29.64
820.641	28.82
820.816	28.59
820.99	27.99
821.165	27.54
821.339	27.29
821.514	27.18
821.688	27.17
821.863	26.6
822.037	26.19
822.212	26.17
822.386	25.61
822.56	25.35
822.735	25.36
822.909	25.62
823.084	25.72
823.258	25.5
823.432	25.24
823.606	24.84
823.781	25.02
823.955	25.46
824.129	25.26
824.303	25.77
824.478	25.95
824.652	25.89
824.826	25.86
825	26
825.174	26.16
825.348	26.45
825.523	27.01
825.697	27.32
825.871	27.29
826.045	27.73
826.219	27.72
826.393	27.66
826.567	27.5
826.741	27.27
826.915	26.73
827.089	27.1
827.263	27.06
827.437	27.11
827.611	27.46
827.784	27.32
827.958	27.01
828.132	27.01
828.306	27.76
828.48	27.94
828.654	28.45
828.827	28.86
829.001	29.09
829.175	30.18
829.349	30.47
829.522	30.58
829.696	30.52
829.87	30.55
830.044	31.52
830.217	30.96
830.391	31.93
830.565	30.96
830.738	32.68
830.912	32.61
831.085	32.54
831.259	32.92
831.432	32.84
831.606	33.04
831.779	32.4
831.953	31.52
832.126	30.83
832.3	28.3
832.473	29.1
832.647	27.13
832.82	26.73
832.994	26.7
833.167	26.72
833.34	26.78
833.514	26.83
833.687	26.75
833.86	26.06
834.034	26.76
834.207	27.71
834.38	27.2
834.553	28.22
834.727	28.72
834.9	28.63
835.073	28.88
835.246	28.56
835.419	28.79
835.593	29.94
835.766	31.49
835.939	32.09
836.112	33.08
836.285	34.41
836.458	34.27
836.631	34.36
836.804	35.52
836.977	34.12
837.15	35.75
837.323	36.14
837.496	36.56
837.669	35
837.842	33.87
838.015	33.71
838.188	33.26
838.361	33.7
838.533	33.04
838.706	30.35
838.879	30.06
839.052	29.85
839.225	30.19
839.398	29.44
839.57	31.55
839.743	32.62
839.916	33.61
840.088	33.83
840.261	32.88
840.434	34.76
840.607	36.43
840.779	38.41
840.952	38.97
841.124	37.39
841.297	38.11
841.47	37.18
841.642	35.4
841.815	36.29
841.987	36.28
842.16	39.12
842.332	37.48
842.505	37.63
842.677	38.23
842.85	38.71
843.022	41.68
843.194	42.17
843.367	45.23
843.539	47.18
843.712	45.46
843.884	47.36
844.056	48.02
844.229	50.02
844.401	49.3
844.573	47.18
844.745	46
844.918	45.29
845.09	45.85
845.262	46.54
845.434	47.49
845.606	48.22
845.779	49.8
845.951	50.41
846.123	50.54
846.295	53.05
846.467	54.91
846.639	55.96
846.811	57.88
846.983	58.78
847.155	54.35
847.327	55.28
847.499	56.61
847.671	51.96
847.843	46.08
848.015	44.91
848.187	41.91
848.359	38.6
848.531	39.41
848.703	34.82
848.875	33.82
849.047	33.46
849.218	33.53
849.39	32.2
849.562	33.19
849.734	37.35
849.905	39.68
850.077	42.44
850.249	44.81
850.421	43.31
850.592	44.22
850.764	46.5
850.936	46.23
851.107	48.29
851.279	49.7
851.451	52.26
851.622	56.64
851.794	55.33
851.965	56.17
852.137	56.54
852.308	56.51
852.48	60.56
852.651	59.75
852.823	60.88
852.994	55.8
853.166	54.19
853.337	55.22
853.509	53.69
853.68	56.24
853.851	55.95
854.023	56.39
854.194	56.21
854.365	54.97
854.537	55.22
854.708	58.58
854.879	64.04
855.05	66.07
855.222	64.75
855.393	61.04
855.564	58.77
855.735	55.77
855.906	55.48
856.078	57.67
856.249	57.6
856.42	57.36
856.591	53.74
856.762	52.52
856.933	47.9
857.104	43.66
857.275	49.08
857.446	51.29
857.617	55.9
857.788	56.81
857.959	56.46
858.13	56.69
858.301	57.21
858.472	55.34
858.643	53.08
858.814	52.14
858.985	54.77
859.155	49.26
859.326	50.11
859.497	46.18
859.668	43.44
859.839	41.86
860.009	39.57
860.18	36.41
860.351	35.65
860.522	36.77
860.692	42.93
860.863	44.71
861.034	47.12
861.204	46.66
861.375	47.01
861.546	52.46
861.716	51.26
861.887	55.07
862.057	56.49
862.228	60.77
862.398	59.87
862.569	56.14
862.739	58.27
862.91	57.75
863.08	54.44
863.251	55.08
863.421	53.46
863.592	54.94
863.762	56.02
863.932	55.49
864.103	55.04
864.273	57.3
864.443	62.29
864.614	58.63
864.784	57.44
864.954	57.67
865.125	61.24
865.295	62.09
865.465	61.39
865.635	58.75
865.805	62.61
865.976	63.93
866.146	64.12
866.316	61.29
866.486	62.94
866.656	67.49
866.826	66.25
866.996	66.85
867.166	67.38
867.336	66.5
867.506	65.82
867.676	58.02
867.846	55.86
868.016	52.33
868.186	49.12
868.356	46.91
868.526	39.88
868.696	36.63
868.866	32.06
869.036	26.16
869.206	28.13
869.376	25.15
869.545	25.65
869.715	23.11
869.885	23.08
870.055	23.36
870.224	29.58
870.394	34.16
870.564	39.22
870.734	35.89
870.903	36.07
871.073	38.63
871.243	42.03
871.412	49.85
871.582	56.53
871.751	61.49
871.921	63
872.091	59.39
872.26	60.82
872.43	58.9
872.599	61.84
872.769	65.79
872.938	66.24
873.108	66.57
873.277	62.49
873.446	55.92
873.616	52.3
873.785	54.5
873.955	51.93
874.124	55.15
874.293	58.91
874.463	59.03
874.632	57.62
874.801	54.29
874.971	54.38
875.14	53.81
875.309	53.69
875.478	53.43
875.647	50.41
875.817	51.8
875.986	48.82
876.155	46.98
876.324	44.62
876.493	43.37
876.662	44.37
876.831	42.51
877	44.67
877.17	46.18
877.339	46.51
877.508	44.7
877.677	45.16
877.846	44.83
878.015	45.48
878.184	46.48
878.352	46.08
878.521	45.47
878.69	45.92
878.859	43.66
879.028	40.58
879.197	38.49
879.366	38.33
879.534	38.78
879.703	37.93
879.872	38.26
880.041	37.44
880.21	36.16
880.378	33.83
880.547	32.09
880.716	32.74
880.884	33.43
881.053	33.33
881.222	33.24
881.39	32.41
881.559	31.96
881.727	30.75
881.896	30.9
882.065	30.05
882.233	30.65
882.402	30.26
882.57	30
882.739	29.59
882.907	30.18
883.076	30.45
883.244	30.19
883.412	29.8
883.581	30.2
883.749	30.47
883.918	31.3
884.086	32.04
884.254	34.74
884.423	34.57
884.591	34.88
884.759	35.27
884.927	35.07
885.096	35.28
885.264	37.7
885.432	37.94
885.6	37.02
885.769	36.28
885.937	36.99
886.105	34.71
886.273	36.16
886.441	36.78
886.609	34.76
886.777	35.81
886.945	37.38
887.113	36.51
887.281	38.96
887.449	40.46
887.617	42.67
887.785	41.86
887.953	44.46
888.121	43.12
888.289	46.25
888.457	47.94
888.625	47.03
888.793	46.24
888.961	47.66
889.129	46.29
889.296	46.97
889.464	48.97
889.632	49.67
889.8	47.59
889.967	48.46
890.135	45.52
