Data from 2938463_Reflection_1.txt Node
Date: Wed Jun 17 13:56:05 EDT 2015
User: robert
Spectrometer: USB4E03002
Autoset integration time: false
Trigger mode: 4
Integration Time (sec): 1.000000E-1
Scans to average: 10
Electric dark correction enabled: true
Nonlinearity correction enabled: false
Boxcar width: 5
Stray light correction enabled: false
XAxis mode: Wavelengths
Stop averaging: false
Number of Pixels in Spectrum: 3648
>>>>>Begin Spectral Data<<<<<
177.575	-16.37
177.794	-69.54
178.014	28.74
178.233	110.2
178.452	93.61
178.672	66.73
178.891	44.62
179.11	164.9
179.33	-215.62
179.549	-2522.22
179.768	-351.04
179.987	-121.05
180.207	-1035.68
180.426	-207.78
180.645	112.46
180.864	128.2
181.084	111.03
181.303	78.48
181.522	76.03
181.741	8.64
181.96	-17.03
182.179	-34.1
182.398	-24.89
182.618	-78.38
182.837	-10.68
183.056	-86.13
183.275	-128.08
183.494	-38.37
183.713	18.52
183.932	-49.85
184.151	121.74
184.37	144.07
184.589	81.66
184.808	38.75
185.027	191.59
185.246	93.22
185.465	121.12
185.684	174.35
185.903	176.27
186.122	128.72
186.341	85.73
186.56	73.27
186.779	67.58
186.998	119.47
187.216	118.85
187.435	104.2
187.654	99.9
187.873	69.05
188.092	54.82
188.311	53.97
188.53	42.61
188.748	56.44
188.967	58.72
189.186	62.2
189.405	68.65
189.623	-10.52
189.842	-90.09
190.061	1444.8
190.28	127.6
190.498	190.81
190.717	914.33
190.936	479.51
191.154	312.03
191.373	245.77
191.592	833.08
191.81	-102.29
192.029	205.27
192.248	-108.36
192.466	-48.48
192.685	23.92
192.904	69.35
193.122	68.72
193.341	119.27
193.559	140.15
193.778	124.99
193.996	157.33
194.215	161.54
194.433	132.69
194.652	122.55
194.87	127.02
195.089	153.13
195.307	163.48
195.526	323.78
195.744	198.48
195.963	139.07
196.181	130.02
196.399	90.23
196.618	77.87
196.836	77.53
197.055	90.25
197.273	109.24
197.491	105.03
197.71	86.61
197.928	80.81
198.146	63.64
198.365	81.54
198.583	51.95
198.801	24.34
199.019	35.88
199.238	33.53
199.456	4.69
199.674	-14.43
199.892	-39.07
200.111	-108.94
200.329	-83.11
200.547	-35.63
200.765	-45.8
200.983	-25.03
201.202	-25.45
201.42	-41.43
201.638	-32.23
201.856	8.3
202.074	36.41
202.292	19.76
202.51	35.76
202.728	21.94
202.946	27.81
203.165	30.21
203.383	53.5
203.601	98.05
203.819	103.28
204.037	100.61
204.255	82.98
204.473	94.51
204.691	131.72
204.909	149.76
205.127	114.94
205.345	104.64
205.562	113.78
205.78	120.72
205.998	96.38
206.216	99.4
206.434	85.3
206.652	96.08
206.87	77.58
207.088	84.55
207.306	70.45
207.523	79.89
207.741	68.34
207.959	62.24
208.177	49.78
208.395	44.06
208.612	39.06
208.83	37.6
209.048	12.66
209.266	15.48
209.483	11.53
209.701	28.92
209.919	34.06
210.136	32.79
210.354	24.54
210.572	29.83
210.79	29.04
211.007	28.22
211.225	36.99
211.442	56.96
211.66	51.97
211.878	50.32
212.095	57.39
212.313	47.73
212.53	53.41
212.748	69.4
212.966	59.24
213.183	69.24
213.401	65.57
213.618	51.53
213.836	49.94
214.053	55.36
214.271	40.14
214.488	15.99
214.705	28.86
214.923	19.91
215.14	27.45
215.358	39.09
215.575	28.72
215.793	36.21
216.01	18.32
216.227	7.19
216.445	13.76
216.662	25.95
216.879	33.69
217.097	17.68
217.314	20.7
217.531	-3.41
217.749	-15.24
217.966	-16.87
218.183	-45.34
218.4	-31.2
218.618	-33.03
218.835	-72.22
219.052	-40.67
219.269	-62.76
219.487	-38.27
219.704	-14.67
219.921	3.17
220.138	-13.17
220.355	-16.64
220.572	-5.34
220.79	2.27
221.007	13.71
221.224	16.46
221.441	11.45
221.658	12.67
221.875	19.72
222.092	17.38
222.309	16.15
222.526	25.85
222.743	26.47
222.96	25.46
223.177	25.53
223.394	18.81
223.611	20.86
223.828	26.21
224.045	25.36
224.262	21.22
224.479	14.06
224.696	20.33
224.913	21.05
225.13	21.02
225.347	22.08
225.564	20.45
225.781	20.53
225.997	19.54
226.214	17.27
226.431	15.75
226.648	14.85
226.865	16.12
227.082	15.65
227.298	13.9
227.515	13.78
227.732	13.2
227.949	13.74
228.165	13.99
228.382	13.54
228.599	13.06
228.816	12.81
229.032	13.61
229.249	13.23
229.466	13.28
229.682	13.75
229.899	12.98
230.116	13.37
230.332	11.54
230.549	12.34
230.765	12.55
230.982	12.53
231.199	16.57
231.415	16.14
231.632	18.62
231.848	19.35
232.065	19.27
232.281	18.32
232.498	17.44
232.714	18.54
232.931	16.92
233.147	18.5
233.364	17.25
233.58	16.2
233.797	16.15
234.013	12.96
234.23	9.86
234.446	10.14
234.662	12.76
234.879	13.24
235.095	11.71
235.312	13.64
235.528	13.72
235.744	13.93
235.961	13
236.177	11.87
236.393	13.97
236.61	15.15
236.826	15.01
237.042	13.09
237.258	15.3
237.475	17.47
237.691	17.02
237.907	14.82
238.123	15.07
238.339	15.12
238.556	15.97
238.772	15.95
238.988	15.79
239.204	14.74
239.42	15.14
239.636	14.36
239.853	13.53
240.069	13.33
240.285	12.89
240.501	12.77
240.717	12.38
240.933	12.33
241.149	11.68
241.365	12.3
241.581	12.93
241.797	13.09
242.013	12.31
242.229	12.12
242.445	11.53
242.661	12.42
242.877	12.97
243.093	12.8
243.309	11.77
243.525	12.01
243.741	10
243.957	9.88
244.173	9.03
244.388	9.42
244.604	9.37
244.82	9.42
245.036	9.12
245.252	8.81
245.468	8.9
245.683	9.37
245.899	9.75
246.115	10.34
246.331	10.23
246.547	10.14
246.762	10.04
246.978	10.29
247.194	10.64
247.409	10.79
247.625	10.72
247.841	11.37
248.057	10.89
248.272	10.76
248.488	10.63
248.703	10.28
248.919	10.64
249.135	9.6
249.35	9.78
249.566	9.72
249.782	8.91
249.997	9.39
250.213	8.33
250.428	8.32
250.644	7.9
250.859	7.93
251.075	8.28
251.29	8.57
251.506	8.96
251.721	8.37
251.937	8.49
252.152	9.32
252.368	9.26
252.583	9.57
252.798	10.43
253.014	11
253.229	11.11
253.445	11.63
253.66	12.14
253.875	14
254.091	14.85
254.306	13.28
254.521	12.95
254.737	12.35
254.952	12.41
255.167	11.38
255.383	11.34
255.598	11.16
255.813	10.09
256.028	9.41
256.244	8.13
256.459	7.26
256.674	8.01
256.889	8.05
257.104	7.75
257.32	7.85
257.535	7.69
257.75	7.78
257.965	7.68
258.18	7.91
258.395	7.93
258.61	8.17
258.826	8.51
259.041	8.29
259.256	8.39
259.471	8.73
259.686	8.41
259.901	8.86
260.116	8.26
260.331	8.58
260.546	8.32
260.761	8.07
260.976	7.62
261.191	7.2
261.406	7.09
261.621	6.59
261.836	6.57
262.05	6.67
262.265	6.01
262.48	5.94
262.695	4.98
262.91	5.11
263.125	5.23
263.34	5.42
263.555	5.09
263.769	5.42
263.984	5.4
264.199	6.16
264.414	6.39
264.629	6.95
264.843	7
265.058	6.61
265.273	7.16
265.488	7.26
265.702	7.75
265.917	8.52
266.132	8.76
266.346	8.32
266.561	7.88
266.776	8.31
266.99	8.15
267.205	8.19
267.42	8.37
267.634	7.94
267.849	8.27
268.063	7.92
268.278	8.03
268.492	7.56
268.707	7.94
268.922	7.56
269.136	6.78
269.351	6.49
269.565	7
269.78	6.96
269.994	7.17
270.209	6.77
270.423	6.71
270.637	6.25
270.852	6.52
271.066	7
271.281	6.73
271.495	6.79
271.709	6.93
271.924	6.67
272.138	6.64
272.353	6.65
272.567	6.66
272.781	6.56
272.996	6.25
273.21	6.22
273.424	6.09
273.638	6.4
273.853	6.91
274.067	7.15
274.281	7.47
274.495	7.87
274.71	7.4
274.924	7.08
275.138	6.9
275.352	7.15
275.566	6.96
275.781	6.71
275.995	6.95
276.209	6.81
276.423	6.72
276.637	5.79
276.851	5.36
277.065	6.01
277.279	6.85
277.493	7.44
277.707	7.52
277.921	7.44
278.135	6.54
278.349	6.33
278.563	6.39
278.777	6.4
278.991	6.88
279.205	7.43
279.419	7.11
279.633	6.98
279.847	6.97
280.061	6.57
280.275	6.7
280.489	7.91
280.703	7.94
280.917	7.92
281.131	8.25
281.344	8.07
281.558	7.99
281.772	8.14
281.986	7.78
282.2	7.38
282.414	7.71
282.627	7.41
282.841	7.02
283.055	7.04
283.269	7.07
283.482	6.85
283.696	6.83
283.91	6.54
284.123	6.52
284.337	6.52
284.551	7.02
284.764	7.3
284.978	7.62
285.192	7.59
285.405	8.03
285.619	7.97
285.833	7.91
286.046	7.62
286.26	8.03
286.473	7.65
286.687	7.94
286.9	7.52
287.114	6.93
287.327	6.78
287.541	6.29
287.754	6.09
287.968	5.76
288.181	5.48
288.395	6.13
288.608	6.04
288.822	5.73
289.035	5.21
289.248	5.44
289.462	5.67
289.675	5.78
289.889	6.39
290.102	5.94
290.315	6.17
290.529	6.69
290.742	6.45
290.955	6.41
291.169	6.57
291.382	7.36
291.595	7.79
291.808	7.65
292.022	7.75
292.235	7.6
292.448	8.18
292.661	8.12
292.875	7.76
293.088	7.86
293.301	7.77
293.514	7.86
293.727	7.77
293.94	7.31
294.153	7.44
294.367	7.21
294.58	7.09
294.793	6.55
295.006	6.89
295.219	7.33
295.432	7.42
295.645	7.45
295.858	7.7
296.071	7.54
296.284	7.39
296.497	7.29
296.71	7.22
296.923	7.53
297.136	7.56
297.349	7.43
297.562	7.05
297.775	6.72
297.988	6.67
298.201	6.54
298.414	6.28
298.626	6.07
298.839	6.41
299.052	6.4
299.265	5.83
299.478	6.03
299.691	6.21
299.903	6.29
300.116	6.39
300.329	5.74
300.542	5.67
300.755	5.63
300.967	6.24
301.18	5.76
301.393	5.72
301.605	6.04
301.818	5.66
302.031	5.5
302.243	5.45
302.456	5.77
302.669	6.19
302.881	6.46
303.094	6.53
303.307	6.58
303.519	7.15
303.732	7.52
303.944	7.67
304.157	8
304.37	8.04
304.582	7.94
304.795	7.87
305.007	8.14
305.22	7.96
305.432	8.32
305.645	7.54
305.857	7.03
306.069	7.1
306.282	6.78
306.494	6.95
306.707	6.87
306.919	6.69
307.132	6.77
307.344	6.75
307.556	7
307.769	7.17
307.981	7.97
308.193	8.13
308.406	7.64
308.618	7.97
308.83	7.77
309.043	7.52
309.255	7.98
309.467	7.44
309.679	7.63
309.892	7.64
310.104	7.27
310.316	6.71
310.528	6.95
310.74	7.05
310.953	6.73
311.165	6.58
311.377	6.51
311.589	6.4
311.801	6.88
312.013	6.61
312.225	6.18
312.437	6.53
312.649	6.6
312.862	6.48
313.074	6.82
313.286	6.56
313.498	6.95
313.71	7.63
313.922	7.47
314.134	7.57
314.346	7.37
314.558	8
314.77	7.95
314.982	8.15
315.193	8.45
315.405	8.56
315.617	8.7
315.829	8.86
316.041	8.63
316.253	8.43
316.465	8.45
316.677	9.07
316.888	9.04
317.1	8.96
317.312	8.97
317.524	8.35
317.736	8.05
317.947	8.64
318.159	8.06
318.371	8.08
318.583	8.52
318.794	8.48
319.006	8.47
319.218	7.9
319.43	7.72
319.641	7.99
319.853	8.27
320.064	8.64
320.276	8.14
320.488	8
320.699	8.08
320.911	7.38
321.123	7.13
321.334	7.15
321.546	7.66
321.757	7.41
321.969	7.05
322.18	6.39
322.392	5.82
322.603	6.03
322.815	7.01
323.026	6.79
323.238	7.26
323.449	7.34
323.661	6.78
323.872	6.52
324.083	6.95
324.295	7.17
324.506	7.31
324.718	7.39
324.929	8.01
325.14	7.86
325.352	8.01
325.563	8.11
325.774	8.37
325.986	8.76
326.197	8.83
326.408	8.98
326.62	8.73
326.831	8.96
327.042	8.9
327.253	8.34
327.464	8.03
327.676	8.36
327.887	8.02
328.098	7.74
328.309	7.6
328.52	7.12
328.732	7.22
328.943	7.27
329.154	6.77
329.365	7.16
329.576	6.74
329.787	7.02
329.998	6.65
330.209	7.13
330.42	7.24
330.631	7.28
330.842	8.02
331.053	7.45
331.264	7.47
331.475	7.81
331.686	8.02
331.897	8.22
332.108	8.03
332.319	8.15
332.53	7.96
332.741	7.78
332.952	7.3
333.163	7.71
333.374	7.46
333.585	7.72
333.795	7.97
334.006	7.83
334.217	8.25
334.428	8.74
334.639	8.41
334.849	8.38
335.06	8.44
335.271	8.54
335.482	7.73
335.692	8.25
335.903	8.22
336.114	7.89
336.325	7.95
336.535	7.44
336.746	6.94
336.957	6.96
337.167	7.13
337.378	7.11
337.589	7.22
337.799	7.48
338.01	7.47
338.22	7.54
338.431	8.02
338.642	7.97
338.852	7.97
339.063	7.8
339.273	7.82
339.484	7.65
339.694	7.61
339.905	8.04
340.115	8.35
340.326	8.35
340.536	8.33
340.746	7.95
340.957	7.52
341.167	7.82
341.378	7.92
341.588	7.93
341.799	8.27
342.009	8.08
342.219	7.81
342.43	7.82
342.64	7.34
342.85	7.27
343.061	7.26
343.271	7.59
343.481	7.73
343.691	7.48
343.902	7.29
344.112	6.69
344.322	6.91
344.532	7.06
344.743	6.7
344.953	7.17
345.163	7.22
345.373	7.2
345.583	7.01
345.793	6.62
346.004	7.19
346.214	7.43
346.424	7.47
346.634	7.44
346.844	7.39
347.054	7.5
347.264	7.47
347.474	7.36
347.684	7.5
347.894	7.52
348.104	7.67
348.314	7.19
348.524	7.2
348.734	7.27
348.944	7.34
349.154	7.15
349.364	6.53
349.574	6.28
349.784	6.4
349.994	6.48
350.204	6.94
350.413	7.44
350.623	7.52
350.833	7.82
351.043	7.58
351.253	7.36
351.463	7.31
351.672	7.71
351.882	7.98
352.092	8.05
352.302	7.9
352.511	7.42
352.721	7.01
352.931	7.01
353.141	6.34
353.35	6.85
353.56	6.86
353.77	6.81
353.979	6.65
354.189	6.43
354.399	6.32
354.608	6.29
354.818	6.8
355.027	6.65
355.237	6.59
355.447	6.91
355.656	6.8
355.866	6.8
356.075	6.8
356.285	6.92
356.494	6.89
356.704	6.75
356.913	6.7
357.123	6.36
357.332	6.17
357.542	5.91
357.751	5.99
357.96	5.81
358.17	5.98
358.379	6.1
358.589	5.99
358.798	6.01
359.007	5.8
359.217	5.67
359.426	5.53
359.635	5.73
359.845	5.92
360.054	6.03
360.263	5.99
360.472	5.75
360.682	5.7
360.891	5.93
361.1	5.95
361.309	6.09
361.519	6.29
361.728	6.41
361.937	6.41
362.146	6.51
362.355	6.2
362.564	6.2
362.774	6.29
362.983	6.34
363.192	6.22
363.401	6.11
363.61	5.88
363.819	5.95
364.028	5.88
364.237	5.76
364.446	5.6
364.655	5.54
364.864	5.8
365.073	5.98
365.282	6.01
365.491	6.03
365.7	5.97
365.909	5.89
366.118	6.03
366.327	5.61
366.536	6.02
366.745	6.16
366.954	6.17
367.162	5.94
367.371	5.8
367.58	5.52
367.789	5.26
367.998	5.21
368.207	5.35
368.415	5
368.624	5.34
368.833	4.86
369.042	4.53
369.25	4.74
369.459	4.95
369.668	4.63
369.877	4.77
370.085	4.85
370.294	4.88
370.503	4.8
370.711	5.21
370.92	5.13
371.129	5.17
371.337	5.43
371.546	5.22
371.754	5.19
371.963	5.39
372.171	5.7
372.38	5.69
372.589	6.06
372.797	6.32
373.006	5.89
373.214	6.05
373.423	6.01
373.631	6
373.84	5.87
374.048	5.9
374.256	6.02
374.465	5.83
374.673	5.72
374.882	5.6
375.09	5.61
375.298	5.51
375.507	5.42
375.715	5.56
375.923	5.48
376.132	5.57
376.34	5.25
376.548	5.08
376.757	4.94
376.965	5.21
377.173	5.17
377.381	5.22
377.59	5.33
377.798	5.35
378.006	5.18
378.214	5.11
378.423	5.19
378.631	5.08
378.839	5.16
379.047	5.38
379.255	5.48
379.463	5.26
379.671	4.83
379.879	4.49
380.088	4.65
380.296	4.69
380.504	5.04
380.712	4.95
380.92	4.95
381.128	5.05
381.336	4.73
381.544	4.08
381.752	4.19
381.96	4.49
382.168	4.85
382.376	4.58
382.584	4.53
382.791	4.2
382.999	4.32
383.207	4.45
383.415	4.66
383.623	4.9
383.831	5.17
384.039	5.16
384.247	5.03
384.454	4.95
384.662	4.8
384.87	4.72
385.078	4.73
385.285	4.58
385.493	4.64
385.701	4.08
385.909	3.87
386.116	3.89
386.324	3.68
386.532	3.66
386.739	3.53
386.947	3.87
387.155	4.01
387.362	4.04
387.57	4.11
387.778	3.95
387.985	4.08
388.193	4.22
388.4	4.18
388.608	4.46
388.816	4.33
389.023	4.46
389.231	4.17
389.438	4.12
389.646	4
389.853	3.77
390.061	3.8
390.268	3.75
390.475	3.68
390.683	3.72
390.89	3.62
391.098	3.7
391.305	3.64
391.512	3.65
391.72	3.74
391.927	3.74
392.135	3.68
392.342	3.74
392.549	3.98
392.756	3.98
392.964	3.98
393.171	3.95
393.378	3.79
393.586	3.77
393.793	3.75
394	3.49
394.207	3.42
394.414	3.64
394.622	3.58
394.829	3.65
395.036	3.53
395.243	3.58
395.45	3.67
395.657	3.84
395.864	3.85
396.072	3.91
396.279	3.9
396.486	4
396.693	3.93
396.9	3.76
397.107	3.51
397.314	3.71
397.521	3.63
397.728	3.48
397.935	3.67
398.142	3.75
398.349	3.81
398.556	4.06
398.763	4.07
398.97	4.22
399.177	4.48
399.383	4.7
399.59	4.47
399.797	4.46
400.004	4.59
400.211	4.36
400.418	4.4
400.625	4.31
400.831	3.99
401.038	3.87
401.245	3.84
401.452	3.76
401.658	3.52
401.865	3.63
402.072	3.46
402.279	3.37
402.485	3.47
402.692	3.4
402.899	3.32
403.105	3.57
403.312	3.67
403.519	3.6
403.725	3.52
403.932	3.58
404.138	3.55
404.345	3.7
404.552	3.73
404.758	3.71
404.965	3.67
405.171	3.88
405.378	3.71
405.584	3.6
405.791	3.54
405.997	3.65
406.204	3.82
406.41	3.89
406.617	3.81
406.823	3.99
407.029	4.03
407.236	4.02
407.442	4.01
407.649	4.16
407.855	4.09
408.061	4.01
408.268	3.98
408.474	3.61
408.68	3.49
408.887	3.58
409.093	3.32
409.299	3.33
409.505	3.31
409.712	3.18
409.918	3.17
410.124	3.28
410.33	3.32
410.537	3.25
410.743	3.43
410.949	3.47
411.155	3.42
411.361	3.33
411.567	3.26
411.773	3.17
411.98	3.3
412.186	3.21
412.392	3.34
412.598	3.31
412.804	3.16
413.01	3.24
413.216	3.25
413.422	3.3
413.628	3.36
413.834	3.21
414.04	3.23
414.246	3.02
414.452	3.04
414.658	2.9
414.864	2.91
415.07	3.08
415.275	3.02
415.481	2.97
415.687	2.76
415.893	2.73
416.099	2.76
416.305	2.68
416.511	2.85
416.716	2.82
416.922	2.93
417.128	3.02
417.334	3
417.539	2.96
417.745	3.04
417.951	3.14
418.157	3.18
418.362	3.15
418.568	3.17
418.774	3.04
418.979	3.04
419.185	2.99
419.391	2.89
419.596	2.84
419.802	2.81
420.008	2.75
420.213	3.33
420.419	3.34
420.624	3.32
420.83	3.31
421.035	3.32
421.241	3.38
421.446	3.39
421.652	3.39
421.857	3.39
422.063	3.38
422.268	3.4
422.474	2.82
422.679	2.84
422.885	2.93
423.09	2.96
423.295	2.96
423.501	2.88
423.706	2.83
423.911	2.93
424.117	3.01
424.322	3.06
424.527	3.04
424.733	3.03
424.938	3.02
425.143	3.07
425.349	3.05
425.554	3.15
425.759	3.16
425.964	3.15
426.169	3.15
426.375	3.05
426.58	2.99
426.785	3.01
426.99	3
427.195	2.99
427.4	2.83
427.605	2.87
427.811	2.69
428.016	2.68
428.221	2.75
428.426	2.67
428.631	2.63
428.836	2.64
429.041	2.65
429.246	2.72
429.451	2.7
429.656	2.77
429.861	2.8
430.066	2.98
430.271	3.02
430.476	2.99
430.681	3.01
430.886	2.99
431.09	3.02
431.295	2.97
431.5	2.86
431.705	2.79
431.91	2.94
432.115	2.86
432.32	2.72
432.524	2.61
432.729	2.67
432.934	2.66
433.139	2.74
433.343	2.78
433.548	2.83
433.753	2.83
433.958	2.85
434.162	2.66
434.367	2.68
434.572	2.74
434.776	2.84
434.981	2.69
435.186	2.61
435.39	2.54
435.595	2.52
435.799	2.43
436.004	2.56
436.209	2.57
436.413	2.59
436.618	2.55
436.822	2.46
437.027	2.49
437.231	2.57
437.436	2.6
437.64	2.67
437.845	2.54
438.049	2.61
438.253	2.51
438.458	2.43
438.662	2.48
438.867	2.51
439.071	2.69
439.275	2.59
439.48	2.53
439.684	2.52
439.888	2.55
440.093	2.72
440.297	2.66
440.501	2.66
440.706	2.78
440.91	2.77
441.114	2.82
441.318	2.63
441.523	2.7
441.727	2.74
441.931	2.92
442.135	2.85
442.339	2.73
442.543	2.78
442.748	2.77
442.952	2.71
443.156	2.67
443.36	2.63
443.564	2.72
443.768	2.67
443.972	2.7
444.176	2.53
444.38	2.54
444.584	2.56
444.788	2.55
444.992	2.51
445.196	2.55
445.4	2.53
445.604	2.49
445.808	2.47
446.012	2.53
446.216	2.49
446.42	2.51
446.624	2.54
446.828	2.53
447.032	2.49
447.235	2.54
447.439	2.47
447.643	2.52
447.847	2.62
448.051	2.68
448.254	2.68
448.458	2.72
448.662	2.75
448.866	2.69
449.069	2.63
449.273	2.7
449.477	2.77
449.681	2.8
449.884	2.75
450.088	2.77
450.292	2.78
450.495	2.67
450.699	2.76
450.902	2.76
451.106	2.73
451.31	2.77
451.513	2.73
451.717	2.62
451.92	2.58
452.124	2.58
452.327	2.57
452.531	2.45
452.734	2.55
452.938	2.4
453.141	2.37
453.345	2.43
453.548	2.41
453.752	2.43
453.955	2.57
454.158	2.53
454.362	2.55
454.565	2.49
454.769	2.55
454.972	2.64
455.175	2.67
455.379	2.67
455.582	2.69
455.785	2.69
455.988	2.78
456.192	2.65
456.395	2.73
456.598	2.78
456.801	2.74
457.005	2.68
457.208	2.55
457.411	2.51
457.614	2.48
457.817	2.44
458.021	2.39
458.224	2.38
458.427	2.35
458.63	2.37
458.833	2.35
459.036	2.44
459.239	2.44
459.442	2.46
459.645	2.42
459.848	2.38
460.051	2.37
460.254	2.53
460.457	2.46
460.66	2.56
460.863	2.52
461.066	2.56
461.269	2.41
461.472	2.52
461.675	2.47
461.878	2.58
462.081	2.73
462.284	2.83
462.486	2.62
462.689	2.67
462.892	2.63
463.095	2.62
463.298	2.56
463.5	2.62
463.703	2.51
463.906	2.62
464.109	2.52
464.311	2.47
464.514	2.43
464.717	2.6
464.92	2.62
465.122	2.55
465.325	2.67
465.528	2.71
465.73	2.72
465.933	2.69
466.135	2.69
466.338	2.8
466.541	2.85
466.743	2.74
466.946	2.67
467.148	2.64
467.351	2.75
467.553	2.59
467.756	2.62
467.958	2.57
468.161	2.69
468.363	2.58
468.566	2.55
468.768	2.45
468.971	2.4
469.173	2.38
469.375	2.35
469.578	2.21
469.78	2.34
469.983	2.32
470.185	2.4
470.387	2.36
470.59	2.38
470.792	2.29
470.994	2.3
471.196	2.47
471.399	2.48
471.601	2.58
471.803	2.64
472.005	2.56
472.208	2.46
472.41	2.41
472.612	2.35
472.814	2.41
473.016	2.59
473.218	2.71
473.421	2.71
473.623	2.71
473.825	2.64
474.027	2.65
474.229	2.64
474.431	2.7
474.633	2.66
474.835	2.72
475.037	2.62
475.239	2.53
475.441	2.49
475.643	2.41
475.845	2.4
476.047	2.36
476.249	2.4
476.451	2.34
476.653	2.36
476.855	2.5
477.057	2.52
477.258	2.54
477.46	2.48
477.662	2.49
477.864	2.48
478.066	2.48
478.268	2.51
478.469	2.54
478.671	2.64
478.873	2.7
479.075	2.54
479.276	2.5
479.478	2.5
479.68	2.65
479.882	2.61
480.083	2.63
480.285	2.68
480.487	2.68
480.688	2.64
480.89	2.63
481.091	2.61
481.293	2.63
481.495	2.61
481.696	2.65
481.898	2.59
482.099	2.56
482.301	2.57
482.502	2.55
482.704	2.53
482.905	2.52
483.107	2.5
483.308	2.48
483.51	2.46
483.711	2.46
483.913	2.44
484.114	2.46
484.315	2.45
484.517	2.44
484.718	2.44
484.92	2.42
485.121	2.39
485.322	2.41
485.524	2.43
485.725	2.44
485.926	2.43
486.127	2.46
486.329	2.42
486.53	2.44
486.731	2.44
486.932	2.43
487.134	2.44
487.335	2.49
487.536	2.49
487.737	2.48
487.938	2.48
488.139	2.51
488.341	2.48
488.542	2.46
488.743	2.48
488.944	2.49
489.145	2.51
489.346	2.52
489.547	2.53
489.748	2.53
489.949	2.54
490.15	2.59
490.351	2.6
490.552	2.62
490.753	2.65
490.954	2.63
491.155	2.65
491.356	2.62
491.557	2.65
491.758	2.68
491.959	2.71
492.159	2.72
492.36	2.7
492.561	2.69
492.762	2.62
492.963	2.67
493.164	2.66
493.364	2.63
493.565	2.61
493.766	2.6
493.967	2.52
494.167	2.45
494.368	2.3
494.569	2.31
494.769	2.28
494.97	2.33
495.171	2.29
495.371	2.34
495.572	2.46
495.773	2.47
495.973	2.45
496.174	2.49
496.375	2.57
496.575	2.67
496.776	2.65
496.976	2.71
497.177	2.68
497.377	2.65
497.578	2.64
497.778	2.58
497.979	2.63
498.179	2.56
498.38	2.5
498.58	2.46
498.78	2.48
498.981	2.48
499.181	2.47
499.382	2.56
499.582	2.64
499.782	2.65
499.983	2.66
500.183	2.66
500.383	2.72
500.584	2.76
500.784	2.72
500.984	2.76
501.184	2.71
501.385	2.68
501.585	2.65
501.785	2.67
501.985	2.64
502.185	2.64
502.386	2.66
502.586	2.63
502.786	2.7
502.986	2.74
503.186	2.72
503.386	2.75
503.586	2.81
503.786	2.77
503.987	2.76
504.187	2.74
504.387	2.71
504.587	2.72
504.787	2.73
504.987	2.65
505.187	2.66
505.387	2.66
505.587	2.73
505.786	2.76
505.986	2.84
506.186	2.79
506.386	2.77
506.586	2.81
506.786	2.82
506.986	2.91
507.186	2.98
507.386	3.07
507.585	3.07
507.785	3.06
507.985	3.05
508.185	3
508.384	3.09
508.584	3.17
508.784	3.17
508.984	3.19
509.183	3.2
509.383	3.22
509.583	3.26
509.782	3.31
509.982	3.31
510.182	3.31
510.381	3.41
510.581	3.37
510.781	3.41
510.98	3.36
511.18	3.4
511.379	3.36
511.579	3.31
511.778	3.23
511.978	3.09
512.177	3.16
512.377	3.22
512.576	3.18
512.776	3.2
512.975	3.19
513.175	3.32
513.374	3.29
513.573	3.34
513.773	3.46
513.972	3.48
514.172	3.68
514.371	3.7
514.57	3.72
514.77	3.74
514.969	3.74
515.168	3.81
515.367	3.81
515.567	3.84
515.766	3.82
515.965	3.81
516.164	3.81
516.364	3.8
516.563	3.7
516.762	3.64
516.961	3.62
517.16	3.64
517.359	3.53
517.559	3.54
517.758	3.49
517.957	3.54
518.156	3.52
518.355	3.55
518.554	3.53
518.753	3.62
518.952	3.63
519.151	3.66
519.35	3.69
519.549	3.77
519.748	3.72
519.947	3.78
520.146	3.75
520.345	3.76
520.544	3.69
520.743	3.74
520.942	3.67
521.141	3.79
521.339	3.86
521.538	3.88
521.737	3.91
521.936	3.99
522.135	3.97
522.333	3.98
522.532	4.1
522.731	4.16
522.93	4.21
523.129	4.27
523.327	4.21
523.526	4.14
523.725	4.16
523.923	4.18
524.122	4.2
524.321	4.22
524.519	4.28
524.718	4.24
524.917	4.31
525.115	4.26
525.314	4.28
525.512	4.3
525.711	4.38
525.909	4.4
526.108	4.42
526.306	4.39
526.505	4.42
526.703	4.44
526.902	4.43
527.1	4.42
527.299	4.45
527.497	4.47
527.696	4.5
527.894	4.51
528.092	4.52
528.291	4.55
528.489	4.62
528.688	4.63
528.886	4.62
529.084	4.64
529.283	4.65
529.481	4.71
529.679	4.76
529.877	4.78
530.076	4.79
530.274	4.83
530.472	4.85
530.67	4.88
530.869	4.92
531.067	4.93
531.265	4.97
531.463	5.04
531.661	5.04
531.859	5.06
532.057	5.09
532.255	5.09
532.454	5.08
532.652	5.13
532.85	5.14
533.048	5.14
533.246	5.18
533.444	5.16
533.642	5.15
533.84	5.2
534.038	5.21
534.236	5.19
534.434	5.25
534.632	5.25
534.83	5.27
535.027	5.23
535.225	5.26
535.423	5.31
535.621	5.35
535.819	5.35
536.017	5.29
536.215	5.29
536.412	5.38
536.61	5.39
536.808	5.41
537.006	5.44
537.203	5.5
537.401	5.55
537.599	5.6
537.797	5.68
537.994	5.7
538.192	5.82
538.39	5.82
538.587	5.81
538.785	5.86
538.983	5.87
539.18	5.88
539.378	5.86
539.575	5.93
539.773	5.96
539.97	5.91
540.168	5.99
540.366	5.94
540.563	5.94
540.761	5.95
540.958	6.01
541.155	6.06
541.353	6.06
541.55	6.11
541.748	6.1
541.945	6.13
542.143	6.15
542.34	6.17
542.537	6.24
542.735	6.35
542.932	6.37
543.129	6.32
543.327	6.32
543.524	6.37
543.721	6.42
543.919	6.41
544.116	6.38
544.313	6.5
544.51	6.46
544.708	6.43
544.905	6.42
545.102	6.46
545.299	6.49
545.496	6.57
545.693	6.57
545.891	6.59
546.088	6.59
546.285	6.63
546.482	6.69
546.679	6.8
546.876	6.92
547.073	6.98
547.27	7
547.467	7.07
547.664	7.07
547.861	7.11
548.058	7.16
548.255	7.26
548.452	7.34
548.649	7.43
548.846	7.48
549.043	7.48
549.24	7.57
549.437	7.67
549.633	7.79
549.83	7.87
550.027	7.93
550.224	7.95
550.421	7.98
550.618	7.96
550.814	7.86
551.011	7.84
551.208	7.82
551.405	7.89
551.601	7.88
551.798	7.92
551.995	7.84
552.191	7.94
552.388	7.88
552.585	7.95
552.781	8.1
552.978	8.2
553.175	8.25
553.371	8.36
553.568	8.37
553.764	8.47
553.961	8.48
554.157	8.63
554.354	8.66
554.55	8.76
554.747	8.82
554.943	8.81
555.14	8.79
555.336	8.76
555.533	8.89
555.729	8.91
555.926	8.95
556.122	8.95
556.318	9.04
556.515	9.05
556.711	9.25
556.907	9.36
557.104	9.46
557.3	9.56
557.496	9.65
557.693	9.67
557.889	9.72
558.085	9.7
558.281	9.69
558.478	9.7
558.674	9.8
558.87	9.77
559.066	9.79
559.262	9.87
559.459	9.81
559.655	10.04
559.851	10.2
560.047	10.33
560.243	10.4
560.439	10.59
560.635	10.7
560.831	10.77
561.027	10.86
561.223	10.91
561.419	10.86
561.615	10.93
561.811	11.02
562.007	11.05
562.203	11.1
562.399	11.2
562.595	11.24
562.791	11.34
562.987	11.39
563.183	11.5
563.379	11.57
563.575	11.76
563.771	11.93
563.966	11.97
564.162	12.02
564.358	12.05
564.554	12.1
564.75	12.16
564.945	12.23
565.141	12.18
565.337	12.23
565.533	12.33
565.728	12.31
565.924	12.32
566.12	12.39
566.315	12.47
566.511	12.42
566.707	12.54
566.902	12.62
567.098	12.63
567.293	12.9
567.489	13.04
567.684	13.1
567.88	13.24
568.076	13.38
568.271	13.47
568.467	13.56
568.662	13.69
568.858	13.75
569.053	13.76
569.248	13.85
569.444	13.86
569.639	13.87
569.835	13.9
570.03	14.07
570.225	14.08
570.421	14.08
570.616	14.11
570.812	14.35
571.007	14.4
571.202	14.6
571.397	14.74
571.593	14.87
571.788	14.96
571.983	15.08
572.178	15.18
572.374	15.29
572.569	15.36
572.764	15.49
572.959	15.45
573.154	15.61
573.35	15.57
573.545	15.6
573.74	15.6
573.935	15.65
574.13	15.65
574.325	15.58
574.52	15.71
574.715	15.82
574.91	15.83
575.105	15.92
575.3	15.99
575.495	16.12
575.69	16.16
575.885	16.3
576.08	16.42
576.275	16.63
576.47	16.72
576.665	16.81
576.86	16.82
577.055	16.81
577.25	16.99
577.444	17.06
577.639	17.22
577.834	17.26
578.029	17.31
578.224	17.34
578.418	17.29
578.613	17.4
578.808	17.56
579.003	17.67
579.197	17.83
579.392	17.9
579.587	17.94
579.781	17.96
579.976	18.13
580.171	18.16
580.365	18.2
580.56	18.31
580.755	18.36
580.949	18.29
581.144	18.35
581.338	18.31
581.533	18.4
581.727	18.44
581.922	18.43
582.116	18.37
582.311	18.47
582.505	18.61
582.7	18.65
582.894	18.78
583.089	18.91
583.283	19.05
583.478	19.22
583.672	19.02
583.866	18.97
584.061	18.95
584.255	19.09
584.449	19.18
584.644	19.2
584.838	19.27
585.032	19.24
585.226	19.32
585.421	19.34
585.615	19.33
585.809	19.47
586.003	19.62
586.198	19.81
586.392	19.95
586.586	19.82
586.78	19.91
586.974	19.99
587.168	20.09
587.363	20.04
587.557	20.08
587.751	20.25
587.945	20.25
588.139	20.41
588.333	20.51
588.527	20.39
588.721	20.62
588.915	20.63
589.109	20.62
589.303	20.64
589.497	20.79
589.691	20.72
589.885	20.66
590.079	20.65
590.273	20.61
590.466	20.6
590.66	20.8
590.854	20.89
591.048	20.82
591.242	20.9
591.436	20.88
591.629	20.93
591.823	21.09
592.017	21.18
592.211	21.27
592.404	21.35
592.598	21.36
592.792	21.24
592.986	21.22
593.179	21.35
593.373	21.5
593.567	21.7
593.76	21.64
593.954	21.73
594.147	21.88
594.341	22
594.535	21.98
594.728	21.97
594.922	22.1
595.115	22.19
595.309	22.34
595.502	22.36
595.696	22.37
595.889	22.33
596.083	22.32
596.276	22.29
596.47	22.36
596.663	22.44
596.856	22.61
597.05	22.62
597.243	22.55
597.437	22.53
597.63	22.48
597.823	22.36
598.017	22.5
598.21	22.54
598.403	22.61
598.596	22.68
598.79	22.83
598.983	22.83
599.176	22.81
599.369	22.93
599.563	22.88
599.756	23.09
599.949	23.14
600.142	23.2
600.335	23.32
600.528	23.24
600.722	23.27
600.915	23.13
601.108	23.35
601.301	23.64
601.494	23.61
601.687	23.68
601.88	23.61
602.073	23.71
602.266	23.69
602.459	23.69
602.652	23.77
602.845	23.76
603.038	23.7
603.231	23.53
603.424	23.38
603.617	23.44
603.809	23.44
604.002	23.45
604.195	23.43
604.388	23.44
604.581	23.47
604.774	23.46
604.966	23.44
605.159	23.59
605.352	23.71
605.545	23.78
605.737	23.82
605.93	23.99
606.123	24.02
606.316	24.16
606.508	24.27
606.701	24.36
606.894	24.42
607.086	24.47
607.279	24.5
607.471	24.39
607.664	24.37
607.857	24.42
608.049	24.43
608.242	24.37
608.434	24.26
608.627	24.28
608.819	24.33
609.012	24.34
609.204	24.35
609.397	24.35
609.589	24.31
609.782	24.26
609.974	24.3
610.166	24.29
610.359	24.26
610.551	24.42
610.743	24.54
610.936	24.37
611.128	24.42
611.32	24.44
611.513	24.36
611.705	24.39
611.897	24.49
612.09	24.48
612.282	24.51
612.474	24.73
612.666	24.8
612.858	24.82
613.051	24.89
613.243	24.87
613.435	24.74
613.627	24.74
613.819	25.07
614.011	25.25
614.203	25.04
614.395	25.15
614.588	25.06
614.78	24.97
614.972	24.89
615.164	24.98
615.356	25.05
615.548	25.18
615.74	25.33
615.932	25.3
616.124	25.11
616.315	25.49
616.507	25.46
616.699	25.52
616.891	25.74
617.083	25.74
617.275	25.77
617.467	25.73
617.659	25.75
617.85	25.88
618.042	25.93
618.234	25.89
618.426	25.71
618.618	25.7
618.809	25.75
619.001	25.59
619.193	25.66
619.384	25.62
619.576	25.75
619.768	25.74
619.959	25.7
620.151	25.7
620.343	25.83
620.534	25.87
620.726	25.77
620.917	25.76
621.109	25.67
621.301	25.63
621.492	25.86
621.684	25.54
621.875	25.69
622.067	25.62
622.258	25.39
622.45	25.31
622.641	25.26
622.832	25.41
623.024	25.42
623.215	25.53
623.407	25.35
623.598	25.14
623.789	25.35
623.981	25.26
624.172	25.42
624.363	25.54
624.555	25.7
624.746	25.74
624.937	25.7
625.129	25.88
625.32	25.94
625.511	26.25
625.702	26.27
625.893	26.33
626.085	26.45
626.276	26.42
626.467	26.5
626.658	26.43
626.849	26.4
627.04	26.47
627.231	26.42
627.422	26.42
627.614	26.2
627.805	26.35
627.996	26.49
628.187	26.41
628.378	26.32
628.569	26.42
628.76	26.58
628.951	26.74
629.142	26.68
629.332	26.58
629.523	26.52
629.714	26.69
629.905	26.51
630.096	26.36
630.287	26.46
630.478	26.41
630.669	26.34
630.859	26.49
631.05	26.41
631.241	26.5
631.432	26.6
631.623	26.82
631.813	26.65
632.004	26.77
632.195	26.69
632.385	26.71
632.576	26.97
632.767	27.04
632.957	26.83
633.148	26.77
633.339	26.56
633.529	26.43
633.72	26.37
633.91	26.57
634.101	26.52
634.292	26.78
634.482	26.93
634.673	26.72
634.863	26.76
635.054	26.77
635.244	26.9
635.435	27.01
635.625	27.01
635.815	26.98
636.006	26.88
636.196	26.96
636.387	26.73
636.577	26.54
636.767	26.6
636.958	26.43
637.148	26.42
637.338	26.42
637.529	26.73
637.719	26.92
637.909	26.92
638.099	27.03
638.29	26.98
638.48	27.05
638.67	27.05
638.86	27.33
639.05	27.26
639.241	27.25
639.431	27.2
639.621	27.2
639.811	27.2
640.001	27.22
640.191	27.08
640.381	27.18
640.571	27.36
640.761	27.15
640.951	26.86
641.141	27.02
641.331	27.31
641.521	27.47
641.711	27.28
641.901	27.27
642.091	27.33
642.281	27.24
642.471	26.93
642.661	26.72
642.851	27.22
643.041	27.33
643.231	27.46
643.42	27.26
643.61	27.04
643.8	27.07
643.99	27.01
644.18	27.24
644.369	27.4
644.559	27.77
644.749	27.84
644.939	27.57
645.128	27.36
645.318	27.38
645.508	27.49
645.697	27.63
645.887	27.49
646.076	27.51
646.266	27.39
646.456	27.49
646.645	27.62
646.835	27.63
647.024	27.62
647.214	27.81
647.403	27.77
647.593	27.75
647.782	27.84
647.972	27.97
648.161	28.12
648.351	28.08
648.54	28.07
648.73	28.04
648.919	27.98
649.108	27.93
649.298	28.1
649.487	28.19
649.677	28.2
649.866	28.05
650.055	28.32
650.244	28.34
650.434	28.34
650.623	28.4
650.812	28.25
651.002	28.41
651.191	28.43
651.38	28.09
651.569	27.96
651.758	27.65
651.947	27.86
652.137	27.66
652.326	27.8
652.515	27.73
652.704	27.83
652.893	28.18
653.082	28.3
653.271	28.29
653.46	28.51
653.649	28.47
653.838	28.93
654.027	28.89
654.216	28.79
654.405	28.71
654.594	28.71
654.783	28.41
654.972	28.1
655.161	28.13
655.35	28.37
655.539	28.51
655.728	28.5
655.916	28.54
656.105	28.51
656.294	28.78
656.483	28.58
656.672	28.69
656.86	28.82
657.049	28.84
657.238	28.83
657.427	28.73
657.615	28.76
657.804	28.87
657.993	28.76
658.181	28.8
658.37	28.95
658.559	29.07
658.747	28.95
658.936	28.94
659.125	28.91
659.313	28.88
659.502	29
659.69	28.94
659.879	28.94
660.067	29.12
660.256	29.31
660.444	29.17
660.633	29.13
660.821	29.23
661.01	29.33
661.198	29.56
661.387	29.58
661.575	29.58
661.763	29.68
661.952	29.58
662.14	29.41
662.328	29.11
662.517	29.01
662.705	29.04
662.893	28.96
663.082	29.06
663.27	28.91
663.458	28.67
663.646	28.61
663.834	28.54
664.023	28.61
664.211	28.73
664.399	28.93
664.587	28.92
664.775	28.89
664.963	29
665.152	29.05
665.34	29.36
665.528	29.38
665.716	29.34
665.904	29.42
666.092	29.6
666.28	29.51
666.468	29.51
666.656	29.67
666.844	29.81
667.032	29.89
667.22	29.76
667.408	29.46
667.596	29.85
667.784	29.88
667.971	30.01
668.159	29.79
668.347	29.59
668.535	29.46
668.723	29.2
668.911	29.13
669.098	29.05
669.286	28.91
669.474	29.06
669.662	29.12
669.849	28.91
670.037	28.84
670.225	29.03
670.413	29.25
670.6	29.35
670.788	29.55
670.976	29.54
671.163	29.51
671.351	29.54
671.538	29.47
671.726	29.3
671.913	29.39
672.101	29.38
672.289	29.54
672.476	29.25
672.664	29.41
672.851	29.26
673.039	29.56
673.226	29.53
673.413	29.61
673.601	29.58
673.788	29.42
673.976	29.44
674.163	29.62
674.35	29.45
674.538	29.72
674.725	29.6
674.912	29.74
675.1	29.74
675.287	30.02
675.474	30.13
675.662	30.24
675.849	30.55
676.036	30.61
676.223	30.38
676.411	30.36
676.598	30.28
676.785	30.65
676.972	30.49
677.159	30.6
677.346	30.57
677.533	30.77
677.721	30.67
677.908	30.59
678.095	30.72
678.282	30.68
678.469	30.57
678.656	30.72
678.843	30.39
679.03	30.47
679.217	30.28
679.404	30.51
679.591	30.23
679.778	30.18
679.964	30.11
680.151	30.02
680.338	30.01
680.525	30.36
680.712	30.12
680.899	30.03
681.086	30.24
681.272	30.17
681.459	29.92
681.646	30.13
681.833	30.25
682.02	30.1
682.206	30.17
682.393	30.27
682.58	29.99
682.766	30.25
682.953	30.53
683.14	30.27
683.326	30.57
683.513	30.59
683.7	30.42
683.886	30.45
684.073	30.56
684.259	30.51
684.446	30.66
684.632	30.63
684.819	30.86
685.005	30.47
685.192	30.7
685.378	30.34
685.565	30.52
685.751	30.62
685.938	30.72
686.124	30.88
686.31	30.84
686.497	30.75
686.683	31.06
686.87	30.67
687.056	30.71
687.242	30.37
687.429	30.7
687.615	30.55
687.801	30.32
687.987	30.29
688.174	30.25
688.36	30.79
688.546	30.79
688.732	30.45
688.918	30.61
689.105	31.03
689.291	31.26
689.477	30.93
689.663	31.26
689.849	31.65
690.035	31.6
690.221	31.5
690.407	31.25
690.593	31.12
690.779	31.16
690.965	31.15
691.151	30.96
691.337	30.87
691.523	31.01
691.709	30.6
691.895	30.44
692.081	30.64
692.267	30.75
692.453	30.76
692.639	30.7
692.825	30.68
693.011	30.71
693.196	30.29
693.382	30.07
693.568	29.74
693.754	29.82
693.94	29.89
694.125	29.75
694.311	29.91
694.497	29.72
694.682	29.89
694.868	30.1
695.054	30.06
695.239	30.79
695.425	31.01
695.611	31.28
695.796	31.4
695.982	31.54
696.168	31.22
696.353	31.24
696.539	31.42
696.724	31.49
696.91	31.33
697.095	31.45
697.281	31.1
697.466	31.12
697.652	31.28
697.837	31.22
698.023	31.16
698.208	31.35
698.393	31.24
698.579	31.06
698.764	31.05
698.949	31.2
699.135	31.11
699.32	31.48
699.505	31.31
699.691	31.32
699.876	30.99
700.061	30.65
700.246	30.26
700.432	30.12
700.617	30.26
700.802	29.88
700.987	29.68
701.172	29.83
701.358	29.17
701.543	29.61
701.728	29.22
701.913	29.32
702.098	29.58
702.283	30.02
702.468	30.23
702.653	30.13
702.838	30.57
703.023	30.43
703.208	30.35
703.393	30.74
703.578	30.64
703.763	30.86
703.948	31.09
704.133	30.86
704.318	31.15
704.503	31.32
704.688	31.37
704.873	31.12
705.057	31.47
705.242	31.52
705.427	31.42
705.612	31.19
705.797	31.12
705.981	31.23
706.166	31.48
706.351	31.42
706.536	31.29
706.72	31.26
706.905	31.31
707.09	31.48
707.274	31.45
707.459	31.53
707.644	31.7
707.828	31.63
708.013	31.14
708.197	31.28
708.382	31.25
708.567	31
708.751	30.86
708.936	31.04
709.12	30.85
709.305	30.61
709.489	30.61
709.673	30.56
709.858	30.88
710.042	31.09
710.227	30.76
710.411	30.75
710.596	30.7
710.78	30.74
710.964	30.64
711.149	30.65
711.333	30.73
711.517	30.32
711.702	30.31
711.886	30.15
712.07	30.56
712.254	30.63
712.438	30.68
712.623	30.85
712.807	31.16
712.991	31.44
713.175	31.26
713.359	31.77
713.544	32.2
713.728	32.48
713.912	31.94
714.096	31.79
714.28	32.13
714.464	32
714.648	31.89
714.832	31.94
715.016	31.73
715.2	31.8
715.384	31.66
715.568	31.49
715.752	31.03
715.936	31.65
716.12	31.43
716.304	31.31
716.488	31.22
716.671	31.41
716.855	31.26
717.039	31.03
717.223	30.99
717.407	30.87
717.59	31.01
717.774	31.14
717.958	31.26
718.142	31.55
718.325	31.42
718.509	31.97
718.693	32.06
718.877	32.03
719.06	32.16
719.244	32.6
719.428	32.46
719.611	33.01
719.795	33.04
719.978	33.15
720.162	33.11
720.345	33.13
720.529	32.65
720.713	32.5
720.896	32.57
721.08	32.63
721.263	32.72
721.446	32.55
721.63	32.06
721.813	32.13
721.997	32.05
722.18	32.26
722.364	32.56
722.547	32.51
722.73	32.37
722.914	32.46
723.097	32.29
723.28	32.13
723.464	32.12
723.647	32.11
723.83	31.9
724.013	31.84
724.197	31.66
724.38	31.53
724.563	31.72
724.746	31.83
724.929	32.1
725.112	31.89
725.296	31.61
725.479	31.51
725.662	31.89
725.845	32.58
726.028	32.07
726.211	31.86
726.394	32.19
726.577	32
726.76	31.98
726.943	31.63
727.126	32.17
727.309	32.67
727.492	32.93
727.675	32.73
727.858	32.26
728.041	32.64
728.224	33.05
728.407	32.54
728.589	32.84
728.772	32.81
728.955	32.98
729.138	32.33
729.321	31.64
729.503	31.7
729.686	31.86
729.869	32.08
730.052	32.1
730.234	32.09
730.417	32.07
730.6	31.8
730.782	32.34
730.965	31.97
731.148	32.61
731.33	33.04
731.513	32.93
731.695	32.78
731.878	32.98
732.061	32.8
732.243	33.14
732.426	33.73
732.608	33.56
732.791	33.07
732.973	33.3
733.156	33.37
733.338	33.09
733.52	33.13
733.703	32.99
733.885	32.25
734.068	32.54
734.25	32.07
734.432	31.37
734.615	31.69
734.797	31.46
734.979	31.42
735.162	31.31
735.344	31.51
735.526	31.59
735.708	31.66
735.891	32.22
736.073	32.25
736.255	32.06
736.437	32.32
736.619	31.45
736.802	32.14
736.984	31.86
737.166	31.98
737.348	31.99
737.53	32.1
737.712	32.21
737.894	32.29
738.076	31.97
738.258	32.23
738.44	31.82
738.622	32.19
738.804	32.07
738.986	32.51
739.168	32.53
739.35	32.23
739.532	32.56
739.714	32.73
739.896	32.49
740.078	32.55
740.259	32.32
740.441	32.47
740.623	32.88
740.805	33.16
740.987	32.91
741.168	32.55
741.35	32.83
741.532	31.93
741.714	31.37
741.895	30.98
742.077	30.88
742.259	30.67
742.44	31.32
742.622	31.39
742.804	31.46
742.985	32.17
743.167	31.74
743.348	31.71
743.53	32.38
743.711	33.02
743.893	33.35
744.075	33.05
744.256	33.56
744.438	33.56
744.619	33.2
744.8	32.66
744.982	31.65
745.163	32.14
745.345	32.45
745.526	32.41
745.707	32.87
745.889	33.12
746.07	33.83
746.252	33.52
746.433	33.17
746.614	34.5
746.795	34.68
746.977	34.9
747.158	34.46
747.339	34.72
747.52	34.51
747.702	33.39
747.883	33.04
748.064	33.22
748.245	33.34
748.426	33.45
748.607	32.79
748.788	32.77
748.97	32.95
749.151	33.09
749.332	33
749.513	32.87
749.694	32.69
749.875	33.45
750.056	32.73
750.237	32.09
750.418	31.6
750.599	31.16
750.78	30.3
750.96	30.41
751.141	30.69
751.322	30.17
751.503	30.12
751.684	30.68
751.865	29.8
752.046	30.32
752.226	30.59
752.407	30.89
752.588	30.77
752.769	31.99
752.949	31.54
753.13	31.86
753.311	32.23
753.492	32.46
753.672	33.01
753.853	33.75
754.034	33
754.214	33.23
754.395	33.28
754.575	33.72
754.756	33.82
754.937	34.03
755.117	33.65
755.298	32.76
755.478	32.93
755.659	32.73
755.839	33.08
756.02	33
756.2	33.19
756.381	32.88
756.561	32.54
756.741	32
756.922	31.61
757.102	31.95
757.283	33.02
757.463	32.6
757.643	32.13
757.823	31.79
758.004	32.11
758.184	32.24
758.364	32.6
758.545	33.09
758.725	32.86
758.905	33.1
759.085	32.73
759.265	32.17
759.446	32.52
759.626	32.66
759.806	33.05
759.986	33.06
760.166	32.65
760.346	32.51
760.526	32.92
760.706	32.98
760.886	32.85
761.066	32.66
761.246	32.73
761.426	32.72
761.606	32.21
761.786	31.72
761.966	32.12
762.146	32.38
762.326	32.29
762.506	31.85
762.686	31.87
762.866	32.05
763.046	32.45
763.225	33.07
763.405	32.85
763.585	33.09
763.765	32.78
763.945	32.3
764.124	32.14
764.304	32.47
764.484	32.55
764.664	32.46
764.843	32.87
765.023	32.71
765.203	32
765.382	31.81
765.562	31.74
765.741	31.81
765.921	32.53
766.101	32.47
766.28	32.52
766.46	32.19
766.639	32.52
766.819	32.41
766.998	32.32
767.178	32.29
767.357	33.03
767.537	33.39
767.716	33.59
767.896	33.31
768.075	33.77
768.254	33.33
768.434	33.74
768.613	33.82
768.792	33.62
768.972	34.25
769.151	33.45
769.33	33.3
769.51	33.58
769.689	34.12
769.868	34.02
770.047	33.64
770.226	32.98
770.406	32.71
770.585	32.39
770.764	32.39
770.943	31.89
771.122	32.11
771.301	31.91
771.48	31.85
771.66	31.37
771.839	30.77
772.018	31.64
772.197	32.82
772.376	33.1
772.555	33.22
772.734	32.98
772.913	32.36
773.092	33.22
773.271	33.1
773.449	32.69
773.628	32.41
773.807	33.4
773.986	32.11
774.165	31.57
774.344	31.68
774.523	31.38
774.701	31.37
774.88	31.93
775.059	31.11
775.238	30.42
775.417	30.48
775.595	30.62
775.774	30.88
775.953	31.37
776.131	31.33
776.31	30.38
776.489	30.77
776.667	30.76
776.846	30.76
777.025	30.67
777.203	31.41
777.382	32.36
777.56	32.78
777.739	32.21
777.917	32.95
778.096	33.33
778.274	34.42
778.453	34.64
778.631	34.45
778.81	33.38
778.988	34.86
779.166	34.34
779.345	32.93
779.523	32.9
779.702	33.43
779.88	32.85
780.058	31.97
780.237	32.16
780.415	31.16
780.593	31.27
780.771	32.58
780.95	31.97
781.128	32.3
781.306	31.94
781.484	31.77
781.662	30.43
781.841	30.5
782.019	31.76
782.197	30.79
782.375	30.28
782.553	30.21
782.731	29.97
782.909	29.93
783.087	31.04
783.265	30.89
783.443	31.65
783.621	32.86
783.799	33.35
783.977	33.35
784.155	33.44
784.333	35.03
784.511	35.35
784.689	35.06
784.867	35.08
785.045	34.17
785.223	35.06
785.4	34.9
785.578	34
785.756	32.84
785.934	31.72
786.112	32.86
786.289	32.58
786.467	32.51
786.645	33.28
786.823	33.22
787	33.04
787.178	32.31
787.356	31.84
787.533	32.02
787.711	31.65
787.889	32.48
788.066	30.85
788.244	30.4
788.421	30.47
788.599	29.59
788.776	29.94
788.954	29.71
789.131	29.84
789.309	30.37
789.486	31.04
789.664	32.33
789.841	31.99
790.019	33.06
790.196	32.85
790.373	32.67
790.551	33.91
790.728	33.57
790.906	34.14
791.083	33.48
791.26	32.03
791.437	31.18
791.615	30.32
791.792	29.83
791.969	29.98
792.146	30.38
792.324	29.75
792.501	28.84
792.678	28.99
792.855	28.98
793.032	29.82
793.209	31.55
793.387	31.48
793.564	31.93
793.741	32.53
793.918	32.57
794.095	33.31
794.272	33.24
794.449	34.21
794.626	33.75
794.803	32.95
794.98	33.11
795.157	31.89
795.334	33.22
795.511	32.92
795.688	32.37
795.864	32.41
796.041	31.43
796.218	32.66
796.395	31.04
796.572	31.73
796.749	33.49
796.925	32.74
797.102	33.31
797.279	32.21
797.456	33.05
797.632	34.07
797.809	32.81
797.986	33.6
798.162	33.72
798.339	34.4
798.516	34.19
798.692	33.39
798.869	34.27
799.046	33.71
799.222	34.47
799.399	33.54
799.575	33.45
799.752	33.98
799.928	33.5
800.105	33.27
800.281	32.52
800.458	32.07
800.634	31.25
800.811	31.4
800.987	31.24
801.163	30.51
801.34	30.93
801.516	29.97
801.692	29.55
801.869	30.3
802.045	29.65
802.221	31.05
802.398	31.04
802.574	31.93
802.75	31.24
802.926	31.03
803.103	30.97
803.279	30.86
803.455	32.26
803.631	33.09
803.807	32.62
803.983	32.66
804.16	31.97
804.336	32.14
804.512	33.1
804.688	35.12
804.864	35.74
805.04	35.91
805.216	36.16
805.392	35.07
805.568	34.82
805.744	34.87
805.92	35.58
806.096	36.33
806.272	36.88
806.448	36.38
806.623	35.5
806.799	35.69
806.975	36.8
807.151	36.06
807.327	35.82
807.503	35.44
807.678	34.95
807.854	34.07
808.03	33.4
808.206	32.97
808.381	31.72
808.557	31.1
808.733	31.55
808.908	29.81
809.084	29.75
809.26	30.62
809.435	29.55
809.611	29.78
809.787	29.68
809.962	29.49
810.138	29.21
810.313	30.71
810.489	30.29
810.664	30.36
810.84	31.03
811.015	31.89
811.191	31.75
811.366	33.24
811.542	33.37
811.717	33.94
811.892	35.52
812.068	35.76
812.243	33.68
812.419	34.99
812.594	34.07
812.769	34.01
812.944	33.59
813.12	32.67
813.295	33.26
813.47	32.45
813.645	32.29
813.821	30.29
813.996	29.54
814.171	29.35
814.346	29.65
814.521	30.11
814.697	30.31
814.872	30.19
815.047	30.36
815.222	31.07
815.397	32.28
815.572	32
815.747	31.6
815.922	31.73
816.097	33.01
816.272	31.03
816.447	31.75
816.622	31.37
816.797	32.16
816.972	33.15
817.147	31.79
817.322	30.88
817.496	30.19
817.671	30.85
817.846	32.06
818.021	32.2
818.196	33.46
818.371	32.54
818.545	32.33
818.72	32.4
818.895	32.14
819.069	31.3
819.244	32.55
819.419	33.12
819.594	32.87
819.768	31.52
819.943	32.54
820.117	32.11
820.292	32.44
820.467	32.59
820.641	32.64
820.816	32.72
820.99	33.24
821.165	32.63
821.339	32.73
821.514	32.69
821.688	33.05
821.863	32.64
822.037	32.51
822.212	32.34
822.386	32.13
822.56	31.8
822.735	31.62
822.909	31.53
823.084	31.7
823.258	31.5
823.432	31.58
823.606	31.15
823.781	31.34
823.955	31.72
824.129	31.82
824.303	32.04
824.478	32.15
824.652	32.4
824.826	32.29
825	32.01
825.174	31.81
825.348	31.65
825.523	32.31
825.697	32.21
825.871	32.31
826.045	32.43
826.219	32.29
826.393	32.3
826.567	32.24
826.741	32.56
826.915	32.82
827.089	33.33
827.263	32.94
827.437	32.23
827.611	31.83
827.784	31.53
827.958	31.25
828.132	31.35
828.306	31.71
828.48	31.16
828.654	30.79
828.827	30.48
829.001	30.34
829.175	31.46
829.349	32.26
829.522	32.29
829.696	31.99
829.87	32.12
830.044	33.38
830.217	33.13
830.391	34.08
830.565	33.87
830.738	34.88
830.912	34.3
831.085	33.4
831.259	34.54
831.432	34.8
831.606	36.1
831.779	35.45
831.953	34.01
832.126	33.96
832.3	33.69
832.473	33.83
832.647	33.08
832.82	33.36
832.994	33.48
833.167	33.41
833.34	33.03
833.514	32.53
833.687	32.59
833.86	32.88
834.034	33.01
834.207	33.05
834.38	32.95
834.553	33.16
834.727	33.45
834.9	33.79
835.073	33.25
835.246	33.85
835.419	33.27
835.593	34
835.766	33.43
835.939	33.55
836.112	33.64
836.285	33.88
836.458	33.54
836.631	34.16
836.804	34.17
836.977	34.85
837.15	34.42
837.323	34.59
837.496	35.2
837.669	33.37
837.842	33.62
838.015	33.69
838.188	33.37
838.361	33.21
838.533	32.95
838.706	31.98
838.879	31.24
839.052	31.36
839.225	32.06
839.398	31.41
839.57	33.84
839.743	32.49
839.916	32.22
840.088	34.51
840.261	33.54
840.434	31.81
840.607	33.54
840.779	33.15
840.952	33.45
841.124	34.75
841.297	33.64
841.47	33.25
841.642	33.55
841.815	35
841.987	30.66
842.16	34.21
842.332	34.16
842.505	31.76
842.677	31.52
842.85	32.65
843.022	31.21
843.194	30.67
843.367	30.76
843.539	30.28
843.712	28.05
843.884	27.35
844.056	25.4
844.229	27.36
844.401	28.76
844.573	30.17
844.745	29.05
844.918	29.51
845.09	32.86
845.262	35.59
845.434	37.24
845.606	41.06
845.779	48.11
845.951	49.07
846.123	47.59
846.295	47.31
846.467	46.39
846.639	48.35
846.811	48.46
846.983	45.67
847.155	43.56
847.327	46.5
847.499	43.6
847.671	41.39
847.843	39.65
848.015	37.95
848.187	38.54
848.359	39.5
848.531	37.36
848.703	35.26
848.875	38.65
849.047	37.98
849.218	33.86
849.39	35.02
849.562	33.12
849.734	34.51
849.905	37.36
850.077	39.41
850.249	35.82
850.421	34.3
850.592	30.52
850.764	28.59
850.936	27.25
851.107	27.27
851.279	25.97
851.451	28.7
851.622	28.13
851.794	30.04
851.965	28.7
852.137	30.44
852.308	34.79
852.48	41.09
852.651	40.56
852.823	43.55
852.994	42.89
853.166	41.25
853.337	39.23
853.509	39.52
853.68	40.74
853.851	42.1
854.023	42.55
854.194	42.48
854.365	40.89
854.537	38.11
854.708	37.93
854.879	39.58
855.05	40.9
855.222	42.25
855.393	44.28
855.564	43.14
855.735	43.87
855.906	43.86
856.078	40.46
856.249	39.85
856.42	44.67
856.591	43
856.762	43.39
856.933	44.64
857.104	41.26
857.275	40.2
857.446	37.68
857.617	34.97
857.788	34.98
857.959	35.27
858.13	37.45
858.301	36.66
858.472	37.49
858.643	36.51
858.814	35.14
858.985	31.16
859.155	33.19
859.326	33.15
859.497	31.84
859.668	34.53
859.839	32.65
860.009	30.75
860.18	30.38
860.351	27.34
860.522	29.84
860.692	31.65
860.863	35.98
861.034	35.82
861.204	35.61
861.375	36.98
861.546	33.2
861.716	35.55
861.887	38.49
862.057	35.99
862.228	37.27
862.398	37.49
862.569	38
862.739	46.09
862.91	45
863.08	44.59
863.251	43.94
863.421	38.06
863.592	39.51
863.762	35.97
863.932	37.27
864.103	40.62
864.273	37.62
864.443	35.98
864.614	32.4
864.784	32.29
864.954	36.59
865.125	40.15
865.295	43.13
865.465	40.25
865.635	40.91
865.805	41.98
865.976	35.75
866.146	36.74
866.316	34.55
866.486	32.58
866.656	34.88
866.826	32.42
866.996	29.89
867.166	38.72
867.336	40.03
867.506	39.87
867.676	39.08
867.846	42.09
868.016	41.92
868.186	45.09
868.356	43.36
868.526	34.36
868.696	32.74
868.866	30.58
869.036	21.24
869.206	17.37
869.376	24.38
869.545	23.9
869.715	24.58
869.885	22.46
870.055	19.42
870.224	21.78
870.394	26.1
870.564	27.67
870.734	29.43
870.903	35.55
871.073	38.55
871.243	30.78
871.412	32.85
871.582	33.67
871.751	43.73
871.921	48.48
872.091	48.52
872.26	50.29
872.43	50.21
872.599	50.14
872.769	48.44
872.938	49.79
873.108	53.33
873.277	55.03
873.446	56.51
873.616	51.2
873.785	53.04
873.955	51.19
874.124	51.7
874.293	50.14
874.463	49.51
874.632	48.52
874.801	46.87
874.971	44.09
875.14	42.92
875.309	41.95
875.478	41.37
875.647	37.31
875.817	40.68
875.986	38.28
876.155	43.12
876.324	44.39
876.493	43.67
876.662	43.77
876.831	45.31
877	42.43
877.17	38.85
877.339	38.83
877.508	36.78
877.677	38.96
877.846	37.09
878.015	33.69
878.184	32.78
878.352	33.59
878.521	33.71
878.69	32.22
878.859	33.58
879.028	37.21
879.197	35.72
879.366	35.19
879.534	31.8
879.703	32.36
879.872	34.66
880.041	35.3
880.21	34.2
880.378	36.21
880.547	35.52
880.716	35.54
880.884	33.94
881.053	35.11
881.222	36.39
881.39	35.91
881.559	36.57
881.727	35.55
881.896	34.87
882.065	35.22
882.233	34.31
882.402	35.02
882.57	34.93
882.739	35.28
882.907	35.11
883.076	33.67
883.244	34.1
883.412	34.06
883.581	34
883.749	34.13
883.918	33.96
884.086	34.13
884.254	34.2
884.423	34.08
884.591	34.52
884.759	33.62
884.927	35.32
885.096	35.72
885.264	35.95
885.432	36.59
885.6	37.81
885.769	38.34
885.937	38.42
886.105	38.17
886.273	39.3
886.441	39.56
886.609	41.44
886.777	40.25
886.945	39.56
887.113	38.06
887.281	37.11
887.449	35.46
887.617	31.04
887.785	30.79
887.953	29.61
888.121	27.22
888.289	25.74
888.457	25.79
888.625	23.08
888.793	21.96
888.961	22.72
889.129	22.43
889.296	23.58
889.464	29.19
889.632	28.97
889.8	28.73
889.967	29.6
890.135	28.09
