Data from 2938465_Reflection_1.txt Node
Date: Wed Jun 17 13:51:42 EDT 2015
User: robert
Spectrometer: USB4E03002
Autoset integration time: false
Trigger mode: 4
Integration Time (sec): 1.000000E-1
Scans to average: 10
Electric dark correction enabled: true
Nonlinearity correction enabled: false
Boxcar width: 5
Stray light correction enabled: false
XAxis mode: Wavelengths
Stop averaging: false
Number of Pixels in Spectrum: 3648
>>>>>Begin Spectral Data<<<<<
177.575	14.44
177.794	27.65
178.014	-8.52
178.233	-165.85
178.452	161.45
178.672	33.27
178.891	46.05
179.11	84.13
179.33	545.83
179.549	-3749.38
179.768	-242.05
179.987	-56.54
180.207	-386.43
180.426	-132.87
180.645	192.01
180.864	107.56
181.084	102.68
181.303	115.28
181.522	100.28
181.741	164.02
181.96	103.19
182.179	167.46
182.398	175.08
182.618	146.04
182.837	150.74
183.056	353.42
183.275	300.75
183.494	302.63
183.713	248.94
183.932	2167.76
184.151	581.63
184.37	298.4
184.589	174.5
184.808	148.32
185.027	465.56
185.246	296.67
185.465	218.69
185.684	235.06
185.903	275.45
186.122	241.61
186.341	148.27
186.56	155.9
186.779	215.37
186.998	267.88
187.216	157.16
187.435	136.85
187.654	134.83
187.873	144.49
188.092	163.74
188.311	131.04
188.53	125.08
188.748	144.52
188.967	164.97
189.186	181.97
189.405	171.7
189.623	89.71
189.842	112.79
190.061	-414
190.28	-9.76
190.498	8.2
190.717	-143.16
190.936	35.43
191.154	98.62
191.373	102.82
191.592	500.76
191.81	-13.15
192.029	8.38
192.248	-76.66
192.466	28.87
192.685	15.85
192.904	-1.39
193.122	26.05
193.341	72.58
193.559	93.17
193.778	72.7
193.996	79.59
194.215	100.51
194.433	88.35
194.652	108.72
194.87	96.69
195.089	128.92
195.307	117.45
195.526	236.35
195.744	176.82
195.963	134.99
196.181	124.23
196.399	101.87
196.618	69.24
196.836	95.34
197.055	93.55
197.273	86.13
197.491	79.42
197.71	73.24
197.928	56.46
198.146	47.59
198.365	47.25
198.583	55.29
198.801	45.96
199.019	57.48
199.238	50.28
199.456	30.85
199.674	28.27
199.892	56.7
200.111	67.27
200.329	73.07
200.547	73.87
200.765	61.24
200.983	62.89
201.202	99.73
201.42	148.02
201.638	129.85
201.856	123.6
202.074	122.22
202.292	105.28
202.51	105.43
202.728	99.56
202.946	112.94
203.165	100.43
203.383	91.97
203.601	81.55
203.819	67.99
204.037	62.36
204.255	55.22
204.473	31.65
204.691	32.58
204.909	59.99
205.127	60.66
205.345	52.9
205.562	58.66
205.78	77.85
205.998	84.81
206.216	72.34
206.434	89.95
206.652	100.1
206.87	105.74
207.088	113.68
207.306	104.16
207.523	98.86
207.741	104.29
207.959	113.26
208.177	115.98
208.395	93.38
208.612	97.2
208.83	102.85
209.048	84.12
209.266	79.6
209.483	82.26
209.701	71.28
209.919	76.83
210.136	84.4
210.354	62.16
210.572	55.91
210.79	57.96
211.007	57.48
211.225	44.96
211.442	56.55
211.66	56.9
211.878	39.89
212.095	42.05
212.313	54.66
212.53	44.3
212.748	63.49
212.966	62.76
213.183	61.17
213.401	73.48
213.618	82.9
213.836	79.91
214.053	78.57
214.271	86.92
214.488	97.37
214.705	91.76
214.923	90.13
215.14	84.74
215.358	83.01
215.575	74.96
215.793	62.93
216.01	48.67
216.227	48.28
216.445	45.09
216.662	43.06
216.879	42.52
217.097	29.17
217.314	21.16
217.531	7.51
217.749	8.2
217.966	22.77
218.183	15.16
218.4	8.36
218.618	17.53
218.835	-7.01
219.052	-4.82
219.269	-35.55
219.487	-17.13
219.704	11.26
219.921	13.15
220.138	-2.06
220.355	-14.13
220.572	-2.66
220.79	4.64
221.007	4.88
221.224	6.35
221.441	4.43
221.658	4.93
221.875	7.18
222.092	6.02
222.309	12.27
222.526	9.05
222.743	13.41
222.96	16.95
223.177	15.76
223.394	14.06
223.611	20.7
223.828	23.97
224.045	24.41
224.262	20.91
224.479	19.23
224.696	20.66
224.913	21.91
225.13	18.55
225.347	17.65
225.564	17.42
225.781	16.88
225.997	16.36
226.214	15.94
226.431	15.53
226.648	15.6
226.865	14.9
227.082	14.67
227.298	14.11
227.515	15.11
227.732	14.97
227.949	14.64
228.165	15.3
228.382	13.43
228.599	12.82
228.816	12.4
229.032	12.71
229.249	12.45
229.466	13.36
229.682	14.37
229.899	14.19
230.116	12.94
230.332	12.13
230.549	10.41
230.765	13.48
230.982	13.77
231.199	17.31
231.415	19.37
231.632	20.75
231.848	20.9
232.065	20.03
232.281	19.93
232.498	20.23
232.714	22.91
232.931	23.71
233.147	23.2
233.364	21.81
233.58	20.08
233.797	17.17
234.013	17.37
234.23	14.89
234.446	15.44
234.662	13.19
234.879	12.13
235.095	11.36
235.312	12.05
235.528	10.57
235.744	8.89
235.961	9.07
236.177	9.92
236.393	9.31
236.61	10.6
236.826	9.46
237.042	10.04
237.258	12.46
237.475	12.81
237.691	11.43
237.907	10.47
238.123	12.87
238.339	12.5
238.556	12.43
238.772	12.61
238.988	11.26
239.204	11.2
239.42	11.97
239.636	12.3
239.853	11.2
240.069	11.76
240.285	11.93
240.501	11.46
240.717	11
240.933	11.3
241.149	10.57
241.365	11.23
241.581	11.59
241.797	11.45
242.013	10.59
242.229	11.3
242.445	10.8
242.661	10.39
242.877	11.19
243.093	11.21
243.309	10.32
243.525	10.46
243.741	9.79
243.957	9.43
244.173	9.01
244.388	9.12
244.604	9.1
244.82	9.01
245.036	9.16
245.252	8.77
245.468	8.74
245.683	9.04
245.899	8.98
246.115	8.8
246.331	8.91
246.547	8.89
246.762	8.81
246.978	8.28
247.194	8.4
247.409	8.7
247.625	8.45
247.841	8.72
248.057	8.4
248.272	9.08
248.488	9.34
248.703	8.56
248.919	8.53
249.135	8.19
249.35	9.17
249.566	9.43
249.782	9.05
249.997	9.07
250.213	8.69
250.428	8.54
250.644	8.31
250.859	8.52
251.075	9.42
251.29	9.32
251.506	9.43
251.721	8.86
251.937	8.15
252.152	7.9
252.368	8.7
252.583	9.16
252.798	9.15
253.014	9.56
253.229	10.02
253.445	9.59
253.66	10.76
253.875	11.06
254.091	11.68
254.306	11.76
254.521	11.82
254.737	10.38
254.952	8.42
255.167	8.6
255.383	7.78
255.598	7.12
255.813	6.97
256.028	5.96
256.244	5.84
256.459	5.42
256.674	5.28
256.889	5.97
257.104	6.09
257.32	6.98
257.535	6.47
257.75	6.86
257.965	6.91
258.18	6.9
258.395	7.2
258.61	7.12
258.826	7.28
259.041	7.56
259.256	7.52
259.471	7.82
259.686	7.85
259.901	8.77
260.116	8.18
260.331	8.45
260.546	8.57
260.761	8.42
260.976	8.82
261.191	8.81
261.406	9.04
261.621	8.93
261.836	8.56
262.05	8.3
262.265	7.88
262.48	8.06
262.695	7.45
262.91	7.74
263.125	7.47
263.34	7.13
263.555	7.57
263.769	7.94
263.984	6.98
264.199	7.71
264.414	7.37
264.629	6.94
264.843	6.71
265.058	6.82
265.273	6.65
265.488	6.94
265.702	7.44
265.917	6.69
266.132	6.36
266.346	6.7
266.561	6.34
266.776	7.18
266.99	7.25
267.205	7.97
267.42	7.28
267.634	7.52
267.849	7.45
268.063	7.55
268.278	8.7
268.492	8.68
268.707	8.81
268.922	8.31
269.136	7.44
269.351	7.14
269.565	7.26
269.78	7.57
269.994	7.34
270.209	7.36
270.423	6.72
270.637	5.88
270.852	5.95
271.066	6.21
271.281	6.56
271.495	6.36
271.709	6.58
271.924	6.2
272.138	6.35
272.353	6.57
272.567	6.42
272.781	7
272.996	7.05
273.21	7.02
273.424	6.15
273.638	6.13
273.853	6.65
274.067	6.2
274.281	6.57
274.495	6.57
274.71	6.42
274.924	6.61
275.138	6.4
275.352	5.76
275.566	5.81
275.781	6.24
275.995	6.7
276.209	6.59
276.423	6.87
276.637	5.87
276.851	5.45
277.065	5.38
277.279	5.57
277.493	5.74
277.707	6.57
277.921	6.23
278.135	6.05
278.349	5.19
278.563	5.5
278.777	5.6
278.991	6.13
279.205	6.62
279.419	6.8
279.633	6.75
279.847	6.4
280.061	6.21
280.275	6.04
280.489	6.56
280.703	6.81
280.917	6.9
281.131	7.22
281.344	7.38
281.558	7.09
281.772	6.89
281.986	6.88
282.2	6.71
282.414	6.86
282.627	7.14
282.841	6.9
283.055	6.96
283.269	6.85
283.482	6.56
283.696	6.37
283.91	6.32
284.123	6.61
284.337	6.75
284.551	7.01
284.764	7.32
284.978	7.06
285.192	7.21
285.405	7.18
285.619	7.09
285.833	7.15
286.046	7.14
286.26	7.62
286.473	7.18
286.687	6.8
286.9	6.98
287.114	6.63
287.327	6.67
287.541	6.15
287.754	5.97
287.968	5.69
288.181	5.54
288.395	5.75
288.608	5.44
288.822	5.45
289.035	5.16
289.248	5.01
289.462	5.15
289.675	5.25
289.889	5.52
290.102	5.6
290.315	5.66
290.529	6.09
290.742	5.96
290.955	6.11
291.169	6.15
291.382	6.84
291.595	6.88
291.808	6.91
292.022	7.04
292.235	6.84
292.448	7.31
292.661	7.18
292.875	6.75
293.088	6.97
293.301	6.98
293.514	6.95
293.727	6.83
293.94	6.9
294.153	6.81
294.367	6.6
294.58	6.82
294.793	6.46
295.006	6.81
295.219	7.06
295.432	7.07
295.645	7.24
295.858	7.34
296.071	7.17
296.284	6.91
296.497	6.79
296.71	6.89
296.923	7.13
297.136	6.96
297.349	7.14
297.562	6.9
297.775	6.73
297.988	6.69
298.201	6.93
298.414	6.78
298.626	7.03
298.839	7.45
299.052	7.36
299.265	6.7
299.478	7.03
299.691	6.93
299.903	7.08
300.116	7.31
300.329	6.85
300.542	6.62
300.755	7.03
300.967	7.29
301.18	7.18
301.393	7.57
301.605	7.79
301.818	7.4
302.031	7.28
302.243	6.97
302.456	7.2
302.669	7
302.881	6.76
303.094	6.26
303.307	6.13
303.519	6.45
303.732	6.05
303.944	6.16
304.157	6.52
304.37	6.31
304.582	6.98
304.795	6.44
305.007	6.85
305.22	7.34
305.432	7.65
305.645	7.2
305.857	6.6
306.069	7.26
306.282	7.41
306.494	7.57
306.707	7.74
306.919	7.11
307.132	7.43
307.344	7.25
307.556	7.38
307.769	7.51
307.981	7.64
308.193	7.74
308.406	7.13
308.618	7.1
308.83	6.91
309.043	6.62
309.255	6.94
309.467	6.58
309.679	6.49
309.892	5.97
310.104	5.74
310.316	5.61
310.528	5.6
310.74	5.44
310.953	5.3
311.165	4.9
311.377	4.8
311.589	4.52
311.801	4.77
312.013	4.87
312.225	4.82
312.437	5.28
312.649	5.45
312.862	5.24
313.074	5.93
313.286	6.24
313.498	6.56
313.71	7.37
313.922	7.6
314.134	7.04
314.346	7.13
314.558	7.81
314.77	7.67
314.982	7.58
315.193	7.65
315.405	7.22
315.617	7.04
315.829	7.92
316.041	7.3
316.253	7.51
316.465	8.06
316.677	8.08
316.888	7.58
317.1	7.61
317.312	7.55
317.524	7.61
317.736	8.07
317.947	7.62
318.159	6.98
318.371	7.51
318.583	7.54
318.794	7.61
319.006	7.64
319.218	7.51
319.43	7.08
319.641	7.05
319.853	7.2
320.064	6.81
320.276	7.13
320.488	6.81
320.699	6.56
320.911	6.02
321.123	5.85
321.334	5.77
321.546	6.01
321.757	6.29
321.969	6.73
322.18	6.47
322.392	6.68
322.603	7.03
322.815	7.32
323.026	7.47
323.238	7.71
323.449	7.74
323.661	7.59
323.872	7.94
324.083	8.07
324.295	8.24
324.506	8.41
324.718	8.33
324.929	8.44
325.14	8.41
325.352	8.15
325.563	8.24
325.774	8.65
325.986	9.22
326.197	9.05
326.408	8.84
326.62	8.17
326.831	8.5
327.042	8.47
327.253	8.18
327.464	8
327.676	8.14
327.887	7.89
328.098	7.59
328.309	7.15
328.52	6.76
328.732	6.73
328.943	6.88
329.154	6.32
329.365	6.35
329.576	6.04
329.787	6.34
329.998	6.54
330.209	6.64
330.42	6.28
330.631	6.54
330.842	6.89
331.053	6.9
331.264	6.88
331.475	6.8
331.686	6.92
331.897	6.77
332.108	6.41
332.319	6.75
332.53	6.75
332.741	6.89
332.952	6.41
333.163	6.51
333.374	6.34
333.585	6.28
333.795	6.82
334.006	6.48
334.217	6.95
334.428	7.05
334.639	6.48
334.849	6.47
335.06	6.35
335.271	6.5
335.482	6.3
335.692	6.54
335.903	6.58
336.114	5.89
336.325	5.84
336.535	5.73
336.746	6.01
336.957	5.83
337.167	5.9
337.378	6.24
337.589	6.62
337.799	6.28
338.01	6.62
338.22	6.99
338.431	7.38
338.642	7.37
338.852	7.03
339.063	7.1
339.273	7.38
339.484	7.37
339.694	7.11
339.905	7
340.115	7.75
340.326	7.76
340.536	7.55
340.746	7.52
340.957	7.52
341.167	7.42
341.378	7.02
341.588	7
341.799	7.29
342.009	7.06
342.219	6.86
342.43	6.65
342.64	6.48
342.85	6.45
343.061	6.52
343.271	6.98
343.481	7.44
343.691	7.34
343.902	6.78
344.112	6.41
344.322	6.76
344.532	6.84
344.743	6.55
344.953	6.38
345.163	6.64
345.373	6.6
345.583	6.24
345.793	6.36
346.004	7.06
346.214	7.78
346.424	7.99
346.634	8.07
346.844	7.93
347.054	7.97
347.264	8.52
347.474	8.09
347.684	7.89
347.894	7.95
348.104	7.83
348.314	7.38
348.524	6.94
348.734	6.72
348.944	6.68
349.154	6.81
349.364	6.49
349.574	5.64
349.784	5.98
349.994	5.92
350.204	6.02
350.413	6.26
350.623	6.24
350.833	6.56
351.043	6.42
351.253	6.4
351.463	6.22
351.672	6.66
351.882	7.05
352.092	6.83
352.302	6.87
352.511	6.64
352.721	6.18
352.931	5.93
353.141	5.64
353.35	5.93
353.56	5.7
353.77	5.85
353.979	5.62
354.189	5.6
354.399	5.53
354.608	5.59
354.818	5.82
355.027	5.82
355.237	5.83
355.447	5.78
355.656	5.58
355.866	5.7
356.075	5.55
356.285	5.62
356.494	5.46
356.704	5.62
356.913	5.32
357.123	5.32
357.332	5.26
357.542	5.42
357.751	5.46
357.96	5.32
358.17	5.34
358.379	5.32
358.589	5.5
358.798	5.51
359.007	5.07
359.217	5.24
359.426	4.95
359.635	4.91
359.845	4.79
360.054	4.9
360.263	4.94
360.472	4.87
360.682	5.02
360.891	5.13
361.1	5.28
361.309	5.44
361.519	5.57
361.728	5.68
361.937	5.95
362.146	6.2
362.355	6.06
362.564	6.24
362.774	6.23
362.983	6.12
363.192	5.88
363.401	5.47
363.61	5.38
363.819	5.61
364.028	5.39
364.237	5.16
364.446	4.93
364.655	4.84
364.864	4.96
365.073	4.97
365.282	5.18
365.491	4.94
365.7	5.14
365.909	5.12
366.118	4.98
366.327	5.25
366.536	5.31
366.745	5.58
366.954	5.75
367.162	5.55
367.371	5.64
367.58	5.45
367.789	5.45
367.998	5.2
368.207	5.41
368.415	5.1
368.624	5.07
368.833	5.1
369.042	4.58
369.25	4.78
369.459	5.08
369.668	4.89
369.877	4.98
370.085	5.06
370.294	5.25
370.503	4.94
370.711	5.33
370.92	5.14
371.129	5.09
371.337	5.43
371.546	5.19
371.754	5.07
371.963	5.18
372.171	5.01
372.38	5.07
372.589	5.21
372.797	5.65
373.006	5.21
373.214	5.51
373.423	5.5
373.631	5.41
373.84	5.37
374.048	5.48
374.256	5.49
374.465	5.54
374.673	5.41
374.882	5.28
375.09	5.15
375.298	4.99
375.507	4.88
375.715	4.86
375.923	4.85
376.132	4.72
376.34	4.14
376.548	4.29
376.757	4.32
376.965	4.53
377.173	4.55
377.381	4.55
377.59	4.77
377.798	4.84
378.006	5.01
378.214	5.15
378.423	5.23
378.631	5.42
378.839	5.27
379.047	5.21
379.255	4.91
379.463	4.7
379.671	4.55
379.879	4.47
380.088	4.39
380.296	4.23
380.504	4.09
380.712	4.16
380.92	4.15
381.128	4.13
381.336	4.17
381.544	4.16
381.752	4.2
381.96	4.34
382.168	4.48
382.376	4.44
382.584	4.28
382.791	4.28
382.999	4.32
383.207	4.18
383.415	4.31
383.623	4.19
383.831	4.18
384.039	4.22
384.247	4.15
384.454	4
384.662	4.01
384.87	3.99
385.078	3.85
385.285	3.68
385.493	3.9
385.701	3.69
385.909	3.75
386.116	3.95
386.324	3.7
386.532	3.49
386.739	3.42
386.947	3.56
387.155	3.67
387.362	3.87
387.57	3.79
387.778	3.82
387.985	3.66
388.193	3.67
388.4	3.65
388.608	4.15
388.816	4.2
389.023	4.2
389.231	3.92
389.438	3.84
389.646	3.66
389.853	3.65
390.061	3.4
390.268	3.54
390.475	3.52
390.683	3.53
390.89	3.35
391.098	3.3
391.305	3.32
391.512	3.25
391.72	3.4
391.927	3.51
392.135	3.46
392.342	3.71
392.549	3.74
392.756	3.84
392.964	3.77
393.171	3.72
393.378	3.74
393.586	3.91
393.793	4.09
394	3.8
394.207	3.85
394.414	4.03
394.622	3.87
394.829	4.05
395.036	3.79
395.243	3.73
395.45	3.89
395.657	3.88
395.864	3.67
396.072	3.65
396.279	3.72
396.486	3.45
396.693	3.55
396.9	3.53
397.107	3.42
397.314	3.77
397.521	3.76
397.728	3.72
397.935	4.19
398.142	4.17
398.349	3.98
398.556	4.27
398.763	4.28
398.97	4.28
399.177	4.36
399.383	4.35
399.59	4.1
399.797	4.11
400.004	4.01
400.211	3.68
400.418	3.77
400.625	3.83
400.831	3.38
401.038	3.48
401.245	3.45
401.452	3.47
401.658	3.37
401.865	3.51
402.072	3.51
402.279	3.4
402.485	3.31
402.692	3.28
402.899	3.31
403.105	3.56
403.312	3.57
403.519	3.45
403.725	3.41
403.932	3.51
404.138	3.42
404.345	3.43
404.552	3.53
404.758	3.77
404.965	3.75
405.171	3.85
405.378	3.76
405.584	3.81
405.791	3.87
405.997	3.87
406.204	3.88
406.41	3.9
406.617	3.94
406.823	4.01
407.029	3.8
407.236	3.91
407.442	3.83
407.649	3.92
407.855	3.78
408.061	3.7
408.268	3.62
408.474	3.45
408.68	3.43
408.887	3.42
409.093	3.4
409.299	3.47
409.505	3.35
409.712	3.34
409.918	3.26
410.124	3.4
410.33	3.48
410.537	3.56
410.743	3.56
410.949	3.49
411.155	3.51
411.361	3.45
411.567	3.51
411.773	3.42
411.98	3.62
412.186	3.48
412.392	3.45
412.598	3.41
412.804	3.2
413.01	3.18
413.216	3.13
413.422	3.16
413.628	3.07
413.834	2.92
414.04	2.97
414.246	2.67
414.452	2.86
414.658	2.77
414.864	2.78
415.07	2.93
415.275	2.95
415.481	3.01
415.687	2.89
415.893	2.91
416.099	2.81
416.305	2.85
416.511	3.07
416.716	2.95
416.922	3.09
417.128	3.06
417.334	3.05
417.539	3.05
417.745	3.01
417.951	3.05
418.157	3.1
418.362	3.16
418.568	3.16
418.774	3.02
418.979	3.1
419.185	3.03
419.391	2.99
419.596	2.98
419.802	2.94
420.008	2.95
420.213	3.52
420.419	3.47
420.624	3.41
420.83	3.42
421.035	3.35
421.241	3.33
421.446	3.29
421.652	3.3
421.857	3.3
422.063	3.29
422.268	3.22
422.474	2.73
422.679	2.77
422.885	2.87
423.09	2.79
423.295	2.83
423.501	2.75
423.706	2.76
423.911	2.82
424.117	2.92
424.322	2.94
424.527	3.01
424.733	2.96
424.938	2.98
425.143	3
425.349	3.06
425.554	3.09
425.759	3.21
425.964	3.12
426.169	3.13
426.375	2.97
426.58	2.95
426.785	3.05
426.99	3.02
427.195	2.95
427.4	2.8
427.605	2.72
427.811	2.68
428.016	2.58
428.221	2.77
428.426	2.66
428.631	2.72
428.836	2.83
429.041	2.69
429.246	2.62
429.451	2.48
429.656	2.5
429.861	2.63
430.066	2.73
430.271	2.75
430.476	2.68
430.681	2.86
430.886	2.82
431.09	2.76
431.295	2.75
431.5	2.66
431.705	2.7
431.91	2.78
432.115	2.73
432.32	2.72
432.524	2.71
432.729	2.64
432.934	2.59
433.139	2.53
433.343	2.63
433.548	2.69
433.753	2.78
433.958	2.85
434.162	2.77
434.367	2.74
434.572	2.73
434.776	2.68
434.981	2.69
435.186	2.46
435.39	2.45
435.595	2.42
435.799	2.37
436.004	2.4
436.209	2.29
436.413	2.22
436.618	2.17
436.822	2.11
437.027	2.22
437.231	2.34
437.436	2.45
437.64	2.55
437.845	2.47
438.049	2.51
438.253	2.53
438.458	2.54
438.662	2.62
438.867	2.74
439.071	2.85
439.275	2.83
439.48	2.8
439.684	2.75
439.888	2.69
440.093	2.76
440.297	2.76
440.501	2.72
440.706	2.82
440.91	2.89
441.114	2.83
441.318	2.75
441.523	2.75
441.727	2.76
441.931	2.97
442.135	2.92
442.339	2.78
442.543	2.8
442.748	2.82
442.952	2.82
443.156	2.72
443.36	2.73
443.564	2.72
443.768	2.7
443.972	2.63
444.176	2.45
444.38	2.5
444.584	2.5
444.788	2.46
444.992	2.46
445.196	2.44
445.4	2.48
445.604	2.38
445.808	2.48
446.012	2.5
446.216	2.55
446.42	2.63
446.624	2.64
446.828	2.63
447.032	2.59
447.235	2.58
447.439	2.59
447.643	2.56
447.847	2.68
448.051	2.58
448.254	2.66
448.458	2.7
448.662	2.7
448.866	2.68
449.069	2.75
449.273	2.76
449.477	2.8
449.681	2.75
449.884	2.74
450.088	2.75
450.292	2.8
450.495	2.61
450.699	2.52
450.902	2.51
451.106	2.49
451.31	2.38
451.513	2.49
451.717	2.42
451.92	2.37
452.124	2.43
452.327	2.39
452.531	2.37
452.734	2.41
452.938	2.36
453.141	2.35
453.345	2.33
453.548	2.33
453.752	2.26
453.955	2.39
454.158	2.41
454.362	2.33
454.565	2.41
454.769	2.43
454.972	2.59
455.175	2.66
455.379	2.64
455.582	2.81
455.785	2.92
455.988	2.97
456.192	2.86
456.395	2.9
456.598	2.96
456.801	2.88
457.005	2.89
457.208	2.73
457.411	2.72
457.614	2.66
457.817	2.53
458.021	2.51
458.224	2.55
458.427	2.48
458.63	2.47
458.833	2.45
459.036	2.49
459.239	2.46
459.442	2.43
459.645	2.42
459.848	2.44
460.051	2.52
460.254	2.57
460.457	2.46
460.66	2.6
460.863	2.64
461.066	2.71
461.269	2.66
461.472	2.7
461.675	2.73
461.878	2.75
462.081	2.8
462.284	2.79
462.486	2.68
462.689	2.69
462.892	2.54
463.095	2.5
463.298	2.47
463.5	2.48
463.703	2.4
463.906	2.51
464.109	2.47
464.311	2.52
464.514	2.52
464.717	2.7
464.92	2.73
465.122	2.83
465.325	2.87
465.528	2.78
465.73	2.9
465.933	2.86
466.135	2.77
466.338	2.82
466.541	2.84
466.743	2.72
466.946	2.71
467.148	2.68
467.351	2.68
467.553	2.58
467.756	2.66
467.958	2.62
468.161	2.73
468.363	2.71
468.566	2.66
468.768	2.58
468.971	2.67
469.173	2.68
469.375	2.68
469.578	2.59
469.78	2.63
469.983	2.6
470.185	2.57
470.387	2.49
470.59	2.64
470.792	2.51
470.994	2.48
471.196	2.41
471.399	2.32
471.601	2.36
471.803	2.44
472.005	2.46
472.208	2.45
472.41	2.4
472.612	2.41
472.814	2.3
473.016	2.51
473.218	2.5
473.421	2.5
473.623	2.58
473.825	2.5
474.027	2.45
474.229	2.44
474.431	2.38
474.633	2.4
474.835	2.42
475.037	2.42
475.239	2.33
475.441	2.31
475.643	2.33
475.845	2.23
476.047	2.3
476.249	2.33
476.451	2.25
476.653	2.27
476.855	2.27
477.057	2.26
477.258	2.24
477.46	2.22
477.662	2.31
477.864	2.27
478.066	2.3
478.268	2.26
478.469	2.3
478.671	2.35
478.873	2.42
479.075	2.35
479.276	2.3
479.478	2.35
479.68	2.42
479.882	2.4
480.083	2.41
480.285	2.41
480.487	2.39
480.688	2.38
480.89	2.36
481.091	2.32
481.293	2.36
481.495	2.4
481.696	2.39
481.898	2.37
482.099	2.35
482.301	2.39
482.502	2.39
482.704	2.39
482.905	2.37
483.107	2.35
483.308	2.35
483.51	2.34
483.711	2.32
483.913	2.32
484.114	2.31
484.315	2.29
484.517	2.25
484.718	2.25
484.92	2.23
485.121	2.24
485.322	2.27
485.524	2.3
485.725	2.32
485.926	2.3
486.127	2.31
486.329	2.34
486.53	2.35
486.731	2.32
486.932	2.32
487.134	2.31
487.335	2.3
487.536	2.34
487.737	2.34
487.938	2.32
488.139	2.34
488.341	2.32
488.542	2.28
488.743	2.29
488.944	2.33
489.145	2.35
489.346	2.35
489.547	2.36
489.748	2.32
489.949	2.31
490.15	2.31
490.351	2.31
490.552	2.34
490.753	2.36
490.954	2.35
491.155	2.34
491.356	2.29
491.557	2.36
491.758	2.4
491.959	2.46
492.159	2.45
492.36	2.44
492.561	2.44
492.762	2.42
492.963	2.48
493.164	2.43
493.364	2.5
493.565	2.5
493.766	2.42
493.967	2.37
494.167	2.29
494.368	2.29
494.569	2.32
494.769	2.28
494.97	2.29
495.171	2.23
495.371	2.35
495.572	2.33
495.773	2.38
495.973	2.39
496.174	2.43
496.375	2.47
496.575	2.51
496.776	2.55
496.976	2.62
497.177	2.62
497.377	2.59
497.578	2.52
497.778	2.5
497.979	2.5
498.179	2.48
498.38	2.41
498.58	2.39
498.78	2.36
498.981	2.37
499.181	2.3
499.382	2.33
499.582	2.35
499.782	2.43
499.983	2.4
500.183	2.39
500.383	2.39
500.584	2.41
500.784	2.37
500.984	2.35
501.184	2.28
501.385	2.3
501.585	2.34
501.785	2.35
501.985	2.27
502.185	2.32
502.386	2.4
502.586	2.34
502.786	2.43
502.986	2.46
503.186	2.46
503.386	2.47
503.586	2.54
503.786	2.56
503.987	2.6
504.187	2.69
504.387	2.72
504.587	2.69
504.787	2.74
504.987	2.71
505.187	2.73
505.387	2.78
505.587	2.84
505.786	2.77
505.986	2.8
506.186	2.76
506.386	2.71
506.586	2.68
506.786	2.63
506.986	2.71
507.186	2.76
507.386	2.81
507.585	2.76
507.785	2.77
507.985	2.75
508.185	2.71
508.384	2.77
508.584	2.77
508.784	2.78
508.984	2.84
509.183	2.82
509.383	2.75
509.583	2.77
509.782	2.84
509.982	2.84
510.182	2.86
510.381	2.88
510.581	2.84
510.781	2.85
510.98	2.79
511.18	2.8
511.379	2.85
511.579	2.86
511.778	2.81
511.978	2.73
512.177	2.77
512.377	2.85
512.576	2.78
512.776	2.79
512.975	2.81
513.175	2.92
513.374	2.94
513.573	2.96
513.773	2.98
513.972	2.94
514.172	3.03
514.371	3.04
514.57	2.96
514.77	3.07
514.969	3.08
515.168	3.13
515.367	3.07
515.567	3.07
515.766	3.03
515.965	3.06
516.164	3.08
516.364	3.06
516.563	3
516.762	3.04
516.961	2.99
517.16	2.96
517.359	2.91
517.559	2.96
517.758	2.94
517.957	2.98
518.156	2.95
518.355	3.03
518.554	3.07
518.753	3.11
518.952	3.09
519.151	3.09
519.35	3.22
519.549	3.24
519.748	3.2
519.947	3.24
520.146	3.17
520.345	3.21
520.544	3.09
520.743	3.12
520.942	3.13
521.141	3.12
521.339	3.18
521.538	3.18
521.737	3.16
521.936	3.21
522.135	3.19
522.333	3.23
522.532	3.27
522.731	3.28
522.93	3.26
523.129	3.2
523.327	3.2
523.526	3.17
523.725	3.18
523.923	3.21
524.122	3.25
524.321	3.26
524.519	3.26
524.718	3.22
524.917	3.29
525.115	3.26
525.314	3.32
525.512	3.29
525.711	3.32
525.909	3.31
526.108	3.34
526.306	3.29
526.505	3.28
526.703	3.32
526.902	3.34
527.1	3.32
527.299	3.33
527.497	3.31
527.696	3.34
527.894	3.35
528.092	3.36
528.291	3.36
528.489	3.4
528.688	3.43
528.886	3.41
529.084	3.41
529.283	3.45
529.481	3.48
529.679	3.56
529.877	3.66
530.076	3.66
530.274	3.68
530.472	3.7
530.67	3.7
530.869	3.72
531.067	3.74
531.265	3.74
531.463	3.79
531.661	3.76
531.859	3.72
532.057	3.65
532.255	3.68
532.454	3.69
532.652	3.72
532.85	3.77
533.048	3.74
533.246	3.74
533.444	3.76
533.642	3.74
533.84	3.77
534.038	3.82
534.236	3.86
534.434	3.86
534.632	3.86
534.83	3.89
535.027	3.93
535.225	3.96
535.423	3.99
535.621	4.03
535.819	4.02
536.017	4.04
536.215	4.05
536.412	4.08
536.61	4.12
536.808	4.12
537.006	4.12
537.203	4.1
537.401	4.11
537.599	4.12
537.797	4.21
537.994	4.23
538.192	4.3
538.39	4.3
538.587	4.36
538.785	4.37
538.983	4.4
539.18	4.48
539.378	4.44
539.575	4.51
539.773	4.55
539.97	4.5
540.168	4.53
540.366	4.53
540.563	4.51
540.761	4.48
540.958	4.53
541.155	4.56
541.353	4.51
541.55	4.54
541.748	4.55
541.945	4.57
542.143	4.65
542.34	4.63
542.537	4.63
542.735	4.7
542.932	4.8
543.129	4.77
543.327	4.82
543.524	4.94
543.721	5
543.919	5.1
544.116	5.1
544.313	5.09
544.51	5.22
544.708	5.24
544.905	5.32
545.102	5.32
545.299	5.39
545.496	5.45
545.693	5.41
545.891	5.48
546.088	5.47
546.285	5.49
546.482	5.57
546.679	5.58
546.876	5.65
547.073	5.69
547.27	5.69
547.467	5.76
547.664	5.78
547.861	5.89
548.058	5.85
548.255	5.82
548.452	5.98
548.649	6.03
548.846	6.04
549.043	6.11
549.24	6.11
549.437	6.25
549.633	6.32
549.83	6.34
550.027	6.34
550.224	6.45
550.421	6.58
550.618	6.53
550.814	6.51
551.011	6.5
551.208	6.45
551.405	6.49
551.601	6.45
551.798	6.44
551.995	6.42
552.191	6.35
552.388	6.2
552.585	6.17
552.781	6.23
552.978	6.32
553.175	6.45
553.371	6.57
553.568	6.63
553.764	6.8
553.961	6.77
554.157	6.9
554.354	7.05
554.55	7.24
554.747	7.28
554.943	7.24
555.14	7.23
555.336	7.18
555.533	7.25
555.729	7.29
555.926	7.29
556.122	7.35
556.318	7.44
556.515	7.5
556.711	7.56
556.907	7.69
557.104	7.83
557.3	7.87
557.496	7.82
557.693	7.91
557.889	7.94
558.085	7.83
558.281	7.88
558.478	7.73
558.674	7.85
558.87	7.89
559.066	7.95
559.262	8.05
559.459	8.11
559.655	8.39
559.851	8.42
560.047	8.54
560.243	8.56
560.439	8.64
560.635	8.91
560.831	8.93
561.027	8.99
561.223	8.96
561.419	8.84
561.615	8.92
561.811	8.99
562.007	9.05
562.203	9.05
562.399	9.28
562.595	9.33
562.791	9.36
562.987	9.45
563.183	9.62
563.379	9.71
563.575	9.85
563.771	9.88
563.966	9.91
564.162	9.98
564.358	10.1
564.554	10.09
564.75	10.21
564.945	10.25
565.141	10.25
565.337	10.21
565.533	10.41
565.728	10.49
565.924	10.58
566.12	10.67
566.315	10.81
566.511	10.75
566.707	10.92
566.902	10.98
567.098	11.05
567.293	11.24
567.489	11.36
567.684	11.35
567.88	11.47
568.076	11.56
568.271	11.59
568.467	11.48
568.662	11.68
568.858	11.63
569.053	11.69
569.248	11.76
569.444	11.68
569.639	11.72
569.835	11.78
570.03	11.86
570.225	11.83
570.421	11.79
570.616	11.9
570.812	12
571.007	12.05
571.202	12.12
571.397	12.21
571.593	12.36
571.788	12.37
571.983	12.4
572.178	12.49
572.374	12.71
572.569	12.85
572.764	12.92
572.959	12.85
573.154	13.04
573.35	13.09
573.545	13.11
573.74	13.07
573.935	13.13
574.13	13.21
574.325	13.26
574.52	13.25
574.715	13.32
574.91	13.4
575.105	13.51
575.3	13.58
575.495	13.59
575.69	13.6
575.885	13.71
576.08	13.88
576.275	13.96
576.47	13.92
576.665	13.99
576.86	14.03
577.055	14.14
577.25	14.36
577.444	14.42
577.639	14.56
577.834	14.69
578.029	14.78
578.224	14.72
578.418	14.82
578.613	14.98
578.808	15.03
579.003	15.17
579.197	15.18
579.392	15.1
579.587	15.1
579.781	15.2
579.976	15.31
580.171	15.36
580.365	15.45
580.56	15.48
580.755	15.69
580.949	15.75
581.144	15.74
581.338	15.72
581.533	15.84
581.727	15.97
581.922	15.95
582.116	16.02
582.311	15.98
582.505	16.23
582.7	16.24
582.894	16.27
583.089	16.36
583.283	16.53
583.478	16.71
583.672	16.65
583.866	16.61
584.061	16.66
584.255	16.6
584.449	16.69
584.644	16.7
584.838	16.79
585.032	16.66
585.226	16.8
585.421	16.77
585.615	16.77
585.809	16.99
586.003	17.04
586.198	17.05
586.392	17.29
586.586	17.45
586.78	17.61
586.974	17.58
587.168	17.67
587.363	17.52
587.557	17.58
587.751	17.63
587.945	17.56
588.139	17.65
588.333	17.87
588.527	17.8
588.721	17.91
588.915	17.82
589.109	17.86
589.303	17.97
589.497	18.1
589.691	18.16
589.885	18.22
590.079	18.29
590.273	18.41
590.466	18.4
590.66	18.56
590.854	18.45
591.048	18.56
591.242	18.71
591.436	18.59
591.629	18.63
591.823	18.64
592.017	18.87
592.211	18.9
592.404	18.91
592.598	18.97
592.792	18.93
592.986	19.06
593.179	19.08
593.373	19.14
593.567	19.36
593.76	19.47
593.954	19.61
594.147	19.58
594.341	19.72
594.535	19.7
594.728	19.7
594.922	19.65
595.115	19.79
595.309	19.83
595.502	19.89
595.696	19.84
595.889	19.85
596.083	19.81
596.276	19.82
596.47	19.83
596.663	19.93
596.856	19.98
597.05	20.01
597.243	19.95
597.437	20
597.63	19.96
597.823	19.96
598.017	20.05
598.21	20.05
598.403	20.23
598.596	20.04
598.79	20.22
598.983	20.27
599.176	20.32
599.369	20.29
599.563	20.33
599.756	20.6
599.949	20.74
600.142	20.79
600.335	20.88
600.528	20.76
600.722	20.95
600.915	20.87
601.108	21.01
601.301	21.32
601.494	21.4
601.687	21.51
601.88	21.47
602.073	21.49
602.266	21.45
602.459	21.51
602.652	21.48
602.845	21.63
603.038	21.62
603.231	21.53
603.424	21.47
603.617	21.6
603.809	21.46
604.002	21.38
604.195	21.39
604.388	21.39
604.581	21.44
604.774	21.52
604.966	21.46
605.159	21.45
605.352	21.58
605.545	21.49
605.737	21.42
605.93	21.76
606.123	21.96
606.316	22.06
606.508	22.21
606.701	22.39
606.894	22.49
607.086	22.5
607.279	22.58
607.471	22.57
607.664	22.65
607.857	22.79
608.049	22.73
608.242	22.64
608.434	22.52
608.627	22.51
608.819	22.37
609.012	22.36
609.204	22.52
609.397	22.53
609.589	22.52
609.782	22.52
609.974	22.41
610.166	22.39
610.359	22.5
610.551	22.76
610.743	22.84
610.936	22.99
611.128	22.99
611.32	22.92
611.513	22.95
611.705	23.07
611.897	23.14
612.09	23.21
612.282	23.23
612.474	23.41
612.666	23.43
612.858	23.51
613.051	23.63
613.243	23.72
613.435	23.67
613.627	23.76
613.819	23.73
614.011	23.98
614.203	23.99
614.395	23.91
614.588	23.68
614.78	23.64
614.972	23.57
615.164	23.38
615.356	23.5
615.548	23.61
615.74	23.57
615.932	23.64
616.124	23.35
616.315	23.55
616.507	23.78
616.699	23.79
616.891	23.85
617.083	23.95
617.275	23.95
617.467	23.85
617.659	23.95
617.85	24.19
618.042	24.15
618.234	24.32
618.426	24.14
618.618	23.99
618.809	23.99
619.001	23.93
619.193	24.02
619.384	24.02
619.576	24.09
619.768	23.86
619.959	23.95
620.151	24.17
620.343	24.18
620.534	24.37
620.726	24.4
620.917	24.68
621.109	24.59
621.301	24.53
621.492	24.82
621.684	24.84
621.875	25.01
622.067	24.74
622.258	24.43
622.45	24.33
622.641	24.23
622.832	24.23
623.024	24.03
623.215	24.29
623.407	24.21
623.598	23.96
623.789	23.99
623.981	24.06
624.172	24.18
624.363	24.24
624.555	24.52
624.746	24.57
624.937	24.6
625.129	24.75
625.32	24.83
625.511	25.02
625.702	24.92
625.893	24.84
626.085	24.84
626.276	24.92
626.467	25.08
626.658	24.9
626.849	24.87
627.04	24.93
627.231	24.99
627.422	24.93
627.614	24.87
627.805	25.12
627.996	25.24
628.187	25.33
628.378	25.15
628.569	25.16
628.76	25.19
628.951	25.32
629.142	25.34
629.332	25.36
629.523	25.49
629.714	25.57
629.905	25.53
630.096	25.54
630.287	25.5
630.478	25.58
630.669	25.57
630.859	25.73
631.05	25.79
631.241	25.82
631.432	25.77
631.623	25.71
631.813	25.57
632.004	25.75
632.195	25.76
632.385	25.84
632.576	26.09
632.767	26.23
632.957	26.24
633.148	26.21
633.339	26.45
633.529	26.38
633.72	26.33
633.91	26.35
634.101	26.28
634.292	26.41
634.482	26.39
634.673	26.13
634.863	26
635.054	26.04
635.244	26.17
635.435	25.95
635.625	26
635.815	25.96
636.006	26.02
636.196	25.99
636.387	25.89
636.577	25.82
636.767	25.99
636.958	25.97
637.148	25.92
637.338	25.92
637.529	26.23
637.719	26.35
637.909	26.59
638.099	26.72
638.29	26.79
638.48	26.97
638.67	27.15
638.86	27.08
639.05	27.1
639.241	27.18
639.431	27.08
639.621	26.86
639.811	26.78
640.001	26.52
640.191	26.46
640.381	26.53
640.571	26.48
640.761	26.2
640.951	26.52
641.141	26.65
641.331	26.59
641.521	26.64
641.711	26.61
641.901	26.68
642.091	26.65
642.281	26.63
642.471	26.5
642.661	26.45
642.851	26.82
643.041	26.57
643.231	26.52
643.42	26.55
643.61	26.33
643.8	26.26
643.99	26.26
644.18	26.59
644.369	26.7
644.559	26.9
644.749	26.91
644.939	26.72
645.128	26.78
645.318	26.87
645.508	27.09
645.697	27.42
645.887	27.56
646.076	27.51
646.266	27.51
646.456	27.52
646.645	27.44
646.835	27.4
647.024	27.7
647.214	27.87
647.403	27.91
647.593	27.9
647.782	27.87
647.972	27.85
648.161	28.17
648.351	28.24
648.54	28.07
648.73	28.13
648.919	28.17
649.108	28.08
649.298	28.26
649.487	28.21
649.677	28.25
649.866	28.34
650.055	28.52
650.244	28.31
650.434	28.14
650.623	28.37
650.812	28.41
651.002	28.67
651.191	28.4
651.38	28.18
651.569	28.3
651.758	28.15
651.947	28.01
652.137	27.94
652.326	28.21
652.515	28.21
652.704	28.19
652.893	28.39
653.082	28.27
653.271	28.48
653.46	28.41
653.649	28.59
653.838	28.72
654.027	28.93
654.216	29.11
654.405	28.81
654.594	29.03
654.783	29.09
654.972	28.91
655.161	29.02
655.35	29.43
655.539	29.62
655.728	29.28
655.916	29.25
656.105	29.12
656.294	29.3
656.483	29.36
656.672	29.28
656.86	29.36
657.049	29.42
657.238	29.36
657.427	29.09
657.615	29.05
657.804	29.33
657.993	29.44
658.181	29.53
658.37	29.43
658.559	29.39
658.747	29.38
658.936	29.34
659.125	29.07
659.313	29.13
659.502	29.13
659.69	29.14
659.879	29.13
660.067	29.09
660.256	29.14
660.444	29.19
660.633	29.29
660.821	29.33
661.01	29.31
661.198	29.78
661.387	29.62
661.575	29.64
661.763	29.86
661.952	29.5
662.14	29.47
662.328	29.08
662.517	28.79
662.705	28.78
662.893	28.75
663.082	28.73
663.27	28.62
663.458	28.58
663.646	28.7
663.834	28.7
664.023	28.9
664.211	28.71
664.399	28.97
664.587	29.15
664.775	29.29
664.963	29.28
665.152	29.11
665.34	29.14
665.528	29.45
665.716	29.53
665.904	29.35
666.092	29.39
666.28	29.55
666.468	29.83
666.656	29.74
666.844	29.72
667.032	30.01
667.22	30.4
667.408	30.31
667.596	30.4
667.784	30.12
667.971	30.35
668.159	30.32
668.347	30.31
668.535	30.09
668.723	30.23
668.911	30.2
669.098	30.15
669.286	30.02
669.474	30.17
669.662	30.16
669.849	30.38
670.037	30.19
670.225	30.31
670.413	30.39
670.6	30.35
670.788	30.13
670.976	30.36
671.163	30.07
671.351	30.02
671.538	30.09
671.726	30.1
671.913	30.15
672.101	30.46
672.289	30.57
672.476	30.45
672.664	30.87
672.851	30.92
673.039	30.7
673.226	30.75
673.413	31
673.601	31.02
673.788	30.75
673.976	30.61
674.163	30.56
674.35	30.51
674.538	30.73
674.725	30.21
674.912	30.28
675.1	30.7
675.287	31.19
675.474	31.18
675.662	31.13
675.849	31.25
676.036	31.34
676.223	31.13
676.411	31.35
676.598	31.17
676.785	31.69
676.972	31.71
677.159	31.55
677.346	31.44
677.533	31.37
677.721	31.45
677.908	31.29
678.095	31.37
678.282	31.22
678.469	31
678.656	31.24
678.843	31.22
679.03	31.15
679.217	31.24
679.404	31.2
679.591	31.11
679.778	30.83
679.964	31.12
680.151	31.05
680.338	31.33
680.525	31.62
680.712	31.38
680.899	30.87
681.086	31.01
681.272	30.83
681.459	30.66
681.646	30.9
681.833	31.26
682.02	31.38
682.206	31.51
682.393	31.39
682.58	31.19
682.766	31.24
682.953	31.63
683.14	31.61
683.326	31.95
683.513	32
683.7	31.92
683.886	31.85
684.073	31.5
684.259	31.49
684.446	31.7
684.632	31.59
684.819	31.84
685.005	31.8
685.192	32.09
685.378	32.01
685.565	32.1
685.751	32.18
685.938	32.31
686.124	32.39
686.31	32.34
686.497	32.33
686.683	32.62
686.87	32.36
687.056	32.55
687.242	32.21
687.429	32.13
687.615	32.12
687.801	31.98
687.987	31.99
688.174	32.01
688.36	32.41
688.546	32.17
688.732	31.93
688.918	32.09
689.105	32.1
689.291	32.2
689.477	32.08
689.663	32.42
689.849	32.58
690.035	32.31
690.221	32.23
690.407	32.1
690.593	32.02
690.779	32.05
690.965	31.99
691.151	32.03
691.337	32.19
691.523	31.91
691.709	31.77
691.895	31.56
692.081	31.64
692.267	32.14
692.453	32.23
692.639	32.41
692.825	32.37
693.011	32.55
693.196	32.32
693.382	32.09
693.568	32.16
693.754	32
693.94	32.31
694.125	32.36
694.311	32.22
694.497	31.85
694.682	32.04
694.868	32.19
695.054	32.2
695.239	32.15
695.425	32.31
695.611	32.71
695.796	32.97
695.982	32.98
696.168	32.9
696.353	32.85
696.539	32.99
696.724	32.92
696.91	32.7
697.095	32.9
697.281	33.07
697.466	33.25
697.652	33.25
697.837	33.05
698.023	32.92
698.208	32.88
698.393	32.95
698.579	32.97
698.764	32.83
698.949	32.89
699.135	32.57
699.32	32.5
699.505	32.4
699.691	32.49
699.876	32.45
700.061	32.37
700.246	32.4
700.432	32.05
700.617	31.73
700.802	31.88
700.987	31.96
701.172	32.42
701.358	32.32
701.543	32.28
701.728	31.88
701.913	31.73
702.098	31.91
702.283	32.25
702.468	32.43
702.653	32.86
702.838	33.06
703.023	33.15
703.208	32.69
703.393	32.87
703.578	32.9
703.763	33.33
703.948	33.58
704.133	33.69
704.318	33.4
704.503	33.95
704.688	34.32
704.873	34.31
705.057	34.51
705.242	34.68
705.427	34.43
705.612	34.31
705.797	33.98
705.981	34.26
706.166	34.19
706.351	34.58
706.536	34.17
706.72	34
706.905	33.87
707.09	33.54
707.274	33.66
707.459	33.88
707.644	33.89
707.828	34.19
708.013	33.6
708.197	33.74
708.382	33.59
708.567	33.55
708.751	33.17
708.936	33.36
709.12	33.61
709.305	33.43
709.489	33.53
709.673	33.48
709.858	33.54
710.042	34.09
710.227	33.94
710.411	33.87
710.596	33.79
710.78	33.93
710.964	33.83
711.149	33.84
711.333	33.8
711.517	33.53
711.702	33.67
711.886	33.34
712.07	33.26
712.254	33.4
712.438	33.28
712.623	33.36
712.807	33.38
712.991	33.28
713.175	33.32
713.359	33.5
713.544	33.57
713.728	33.57
713.912	33.51
714.096	33.51
714.28	33.48
714.464	33.68
714.648	33.68
714.832	33.85
715.016	33.81
715.2	33.61
715.384	33.77
715.568	33.85
715.752	33.73
715.936	33.83
716.12	33.88
716.304	34.04
716.488	33.9
716.671	33.85
716.855	34.04
717.039	34.46
717.223	34.42
717.407	34.46
717.59	34.7
717.774	34.77
717.958	34.96
718.142	35.05
718.325	34.92
718.509	35.36
718.693	35.43
718.877	34.85
719.06	34.79
719.244	35.49
719.428	35.66
719.611	35.9
719.795	36.01
719.978	36.05
720.162	35.91
720.345	36.15
720.529	35.94
720.713	35.95
720.896	36.04
721.08	35.69
721.263	35.36
721.446	34.66
721.63	34.43
721.813	34.28
721.997	34.23
722.18	34.1
722.364	33.93
722.547	33.94
722.73	34.06
722.914	34.16
723.097	34.22
723.28	34.21
723.464	34.93
723.647	34.24
723.83	34.28
724.013	34.01
724.197	34.17
724.38	34.03
724.563	33.98
724.746	34.1
724.929	34.14
725.112	34.32
725.296	34.26
725.479	34.03
725.662	34.63
725.845	34.98
726.028	35.18
726.211	35.13
726.394	35.2
726.577	35.16
726.76	35.04
726.943	35.35
727.126	35.53
727.309	35.72
727.492	35.86
727.675	35.75
727.858	35.58
728.041	35.32
728.224	35.52
728.407	35.23
728.589	35.45
728.772	35.17
728.955	35.1
729.138	34.52
729.321	34.5
729.503	34.58
729.686	34.98
729.869	35.28
730.052	35.67
730.234	35.52
730.417	35.87
730.6	35.76
730.782	36.23
730.965	35.77
731.148	36.12
731.33	35.7
731.513	35.52
731.695	35.59
731.878	35.53
732.061	35.57
732.243	35.56
732.426	35.61
732.608	35.86
732.791	35.42
732.973	35.99
733.156	36.23
733.338	36.51
733.52	36.19
733.703	35.62
733.885	35.34
734.068	35.17
734.25	35.13
734.432	34.75
734.615	34.53
734.797	34.72
734.979	34.34
735.162	34.19
735.344	34.23
735.526	34.53
735.708	34.4
735.891	34.39
736.073	34.59
736.255	34.4
736.437	34.87
736.619	34.38
736.802	34.42
736.984	34.87
737.166	35.01
737.348	34.92
737.53	34.56
737.712	34.71
737.894	34.58
738.076	34.16
738.258	34.57
738.44	34.11
738.622	34.73
738.804	34.78
738.986	34.12
739.168	33.59
739.35	33.86
739.532	34.28
739.714	34.55
739.896	34.74
740.078	34.91
740.259	35
740.441	35.29
740.623	34.72
740.805	35.19
740.987	35.6
741.168	36.11
741.35	35.73
741.532	35.74
741.714	35.46
741.895	35.24
742.077	34.95
742.259	34.21
742.44	34.32
742.622	34.64
742.804	34.29
742.985	34.28
743.167	33.91
743.348	34.08
743.53	33.91
743.711	34.12
743.893	33.89
744.075	34.49
744.256	34.81
744.438	34.66
744.619	34.29
744.8	33.83
744.982	33.18
745.163	33.98
745.345	34.36
745.526	34.44
745.707	34.86
745.889	36.06
746.07	35.46
746.252	35.93
746.433	35.97
746.614	36.95
746.795	37.52
746.977	38.44
747.158	38.26
747.339	38.09
747.52	38.26
747.702	37.77
747.883	37.46
748.064	37.8
748.245	37.22
748.426	37.33
748.607	36.69
748.788	36.53
748.97	36.34
749.151	35.86
749.332	36.07
749.513	36.17
749.694	35.75
749.875	35.94
750.056	36.03
750.237	35.71
750.418	35.62
750.599	35.85
750.78	35.7
750.96	35.05
751.141	35.55
751.322	35.14
751.503	34.86
751.684	35.32
751.865	34.86
752.046	35.02
752.226	35.79
752.407	35.68
752.588	34.9
752.769	35.12
752.949	35.79
753.13	35.34
753.311	35.99
753.492	36.41
753.672	36.78
753.853	36.57
754.034	36.77
754.214	36.41
754.395	36.13
754.575	37.09
754.756	36.99
754.937	37.13
755.117	37.39
755.298	36.61
755.478	36.81
755.659	36.36
755.839	37.37
756.02	37.64
756.2	38.18
756.381	38.22
756.561	38.15
756.741	38.59
756.922	38.16
757.102	38.24
757.283	38.68
757.463	37.86
757.643	37.86
757.823	36.84
758.004	36.14
758.184	36.09
758.364	36.97
758.545	36.72
758.725	36.39
758.905	36.69
759.085	36.22
759.265	35.85
759.446	36.11
759.626	35.8
759.806	36.45
759.986	36.97
760.166	36.42
760.346	35.71
760.526	36.3
760.706	36.61
760.886	36.41
761.066	36.71
761.246	36.94
761.426	37.34
761.606	37.87
761.786	37.6
761.966	37.24
762.146	37.6
762.326	37.76
762.506	37.24
762.686	36.81
762.866	36.84
763.046	36.8
763.225	37.09
763.405	36.88
763.585	36.57
763.765	36.36
763.945	36.27
764.124	36.2
764.304	36.07
764.484	36.03
764.664	36.48
764.843	36.32
765.023	36.54
765.203	36.14
765.382	35.52
765.562	35.74
765.741	35.76
765.921	36.36
766.101	36.82
766.28	37.18
766.46	37.28
766.639	37.01
766.819	37.69
766.998	38.01
767.178	37.84
767.357	38.77
767.537	38.63
767.716	38.27
767.896	37.56
768.075	37.15
768.254	36.75
768.434	37.11
768.613	37.82
768.792	37.29
768.972	36.8
769.151	36.57
769.33	36.35
769.51	36.85
769.689	37.42
769.868	38.23
770.047	38.03
770.226	38.29
770.406	37.89
770.585	37.46
770.764	37.08
770.943	36.46
771.122	36.47
771.301	36.38
771.48	36.56
771.66	36.38
771.839	35.22
772.018	34.88
772.197	34.68
772.376	35.04
772.555	34.61
772.734	34.87
772.913	35.17
773.092	35.56
773.271	35.81
773.449	35.25
773.628	35.86
773.807	37.1
773.986	37.41
774.165	37.02
774.344	37.51
774.523	37.82
774.701	38.17
774.88	38.76
775.059	38.42
775.238	38.14
775.417	38.84
775.595	38.07
775.774	37.38
775.953	37.37
776.131	38.75
776.31	38
776.489	37.9
776.667	38.01
776.846	37.52
777.025	37.49
777.203	37.75
777.382	37.93
777.56	38.22
777.739	38.45
777.917	38.79
778.096	37.72
778.274	37.9
778.453	37.24
778.631	36.77
778.81	36.53
778.988	37.63
779.166	37.77
779.345	37.44
779.523	37.8
779.702	38.27
779.88	37.82
780.058	37.96
780.237	37.92
780.415	38.29
780.593	38.08
780.771	38
780.95	38.16
781.128	37.35
781.306	36.69
781.484	36.28
781.662	35.13
781.841	34.51
782.019	35.1
782.197	34.92
782.375	34.18
782.553	35.52
782.731	35.58
782.909	34.41
783.087	34.9
783.265	35.56
783.443	35.94
783.621	36.63
783.799	38.17
783.977	38.28
784.155	38.22
784.333	39.57
784.511	37.75
784.689	37.95
784.867	38.34
785.045	38.23
785.223	38.2
785.4	38.53
785.578	38.38
785.756	36.79
785.934	36.18
786.112	36.91
786.289	36.21
786.467	36.63
786.645	36.63
786.823	36.66
787	36.46
787.178	35.74
787.356	35.1
787.533	35.04
787.711	35.61
787.889	36.02
788.066	35.76
788.244	36.32
788.421	36.45
788.599	36.44
788.776	36.54
788.954	36.53
789.131	37.02
789.309	37.63
789.486	36.63
789.664	37.67
789.841	37.45
790.019	37.59
790.196	37.45
790.373	37.81
790.551	38.29
790.728	37.96
790.906	39.01
791.083	38.27
791.26	37.14
791.437	37.76
791.615	37.07
791.792	36.69
791.969	36.34
792.146	35.4
792.324	34.4
792.501	34.26
792.678	35.31
792.855	34.84
793.032	36.41
793.209	37.06
793.387	37.67
793.564	37.63
793.741	38.11
793.918	38.02
794.095	39.14
794.272	39.6
794.449	39.84
794.626	38.77
794.803	37.94
794.98	36.2
795.157	36.77
795.334	37.46
795.511	37.62
795.688	37.86
795.864	36.92
796.041	36.6
796.218	38.04
796.395	37
796.572	37.49
796.749	38.49
796.925	38.6
797.102	38.5
797.279	37.87
797.456	37.78
797.632	37.62
797.809	38.44
797.986	38.01
798.162	36.96
798.339	37.09
798.516	36.93
798.692	36.9
798.869	38.43
799.046	37.78
799.222	38.3
799.399	38.16
799.575	37.45
799.752	37.71
799.928	38.28
800.105	38.69
800.281	38.8
800.458	37.79
800.634	37.25
800.811	36.59
800.987	37.72
801.163	37.97
801.34	37.96
801.516	38.69
801.692	38.97
801.869	39.35
802.045	39.68
802.221	40.24
802.398	40.25
802.574	40.52
802.75	39.87
802.926	38.02
803.103	37.37
803.279	37.58
803.455	37.95
803.631	38.16
803.807	38.44
803.983	36.65
804.16	36.17
804.336	36.44
804.512	36.78
804.688	38.02
804.864	39.5
805.04	38.78
805.216	39.35
805.392	39
805.568	38.47
805.744	38.55
805.92	39.56
806.096	40.77
806.272	41.76
806.448	41.19
806.623	40.76
806.799	40.05
806.975	41.35
807.151	40.56
807.327	40.2
807.503	39.39
807.678	38.47
807.854	38.41
808.03	38.1
808.206	37.45
808.381	36.58
808.557	36.73
808.733	37.8
808.908	36.65
809.084	36.42
809.26	37.23
809.435	37.37
809.611	38.41
809.787	37.54
809.962	37.9
810.138	38.97
810.313	40.66
810.489	39.52
810.664	39.68
810.84	40.08
811.015	40.49
811.191	39.23
811.366	39.36
811.542	39.3
811.717	40.05
811.892	40.11
812.068	40.22
812.243	38.88
812.419	40.07
812.594	39.23
812.769	39.25
812.944	38.74
813.12	39.51
813.295	40.44
813.47	39.48
813.645	40.55
813.821	38.83
813.996	38.04
814.171	38.36
814.346	39.99
814.521	39.19
814.697	39.67
814.872	40.31
815.047	39.7
815.222	39.43
815.397	39.98
815.572	39.56
815.747	39.94
815.922	39.85
816.097	39.78
816.272	38.38
816.447	39.12
816.622	38.67
816.797	39.56
816.972	40.83
817.147	40.34
817.322	39.85
817.496	37.92
817.671	38.05
817.846	38.15
818.021	38.1
818.196	37.48
818.371	36.56
818.545	36.42
818.72	35.82
818.895	35.6
819.069	35.9
819.244	36.02
819.419	37.13
819.594	36.44
819.768	36.16
819.943	37.4
820.117	37.59
820.292	38.01
820.467	38.09
820.641	37.67
820.816	37.68
820.99	37.73
821.165	37.48
821.339	37.18
821.514	37.63
821.688	37.82
821.863	37.29
822.037	37.15
822.212	37.12
822.386	36.79
822.56	36.74
822.735	36.43
822.909	36.29
823.084	36.71
823.258	36.77
823.432	36.73
823.606	36.46
823.781	36.49
823.955	36.74
824.129	36.62
824.303	36.74
824.478	36.94
824.652	37.27
824.826	37.25
825	36.7
825.174	36.76
825.348	36.44
825.523	36.58
825.697	36.78
825.871	36.62
826.045	36.48
826.219	36.69
826.393	36.28
826.567	36.14
826.741	36.41
826.915	36.81
827.089	37.14
827.263	36.83
827.437	36.46
827.611	36.3
827.784	35.84
827.958	35.88
828.132	35.93
828.306	36.27
828.48	36.09
828.654	36.01
828.827	34.92
829.001	34.51
829.175	35.09
829.349	35.61
829.522	36.37
829.696	37.47
829.87	37.86
830.044	38
830.217	37.72
830.391	37.93
830.565	38.27
830.738	40.71
830.912	41.62
831.085	41.25
831.259	41.91
831.432	41.12
831.606	40.33
831.779	39.92
831.953	39.54
832.126	40.31
832.3	40.25
832.473	40.49
832.647	38.17
832.82	36.83
832.994	36.68
833.167	36.85
833.34	37.18
833.514	37.33
833.687	36.97
833.86	36.96
834.034	36.34
834.207	36.48
834.38	35.9
834.553	36.67
834.727	37.03
834.9	37.16
835.073	36.31
835.246	35.8
835.419	36.16
835.593	36.62
835.766	36.39
835.939	37.47
836.112	38.27
836.285	38.78
836.458	39.03
836.631	38.7
836.804	39.33
836.977	39.01
837.15	39.24
837.323	38.47
837.496	38.84
837.669	38.73
837.842	38.07
838.015	36.7
838.188	35.68
838.361	35.9
838.533	38.34
838.706	39.38
838.879	39.24
839.052	39.33
839.225	39.56
839.398	40.98
839.57	43.73
839.743	43.62
839.916	43.84
840.088	46.3
840.261	45.49
840.434	44.39
840.607	42.56
840.779	43.53
840.952	43.25
841.124	43.08
841.297	40.97
841.47	38.46
841.642	37.63
841.815	37.52
841.987	34.56
842.16	33.41
842.332	32.19
842.505	32
842.677	34.4
842.85	36.33
843.022	34.23
843.194	35.43
843.367	37.94
843.539	38.28
843.712	37.01
843.884	36.34
844.056	36.79
844.229	38.02
844.401	41.66
844.573	40.29
844.745	40.11
844.918	40.56
845.09	40.07
845.262	39.29
845.434	41.41
845.606	44.85
845.779	46.49
845.951	48.16
846.123	48.43
846.295	48.64
846.467	50.47
846.639	50.82
846.811	54.83
846.983	54.97
847.155	54.85
847.327	52.34
847.499	48.45
847.671	48.52
847.843	48.24
848.015	47.51
848.187	46.05
848.359	43.77
848.531	40.43
848.703	41.95
848.875	45.53
849.047	43.97
849.218	44.99
849.39	47.68
849.562	47.93
849.734	48.31
849.905	49.08
850.077	49.74
850.249	47.68
850.421	47.53
850.592	41.18
850.764	34.95
850.936	32.52
851.107	31.2
851.279	29.72
851.451	29.43
851.622	27.64
851.794	29.29
851.965	26.65
852.137	28.74
852.308	31.45
852.48	34.64
852.651	36.53
852.823	38.63
852.994	38.7
853.166	37.55
853.337	39.03
853.509	41.69
853.68	43.08
853.851	47.25
854.023	51.16
854.194	55.28
854.365	54.58
854.537	51.7
854.708	54.87
854.879	55.68
855.05	56.42
855.222	55.9
855.393	55.02
855.564	55.45
855.735	54.11
855.906	51.17
856.078	44.97
856.249	46.37
856.42	55.2
856.591	51.11
856.762	52.14
856.933	53.1
857.104	49.29
857.275	53.15
857.446	48.18
857.617	47.43
857.788	48.86
857.959	50.57
858.13	51.61
858.301	49.95
858.472	52.83
858.643	53.29
858.814	54.32
858.985	53.79
859.155	51.58
859.326	51.98
859.497	51.28
859.668	48.37
859.839	44.58
860.009	47.74
860.18	43.72
860.351	42.75
860.522	42.81
860.692	39.87
860.863	42.59
861.034	41.89
861.204	44.92
861.375	44.08
861.546	45.03
861.716	47.77
861.887	43.01
862.057	43.61
862.228	43.53
862.398	45.43
862.569	48.55
862.739	51.49
862.91	48.38
863.08	43.14
863.251	43.65
863.421	43.62
863.592	43.1
863.762	43.66
863.932	46.9
864.103	45.01
864.273	42.85
864.443	44.86
864.614	42.11
864.784	44.68
864.954	49.09
865.125	51.92
865.295	48.94
865.465	47.24
865.635	47.95
865.805	45.57
865.976	44.85
866.146	46.38
866.316	40.28
866.486	40.06
866.656	44.36
866.826	46.1
866.996	45.96
867.166	47.82
867.336	50.61
867.506	48.04
867.676	47.45
867.846	47.13
868.016	43.37
868.186	45.59
868.356	46.46
868.526	39.23
868.696	39.84
868.866	38.87
869.036	37.46
869.206	34.13
869.376	41.01
869.545	43.74
869.715	46.79
869.885	44.86
870.055	43.2
870.224	47.66
870.394	50.21
870.564	47.59
870.734	43.36
870.903	45.9
871.073	47.72
871.243	44.22
871.412	44.62
871.582	42.55
871.751	52.26
871.921	54.83
872.091	49.12
872.26	46.61
872.43	51.18
872.599	55.54
872.769	56.95
872.938	54.1
873.108	54.31
873.277	55.77
873.446	56.08
873.616	51.93
873.785	54.71
873.955	52.97
874.124	53.8
874.293	48.17
874.463	47.16
874.632	44.09
874.801	52.13
874.971	53.33
875.14	50.76
875.309	54.5
875.478	56.29
875.647	52.11
875.817	55.39
875.986	55.5
876.155	56.28
876.324	54.79
876.493	52.66
876.662	46.22
876.831	42.04
877	40.16
877.17	34.5
877.339	33.64
877.508	35.84
877.677	38.99
877.846	40.85
878.015	41.94
878.184	40.29
878.352	41.64
878.521	42.16
878.69	44.46
878.859	47.4
879.028	51
879.197	47.71
879.366	44.58
879.534	41.92
879.703	40.19
879.872	37.91
880.041	38.37
880.21	38.9
880.378	39.84
880.547	38.86
880.716	38.13
880.884	37.23
881.053	38.26
881.222	39.64
881.39	39.79
881.559	40.17
881.727	40.24
881.896	39.34
882.065	39.18
882.233	38.72
882.402	39.18
882.57	38.31
882.739	38.63
882.907	39.33
883.076	38.53
883.244	38.35
883.412	38.86
883.581	39.12
883.749	40.21
883.918	40.67
884.086	41.49
884.254	41.45
884.423	41.92
884.591	42
884.759	40.49
884.927	41.64
885.096	41.55
885.264	40.43
885.432	40.86
885.6	40.28
885.769	39.13
885.937	38.54
886.105	37.56
886.273	39.7
886.441	40.83
886.609	42.16
886.777	40.28
886.945	41.58
887.113	40.99
887.281	39.23
887.449	41.94
887.617	42.02
887.785	41.26
887.953	44.81
888.121	41.98
888.289	40.16
888.457	42.57
888.625	43.48
888.793	43.85
888.961	47.57
889.129	50.96
889.296	45.57
889.464	48.06
889.632	48.55
889.8	45.19
889.967	48.18
890.135	47.94
