Data from 2938533_Reflection_2.txt Node
Date: Tue Jun 16 00:02:55 EDT 2015
User: robert
Spectrometer: USB4E03002
Autoset integration time: false
Trigger mode: 4
Integration Time (sec): 1.000000E-1
Scans to average: 10
Electric dark correction enabled: true
Nonlinearity correction enabled: false
Boxcar width: 6
Stray light correction enabled: false
XAxis mode: Wavelengths
Stop averaging: false
Number of Pixels in Spectrum: 3648
>>>>>Begin Spectral Data<<<<<
177.575	-107.08
177.794	-102.02
178.014	7.81
178.233	1.11
178.452	-40.61
178.672	-135.42
178.891	50
179.11	-116.67
179.33	-48.1
179.549	-38.87
179.768	-34.31
179.987	-57.11
180.207	-110.66
180.426	-127.41
180.645	-112.23
180.864	-55.92
181.084	-83.46
181.303	-259.38
181.522	-218.67
181.741	-224.22
181.96	-176.52
182.179	-76.34
182.398	-33.59
182.618	-50.78
182.837	-72.84
183.056	-257.14
183.275	125.96
183.494	223.75
183.713	191.76
183.932	93.98
184.151	283.61
184.37	208.63
184.589	262.33
184.808	196.13
185.027	169.35
185.246	142.27
185.465	112.44
185.684	123.55
185.903	134.03
186.122	179.19
186.341	138.74
186.56	141.24
186.779	151.76
186.998	176.32
187.216	187.22
187.435	173.37
187.654	165.61
187.873	177.49
188.092	276.5
188.311	206.7
188.53	166.53
188.748	205.23
188.967	220.58
189.186	558.18
189.405	257.87
189.623	237.5
189.842	134.33
190.061	133.81
190.28	134.08
190.498	171.16
190.717	209.96
190.936	207.75
191.154	198.48
191.373	274.33
191.592	267.35
191.81	271.63
192.029	217.91
192.248	350.51
192.466	-2735
192.685	-1471.79
192.904	531.67
193.122	785.45
193.341	291.06
193.559	256.98
193.778	141.67
193.996	266.13
194.215	52.35
194.433	94.06
194.652	59.83
194.87	-74.71
195.089	-42.64
195.307	-9.97
195.526	-11.54
195.744	-6.76
195.963	12.6
196.181	21.29
196.399	84.96
196.618	65.08
196.836	202.15
197.055	372.73
197.273	663.16
197.491	578.69
197.71	640.48
197.928	623.39
198.146	924
198.365	-654.35
198.583	-421.55
198.801	-194.44
199.019	-83.75
199.238	-25.82
199.456	-81.25
199.674	-5.43
199.892	59.3
200.111	-9.68
200.329	10.42
200.547	-76.74
200.765	-179.05
200.983	14.13
201.202	15.19
201.42	48.53
201.638	81.59
201.856	54.7
202.074	65.44
202.292	97.58
202.51	79.26
202.728	120.37
202.946	256.36
203.165	127.05
203.383	295.97
203.601	262.56
203.819	1766.67
204.037	336.65
204.255	378.57
204.473	155.56
204.691	-827.5
204.909	-244.83
205.127	47.77
205.345	169.66
205.562	346.03
205.78	102.19
205.998	83.27
206.216	53.72
206.434	74.81
206.652	86.57
206.87	187.45
207.088	130.6
207.306	159.7
207.523	221.82
207.741	181.43
207.959	61.54
208.177	177.58
208.395	130.58
208.612	77.26
208.83	75.76
209.048	43.66
209.266	49.48
209.483	58.36
209.701	84.83
209.919	65.01
210.136	77.75
210.354	53.58
210.572	18.8
210.79	24.44
211.007	49.22
211.225	45.37
211.442	-0.69
211.66	17.39
211.878	19.23
212.095	19.56
212.313	40.08
212.53	28.71
212.748	61.02
212.966	59.61
213.183	68.96
213.401	98.42
213.618	46.22
213.836	25.24
214.053	8.29
214.271	19.33
214.488	59.03
214.705	54.47
214.923	48.96
215.14	70.15
215.358	85.12
215.575	60.79
215.793	61.39
216.01	61.18
216.227	53.08
216.445	63.99
216.662	67.64
216.879	94.45
217.097	69.66
217.314	42.41
217.531	52.41
217.749	64.17
217.966	27.18
218.183	11.39
218.4	17.54
218.618	7.77
218.835	5.99
219.052	15.49
219.269	20
219.487	11.5
219.704	-1.33
219.921	8.27
220.138	15.15
220.355	12.34
220.572	15.62
220.79	12
221.007	18.92
221.224	1.15
221.441	2.56
221.658	8.29
221.875	10.86
222.092	14.34
222.309	12.44
222.526	23.42
222.743	25.43
222.96	21.14
223.177	16.07
223.394	11.55
223.611	11.96
223.828	2.31
224.045	14.22
224.262	16.52
224.479	11.71
224.696	9.21
224.913	5.52
225.13	8.52
225.347	5.89
225.564	7.72
225.781	9.52
225.997	12.31
226.214	12.71
226.431	13.03
226.648	13.83
226.865	11.45
227.082	9.47
227.298	10.65
227.515	10.61
227.732	10.91
227.949	10.88
228.165	10.73
228.382	9.87
228.599	10.34
228.816	9.87
229.032	10.09
229.249	9.78
229.466	10.54
229.682	11.94
229.899	13.15
230.116	12.59
230.332	12.25
230.549	12.83
230.765	12.91
230.982	13.38
231.199	14.5
231.415	13.88
231.632	12.79
231.848	13.48
232.065	14.44
232.281	14.39
232.498	12.05
232.714	13.78
232.931	14.62
233.147	14.68
233.364	15.22
233.58	15.86
233.797	15.67
234.013	14.29
234.23	12.72
234.446	13.02
234.662	12.62
234.879	12.06
235.095	10.89
235.312	12.3
235.528	12.68
235.744	10.75
235.961	10.58
236.177	9.04
236.393	10.22
236.61	10.11
236.826	12.64
237.042	12.97
237.258	13.52
237.475	13.31
237.691	11.77
237.907	12.76
238.123	12.88
238.339	12.28
238.556	13.54
238.772	14.34
238.988	14.2
239.204	13.35
239.42	12.87
239.636	11.6
239.853	12.43
240.069	12.2
240.285	12.14
240.501	12.57
240.717	11.55
240.933	11.66
241.149	11.54
241.365	11.37
241.581	10.84
241.797	10.38
242.013	10.31
242.229	10.64
242.445	11.18
242.661	9.97
242.877	9.94
243.093	9.99
243.309	10.29
243.525	10.46
243.741	10.21
243.957	10.05
244.173	9.67
244.388	9.75
244.604	9.64
244.82	9.38
245.036	8.95
245.252	8.62
245.468	9
245.683	8.83
245.899	8.59
246.115	8.25
246.331	8.33
246.547	8.12
246.762	8.04
246.978	7.9
247.194	7.65
247.409	7.78
247.625	8
247.841	7.99
248.057	8.35
248.272	8.45
248.488	8.48
248.703	8.23
248.919	7.75
249.135	8.38
249.35	8.07
249.566	8.09
249.782	8.3
249.997	7.9
250.213	7.92
250.428	7.3
250.644	8.11
250.859	8.01
251.075	8.19
251.29	8.27
251.506	7.57
251.721	7.87
251.937	6.66
252.152	7.34
252.368	7.07
252.583	7.12
252.798	7.73
253.014	9.26
253.229	8.64
253.445	7.69
253.66	7.21
253.875	6.47
254.091	6.07
254.306	7.73
254.521	7.94
254.737	8.43
254.952	9.16
255.167	9.95
255.383	9.29
255.598	8.97
255.813	8.18
256.028	8.82
256.244	8.76
256.459	8.56
256.674	8.97
256.889	8.66
257.104	8.63
257.32	8.27
257.535	8.12
257.75	7.89
257.965	7.21
258.18	7.33
258.395	7.28
258.61	7.34
258.826	7.29
259.041	7.17
259.256	7.07
259.471	6.92
259.686	7.26
259.901	7.29
260.116	7.37
260.331	7.86
260.546	7.35
260.761	7.52
260.976	7.82
261.191	7.59
261.406	7.04
261.621	7.24
261.836	7
262.05	7.51
262.265	7.46
262.48	6.9
262.695	6.46
262.91	6.38
263.125	5.93
263.34	6.12
263.555	6.23
263.769	5.94
263.984	6.6
264.199	6.93
264.414	6.93
264.629	7.95
264.843	8.06
265.058	7.85
265.273	7.76
265.488	7.24
265.702	7.43
265.917	7.52
266.132	7.59
266.346	7.78
266.561	7.41
266.776	7.62
266.99	7.44
267.205	6.86
267.42	6.16
267.634	6.22
267.849	6.45
268.063	6.65
268.278	6.56
268.492	6.78
268.707	6.6
268.922	6.26
269.136	6.28
269.351	6.21
269.565	5.97
269.78	6.06
269.994	6.76
270.209	7
270.423	6.61
270.637	6.33
270.852	6.45
271.066	6.94
271.281	6.95
271.495	7.07
271.709	7.44
271.924	7.63
272.138	8
272.353	8.19
272.567	7.82
272.781	7.73
272.996	7.53
273.21	7.49
273.424	8.28
273.638	8.06
273.853	8.22
274.067	7.81
274.281	7.5
274.495	7.84
274.71	7.39
274.924	7.23
275.138	7.08
275.352	7.2
275.566	6.98
275.781	7.41
275.995	7.34
276.209	6.8
276.423	6.36
276.637	6.13
276.851	6.51
277.065	6.73
277.279	7.06
277.493	7
277.707	6.97
277.921	6.64
278.135	7.28
278.349	7.18
278.563	7.09
278.777	7.22
278.991	7.15
279.205	7.29
279.419	7.12
279.633	6.97
279.847	6.94
280.061	6.49
280.275	7.28
280.489	7.06
280.703	7.46
280.917	7.24
281.131	7.03
281.344	6.8
281.558	6.7
281.772	6.57
281.986	6.71
282.2	6.97
282.414	7.4
282.627	7.38
282.841	6.73
283.055	6.45
283.269	6.76
283.482	6.6
283.696	6.33
283.91	6.35
284.123	6.5
284.337	6.84
284.551	7.28
284.764	7.6
284.978	7.46
285.192	7.3
285.405	7.17
285.619	7.36
285.833	7.2
286.046	7
286.26	7.06
286.473	6.98
286.687	7.2
286.9	7.25
287.114	7.2
287.327	6.95
287.541	7.05
287.754	7
287.968	6.77
288.181	6.73
288.395	7
288.608	6.7
288.822	6.82
289.035	7.11
289.248	7.59
289.462	7.62
289.675	7.79
289.889	7.45
290.102	7.23
290.315	6.76
290.529	6.68
290.742	6.91
290.955	7.5
291.169	8
291.382	7.88
291.595	8.06
291.808	7.9
292.022	7.87
292.235	7.86
292.448	7.4
292.661	7.46
292.875	7.65
293.088	7.85
293.301	8.01
293.514	7.88
293.727	7.7
293.94	7.63
294.153	8.41
294.367	8.27
294.58	8.28
294.793	8.46
295.006	8.56
295.219	8.73
295.432	9
295.645	8.95
295.858	9.2
296.071	9.26
296.284	9.19
296.497	9.15
296.71	8.93
296.923	8.63
297.136	8.66
297.349	8.66
297.562	8.78
297.775	8.93
297.988	8.8
298.201	8.46
298.414	8.71
298.626	8.66
298.839	8.78
299.052	8.9
299.265	8.56
299.478	8.87
299.691	9.02
299.903	9.16
300.116	9.35
300.329	9.01
300.542	8.66
300.755	8.97
300.967	9.03
301.18	9.05
301.393	8.9
301.605	8.92
301.818	9.06
302.031	9.47
302.243	9.1
302.456	8.81
302.669	9.19
302.881	9.43
303.094	9.22
303.307	9.57
303.519	9.61
303.732	9.72
303.944	9.29
304.157	9.61
304.37	9.64
304.582	9.65
304.795	9.68
305.007	9.62
305.22	10.05
305.432	9.62
305.645	8.95
305.857	9.23
306.069	9.08
306.282	8.99
306.494	9.52
306.707	9.67
306.919	9.15
307.132	8.58
307.344	8.27
307.556	8.4
307.769	8.25
307.981	8.23
308.193	8.17
308.406	8.48
308.618	8.33
308.83	8.23
309.043	8.32
309.255	7.99
309.467	8.29
309.679	8.59
309.892	8.68
310.104	8.86
310.316	8.63
310.528	9.21
310.74	9.24
310.953	9.44
311.165	9.11
311.377	9.19
311.589	9.27
311.801	9.5
312.013	9.62
312.225	9.31
312.437	9.1
312.649	9.44
312.862	9.12
313.074	9.16
313.286	8.76
313.498	8.5
313.71	8.05
313.922	8.54
314.134	8.52
314.346	8.65
314.558	8.61
314.77	8.28
314.982	8.51
315.193	8.51
315.405	8.68
315.617	9.07
315.829	9.04
316.041	9.2
316.253	9.37
316.465	9.71
316.677	9.65
316.888	9.69
317.1	9.21
317.312	9.17
317.524	9.65
317.736	9.67
317.947	9.82
318.159	9.59
318.371	9.81
318.583	10.26
318.794	10.36
319.006	10.71
319.218	10.59
319.43	10.3
319.641	10.41
319.853	11.15
320.064	11.08
320.276	10.85
320.488	10.91
320.699	10.39
320.911	10.17
321.123	10.02
321.334	9.79
321.546	9.61
321.757	9.29
321.969	9.52
322.18	9.61
322.392	9.85
322.603	9.18
322.815	8.99
323.026	8.83
323.238	8.43
323.449	9.39
323.661	10.03
323.872	9.81
324.083	9.66
324.295	9.59
324.506	9.47
324.718	9.78
324.929	9.9
325.14	9.72
325.352	9.92
325.563	10
325.774	10.14
325.986	10.49
326.197	9.97
326.408	9.58
326.62	9.62
326.831	9.35
327.042	9.29
327.253	9.12
327.464	8.86
327.676	8.68
327.887	8.46
328.098	8.71
328.309	8.62
328.52	9.01
328.732	8.92
328.943	8.8
329.154	8.81
329.365	8.8
329.576	9.38
329.787	9.91
329.998	10.45
330.209	10.48
330.42	10.7
330.631	10.7
330.842	10.61
331.053	10.55
331.264	10.27
331.475	10.21
331.686	10.87
331.897	11.33
332.108	11.59
332.319	11.05
332.53	10.68
332.741	9.77
332.952	9.49
333.163	9.25
333.374	9.32
333.585	9.39
333.795	9.32
334.006	9.11
334.217	9.12
334.428	8.59
334.639	8.58
334.849	8.72
335.06	9.39
335.271	9.46
335.482	10.06
335.692	10.21
335.903	10.2
336.114	10.36
336.325	10.24
336.535	10.12
336.746	10.58
336.957	10.78
337.167	10.52
337.378	10.36
337.589	9.93
337.799	9.6
338.01	9.55
338.22	9.55
338.431	9.71
338.642	9.79
338.852	9.57
339.063	9.4
339.273	9.56
339.484	9.47
339.694	9.38
339.905	9.57
340.115	9.31
340.326	9.48
340.536	9.15
340.746	9.01
340.957	8.87
341.167	8.44
341.378	8.35
341.588	8.63
341.799	8.71
342.009	8.7
342.219	8.32
342.43	8.37
342.64	8.53
342.85	8.68
343.061	9.1
343.271	9.32
343.481	9.52
343.691	9.46
343.902	9.53
344.112	9.48
344.322	9.35
344.532	9.08
344.743	9.07
344.953	8.94
345.163	8.87
345.373	8.76
345.583	8.99
345.793	8.58
346.004	8.53
346.214	8.34
346.424	8.42
346.634	8.63
346.844	8.62
347.054	8.3
347.264	8.59
347.474	8.64
347.684	9.21
347.894	9.07
348.104	9.14
348.314	8.81
348.524	8.74
348.734	8.89
348.944	9.2
349.154	8.86
349.364	8.85
349.574	8.77
349.784	9
349.994	8.99
350.204	8.73
350.413	8.49
350.623	8.22
350.833	8.11
351.043	7.74
351.253	7.6
351.463	7.42
351.672	7.19
351.882	7.71
352.092	7.6
352.302	7.75
352.511	7.74
352.721	7.54
352.931	7.75
353.141	7.7
353.35	8.06
353.56	7.97
353.77	8.07
353.979	8.3
354.189	8.5
354.399	8.41
354.608	8.33
354.818	8.28
355.027	8.07
355.237	8.02
355.447	8.2
355.656	8.11
355.866	8.17
356.075	8.15
356.285	8.16
356.494	8.24
356.704	8.06
356.913	7.75
357.123	7.63
357.332	7.32
357.542	7.32
357.751	7.59
357.96	7.45
358.17	7.39
358.379	7.54
358.589	7.19
358.798	7.18
359.007	7.07
359.217	6.92
359.426	6.94
359.635	7.07
359.845	7.05
360.054	7.39
360.263	7.42
360.472	7.5
360.682	7.61
360.891	7.5
361.1	7.51
361.309	7.68
361.519	7.38
361.728	7.61
361.937	7.59
362.146	7.54
362.355	7.53
362.564	7.73
362.774	7.54
362.983	7.56
363.192	7.47
363.401	7.29
363.61	7.37
363.819	7.08
364.028	7.01
364.237	7.27
364.446	7.27
364.655	7.58
364.864	7.69
365.073	7.8
365.282	7.55
365.491	7.38
365.7	7.29
365.909	7.2
366.118	7.24
366.327	7.28
366.536	7.21
366.745	7.51
366.954	7.33
367.162	7.19
367.371	7.08
367.58	7.14
367.789	7.02
367.998	7.32
368.207	7.56
368.415	7.38
368.624	7.18
368.833	7.28
369.042	7.53
369.25	7.96
369.459	7.57
369.668	7.69
369.877	7.52
370.085	7.46
370.294	7.4
370.503	7.3
370.711	6.96
370.92	6.71
371.129	6.86
371.337	6.79
371.546	6.82
371.754	6.46
371.963	6.2
372.171	6.4
372.38	6.32
372.589	6.41
372.797	6.66
373.006	6.7
373.214	6.63
373.423	6.78
373.631	6.81
373.84	6.7
374.048	6.63
374.256	6.53
374.465	6.48
374.673	6.56
374.882	6.53
375.09	6.58
375.298	6.48
375.507	6.04
375.715	5.92
375.923	5.99
376.132	5.86
376.34	6.05
376.548	6.16
376.757	6.22
376.965	6.03
377.173	5.93
377.381	5.75
377.59	5.69
377.798	5.68
378.006	5.76
378.214	5.91
378.423	5.92
378.631	5.8
378.839	5.76
379.047	5.63
379.255	5.42
379.463	5.52
379.671	5.76
379.879	6
380.088	5.8
380.296	5.63
380.504	5.54
380.712	5.31
380.92	5.41
381.128	5.33
381.336	5.58
381.544	5.67
381.752	5.54
381.96	5.6
382.168	5.43
382.376	5.27
382.584	5.02
382.791	5.24
382.999	5.33
383.207	5.42
383.415	5.61
383.623	5.43
383.831	5.27
384.039	5.16
384.247	5.26
384.454	5.21
384.662	5.13
384.87	5.23
385.078	5.23
385.285	5.47
385.493	5.43
385.701	5.54
385.909	5.41
386.116	5.28
386.324	5.44
386.532	5.26
386.739	5.1
386.947	5.02
387.155	5.19
387.362	5.19
387.57	5.33
387.778	5.46
387.985	5.22
388.193	5.35
388.4	5.14
388.608	5.09
388.816	5.33
389.023	5.29
389.231	5.52
389.438	5.49
389.646	5.29
389.853	5.29
390.061	5.35
390.268	5.24
390.475	5.19
390.683	5.08
390.89	4.98
391.098	5.21
391.305	5.19
391.512	5.1
391.72	4.99
391.927	4.87
392.135	4.8
392.342	4.93
392.549	4.8
392.756	4.86
392.964	4.72
393.171	4.6
393.378	4.81
393.586	4.77
393.793	4.43
394	4.33
394.207	4.29
394.414	4.43
394.622	4.53
394.829	4.55
395.036	4.49
395.243	4.49
395.45	4.39
395.657	4.51
395.864	4.39
396.072	4.37
396.279	4.3
396.486	4.41
396.693	4.54
396.9	4.43
397.107	4.28
397.314	4.32
397.521	4.44
397.728	4.36
397.935	4.3
398.142	4.26
398.349	4.14
398.556	4.35
398.763	4.31
398.97	4.35
399.177	4.23
399.383	4.09
399.59	4.22
399.797	4.08
400.004	4.01
400.211	4.11
400.418	4.05
400.625	4.11
400.831	4.12
401.038	4.07
401.245	3.95
401.452	3.91
401.658	3.91
401.865	3.92
402.072	3.92
402.279	3.87
402.485	3.86
402.692	3.98
402.899	3.77
403.105	3.75
403.312	3.76
403.519	3.72
403.725	3.86
403.932	3.81
404.138	3.82
404.345	3.86
404.552	3.96
404.758	4.02
404.965	3.84
405.171	3.98
405.378	3.78
405.584	3.88
405.791	4.02
405.997	4.13
406.204	4.18
406.41	3.81
406.617	3.98
406.823	3.94
407.029	3.93
407.236	3.84
407.442	3.84
407.649	3.92
407.855	3.85
408.061	3.83
408.268	3.87
408.474	3.8
408.68	3.75
408.887	3.85
409.093	4.18
409.299	4.15
409.505	4.14
409.712	4.15
409.918	4.28
410.124	4.36
410.33	4.36
410.537	4.36
410.743	4.34
410.949	4.22
411.155	4.16
411.361	4.02
411.567	3.91
411.773	3.8
411.98	3.82
412.186	3.91
412.392	3.99
412.598	3.8
412.804	3.64
413.01	3.69
413.216	3.72
413.422	3.88
413.628	3.82
413.834	3.81
414.04	3.9
414.246	3.87
414.452	3.88
414.658	3.77
414.864	3.73
415.07	3.63
415.275	3.77
415.481	3.83
415.687	3.88
415.893	3.94
416.099	3.86
416.305	3.99
416.511	4.05
416.716	4.02
416.922	3.97
417.128	3.92
417.334	3.98
417.539	3.94
417.745	3.9
417.951	3.87
418.157	3.8
418.362	3.72
418.568	3.6
418.774	3.59
418.979	3.57
419.185	3.54
419.391	3.5
419.596	3.54
419.802	3.65
420.008	3.6
420.213	3.6
420.419	3.61
420.624	3.54
420.83	3.53
421.035	3.5
421.241	3.53
421.446	3.51
421.652	3.51
421.857	3.55
422.063	3.56
422.268	3.53
422.474	3.49
422.679	3.43
422.885	3.43
423.09	3.39
423.295	3.44
423.501	3.48
423.706	3.54
423.911	3.62
424.117	3.68
424.322	3.62
424.527	3.6
424.733	3.58
424.938	3.62
425.143	3.56
425.349	3.6
425.554	3.6
425.759	3.61
425.964	3.66
426.169	3.67
426.375	3.66
426.58	3.58
426.785	3.46
426.99	3.53
427.195	3.43
427.4	3.51
427.605	3.35
427.811	3.38
428.016	3.34
428.221	3.31
428.426	3.26
428.631	3.23
428.836	3.15
429.041	3.15
429.246	3.13
429.451	3.17
429.656	3.13
429.861	3.22
430.066	3.16
430.271	3.18
430.476	3.23
430.681	3.34
430.886	3.37
431.09	3.37
431.295	3.26
431.5	3.34
431.705	3.33
431.91	3.39
432.115	3.43
432.32	3.49
432.524	3.38
432.729	3.38
432.934	3.48
433.139	3.42
433.343	3.37
433.548	3.37
433.753	3.47
433.958	3.54
434.162	3.49
434.367	3.38
434.572	3.34
434.776	3.36
434.981	3.37
435.186	3.36
435.39	3.25
435.595	3.19
435.799	3.22
436.004	3.25
436.209	3.15
436.413	3.08
436.618	3.06
436.822	3.1
437.027	3.18
437.231	3.05
437.436	2.98
437.64	2.97
437.845	2.97
438.049	3.08
438.253	2.96
438.458	2.91
438.662	2.84
438.867	2.91
439.071	2.78
439.275	2.78
439.48	2.8
439.684	2.74
439.888	2.84
440.093	2.86
440.297	2.79
440.501	2.83
440.706	2.74
440.91	2.8
441.114	2.77
441.318	2.78
441.523	2.72
441.727	2.79
441.931	2.83
442.135	2.74
442.339	2.78
442.543	2.79
442.748	2.84
442.952	2.86
443.156	2.9
443.36	2.97
443.564	3
443.768	3.06
443.972	3.1
444.176	3.1
444.38	3.09
444.584	3.05
444.788	3.11
444.992	3.11
445.196	3.03
445.4	2.97
445.604	2.96
445.808	2.91
446.012	2.89
446.216	2.86
446.42	2.85
446.624	2.76
446.828	2.74
447.032	2.69
447.235	2.69
447.439	2.67
447.643	2.67
447.847	2.75
448.051	2.76
448.254	2.76
448.458	2.78
448.662	2.8
448.866	2.85
449.069	2.8
449.273	2.86
449.477	2.9
449.681	3.03
449.884	3.08
450.088	3.02
450.292	2.97
450.495	2.97
450.699	2.92
450.902	2.77
451.106	2.67
451.31	2.64
451.513	2.63
451.717	2.67
451.92	2.64
452.124	2.73
452.327	2.65
452.531	2.56
452.734	2.61
452.938	2.55
453.141	2.51
453.345	2.5
453.548	2.65
453.752	2.77
453.955	2.79
454.158	2.81
454.362	2.82
454.565	2.87
454.769	2.81
454.972	2.82
455.175	2.95
455.379	2.9
455.582	3.01
455.785	2.96
455.988	2.93
456.192	2.94
456.395	2.88
456.598	2.8
456.801	2.86
457.005	2.82
457.208	2.83
457.411	2.79
457.614	2.82
457.817	2.78
458.021	2.76
458.224	2.71
458.427	2.69
458.63	2.71
458.833	2.73
459.036	2.71
459.239	2.72
459.442	2.61
459.645	2.59
459.848	2.52
460.051	2.52
460.254	2.52
460.457	2.47
460.66	2.45
460.863	2.47
461.066	2.52
461.269	2.47
461.472	2.4
461.675	2.46
461.878	2.61
462.081	2.65
462.284	2.76
462.486	2.81
462.689	2.83
462.892	2.92
463.095	2.88
463.298	2.85
463.5	2.9
463.703	2.87
463.906	2.85
464.109	2.83
464.311	2.71
464.514	2.65
464.717	2.6
464.92	2.55
465.122	2.52
465.325	2.59
465.528	2.54
465.73	2.59
465.933	2.76
466.135	2.74
466.338	2.83
466.541	2.98
466.743	3.02
466.946	3.19
467.148	3.16
467.351	3.29
467.553	3.23
467.756	3.18
467.958	3.18
468.161	3.18
468.363	3.16
468.566	3.05
468.768	3.01
468.971	2.97
469.173	2.84
469.375	2.89
469.578	2.85
469.78	2.86
469.983	2.73
470.185	2.79
470.387	2.88
470.59	2.82
470.792	2.78
470.994	2.79
471.196	2.8
471.399	2.79
471.601	2.7
471.803	2.78
472.005	2.68
472.208	2.7
472.41	2.73
472.612	2.8
472.814	2.78
473.016	2.73
473.218	2.72
473.421	2.7
473.623	2.78
473.825	2.7
474.027	2.68
474.229	2.76
474.431	2.69
474.633	2.74
474.835	2.73
475.037	2.65
475.239	2.65
475.441	2.62
475.643	2.58
475.845	2.6
476.047	2.64
476.249	2.52
476.451	2.61
476.653	2.59
476.855	2.55
477.057	2.56
477.258	2.46
477.46	2.45
477.662	2.44
477.864	2.47
478.066	2.51
478.268	2.66
478.469	2.69
478.671	2.68
478.873	2.7
479.075	2.7
479.276	2.74
479.478	2.68
479.68	2.69
479.882	2.74
480.083	2.7
480.285	2.68
480.487	2.61
480.688	2.62
480.89	2.6
481.091	2.56
481.293	2.59
481.495	2.6
481.696	2.56
481.898	2.56
482.099	2.63
482.301	2.61
482.502	2.62
482.704	2.61
482.905	2.63
483.107	2.64
483.308	2.61
483.51	2.59
483.711	2.59
483.913	2.57
484.114	2.56
484.315	2.58
484.517	2.57
484.718	2.52
484.92	2.57
485.121	2.54
485.322	2.55
485.524	2.54
485.725	2.53
485.926	2.55
486.127	2.56
486.329	2.57
486.53	2.55
486.731	2.58
486.932	2.56
487.134	2.57
487.335	2.58
487.536	2.58
487.737	2.61
487.938	2.6
488.139	2.64
488.341	2.64
488.542	2.67
488.743	2.66
488.944	2.69
489.145	2.73
489.346	2.76
489.547	2.77
489.748	2.78
489.949	2.78
490.15	2.78
490.351	2.77
490.552	2.78
490.753	2.78
490.954	2.82
491.155	2.82
491.356	2.81
491.557	2.8
491.758	2.79
491.959	2.78
492.159	2.82
492.36	2.78
492.561	2.81
492.762	2.79
492.963	2.83
493.164	2.89
493.364	2.89
493.565	2.86
493.766	2.81
493.967	2.84
494.167	2.88
494.368	2.91
494.569	2.87
494.769	2.88
494.97	2.92
495.171	2.9
495.371	2.89
495.572	2.83
495.773	2.88
495.973	2.85
496.174	2.88
496.375	2.85
496.575	2.86
496.776	2.8
496.976	2.79
497.177	2.88
497.377	2.83
497.578	2.86
497.778	2.92
497.979	2.96
498.179	3.02
498.38	3.04
498.58	3.05
498.78	3.03
498.981	3.12
499.181	3.07
499.382	3.02
499.582	3.06
499.782	2.95
499.983	3.04
500.183	2.96
500.383	2.92
500.584	2.93
500.784	2.96
500.984	2.88
501.184	2.89
501.385	2.9
501.585	2.93
501.785	3.03
501.985	2.98
502.185	2.96
502.386	2.96
502.586	3.02
502.786	3.1
502.986	3.12
503.186	3.11
503.386	3.13
503.586	3.17
503.786	3.18
503.987	3.31
504.187	3.3
504.387	3.3
504.587	3.47
504.787	3.39
504.987	3.43
505.187	3.4
505.387	3.38
505.587	3.42
505.786	3.42
505.986	3.35
506.186	3.34
506.386	3.41
506.586	3.29
506.786	3.37
506.986	3.42
507.186	3.43
507.386	3.58
507.585	3.68
507.785	3.71
507.985	3.81
508.185	3.86
508.384	3.85
508.584	3.87
508.784	3.89
508.984	3.91
509.183	3.98
509.383	4.01
509.583	4
509.782	4.04
509.982	4.05
510.182	4.01
510.381	4
510.581	4.04
510.781	3.96
510.98	4.04
511.18	4.09
511.379	4.12
511.579	4.09
511.778	4.06
511.978	4.06
512.177	4.11
512.377	4.11
512.576	4.14
512.776	4.26
512.975	4.27
513.175	4.23
513.374	4.37
513.573	4.43
513.773	4.47
513.972	4.52
514.172	4.53
514.371	4.67
514.57	4.67
514.77	4.65
514.969	4.68
515.168	4.69
515.367	4.62
515.567	4.66
515.766	4.68
515.965	4.7
516.164	4.66
516.364	4.68
516.563	4.66
516.762	4.75
516.961	4.75
517.16	4.76
517.359	4.79
517.559	4.76
517.758	4.8
517.957	4.83
518.156	4.87
518.355	4.9
518.554	4.9
518.753	4.93
518.952	4.98
519.151	5.03
519.35	5.05
519.549	5.16
519.748	5.23
519.947	5.31
520.146	5.37
520.345	5.34
520.544	5.37
520.743	5.43
520.942	5.5
521.141	5.51
521.339	5.59
521.538	5.6
521.737	5.68
521.936	5.76
522.135	5.72
522.333	5.7
522.532	5.7
522.731	5.82
522.93	5.84
523.129	5.88
523.327	5.86
523.526	5.87
523.725	5.95
523.923	5.9
524.122	5.96
524.321	5.91
524.519	5.93
524.718	5.98
524.917	6.03
525.115	6.08
525.314	6.08
525.512	6.14
525.711	6.2
525.909	6.24
526.108	6.29
526.306	6.32
526.505	6.36
526.703	6.4
526.902	6.45
527.1	6.41
527.299	6.43
527.497	6.47
527.696	6.47
527.894	6.46
528.092	6.51
528.291	6.52
528.489	6.58
528.688	6.56
528.886	6.58
529.084	6.63
529.283	6.64
529.481	6.68
529.679	6.75
529.877	6.79
530.076	6.78
530.274	6.86
530.472	6.93
530.67	6.97
530.869	7.06
531.067	7.04
531.265	7.08
531.463	7.1
531.661	7.13
531.859	7.13
532.057	7.15
532.255	7.16
532.454	7.17
532.652	7.24
532.85	7.23
533.048	7.29
533.246	7.31
533.444	7.32
533.642	7.31
533.84	7.39
534.038	7.41
534.236	7.44
534.434	7.52
534.632	7.56
534.83	7.64
535.027	7.66
535.225	7.63
535.423	7.62
535.621	7.55
535.819	7.59
536.017	7.6
536.215	7.69
536.412	7.7
536.61	7.8
536.808	7.77
537.006	7.86
537.203	7.89
537.401	7.92
537.599	7.97
537.797	8.09
537.994	8.2
538.192	8.31
538.39	8.3
538.587	8.34
538.785	8.37
538.983	8.44
539.18	8.4
539.378	8.44
539.575	8.41
539.773	8.42
539.97	8.45
540.168	8.45
540.366	8.47
540.563	8.47
540.761	8.54
540.958	8.56
541.155	8.57
541.353	8.56
541.55	8.54
541.748	8.52
541.945	8.55
542.143	8.59
542.34	8.63
542.537	8.68
542.735	8.74
542.932	8.74
543.129	8.77
543.327	8.75
543.524	8.8
543.721	8.87
543.919	8.97
544.116	9.11
544.313	9.28
544.51	9.4
544.708	9.47
544.905	9.52
545.102	9.55
545.299	9.52
545.496	9.59
545.693	9.61
545.891	9.65
546.088	9.65
546.285	9.63
546.482	9.64
546.679	9.58
546.876	9.53
547.073	9.48
547.27	9.45
547.467	9.42
547.664	9.36
547.861	9.54
548.058	9.56
548.255	9.67
548.452	9.73
548.649	9.83
548.846	9.93
549.043	9.98
549.24	10.01
549.437	10.12
549.633	10.17
549.83	10.18
550.027	10.34
550.224	10.5
550.421	10.43
550.618	10.57
550.814	10.56
551.011	10.63
551.208	10.72
551.405	10.7
551.601	10.74
551.798	10.83
551.995	10.92
552.191	10.99
552.388	11.05
552.585	11.03
552.781	11.15
552.978	11.22
553.175	11.22
553.371	11.29
553.568	11.28
553.764	11.29
553.961	11.38
554.157	11.39
554.354	11.46
554.55	11.46
554.747	11.55
554.943	11.64
555.14	11.71
555.336	11.77
555.533	11.9
555.729	12
555.926	12.03
556.122	12.17
556.318	12.25
556.515	12.36
556.711	12.52
556.907	12.5
557.104	12.51
557.3	12.55
557.496	12.63
557.693	12.74
557.889	12.78
558.085	12.75
558.281	12.81
558.478	12.89
558.674	12.92
558.87	12.95
559.066	12.95
559.262	13
559.459	13.06
559.655	13.19
559.851	13.17
560.047	13.32
560.243	13.37
560.439	13.35
560.635	13.48
560.831	13.52
561.027	13.59
561.223	13.63
561.419	13.76
561.615	13.92
561.811	13.93
562.007	13.98
562.203	14.08
562.399	14.2
562.595	14.2
562.791	14.24
562.987	14.24
563.183	14.39
563.379	14.42
563.575	14.54
563.771	14.59
563.966	14.55
564.162	14.57
564.358	14.7
564.554	14.89
564.75	14.94
564.945	14.96
565.141	14.96
565.337	15.04
565.533	15.21
565.728	15.26
565.924	15.27
566.12	15.23
566.315	15.27
566.511	15.47
566.707	15.54
566.902	15.52
567.098	15.51
567.293	15.54
567.489	15.66
567.684	15.73
567.88	15.78
568.076	15.78
568.271	15.67
568.467	15.86
568.662	16.03
568.858	16.09
569.053	16.08
569.248	16.19
569.444	16.26
569.639	16.39
569.835	16.42
570.03	16.51
570.225	16.59
570.421	16.73
570.616	16.83
570.812	17.05
571.007	17.03
571.202	17.05
571.397	17.14
571.593	17.11
571.788	17.08
571.983	17.13
572.178	17.13
572.374	17.23
572.569	17.24
572.764	17.31
572.959	17.3
573.154	17.35
573.35	17.27
573.545	17.38
573.74	17.54
573.935	17.55
574.13	17.65
574.325	17.75
574.52	17.82
574.715	17.85
574.91	17.96
575.105	18.06
575.3	18.12
575.495	18.16
575.69	18.29
575.885	18.31
576.08	18.29
576.275	18.27
576.47	18.47
576.665	18.69
576.86	18.73
577.055	18.77
577.25	18.9
577.444	18.87
577.639	18.81
577.834	18.89
578.029	19.05
578.224	19.01
578.418	19.27
578.613	19.36
578.808	19.41
579.003	19.43
579.197	19.34
579.392	19.37
579.587	19.46
579.781	19.42
579.976	19.59
580.171	19.68
580.365	19.76
580.56	19.76
580.755	19.83
580.949	19.8
581.144	19.82
581.338	19.83
581.533	19.77
581.727	19.78
581.922	19.96
582.116	20.05
582.311	20.22
582.505	20.09
582.7	20.06
582.894	19.93
583.089	19.86
583.283	19.98
583.478	20.08
583.672	20.03
583.866	20.12
584.061	20.22
584.255	20.28
584.449	20.2
584.644	20.07
584.838	20.13
585.032	20.25
585.226	20.38
585.421	20.54
585.615	20.68
585.809	20.71
586.003	20.73
586.198	20.8
586.392	20.62
586.586	20.64
586.78	20.83
586.974	20.97
587.168	21.03
587.363	21.01
587.557	21.06
587.751	21.16
587.945	21.17
588.139	21.39
588.333	21.33
588.527	21.38
588.721	21.61
588.915	21.89
589.109	21.96
589.303	21.9
589.497	21.79
589.691	21.98
589.885	21.99
590.079	22.2
590.273	22.26
590.466	22.25
590.66	22.09
590.854	22.18
591.048	22.1
591.242	22.05
591.436	22.06
591.629	22.02
591.823	22.08
592.017	22.25
592.211	22.3
592.404	22.36
592.598	22.24
592.792	22.29
592.986	22.4
593.179	22.43
593.373	22.39
593.567	22.59
593.76	22.67
593.954	22.64
594.147	22.7
594.341	22.72
594.535	22.77
594.728	22.8
594.922	22.85
595.115	22.91
595.309	22.92
595.502	22.89
595.696	22.9
595.889	22.95
596.083	22.96
596.276	22.92
596.47	22.89
596.663	22.97
596.856	23.03
597.05	23.01
597.243	23
597.437	22.99
597.63	23.08
597.823	23.03
598.017	23.15
598.21	23.09
598.403	23.22
598.596	23.1
598.79	23.17
598.983	23.38
599.176	23.32
599.369	23.37
599.563	23.49
599.756	23.5
599.949	23.54
600.142	23.51
600.335	23.56
600.528	23.58
600.722	23.89
600.915	23.83
601.108	23.89
601.301	23.97
601.494	24.02
601.687	24.12
601.88	24.01
602.073	24.07
602.266	24.05
602.459	24.12
602.652	24.13
602.845	24.18
603.038	24.23
603.231	24.2
603.424	24.24
603.617	24.28
603.809	24.22
604.002	24.17
604.195	24.18
604.388	24.19
604.581	24.13
604.774	24.17
604.966	24
605.159	23.95
605.352	23.89
605.545	23.79
605.737	23.8
605.93	23.8
606.123	23.91
606.316	24.01
606.508	24.03
606.701	24.11
606.894	24.25
607.086	24.22
607.279	24.32
607.471	24.55
607.664	24.66
607.857	24.73
608.049	24.92
608.242	24.94
608.434	24.99
608.627	24.96
608.819	24.88
609.012	25
609.204	24.98
609.397	24.97
609.589	24.98
609.782	24.98
609.974	24.97
610.166	25.04
610.359	25.16
610.551	25.04
610.743	25.05
610.936	24.97
611.128	24.97
611.32	25.16
611.513	25.1
611.705	25.18
611.897	25.18
612.09	25.19
612.282	25.36
612.474	25.29
612.666	25.23
612.858	25.21
613.051	25.31
613.243	25.2
613.435	25.26
613.627	25.29
613.819	25.39
614.011	25.35
614.203	25.47
614.395	25.54
614.588	25.48
614.78	25.3
614.972	25.45
615.164	25.42
615.356	25.42
615.548	25.56
615.74	25.53
615.932	25.6
616.124	25.57
616.315	25.46
616.507	25.53
616.699	25.45
616.891	25.35
617.083	25.47
617.275	25.35
617.467	25.53
617.659	25.7
617.85	25.7
618.042	25.58
618.234	25.65
618.426	25.69
618.618	25.73
618.809	25.76
619.001	25.88
619.193	25.92
619.384	25.96
619.576	25.98
619.768	26.24
619.959	26.27
620.151	26.18
620.343	26.18
620.534	26.33
620.726	26.45
620.917	26.32
621.109	26.45
621.301	26.5
621.492	26.24
621.684	26.2
621.875	26.21
622.067	26.27
622.258	26.25
622.45	26.03
622.641	26.11
622.832	26.08
623.024	26.07
623.215	26.2
623.407	26.34
623.598	26.39
623.789	26.49
623.981	26.66
624.172	26.58
624.363	26.81
624.555	26.66
624.746	26.73
624.937	26.77
625.129	26.58
625.32	26.74
625.511	26.69
625.702	26.64
625.893	26.67
626.085	26.59
626.276	26.58
626.467	26.62
626.658	26.66
626.849	26.48
627.04	26.6
627.231	26.62
627.422	26.58
627.614	26.73
627.805	26.72
627.996	26.81
628.187	26.86
628.378	26.87
628.569	27
628.76	26.9
628.951	26.99
629.142	27.1
629.332	27.32
629.523	27.26
629.714	27.11
629.905	27.35
630.096	27.41
630.287	27.19
630.478	27.35
630.669	27.42
630.859	27.42
631.05	27.44
631.241	27.42
631.432	27.25
631.623	27.26
631.813	27.02
632.004	27.1
632.195	27.37
632.385	27.14
632.576	27.08
632.767	27.11
632.957	26.99
633.148	26.8
633.339	26.72
633.529	26.67
633.72	26.68
633.91	26.74
634.101	26.89
634.292	27.06
634.482	27.03
634.673	26.86
634.863	26.88
635.054	27.1
635.244	27.29
635.435	27.33
635.625	27.25
635.815	27.28
636.006	27.21
636.196	27.26
636.387	27.47
636.577	27.37
636.767	27.36
636.958	27.49
637.148	27.65
637.338	27.71
637.529	27.61
637.719	27.65
637.909	27.59
638.099	27.74
638.29	27.73
638.48	27.67
638.67	27.9
638.86	27.78
639.05	27.65
639.241	27.63
639.431	27.59
639.621	27.44
639.811	27.56
640.001	27.56
640.191	27.52
640.381	27.53
640.571	27.51
640.761	27.59
640.951	27.8
641.141	27.53
641.331	27.66
641.521	27.88
641.711	27.81
641.901	27.95
642.091	27.92
642.281	27.9
642.471	27.84
642.661	27.81
642.851	27.74
643.041	27.96
643.231	28
643.42	28.1
643.61	28.15
643.8	28.11
643.99	28.12
644.18	28.45
644.369	28.4
644.559	28.57
644.749	28.46
644.939	28.55
645.128	28.55
645.318	28.75
645.508	28.69
645.697	28.76
645.887	28.56
646.076	28.7
646.266	28.92
646.456	28.91
646.645	28.79
646.835	28.75
647.024	28.51
647.214	28.63
647.403	28.62
647.593	28.83
647.782	28.67
647.972	28.67
648.161	28.72
648.351	28.77
648.54	28.86
648.73	28.64
648.919	28.68
649.108	28.54
649.298	28.58
649.487	28.71
649.677	28.73
649.866	28.59
650.055	28.71
650.244	28.87
650.434	28.99
650.623	28.8
650.812	28.88
651.002	28.77
651.191	28.67
651.38	28.64
651.569	28.75
651.758	28.77
651.947	29.02
652.137	29.19
652.326	29.4
652.515	29.45
652.704	29.41
652.893	29.29
653.082	29.53
653.271	29.53
653.46	29.36
653.649	29.5
653.838	29.51
654.027	29.51
654.216	29.51
654.405	29.36
654.594	29.38
654.783	29.25
654.972	29.28
655.161	29.29
655.35	29.3
655.539	29.43
655.728	29.47
655.916	29.79
656.105	29.69
656.294	29.62
656.483	29.76
656.672	29.9
656.86	30.04
657.049	29.96
657.238	30.1
657.427	29.95
657.615	29.96
657.804	30
657.993	29.82
658.181	29.82
658.37	29.68
658.559	29.85
658.747	29.97
658.936	29.78
659.125	29.72
659.313	29.7
659.502	29.69
659.69	29.54
659.879	29.5
660.067	29.46
660.256	29.57
660.444	29.7
660.633	29.55
660.821	29.71
661.01	29.79
661.198	29.79
661.387	30.12
661.575	30.12
661.763	30.13
661.952	30.25
662.14	30.4
662.328	30.58
662.517	30.61
662.705	30.51
662.893	30.53
663.082	30.69
663.27	30.54
663.458	30.4
663.646	30.36
663.834	30.26
664.023	30.36
664.211	30.33
664.399	30.21
664.587	30.34
664.775	30.34
664.963	30.49
665.152	30.43
665.34	30.26
665.528	30.31
665.716	30.54
665.904	30.54
666.092	30.58
666.28	30.7
666.468	30.67
666.656	30.55
666.844	30.71
667.032	30.71
667.22	30.38
667.408	30.19
667.596	30.38
667.784	30.55
667.971	30.72
668.159	30.71
668.347	30.66
668.535	30.68
668.723	30.39
668.911	30.61
669.098	30.77
669.286	30.66
669.474	30.68
669.662	31.04
669.849	31.3
670.037	31.39
670.225	31.3
670.413	31.33
670.6	31.35
670.788	31.2
670.976	31.21
671.163	31.32
671.351	30.96
671.538	31.09
671.726	31
671.913	30.72
672.101	30.75
672.289	30.55
672.476	30.18
672.664	30.33
672.851	30.19
673.039	29.97
673.226	30.23
673.413	30.29
673.601	30.42
673.788	30.63
673.976	30.37
674.163	30.51
674.35	30.67
674.538	30.41
674.725	30.47
674.912	30.73
675.1	30.78
675.287	30.81
675.474	30.96
675.662	30.95
675.849	30.84
676.036	30.71
676.223	30.9
676.411	30.95
676.598	31.11
676.785	31.1
676.972	31.26
677.159	31.2
677.346	31.18
677.533	31.02
677.721	30.92
677.908	31.03
678.095	31.1
678.282	31.21
678.469	31.32
678.656	31.17
678.843	31.23
679.03	31.06
679.217	31.13
679.404	30.95
679.591	31.17
679.778	31.2
679.964	31.09
680.151	31.23
680.338	31.1
680.525	31.24
680.712	31.1
680.899	31.24
681.086	31.29
681.272	31.12
681.459	31.24
681.646	31.36
681.833	31.69
682.02	31.5
682.206	31.68
682.393	31.94
682.58	31.89
682.766	32.01
682.953	31.93
683.14	32.06
683.326	31.99
683.513	32.09
683.7	32.53
683.886	32.39
684.073	32.37
684.259	32.02
684.446	32.21
684.632	31.95
684.819	32.05
685.005	32.1
685.192	31.92
685.378	31.72
685.565	31.85
685.751	32.09
685.938	32.12
686.124	32
686.31	32.11
686.497	32.1
686.683	32.26
686.87	32.1
687.056	32.17
687.242	32
687.429	31.84
687.615	32
687.801	32.04
687.987	31.96
688.174	31.63
688.36	31.42
688.546	31.51
688.732	31.56
688.918	31.59
689.105	31.48
689.291	31.59
689.477	31.6
689.663	31.73
689.849	32.06
690.035	32.49
690.221	32.39
690.407	32.36
690.593	32.37
690.779	32.46
690.965	32.3
691.151	32.23
691.337	32.16
691.523	32.26
691.709	32.05
691.895	32.1
692.081	32.17
692.267	31.95
692.453	31.65
692.639	31.97
692.825	31.89
693.011	31.96
693.196	31.85
693.382	31.95
693.568	32.02
693.754	31.79
693.94	31.95
694.125	32.19
694.311	32.32
694.497	32.17
694.682	32.16
694.868	31.92
695.054	31.81
695.239	31.89
695.425	32.18
695.611	32.32
695.796	32.42
695.982	32.51
696.168	32.84
696.353	32.89
696.539	32.92
696.724	32.72
696.91	32.86
697.095	32.77
697.281	32.83
697.466	32.78
697.652	32.71
697.837	32.59
698.023	32.62
698.208	32.39
698.393	32.42
698.579	32.35
698.764	32.45
698.949	32.51
699.135	32.49
699.32	32.5
699.505	32.68
699.691	32.62
699.876	32.59
700.061	32.43
700.246	32.47
700.432	32.27
700.617	32.46
700.802	32.3
700.987	32.6
701.172	32.46
701.358	32.57
701.543	32.46
701.728	32.21
701.913	32.32
702.098	32.58
702.283	32.56
702.468	32.87
702.653	32.76
702.838	32.93
703.023	32.8
703.208	32.85
703.393	32.36
703.578	32.32
703.763	32.09
703.948	32.63
704.133	32.91
704.318	32.63
704.503	32.51
704.688	32.82
704.873	33.04
705.057	33.19
705.242	33.24
705.427	33.65
705.612	33.87
705.797	34.13
705.981	34.29
706.166	33.74
706.351	33.66
706.536	33.47
706.72	33.69
706.905	33.59
707.09	33.35
707.274	33.31
707.459	33.19
707.644	33.21
707.828	33.03
708.013	32.79
708.197	33.02
708.382	32.68
708.567	33.01
708.751	32.99
708.936	32.91
709.12	32.75
709.305	32.92
709.489	33.08
709.673	33.16
709.858	33.05
710.042	32.94
710.227	32.52
710.411	32.36
710.596	32.06
710.78	32.1
710.964	32.02
711.149	31.98
711.333	32.23
711.517	32.63
711.702	32.67
711.886	32.65
712.07	32.51
712.254	32.51
712.438	32.75
712.623	33.09
712.807	33.11
712.991	33.03
713.175	33.49
713.359	33.8
713.544	33.53
713.728	33.41
713.912	33
714.096	33.13
714.28	33.48
714.464	33.73
714.648	33.85
714.832	33.66
715.016	33.46
715.2	33.51
715.384	33.79
715.568	33.62
715.752	33.7
715.936	33.73
716.12	33.68
716.304	33.87
716.488	33.56
716.671	33.37
716.855	33.19
717.039	33
717.223	33.02
717.407	33.3
717.59	33.39
717.774	32.87
717.958	32.85
718.142	32.74
718.325	32.65
718.509	32.22
718.693	32.24
718.877	32.13
719.06	32.05
719.244	32.32
719.428	32.68
719.611	32.66
719.795	32.47
719.978	32.8
720.162	33.1
720.345	32.75
720.529	32.89
720.713	33.98
720.896	34.53
721.08	34.2
721.263	34.17
721.446	33.91
721.63	33.44
721.813	33.1
721.997	33.01
722.18	33.11
722.364	32.97
722.547	32.87
722.73	33.06
722.914	32.72
723.097	32.19
723.28	32.39
723.464	32.36
723.647	32.71
723.83	32.68
724.013	32.54
724.197	32.93
724.38	33.28
724.563	33.44
724.746	33.59
724.929	33.9
725.112	33.82
725.296	34.14
725.479	33.71
725.662	33.4
725.845	33.43
726.028	33.26
726.211	33.05
726.394	33.12
726.577	33.19
726.76	33.36
726.943	32.98
727.126	32.75
727.309	32.55
727.492	32.83
727.675	32.65
727.858	32.68
728.041	32.75
728.224	32.7
728.407	32.86
728.589	32.9
728.772	32.85
728.955	32.53
729.138	32.51
729.321	32.75
729.503	32.63
729.686	32.57
729.869	32.18
730.052	32.37
730.234	32.73
730.417	32.35
730.6	32.48
730.782	32.44
730.965	32.98
731.148	32.94
731.33	33.06
731.513	32.45
731.695	32.01
731.878	32.35
732.061	32.49
732.243	32.57
732.426	32.42
732.608	32.47
732.791	32.84
732.973	33.11
733.156	32.79
733.338	32.59
733.52	32.65
733.703	32.4
733.885	32.79
734.068	33
734.25	32.5
734.432	32.37
734.615	32.58
734.797	32.44
734.979	31.96
735.162	31.97
735.344	31.76
735.526	31.74
735.708	31.39
735.891	31.65
736.073	31.81
736.255	31.6
736.437	31.51
736.619	31.52
736.802	31.58
736.984	31.82
737.166	31.91
737.348	31.83
737.53	32.16
737.712	31.88
737.894	32.39
738.076	32.9
738.258	32.72
738.44	32.58
738.622	32.97
738.804	33.5
738.986	33.65
739.168	33.93
739.35	33.67
739.532	33.61
739.714	34.23
739.896	33.85
740.078	33.69
740.259	33.73
740.441	33.8
740.623	34.26
740.805	34.85
740.987	35.45
741.168	35.29
741.35	35.47
741.532	35.26
741.714	35.08
741.895	35.06
742.077	34.88
742.259	34.78
742.44	35.22
742.622	35.02
742.804	34.64
742.985	34
743.167	33.78
743.348	33.14
743.53	33.37
743.711	33.58
743.893	34.1
744.075	34.01
744.256	34.27
744.438	34.09
744.619	34.14
744.8	34.35
744.982	34.32
745.163	34.22
745.345	34.37
745.526	34.24
745.707	33.42
745.889	33.28
746.07	33.14
746.252	32.96
746.433	32.98
746.614	33.21
746.795	32.37
746.977	32.36
747.158	32.33
747.339	32.42
747.52	32.81
747.702	33.28
747.883	33.14
748.064	33.64
748.245	33.73
748.426	33.91
748.607	33.36
748.788	33.88
748.97	33.49
749.151	35.09
749.332	35.42
749.513	35.42
749.694	35.09
749.875	34.86
750.056	34.77
750.237	34.92
750.418	34.88
750.599	34.38
750.78	34.15
750.96	33.51
751.141	32.99
751.322	33.59
751.503	33.07
751.684	33.37
751.865	32.64
752.046	32.86
752.226	33.17
752.407	33.15
752.588	33.77
752.769	34.18
752.949	34.38
753.13	34.87
753.311	35.56
753.492	35.65
753.672	35.16
753.853	35.37
754.034	35.24
754.214	35.48
754.395	35.57
754.575	35.29
754.756	35.41
754.937	34.64
755.117	35.1
755.298	35.15
755.478	34.74
755.659	34.81
755.839	34.59
756.02	34.41
756.2	34.31
756.381	34
756.561	34.46
756.741	34.49
756.922	33.99
757.102	34.06
757.283	34.27
757.463	33.87
757.643	34.17
757.823	34.42
758.004	34.5
758.184	35.36
758.364	35
758.545	34.95
758.725	35.16
758.905	34.92
759.085	35.08
759.265	35.33
759.446	34.65
759.626	34.5
759.806	34.28
759.986	33.67
760.166	32.9
760.346	32.61
760.526	31.93
760.706	32.39
760.886	31.66
761.066	31.45
761.246	31.89
761.426	31.89
761.606	32.42
761.786	32.8
761.966	32.86
762.146	32.86
762.326	32.99
762.506	33.13
762.686	33.15
762.866	33.27
763.046	33.67
763.225	34.15
763.405	34.15
763.585	34.05
763.765	33.75
763.945	33.81
764.124	33.9
764.304	33.97
764.484	34.18
764.664	34.55
764.843	34.79
765.023	35.02
765.203	35.37
765.382	35.23
765.562	35.15
765.741	35.33
765.921	35.37
766.101	36.09
766.28	35.84
766.46	35.35
766.639	35.24
766.819	34.58
766.998	34.64
767.178	34.5
767.357	34.21
767.537	33.66
767.716	33.37
767.896	33.49
768.075	33.46
768.254	33.96
768.434	33.07
768.613	33.08
768.792	33.57
768.972	33.83
769.151	33.72
769.33	33.34
769.51	33.61
769.689	33.35
769.868	33.23
770.047	33.06
770.226	32.86
770.406	33.02
770.585	31.55
770.764	31.97
770.943	31.84
771.122	31.5
771.301	31.19
771.48	31.29
771.66	30.81
771.839	30.68
772.018	31.34
772.197	31.35
772.376	31.64
772.555	32.06
772.734	31.74
772.913	32.24
773.092	31.82
773.271	31.55
773.449	32.46
773.628	32.12
773.807	32.37
773.986	33.44
774.165	33.48
774.344	33.56
774.523	34.21
774.701	33.9
774.88	33.51
775.059	33.61
775.238	33.31
775.417	33.54
775.595	33.55
775.774	33.12
775.953	33.55
776.131	34.11
776.31	34.55
776.489	34.46
776.667	33.8
776.846	33.68
777.025	33.9
777.203	33.51
777.382	33.33
777.56	33.43
777.739	33.55
777.917	34.65
778.096	33.73
778.274	33.18
778.453	33.09
778.631	32.32
778.81	32.11
778.988	32.52
779.166	31.78
779.345	31.68
779.523	32.26
779.702	32.92
779.88	33.38
780.058	33.55
780.237	32.64
780.415	33.78
780.593	34.27
780.771	34.04
780.95	34.08
781.128	33.76
781.306	33.78
781.484	33.76
781.662	33.34
781.841	32.89
782.019	32.69
782.197	31.87
782.375	31.13
782.553	31.26
782.731	30.78
782.909	31.02
783.087	31.49
783.265	31.67
783.443	32
783.621	32.85
783.799	33.59
783.977	33.91
784.155	33.66
784.333	32.86
784.511	33.27
784.689	33.88
784.867	34.52
785.045	34.71
785.223	34.97
785.4	34.7
785.578	35.29
785.756	35.24
785.934	34.54
786.112	33.48
786.289	34.21
786.467	35.11
786.645	36.24
786.823	36.79
787	36.47
787.178	36.16
787.356	35.61
787.533	35.66
787.711	35.19
787.889	34.67
788.066	34.67
788.244	34.12
788.421	35.58
788.599	35.38
788.776	35.29
788.954	34.59
789.131	34.46
789.309	34.29
789.486	34.41
789.664	34.85
789.841	34.13
790.019	34.96
790.196	34.79
790.373	35.52
790.551	36.75
790.728	36.64
790.906	37.26
791.083	37.57
791.26	37.06
791.437	37.57
791.615	38.4
791.792	38.63
791.969	38.41
792.146	39.02
792.324	39.08
792.501	38.98
792.678	38.07
792.855	37.17
793.032	36.2
793.209	35.19
793.387	34.25
793.564	34.85
793.741	34.12
793.918	34.03
794.095	32.75
794.272	33.25
794.449	32.77
794.626	31.63
794.803	31.84
794.98	32.1
795.157	32.02
795.334	32.47
795.511	33.24
795.688	32.67
795.864	32.71
796.041	33.48
796.218	32.95
796.395	33.51
796.572	32.95
796.749	31.94
796.925	31.95
797.102	31.88
797.279	31.76
797.456	31.63
797.632	31.15
797.809	30.6
797.986	31.61
798.162	31.68
798.339	31.83
798.516	32.25
798.692	32.42
798.869	32.37
799.046	33.37
799.222	33.54
799.399	33.91
799.575	33.83
799.752	33.93
799.928	34.05
800.105	33.26
800.281	33.32
800.458	33.38
800.634	32.56
800.811	32.22
800.987	32.3
801.163	33.22
801.34	32.28
801.516	33.46
801.692	32.63
801.869	34.22
802.045	35.33
802.221	35.54
802.398	35.63
802.574	36.14
802.75	35.73
802.926	36.23
803.103	36.75
803.279	36.38
803.455	35.84
803.631	37.21
803.807	37.28
803.983	37.61
804.16	36.18
804.336	35.79
804.512	36.39
804.688	36.89
804.864	36.67
805.04	37.08
805.216	36.46
805.392	36.32
805.568	36.43
805.744	36.28
805.92	36.22
806.096	35.39
806.272	35.05
806.448	35.13
806.623	34.84
806.799	33.8
806.975	33.74
807.151	32.81
807.327	32.95
807.503	32.99
807.678	33.02
807.854	32.34
808.03	32.15
808.206	32.47
808.381	32.12
808.557	32.23
808.733	32.39
808.908	32.27
809.084	33.01
809.26	32.44
809.435	32.7
809.611	32.52
809.787	33.48
809.962	33.44
810.138	34.89
810.313	36.49
810.489	35.92
810.664	36.4
810.84	36.52
811.015	36.56
811.191	36.98
811.366	37.31
811.542	37.38
811.717	37.65
811.892	38.11
812.068	37.65
812.243	37.37
812.419	36.12
812.594	34.24
812.769	34.31
812.944	34.13
813.12	33.75
813.295	33.52
813.47	34.46
813.645	33.7
813.821	33.42
813.996	32.71
814.171	32.17
814.346	32.25
814.521	32
814.697	32.21
814.872	32.98
815.047	32.16
815.222	32.03
815.397	32.32
815.572	33.49
815.747	31.34
815.922	30.73
816.097	31.9
816.272	33.32
816.447	33.63
816.622	33.81
816.797	33.7
816.972	34.11
817.147	33.96
817.322	34.4
817.496	35.22
817.671	35.78
817.846	34.63
818.021	34.21
818.196	34.71
818.371	34.15
818.545	33.36
818.72	33.07
818.895	32.56
819.069	33.22
819.244	33.97
819.419	33.35
819.594	34.26
819.768	34.45
819.943	34.18
820.117	34.4
820.292	35.25
820.467	35.29
820.641	35.24
820.816	35.6
820.99	35.44
821.165	35.56
821.339	35.47
821.514	34.9
821.688	35.21
821.863	34.69
822.037	34.16
822.212	34.16
822.386	34.2
822.56	34.16
822.735	34.18
822.909	34.3
823.084	34.01
823.258	34.04
823.432	33.8
823.606	33.85
823.781	33.96
823.955	33.78
824.129	33.92
824.303	34.47
824.478	34.77
824.652	34.45
824.826	34.29
825	34.22
825.174	33.97
825.348	34.15
825.523	34.43
825.697	34.84
825.871	34.63
826.045	34.23
826.219	34.55
826.393	34.97
826.567	34.81
826.741	34.45
826.915	34.93
827.089	35.25
827.263	35.26
827.437	35.39
827.611	35.55
827.784	35.55
827.958	35.13
828.132	35.47
828.306	36.4
828.48	36.43
828.654	36.18
828.827	36.2
829.001	36.32
829.175	36.75
829.349	36.71
829.522	37.41
829.696	37.89
829.87	37.32
830.044	37.39
830.217	38.15
830.391	37.49
830.565	37.23
830.738	36.67
830.912	36.93
831.085	37.34
831.259	37.15
831.432	35.82
831.606	35.8
831.779	34.65
831.953	34.68
832.126	36.13
832.3	35.57
832.473	35.74
832.647	35.66
832.82	35.58
832.994	35.61
833.167	35.74
833.34	35.66
833.514	35.96
833.687	35.83
833.86	35.31
834.034	35.54
834.207	35.03
834.38	34.02
834.553	33.94
834.727	33.78
834.9	33.88
835.073	34.27
835.246	34.41
835.419	34.15
835.593	34
835.766	34.14
835.939	34.75
836.112	35.33
836.285	35.69
836.458	35.99
836.631	36.2
836.804	36.71
836.977	37.85
837.15	38.43
837.323	36.12
837.496	35.82
837.669	35.1
837.842	34.16
838.015	34.33
838.188	33.45
838.361	33.87
838.533	33.09
838.706	32.69
838.879	33.68
839.052	32.72
839.225	30.33
839.398	31.78
839.57	33.12
839.743	33.34
839.916	35.47
840.088	36.27
840.261	34.34
840.434	34.56
840.607	33.6
840.779	33.28
840.952	32.89
841.124	33.34
841.297	33.41
841.47	35.03
841.642	32.85
841.815	34.3
841.987	32.59
842.16	31.74
842.332	32.4
842.505	32.55
842.677	32.9
842.85	32.91
843.022	34.74
843.194	35.04
843.367	33.44
843.539	32.75
843.712	32.2
843.884	33.37
844.056	32.69
844.229	37.07
844.401	35.83
844.573	34.36
844.745	35.93
844.918	35.33
845.09	36.7
845.262	35.94
845.434	35.93
845.606	37.03
845.779	38.88
845.951	39.03
846.123	37.41
846.295	40.4
846.467	39.7
846.639	39.82
846.811	38.45
846.983	37.87
847.155	38.72
847.327	37.68
847.499	34.46
847.671	35.68
847.843	38.61
848.015	35.97
848.187	32.5
848.359	32.67
848.531	30.95
848.703	31.85
848.875	28.49
849.047	27.89
849.218	28.75
849.39	31.01
849.562	35.67
849.734	39.44
849.905	38.8
850.077	32.1
850.249	35.08
850.421	38.4
850.592	39.46
850.764	39.87
850.936	35.58
851.107	38.27
851.279	41.82
851.451	38.36
851.622	35.22
851.794	30.46
851.965	28.3
852.137	30.66
852.308	30.84
852.48	31.17
852.651	31.86
852.823	31.43
852.994	31.3
853.166	33.56
853.337	34.84
853.509	35.68
853.68	35.08
853.851	37.37
854.023	35.8
854.194	37.92
854.365	37.67
854.537	40.64
854.708	38.83
854.879	35.18
855.05	35.99
855.222	36.17
855.393	36.43
855.564	36.35
855.735	32.76
855.906	35.84
856.078	34.08
856.249	39.12
856.42	37.28
856.591	34.88
856.762	34.02
856.933	37.65
857.104	40.96
857.275	43.68
857.446	40.76
857.617	41.24
857.788	38.21
857.959	41.71
858.13	40.29
858.301	40.39
858.472	34.97
858.643	34.5
858.814	33.79
858.985	32.3
859.155	30.61
859.326	30.21
859.497	25.72
859.668	28.24
859.839	26.25
860.009	30.55
860.18	30.57
860.351	30.64
860.522	32.95
860.692	32.71
860.863	35.91
861.034	38.45
861.204	40
861.375	38.22
861.546	36.38
861.716	39.54
861.887	39.35
862.057	38.73
862.228	39.84
862.398	39.47
862.569	38.42
862.739	37.83
862.91	39.97
863.08	37.51
863.251	34.67
863.421	36.51
863.592	40.11
863.762	40.86
863.932	39.27
864.103	38.1
864.273	38.43
864.443	36.82
864.614	33.84
864.784	34.88
864.954	32.98
865.125	34.59
865.295	39.7
865.465	42.35
865.635	44.52
865.805	46.01
865.976	48.24
866.146	49.14
866.316	49.93
866.486	56.1
866.656	49.08
866.826	54.08
866.996	53.52
867.166	55.96
867.336	54.88
867.506	51.18
867.676	54.47
867.846	45.65
868.016	43.28
868.186	39.65
868.356	37.33
868.526	39.95
868.696	32.81
868.866	38.71
869.036	39.34
869.206	45.32
869.376	43.45
869.545	41.87
869.715	41.37
869.885	37.33
870.055	42.76
870.224	44.18
870.394	47.76
870.564	48.05
870.734	46.11
870.903	47.91
871.073	52.44
871.243	50.29
871.412	49.33
871.582	49.16
871.751	49.4
871.921	51.3
872.091	51.01
872.26	47.85
872.43	43.56
872.599	41.89
872.769	43
872.938	41.62
873.108	36.96
873.277	30.73
873.446	29.47
873.616	27.54
873.785	26.42
873.955	30.63
874.124	31.04
874.293	32.73
874.463	33.02
874.632	36.18
874.801	38.04
874.971	38.66
875.14	39.16
875.309	41.84
875.478	44.13
875.647	42.87
875.817	43.4
875.986	40.75
876.155	37.74
876.324	37.19
876.493	36.43
876.662	36.26
876.831	35.37
877	34.5
877.17	32.26
877.339	32.81
877.508	34.7
877.677	33.68
877.846	37.83
878.015	36.11
878.184	38.65
878.352	38.74
878.521	39.82
878.69	38.04
878.859	40.59
879.028	37.54
879.197	34.82
879.366	37.12
879.534	34.02
879.703	33.08
879.872	32.67
880.041	31.11
880.21	31.6
880.378	33.06
880.547	33.56
880.716	32.99
880.884	33.95
881.053	33.83
881.222	34.83
881.39	35.88
881.559	35.11
881.727	35.68
881.896	36.19
882.065	37.1
882.233	36.73
882.402	37.64
882.57	37.1
882.739	36.97
882.907	37.18
883.076	36.94
883.244	36.7
883.412	36.78
883.581	36.57
883.749	36.66
883.918	36.71
884.086	36.1
884.254	35.61
884.423	36.24
884.591	35.5
884.759	35.9
884.927	35.31
885.096	34.83
885.264	35.1
885.432	34.53
885.6	35
885.769	36.34
885.937	35.46
886.105	34.14
886.273	35.2
886.441	35.96
886.609	34.92
886.777	35.47
886.945	36.19
887.113	37.23
887.281	37.11
887.449	38.71
887.617	38.48
887.785	35.28
887.953	28.43
888.121	29.02
888.289	34.39
888.457	34.27
888.625	33.4
888.793	33.66
888.961	31.98
889.129	27.46
889.296	27.97
889.464	29.6
889.632	23.39
889.8	25.78
889.967	29.52
890.135	38.98
