Data from 2938565_Reflection_2.txt Node
Date: Sun Jun 14 22:31:03 EDT 2015
User: robert
Spectrometer: USB4E03002
Autoset integration time: false
Trigger mode: 4
Integration Time (sec): 1.000000E-1
Scans to average: 10
Electric dark correction enabled: true
Nonlinearity correction enabled: false
Boxcar width: 5
Stray light correction enabled: false
XAxis mode: Wavelengths
Stop averaging: false
Number of Pixels in Spectrum: 3648
>>>>>Begin Spectral Data<<<<<
177.575	-76.96
177.794	435.14
178.014	243.57
178.233	222.37
178.452	353.53
178.672	51250
178.891	40.41
179.11	-44.71
179.33	-35.13
179.549	-196.08
179.768	-176.16
179.987	-338.12
180.207	334.61
180.426	233.68
180.645	213.43
180.864	255.2
181.084	293.95
181.303	300.71
181.522	986.85
181.741	315.62
181.96	17981.82
182.179	-5450.72
182.398	-838.32
182.618	-157.7
182.837	-7.68
183.056	4.23
183.275	15.9
183.494	29.39
183.713	37.4
183.932	22.1
184.151	17.25
184.37	19.22
184.589	34.03
184.808	37.96
185.027	44.28
185.246	34.11
185.465	37.81
185.684	16.61
185.903	-106.88
186.122	336.02
186.341	1519.16
186.56	322.55
186.779	906.07
186.998	-10537.68
187.216	-5105
187.435	-561.02
187.654	-377.12
187.873	-124.97
188.092	-23.88
188.311	-13.88
188.53	-30.72
188.748	-35.05
188.967	-9.77
189.186	-19.89
189.405	-46.48
189.623	-31.8
189.842	-10.74
190.061	-35.78
190.28	-115.55
190.498	-101.62
190.717	2520.42
190.936	-139.16
191.154	-91.84
191.373	-82.54
191.592	-113.9
191.81	-105.35
192.029	-196.65
192.248	-227.41
192.466	-216.37
192.685	-182.96
192.904	-340.95
193.122	-143.07
193.341	-69.28
193.559	-61.27
193.778	-54.35
193.996	-54.01
194.215	-51
194.433	-33.65
194.652	-74.42
194.87	-50.11
195.089	-56.85
195.307	-42.78
195.526	-66.19
195.744	-54.67
195.963	-74.6
196.181	-74.53
196.399	-86.29
196.618	-120.54
196.836	-274.52
197.055	-317.89
197.273	676.35
197.491	1224.47
197.71	-152.91
197.928	-1887.5
198.146	1632.17
198.365	429.46
198.583	420.63
198.801	-376.04
199.019	-150.79
199.238	-26.67
199.456	-0.53
199.674	-3.77
199.892	29.31
200.111	0.21
200.329	39.43
200.547	52.06
200.765	48.08
200.983	56.66
201.202	97.83
201.42	110.11
201.638	104.46
201.856	95.84
202.074	78.15
202.292	91.12
202.51	79.5
202.728	123.25
202.946	78.75
203.165	50.05
203.383	33.64
203.601	-2.94
203.819	-507.64
204.037	-341.68
204.255	-158.48
204.473	949.18
204.691	-55.56
204.909	-25.66
205.127	-9.18
205.345	22.58
205.562	0.11
205.78	-8.27
205.998	-21.8
206.216	-17.89
206.434	-3.43
206.652	-16.76
206.87	-8.28
207.088	-15.43
207.306	-78.35
207.523	-69.62
207.741	-64.6
207.959	-50.78
208.177	-29.16
208.395	-14.4
208.612	28.91
208.83	39.99
209.048	82.17
209.266	111.76
209.483	84.46
209.701	80.67
209.919	55.47
210.136	26.2
210.354	16.98
210.572	3.45
210.79	-18.98
211.007	-33.01
211.225	-54.19
211.442	-83.15
211.66	-76.54
211.878	-91.25
212.095	25.18
212.313	30.69
212.53	31.81
212.748	30.26
212.966	32.67
213.183	62.39
213.401	42.89
213.618	66.1
213.836	76.62
214.053	55.2
214.271	48.21
214.488	-51.32
214.705	-41.25
214.923	-170.3
215.14	-105.73
215.358	-67.02
215.575	-59.75
215.793	-49.2
216.01	-43.73
216.227	-53.88
216.445	-48.44
216.662	-17.67
216.879	-13.69
217.097	-20.61
217.314	-5.43
217.531	1.94
217.749	-3.08
217.966	-12.39
218.183	-10.96
218.4	-1.21
218.618	10.89
218.835	-5.62
219.052	-6.82
219.269	1
219.487	-0.96
219.704	8.09
219.921	5.23
220.138	25.63
220.355	36.3
220.572	53.51
220.79	38.69
221.007	27.48
221.224	33.96
221.441	32.36
221.658	31.68
221.875	25.66
222.092	6.01
222.309	5.85
222.526	0.3
222.743	3.39
222.96	-3.3
223.177	0.81
223.394	-1.65
223.611	3.58
223.828	2.27
224.045	-0.98
224.262	3.8
224.479	12.03
224.696	13.03
224.913	12.28
225.13	10.76
225.347	11.26
225.564	11.39
225.781	12.25
225.997	11.04
226.214	12.82
226.431	11.33
226.648	10.92
226.865	9.8
227.082	10.08
227.298	10.44
227.515	9.53
227.732	10.1
227.949	9.67
228.165	9.85
228.382	9.43
228.599	8.99
228.816	9.55
229.032	9.45
229.249	10.64
229.466	9.35
229.682	8.68
229.899	8.53
230.116	7.48
230.332	8.23
230.549	8.26
230.765	8.44
230.982	8.08
231.199	9.85
231.415	9.48
231.632	8.11
231.848	7.85
232.065	8.06
232.281	9.82
232.498	10.03
232.714	8.73
232.931	8.35
233.147	5.96
233.364	4.88
233.58	2.98
233.797	4.08
234.013	2.65
234.23	1.79
234.446	1.37
234.662	0.8
234.879	0.71
235.095	2.73
235.312	3.52
235.528	6.79
235.744	6.45
235.961	6.71
236.177	5.59
236.393	6.71
236.61	9.32
236.826	9.83
237.042	8.02
237.258	8.31
237.475	10.2
237.691	8.78
237.907	8.34
238.123	9.14
238.339	10.07
238.556	9.78
238.772	9
238.988	8.61
239.204	8.14
239.42	9.23
239.636	8.8
239.853	7.92
240.069	8.21
240.285	8.77
240.501	8.33
240.717	8.48
240.933	9.13
241.149	9.01
241.365	8.31
241.581	8.74
241.797	8.52
242.013	8.06
242.229	7.35
242.445	7.87
242.661	7.1
242.877	8.24
243.093	7.57
243.309	6.56
243.525	7.12
243.741	8.03
243.957	7.76
244.173	7.59
244.388	8.32
244.604	7.78
244.82	7.21
245.036	7.04
245.252	6.9
245.468	7.01
245.683	7.02
245.899	7.03
246.115	7.11
246.331	7.19
246.547	7.38
246.762	6.91
246.978	6.89
247.194	6.98
247.409	7.28
247.625	6.94
247.841	7
248.057	7.23
248.272	6.78
248.488	6.65
248.703	5.78
248.919	5.16
249.135	5.61
249.35	5.95
249.566	5.92
249.782	5.57
249.997	5.82
250.213	6.23
250.428	6.43
250.644	6.58
250.859	6.03
251.075	6.59
251.29	6.41
251.506	6.32
251.721	6.97
251.937	6.67
252.152	6.29
252.368	6.36
252.583	5.75
252.798	5.01
253.014	5.02
253.229	4.76
253.445	4.79
253.66	5.24
253.875	4.71
254.091	3.92
254.306	3.74
254.521	5.29
254.737	4.44
254.952	4.37
255.167	3.78
255.383	4.9
255.598	6.01
255.813	6.34
256.028	5.84
256.244	5.88
256.459	6.6
256.674	7.1
256.889	6.46
257.104	6.67
257.32	6.56
257.535	6.35
257.75	5.75
257.965	5.38
258.18	5.19
258.395	5.54
258.61	5.53
258.826	5.32
259.041	5.38
259.256	5.37
259.471	5.23
259.686	5.42
259.901	6.14
260.116	6.57
260.331	6.88
260.546	7.05
260.761	6.81
260.976	7.31
261.191	7.12
261.406	6.37
261.621	6.52
261.836	6.81
262.05	6.68
262.265	6.11
262.48	5.86
262.695	4.85
262.91	5.02
263.125	4.84
263.34	5.09
263.555	5.08
263.769	5.79
263.984	5.94
264.199	5.84
264.414	5.27
264.629	5.12
264.843	5.11
265.058	5.44
265.273	5.73
265.488	5.4
265.702	4.63
265.917	4.71
266.132	4.71
266.346	4.45
266.561	4.43
266.776	4.17
266.99	3.88
267.205	4.03
267.42	4.68
267.634	3.86
267.849	4.68
268.063	5.38
268.278	5.51
268.492	5.49
268.707	5.03
268.922	4.92
269.136	5.21
269.351	5.07
269.565	4.79
269.78	4.75
269.994	4.83
270.209	5.07
270.423	4.73
270.637	4.4
270.852	4.59
271.066	4.8
271.281	5.04
271.495	5.21
271.709	5.66
271.924	5.45
272.138	5.3
272.353	5.41
272.567	4.97
272.781	5.11
272.996	4.93
273.21	4.32
273.424	4.22
273.638	3.83
273.853	3.84
274.067	3.31
274.281	3.87
274.495	3.75
274.71	3.74
274.924	3.95
275.138	3.84
275.352	4.34
275.566	4.72
275.781	4.91
275.995	4.99
276.209	5.41
276.423	5.96
276.637	5.74
276.851	5.66
277.065	6.05
277.279	6.18
277.493	5.97
277.707	5.51
277.921	5.25
278.135	5.64
278.349	5.87
278.563	5.21
278.777	5.39
278.991	5
279.205	5.17
279.419	4.83
279.633	4.7
279.847	4.81
280.061	5.36
280.275	5.37
280.489	5.01
280.703	4.71
280.917	4.52
281.131	3.91
281.344	4.5
281.558	4.48
281.772	4.52
281.986	4.02
282.2	3.97
282.414	3.9
282.627	3.96
282.841	4.05
283.055	4.56
283.269	5.08
283.482	4.95
283.696	4.61
283.91	4.16
284.123	3.98
284.337	4.4
284.551	4.52
284.764	4.27
284.978	4.34
285.192	4.08
285.405	3.58
285.619	3.28
285.833	3.9
286.046	4.22
286.26	4.46
286.473	4.51
286.687	4.62
286.9	4.25
287.114	4.79
287.327	4.55
287.541	4.72
287.754	4.81
287.968	5.02
288.181	4.64
288.395	4.61
288.608	4.83
288.822	4.69
289.035	4.64
289.248	4.95
289.462	5.24
289.675	5.4
289.889	5.6
290.102	5.67
290.315	5.52
290.529	5.52
290.742	5.55
290.955	5.39
291.169	5.52
291.382	5.41
291.595	5.17
291.808	4.69
292.022	4.85
292.235	4.5
292.448	4.61
292.661	4.49
292.875	4.53
293.088	4.3
293.301	4.33
293.514	4.37
293.727	4.01
293.94	4.17
294.153	3.68
294.367	3.6
294.58	4.1
294.793	4.08
295.006	4.27
295.219	4.44
295.432	4.44
295.645	4.8
295.858	4.64
296.071	4.71
296.284	4.88
296.497	5.18
296.71	5.03
296.923	4.65
297.136	4.69
297.349	4.75
297.562	4.77
297.775	4.99
297.988	4.76
298.201	4.91
298.414	5.23
298.626	5.02
298.839	5.15
299.052	5.55
299.265	5.89
299.478	5.74
299.691	5.49
299.903	5.15
300.116	4.85
300.329	4.52
300.542	4.66
300.755	4.4
300.967	4.62
301.18	4.41
301.393	4.23
301.605	4
301.818	4.26
302.031	4.51
302.243	4.26
302.456	4.44
302.669	4.69
302.881	4.69
303.094	4.54
303.307	4.62
303.519	4.6
303.732	4.61
303.944	4.76
304.157	4.42
304.37	4.43
304.582	4.88
304.795	4.5
305.007	4.23
305.22	4.35
305.432	4.47
305.645	4.13
305.857	4.26
306.069	4.28
306.282	4.33
306.494	4.52
306.707	4.1
306.919	4.15
307.132	4.3
307.344	4.48
307.556	4.18
307.769	4.65
307.981	4.92
308.193	4.9
308.406	5.1
308.618	5.11
308.83	4.91
309.043	4.91
309.255	4.92
309.467	5.33
309.679	5.71
309.892	5.79
310.104	5.38
310.316	5.37
310.528	5.63
310.74	5.38
310.953	5.18
311.165	5.51
311.377	5.77
311.589	5.81
311.801	5.35
312.013	5.16
312.225	5.44
312.437	5.5
312.649	5.44
312.862	5.37
313.074	5.44
313.286	5.98
313.498	6.01
313.71	6.13
313.922	5.69
314.134	6.1
314.346	5.95
314.558	5.92
314.77	6.35
314.982	6.31
315.193	6.06
315.405	6.06
315.617	5.88
315.829	6.08
316.041	6.05
316.253	6.59
316.465	6.17
316.677	6.07
316.888	6.37
317.1	6.13
317.312	6.61
317.524	7.14
317.736	7.43
317.947	7.09
318.159	7.14
318.371	6.57
318.583	6.46
318.794	6.44
319.006	6.57
319.218	6.24
319.43	6.56
319.641	6.3
319.853	5.79
320.064	5.56
320.276	6.08
320.488	5.67
320.699	5.97
320.911	5.7
321.123	6.03
321.334	6.03
321.546	5.89
321.757	5.7
321.969	5.72
322.18	5.8
322.392	5.97
322.603	5.76
322.815	6.07
323.026	6.64
323.238	7.18
323.449	7.31
323.661	7.2
323.872	7.04
324.083	7.33
324.295	7.22
324.506	7.26
324.718	7.08
324.929	7.38
325.14	7.3
325.352	7.1
325.563	6.62
325.774	6.83
325.986	7.16
326.197	7.41
326.408	7.1
326.62	7.38
326.831	7.73
327.042	8
327.253	8.15
327.464	8.11
327.676	8.6
327.887	8.7
328.098	8.23
328.309	8.27
328.52	8.55
328.732	8.98
328.943	8.98
329.154	8.84
329.365	8.6
329.576	8.45
329.787	8.32
329.998	7.87
330.209	8.19
330.42	8.21
330.631	8.16
330.842	7.88
331.053	7.66
331.264	7.11
331.475	7.67
331.686	7.93
331.897	8.11
332.108	8.34
332.319	8.53
332.53	8.64
332.741	8.76
332.952	8.59
333.163	8.82
333.374	8.66
333.585	8.83
333.795	8.36
334.006	8.38
334.217	8.4
334.428	8.41
334.639	8.68
334.849	8.51
335.06	8.67
335.271	9.19
335.482	8.92
335.692	9.04
335.903	9.27
336.114	9.37
336.325	9.42
336.535	9.73
336.746	9.49
336.957	8.82
337.167	8.75
337.378	8.66
337.589	8.19
337.799	8.26
338.01	8.21
338.22	7.99
338.431	7.83
338.642	7.4
338.852	6.77
339.063	6.83
339.273	7.14
339.484	7.42
339.694	7.56
339.905	7.6
340.115	7.97
340.326	8.02
340.536	8.45
340.746	8.57
340.957	9.03
341.167	9.26
341.378	9.15
341.588	8.78
341.799	8.66
342.009	8.44
342.219	8.47
342.43	7.99
342.64	8.01
342.85	7.69
343.061	7.53
343.271	7.33
343.481	6.85
343.691	7.11
343.902	7.18
344.112	7.1
344.322	7
344.532	7.29
344.743	7.52
344.953	7.37
345.163	7.51
345.373	7.56
345.583	7.84
345.793	8.1
346.004	8.13
346.214	8.52
346.424	8.47
346.634	8.85
346.844	8.29
347.054	8.41
347.264	8.42
347.474	8.12
347.684	7.66
347.894	7.36
348.104	7.01
348.314	7.03
348.524	6.7
348.734	7.15
348.944	6.93
349.154	7.19
349.364	6.93
349.574	7.13
349.784	7.36
349.994	7.73
350.204	7.95
350.413	8.29
350.623	8.09
350.833	7.7
351.043	7.49
351.253	7.59
351.463	7.5
351.672	7.49
351.882	7.58
352.092	7.37
352.302	7.6
352.511	7.31
352.721	7.32
352.931	7.29
353.141	7.88
353.35	7.68
353.56	7.6
353.77	7.65
353.979	7.78
354.189	7.71
354.399	7.67
354.608	7.78
354.818	7.73
355.027	7.95
355.237	8.22
355.447	8.35
355.656	8.4
355.866	8.4
356.075	8.38
356.285	8.34
356.494	8.31
356.704	8.47
356.913	8.39
357.123	8.37
357.332	8.13
357.542	8.01
357.751	7.6
357.96	7.57
358.17	7.59
358.379	7.85
358.589	7.97
358.798	8.01
359.007	8.01
359.217	7.87
359.426	8.09
359.635	8.19
359.845	8.12
360.054	8.2
360.263	8.3
360.472	8.42
360.682	8.11
360.891	8.02
361.1	7.87
361.309	7.83
361.519	7.84
361.728	7.85
361.937	7.83
362.146	7.69
362.355	7.67
362.564	7.69
362.774	7.6
362.983	7.65
363.192	7.7
363.401	7.72
363.61	7.8
363.819	7.95
364.028	7.71
364.237	7.42
364.446	7.48
364.655	7.36
364.864	7.14
365.073	7.15
365.282	7.18
365.491	7.11
365.7	6.98
365.909	6.9
366.118	6.52
366.327	6.73
366.536	7.19
366.745	7.48
366.954	7.72
367.162	7.83
367.371	7.54
367.58	7.67
367.789	7.51
367.998	7.45
368.207	7.51
368.415	7.56
368.624	7.27
368.833	6.86
369.042	6.64
369.25	6.42
369.459	6.41
369.668	6.22
369.877	6.18
370.085	6.27
370.294	6.5
370.503	6.44
370.711	6.53
370.92	6.68
371.129	6.94
371.337	7.01
371.546	6.96
371.754	6.86
371.963	7.1
372.171	6.85
372.38	6.82
372.589	6.85
372.797	6.74
373.006	6.74
373.214	6.78
373.423	6.43
373.631	6.2
373.84	6.47
374.048	6.73
374.256	6.67
374.465	6.77
374.673	7.07
374.882	6.85
375.09	6.91
375.298	6.69
375.507	6.52
375.715	6.61
375.923	6.47
376.132	6.39
376.34	6.19
376.548	6.38
376.757	6.52
376.965	5.98
377.173	6.03
377.381	5.97
377.59	6.04
377.798	5.94
378.006	5.88
378.214	5.88
378.423	5.98
378.631	6
378.839	5.98
379.047	6.01
379.255	6.33
379.463	6.39
379.671	6.47
379.879	6.44
380.088	6.61
380.296	6.62
380.504	6.63
380.712	6.46
380.92	6.24
381.128	6.15
381.336	5.97
381.544	5.68
381.752	5.45
381.96	5.31
382.168	5.28
382.376	5.25
382.584	5.25
382.791	5.41
382.999	5.37
383.207	5.56
383.415	5.72
383.623	5.79
383.831	6.25
384.039	6.53
384.247	6.4
384.454	6.35
384.662	6.29
384.87	6.39
385.078	6.24
385.285	6.3
385.493	6.26
385.701	5.97
385.909	5.75
386.116	5.53
386.324	5.59
386.532	5.67
386.739	5.73
386.947	5.87
387.155	5.79
387.362	5.89
387.57	5.94
387.778	6.01
387.985	6.24
388.193	6.37
388.4	6.3
388.608	6.26
388.816	6.34
389.023	6.5
389.231	6.3
389.438	6.38
389.646	6.29
389.853	6.35
390.061	6.35
390.268	6.19
390.475	6.33
390.683	6.4
390.89	6.26
391.098	6.25
391.305	6.17
391.512	6.2
391.72	6.04
391.927	6.08
392.135	5.99
392.342	5.87
392.549	5.76
392.756	5.49
392.964	5.26
393.171	5.17
393.378	5.01
393.586	4.84
393.793	4.88
394	5.03
394.207	5.2
394.414	5.14
394.622	5.06
394.829	5
395.036	4.78
395.243	4.9
395.45	5.01
395.657	5.11
395.864	5.05
396.072	5.03
396.279	4.82
396.486	4.47
396.693	4.46
396.9	4.55
397.107	4.82
397.314	5.25
397.521	5.45
397.728	5.46
397.935	5.45
398.142	5.62
398.349	5.57
398.556	5.52
398.763	5.79
398.97	5.71
399.177	5.73
399.383	5.59
399.59	5.37
399.797	5.12
400.004	5.05
400.211	5.01
400.418	5
400.625	4.99
400.831	4.96
401.038	4.52
401.245	4.31
401.452	4.15
401.658	4.14
401.865	4.22
402.072	4.23
402.279	4.13
402.485	4.07
402.692	4.15
402.899	4.31
403.105	4.53
403.312	4.78
403.519	4.9
403.725	4.99
403.932	4.89
404.138	4.82
404.345	4.78
404.552	4.85
404.758	4.99
404.965	4.94
405.171	4.84
405.378	4.79
405.584	4.86
405.791	4.89
405.997	4.93
406.204	4.96
406.41	5.12
406.617	5.28
406.823	5.13
407.029	5.04
407.236	5.06
407.442	5.05
407.649	5.05
407.855	5.11
408.061	5.16
408.268	4.93
408.474	4.95
408.68	4.71
408.887	4.67
409.093	4.86
409.299	4.83
409.505	4.74
409.712	4.56
409.918	4.48
410.124	4.35
410.33	4.45
410.537	4.51
410.743	4.59
410.949	4.64
411.155	4.67
411.361	4.67
411.567	4.85
411.773	4.97
411.98	5.17
412.186	4.94
412.392	4.95
412.598	4.74
412.804	4.91
413.01	4.85
413.216	4.89
413.422	4.89
413.628	4.88
413.834	4.81
414.04	4.8
414.246	4.78
414.452	4.88
414.658	4.92
414.864	5
415.07	4.97
415.275	4.91
415.481	4.96
415.687	5.01
415.893	5.08
416.099	5.07
416.305	4.99
416.511	4.96
416.716	4.94
416.922	4.85
417.128	4.91
417.334	4.89
417.539	4.84
417.745	4.79
417.951	4.72
418.157	4.58
418.362	4.55
418.568	4.47
418.774	4.48
418.979	4.49
419.185	4.54
419.391	4.46
419.596	4.42
419.802	4.44
420.008	4.42
420.213	4.29
420.419	4.37
420.624	4.32
420.83	4.33
421.035	4.29
421.241	4.33
421.446	4.22
421.652	4.27
421.857	4.35
422.063	4.39
422.268	4.4
422.474	4.48
422.679	4.44
422.885	4.47
423.09	4.48
423.295	4.43
423.501	4.42
423.706	4.53
423.911	4.51
424.117	4.43
424.322	4.49
424.527	4.5
424.733	4.52
424.938	4.51
425.143	4.51
425.349	4.52
425.554	4.55
425.759	4.52
425.964	4.46
426.169	4.41
426.375	4.38
426.58	4.22
426.785	4.34
426.99	4.36
427.195	4.28
427.4	4.23
427.605	4.16
427.811	4.18
428.016	4.17
428.221	4.09
428.426	4.18
428.631	4.16
428.836	4.34
429.041	4.21
429.246	4.15
429.451	4.25
429.656	4.36
429.861	4.43
430.066	4.4
430.271	4.49
430.476	4.49
430.681	4.46
430.886	4.42
431.09	4.37
431.295	4.32
431.5	4.32
431.705	4.21
431.91	4.17
432.115	4.17
432.32	4.2
432.524	4.14
432.729	4.19
432.934	4.16
433.139	4.23
433.343	4.23
433.548	4.24
433.753	4.23
433.958	4.38
434.162	4.36
434.367	4.36
434.572	4.33
434.776	4.3
434.981	4.32
435.186	4.35
435.39	4.31
435.595	4.31
435.799	4.45
436.004	4.52
436.209	4.42
436.413	4.39
436.618	4.4
436.822	4.49
437.027	4.59
437.231	4.53
437.436	4.56
437.64	4.6
437.845	4.55
438.049	4.45
438.253	4.29
438.458	4.35
438.662	4.38
438.867	4.39
439.071	4.34
439.275	4.31
439.48	4.3
439.684	4.22
439.888	4.21
440.093	4.27
440.297	4.27
440.501	4.31
440.706	4.29
440.91	4.22
441.114	4.2
441.318	4.15
441.523	4.04
441.727	4.05
441.931	4.03
442.135	4.02
442.339	3.98
442.543	3.97
442.748	4.07
442.952	4.07
443.156	4.08
443.36	4.1
443.564	4.17
443.768	4.17
443.972	4.16
444.176	4.22
444.38	4.1
444.584	4.11
444.788	4.07
444.992	4.08
445.196	4.08
445.4	4.12
445.604	4.12
445.808	4.16
446.012	4.21
446.216	4.29
446.42	4.29
446.624	4.4
446.828	4.33
447.032	4.32
447.235	4.27
447.439	4.32
447.643	4.27
447.847	4.28
448.051	4.14
448.254	4.03
448.458	3.95
448.662	3.92
448.866	3.83
449.069	3.85
449.273	3.9
449.477	3.93
449.681	3.92
449.884	4.02
450.088	3.96
450.292	3.88
450.495	4.01
450.699	4.06
450.902	4.1
451.106	4.14
451.31	4.19
451.513	4.17
451.717	4.16
451.92	4.13
452.124	4.06
452.327	4.05
452.531	4.23
452.734	4.2
452.938	4.15
453.141	4.03
453.345	4.06
453.548	3.95
453.752	3.94
453.955	3.96
454.158	3.89
454.362	3.99
454.565	4.03
454.769	4.03
454.972	4.03
455.175	4.06
455.379	4.12
455.582	4.07
455.785	4.14
455.988	4.18
456.192	4.16
456.395	4.07
456.598	3.98
456.801	4.05
457.005	4.05
457.208	4.02
457.411	3.94
457.614	3.91
457.817	3.88
458.021	3.87
458.224	3.87
458.427	3.81
458.63	3.88
458.833	3.86
459.036	3.83
459.239	3.74
459.442	3.75
459.645	3.78
459.848	3.85
460.051	3.9
460.254	3.92
460.457	3.84
460.66	3.9
460.863	3.88
461.066	3.94
461.269	3.96
461.472	4.04
461.675	4.02
461.878	4.02
462.081	3.99
462.284	3.94
462.486	3.93
462.689	4.01
462.892	4.07
463.095	4.16
463.298	4.15
463.5	4.03
463.703	4.01
463.906	3.94
464.109	3.99
464.311	4
464.514	4.05
464.717	3.99
464.92	3.97
465.122	3.96
465.325	4.01
465.528	3.97
465.73	4.05
465.933	4.12
466.135	4.22
466.338	4.22
466.541	4.17
466.743	4.14
466.946	4.23
467.148	4.32
467.351	4.32
467.553	4.32
467.756	4.34
467.958	4.43
468.161	4.43
468.363	4.47
468.566	4.48
468.768	4.61
468.971	4.61
469.173	4.66
469.375	4.68
469.578	4.63
469.78	4.6
469.983	4.58
470.185	4.53
470.387	4.45
470.59	4.42
470.792	4.41
470.994	4.29
471.196	4.31
471.399	4.25
471.601	4.17
471.803	4.17
472.005	4.25
472.208	4.25
472.41	4.16
472.612	4.31
472.814	4.39
473.016	4.41
473.218	4.39
473.421	4.36
473.623	4.23
473.825	4.23
474.027	4.28
474.229	4.24
474.431	4.26
474.633	4.36
474.835	4.32
475.037	4.26
475.239	4.27
475.441	4.4
475.643	4.5
475.845	4.59
476.047	4.61
476.249	4.56
476.451	4.59
476.653	4.59
476.855	4.5
477.057	4.36
477.258	4.36
477.46	4.3
477.662	4.22
477.864	4.11
478.066	4.17
478.268	4.18
478.469	4.24
478.671	4.13
478.873	4.21
479.075	4.24
479.276	4.26
479.478	4.33
479.68	4.35
479.882	4.44
480.083	4.47
480.285	4.44
480.487	4.41
480.688	4.38
480.89	4.37
481.091	4.33
481.293	4.34
481.495	4.38
481.696	4.29
481.898	4.26
482.099	4.24
482.301	4.25
482.502	4.26
482.704	4.27
482.905	4.26
483.107	4.26
483.308	4.25
483.51	4.26
483.711	4.25
483.913	4.33
484.114	4.36
484.315	4.38
484.517	4.39
484.718	4.39
484.92	4.38
485.121	4.41
485.322	4.43
485.524	4.43
485.725	4.37
485.926	4.38
486.127	4.34
486.329	4.32
486.53	4.34
486.731	4.33
486.932	4.32
487.134	4.34
487.335	4.34
487.536	4.37
487.737	4.39
487.938	4.46
488.139	4.47
488.341	4.46
488.542	4.49
488.743	4.48
488.944	4.47
489.145	4.46
489.346	4.46
489.547	4.45
489.748	4.39
489.949	4.37
490.15	4.35
490.351	4.36
490.552	4.33
490.753	4.34
490.954	4.34
491.155	4.35
491.356	4.38
491.557	4.42
491.758	4.42
491.959	4.49
492.159	4.55
492.36	4.57
492.561	4.58
492.762	4.71
492.963	4.8
493.164	4.8
493.364	4.82
493.565	4.86
493.766	4.8
493.967	4.8
494.167	4.78
494.368	4.74
494.569	4.71
494.769	4.68
494.97	4.68
495.171	4.6
495.371	4.59
495.572	4.61
495.773	4.66
495.973	4.63
496.174	4.74
496.375	4.78
496.575	4.82
496.776	4.84
496.976	4.93
497.177	4.92
497.377	4.95
497.578	5.01
497.778	5.03
497.979	4.96
498.179	5.06
498.38	5.05
498.58	5.06
498.78	5.03
498.981	5.09
499.181	5.04
499.382	5.08
499.582	5.07
499.782	5.14
499.983	5.18
500.183	5.23
500.383	5.27
500.584	5.23
500.784	5.27
500.984	5.29
501.184	5.25
501.385	5.41
501.585	5.43
501.785	5.45
501.985	5.4
502.185	5.35
502.386	5.35
502.586	5.29
502.786	5.36
502.986	5.38
503.186	5.39
503.386	5.46
503.586	5.34
503.786	5.34
503.987	5.36
504.187	5.35
504.387	5.42
504.587	5.5
504.787	5.52
504.987	5.5
505.187	5.52
505.387	5.57
505.587	5.61
505.786	5.65
505.986	5.72
506.186	5.81
506.386	5.89
506.586	5.91
506.786	5.9
506.986	5.99
507.186	5.98
507.386	5.98
507.585	5.99
507.785	6.03
507.985	6.04
508.185	6.01
508.384	6.01
508.584	6.02
508.784	6.03
508.984	6.03
509.183	5.97
509.383	5.97
509.583	6.02
509.782	6.11
509.982	6.15
510.182	6.16
510.381	6.23
510.581	6.26
510.781	6.28
510.98	6.31
511.18	6.37
511.379	6.46
511.579	6.55
511.778	6.55
511.978	6.57
512.177	6.52
512.377	6.71
512.576	6.71
512.776	6.66
512.975	6.7
513.175	6.77
513.374	6.81
513.573	6.88
513.773	6.9
513.972	6.92
514.172	6.93
514.371	7.05
514.57	6.93
514.77	6.99
514.969	7.07
515.168	7.1
515.367	7.11
515.567	7.09
515.766	7.05
515.965	7.08
516.164	7.11
516.364	7.08
516.563	7.01
516.762	7.14
516.961	7.17
517.16	7.23
517.359	7.22
517.559	7.28
517.758	7.36
517.957	7.44
518.156	7.47
518.355	7.53
518.554	7.65
518.753	7.81
518.952	7.77
519.151	7.82
519.35	7.81
519.549	7.77
519.748	7.74
519.947	7.8
520.146	7.76
520.345	7.78
520.544	7.75
520.743	7.73
520.942	7.65
521.141	7.62
521.339	7.62
521.538	7.68
521.737	7.76
521.936	7.8
522.135	7.8
522.333	7.9
522.532	7.96
522.731	8
522.93	8.05
523.129	8.12
523.327	8.2
523.526	8.33
523.725	8.3
523.923	8.33
524.122	8.43
524.321	8.44
524.519	8.39
524.718	8.43
524.917	8.42
525.115	8.52
525.314	8.5
525.512	8.52
525.711	8.48
525.909	8.56
526.108	8.64
526.306	8.59
526.505	8.65
526.703	8.68
526.902	8.69
527.1	8.73
527.299	8.68
527.497	8.71
527.696	8.74
527.894	8.77
528.092	8.78
528.291	8.79
528.489	8.85
528.688	8.84
528.886	8.93
529.084	8.93
529.283	8.95
529.481	9.01
529.679	9.07
529.877	9.06
530.076	9.11
530.274	9.13
530.472	9.12
530.67	9.12
530.869	9.14
531.067	9.13
531.265	9.18
531.463	9.24
531.661	9.25
531.859	9.25
532.057	9.35
532.255	9.38
532.454	9.39
532.652	9.47
532.85	9.49
533.048	9.57
533.246	9.62
533.444	9.67
533.642	9.71
533.84	9.76
534.038	9.8
534.236	9.77
534.434	9.76
534.632	9.81
534.83	9.83
535.027	9.84
535.225	9.81
535.423	9.83
535.621	9.85
535.819	9.87
536.017	9.9
536.215	9.88
536.412	9.9
536.61	9.94
536.808	9.92
537.006	9.95
537.203	10
537.401	10.06
537.599	10.04
537.797	10.04
537.994	10.04
538.192	10.09
538.39	10.21
538.587	10.26
538.785	10.31
538.983	10.36
539.18	10.35
539.378	10.33
539.575	10.32
539.773	10.35
539.97	10.34
540.168	10.41
540.366	10.39
540.563	10.4
540.761	10.46
540.958	10.51
541.155	10.55
541.353	10.58
541.55	10.64
541.748	10.72
541.945	10.72
542.143	10.84
542.34	10.87
542.537	10.94
542.735	11.02
542.932	11.04
543.129	11.06
543.327	11.11
543.524	11.15
543.721	11.19
543.919	11.21
544.116	11.36
544.313	11.37
544.51	11.39
544.708	11.34
544.905	11.32
545.102	11.35
545.299	11.32
545.496	11.31
545.693	11.36
545.891	11.45
546.088	11.54
546.285	11.56
546.482	11.65
546.679	11.7
546.876	11.87
547.073	11.92
547.27	11.96
547.467	12.13
547.664	12.21
547.861	12.31
548.058	12.33
548.255	12.31
548.452	12.28
548.649	12.29
548.846	12.32
549.043	12.3
549.24	12.31
549.437	12.43
549.633	12.48
549.83	12.49
550.027	12.43
550.224	12.47
550.421	12.54
550.618	12.64
550.814	12.65
551.011	12.72
551.208	12.83
551.405	12.85
551.601	12.79
551.798	12.76
551.995	12.86
552.191	13
552.388	13.05
552.585	13.12
552.781	13.07
552.978	13.13
553.175	13.14
553.371	13.1
553.568	13.22
553.764	13.47
553.961	13.53
554.157	13.53
554.354	13.57
554.55	13.64
554.747	13.68
554.943	13.85
555.14	13.86
555.336	13.95
555.533	14.13
555.729	14.2
555.926	14.14
556.122	14.21
556.318	14.22
556.515	14.28
556.711	14.36
556.907	14.31
557.104	14.27
557.3	14.44
557.496	14.51
557.693	14.47
557.889	14.47
558.085	14.39
558.281	14.41
558.478	14.6
558.674	14.67
558.87	14.72
559.066	14.8
559.262	14.94
559.459	14.88
559.655	15.08
559.851	15.2
560.047	15.21
560.243	15.27
560.439	15.45
560.635	15.34
560.831	15.35
561.027	15.43
561.223	15.47
561.419	15.55
561.615	15.72
561.811	15.63
562.007	15.63
562.203	15.76
562.399	16.04
562.595	15.95
562.791	16.14
562.987	16.18
563.183	16.11
563.379	16.22
563.575	16.23
563.771	16.22
563.966	16.19
564.162	16.24
564.358	16.31
564.554	16.24
564.75	16.29
564.945	16.26
565.141	16.35
565.337	16.38
565.533	16.39
565.728	16.42
565.924	16.54
566.12	16.71
566.315	16.79
566.511	16.79
566.707	16.87
566.902	17.07
567.098	17.15
567.293	17.19
567.489	17.36
567.684	17.45
567.88	17.46
568.076	17.46
568.271	17.5
568.467	17.54
568.662	17.57
568.858	17.66
569.053	17.57
569.248	17.66
569.444	17.84
569.639	17.9
569.835	17.91
570.03	17.93
570.225	17.95
570.421	17.94
570.616	17.97
570.812	18.06
571.007	18.07
571.202	18.13
571.397	18.15
571.593	18.06
571.788	18.02
571.983	18.15
572.178	18.36
572.374	18.37
572.569	18.43
572.764	18.45
572.959	18.55
573.154	18.56
573.35	18.71
573.545	18.72
573.74	18.71
573.935	18.81
574.13	18.86
574.325	18.89
574.52	19.04
574.715	19.19
574.91	19.32
575.105	19.28
575.3	19.48
575.495	19.53
575.69	19.61
575.885	19.82
576.08	19.87
576.275	19.92
576.47	19.87
576.665	19.79
576.86	19.75
577.055	19.76
577.25	19.83
577.444	19.69
577.639	19.76
577.834	19.83
578.029	19.72
578.224	19.87
578.418	19.87
578.613	19.95
578.808	20.07
579.003	20.07
579.197	20.16
579.392	20.08
579.587	20.07
579.781	19.93
579.976	20.02
580.171	20.24
580.365	20.14
580.56	20.22
580.755	20.21
580.949	20.3
581.144	20.34
581.338	20.28
581.533	20.51
581.727	20.74
581.922	21.02
582.116	21.01
582.311	20.97
582.505	21.13
582.7	21.13
582.894	21.19
583.089	21.1
583.283	21.08
583.478	21.19
583.672	21.13
583.866	21.02
584.061	20.87
584.255	20.83
584.449	20.82
584.644	20.73
584.838	20.68
585.032	20.75
585.226	20.87
585.421	20.89
585.615	20.88
585.809	20.96
586.003	21.03
586.198	20.98
586.392	21.14
586.586	21.14
586.78	21.24
586.974	21.44
587.168	21.46
587.363	21.54
587.557	21.65
587.751	21.71
587.945	21.72
588.139	21.87
588.333	21.98
588.527	21.79
588.721	21.86
588.915	21.97
589.109	21.92
589.303	21.91
589.497	21.89
589.691	22
589.885	21.99
590.079	21.9
590.273	21.69
590.466	21.66
590.66	21.9
590.854	21.9
591.048	21.8
591.242	21.7
591.436	21.73
591.629	21.79
591.823	21.7
592.017	21.76
592.211	21.91
592.404	22.16
592.598	22.3
592.792	22.31
592.986	22.49
593.179	22.51
593.373	22.67
593.567	22.67
593.76	22.65
593.954	22.73
594.147	22.82
594.341	22.94
594.535	22.98
594.728	22.98
594.922	22.99
595.115	22.93
595.309	22.94
595.502	22.95
595.696	22.9
595.889	22.96
596.083	23.02
596.276	22.94
596.47	22.82
596.663	22.87
596.856	22.84
597.05	22.87
597.243	22.93
597.437	22.87
597.63	22.89
597.823	22.98
598.017	23.07
598.21	23.14
598.403	23.43
598.596	23.53
598.79	23.43
598.983	23.48
599.176	23.44
599.369	23.31
599.563	23.42
599.756	23.47
599.949	23.65
600.142	23.53
600.335	23.43
600.528	23.23
600.722	23.32
600.915	23.41
601.108	23.42
601.301	23.48
601.494	23.65
601.687	23.54
601.88	23.45
602.073	23.47
602.266	23.53
602.459	23.48
602.652	23.38
602.845	23.44
603.038	23.49
603.231	23.61
603.424	23.6
603.617	23.49
603.809	23.68
604.002	23.75
604.195	23.63
604.388	23.64
604.581	23.77
604.774	23.96
604.966	23.92
605.159	23.73
605.352	23.7
605.545	23.77
605.737	23.94
605.93	24.03
606.123	24.1
606.316	24.17
606.508	24.2
606.701	24.12
606.894	24.03
607.086	24.11
607.279	24.24
607.471	24.13
607.664	24.14
607.857	24.13
608.049	23.99
608.242	23.93
608.434	23.98
608.627	24.01
608.819	23.92
609.012	24.02
609.204	23.93
609.397	24.02
609.589	24.1
609.782	24.11
609.974	24.02
610.166	23.95
610.359	23.89
610.551	23.89
610.743	23.97
610.936	24.08
611.128	24.04
611.32	24.07
611.513	24.06
611.705	24.08
611.897	24.03
612.09	24.12
612.282	24.21
612.474	24.49
612.666	24.52
612.858	24.51
613.051	24.62
613.243	24.53
613.435	24.44
613.627	24.43
613.819	24.44
614.011	24.59
614.203	24.54
614.395	24.68
614.588	24.63
614.78	24.61
614.972	24.62
615.164	24.54
615.356	24.63
615.548	24.71
615.74	24.67
615.932	24.58
616.124	24.39
616.315	24.49
616.507	24.37
616.699	24.32
616.891	24.2
617.083	24.07
617.275	24.23
617.467	24.08
617.659	24.16
617.85	24.34
618.042	24.39
618.234	24.45
618.426	24.45
618.618	24.53
618.809	24.44
619.001	24.58
619.193	24.7
619.384	24.58
619.576	24.85
619.768	24.8
619.959	24.54
620.151	24.77
620.343	24.78
620.534	24.63
620.726	24.49
620.917	24.6
621.109	24.6
621.301	24.52
621.492	24.46
621.684	24.39
621.875	24.41
622.067	24.39
622.258	24.22
622.45	24.41
622.641	24.6
622.832	24.84
623.024	24.85
623.215	24.86
623.407	24.87
623.598	24.98
623.789	25.04
623.981	24.96
624.172	25.11
624.363	25.06
624.555	24.9
624.746	24.87
624.937	24.75
625.129	24.71
625.32	24.74
625.511	24.69
625.702	24.9
625.893	24.88
626.085	25.17
626.276	25.25
626.467	25.43
626.658	25.57
626.849	25.57
627.04	25.68
627.231	25.62
627.422	25.66
627.614	25.67
627.805	25.53
627.996	25.77
628.187	25.54
628.378	25.45
628.569	25.43
628.76	25.3
628.951	25.47
629.142	25.49
629.332	25.61
629.523	25.61
629.714	25.84
629.905	25.98
630.096	25.85
630.287	25.92
630.478	26.19
630.669	26.23
630.859	26.34
631.05	26.36
631.241	26.44
631.432	26.51
631.623	26.55
631.813	26.54
632.004	26.58
632.195	26.56
632.385	26.46
632.576	26.36
632.767	26.25
632.957	26.31
633.148	26.23
633.339	26.06
633.529	26.17
633.72	26.18
633.91	26.18
634.101	25.97
634.292	25.91
634.482	25.99
634.673	25.97
634.863	26.16
635.054	26.15
635.244	26.16
635.435	26.37
635.625	26.38
635.815	26.39
636.006	26.48
636.196	26.41
636.387	26.51
636.577	26.59
636.767	26.66
636.958	26.57
637.148	26.47
637.338	26.41
637.529	26.27
637.719	26.2
637.909	26.2
638.099	26.23
638.29	26.49
638.48	26.6
638.67	26.52
638.86	26.56
639.05	26.65
639.241	26.62
639.431	26.68
639.621	26.73
639.811	26.84
640.001	26.96
640.191	26.75
640.381	26.87
640.571	26.78
640.761	26.92
640.951	26.88
641.141	27
641.331	26.97
641.521	26.96
641.711	27.11
641.901	27.05
642.091	26.86
642.281	27.08
642.471	26.81
642.661	26.73
642.851	26.71
643.041	26.43
643.231	26.42
643.42	26.58
643.61	26.63
643.8	26.52
643.99	26.58
644.18	26.57
644.369	26.57
644.559	26.76
644.749	26.65
644.939	26.67
645.128	26.72
645.318	26.56
645.508	26.67
645.697	26.72
645.887	26.71
646.076	26.7
646.266	26.92
646.456	26.92
646.645	26.92
646.835	27.14
647.024	27.27
647.214	27.43
647.403	27.29
647.593	27.27
647.782	27.22
647.972	27.2
648.161	27.07
648.351	27
648.54	27
648.73	27.03
648.919	26.96
649.108	26.71
649.298	26.75
649.487	26.87
649.677	26.91
649.866	26.92
650.055	26.99
650.244	27.08
650.434	27.08
650.623	27.14
650.812	27.08
651.002	27.01
651.191	27.13
651.38	26.96
651.569	27.09
651.758	27.14
651.947	27.24
652.137	27.35
652.326	27.3
652.515	27.34
652.704	26.93
652.893	26.88
653.082	27.12
653.271	27.16
653.46	27.16
653.649	26.95
653.838	26.99
654.027	26.86
654.216	26.65
654.405	26.7
654.594	26.83
654.783	27.15
654.972	27.17
655.161	27.03
655.35	26.76
655.539	27.16
655.728	27.23
655.916	27.25
656.105	27.24
656.294	27.32
656.483	27.41
656.672	27.44
656.86	27.42
657.049	27.49
657.238	27.57
657.427	27.67
657.615	27.54
657.804	27.68
657.993	27.52
658.181	27.63
658.37	27.59
658.559	27.67
658.747	27.65
658.936	27.79
659.125	27.9
659.313	27.91
659.502	28.07
659.69	28.17
659.879	28.32
660.067	28.47
660.256	28.53
660.444	28.57
660.633	28.56
660.821	28.43
661.01	28.45
661.198	28.26
661.387	28.3
661.575	28.28
661.763	28.06
661.952	28
662.14	27.86
662.328	27.68
662.517	27.85
662.705	27.87
662.893	27.98
663.082	28.15
663.27	28.05
663.458	27.77
663.646	27.88
663.834	28.08
664.023	28.06
664.211	28.29
664.399	28.47
664.587	28.24
664.775	28.09
664.963	28
665.152	27.79
665.34	28.1
665.528	28.03
665.716	28.13
665.904	28.01
666.092	27.95
666.28	27.83
666.468	27.77
666.656	28
666.844	28.12
667.032	28.2
667.22	27.96
667.408	27.88
667.596	28.21
667.784	28.08
667.971	27.98
668.159	27.96
668.347	28.06
668.535	28.18
668.723	28.28
668.911	28.32
669.098	28.43
669.286	28.68
669.474	28.54
669.662	28.49
669.849	28.5
670.037	28.76
670.225	28.95
670.413	28.87
670.6	28.79
670.788	28.69
670.976	28.67
671.163	28.53
671.351	28.69
671.538	28.86
671.726	28.63
671.913	28.6
672.101	28.39
672.289	28.17
672.476	28.25
672.664	28.13
672.851	27.89
673.039	27.84
673.226	27.62
673.413	27.61
673.601	27.77
673.788	27.98
673.976	27.89
674.163	28.08
674.35	28.27
674.538	28.32
674.725	28.58
674.912	28.91
675.1	28.99
675.287	29.32
675.474	29.2
675.662	29.04
675.849	29.06
676.036	29.17
676.223	29.15
676.411	29.03
676.598	28.86
676.785	28.51
676.972	28.19
677.159	28.19
677.346	28.16
677.533	28.29
677.721	28.46
677.908	28.56
678.095	28.71
678.282	28.84
678.469	29.04
678.656	29.04
678.843	29.2
679.03	29.41
679.217	29.46
679.404	29.74
679.591	29.5
679.778	29.38
679.964	29.39
680.151	29.25
680.338	29.04
680.525	28.87
680.712	28.87
680.899	28.97
681.086	28.8
681.272	28.62
681.459	28.38
681.646	28.44
681.833	28.53
682.02	28.58
682.206	28.77
682.393	28.91
682.58	28.91
682.766	29.07
682.953	29.01
683.14	29.11
683.326	29.49
683.513	29.52
683.7	29.51
683.886	29.27
684.073	29.01
684.259	29.01
684.446	29.01
684.632	29.13
684.819	29.23
685.005	29.1
685.192	29.19
685.378	28.92
685.565	28.62
685.751	28.64
685.938	28.92
686.124	29.47
686.31	29.29
686.497	29.21
686.683	29.14
686.87	29.19
687.056	29.39
687.242	29.67
687.429	29.69
687.615	29.75
687.801	29.93
687.987	29.92
688.174	29.49
688.36	29.74
688.546	29.83
688.732	29.85
688.918	29.42
689.105	29.45
689.291	29.1
689.477	29.22
689.663	29.69
689.849	29.65
690.035	29.56
690.221	29.67
690.407	29.79
690.593	30.12
690.779	30.16
690.965	30.38
691.151	30.45
691.337	30.63
691.523	30.24
691.709	30.04
691.895	30.1
692.081	29.99
692.267	29.88
692.453	29.57
692.639	29.35
692.825	29.33
693.011	29.35
693.196	29.07
693.382	29.19
693.568	29.53
693.754	29.24
693.94	29.1
694.125	29.23
694.311	29.25
694.497	29.08
694.682	29.1
694.868	29.29
695.054	29.05
695.239	29.27
695.425	29.35
695.611	29.33
695.796	29.48
695.982	29.75
696.168	29.47
696.353	29.62
696.539	29.74
696.724	29.69
696.91	29.51
697.095	29.76
697.281	29.72
697.466	29.86
697.652	29.74
697.837	29.94
698.023	29.93
698.208	30.15
698.393	29.93
698.579	29.97
698.764	29.83
698.949	29.94
699.135	29.94
699.32	30.17
699.505	29.94
699.691	30.33
699.876	30.28
700.061	30.18
700.246	30.46
700.432	30.77
700.617	30.76
700.802	31.14
700.987	31.13
701.172	31.25
701.358	31.12
701.543	31.15
701.728	30.95
701.913	31.19
702.098	31.32
702.283	31.28
702.468	31.51
702.653	31.53
702.838	30.84
703.023	30.96
703.208	30.87
703.393	30.82
703.578	30.7
703.763	30.25
703.948	30.15
704.133	29.75
704.318	29.36
704.503	29.29
704.688	29.46
704.873	30.1
705.057	30.26
705.242	30.07
705.427	29.83
705.612	30.08
705.797	30.33
705.981	30.17
706.166	30.3
706.351	30.37
706.536	30.37
706.72	30.38
706.905	30.23
707.09	29.82
707.274	29.67
707.459	29.56
707.644	29.58
707.828	30.02
708.013	29.72
708.197	29.94
708.382	30.29
708.567	30.3
708.751	29.84
708.936	29.79
709.12	30.28
709.305	30.39
709.489	30.64
709.673	30.28
709.858	29.95
710.042	30.28
710.227	30.22
710.411	30.23
710.596	30.29
710.78	30.41
710.964	30.4
711.149	30.21
711.333	30.51
711.517	30.7
711.702	30.74
711.886	30.99
712.07	30.8
712.254	30.66
712.438	30.43
712.623	30.45
712.807	30.67
712.991	30.78
713.175	30.42
713.359	30.55
713.544	30.85
713.728	31.1
713.912	30.95
714.096	31.04
714.28	31.22
714.464	31.25
714.648	31.02
714.832	30.93
715.016	30.73
715.2	31.13
715.384	31.02
715.568	30.68
715.752	30.43
715.936	30.6
716.12	30.43
716.304	30.27
716.488	30.24
716.671	30.36
716.855	30.71
717.039	30.92
717.223	30.36
717.407	30.52
717.59	30.55
717.774	30.87
717.958	30.77
718.142	30.86
718.325	31.05
718.509	31.39
718.693	31.35
718.877	31.38
719.06	31.45
719.244	31.73
719.428	31.67
719.611	31.64
719.795	31.48
719.978	31.54
720.162	31.72
720.345	31.66
720.529	31.5
720.713	31.24
720.896	31.01
721.08	31.33
721.263	31.22
721.446	31.09
721.63	31.52
721.813	31.1
721.997	31.26
722.18	31.1
722.364	30.93
722.547	30.37
722.73	30.49
722.914	30.29
723.097	30.09
723.28	30.1
723.464	30.13
723.647	29.67
723.83	29.73
724.013	29.6
724.197	29.93
724.38	29.81
724.563	30.1
724.746	30.1
724.929	30.06
725.112	30.07
725.296	30.05
725.479	30.32
725.662	30.22
725.845	30.27
726.028	30.45
726.211	30.37
726.394	30.45
726.577	30.66
726.76	31.19
726.943	31.2
727.126	31.22
727.309	31.43
727.492	30.99
727.675	30.98
727.858	31.43
728.041	31.1
728.224	31.69
728.407	31.9
728.589	31.78
728.772	31.03
728.955	31.1
729.138	31.24
729.321	31.2
729.503	31.15
729.686	31.1
729.869	30.98
730.052	30.91
730.234	30.33
730.417	29.9
730.6	29.96
730.782	30.19
730.965	30.52
731.148	30.06
731.33	30.27
731.513	30.37
731.695	30.52
731.878	31.1
732.061	31.7
732.243	31.59
732.426	32.14
732.608	32.39
732.791	32.56
732.973	32.36
733.156	32.66
733.338	32.65
733.52	33.02
733.703	33.04
733.885	32.68
734.068	32.46
734.25	32.41
734.432	32.35
734.615	32.27
734.797	32.38
734.979	32.06
735.162	31.81
735.344	31.38
735.526	30.77
735.708	30.49
735.891	30.34
736.073	29.74
736.255	29.78
736.437	29.38
736.619	29.49
736.802	29.72
736.984	29.97
737.166	30
737.348	30.62
737.53	31.36
737.712	31.55
737.894	31.45
738.076	31.73
738.258	31.99
738.44	32.05
738.622	31.76
738.804	31.58
738.986	31.69
739.168	31.58
739.35	30.86
739.532	30.65
739.714	30.53
739.896	30.84
740.078	31.07
740.259	31.13
740.441	31.1
740.623	31
740.805	30.87
740.987	30.26
741.168	30.74
741.35	31.61
741.532	30.88
741.714	30.76
741.895	30.18
742.077	29.79
742.259	29.69
742.44	30.12
742.622	30.39
742.804	30.51
742.985	31.21
743.167	31.31
743.348	30.98
743.53	31.83
743.711	32.27
743.893	32.46
744.075	32.5
744.256	32.57
744.438	32.6
744.619	32.52
744.8	32.46
744.982	32.77
745.163	32.74
745.345	32.21
745.526	32.27
745.707	32.01
745.889	32.16
746.07	32.54
746.252	31.71
746.433	30.98
746.614	30.39
746.795	30.79
746.977	30.42
747.158	29.98
747.339	30.1
747.52	29.93
747.702	29.95
747.883	30.84
748.064	30.16
748.245	30.93
748.426	31
748.607	31.37
748.788	30.24
748.97	30.11
749.151	30.07
749.332	29.93
749.513	29.61
749.694	29.39
749.875	28.72
750.056	29.19
750.237	28.8
750.418	29.15
750.599	29.14
750.78	29.08
750.96	29.2
751.141	29.78
751.322	30.28
751.503	30.24
751.684	30.78
751.865	30.55
752.046	30.78
752.226	30.84
752.407	31.43
752.588	31.14
752.769	31.76
752.949	31.6
753.13	30.95
753.311	30.91
753.492	30.38
753.672	29.69
753.853	30.49
754.034	29.89
754.214	29.77
754.395	28.64
754.575	28.9
754.756	28.81
754.937	29.1
755.117	29.24
755.298	29.14
755.478	29.98
755.659	30.57
755.839	29.5
756.02	29.81
756.2	30.14
756.381	30.79
756.561	31.05
756.741	30.78
756.922	30.48
757.102	30.55
757.283	30.77
757.463	30.68
757.643	30.69
757.823	30.57
758.004	31.1
758.184	31.36
758.364	31.48
758.545	31.32
758.725	32.22
758.905	32.22
759.085	32.51
759.265	32.79
759.446	32.76
759.626	33.43
759.806	33.43
759.986	33.17
760.166	32.91
760.346	33.03
760.526	32.65
760.706	32.41
760.886	32.43
761.066	31.59
761.246	30.99
761.426	30.63
761.606	30.09
761.786	30.38
761.966	30.21
762.146	30.26
762.326	30.39
762.506	30.51
762.686	30.2
762.866	30.13
763.046	30.21
763.225	30.54
763.405	30.57
763.585	30.12
763.765	29.98
763.945	29.8
764.124	29.65
764.304	29.39
764.484	29.99
764.664	29.95
764.843	30.37
765.023	29.98
765.203	29.73
765.382	30.2
765.562	30.46
765.741	30.07
765.921	30.35
766.101	30.63
766.28	30.39
766.46	29.88
766.639	29.98
766.819	29.49
766.998	30.2
767.178	30.51
767.357	30.13
767.537	31.2
767.716	31.63
767.896	31.54
768.075	31.56
768.254	31.45
768.434	31.65
768.613	31.58
768.792	31.26
768.972	31.72
769.151	31.21
769.33	31.3
769.51	30.37
769.689	30.01
769.868	30.36
770.047	30.48
770.226	30.55
770.406	29.9
770.585	30.09
770.764	30.39
770.943	30.03
771.122	30.33
771.301	30.3
771.48	29.98
771.66	30.36
771.839	29.54
772.018	29.64
772.197	29.37
772.376	29.69
772.555	29.66
772.734	29.89
772.913	29.47
773.092	29.07
773.271	28.54
773.449	28.98
773.628	29.31
773.807	29.57
773.986	28.83
774.165	29.56
774.344	29.73
774.523	29.89
774.701	30.05
774.88	30.7
775.059	30.31
775.238	30.77
775.417	30.4
775.595	30.6
775.774	30.77
775.953	31.02
776.131	31.35
776.31	31.55
776.489	32.23
776.667	31.96
776.846	32.06
777.025	32.37
777.203	33.49
777.382	33.7
777.56	33
777.739	33.82
777.917	33.32
778.096	33.26
778.274	32.73
778.453	31.74
778.631	31.8
778.81	32.04
778.988	32.58
779.166	31.37
779.345	31.25
779.523	30.71
779.702	29.94
779.88	30.15
780.058	29.22
780.237	29.53
780.415	30.13
780.593	30.06
780.771	30.06
780.95	29.92
781.128	29.98
781.306	30.54
781.484	30.97
781.662	30
781.841	29.56
782.019	29.32
782.197	29.5
782.375	29.06
782.553	28.94
782.731	28.77
782.909	29.16
783.087	28.61
783.265	28.94
783.443	29.13
783.621	30.13
783.799	30.58
783.977	31.62
784.155	30.57
784.333	30.53
784.511	30.23
784.689	29.24
784.867	28.07
785.045	28.84
785.223	27.51
785.4	27.58
785.578	27.49
785.756	29.07
785.934	28.98
786.112	29.95
786.289	29.99
786.467	30.18
786.645	30.51
786.823	31.22
787	31.23
787.178	31.22
787.356	31.48
787.533	31.94
787.711	30.84
787.889	30.56
788.066	29.93
788.244	30.95
788.421	31.15
788.599	31.62
788.776	31.64
788.954	31.97
789.131	31.76
789.309	32.01
789.486	31.08
789.664	31.41
789.841	30.8
790.019	31.14
790.196	30.13
790.373	29.93
790.551	29.49
790.728	29.18
790.906	28.4
791.083	31.05
791.26	31.32
791.437	32.05
791.615	32.08
791.792	32.69
791.969	32.81
792.146	32.69
792.324	33.72
792.501	33.86
792.678	34.4
792.855	34.26
793.032	31.95
793.209	31.14
793.387	31.43
793.564	30.51
793.741	31
793.918	31.92
794.095	32.88
794.272	30.78
794.449	30.81
794.626	30.44
794.803	31.07
794.98	31.69
795.157	30.38
795.334	29.71
795.511	30.31
795.688	29.55
795.864	29.04
796.041	28.11
796.218	29.95
796.395	30.26
796.572	31.27
796.749	31.02
796.925	31.12
797.102	33.33
797.279	33.49
797.456	33.3
797.632	33.49
797.809	33.04
797.986	33.55
798.162	33.18
798.339	33.39
798.516	32.59
798.692	31.96
798.869	31.46
799.046	30.96
799.222	31.69
799.399	31.36
799.575	32.15
799.752	32.84
799.928	32.16
800.105	31.93
800.281	32.21
800.458	31.93
800.634	32.81
800.811	33.12
800.987	32.81
801.163	31.97
801.34	31.35
801.516	29.79
801.692	28.89
801.869	29.69
802.045	29.44
802.221	27.93
802.398	27.47
802.574	27
802.75	26.89
802.926	27.29
803.103	27.2
803.279	28.65
803.455	28.95
803.631	29.51
803.807	28.53
803.983	28.46
804.16	29.01
804.336	29.88
804.512	29.94
804.688	29.85
804.864	30.3
805.04	30.55
805.216	30.41
805.392	31.3
805.568	30.8
805.744	30.3
805.92	31.46
806.096	30.8
806.272	30.9
806.448	31.61
806.623	30.74
806.799	29.66
806.975	29.38
807.151	28.66
807.327	28.29
807.503	28.76
807.678	29.92
807.854	28.7
808.03	28.9
808.206	29.4
808.381	28.33
808.557	29.01
808.733	30.74
808.908	29.7
809.084	30.66
809.26	30.71
809.435	30.73
809.611	29.44
809.787	29.73
809.962	29.65
810.138	30.13
810.313	30.95
810.489	30.49
810.664	27.48
810.84	28.11
811.015	28.41
811.191	28.05
811.366	27.61
811.542	28.48
811.717	28.79
811.892	29.97
812.068	28.96
812.243	28.06
812.419	29.35
812.594	30.72
812.769	32.75
812.944	31.94
813.12	33.18
813.295	34.12
813.47	33.56
813.645	33.29
813.821	32.74
813.996	31.75
814.171	30.76
814.346	30.17
814.521	30.74
814.697	28.63
814.872	27.9
815.047	27.29
815.222	26.89
815.397	27.93
815.572	28.25
815.747	28.33
815.922	27.89
816.097	30.07
816.272	29.41
816.447	29.82
816.622	30.33
816.797	30.41
816.972	29.69
817.147	30.31
817.322	29.14
817.496	28.22
817.671	28.53
817.846	30.24
818.021	29.4
818.196	30.1
818.371	30.2
818.545	29.46
818.72	29.5
818.895	30.53
819.069	29.51
819.244	30.08
819.419	30.8
819.594	31.42
819.768	32.08
819.943	31.91
820.117	32.09
820.292	31.77
820.467	31.99
820.641	32.45
820.816	32.05
820.99	31.78
821.165	31.61
821.339	31.43
821.514	30.88
821.688	30.61
821.863	30.53
822.037	30.32
822.212	30.35
822.386	30.37
822.56	30.13
822.735	30.17
822.909	30.29
823.084	30.7
823.258	30.62
823.432	30.98
823.606	30.87
823.781	31.15
823.955	31.46
824.129	31.37
824.303	31.44
824.478	31.54
824.652	31.57
824.826	31.82
825	31.37
825.174	31.85
825.348	31.58
825.523	31.58
825.697	31.72
825.871	31.24
826.045	31.57
826.219	31.81
826.393	31.99
826.567	32
826.741	32.21
826.915	31.63
827.089	31.7
827.263	31.71
827.437	31.94
827.611	31.9
827.784	31.79
827.958	31.39
828.132	31.55
828.306	31.54
828.48	31.07
828.654	30.63
828.827	31.24
829.001	31.21
829.175	31.4
829.349	30.78
829.522	30.08
829.696	30.51
829.87	31.05
830.044	31.28
830.217	30.92
830.391	30.9
830.565	31.09
830.738	30.78
830.912	30.7
831.085	30.12
831.259	30.89
831.432	30.47
831.606	30.93
831.779	29.98
831.953	28.43
832.126	29.01
832.3	29.56
832.473	29.45
832.647	29.42
832.82	29.07
832.994	29.64
833.167	29.26
833.34	29.33
833.514	29.85
833.687	29.83
833.86	30.17
834.034	29.86
834.207	29.95
834.38	29.23
834.553	29.78
834.727	29.84
834.9	29.94
835.073	30.97
835.246	31.46
835.419	31.46
835.593	31.38
835.766	31.67
835.939	32.23
836.112	31.95
836.285	33.58
836.458	33.92
836.631	33.72
836.804	34.18
836.977	33.14
837.15	34.09
837.323	32.88
837.496	33.3
837.669	34.86
837.842	32.25
838.015	32.65
838.188	31.28
838.361	30.82
838.533	32.69
838.706	32.41
838.879	32.94
839.052	31.63
839.225	32.47
839.398	34.23
839.57	31.59
839.743	35.15
839.916	34.32
840.088	34.69
840.261	35.38
840.434	34.98
840.607	34.14
840.779	34.39
840.952	32.76
841.124	32.45
841.297	31.37
841.47	33.19
841.642	31.93
841.815	31.87
841.987	32.6
842.16	31.38
842.332	30.23
842.505	29.71
842.677	26.82
842.85	28.43
843.022	25.8
843.194	25.91
843.367	25.01
843.539	23.49
843.712	24.25
843.884	20.6
844.056	21.64
844.229	18.89
844.401	21.65
844.573	23.68
844.745	22.95
844.918	25.92
845.09	28.11
845.262	29.82
845.434	29.74
845.606	28.47
845.779	31.62
845.951	28.7
846.123	28.59
846.295	27.45
846.467	25.94
846.639	28.72
846.811	25.83
846.983	22.36
847.155	19.5
847.327	22.2
847.499	22.84
847.671	20.8
847.843	20.07
848.015	20.17
848.187	15.31
848.359	18.51
848.531	16.85
848.703	20.7
848.875	21.27
849.047	15.64
849.218	11.78
849.39	14.58
849.562	15.37
849.734	19.08
849.905	20.68
850.077	22.17
850.249	17.57
850.421	19.93
850.592	21.07
850.764	22.74
850.936	25.25
851.107	23.93
851.279	23.47
851.451	25
851.622	21.46
851.794	23.94
851.965	28.02
852.137	29.36
852.308	30.26
852.48	29.62
852.651	27.55
852.823	30.22
852.994	34.67
853.166	33.49
853.337	34.93
853.509	37.05
853.68	38.73
853.851	38.62
854.023	37.36
854.194	37.76
854.365	36.59
854.537	35.85
854.708	34.86
854.879	30.21
855.05	33.4
855.222	33.35
855.393	30.79
855.564	27.53
855.735	26.96
855.906	28.46
856.078	24.8
856.249	24.56
856.42	28.22
856.591	28.72
856.762	35.08
856.933	34.9
857.104	31.87
857.275	33.18
857.446	32.67
857.617	33.31
857.788	35.35
857.959	34.13
858.13	32.59
858.301	30.56
858.472	30.03
858.643	30.09
858.814	28.45
858.985	29.81
859.155	30.76
859.326	31.99
859.497	28.75
859.668	25.53
859.839	25.13
860.009	25.26
860.18	28.9
860.351	30.68
860.522	25.86
860.692	23.83
860.863	24.37
861.034	25.47
861.204	22.08
861.375	23.94
861.546	23.45
861.716	27.5
861.887	27.18
862.057	21.57
862.228	17.84
862.398	16.29
862.569	16.58
862.739	19.45
862.91	15.74
863.08	19.67
863.251	21.77
863.421	20.87
863.592	21.42
863.762	22.47
863.932	24.94
864.103	27.05
864.273	30.54
864.443	32.58
864.614	27.53
864.784	26.83
864.954	26.21
865.125	22.63
865.295	25.51
865.465	22.96
865.635	24.39
865.805	29.07
865.976	26.68
866.146	28.19
866.316	26.91
866.486	29.98
866.656	31.88
866.826	35.41
866.996	37.23
867.166	36.4
867.336	40.24
867.506	33.34
867.676	24.84
867.846	24.04
868.016	23.62
868.186	26.12
868.356	23.52
868.526	18.94
868.696	8.35
868.866	6.11
869.036	9.95
869.206	1.47
869.376	14.21
869.545	17.93
869.715	23.6
869.885	24.89
870.055	23.02
870.224	26.69
870.394	28.67
870.564	34.55
870.734	32.69
870.903	28.08
871.073	30.34
871.243	29.64
871.412	26.91
871.582	25.94
871.751	26.68
871.921	28.62
872.091	25.3
872.26	29.3
872.43	24.91
872.599	29.39
872.769	35.16
872.938	34.11
873.108	32.58
873.277	33.25
873.446	32.3
873.616	31.76
873.785	31.59
873.955	31.11
874.124	31.8
874.293	33.74
874.463	33.45
874.632	32.64
874.801	34.58
874.971	35.38
875.14	34.82
875.309	35.23
875.478	37.49
875.647	34.19
875.817	34
875.986	32.05
876.155	28.59
876.324	27.11
876.493	27.7
876.662	25.93
876.831	23.95
877	28.46
877.17	27.26
877.339	24.73
877.508	30.31
877.677	29.69
877.846	26.21
878.015	27.86
878.184	27.56
878.352	23.01
878.521	23.44
878.69	21.83
878.859	22.19
879.028	25.7
879.197	22.32
879.366	21.51
879.534	21.93
879.703	25.21
879.872	24.87
880.041	28.13
880.21	29.83
880.378	30.62
880.547	30.95
880.716	30.77
880.884	30.3
881.053	31.42
881.222	31.4
881.39	32.15
881.559	32.02
881.727	32.97
881.896	32.04
882.065	32.2
882.233	32.2
882.402	32.34
882.57	32.59
882.739	33.19
882.907	33.22
883.076	33.27
883.244	33.35
883.412	33.25
883.581	33.04
883.749	33.01
883.918	33.34
884.086	32.79
884.254	32.94
884.423	32.49
884.591	31.39
884.759	32.22
884.927	32.6
885.096	31.2
885.264	31.51
885.432	31.57
885.6	30.82
885.769	29.45
885.937	28.93
886.105	27.52
886.273	27.71
886.441	28.5
886.609	25.63
886.777	24.29
886.945	26.47
887.113	28.71
887.281	27.55
887.449	30.14
887.617	28.93
887.785	33.42
887.953	37.66
888.121	36.67
888.289	37.53
888.457	41.3
888.625	39.06
888.793	36.53
888.961	32.94
889.129	35.32
889.296	35.8
889.464	39.12
889.632	37.08
889.8	32.92
889.967	33.78
890.135	33.03
