Data from 2938579_Reflection_1.txt Node
Date: Sun Jun 14 21:20:51 EDT 2015
User: robert
Spectrometer: USB4E03002
Autoset integration time: false
Trigger mode: 4
Integration Time (sec): 1.000000E-1
Scans to average: 10
Electric dark correction enabled: true
Nonlinearity correction enabled: false
Boxcar width: 5
Stray light correction enabled: false
XAxis mode: Wavelengths
Stop averaging: false
Number of Pixels in Spectrum: 3648
>>>>>Begin Spectral Data<<<<<
177.575	243.69
177.794	420.2
178.014	6124.68
178.233	-17900
178.452	-1426.63
178.672	-460.7
178.891	16.66
179.11	124.43
179.33	107.24
179.549	167.6
179.768	284.47
179.987	212.21
180.207	303.07
180.426	464.98
180.645	522.31
180.864	288.76
181.084	253.13
181.303	303.5
181.522	215.53
181.741	189.43
181.96	163.59
182.179	164.2
182.398	154.68
182.618	117.76
182.837	97.31
183.056	46.05
183.275	38.47
183.494	26.04
183.713	17.66
183.932	-21.53
184.151	18.59
184.37	5.14
184.589	21.44
184.808	-4.62
185.027	16.57
185.246	9.58
185.465	52.56
185.684	71.12
185.903	58.33
186.122	75.83
186.341	103.36
186.56	118.45
186.779	92.02
186.998	107.79
187.216	154.04
187.435	153.5
187.654	174.24
187.873	181.68
188.092	223.34
188.311	178.36
188.53	196.42
188.748	228.11
188.967	445.87
189.186	423.44
189.405	-1412.23
189.623	-26458.33
189.842	-398.2
190.061	-345.83
190.28	-451.52
190.498	-867.63
190.717	-2484.75
190.936	894.1
191.154	1081.09
191.373	273.19
191.592	392.1
191.81	98.14
192.029	202.22
192.248	132.59
192.466	102.9
192.685	83.87
192.904	100.38
193.122	99.45
193.341	93.64
193.559	63.61
193.778	90.8
193.996	106.08
194.215	127.54
194.433	107.26
194.652	88.51
194.87	100.06
195.089	96.92
195.307	80.25
195.526	93.73
195.744	108.69
195.963	117.33
196.181	131.09
196.399	127.39
196.618	87.13
196.836	73.55
197.055	93.41
197.273	76.98
197.491	80.57
197.71	77.64
197.928	66.35
198.146	72.62
198.365	54.37
198.583	52.14
198.801	61.08
199.019	74.47
199.238	73.46
199.456	65.08
199.674	70.3
199.892	77.57
200.111	75.52
200.329	48.97
200.547	45.11
200.765	36.04
200.983	25.89
201.202	12.44
201.42	26.94
201.638	33.66
201.856	15.25
202.074	38.91
202.292	16.81
202.51	12.17
202.728	26.01
202.946	9.3
203.165	20.67
203.383	24.95
203.601	26.71
203.819	6.77
204.037	-22.73
204.255	-12.88
204.473	-47.05
204.691	17.11
204.909	8.16
205.127	19.04
205.345	37.96
205.562	56.95
205.78	75.95
205.998	87.29
206.216	76.44
206.434	79.8
206.652	78.82
206.87	74.61
207.088	62.74
207.306	66.47
207.523	76.86
207.741	84.05
207.959	71.88
208.177	54.01
208.395	47.2
208.612	62.67
208.83	71.86
209.048	82.87
209.266	89.22
209.483	104.85
209.701	104.07
209.919	99.11
210.136	98.06
210.354	109.74
210.572	125.94
210.79	138.25
211.007	134.3
211.225	133.84
211.442	96.76
211.66	90.67
211.878	95.9
212.095	176.55
212.313	147.08
212.53	146.06
212.748	130.27
212.966	116.83
213.183	114.89
213.401	119.3
213.618	142.66
213.836	186.99
214.053	159.62
214.271	130.72
214.488	71.31
214.705	63.13
214.923	48.15
215.14	57.1
215.358	54.03
215.575	44.05
215.793	36.49
216.01	12.66
216.227	3.44
216.445	8.18
216.662	-8.14
216.879	-14.25
217.097	-13.56
217.314	3.38
217.531	20.8
217.749	32.04
217.966	39.09
218.183	24.82
218.4	32.22
218.618	51.18
218.835	43.23
219.052	54.76
219.269	56.68
219.487	62.12
219.704	57.96
219.921	44.3
220.138	37.98
220.355	28.95
220.572	39.56
220.79	42.65
221.007	40.55
221.224	43.64
221.441	38.95
221.658	40.7
221.875	37.07
222.092	32.04
222.309	29.04
222.526	25.54
222.743	31.71
222.96	33.25
223.177	29.16
223.394	26.13
223.611	27.57
223.828	29.33
224.045	29.84
224.262	27.07
224.479	26.98
224.696	27.47
224.913	29.94
225.13	29.2
225.347	26.06
225.564	25.69
225.781	22.66
225.997	20.75
226.214	21.04
226.431	20.11
226.648	19.42
226.865	18.98
227.082	19.53
227.298	18.22
227.515	17.12
227.732	17.06
227.949	16.43
228.165	17.13
228.382	17.39
228.599	16.38
228.816	15.84
229.032	15.52
229.249	15.73
229.466	15.2
229.682	15.13
229.899	15.99
230.116	15.25
230.332	15.95
230.549	15.81
230.765	14.57
230.982	14.81
231.199	14.62
231.415	15.3
231.632	15.12
231.848	14.01
232.065	13.85
232.281	14.2
232.498	15.72
232.714	17.76
232.931	17.11
233.147	16.95
233.364	16
233.58	14.43
233.797	16.51
234.013	16.76
234.23	18.25
234.446	19.81
234.662	17.24
234.879	15.63
235.095	12.64
235.312	13.65
235.528	15.31
235.744	14.81
235.961	16.74
236.177	14.25
236.393	14.81
236.61	13.69
236.826	13.25
237.042	14.01
237.258	14.16
237.475	15.74
237.691	15.01
237.907	14.25
238.123	15.58
238.339	15.62
238.556	17.03
238.772	15.32
238.988	13.53
239.204	13.48
239.42	14.36
239.636	13.83
239.853	13.59
240.069	13.21
240.285	12.53
240.501	12.34
240.717	11.96
240.933	11.12
241.149	11.56
241.365	12.78
241.581	12.77
241.797	12.06
242.013	11.73
242.229	11.79
242.445	12.18
242.661	12.91
242.877	13.24
243.093	14.07
243.309	14.12
243.525	14.44
243.741	13.57
243.957	12.83
244.173	11.98
244.388	12.37
244.604	11.87
244.82	11.51
245.036	11.07
245.252	10.7
245.468	10.23
245.683	10.15
245.899	9.94
246.115	9.59
246.331	9.53
246.547	10.02
246.762	9.95
246.978	9.73
247.194	10.01
247.409	9.76
247.625	9.71
247.841	9.75
248.057	9.89
248.272	9.84
248.488	10.7
248.703	10.7
248.919	10.69
249.135	10.97
249.35	11.6
249.566	11.32
249.782	11.76
249.997	11.56
250.213	10.87
250.428	10.93
250.644	10.8
250.859	10.93
251.075	11.04
251.29	11.06
251.506	10.9
251.721	10.97
251.937	10.58
252.152	10.7
252.368	10.8
252.583	11.65
252.798	12.16
253.014	12.15
253.229	10.86
253.445	10.98
253.66	10.42
253.875	10.53
254.091	9.92
254.306	9.36
254.521	8.92
254.737	9.18
254.952	8.13
255.167	7.42
255.383	8.02
255.598	8.74
255.813	8.42
256.028	8.78
256.244	8.11
256.459	8.02
256.674	8.74
256.889	8.75
257.104	8
257.32	8.23
257.535	8.01
257.75	7.64
257.965	7.73
258.18	8.03
258.395	7.92
258.61	8.07
258.826	7.93
259.041	7.87
259.256	7.82
259.471	8.14
259.686	8.36
259.901	8.08
260.116	8.23
260.331	7.92
260.546	7.77
260.761	7.33
260.976	7.06
261.191	7.36
261.406	7.19
261.621	7.19
261.836	7.25
262.05	6.34
262.265	6.85
262.48	7.58
262.695	8.22
262.91	8.75
263.125	9.25
263.34	9.87
263.555	10.12
263.769	9.82
263.984	9.98
264.199	10.02
264.414	10.41
264.629	10.42
264.843	9.77
265.058	9.56
265.273	8.78
265.488	8.93
265.702	8.3
265.917	7.72
266.132	7.64
266.346	7.29
266.561	7.34
266.776	6.86
266.99	6.81
267.205	6.64
267.42	6.16
267.634	5.83
267.849	5.84
268.063	6.23
268.278	6.68
268.492	6.77
268.707	6.84
268.922	6.55
269.136	7.08
269.351	6.84
269.565	6.85
269.78	6.68
269.994	7.01
270.209	6.78
270.423	6.64
270.637	6.3
270.852	6.2
271.066	6.26
271.281	6.79
271.495	6.33
271.709	6.44
271.924	6.85
272.138	7.38
272.353	7.73
272.567	8.02
272.781	8.23
272.996	8.56
273.21	8.85
273.424	8.95
273.638	8.54
273.853	9.08
274.067	9.56
274.281	9.21
274.495	8.98
274.71	9.02
274.924	8.86
275.138	8.96
275.352	8.91
275.566	8.85
275.781	9.17
275.995	9.48
276.209	9.22
276.423	9.02
276.637	8.89
276.851	9.09
277.065	8.43
277.279	8.26
277.493	8.15
277.707	7.95
277.921	7.95
278.135	7.03
278.349	6.76
278.563	6.65
278.777	7.02
278.991	6.93
279.205	7.06
279.419	7.2
279.633	7.23
279.847	7.14
280.061	6.94
280.275	6.93
280.489	7.66
280.703	7.83
280.917	7.76
281.131	7.32
281.344	7.42
281.558	7.02
281.772	7.15
281.986	6.99
282.2	6.86
282.414	6.68
282.627	6.12
282.841	5.83
283.055	5.81
283.269	5.94
283.482	6.05
283.696	5.82
283.91	6.04
284.123	5.7
284.337	6.05
284.551	5.99
284.764	6.2
284.978	6.56
285.192	6.49
285.405	6.26
285.619	6.25
285.833	6.35
286.046	6.31
286.26	6.32
286.473	6.52
286.687	6.81
286.9	6.76
287.114	6.55
287.327	6.79
287.541	6.86
287.754	6.56
287.968	6.48
288.181	6.11
288.395	6.23
288.608	6.22
288.822	5.98
289.035	5.41
289.248	5.56
289.462	5.93
289.675	5.9
289.889	5.84
290.102	6.02
290.315	6.36
290.529	6.48
290.742	6.41
290.955	6.44
291.169	6.62
291.382	6.59
291.595	6.85
291.808	7.04
292.022	6.78
292.235	6.64
292.448	6.87
292.661	6.96
292.875	6.92
293.088	7.16
293.301	7.16
293.514	7.12
293.727	7.21
293.94	6.99
294.153	6.91
294.367	6.75
294.58	6.64
294.793	6.53
295.006	6.35
295.219	6.31
295.432	6.47
295.645	6.43
295.858	6.43
296.071	6.33
296.284	6.27
296.497	6.29
296.71	6.24
296.923	6.7
297.136	6.83
297.349	6.86
297.562	7
297.775	7.02
297.988	7.18
298.201	7.53
298.414	7.78
298.626	7.92
298.839	7.77
299.052	8.16
299.265	7.83
299.478	7.33
299.691	7.18
299.903	7.08
300.116	6.7
300.329	6.92
300.542	6.53
300.755	6.69
300.967	6.64
301.18	6.9
301.393	6.5
301.605	6.37
301.818	6.78
302.031	6.85
302.243	7.04
302.456	7.05
302.669	6.86
302.881	7.39
303.094	6.79
303.307	6.79
303.519	6.24
303.732	6.56
303.944	6.63
304.157	6.62
304.37	6.76
304.582	6.69
304.795	6.98
305.007	7.1
305.22	6.61
305.432	6.84
305.645	7.1
305.857	7.2
306.069	7.25
306.282	7.38
306.494	7.55
306.707	7.14
306.919	7.14
307.132	6.78
307.344	6.86
307.556	6.97
307.769	6.97
307.981	6.49
308.193	6.68
308.406	6.51
308.618	6.41
308.83	6.16
309.043	6.42
309.255	6.48
309.467	6.54
309.679	6.52
309.892	6.48
310.104	6.61
310.316	6.82
310.528	6.86
310.74	7.22
310.953	7.26
311.165	7.1
311.377	7.02
311.589	7.1
311.801	7.24
312.013	7.05
312.225	7.16
312.437	7.32
312.649	7.5
312.862	7.6
313.074	7.42
313.286	7.64
313.498	8.2
313.71	8.46
313.922	8.32
314.134	8.42
314.346	8.08
314.558	8.13
314.77	8.38
314.982	8.18
315.193	8.3
315.405	8.2
315.617	7.68
315.829	7.5
316.041	7.19
316.253	7.15
316.465	7.4
316.677	7.62
316.888	7.8
317.1	7.42
317.312	7.4
317.524	7.33
317.736	7.61
317.947	8.21
318.159	8.33
318.371	8.89
318.583	9.35
318.794	8.91
319.006	8.58
319.218	8.6
319.43	8.6
319.641	9
319.853	9.13
320.064	9.12
320.276	8.91
320.488	8.94
320.699	9.01
320.911	8.35
321.123	8.51
321.334	8.99
321.546	8.85
321.757	9.17
321.969	9.06
322.18	8.98
322.392	8.57
322.603	8.68
322.815	8.51
323.026	8
323.238	8.29
323.449	8.31
323.661	8.02
323.872	8.14
324.083	7.87
324.295	7.63
324.506	7.42
324.718	7.37
324.929	7.37
325.14	7.47
325.352	7.86
325.563	7.66
325.774	7.88
325.986	8.08
326.197	7.72
326.408	7.76
326.62	7.85
326.831	8.26
327.042	8.28
327.253	8.34
327.464	8.27
327.676	8.01
327.887	8.17
328.098	7.89
328.309	8.09
328.52	8.42
328.732	8.57
328.943	8.52
329.154	8.46
329.365	8.76
329.576	8.67
329.787	8.76
329.998	8.86
330.209	8.86
330.42	8.99
330.631	9.03
330.842	8.9
331.053	9.19
331.264	9.36
331.475	9.32
331.686	9.18
331.897	9.15
332.108	9.2
332.319	8.94
332.53	9.15
332.741	8.83
332.952	8.74
333.163	8.69
333.374	8.36
333.585	8.07
333.795	7.69
334.006	8.31
334.217	8.35
334.428	8.38
334.639	8.77
334.849	8.58
335.06	8.71
335.271	8.47
335.482	8.74
335.692	8.91
335.903	9.08
336.114	8.98
336.325	8.5
336.535	9
336.746	9.12
336.957	8.99
337.167	9.03
337.378	8.73
337.589	8.96
337.799	8.6
338.01	8.44
338.22	8.42
338.431	8.46
338.642	8.32
338.852	7.41
339.063	7.5
339.273	7.3
339.484	7.28
339.694	7.55
339.905	7.81
340.115	7.74
340.326	7.56
340.536	7.89
340.746	7.99
340.957	8.23
341.167	8.42
341.378	7.96
341.588	7.97
341.799	7.76
342.009	8.02
342.219	7.51
342.43	7.6
342.64	7.78
342.85	7.59
343.061	7.75
343.271	7.64
343.481	7.66
343.691	7.83
343.902	7.9
344.112	8.08
344.322	7.88
344.532	7.75
344.743	7.6
344.953	7.26
345.163	6.97
345.373	6.83
345.583	6.65
345.793	6.54
346.004	6.36
346.214	6.31
346.424	6.17
346.634	6.05
346.844	6.4
347.054	6.65
347.264	6.86
347.474	6.79
347.684	6.86
347.894	7.04
348.104	7.43
348.314	7.44
348.524	7.17
348.734	7.4
348.944	7.37
349.154	7.37
349.364	7.16
349.574	7.02
349.784	7.09
349.994	7.06
350.204	6.89
350.413	6.66
350.623	6.89
350.833	7.24
351.043	7.09
351.253	7.31
351.463	6.83
351.672	7.26
351.882	7.37
352.092	7.73
352.302	7.66
352.511	7.84
352.721	7.72
352.931	7.42
353.141	7.52
353.35	7.72
353.56	7.67
353.77	7.87
353.979	7.62
354.189	7.85
354.399	7.52
354.608	7.35
354.818	7.27
355.027	7.45
355.237	7.66
355.447	7.24
355.656	7.14
355.866	7.08
356.075	7.13
356.285	6.99
356.494	6.71
356.704	6.66
356.913	6.7
357.123	6.55
357.332	6.23
357.542	6.13
357.751	6.27
357.96	6
358.17	5.88
358.379	5.74
358.589	5.56
358.798	5.46
359.007	5.41
359.217	5.45
359.426	5.43
359.635	5.75
359.845	5.62
360.054	5.65
360.263	5.71
360.472	5.67
360.682	5.67
360.891	5.72
361.1	5.7
361.309	5.75
361.519	5.88
361.728	6.02
361.937	5.74
362.146	5.9
362.355	6.02
362.564	6.17
362.774	6.06
362.983	6.02
363.192	6.15
363.401	5.99
363.61	5.98
363.819	5.9
364.028	5.86
364.237	6.02
364.446	5.9
364.655	5.5
364.864	5.51
365.073	5.55
365.282	5.72
365.491	5.73
365.7	6
365.909	6.17
366.118	6.16
366.327	5.95
366.536	5.91
366.745	6.07
366.954	6.25
367.162	6.17
367.371	6.32
367.58	6.18
367.789	5.86
367.998	5.55
368.207	5.61
368.415	5.44
368.624	5.8
368.833	5.69
369.042	5.5
369.25	5.64
369.459	5.8
369.668	5.87
369.877	5.94
370.085	6.12
370.294	6.34
370.503	6.2
370.711	6.45
370.92	6.37
371.129	6.45
371.337	6.58
371.546	6.22
371.754	6.11
371.963	5.99
372.171	5.76
372.38	5.72
372.589	5.77
372.797	6.02
373.006	5.71
373.214	5.35
373.423	5.48
373.631	5.44
373.84	5.67
374.048	5.45
374.256	5.3
374.465	5.68
374.673	5.75
374.882	5.42
375.09	5.28
375.298	5.44
375.507	5.7
375.715	5.6
375.923	5.5
376.132	5.21
376.34	5.05
376.548	5.26
376.757	5.14
376.965	5.25
377.173	5.49
377.381	5.45
377.59	5.57
377.798	5.45
378.006	5.47
378.214	5.52
378.423	5.83
378.631	5.98
378.839	5.95
379.047	5.99
379.255	5.77
379.463	5.74
379.671	5.54
379.879	5.41
380.088	5.43
380.296	5.36
380.504	5.22
380.712	5.3
380.92	5.18
381.128	5.17
381.336	4.84
381.544	4.81
381.752	4.93
381.96	5.32
382.168	5.23
382.376	5.2
382.584	5.11
382.791	5.23
382.999	5.11
383.207	5.27
383.415	5.38
383.623	5.63
383.831	5.55
384.039	5.51
384.247	5.36
384.454	5.38
384.662	5.31
384.87	5.35
385.078	5.39
385.285	5.29
385.493	5.41
385.701	5.1
385.909	5.35
386.116	5.37
386.324	5.43
386.532	5.31
386.739	5.34
386.947	5.43
387.155	5.48
387.362	5.31
387.57	5.21
387.778	5.05
387.985	5.3
388.193	5.06
388.4	5.1
388.608	5.13
388.816	5.13
389.023	5.09
389.231	5.08
389.438	4.92
389.646	5.16
389.853	5.26
390.061	5.22
390.268	5.13
390.475	5.05
390.683	5.19
390.89	5.11
391.098	5.15
391.305	4.98
391.512	4.93
391.72	4.94
391.927	4.82
392.135	5.08
392.342	5.16
392.549	5.13
392.756	5.09
392.964	4.97
393.171	4.94
393.378	4.87
393.586	4.89
393.793	5.06
394	4.98
394.207	4.8
394.414	4.66
394.622	4.63
394.829	4.67
395.036	4.77
395.243	4.75
395.45	4.77
395.657	4.72
395.864	4.64
396.072	4.53
396.279	4.61
396.486	4.82
396.693	4.77
396.9	4.79
397.107	4.61
397.314	4.47
397.521	4.46
397.728	4.41
397.935	4.53
398.142	4.78
398.349	4.69
398.556	4.61
398.763	4.49
398.97	4.55
399.177	4.42
399.383	4.51
399.59	4.36
399.797	4.46
400.004	4.41
400.211	4.27
400.418	4.24
400.625	4.22
400.831	4.25
401.038	4.29
401.245	4.12
401.452	3.97
401.658	3.93
401.865	4.28
402.072	4.26
402.279	4.32
402.485	4.23
402.692	4.16
402.899	4.06
403.105	4.06
403.312	4.03
403.519	4.07
403.725	4.2
403.932	4.31
404.138	4.15
404.345	4.06
404.552	3.96
404.758	4.08
404.965	4.16
405.171	4.21
405.378	4.18
405.584	4.23
405.791	4.2
405.997	4.21
406.204	4.42
406.41	4.47
406.617	4.57
406.823	4.53
407.029	4.59
407.236	4.48
407.442	4.61
407.649	4.7
407.855	4.51
408.061	4.58
408.268	4.63
408.474	4.27
408.68	4.22
408.887	4.18
409.093	4.27
409.299	4.28
409.505	4.11
409.712	4
409.918	3.93
410.124	3.94
410.33	3.86
410.537	3.77
410.743	3.78
410.949	3.87
411.155	3.82
411.361	3.99
411.567	3.84
411.773	3.98
411.98	4.02
412.186	4.05
412.392	4.08
412.598	4.01
412.804	4.04
413.01	3.96
413.216	3.86
413.422	3.97
413.628	3.73
413.834	3.86
414.04	3.84
414.246	3.78
414.452	3.86
414.658	3.9
414.864	3.97
415.07	3.93
415.275	3.94
415.481	3.97
415.687	3.86
415.893	3.82
416.099	3.64
416.305	3.81
416.511	3.73
416.716	3.61
416.922	3.55
417.128	3.63
417.334	3.66
417.539	3.7
417.745	3.65
417.951	3.68
418.157	3.74
418.362	3.78
418.568	3.73
418.774	3.76
418.979	3.83
419.185	3.81
419.391	3.77
419.596	3.71
419.802	3.59
420.008	3.6
420.213	3.62
420.419	3.62
420.624	3.7
420.83	3.6
421.035	3.62
421.241	3.6
421.446	3.64
421.652	3.56
421.857	3.53
422.063	3.62
422.268	3.56
422.474	3.47
422.679	3.45
422.885	3.35
423.09	3.35
423.295	3.32
423.501	3.37
423.706	3.34
423.911	3.42
424.117	3.5
424.322	3.56
424.527	3.53
424.733	3.65
424.938	3.63
425.143	3.69
425.349	3.74
425.554	3.75
425.759	3.72
425.964	3.72
426.169	3.61
426.375	3.57
426.58	3.56
426.785	3.78
426.99	3.7
427.195	3.76
427.4	3.65
427.605	3.75
427.811	3.74
428.016	3.71
428.221	3.73
428.426	3.77
428.631	3.68
428.836	3.64
429.041	3.45
429.246	3.41
429.451	3.36
429.656	3.33
429.861	3.2
430.066	3.25
430.271	3.2
430.476	3.19
430.681	3.22
430.886	3.32
431.09	3.31
431.295	3.32
431.5	3.27
431.705	3.23
431.91	3.22
432.115	3.22
432.32	3.15
432.524	3.22
432.729	3.32
432.934	3.26
433.139	3.32
433.343	3.26
433.548	3.21
433.753	3.32
433.958	3.41
434.162	3.56
434.367	3.57
434.572	3.53
434.776	3.37
434.981	3.24
435.186	3.19
435.39	3.04
435.595	3.06
435.799	3.18
436.004	3.05
436.209	2.93
436.413	2.83
436.618	2.82
436.822	2.76
437.027	2.79
437.231	2.83
437.436	2.94
437.64	3
437.845	2.93
438.049	2.96
438.253	3
438.458	3.13
438.662	3.09
438.867	3.22
439.071	3.33
439.275	3.35
439.48	3.36
439.684	3.29
439.888	3.33
440.093	3.41
440.297	3.36
440.501	3.32
440.706	3.22
440.91	3.24
441.114	3.05
441.318	3
441.523	3.12
441.727	3.01
441.931	3.07
442.135	2.98
442.339	2.99
442.543	2.96
442.748	3
442.952	3.01
443.156	3.04
443.36	3.13
443.564	3.13
443.768	3.05
443.972	3.04
444.176	2.97
444.38	2.92
444.584	2.94
444.788	2.9
444.992	2.86
445.196	2.82
445.4	2.81
445.604	2.72
445.808	2.74
446.012	2.67
446.216	2.75
446.42	2.81
446.624	2.83
446.828	2.78
447.032	2.85
447.235	2.9
447.439	2.93
447.643	2.95
447.847	3.01
448.051	3.04
448.254	3.1
448.458	3.15
448.662	3.21
448.866	3.27
449.069	3.35
449.273	3.26
449.477	3.28
449.681	3.27
449.884	3.25
450.088	3.25
450.292	3.1
450.495	3.1
450.699	3.11
450.902	3.04
451.106	2.97
451.31	2.91
451.513	2.87
451.717	2.85
451.92	2.9
452.124	2.98
452.327	2.99
452.531	3.1
452.734	3.16
452.938	3.12
453.141	3.04
453.345	3.11
453.548	3.09
453.752	3.17
453.955	3.09
454.158	3.05
454.362	2.98
454.565	2.97
454.769	3.07
454.972	3.01
455.175	2.94
455.379	2.93
455.582	2.92
455.785	2.81
455.988	2.76
456.192	2.78
456.395	2.71
456.598	2.66
456.801	2.72
457.005	2.7
457.208	2.64
457.411	2.62
457.614	2.68
457.817	2.66
458.021	2.64
458.224	2.67
458.427	2.7
458.63	2.71
458.833	2.7
459.036	2.7
459.239	2.61
459.442	2.6
459.645	2.62
459.848	2.68
460.051	2.66
460.254	2.74
460.457	2.68
460.66	2.7
460.863	2.77
461.066	2.9
461.269	2.9
461.472	2.97
461.675	3.04
461.878	3.12
462.081	2.97
462.284	3.02
462.486	3.03
462.689	3.13
462.892	3.13
463.095	3.15
463.298	3.16
463.5	3.13
463.703	3.12
463.906	3.17
464.109	3.1
464.311	3.15
464.514	3.14
464.717	3.22
464.92	3.17
465.122	3.23
465.325	3.27
465.528	3.23
465.73	3.22
465.933	3.26
466.135	3.29
466.338	3.23
466.541	3.25
466.743	3.26
466.946	3.25
467.148	3.3
467.351	3.16
467.553	3.1
467.756	2.94
467.958	2.98
468.161	2.97
468.363	2.88
468.566	2.93
468.768	2.93
468.971	2.85
469.173	2.81
469.375	2.8
469.578	2.76
469.78	2.74
469.983	2.8
470.185	2.74
470.387	2.63
470.59	2.57
470.792	2.64
470.994	2.64
471.196	2.64
471.399	2.68
471.601	2.67
471.803	2.77
472.005	2.79
472.208	2.8
472.41	2.93
472.612	3.02
472.814	3.07
473.016	3.06
473.218	3.06
473.421	3.09
473.623	3.06
473.825	2.95
474.027	2.93
474.229	2.84
474.431	2.97
474.633	2.96
474.835	2.91
475.037	2.87
475.239	2.81
475.441	2.84
475.643	2.87
475.845	2.83
476.047	2.86
476.249	2.86
476.451	2.87
476.653	2.77
476.855	2.69
477.057	2.69
477.258	2.75
477.46	2.72
477.662	2.75
477.864	2.75
478.066	2.77
478.268	2.86
478.469	2.85
478.671	2.81
478.873	2.84
479.075	2.84
479.276	2.9
479.478	2.84
479.68	2.85
479.882	2.77
480.083	2.75
480.285	2.76
480.487	2.77
480.688	2.77
480.89	2.8
481.091	2.75
481.293	2.72
481.495	2.7
481.696	2.71
481.898	2.66
482.099	2.66
482.301	2.67
482.502	2.67
482.704	2.62
482.905	2.6
483.107	2.61
483.308	2.62
483.51	2.63
483.711	2.62
483.913	2.6
484.114	2.64
484.315	2.66
484.517	2.66
484.718	2.63
484.92	2.67
485.121	2.68
485.322	2.68
485.524	2.68
485.725	2.66
485.926	2.64
486.127	2.66
486.329	2.66
486.53	2.66
486.731	2.6
486.932	2.62
487.134	2.66
487.335	2.66
487.536	2.64
487.737	2.65
487.938	2.69
488.139	2.67
488.341	2.66
488.542	2.69
488.743	2.66
488.944	2.69
489.145	2.7
489.346	2.62
489.547	2.63
489.748	2.63
489.949	2.61
490.15	2.6
490.351	2.64
490.552	2.67
490.753	2.62
490.954	2.64
491.155	2.66
491.356	2.63
491.557	2.66
491.758	2.67
491.959	2.72
492.159	2.73
492.36	2.73
492.561	2.72
492.762	2.71
492.963	2.71
493.164	2.69
493.364	2.7
493.565	2.78
493.766	2.76
493.967	2.76
494.167	2.72
494.368	2.79
494.569	2.8
494.769	2.76
494.97	2.85
495.171	2.92
495.371	2.88
495.572	2.86
495.773	2.83
495.973	2.81
496.174	2.8
496.375	2.77
496.575	2.74
496.776	2.7
496.976	2.8
497.177	2.75
497.377	2.73
497.578	2.77
497.778	2.77
497.979	2.7
498.179	2.78
498.38	2.78
498.58	2.77
498.78	2.84
498.981	2.86
499.181	2.83
499.382	2.84
499.582	2.82
499.782	2.85
499.983	2.89
500.183	2.93
500.383	2.93
500.584	2.93
500.784	3.03
500.984	2.97
501.184	2.96
501.385	2.97
501.585	2.95
501.785	2.89
501.985	2.94
502.185	2.86
502.386	2.96
502.586	2.9
502.786	2.9
502.986	2.92
503.186	2.9
503.386	2.91
503.586	2.87
503.786	2.94
503.987	3.13
504.187	3.09
504.387	3.17
504.587	3.2
504.787	3.24
504.987	3.29
505.187	3.32
505.387	3.3
505.587	3.33
505.786	3.37
505.986	3.27
506.186	3.2
506.386	3.25
506.586	3.28
506.786	3.21
506.986	3.2
507.186	3.14
507.386	3.1
507.585	3.06
507.785	3.06
507.985	3.05
508.185	3.07
508.384	3.05
508.584	2.97
508.784	2.91
508.984	2.89
509.183	2.9
509.383	2.91
509.583	2.91
509.782	2.97
509.982	2.93
510.182	2.94
510.381	2.96
510.581	3.01
510.781	3.1
510.98	3.13
511.18	3.09
511.379	3.08
511.579	3.15
511.778	3.14
511.978	3.07
512.177	3.07
512.377	3.07
512.576	3.06
512.776	3.12
512.975	3.12
513.175	3.1
513.374	3.24
513.573	3.3
513.773	3.25
513.972	3.28
514.172	3.32
514.371	3.43
514.57	3.46
514.77	3.52
514.969	3.47
515.168	3.35
515.367	3.35
515.567	3.34
515.766	3.36
515.965	3.35
516.164	3.35
516.364	3.42
516.563	3.41
516.762	3.4
516.961	3.39
517.16	3.38
517.359	3.43
517.559	3.47
517.758	3.47
517.957	3.45
518.156	3.43
518.355	3.38
518.554	3.4
518.753	3.39
518.952	3.41
519.151	3.37
519.35	3.35
519.549	3.36
519.748	3.31
519.947	3.36
520.146	3.4
520.345	3.4
520.544	3.47
520.743	3.38
520.942	3.32
521.141	3.38
521.339	3.45
521.538	3.46
521.737	3.43
521.936	3.51
522.135	3.45
522.333	3.37
522.532	3.38
522.731	3.36
522.93	3.38
523.129	3.4
523.327	3.35
523.526	3.3
523.725	3.34
523.923	3.41
524.122	3.38
524.321	3.39
524.519	3.45
524.718	3.5
524.917	3.53
525.115	3.54
525.314	3.55
525.512	3.56
525.711	3.55
525.909	3.54
526.108	3.52
526.306	3.51
526.505	3.52
526.703	3.52
526.902	3.56
527.1	3.53
527.299	3.54
527.497	3.57
527.696	3.59
527.894	3.63
528.092	3.65
528.291	3.7
528.489	3.75
528.688	3.8
528.886	3.81
529.084	3.83
529.283	3.88
529.481	3.94
529.679	3.94
529.877	3.94
530.076	3.92
530.274	3.93
530.472	3.91
530.67	3.87
530.869	3.8
531.067	3.83
531.265	3.79
531.463	3.82
531.661	3.81
531.859	3.87
532.057	3.86
532.255	3.9
532.454	3.87
532.652	3.85
532.85	3.94
533.048	4.02
533.246	4.05
533.444	4.07
533.642	4.06
533.84	4.03
534.038	4.05
534.236	4.12
534.434	4.11
534.632	4.14
534.83	4.16
535.027	4.18
535.225	4.13
535.423	4.13
535.621	4.18
535.819	4.27
536.017	4.39
536.215	4.34
536.412	4.37
536.61	4.45
536.808	4.56
537.006	4.58
537.203	4.58
537.401	4.65
537.599	4.66
537.797	4.62
537.994	4.61
538.192	4.54
538.39	4.59
538.587	4.62
538.785	4.6
538.983	4.56
539.18	4.62
539.378	4.56
539.575	4.55
539.773	4.57
539.97	4.63
540.168	4.65
540.366	4.66
540.563	4.69
540.761	4.7
540.958	4.72
541.155	4.73
541.353	4.75
541.55	4.81
541.748	4.82
541.945	4.85
542.143	4.85
542.34	4.84
542.537	4.88
542.735	4.88
542.932	4.89
543.129	4.9
543.327	4.89
543.524	4.91
543.721	4.92
543.919	5.03
544.116	5.12
544.313	5.2
544.51	5.21
544.708	5.24
544.905	5.26
545.102	5.29
545.299	5.4
545.496	5.53
545.693	5.52
545.891	5.59
546.088	5.6
546.285	5.56
546.482	5.58
546.679	5.65
546.876	5.72
547.073	5.75
547.27	5.82
547.467	5.84
547.664	5.89
547.861	5.97
548.058	6.08
548.255	6.17
548.452	6.25
548.649	6.37
548.846	6.47
549.043	6.39
549.24	6.47
549.437	6.5
549.633	6.4
549.83	6.29
550.027	6.36
550.224	6.33
550.421	6.22
550.618	6.2
550.814	6.22
551.011	6.21
551.208	6.3
551.405	6.33
551.601	6.41
551.798	6.57
551.995	6.63
552.191	6.69
552.388	6.68
552.585	6.72
552.781	6.78
552.978	6.83
553.175	6.88
553.371	6.95
553.568	6.98
553.764	7.01
553.961	6.93
554.157	7.01
554.354	6.94
554.55	7.08
554.747	7.22
554.943	7.25
555.14	7.21
555.336	7.22
555.533	7.18
555.729	7.32
555.926	7.35
556.122	7.54
556.318	7.59
556.515	7.72
556.711	7.66
556.907	7.68
557.104	7.83
557.3	7.97
557.496	8.03
557.693	8.18
557.889	8.12
558.085	8.07
558.281	8.2
558.478	8.29
558.674	8.32
558.87	8.47
559.066	8.65
559.262	8.57
559.459	8.53
559.655	8.63
559.851	8.72
560.047	8.96
560.243	9.09
560.439	9.01
560.635	9.03
560.831	9.12
561.027	9.15
561.223	9.08
561.419	9.17
561.615	9.29
561.811	9.35
562.007	9.47
562.203	9.44
562.399	9.37
562.595	9.47
562.791	9.66
562.987	9.78
563.183	9.85
563.379	9.93
563.575	9.97
563.771	10.11
563.966	10.15
564.162	10.18
564.358	10.23
564.554	10.38
564.75	10.44
564.945	10.4
565.141	10.36
565.337	10.39
565.533	10.47
565.728	10.57
565.924	10.57
566.12	10.65
566.315	10.68
566.511	10.78
566.707	10.9
566.902	10.92
567.098	11
567.293	11.11
567.489	11.04
567.684	11.15
567.88	11.16
568.076	11.17
568.271	11.2
568.467	11.23
568.662	11.14
568.858	11.22
569.053	11.32
569.248	11.33
569.444	11.38
569.639	11.52
569.835	11.6
570.03	11.65
570.225	11.79
570.421	11.88
570.616	11.94
570.812	12.12
571.007	12.11
571.202	12.19
571.397	12.31
571.593	12.37
571.788	12.39
571.983	12.4
572.178	12.53
572.374	12.51
572.569	12.52
572.764	12.63
572.959	12.6
573.154	12.66
573.35	12.64
573.545	12.66
573.74	12.77
573.935	12.83
574.13	12.76
574.325	12.77
574.52	12.87
574.715	12.97
574.91	12.97
575.105	13.07
575.3	13.07
575.495	13.27
575.69	13.31
575.885	13.36
576.08	13.48
576.275	13.66
576.47	13.77
576.665	13.83
576.86	13.94
577.055	13.95
577.25	14.02
577.444	14.09
577.639	14.09
577.834	14.11
578.029	14.13
578.224	14.1
578.418	14.16
578.613	14.29
578.808	14.38
579.003	14.31
579.197	14.4
579.392	14.35
579.587	14.54
579.781	14.6
579.976	14.71
580.171	14.75
580.365	14.84
580.56	14.89
580.755	14.83
580.949	14.85
581.144	14.81
581.338	14.75
581.533	14.89
581.727	14.83
581.922	14.85
582.116	14.98
582.311	15.03
582.505	15.04
582.7	14.99
582.894	15.2
583.089	15.12
583.283	15.36
583.478	15.62
583.672	15.73
583.866	15.77
584.061	15.78
584.255	15.52
584.449	15.59
584.644	15.84
584.838	15.83
585.032	15.78
585.226	15.96
585.421	16.12
585.615	16.16
585.809	15.98
586.003	16
586.198	16.17
586.392	16.37
586.586	16.38
586.78	16.25
586.974	16.46
587.168	16.31
587.363	16.37
587.557	16.22
587.751	16.19
587.945	16.24
588.139	16.27
588.333	16.2
588.527	16.25
588.721	16.29
588.915	16.4
589.109	16.46
589.303	16.65
589.497	16.43
589.691	16.48
589.885	16.41
590.079	16.48
590.273	16.47
590.466	16.52
590.66	16.53
590.854	16.52
591.048	16.46
591.242	16.34
591.436	16.21
591.629	16.41
591.823	16.41
592.017	16.53
592.211	16.53
592.404	16.55
592.598	16.5
592.792	16.48
592.986	16.53
593.179	16.55
593.373	16.61
593.567	16.73
593.76	16.68
593.954	16.68
594.147	16.87
594.341	16.94
594.535	17.02
594.728	17.01
594.922	17.04
595.115	17.02
595.309	17.16
595.502	17.25
595.696	17.27
595.889	17.29
596.083	17.31
596.276	17.18
596.47	17.21
596.663	17.15
596.856	17.17
597.05	17.28
597.243	17.31
597.437	17.25
597.63	17.18
597.823	17.2
598.017	17.23
598.21	17.41
598.403	17.42
598.596	17.42
598.79	17.36
598.983	17.39
599.176	17.23
599.369	17.38
599.563	17.44
599.756	17.52
599.949	17.41
600.142	17.44
600.335	17.33
600.528	17.42
600.722	17.61
600.915	17.87
601.108	18.02
601.301	18.15
601.494	18.14
601.687	18.05
601.88	17.97
602.073	18.07
602.266	18.22
602.459	18.2
602.652	18.23
602.845	18.1
603.038	18.11
603.231	18.04
603.424	18.01
603.617	17.96
603.809	18.02
604.002	18.05
604.195	18.06
604.388	17.97
604.581	17.91
604.774	17.87
604.966	17.85
605.159	17.79
605.352	17.82
605.545	17.87
605.737	17.92
605.93	17.95
606.123	18.02
606.316	18.04
606.508	18.08
606.701	18.38
606.894	18.42
607.086	18.55
607.279	18.64
607.471	18.69
607.664	18.75
607.857	18.72
608.049	18.75
608.242	18.88
608.434	18.79
608.627	18.75
608.819	18.58
609.012	18.58
609.204	18.66
609.397	18.61
609.589	18.58
609.782	18.51
609.974	18.52
610.166	18.55
610.359	18.52
610.551	18.7
610.743	18.84
610.936	18.98
611.128	18.94
611.32	18.95
611.513	18.85
611.705	18.83
611.897	18.88
612.09	18.94
612.282	18.93
612.474	18.9
612.666	18.77
612.858	18.86
613.051	18.95
613.243	18.98
613.435	18.87
613.627	19.03
613.819	19.09
614.011	19.4
614.203	19.46
614.395	19.51
614.588	19.57
614.78	19.81
614.972	19.63
615.164	19.38
615.356	19.31
615.548	19.36
615.74	19.31
615.932	19.31
616.124	18.95
616.315	19.13
616.507	19.09
616.699	19.01
616.891	18.72
617.083	18.86
617.275	18.98
617.467	19.18
617.659	19.37
617.85	19.45
618.042	19.54
618.234	19.69
618.426	19.31
618.618	19.41
618.809	19.36
619.001	19.44
619.193	19.4
619.384	19.48
619.576	19.56
619.768	19.32
619.959	19.14
620.151	19.12
620.343	19.22
620.534	19.22
620.726	19.19
620.917	19.38
621.109	19.54
621.301	19.79
621.492	19.65
621.684	19.39
621.875	19.44
622.067	19.62
622.258	19.56
622.45	19.46
622.641	19.48
622.832	19.4
623.024	19.29
623.215	19.33
623.407	19.07
623.598	19.21
623.789	19.32
623.981	19.3
624.172	19.27
624.363	19.36
624.555	19.47
624.746	19.48
624.937	19.61
625.129	19.54
625.32	19.49
625.511	19.5
625.702	19.32
625.893	19.37
626.085	19.36
626.276	19.45
626.467	19.37
626.658	19.13
626.849	19.24
627.04	19.14
627.231	19.33
627.422	19.27
627.614	19.21
627.805	19.32
627.996	19.43
628.187	19.46
628.378	19.24
628.569	19.31
628.76	19.36
628.951	19.32
629.142	19.4
629.332	19.23
629.523	19.3
629.714	19.25
629.905	19.59
630.096	19.53
630.287	19.61
630.478	19.92
630.669	19.93
630.859	20.18
631.05	20.28
631.241	20.29
631.432	20.5
631.623	20.56
631.813	20.64
632.004	20.27
632.195	20.17
632.385	20.16
632.576	20.01
632.767	20.09
632.957	20.05
633.148	20.11
633.339	20.04
633.529	20.05
633.72	20.06
633.91	20.17
634.101	20.28
634.292	20.41
634.482	20.43
634.673	20.6
634.863	20.49
635.054	20.53
635.244	20.35
635.435	20.43
635.625	20.18
635.815	20.22
636.006	20.13
636.196	20.14
636.387	20.13
636.577	20.15
636.767	20.21
636.958	20.4
637.148	20.34
637.338	20.45
637.529	20.45
637.719	20.74
637.909	20.71
638.099	20.85
638.29	20.88
638.48	20.94
638.67	20.87
638.86	20.86
639.05	20.72
639.241	20.79
639.431	20.82
639.621	20.71
639.811	20.56
640.001	20.5
640.191	20.38
640.381	20.37
640.571	20.24
640.761	20.2
640.951	20.04
641.141	20
641.331	19.76
641.521	19.78
641.711	19.93
641.901	19.99
642.091	19.91
642.281	19.84
642.471	19.81
642.661	19.95
642.851	20.26
643.041	20.06
643.231	20.11
643.42	20.2
643.61	20.07
643.8	20.01
643.99	20.04
644.18	20.39
644.369	20.73
644.559	20.85
644.749	20.81
644.939	20.54
645.128	20.81
645.318	20.82
645.508	20.93
645.697	21.14
645.887	21.18
646.076	21.09
646.266	20.87
646.456	20.96
646.645	21.08
646.835	21.04
647.024	20.97
647.214	21.14
647.403	21.05
647.593	20.98
647.782	20.94
647.972	20.88
648.161	20.92
648.351	20.89
648.54	20.55
648.73	20.38
648.919	20.32
649.108	20.45
649.298	20.48
649.487	20.8
649.677	20.74
649.866	20.73
650.055	20.79
650.244	20.86
650.434	20.95
650.623	21.1
650.812	21.2
651.002	21.16
651.191	21.18
651.38	21.13
651.569	21.11
651.758	21.3
651.947	21.39
652.137	21.26
652.326	21.28
652.515	21.17
652.704	20.99
652.893	20.68
653.082	20.98
653.271	21.02
653.46	20.93
653.649	20.83
653.838	20.67
654.027	20.61
654.216	20.66
654.405	20.78
654.594	20.78
654.783	21.06
654.972	21.28
655.161	21.05
655.35	20.89
655.539	20.88
655.728	20.78
655.916	20.92
656.105	20.81
656.294	20.7
656.483	20.73
656.672	21.05
656.86	20.76
657.049	20.73
657.238	20.81
657.427	20.98
657.615	20.87
657.804	21
657.993	21.02
658.181	20.99
658.37	21.2
658.559	21
658.747	20.85
658.936	21.14
659.125	21.02
659.313	21.07
659.502	21.05
659.69	21.11
659.879	21.29
660.067	21.28
660.256	21.41
660.444	21.48
660.633	21.67
660.821	21.77
661.01	21.68
661.198	21.84
661.387	21.53
661.575	21.65
661.763	21.8
661.952	21.53
662.14	21.41
662.328	21.37
662.517	21.38
662.705	21.2
662.893	21
663.082	21
663.27	21.18
663.458	21.54
663.646	21.37
663.834	21.47
664.023	21.31
664.211	21.47
664.399	21.69
664.587	21.39
664.775	21.36
664.963	21.37
665.152	21.3
665.34	21.17
665.528	20.87
665.716	21.08
665.904	20.8
666.092	21.08
666.28	21.27
666.468	21.21
666.656	21.33
666.844	21.55
667.032	21.56
667.22	21.74
667.408	21.96
667.596	22.25
667.784	22.31
667.971	22.71
668.159	22.68
668.347	22.48
668.535	22.39
668.723	22.57
668.911	22.56
669.098	22.78
669.286	22.76
669.474	22.77
669.662	22.79
669.849	22.75
670.037	22.48
670.225	22.25
670.413	22.21
670.6	22.43
670.788	22.48
670.976	22.46
671.163	22.17
671.351	22.22
671.538	22.04
671.726	21.75
671.913	21.73
672.101	21.65
672.289	21.76
672.476	21.54
672.664	21.28
672.851	21.05
673.039	21.17
673.226	21.18
673.413	20.94
673.601	20.92
673.788	21.16
673.976	20.94
674.163	20.89
674.35	20.77
674.538	20.91
674.725	20.96
674.912	20.97
675.1	20.7
675.287	20.96
675.474	21.01
675.662	21.14
675.849	21.1
676.036	21.11
676.223	21.19
676.411	21.42
676.598	21.7
676.785	21.75
676.972	21.76
677.159	22.17
677.346	21.97
677.533	22.02
677.721	22.13
677.908	22.48
678.095	22.68
678.282	22.76
678.469	22.88
678.656	22.55
678.843	22.49
679.03	22.47
679.217	22.47
679.404	22.82
679.591	22.91
679.778	22.74
679.964	22.44
680.151	22.23
680.338	22.25
680.525	22.26
680.712	22.46
680.899	22.51
681.086	22.86
681.272	22.64
681.459	22.46
681.646	22.3
681.833	22.38
682.02	22.63
682.206	22.93
682.393	22.78
682.58	22.6
682.766	22.9
682.953	23.1
683.14	22.59
683.326	23.01
683.513	22.97
683.7	23.09
683.886	22.85
684.073	22.72
684.259	22.42
684.446	22.23
684.632	22.36
684.819	22.12
685.005	21.98
685.192	22.2
685.378	21.8
685.565	21.86
685.751	21.8
685.938	22.01
686.124	22.18
686.31	22.16
686.497	22.75
686.683	22.61
686.87	22.51
687.056	22.66
687.242	22.59
687.429	22.58
687.615	22.72
687.801	22.98
687.987	23.09
688.174	23.08
688.36	23.26
688.546	23.06
688.732	23.07
688.918	23.37
689.105	23.36
689.291	23.56
689.477	23.59
689.663	23.45
689.849	23.2
690.035	23.16
690.221	22.77
690.407	23.19
690.593	23.28
690.779	23.14
690.965	23.01
691.151	23.06
691.337	22.86
691.523	22.47
691.709	22.45
691.895	22.58
692.081	22.36
692.267	22.4
692.453	22.23
692.639	22.22
692.825	22.57
693.011	22.27
693.196	22.3
693.382	22.39
693.568	22.71
693.754	22.67
693.94	22.6
694.125	22.87
694.311	22.97
694.497	22.66
694.682	22.67
694.868	22.68
695.054	22.96
695.239	22.87
695.425	22.8
695.611	22.97
695.796	22.9
695.982	22.96
696.168	22.67
696.353	22.75
696.539	22.96
696.724	22.83
696.91	22.65
697.095	22.8
697.281	22.88
697.466	22.88
697.652	23.02
697.837	22.86
698.023	22.98
698.208	22.9
698.393	22.85
698.579	22.85
698.764	22.75
698.949	22.81
699.135	22.81
699.32	22.64
699.505	22.63
699.691	22.44
699.876	22.61
700.061	22.56
700.246	22.76
700.432	22.9
700.617	22.65
700.802	23.13
700.987	23.15
701.172	23.32
701.358	23.27
701.543	23.31
701.728	23.39
701.913	23.45
702.098	23.54
702.283	23.81
702.468	23.72
702.653	23.69
702.838	23.59
703.023	23.72
703.208	23.26
703.393	23.45
703.578	23.34
703.763	23.49
703.948	23.35
704.133	22.97
704.318	22.73
704.503	22.77
704.688	23.1
704.873	22.85
705.057	22.93
705.242	22.98
705.427	22.98
705.612	23.47
705.797	23.28
705.981	23.6
706.166	23.52
706.351	23.88
706.536	23.91
706.72	23.71
706.905	23.69
707.09	23.57
707.274	23.64
707.459	23.39
707.644	23.31
707.828	23.37
708.013	23.49
708.197	23.7
708.382	23.32
708.567	23.18
708.751	23.03
708.936	23.12
709.12	23.18
709.305	23.01
709.489	23.66
709.673	23.57
709.858	23.54
710.042	23.28
710.227	23.09
710.411	23.37
710.596	23.54
710.78	23.92
710.964	23.99
711.149	24.3
711.333	24.46
711.517	24.04
711.702	24.2
711.886	24.25
712.07	24.39
712.254	24.37
712.438	24.62
712.623	24.72
712.807	24.59
712.991	24.74
713.175	24.36
713.359	24.15
713.544	24.06
713.728	23.62
713.912	23.76
714.096	23.83
714.28	24.11
714.464	23.74
714.648	23.62
714.832	23.85
715.016	23.83
715.2	23.73
715.384	23.8
715.568	23.8
715.752	23.87
715.936	23.7
716.12	23.55
716.304	23.38
716.488	23.17
716.671	23.37
716.855	23.07
717.039	22.88
717.223	22.76
717.407	22.96
717.59	23.1
717.774	23.36
717.958	23.31
718.142	23.14
718.325	22.92
718.509	23.16
718.693	22.55
718.877	22.39
719.06	22.42
719.244	22.79
719.428	22.86
719.611	22.65
719.795	22.51
719.978	22.94
720.162	23.35
720.345	24.25
720.529	24.13
720.713	24.8
720.896	25.31
721.08	25.48
721.263	25.73
721.446	25.72
721.63	25.98
721.813	26.38
721.997	25.88
722.18	25.93
722.364	25.49
722.547	25.65
722.73	25.33
722.914	25.04
723.097	24.87
723.28	24.53
723.464	24.22
723.647	24.01
723.83	23.33
724.013	23.12
724.197	22.61
724.38	22.87
724.563	22.92
724.746	22.72
724.929	22.98
725.112	23.31
725.296	23.63
725.479	23.8
725.662	23.81
725.845	24.63
726.028	24.88
726.211	24.58
726.394	24.6
726.577	24.46
726.76	25.21
726.943	25.21
727.126	24.43
727.309	24.3
727.492	24.1
727.675	24.01
727.858	23.69
728.041	23.9
728.224	24.55
728.407	24.06
728.589	23.94
728.772	23.3
728.955	23.27
729.138	23.64
729.321	23.56
729.503	23.92
729.686	24.24
729.869	24.35
730.052	24.38
730.234	24.31
730.417	24.46
730.6	24.56
730.782	24.83
730.965	24.69
731.148	25.18
731.33	25.11
731.513	25.09
731.695	25.4
731.878	25.32
732.061	25.26
732.243	25.17
732.426	25.22
732.608	25.3
732.791	25.44
732.973	25.18
733.156	24.45
733.338	24.93
733.52	24.98
733.703	24.35
733.885	24.49
734.068	24.61
734.25	24.69
734.432	24.76
734.615	24.88
734.797	24.58
734.979	24.94
735.162	25.36
735.344	24.95
735.526	24.96
735.708	25.32
735.891	25.22
736.073	24.98
736.255	25.24
736.437	25.09
736.619	24.89
736.802	24.97
736.984	25.24
737.166	25.79
737.348	25.48
737.53	25.33
737.712	25.13
737.894	24.47
738.076	24.55
738.258	24.62
738.44	24.51
738.622	24.81
738.804	24.93
738.986	24.54
739.168	23.75
739.35	24.25
739.532	24.54
739.714	25.18
739.896	25.77
740.078	25.27
740.259	24.83
740.441	24.98
740.623	24.88
740.805	24.6
740.987	25
741.168	25.36
741.35	25.12
741.532	24.84
741.714	24.71
741.895	24.76
742.077	24.92
742.259	24.69
742.44	24.59
742.622	24.79
742.804	25.16
742.985	25
743.167	24.78
743.348	24.99
743.53	25.13
743.711	24.58
743.893	24.41
744.075	24.25
744.256	24.78
744.438	24.88
744.619	24.87
744.8	24.41
744.982	24.33
745.163	24.04
745.345	23.57
745.526	23.53
745.707	24.01
745.889	24.03
746.07	24.31
746.252	24.56
746.433	24.45
746.614	24.63
746.795	24.88
746.977	25.08
747.158	25.03
747.339	25.42
747.52	25.74
747.702	25.72
747.883	25.99
748.064	26.4
748.245	26.06
748.426	26.13
748.607	25.45
748.788	25.08
748.97	25.17
749.151	25.82
749.332	26.25
749.513	25.79
749.694	25.42
749.875	25.43
750.056	25.02
750.237	24.37
750.418	23.99
750.599	24.43
750.78	24.05
750.96	23.22
751.141	23.38
751.322	22.89
751.503	23.24
751.684	22.95
751.865	22.45
752.046	22.41
752.226	23.18
752.407	23.75
752.588	24.3
752.769	25.36
752.949	25.96
753.13	26.02
753.311	25.31
753.492	24.96
753.672	25.49
753.853	26.23
754.034	26.53
754.214	26.66
754.395	26.54
754.575	26.19
754.756	25.52
754.937	25.72
755.117	24.68
755.298	25.05
755.478	25.06
755.659	24.75
755.839	24.2
756.02	24.16
756.2	24.03
756.381	24.64
756.561	24.88
756.741	25.45
756.922	25.03
757.102	25.76
757.283	26.72
757.463	26.47
757.643	26.86
757.823	27.37
758.004	27.24
758.184	26.98
758.364	26.57
758.545	26.11
758.725	25.65
758.905	25.09
759.085	25.11
759.265	24.53
759.446	25.03
759.626	24.62
759.806	24.44
759.986	24.4
760.166	23.96
760.346	23.46
760.526	23.98
760.706	24.47
760.886	25.09
761.066	26.08
761.246	25.98
761.426	25.84
761.606	25.99
761.786	25.96
761.966	25.89
762.146	26.28
762.326	26.57
762.506	25.83
762.686	25.41
762.866	25.49
763.046	24.44
763.225	24.56
763.405	24.2
763.585	23.88
763.765	23.71
763.945	23.41
764.124	23.18
764.304	23.09
764.484	23.63
764.664	24
764.843	23.64
765.023	24.02
765.203	23.87
765.382	24.31
765.562	25.09
765.741	25.1
765.921	25.88
766.101	26.17
766.28	26.36
766.46	25.96
766.639	25.76
766.819	25.53
766.998	25.62
767.178	25.55
767.357	25.62
767.537	25.26
767.716	25.3
767.896	24.94
768.075	25.27
768.254	25.18
768.434	25.78
768.613	26.01
768.792	27.22
768.972	27.53
769.151	27.81
769.33	27.92
769.51	28.16
769.689	28.04
769.868	28.56
770.047	28.33
770.226	28.92
770.406	28.94
770.585	29.07
770.764	28.64
770.943	27.66
771.122	27.51
771.301	27.86
771.48	27.59
771.66	27.51
771.839	26.76
772.018	26.4
772.197	25.93
772.376	25.55
772.555	25.71
772.734	25.9
772.913	25.92
773.092	25.35
773.271	24.6
773.449	24.91
773.628	25.21
773.807	25.39
773.986	25.75
774.165	25.65
774.344	25.97
774.523	25.82
774.701	25.14
774.88	25.97
775.059	26.7
775.238	27.21
775.417	26.87
775.595	27.22
775.774	27.1
775.953	27.15
776.131	27.14
776.31	26.77
776.489	26.71
776.667	28.06
776.846	28.06
777.025	27.71
777.203	27.12
777.382	27.07
777.56	26.94
777.739	28.18
777.917	28.38
778.096	28.86
778.274	28.36
778.453	28.09
778.631	27.46
778.81	27.56
778.988	27.76
779.166	27.57
779.345	27.63
779.523	27.4
779.702	26.95
779.88	25.83
780.058	24.59
780.237	25.35
780.415	25.71
780.593	25.58
780.771	25.06
780.95	25.98
781.128	26.65
781.306	26.82
781.484	27.51
781.662	27.07
781.841	27.69
782.019	28.57
782.197	27.77
782.375	27.46
782.553	26.74
782.731	26.91
782.909	25.98
783.087	26.05
783.265	26.76
783.443	25.04
783.621	25.95
783.799	25.37
783.977	25.79
784.155	26.53
784.333	27.35
784.511	28.05
784.689	28.03
784.867	28.59
785.045	27.73
785.223	27.03
785.4	28.4
785.578	27.35
785.756	28.01
785.934	27.11
786.112	26.59
786.289	26.43
786.467	26.16
786.645	25.95
786.823	25.48
787	26.39
787.178	27.25
787.356	26.69
787.533	26.08
787.711	26.47
787.889	26.65
788.066	27.11
788.244	26.19
788.421	25.86
788.599	26.49
788.776	26.84
788.954	26.95
789.131	25.81
789.309	25.83
789.486	26.66
789.664	26.32
789.841	27.03
790.019	26.97
790.196	27.52
790.373	28.04
790.551	28.78
790.728	27.99
790.906	27.62
791.083	26.51
791.26	26.5
791.437	26.27
791.615	26.21
791.792	25.45
791.969	26.03
792.146	26.88
792.324	26.92
792.501	26.07
792.678	27.01
792.855	27.05
793.032	28.46
793.209	29.21
793.387	29.36
793.564	29.76
793.741	30.13
793.918	29.75
794.095	28.69
794.272	29.36
794.449	28.68
794.626	29.4
794.803	29.19
794.98	29.43
795.157	28.53
795.334	28.91
795.511	28.64
795.688	28.31
795.864	27.94
796.041	27.86
796.218	27.11
796.395	27.65
796.572	26.63
796.749	26.85
796.925	26.36
797.102	27.87
797.279	27.68
797.456	27.36
797.632	27.13
797.809	27.69
797.986	27.97
798.162	28.08
798.339	27.73
798.516	28.19
798.692	28.56
798.869	28.38
799.046	27.03
799.222	26.54
799.399	26.35
799.575	27.19
799.752	27.28
799.928	27.31
800.105	26.94
800.281	27.22
800.458	26.08
800.634	25.72
800.811	26.06
800.987	26.2
801.163	27.48
801.34	28.32
801.516	29.45
801.692	29.87
801.869	29.95
802.045	30.77
802.221	30.38
802.398	31.38
802.574	31.85
802.75	31.92
802.926	32.63
803.103	32
803.279	30.57
803.455	28.74
803.631	28.62
803.807	28.94
803.983	28.46
804.16	29.59
804.336	28.9
804.512	27.87
804.688	27.39
804.864	27.11
805.04	26.1
805.216	26.81
805.392	27.61
805.568	27.66
805.744	27.07
805.92	27.75
806.096	26.88
806.272	27.93
806.448	30.19
806.623	30.9
806.799	30.59
806.975	30.25
807.151	31.67
807.327	30.43
807.503	30.08
807.678	30.35
807.854	30.04
808.03	29.76
808.206	28.98
808.381	26.65
808.557	27.92
808.733	27.9
808.908	29.31
809.084	28.48
809.26	28.42
809.435	28.2
809.611	28.64
809.787	27.41
809.962	28.33
810.138	28.28
810.313	28.65
810.489	28.68
810.664	29.61
810.84	29.08
811.015	30.26
811.191	31.77
811.366	32.35
811.542	31.25
811.717	32.18
811.892	32.72
812.068	32.21
812.243	32.04
812.419	30.58
812.594	30.63
812.769	31.72
812.944	31.41
813.12	31.29
813.295	31.22
813.47	31.01
813.645	30.83
813.821	29.18
813.996	29.85
814.171	30.18
814.346	30.29
814.521	29.39
814.697	28.65
814.872	26.57
815.047	26.79
815.222	26.75
815.397	27.45
815.572	28
815.747	29.07
815.922	28.14
816.097	28.74
816.272	28.16
816.447	28.84
816.622	29.94
816.797	32.03
816.972	30.26
817.147	29.12
817.322	30.53
817.496	29.86
817.671	29.25
817.846	29.75
818.021	28.75
818.196	28.99
818.371	27.32
818.545	26.51
818.72	26.3
818.895	27.8
819.069	28.13
819.244	26.87
819.419	27.4
819.594	27.47
819.768	27.93
819.943	28.2
820.117	28.59
820.292	28.92
820.467	28.58
820.641	28.13
820.816	27.92
820.99	27.83
821.165	27.53
821.339	27.14
821.514	27.12
821.688	26.84
821.863	26.77
822.037	26.38
822.212	26.36
822.386	26.25
822.56	26.2
822.735	26.1
822.909	26.04
823.084	26.16
823.258	26.29
823.432	26.18
823.606	26.11
823.781	26.11
823.955	26.39
824.129	26.28
824.303	26.34
824.478	26.27
824.652	26.02
824.826	25.96
825	26.15
825.174	26.08
825.348	26
825.523	26.38
825.697	26.29
825.871	25.97
826.045	26.41
826.219	26.35
826.393	26.12
826.567	26.1
826.741	26.53
826.915	26.39
827.089	26.69
827.263	27.06
827.437	27.11
827.611	27.01
827.784	27.2
827.958	26.84
828.132	27.08
828.306	27.67
828.48	28.29
828.654	27.94
828.827	27.51
829.001	26.81
829.175	26.84
829.349	26.88
829.522	27.21
829.696	27.13
829.87	26.63
830.044	27.56
830.217	27.36
830.391	27.62
830.565	27.81
830.738	28.79
830.912	29.25
831.085	29.08
831.259	29.4
831.432	30.18
831.606	31.38
831.779	31.73
831.953	30.12
832.126	29.79
832.3	28.92
832.473	29
832.647	28.08
832.82	28.43
832.994	28.65
833.167	28.99
833.34	29.01
833.514	28.27
833.687	28.3
833.86	28.26
834.034	28.46
834.207	29.26
834.38	29.53
834.553	30.17
834.727	30.64
834.9	29.88
835.073	29.57
835.246	29
835.419	29.54
835.593	29.89
835.766	31.25
835.939	31.77
836.112	31.21
836.285	31.53
836.458	31.72
836.631	31.33
836.804	32.81
836.977	32.32
837.15	33.05
837.323	32.25
837.496	33.77
837.669	33.42
837.842	32.68
838.015	33.17
838.188	32.97
838.361	32.49
838.533	31.7
838.706	29.94
838.879	28.09
839.052	28.72
839.225	29.36
839.398	27.94
839.57	27.67
839.743	26.84
839.916	26.98
840.088	26.47
840.261	26.62
840.434	27.38
840.607	28.45
840.779	30.84
840.952	30.15
841.124	29.14
841.297	30.32
841.47	28.05
841.642	29.5
841.815	29.39
841.987	28.2
842.16	29.21
842.332	27.59
842.505	29.07
842.677	27.93
842.85	27.41
843.022	30.72
843.194	30.44
843.367	35.27
843.539	35.88
843.712	33.91
843.884	38.11
844.056	38.94
844.229	42.67
844.401	39.53
844.573	40.78
844.745	42.05
844.918	40.08
845.09	40.63
845.262	38.09
845.434	37.85
845.606	41.07
845.779	38.75
845.951	36.65
846.123	36.93
846.295	37.46
846.467	38.99
846.639	37.97
846.811	39.23
846.983	36.69
847.155	36.58
847.327	35
847.499	32.02
847.671	28.91
847.843	30.22
848.015	27.58
848.187	29.63
848.359	25.75
848.531	28.92
848.703	26.74
848.875	28.63
849.047	26.33
849.218	29.81
849.39	32.31
849.562	34.54
849.734	36.47
849.905	38.59
850.077	40.16
850.249	42.42
850.421	43.44
850.592	43.48
850.764	39.64
850.936	38.94
851.107	40.14
851.279	40.23
851.451	40.35
851.622	36.29
851.794	36.37
851.965	36.41
852.137	33.57
852.308	32.87
852.48	35.75
852.651	38.25
852.823	40.15
852.994	34.97
853.166	33.64
853.337	34.98
853.509	36.26
853.68	36.01
853.851	34.14
854.023	34.81
854.194	32.81
854.365	31.89
854.537	34.52
854.708	36.4
854.879	38.79
855.05	42.15
855.222	41.64
855.393	42.98
855.564	40.33
855.735	40.49
855.906	42.64
856.078	40.66
856.249	40.29
856.42	39.12
856.591	37.16
856.762	38.28
856.933	34.89
857.104	32.88
857.275	34.77
857.446	37.65
857.617	39.12
857.788	38.1
857.959	40.74
858.13	42.07
858.301	41.58
858.472	42.39
858.643	43.7
858.814	44.87
858.985	49.87
859.155	49.12
859.326	50.1
859.497	47.4
859.668	50.85
859.839	52.18
860.009	50.71
860.18	50.4
860.351	50.1
860.522	47.44
860.692	48.13
860.863	46.16
861.034	43.22
861.204	41.4
861.375	41.3
861.546	36.41
861.716	31.95
861.887	32.22
862.057	32.16
862.228	35.89
862.398	35.58
862.569	33.53
862.739	35.31
862.91	36.87
863.08	36.66
863.251	41.23
863.421	44.15
863.592	43.39
863.762	43.3
863.932	43.78
864.103	42.38
864.273	43.03
864.443	43.16
864.614	39.83
864.784	38.39
864.954	37.73
865.125	35.63
865.295	35
865.465	34.34
865.635	35.13
865.805	37.54
865.976	37.37
866.146	41.52
866.316	42.63
866.486	46.66
866.656	50.85
866.826	50.55
866.996	52.53
867.166	53.42
867.336	57.79
867.506	56.69
867.676	53.11
867.846	52.97
868.016	46.89
868.186	45.51
868.356	40.52
868.526	36.41
868.696	34.73
868.866	33.92
869.036	30.34
869.206	30.25
869.376	29.28
869.545	28.68
869.715	24.2
869.885	27.82
870.055	28.48
870.224	37.67
870.394	41.4
870.564	45.45
870.734	42.91
870.903	42.96
871.073	44.84
871.243	47.32
871.412	50.97
871.582	54.73
871.751	54.36
871.921	58.02
872.091	50.96
872.26	50.41
872.43	46.93
872.599	49.69
872.769	52.95
872.938	52.65
873.108	51.77
873.277	50.3
873.446	50.85
873.616	48.46
873.785	47.93
873.955	45.54
874.124	46.99
874.293	49.32
874.463	46.09
874.632	44.77
874.801	40.01
874.971	42.81
875.14	42.86
875.309	42.06
875.478	39.51
875.647	34.91
875.817	36.73
875.986	34.31
876.155	32.62
876.324	31.51
876.493	31.65
876.662	32.37
876.831	28.07
877	27.25
877.17	26.13
877.339	29.12
877.508	30.86
877.677	31.7
877.846	34.31
878.015	35.24
878.184	35.79
878.352	36.1
878.521	36.11
878.69	39
878.859	38.96
879.028	38.3
879.197	35.1
879.366	32.15
879.534	34.53
879.703	31.78
879.872	31.8
880.041	32.43
880.21	30.63
880.378	31.73
880.547	29.61
880.716	30.47
880.884	30
881.053	30.36
881.222	31.34
881.39	30.63
881.559	30.68
881.727	30.26
881.896	30.03
882.065	29.93
882.233	29.23
882.402	29.3
882.57	28.79
882.739	28.68
882.907	29.17
883.076	28.64
883.244	28.31
883.412	28.02
883.581	27.89
883.749	27.59
883.918	27.85
884.086	28.34
884.254	29
884.423	29.35
884.591	29.48
884.759	29.45
884.927	29.88
885.096	29.86
885.264	31.77
885.432	33.23
885.6	33.42
885.769	33.08
885.937	34.28
886.105	33.94
886.273	35.39
886.441	36.28
886.609	35.65
886.777	35.18
886.945	37.72
887.113	36.99
887.281	38.35
887.449	41.05
887.617	41.41
887.785	37.68
887.953	38.63
888.121	37.01
888.289	38.27
888.457	41.58
888.625	42.38
888.793	37.16
888.961	36.98
889.129	34.42
889.296	34.66
889.464	36.31
889.632	39.85
889.8	40.24
889.967	40.29
890.135	40.03
