Data from 2938565_Reflection_3.txt Node
Date: Sun Jun 14 22:31:19 EDT 2015
User: robert
Spectrometer: USB4E03002
Autoset integration time: false
Trigger mode: 4
Integration Time (sec): 1.000000E-1
Scans to average: 10
Electric dark correction enabled: true
Nonlinearity correction enabled: false
Boxcar width: 5
Stray light correction enabled: false
XAxis mode: Wavelengths
Stop averaging: false
Number of Pixels in Spectrum: 3648
>>>>>Begin Spectral Data<<<<<
177.575	193.34
177.794	-179.66
178.014	-104.8
178.233	-99
178.452	-420.48
178.672	-89700
178.891	154.93
179.11	219.81
179.33	215.53
179.549	169.24
179.768	287.11
179.987	214.89
180.207	-26.27
180.426	-22.02
180.645	-38.74
180.864	-51.09
181.084	-78.61
181.303	1.73
181.522	65.59
181.741	62.55
181.96	-4431.82
182.179	923.19
182.398	473.37
182.618	122
182.837	97.73
183.056	71.01
183.275	123.91
183.494	112.14
183.713	97.19
183.932	130.67
184.151	103.93
184.37	108.9
184.589	97.27
184.808	87.24
185.027	81.73
185.246	104.85
185.465	116.5
185.684	129.36
185.903	224.4
186.122	-111.93
186.341	-805.69
186.56	-134.42
186.779	-396.51
186.998	3221.74
187.216	1860.63
187.435	440.26
187.654	318.6
187.873	139.4
188.092	83.38
188.311	75.07
188.53	48.31
188.748	49.51
188.967	35.99
189.186	66.5
189.405	77.61
189.623	75.22
189.842	68.36
190.061	67.04
190.28	76.74
190.498	85.68
190.717	-1082.2
190.936	189.18
191.154	129.04
191.373	121.98
191.592	189.13
191.81	175.34
192.029	220.69
192.248	159.47
192.466	104.8
192.685	91.25
192.904	30.56
193.122	55.62
193.341	78.94
193.559	68.07
193.778	104.99
193.996	87.13
194.215	84.65
194.433	97.95
194.652	173.3
194.87	143.45
195.089	178.31
195.307	203.26
195.526	196.66
195.744	203.54
195.963	215.28
196.181	175.85
196.399	140.54
196.618	180.82
196.836	285.82
197.055	120.32
197.273	-44.15
197.491	-110.12
197.71	145.51
197.928	659.85
198.146	-498.39
198.365	-223.78
198.583	-258.73
198.801	402.03
199.019	255.1
199.238	150.74
199.456	124.29
199.674	164.25
199.892	151.33
200.111	157.3
200.329	129.96
200.547	141.68
200.765	119.58
200.983	145.36
201.202	182.98
201.42	156.45
201.638	251.46
201.856	283.58
202.074	179.34
202.292	340.49
202.51	249.24
202.728	272.07
202.946	378.08
203.165	287.8
203.383	97.89
203.601	37.59
203.819	-109.52
204.037	-300.1
204.255	-101.62
204.473	614.82
204.691	-7.93
204.909	12.79
205.127	23.24
205.345	38.02
205.562	41.01
205.78	55.54
205.998	94.55
206.216	90.06
206.434	98.78
206.652	92.9
206.87	90.77
207.088	96.67
207.306	126.01
207.523	122.56
207.741	119.36
207.959	233.51
208.177	166.55
208.395	160.19
208.612	207.58
208.83	198.31
209.048	247.86
209.266	246.72
209.483	367
209.701	226.09
209.919	169.95
210.136	154.3
210.354	83.85
210.572	82.8
210.79	89.97
211.007	68.95
211.225	50.62
211.442	10.63
211.66	14.78
211.878	-0.78
212.095	79.42
212.313	89.88
212.53	94.67
212.748	101.97
212.966	118.86
213.183	124.16
213.401	108.71
213.618	106.78
213.836	121.63
214.053	96.3
214.271	87.42
214.488	34.4
214.705	13.97
214.923	-82.01
215.14	-29.91
215.358	-32.39
215.575	-24.12
215.793	4.23
216.01	20.93
216.227	4.83
216.445	24.92
216.662	24.71
216.879	27.86
217.097	34.36
217.314	46.96
217.531	49.12
217.749	49.82
217.966	47.73
218.183	37.33
218.4	53.22
218.618	58.27
218.835	48.7
219.052	44.51
219.269	51.38
219.487	48.4
219.704	41.83
219.921	32.44
220.138	35.95
220.355	41.63
220.572	42.12
220.79	22.97
221.007	17.82
221.224	17.46
221.441	12.35
221.658	-1.42
221.875	5.04
222.092	2.13
222.309	2.42
222.526	1.41
222.743	6.53
222.96	7.65
223.177	7.92
223.394	3.18
223.611	5.23
223.828	6.51
224.045	3.75
224.262	6.49
224.479	5.93
224.696	8.83
224.913	8.03
225.13	9.26
225.347	8.36
225.564	9.57
225.781	10.79
225.997	10.81
226.214	11.43
226.431	11.87
226.648	10.84
226.865	10.69
227.082	10.76
227.298	10.26
227.515	9.3
227.732	9.71
227.949	9.49
228.165	9.87
228.382	9.48
228.599	9.95
228.816	10.9
229.032	12.23
229.249	14.24
229.466	13.72
229.682	14.58
229.899	14.97
230.116	16.52
230.332	17.14
230.549	18.56
230.765	19.65
230.982	18.38
231.199	17.63
231.415	15.65
231.632	14.81
231.848	14.38
232.065	14.1
232.281	14.7
232.498	12.6
232.714	11.89
232.931	10.74
233.147	9.85
233.364	11.58
233.58	12.72
233.797	13.07
234.013	11.75
234.23	13.82
234.446	14.98
234.662	13.64
234.879	15.36
235.095	17.66
235.312	15.52
235.528	16.59
235.744	15.56
235.961	13.4
236.177	14.19
236.393	14.6
236.61	15.72
236.826	15.17
237.042	14.07
237.258	13.13
237.475	11.77
237.691	12.4
237.907	12.75
238.123	12.81
238.339	13.81
238.556	12.25
238.772	12.02
238.988	10.1
239.204	9.27
239.42	9.88
239.636	10.35
239.853	10.65
240.069	10.89
240.285	11.13
240.501	10.86
240.717	10.5
240.933	11.04
241.149	10.82
241.365	10.77
241.581	11.94
241.797	12.52
242.013	11.36
242.229	10.45
242.445	10.32
242.661	9.42
242.877	9.83
243.093	9.64
243.309	9.03
243.525	8.96
243.741	9.82
243.957	7.96
244.173	7.22
244.388	8.34
244.604	8.35
244.82	8.18
245.036	8.1
245.252	7.9
245.468	7.8
245.683	7.68
245.899	7.84
246.115	7.73
246.331	7.98
246.547	8.27
246.762	7.87
246.978	7.78
247.194	7.54
247.409	7.96
247.625	7.93
247.841	8.31
248.057	8.92
248.272	8.83
248.488	8.9
248.703	8.5
248.919	7.91
249.135	8.18
249.35	8.53
249.566	9.32
249.782	8.47
249.997	8.83
250.213	8.41
250.428	8.29
250.644	8.09
250.859	7.39
251.075	7.87
251.29	7.45
251.506	8.02
251.721	8.37
251.937	8.61
252.152	8.29
252.368	7.18
252.583	7.24
252.798	6.8
253.014	6.79
253.229	7.04
253.445	8.45
253.66	9.34
253.875	8.3
254.091	7.35
254.306	6.1
254.521	7.42
254.737	7.49
254.952	7.89
255.167	6.58
255.383	7.35
255.598	7.63
255.813	7.19
256.028	6.53
256.244	6.88
256.459	7.56
256.674	7.74
256.889	6.95
257.104	7.3
257.32	6.87
257.535	6.58
257.75	6.13
257.965	5.86
258.18	5.45
258.395	5.88
258.61	5.62
258.826	5.08
259.041	5.13
259.256	5.18
259.471	4.67
259.686	4.91
259.901	5.67
260.116	5.82
260.331	5.81
260.546	5.84
260.761	5.31
260.976	5.3
261.191	5.91
261.406	5.7
261.621	6.13
261.836	6.75
262.05	6.26
262.265	5.68
262.48	5.86
262.695	6.11
262.91	7.02
263.125	7.15
263.34	8.25
263.555	6.95
263.769	7.48
263.984	7.21
264.199	7.36
264.414	7.11
264.629	6.8
264.843	6.74
265.058	6.53
265.273	6.01
265.488	5.73
265.702	4.35
265.917	5.16
266.132	5.05
266.346	4.98
266.561	4.94
266.776	4.68
266.99	4.67
267.205	4.59
267.42	5.1
267.634	4.86
267.849	5.55
268.063	5.93
268.278	6.51
268.492	6.62
268.707	6.47
268.922	6.15
269.136	6.59
269.351	6.31
269.565	6.25
269.78	6.14
269.994	6.37
270.209	6.71
270.423	6.71
270.637	5.98
270.852	5.63
271.066	5.75
271.281	6.2
271.495	6.16
271.709	6.63
271.924	6.6
272.138	6.61
272.353	6.48
272.567	5.7
272.781	6.02
272.996	6.15
273.21	6.26
273.424	6.11
273.638	5.68
273.853	5.79
274.067	5.6
274.281	5.93
274.495	5.89
274.71	5.58
274.924	6.01
275.138	5.62
275.352	5.72
275.566	5.89
275.781	6.29
275.995	6.44
276.209	6.4
276.423	6.53
276.637	6.21
276.851	5.95
277.065	7
277.279	6.74
277.493	6.54
277.707	6.17
277.921	6.44
278.135	6.23
278.349	6.19
278.563	6.18
278.777	6.13
278.991	5.8
279.205	6.34
279.419	5.67
279.633	6.04
279.847	6.61
280.061	6.83
280.275	6.2
280.489	6.14
280.703	5.97
280.917	5.29
281.131	5.26
281.344	5.57
281.558	5.21
281.772	5.1
281.986	4.41
282.2	4.2
282.414	4.29
282.627	4.61
282.841	4.44
283.055	4.49
283.269	5.24
283.482	5.02
283.696	4.83
283.91	4.82
284.123	4.86
284.337	5.33
284.551	5.37
284.764	5.19
284.978	5.18
285.192	4.98
285.405	5.11
285.619	4.72
285.833	5.1
286.046	5.43
286.26	5.55
286.473	5.37
286.687	5.44
286.9	5.18
287.114	5.73
287.327	5.51
287.541	5.78
287.754	5.61
287.968	5.8
288.181	5.5
288.395	5.39
288.608	5.39
288.822	5.29
289.035	4.97
289.248	4.98
289.462	5
289.675	4.97
289.889	4.93
290.102	5.16
290.315	5.43
290.529	5.64
290.742	5.44
290.955	4.96
291.169	5.1
291.382	5.18
291.595	5.31
291.808	5.02
292.022	5.28
292.235	5.33
292.448	5.12
292.661	4.48
292.875	4.62
293.088	4.69
293.301	4.91
293.514	5.18
293.727	5.09
293.94	4.88
294.153	4.62
294.367	4.4
294.58	4.4
294.793	4.23
295.006	4.35
295.219	4.21
295.432	4.28
295.645	4.44
295.858	4.32
296.071	4.45
296.284	4.7
296.497	4.75
296.71	4.9
296.923	4.69
297.136	4.7
297.349	4.86
297.562	4.83
297.775	5.08
297.988	5.16
298.201	5.34
298.414	5.41
298.626	5.27
298.839	5.16
299.052	5.33
299.265	5.68
299.478	5.78
299.691	5.57
299.903	5.59
300.116	5.16
300.329	4.82
300.542	5.11
300.755	5.1
300.967	5.48
301.18	5.4
301.393	5.27
301.605	5.32
301.818	5.5
302.031	5.84
302.243	5.53
302.456	5.53
302.669	5.6
302.881	5.33
303.094	5.1
303.307	4.88
303.519	5.13
303.732	5.02
303.944	5.17
304.157	4.94
304.37	4.99
304.582	5.55
304.795	5.58
305.007	5.54
305.22	5.26
305.432	5.37
305.645	5.36
305.857	5.58
306.069	5.76
306.282	5.57
306.494	5.61
306.707	5.42
306.919	5.24
307.132	5.3
307.344	5.26
307.556	5.3
307.769	5.32
307.981	5.43
308.193	5.15
308.406	5.03
308.618	4.82
308.83	4.7
309.043	4.4
309.255	4.19
309.467	4.46
309.679	4.73
309.892	4.82
310.104	4.52
310.316	4.44
310.528	4.92
310.74	4.73
310.953	4.76
311.165	4.88
311.377	5.29
311.589	5.58
311.801	5.58
312.013	5.43
312.225	5.47
312.437	6.19
312.649	6.33
312.862	6.09
313.074	6.43
313.286	6.65
313.498	6.73
313.71	6.83
313.922	6.44
314.134	6.1
314.346	6.1
314.558	6.41
314.77	6.58
314.982	6.38
315.193	6.72
315.405	6.67
315.617	6.8
315.829	6.92
316.041	6.89
316.253	7.33
316.465	7.38
316.677	7.53
316.888	7.43
317.1	7.02
317.312	7.62
317.524	7.52
317.736	7.73
317.947	7.76
318.159	8.46
318.371	8.03
318.583	7.91
318.794	7.7
319.006	7.46
319.218	7.12
319.43	6.87
319.641	6.5
319.853	5.94
320.064	5.51
320.276	5.49
320.488	4.94
320.699	5.14
320.911	5.34
321.123	5.51
321.334	5.6
321.546	5.75
321.757	5.75
321.969	5.73
322.18	6.11
322.392	6.34
322.603	6.51
322.815	6.52
323.026	6.89
323.238	7.09
323.449	7.18
323.661	6.75
323.872	6.7
324.083	7.07
324.295	6.7
324.506	6.75
324.718	6.84
324.929	6.61
325.14	6.55
325.352	6.41
325.563	6.28
325.774	6.7
325.986	7.13
326.197	7.02
326.408	6.71
326.62	6.94
326.831	7.2
327.042	7.18
327.253	7.09
327.464	6.95
327.676	7.2
327.887	7.08
328.098	6.52
328.309	6.31
328.52	6.69
328.732	6.65
328.943	7.2
329.154	7.16
329.365	7.17
329.576	7.24
329.787	7.66
329.998	7.26
330.209	7.51
330.42	7.61
330.631	7.97
330.842	8.03
331.053	8.18
331.264	7.58
331.475	7.89
331.686	7.72
331.897	7.95
332.108	8.31
332.319	8.37
332.53	8.23
332.741	8.3
332.952	8.2
333.163	8.15
333.374	8.05
333.585	7.94
333.795	6.98
334.006	6.62
334.217	6.74
334.428	6.1
334.639	6.44
334.849	6.63
335.06	6.75
335.271	7.26
335.482	7.26
335.692	7.35
335.903	7.67
336.114	8.15
336.325	8.76
336.535	8.73
336.746	8.76
336.957	8.32
337.167	8.03
337.378	7.79
337.589	7.46
337.799	7.06
338.01	7.35
338.22	7.41
338.431	7.22
338.642	7.11
338.852	6.86
339.063	6.91
339.273	7.15
339.484	7.33
339.694	7.52
339.905	7.54
340.115	7.84
340.326	7.5
340.536	7.56
340.746	7.69
340.957	7.69
341.167	7.91
341.378	8.29
341.588	8.12
341.799	8.18
342.009	8.18
342.219	7.88
342.43	7.83
342.64	7.69
342.85	7.29
343.061	7.02
343.271	7.13
343.481	6.95
343.691	6.76
343.902	6.81
344.112	6.72
344.322	6.23
344.532	6.58
344.743	6.59
344.953	6.86
345.163	7.16
345.373	7.51
345.583	7.45
345.793	7.46
346.004	7.55
346.214	7.69
346.424	7.44
346.634	8.09
346.844	7.69
347.054	7.96
347.264	7.97
347.474	7.93
347.684	7.47
347.894	7.08
348.104	7.13
348.314	7
348.524	6.5
348.734	6.77
348.944	6.57
349.154	6.66
349.364	6.15
349.574	6.13
349.784	5.8
349.994	5.98
350.204	6.38
350.413	6.47
350.623	6.34
350.833	6.43
351.043	6.18
351.253	6.07
351.463	6.26
351.672	6.42
351.882	6.32
352.092	6.25
352.302	6.53
352.511	6.43
352.721	6.28
352.931	6.22
353.141	6.41
353.35	6.77
353.56	6.88
353.77	6.8
353.979	6.8
354.189	7
354.399	7.06
354.608	7.1
354.818	7.12
355.027	7.19
355.237	7.32
355.447	7.39
355.656	7.25
355.866	7.3
356.075	7.28
356.285	7.35
356.494	7.28
356.704	7.39
356.913	7.2
357.123	7.11
357.332	6.89
357.542	6.94
357.751	6.76
357.96	6.26
358.17	6.05
358.379	6.2
358.589	6.36
358.798	6.52
359.007	6.35
359.217	6.39
359.426	6.44
359.635	6.57
359.845	6.54
360.054	6.69
360.263	6.97
360.472	7.08
360.682	6.84
360.891	6.75
361.1	6.49
361.309	6.8
361.519	6.74
361.728	6.83
361.937	6.93
362.146	6.8
362.355	6.79
362.564	7.03
362.774	6.93
362.983	6.96
363.192	6.78
363.401	6.9
363.61	6.62
363.819	6.88
364.028	6.8
364.237	6.63
364.446	6.75
364.655	6.73
364.864	6.48
365.073	6.64
365.282	6.54
365.491	6.51
365.7	6.23
365.909	6.12
366.118	5.89
366.327	5.81
366.536	5.94
366.745	6.05
366.954	5.89
367.162	6.08
367.371	5.8
367.58	6.02
367.789	6
367.998	6.11
368.207	6.32
368.415	6.31
368.624	6.15
368.833	5.99
369.042	5.61
369.25	5.77
369.459	5.59
369.668	5.71
369.877	5.82
370.085	5.84
370.294	5.88
370.503	6.04
370.711	6.02
370.92	6.15
371.129	6.13
371.337	6.13
371.546	5.94
371.754	6.04
371.963	5.93
372.171	5.86
372.38	5.81
372.589	5.79
372.797	5.54
373.006	5.54
373.214	5.43
373.423	5.18
373.631	5.26
373.84	5.52
374.048	5.49
374.256	5.52
374.465	5.45
374.673	5.68
374.882	5.59
375.09	5.64
375.298	5.36
375.507	5.47
375.715	5.74
375.923	5.69
376.132	5.44
376.34	5.35
376.548	5.41
376.757	5.46
376.965	5.38
377.173	5.26
377.381	5.08
377.59	5.42
377.798	5.18
378.006	5.11
378.214	5.09
378.423	5.12
378.631	5.22
378.839	5.46
379.047	5.41
379.255	5.28
379.463	5.56
379.671	5.74
379.879	5.67
380.088	5.88
380.296	5.76
380.504	5.77
380.712	5.95
380.92	5.85
381.128	5.68
381.336	5.57
381.544	5.33
381.752	5.14
381.96	5.17
382.168	5.08
382.376	4.94
382.584	5.07
382.791	5.19
382.999	4.98
383.207	5.06
383.415	5.02
383.623	5.09
383.831	5.26
384.039	5.46
384.247	5.24
384.454	5.23
384.662	5.25
384.87	5.27
385.078	5.05
385.285	5.16
385.493	4.99
385.701	5.16
385.909	5
386.116	5.23
386.324	5.18
386.532	5.2
386.739	5.17
386.947	5.26
387.155	5.28
387.362	5.51
387.57	5.57
387.778	5.74
387.985	5.7
388.193	5.74
388.4	5.57
388.608	5.52
388.816	5.5
389.023	5.59
389.231	5.46
389.438	5.39
389.646	5.27
389.853	5.19
390.061	5.25
390.268	5.12
390.475	5.06
390.683	5
390.89	4.93
391.098	5.02
391.305	4.88
391.512	5.03
391.72	5.1
391.927	4.98
392.135	4.87
392.342	4.63
392.549	4.47
392.756	4.53
392.964	4.46
393.171	4.41
393.378	4.41
393.586	4.39
393.793	4.32
394	4.24
394.207	4.37
394.414	4.43
394.622	4.4
394.829	4.33
395.036	4.11
395.243	4.15
395.45	4.18
395.657	4.26
395.864	4.24
396.072	4.13
396.279	3.97
396.486	3.77
396.693	3.71
396.9	3.92
397.107	4.17
397.314	4.64
397.521	4.84
397.728	4.82
397.935	4.96
398.142	4.9
398.349	4.82
398.556	4.81
398.763	5.05
398.97	5.14
399.177	4.97
399.383	4.64
399.59	4.16
399.797	3.99
400.004	4.12
400.211	3.89
400.418	4
400.625	3.97
400.831	3.86
401.038	3.66
401.245	3.54
401.452	3.59
401.658	3.86
401.865	3.93
402.072	3.84
402.279	3.63
402.485	3.49
402.692	3.51
402.899	3.67
403.105	3.88
403.312	3.93
403.519	3.96
403.725	3.96
403.932	3.82
404.138	4.11
404.345	4.23
404.552	4.4
404.758	4.56
404.965	4.63
405.171	4.68
405.378	4.71
405.584	4.84
405.791	4.9
405.997	4.97
406.204	5.13
406.41	5.1
406.617	5.07
406.823	4.91
407.029	4.95
407.236	4.94
407.442	4.79
407.649	4.69
407.855	4.72
408.061	4.69
408.268	4.44
408.474	4.24
408.68	3.85
408.887	3.89
409.093	4.02
409.299	3.93
409.505	3.68
409.712	3.6
409.918	3.64
410.124	3.45
410.33	3.59
410.537	3.71
410.743	3.85
410.949	3.95
411.155	3.94
411.361	3.89
411.567	4.14
411.773	4.38
411.98	4.41
412.186	4.21
412.392	4.09
412.598	3.85
412.804	4.01
413.01	3.89
413.216	4.03
413.422	4.04
413.628	3.96
413.834	3.7
414.04	3.74
414.246	3.8
414.452	3.77
414.658	3.77
414.864	3.93
415.07	3.82
415.275	3.82
415.481	3.91
415.687	3.86
415.893	3.91
416.099	3.87
416.305	3.82
416.511	3.83
416.716	3.85
416.922	3.82
417.128	3.76
417.334	3.81
417.539	3.76
417.745	3.64
417.951	3.62
418.157	3.57
418.362	3.59
418.568	3.57
418.774	3.53
418.979	3.53
419.185	3.63
419.391	3.65
419.596	3.58
419.802	3.62
420.008	3.61
420.213	3.5
420.419	3.63
420.624	3.62
420.83	3.58
421.035	3.49
421.241	3.57
421.446	3.46
421.652	3.43
421.857	3.51
422.063	3.52
422.268	3.51
422.474	3.63
422.679	3.54
422.885	3.54
423.09	3.51
423.295	3.57
423.501	3.5
423.706	3.61
423.911	3.53
424.117	3.41
424.322	3.4
424.527	3.47
424.733	3.46
424.938	3.46
425.143	3.46
425.349	3.45
425.554	3.48
425.759	3.55
425.964	3.52
426.169	3.57
426.375	3.54
426.58	3.5
426.785	3.48
426.99	3.46
427.195	3.27
427.4	3.21
427.605	3.3
427.811	3.33
428.016	3.26
428.221	3.29
428.426	3.3
428.631	3.27
428.836	3.44
429.041	3.38
429.246	3.39
429.451	3.51
429.656	3.53
429.861	3.54
430.066	3.53
430.271	3.61
430.476	3.53
430.681	3.52
430.886	3.64
431.09	3.57
431.295	3.54
431.5	3.56
431.705	3.49
431.91	3.53
432.115	3.48
432.32	3.52
432.524	3.54
432.729	3.56
432.934	3.55
433.139	3.5
433.343	3.53
433.548	3.55
433.753	3.5
433.958	3.64
434.162	3.6
434.367	3.69
434.572	3.66
434.776	3.54
434.981	3.67
435.186	3.74
435.39	3.73
435.595	3.76
435.799	3.89
436.004	3.86
436.209	3.81
436.413	3.75
436.618	3.67
436.822	3.66
437.027	3.77
437.231	3.68
437.436	3.66
437.64	3.68
437.845	3.59
438.049	3.49
438.253	3.47
438.458	3.49
438.662	3.57
438.867	3.59
439.071	3.57
439.275	3.51
439.48	3.46
439.684	3.4
439.888	3.38
440.093	3.38
440.297	3.36
440.501	3.37
440.706	3.38
440.91	3.35
441.114	3.32
441.318	3.26
441.523	3.25
441.727	3.28
441.931	3.29
442.135	3.28
442.339	3.3
442.543	3.25
442.748	3.24
442.952	3.3
443.156	3.23
443.36	3.3
443.564	3.42
443.768	3.38
443.972	3.33
444.176	3.33
444.38	3.31
444.584	3.32
444.788	3.32
444.992	3.34
445.196	3.28
445.4	3.31
445.604	3.29
445.808	3.21
446.012	3.2
446.216	3.23
446.42	3.23
446.624	3.25
446.828	3.18
447.032	3.23
447.235	3.23
447.439	3.19
447.643	3.17
447.847	3.17
448.051	3.17
448.254	3.18
448.458	3.17
448.662	3.16
448.866	3.11
449.069	3.17
449.273	3.15
449.477	3.16
449.681	3.08
449.884	3.08
450.088	3.01
450.292	2.9
450.495	2.98
450.699	3.15
450.902	3.21
451.106	3.28
451.31	3.29
451.513	3.25
451.717	3.29
451.92	3.42
452.124	3.45
452.327	3.42
452.531	3.62
452.734	3.55
452.938	3.42
453.141	3.25
453.345	3.26
453.548	3.16
453.752	3.3
453.955	3.29
454.158	3.16
454.362	3.2
454.565	3.21
454.769	3.1
454.972	3.16
455.175	3.21
455.379	3.31
455.582	3.28
455.785	3.37
455.988	3.29
456.192	3.22
456.395	3.24
456.598	3.21
456.801	3.24
457.005	3.23
457.208	3.2
457.411	3.18
457.614	3.17
457.817	3.16
458.021	3.19
458.224	3.14
458.427	3.05
458.63	3.1
458.833	3.06
459.036	3.07
459.239	3.07
459.442	3.03
459.645	2.99
459.848	2.97
460.051	2.94
460.254	2.9
460.457	2.89
460.66	3.06
460.863	3
461.066	3.05
461.269	2.98
461.472	3.05
461.675	3.08
461.878	3.07
462.081	3.15
462.284	3.16
462.486	3.16
462.689	3.19
462.892	3.11
463.095	3.15
463.298	3.17
463.5	3.27
463.703	3.2
463.906	3.14
464.109	3.15
464.311	3.19
464.514	3.29
464.717	3.31
464.92	3.42
465.122	3.47
465.325	3.51
465.528	3.51
465.73	3.41
465.933	3.47
466.135	3.52
466.338	3.53
466.541	3.39
466.743	3.36
466.946	3.27
467.148	3.21
467.351	3.12
467.553	3.1
467.756	3.09
467.958	3.18
468.161	3.1
468.363	3.06
468.566	3.13
468.768	3.18
468.971	3.23
469.173	3.32
469.375	3.34
469.578	3.4
469.78	3.42
469.983	3.37
470.185	3.38
470.387	3.34
470.59	3.45
470.792	3.37
470.994	3.46
471.196	3.43
471.399	3.36
471.601	3.36
471.803	3.35
472.005	3.38
472.208	3.33
472.41	3.31
472.612	3.39
472.814	3.39
473.016	3.35
473.218	3.2
473.421	3.12
473.623	3.13
473.825	3.09
474.027	3.05
474.229	3.06
474.431	3.12
474.633	3.12
474.835	3.12
475.037	3.06
475.239	3.21
475.441	3.27
475.643	3.37
475.845	3.43
476.047	3.37
476.249	3.46
476.451	3.41
476.653	3.46
476.855	3.39
477.057	3.35
477.258	3.37
477.46	3.28
477.662	3.29
477.864	3.21
478.066	3.18
478.268	3.27
478.469	3.22
478.671	3.16
478.873	3.15
479.075	3.21
479.276	3.22
479.478	3.21
479.68	3.23
479.882	3.27
480.083	3.28
480.285	3.3
480.487	3.26
480.688	3.27
480.89	3.27
481.091	3.25
481.293	3.23
481.495	3.23
481.696	3.17
481.898	3.17
482.099	3.16
482.301	3.15
482.502	3.13
482.704	3.12
482.905	3.11
483.107	3.11
483.308	3.1
483.51	3.1
483.711	3.1
483.913	3.15
484.114	3.14
484.315	3.16
484.517	3.17
484.718	3.18
484.92	3.18
485.121	3.2
485.322	3.21
485.524	3.17
485.725	3.15
485.926	3.17
486.127	3.16
486.329	3.16
486.53	3.12
486.731	3.1
486.932	3.12
487.134	3.13
487.335	3.13
487.536	3.12
487.737	3.18
487.938	3.2
488.139	3.19
488.341	3.19
488.542	3.24
488.743	3.24
488.944	3.27
489.145	3.28
489.346	3.28
489.547	3.29
489.748	3.29
489.949	3.31
490.15	3.29
490.351	3.3
490.552	3.26
490.753	3.25
490.954	3.25
491.155	3.22
491.356	3.19
491.557	3.21
491.758	3.18
491.959	3.23
492.159	3.24
492.36	3.26
492.561	3.26
492.762	3.34
492.963	3.35
493.164	3.41
493.364	3.48
493.565	3.56
493.766	3.52
493.967	3.58
494.167	3.55
494.368	3.57
494.569	3.53
494.769	3.47
494.97	3.52
495.171	3.47
495.371	3.44
495.572	3.44
495.773	3.44
495.973	3.43
496.174	3.42
496.375	3.48
496.575	3.39
496.776	3.38
496.976	3.45
497.177	3.44
497.377	3.47
497.578	3.46
497.778	3.39
497.979	3.43
498.179	3.48
498.38	3.53
498.58	3.51
498.78	3.56
498.981	3.62
499.181	3.57
499.382	3.6
499.582	3.53
499.782	3.56
499.983	3.66
500.183	3.62
500.383	3.67
500.584	3.62
500.784	3.7
500.984	3.64
501.184	3.55
501.385	3.68
501.585	3.61
501.785	3.66
501.985	3.62
502.185	3.6
502.386	3.54
502.586	3.47
502.786	3.52
502.986	3.48
503.186	3.59
503.386	3.67
503.586	3.6
503.786	3.67
503.987	3.73
504.187	3.78
504.387	3.84
504.587	3.9
504.787	3.96
504.987	3.9
505.187	3.92
505.387	3.89
505.587	4
505.786	4.03
505.986	4
506.186	4.11
506.386	4.14
506.586	4.21
506.786	4.21
506.986	4.21
507.186	4.21
507.386	4.22
507.585	4.26
507.785	4.26
507.985	4.28
508.185	4.33
508.384	4.26
508.584	4.3
508.784	4.24
508.984	4.23
509.183	4.19
509.383	4.24
509.583	4.24
509.782	4.28
509.982	4.31
510.182	4.3
510.381	4.31
510.581	4.31
510.781	4.33
510.98	4.38
511.18	4.42
511.379	4.45
511.579	4.45
511.778	4.46
511.978	4.41
512.177	4.39
512.377	4.46
512.576	4.52
512.776	4.52
512.975	4.55
513.175	4.54
513.374	4.64
513.573	4.72
513.773	4.76
513.972	4.73
514.172	4.75
514.371	4.73
514.57	4.7
514.77	4.66
514.969	4.69
515.168	4.6
515.367	4.62
515.567	4.6
515.766	4.63
515.965	4.63
516.164	4.62
516.364	4.58
516.563	4.58
516.762	4.6
516.961	4.63
517.16	4.67
517.359	4.75
517.559	4.77
517.758	4.74
517.957	4.76
518.156	4.79
518.355	4.87
518.554	4.97
518.753	5.03
518.952	5.06
519.151	5.07
519.35	5.08
519.549	5.06
519.748	5.02
519.947	5.05
520.146	5.03
520.345	5.06
520.544	5.03
520.743	5
520.942	4.94
521.141	4.95
521.339	4.88
521.538	4.96
521.737	4.98
521.936	5.04
522.135	5.03
522.333	5
522.532	5
522.731	5.06
522.93	5.07
523.129	5.2
523.327	5.22
523.526	5.32
523.725	5.29
523.923	5.32
524.122	5.35
524.321	5.39
524.519	5.44
524.718	5.46
524.917	5.43
525.115	5.53
525.314	5.5
525.512	5.54
525.711	5.54
525.909	5.53
526.108	5.51
526.306	5.5
526.505	5.53
526.703	5.56
526.902	5.55
527.1	5.58
527.299	5.55
527.497	5.57
527.696	5.55
527.894	5.55
528.092	5.57
528.291	5.61
528.489	5.65
528.688	5.65
528.886	5.66
529.084	5.67
529.283	5.66
529.481	5.65
529.679	5.66
529.877	5.74
530.076	5.76
530.274	5.78
530.472	5.83
530.67	5.83
530.869	5.84
531.067	5.83
531.265	5.91
531.463	5.96
531.661	6.02
531.859	6.01
532.057	6
532.255	6.04
532.454	6.05
532.652	6.05
532.85	6.01
533.048	6.07
533.246	6.11
533.444	6.08
533.642	6.1
533.84	6.11
534.038	6.14
534.236	6.13
534.434	6.13
534.632	6.18
534.83	6.16
535.027	6.26
535.225	6.23
535.423	6.35
535.621	6.41
535.819	6.43
536.017	6.43
536.215	6.46
536.412	6.5
536.61	6.56
536.808	6.51
537.006	6.58
537.203	6.62
537.401	6.65
537.599	6.54
537.797	6.55
537.994	6.48
538.192	6.55
538.39	6.6
538.587	6.62
538.785	6.63
538.983	6.7
539.18	6.71
539.378	6.68
539.575	6.65
539.773	6.71
539.97	6.7
540.168	6.8
540.366	6.84
540.563	6.82
540.761	6.85
540.958	6.85
541.155	6.82
541.353	6.85
541.55	6.87
541.748	6.94
541.945	6.87
542.143	6.9
542.34	6.88
542.537	6.85
542.735	6.9
542.932	6.92
543.129	7
543.327	7.09
543.524	7.12
543.721	7.06
543.919	7.08
544.116	7.25
544.313	7.29
544.51	7.28
544.708	7.32
544.905	7.35
545.102	7.41
545.299	7.4
545.496	7.4
545.693	7.42
545.891	7.52
546.088	7.63
546.285	7.69
546.482	7.81
546.679	7.88
546.876	8.01
547.073	7.99
547.27	8.02
547.467	8.08
547.664	8.17
547.861	8.23
548.058	8.3
548.255	8.28
548.452	8.26
548.649	8.17
548.846	8.2
549.043	8.15
549.24	8.27
549.437	8.3
549.633	8.27
549.83	8.2
550.027	8.24
550.224	8.27
550.421	8.26
550.618	8.32
550.814	8.41
551.011	8.37
551.208	8.43
551.405	8.45
551.601	8.46
551.798	8.58
551.995	8.67
552.191	8.67
552.388	8.74
552.585	8.88
552.781	8.91
552.978	8.95
553.175	9.06
553.371	9.06
553.568	9.09
553.764	9.18
553.961	9.23
554.157	9.28
554.354	9.28
554.55	9.34
554.747	9.26
554.943	9.28
555.14	9.26
555.336	9.21
555.533	9.34
555.729	9.43
555.926	9.48
556.122	9.43
556.318	9.44
556.515	9.58
556.711	9.51
556.907	9.49
557.104	9.49
557.3	9.53
557.496	9.68
557.693	9.74
557.889	9.78
558.085	9.69
558.281	9.76
558.478	9.95
558.674	10.01
558.87	10.17
559.066	10.33
559.262	10.37
559.459	10.45
559.655	10.48
559.851	10.5
560.047	10.5
560.243	10.63
560.439	10.64
560.635	10.55
560.831	10.57
561.027	10.68
561.223	10.65
561.419	10.71
561.615	10.81
561.811	10.96
562.007	10.96
562.203	11.02
562.399	11.08
562.595	11.23
562.791	11.39
562.987	11.41
563.183	11.39
563.379	11.45
563.575	11.47
563.771	11.48
563.966	11.41
564.162	11.42
564.358	11.42
564.554	11.57
564.75	11.55
564.945	11.58
565.141	11.6
565.337	11.58
565.533	11.65
565.728	11.73
565.924	11.8
566.12	11.88
566.315	11.91
566.511	12.01
566.707	11.95
566.902	12.06
567.098	12.14
567.293	12.25
567.489	12.36
567.684	12.41
567.88	12.4
568.076	12.43
568.271	12.48
568.467	12.53
568.662	12.61
568.858	12.68
569.053	12.67
569.248	12.59
569.444	12.59
569.639	12.62
569.835	12.65
570.03	12.71
570.225	12.66
570.421	12.71
570.616	12.79
570.812	12.75
571.007	12.75
571.202	12.74
571.397	12.82
571.593	12.84
571.788	12.89
571.983	12.94
572.178	13.05
572.374	13.22
572.569	13.19
572.764	13.17
572.959	13.26
573.154	13.35
573.35	13.46
573.545	13.43
573.74	13.46
573.935	13.46
574.13	13.47
574.325	13.44
574.52	13.47
574.715	13.57
574.91	13.68
575.105	13.64
575.3	13.73
575.495	13.8
575.69	13.97
575.885	14.09
576.08	14.2
576.275	14.26
576.47	14.28
576.665	14.18
576.86	14.23
577.055	14.31
577.25	14.44
577.444	14.28
577.639	14.3
577.834	14.29
578.029	14.26
578.224	14.15
578.418	14.28
578.613	14.39
578.808	14.47
579.003	14.53
579.197	14.56
579.392	14.45
579.587	14.73
579.781	14.78
579.976	14.79
580.171	14.89
580.365	14.92
580.56	14.93
580.755	14.97
580.949	15.04
581.144	14.97
581.338	14.89
581.533	15.02
581.727	14.8
581.922	14.79
582.116	14.8
582.311	14.79
582.505	15.06
582.7	15.05
582.894	14.98
583.089	14.88
583.283	14.81
583.478	14.89
583.672	14.9
583.866	14.93
584.061	14.96
584.255	14.86
584.449	14.86
584.644	14.75
584.838	14.66
585.032	14.57
585.226	14.65
585.421	14.77
585.615	14.74
585.809	14.78
586.003	14.98
586.198	14.97
586.392	15.13
586.586	15.17
586.78	15.2
586.974	15.36
587.168	15.54
587.363	15.62
587.557	15.78
587.751	15.81
587.945	15.89
588.139	15.97
588.333	16.09
588.527	16.13
588.721	16.14
588.915	16.16
589.109	16.12
589.303	16.08
589.497	16.02
589.691	15.95
589.885	16.01
590.079	15.99
590.273	15.93
590.466	15.81
590.66	15.72
590.854	15.7
591.048	15.7
591.242	15.69
591.436	15.81
591.629	15.96
591.823	16.04
592.017	16.04
592.211	16.08
592.404	16.09
592.598	16.27
592.792	16.49
592.986	16.64
593.179	16.64
593.373	16.77
593.567	16.72
593.76	16.76
593.954	16.72
594.147	16.67
594.341	16.64
594.535	16.72
594.728	16.71
594.922	16.63
595.115	16.61
595.309	16.69
595.502	16.67
595.696	16.68
595.889	16.65
596.083	16.63
596.276	16.59
596.47	16.65
596.663	16.59
596.856	16.55
597.05	16.61
597.243	16.65
597.437	16.68
597.63	16.73
597.823	16.86
598.017	16.96
598.21	17.04
598.403	17.21
598.596	17.26
598.79	17.22
598.983	17.3
599.176	17.14
599.369	17.09
599.563	17.08
599.756	17.15
599.949	17.13
600.142	17.07
600.335	17.16
600.528	17.19
600.722	17.24
600.915	17.23
601.108	17.06
601.301	17.1
601.494	17.12
601.687	17.03
601.88	17.01
602.073	17
602.266	17.06
602.459	17.06
602.652	17.13
602.845	17.15
603.038	17.28
603.231	17.36
603.424	17.47
603.617	17.44
603.809	17.54
604.002	17.53
604.195	17.52
604.388	17.56
604.581	17.62
604.774	17.56
604.966	17.46
605.159	17.41
605.352	17.41
605.545	17.48
605.737	17.66
605.93	17.77
606.123	17.84
606.316	17.84
606.508	17.89
606.701	17.72
606.894	17.79
607.086	17.93
607.279	17.91
607.471	17.99
607.664	17.82
607.857	17.72
608.049	17.74
608.242	17.75
608.434	17.84
608.627	17.78
608.819	17.82
609.012	17.81
609.204	17.77
609.397	17.9
609.589	17.88
609.782	18.08
609.974	18.03
610.166	17.93
610.359	17.9
610.551	17.93
610.743	17.95
610.936	18.02
611.128	17.99
611.32	18.07
611.513	17.94
611.705	17.91
611.897	17.65
612.09	17.73
612.282	17.78
612.474	17.85
612.666	17.77
612.858	17.9
613.051	17.88
613.243	17.93
613.435	17.87
613.627	18.02
613.819	18.26
614.011	18.44
614.203	18.48
614.395	18.5
614.588	18.44
614.78	18.46
614.972	18.2
615.164	18.26
615.356	18.4
615.548	18.51
615.74	18.53
615.932	18.33
616.124	18.18
616.315	18.3
616.507	18.27
616.699	18.28
616.891	18.25
617.083	18.33
617.275	18.53
617.467	18.48
617.659	18.53
617.85	18.51
618.042	18.56
618.234	18.82
618.426	18.71
618.618	18.8
618.809	18.73
619.001	18.76
619.193	18.8
619.384	18.54
619.576	18.56
619.768	18.56
619.959	18.46
620.151	18.58
620.343	18.31
620.534	18.19
620.726	18.21
620.917	18.38
621.109	18.39
621.301	18.61
621.492	18.59
621.684	18.66
621.875	18.55
622.067	18.53
622.258	18.42
622.45	18.65
622.641	18.73
622.832	18.84
623.024	18.91
623.215	18.91
623.407	18.6
623.598	18.7
623.789	18.67
623.981	18.63
624.172	18.64
624.363	18.66
624.555	18.76
624.746	18.97
624.937	18.69
625.129	18.5
625.32	18.53
625.511	18.66
625.702	18.75
625.893	18.75
626.085	18.84
626.276	18.88
626.467	18.88
626.658	18.85
626.849	18.66
627.04	18.87
627.231	18.87
627.422	18.91
627.614	18.89
627.805	18.85
627.996	19.04
628.187	19
628.378	18.94
628.569	18.9
628.76	18.88
628.951	19.05
629.142	19.17
629.332	19.44
629.523	19.49
629.714	19.59
629.905	19.54
630.096	19.41
630.287	19.57
630.478	19.8
630.669	20.02
630.859	19.97
631.05	20.02
631.241	20.03
631.432	19.76
631.623	19.72
631.813	19.65
632.004	19.76
632.195	19.83
632.385	19.56
632.576	19.49
632.767	19.42
632.957	19.52
633.148	19.47
633.339	19.42
633.529	19.5
633.72	19.41
633.91	19.31
634.101	19.12
634.292	18.97
634.482	19.11
634.673	19.1
634.863	19.1
635.054	18.97
635.244	18.9
635.435	18.9
635.625	19
635.815	19.14
636.006	19.34
636.196	19.51
636.387	19.71
636.577	19.68
636.767	19.75
636.958	19.69
637.148	19.68
637.338	19.6
637.529	19.38
637.719	19.35
637.909	19.33
638.099	19.39
638.29	19.37
638.48	19.4
638.67	19.52
638.86	19.6
639.05	19.78
639.241	19.86
639.431	20.03
639.621	20.22
639.811	20.21
640.001	20.18
640.191	20.29
640.381	20.19
640.571	20.16
640.761	20.19
640.951	20.01
641.141	19.94
641.331	19.91
641.521	19.96
641.711	20.16
641.901	20.15
642.091	20.27
642.281	20.16
642.471	20.4
642.661	20.29
642.851	20.12
643.041	20.18
643.231	20.33
643.42	20.42
643.61	20.21
643.8	20.21
643.99	20.22
644.18	20.03
644.369	19.81
644.559	19.75
644.749	19.77
644.939	19.95
645.128	20
645.318	19.84
645.508	19.74
645.697	19.82
645.887	19.75
646.076	19.79
646.266	20.03
646.456	20.2
646.645	20.2
646.835	20.42
647.024	20.27
647.214	20.04
647.403	19.92
647.593	20.15
647.782	20.09
647.972	20.08
648.161	20.04
648.351	19.99
648.54	19.92
648.73	19.99
648.919	19.89
649.108	20.02
649.298	20.12
649.487	20.21
649.677	20.18
649.866	20.34
650.055	20.34
650.244	20.44
650.434	20.52
650.623	20.74
650.812	20.75
651.002	20.6
651.191	20.62
651.38	20.63
651.569	20.89
651.758	20.82
651.947	20.94
652.137	20.96
652.326	20.82
652.515	20.92
652.704	20.73
652.893	20.57
653.082	20.7
653.271	20.6
653.46	20.73
653.649	20.67
653.838	20.75
654.027	20.84
654.216	20.62
654.405	20.84
654.594	20.74
654.783	20.98
654.972	20.99
655.161	20.89
655.35	20.81
655.539	20.98
655.728	20.82
655.916	20.95
656.105	20.79
656.294	20.95
656.483	20.87
656.672	20.96
656.86	21.04
657.049	21.15
657.238	21.17
657.427	21.23
657.615	21.12
657.804	21.16
657.993	21.03
658.181	21.01
658.37	21.05
658.559	21.24
658.747	21.23
658.936	21.1
659.125	21.13
659.313	21.15
659.502	21.32
659.69	21.36
659.879	21.55
660.067	21.62
660.256	21.7
660.444	21.83
660.633	21.82
660.821	21.81
661.01	21.83
661.198	21.87
661.387	21.96
661.575	21.89
661.763	21.76
661.952	21.69
662.14	21.72
662.328	21.35
662.517	21.25
662.705	20.87
662.893	20.86
663.082	20.91
663.27	20.62
663.458	20.68
663.646	20.74
663.834	20.9
664.023	20.82
664.211	20.87
664.399	21.27
664.587	21.27
664.775	21.43
664.963	21.42
665.152	21.47
665.34	21.95
665.528	21.77
665.716	22.19
665.904	22.41
666.092	22.7
666.28	22.5
666.468	22.44
666.656	22.59
666.844	22.68
667.032	22.86
667.22	22.35
667.408	22.18
667.596	22.33
667.784	21.99
667.971	21.8
668.159	21.59
668.347	21.76
668.535	21.88
668.723	21.72
668.911	21.75
669.098	21.54
669.286	22.11
669.474	22.07
669.662	22.04
669.849	21.91
670.037	21.84
670.225	21.77
670.413	21.68
670.6	21.76
670.788	21.73
670.976	21.74
671.163	21.95
671.351	21.95
671.538	22.23
671.726	22.2
671.913	22.27
672.101	22.26
672.289	22.34
672.476	22.35
672.664	22.14
672.851	22.18
673.039	22.04
673.226	21.76
673.413	21.57
673.601	21.39
673.788	21.46
673.976	21.54
674.163	21.82
674.35	21.98
674.538	22.08
674.725	22.32
674.912	22.35
675.1	22.66
675.287	22.77
675.474	23.09
675.662	23.33
675.849	23.07
676.036	23.15
676.223	23.02
676.411	23
676.598	22.91
676.785	22.8
676.972	22.58
677.159	22.75
677.346	22.76
677.533	22.31
677.721	22.19
677.908	22.65
678.095	22.75
678.282	22.61
678.469	22.67
678.656	22.74
678.843	22.76
679.03	23.14
679.217	22.9
679.404	23.13
679.591	23.22
679.778	23.17
679.964	22.95
680.151	22.56
680.338	22.36
680.525	22.05
680.712	22.1
680.899	22.05
681.086	21.69
681.272	21.47
681.459	21.23
681.646	21.29
681.833	21.44
682.02	21.52
682.206	21.97
682.393	22.32
682.58	22.46
682.766	22.42
682.953	22.51
683.14	22.91
683.326	23.35
683.513	23.58
683.7	23.79
683.886	23.67
684.073	23.54
684.259	23.52
684.446	23.58
684.632	23.65
684.819	23.72
685.005	23.81
685.192	23.74
685.378	23.48
685.565	23.32
685.751	23.34
685.938	23.42
686.124	23.64
686.31	23.27
686.497	23.19
686.683	23.19
686.87	23.3
687.056	23.37
687.242	23.65
687.429	23.62
687.615	23.69
687.801	23.62
687.987	23.74
688.174	23.52
688.36	23.85
688.546	23.87
688.732	23.78
688.918	23.66
689.105	23.38
689.291	23.01
689.477	23.09
689.663	23.01
689.849	22.86
690.035	22.59
690.221	22.93
690.407	22.92
690.593	22.88
690.779	23.11
690.965	23.21
691.151	23.51
691.337	23.48
691.523	23.29
691.709	23.45
691.895	23.33
692.081	23.4
692.267	23.14
692.453	22.93
692.639	23
692.825	22.65
693.011	22.59
693.196	22.25
693.382	22.58
693.568	22.71
693.754	22.47
693.94	22.89
694.125	22.78
694.311	22.77
694.497	23.26
694.682	23.32
694.868	23.88
695.054	23.65
695.239	24.11
695.425	24.18
695.611	24.33
695.796	24.58
695.982	24.54
696.168	24.36
696.353	24.38
696.539	24.3
696.724	24.46
696.91	23.98
697.095	24.14
697.281	23.84
697.466	23.71
697.652	23.48
697.837	23.3
698.023	23.24
698.208	23.36
698.393	23.17
698.579	23.11
698.764	23.11
698.949	23.11
699.135	23.17
699.32	23.36
699.505	23.31
699.691	23.83
699.876	23.87
700.061	23.84
700.246	23.95
700.432	24.14
700.617	24.14
700.802	23.88
700.987	24.03
701.172	24.01
701.358	23.71
701.543	23.8
701.728	23.72
701.913	23.82
702.098	23.94
702.283	24.04
702.468	24.02
702.653	23.89
702.838	23.84
703.023	23.95
703.208	23.8
703.393	24.12
703.578	23.94
703.763	23.71
703.948	23.92
704.133	23.95
704.318	23.66
704.503	24.11
704.688	24.24
704.873	24.35
705.057	24.65
705.242	24.77
705.427	24.7
705.612	24.68
705.797	24.45
705.981	24.44
706.166	24.35
706.351	24.75
706.536	24.59
706.72	24.79
706.905	24.79
707.09	24.58
707.274	24.4
707.459	24.58
707.644	24.73
707.828	25.09
708.013	24.98
708.197	24.87
708.382	25.07
708.567	25.34
708.751	25.08
708.936	25.42
709.12	25.61
709.305	25.52
709.489	25.45
709.673	25.23
709.858	25.17
710.042	25.19
710.227	25.25
710.411	24.94
710.596	24.77
710.78	24.76
710.964	24.76
711.149	24.71
711.333	25.14
711.517	25.21
711.702	25.11
711.886	25.1
712.07	24.94
712.254	24.93
712.438	25.06
712.623	25.19
712.807	25.21
712.991	24.94
713.175	24.45
713.359	24.59
713.544	24.61
713.728	24.74
713.912	24.61
714.096	24.65
714.28	24.55
714.464	24.41
714.648	23.99
714.832	23.99
715.016	24.09
715.2	24.36
715.384	23.89
715.568	24.02
715.752	24.31
715.936	24.51
716.12	24.45
716.304	24.42
716.488	24.82
716.671	25.3
716.855	25.47
717.039	25.18
717.223	24.85
717.407	24.97
717.59	24.67
717.774	24.47
717.958	24.4
718.142	24.55
718.325	24.88
718.509	24.76
718.693	24.46
718.877	24.05
719.06	24.39
719.244	24.92
719.428	24.99
719.611	24.94
719.795	24.89
719.978	24.93
720.162	24.74
720.345	25.03
720.529	24.98
720.713	25.05
720.896	25.56
721.08	25.98
721.263	26.29
721.446	26.39
721.63	26.99
721.813	27.04
721.997	27.1
722.18	27.31
722.364	26.82
722.547	26.27
722.73	26.13
722.914	25.81
723.097	25.29
723.28	25.17
723.464	25.09
723.647	24.76
723.83	24.65
724.013	24.61
724.197	24.64
724.38	24.39
724.563	24.47
724.746	25.01
724.929	25.17
725.112	25.36
725.296	25.18
725.479	25.4
725.662	24.97
725.845	25.04
726.028	24.94
726.211	25.13
726.394	25.46
726.577	25.46
726.76	25.15
726.943	24.91
727.126	24.81
727.309	24.8
727.492	24.58
727.675	24.82
727.858	24.99
728.041	24.91
728.224	25.02
728.407	25.09
728.589	25.01
728.772	24.61
728.955	24.64
729.138	24.47
729.321	24.28
729.503	24.15
729.686	23.97
729.869	24.1
730.052	24.21
730.234	24.15
730.417	23.83
730.6	24.59
730.782	24.67
730.965	25.05
731.148	25.19
731.33	25.52
731.513	25.38
731.695	25.94
731.878	26.25
732.061	26.59
732.243	26.24
732.426	26.55
732.608	26.47
732.791	26.73
732.973	26.93
733.156	26.91
733.338	26.78
733.52	27.22
733.703	27.02
733.885	26.39
734.068	26.14
734.25	26.33
734.432	26.16
734.615	25.47
734.797	25.65
734.979	25.06
735.162	25.54
735.344	25.85
735.526	25.93
735.708	25.91
735.891	26.03
736.073	25.34
736.255	25.6
736.437	25.63
736.619	26.44
736.802	26.17
736.984	26.2
737.166	25.67
737.348	25.82
737.53	26.09
737.712	26.05
737.894	25.77
738.076	26.39
738.258	26.14
738.44	26.45
738.622	26.23
738.804	26.55
738.986	26.5
739.168	26.45
739.35	26
739.532	25.72
739.714	25.65
739.896	26.37
740.078	26.32
740.259	26.2
740.441	26.02
740.623	25.6
740.805	25.6
740.987	25.49
741.168	25.64
741.35	26.23
741.532	26.21
741.714	26.27
741.895	25.78
742.077	26.42
742.259	27.02
742.44	27.15
742.622	27.19
742.804	26.94
742.985	27.26
743.167	27.45
743.348	26.78
743.53	26.59
743.711	26.35
743.893	26.66
744.075	25.91
744.256	25.99
744.438	25.93
744.619	25.6
744.8	25.55
744.982	25.87
745.163	26.28
745.345	26.63
745.526	26.77
745.707	27.31
745.889	27.76
746.07	28.03
746.252	27.22
746.433	27.58
746.614	27.75
746.795	27.96
746.977	27.66
747.158	27.38
747.339	27.17
747.52	27.22
747.702	27.21
747.883	26.57
748.064	26.49
748.245	26.82
748.426	26.06
748.607	26.19
748.788	26.21
748.97	25.72
749.151	24.92
749.332	25.14
749.513	25.51
749.694	24.73
749.875	24.7
750.056	25.02
750.237	24.92
750.418	24.95
750.599	25.72
750.78	25.7
750.96	26.07
751.141	26.31
751.322	26.03
751.503	25.91
751.684	26.55
751.865	26.88
752.046	26.84
752.226	27.22
752.407	27.75
752.588	26.84
752.769	27.21
752.949	27.55
753.13	28.25
753.311	28.93
753.492	28.04
753.672	27.82
753.853	27.81
754.034	27.55
754.214	27
754.395	26.59
754.575	27.41
754.756	26.59
754.937	26.23
755.117	26
755.298	25.73
755.478	26.14
755.659	26.22
755.839	26.24
756.02	26.05
756.2	26.62
756.381	26.84
756.561	26.5
756.741	27.31
756.922	27.6
757.102	26.79
757.283	26.42
757.463	26.65
757.643	26.83
757.823	26.58
758.004	26.83
758.184	26.14
758.364	26.36
758.545	26.87
758.725	26.45
758.905	26.61
759.085	27.56
759.265	28.21
759.446	28.2
759.626	28.35
759.806	28.44
759.986	28.76
760.166	29.1
760.346	28.9
760.526	28.74
760.706	28.88
760.886	28.24
761.066	28.03
761.246	28.14
761.426	28.06
761.606	27.96
761.786	27.34
761.966	27.09
762.146	26.87
762.326	27.08
762.506	26.75
762.686	26.72
762.866	26.63
763.046	26.06
763.225	25.55
763.405	25.17
763.585	24.68
763.765	25.41
763.945	25.21
764.124	25.5
764.304	25.35
764.484	25.59
764.664	25.44
764.843	25.66
765.023	25.26
765.203	25.57
765.382	26.19
765.562	26.66
765.741	26.04
765.921	26.45
766.101	26.23
766.28	25.74
766.46	25.65
766.639	25.47
766.819	26.01
766.998	27.31
767.178	27.2
767.357	27.15
767.537	26.75
767.716	27.08
767.896	27.15
768.075	27.5
768.254	27.73
768.434	27.57
768.613	27.67
768.792	27.12
768.972	26.74
769.151	26.83
769.33	26.99
769.51	28
769.689	27.42
769.868	27.41
770.047	27.01
770.226	26.8
770.406	26.09
770.585	26.51
770.764	26.81
770.943	27.01
771.122	27.32
771.301	27.02
771.48	26.7
771.66	27.71
771.839	26.91
772.018	26.97
772.197	27.7
772.376	28.28
772.555	28.39
772.734	28.69
772.913	29.03
773.092	28.91
773.271	28.67
773.449	28.07
773.628	28.15
773.807	28.64
773.986	28.46
774.165	28.35
774.344	28.7
774.523	27.95
774.701	27.84
774.88	28.09
775.059	26.99
775.238	28.01
775.417	28.41
775.595	27.96
775.774	27.71
775.953	28.48
776.131	28.99
776.31	29.82
776.489	29.56
776.667	28.62
776.846	28.17
777.025	28.77
777.203	28.23
777.382	27.6
777.56	27.47
777.739	27.86
777.917	27.58
778.096	27.27
778.274	26.16
778.453	25.52
778.631	25.44
778.81	25.28
778.988	25.59
779.166	25.98
779.345	25.53
779.523	25.43
779.702	25.58
779.88	25.09
780.058	24.83
780.237	24.38
780.415	25.97
780.593	26.36
780.771	27.62
780.95	27.91
781.128	28.05
781.306	27.85
781.484	27.67
781.662	28.05
781.841	28.88
782.019	27.8
782.197	28.02
782.375	27.01
782.553	26.8
782.731	26.04
782.909	25.07
783.087	23.65
783.265	25.99
783.443	25.82
783.621	25
783.799	24.64
783.977	26.27
784.155	27.55
784.333	27.46
784.511	28.1
784.689	27.8
784.867	27.89
785.045	28.91
785.223	28
785.4	28.47
785.578	27.93
785.756	27.39
785.934	26.72
786.112	26.65
786.289	27.9
786.467	28.3
786.645	28.58
786.823	29.74
787	29.43
787.178	28.94
787.356	29
787.533	29.61
787.711	29.81
787.889	30.04
788.066	29.61
788.244	30.22
788.421	29.73
788.599	29.58
788.776	28.09
788.954	28.18
789.131	28.86
789.309	29.29
789.486	28.34
789.664	28.55
789.841	27.58
790.019	27.19
790.196	27.56
790.373	27.78
790.551	27.22
790.728	28.71
790.906	28.62
791.083	27.82
791.26	27.65
791.437	29.88
791.615	30.07
791.792	31.29
791.969	31.61
792.146	29.92
792.324	29.71
792.501	30.06
792.678	28.5
792.855	29.17
793.032	28.87
793.209	29.36
793.387	28.46
793.564	28.28
793.741	27.9
793.918	28.08
794.095	29.51
794.272	29.51
794.449	29.91
794.626	30.52
794.803	28.98
794.98	29.73
795.157	27.74
795.334	27.46
795.511	27.14
795.688	26.95
795.864	27
796.041	26.28
796.218	26.75
796.395	26.29
796.572	27.45
796.749	27.94
796.925	27.91
797.102	29.82
797.279	29.93
797.456	30.55
797.632	31.12
797.809	31.01
797.986	31.37
798.162	30.99
798.339	31.81
798.516	30.97
798.692	31.24
798.869	30.96
799.046	29.95
799.222	29.87
799.399	30.07
799.575	30.39
799.752	29.76
799.928	29.32
800.105	29.15
800.281	28.45
800.458	28.34
800.634	29.17
800.811	30.75
800.987	31.52
801.163	31.12
801.34	30.65
801.516	29.84
801.692	30.42
801.869	30.69
802.045	30.51
802.221	30.69
802.398	30.82
802.574	30.61
802.75	29.08
802.926	29.13
803.103	29.11
803.279	29.89
803.455	30.08
803.631	30.8
803.807	30.2
803.983	29.49
804.16	30.54
804.336	30.03
804.512	29.74
804.688	30.64
804.864	30.38
805.04	30.87
805.216	30.43
805.392	31.66
805.568	30.31
805.744	30.02
805.92	31.84
806.096	30.49
806.272	31.27
806.448	31.5
806.623	30.94
806.799	30.49
806.975	31.21
807.151	30.95
807.327	31.16
807.503	31.88
807.678	32.49
807.854	32.08
808.03	31.74
808.206	31.86
808.381	31.37
808.557	31.46
808.733	32.42
808.908	31.85
809.084	31.72
809.26	30.03
809.435	30.44
809.611	31.51
809.787	31.34
809.962	31.96
810.138	31.22
810.313	31.57
810.489	31.57
810.664	30.41
810.84	31.08
811.015	32.12
811.191	32.11
811.366	32.18
811.542	29.9
811.717	30.06
811.892	30.42
812.068	30.71
812.243	30.32
812.419	30.34
812.594	30.84
812.769	30.57
812.944	29.71
813.12	29.81
813.295	30.4
813.47	32.57
813.645	33.73
813.821	32.8
813.996	33.26
814.171	32.27
814.346	32.15
814.521	32.35
814.697	31.68
814.872	31.67
815.047	32.09
815.222	31.51
815.397	30.36
815.572	29.06
815.747	29.65
815.922	28.77
816.097	29.79
816.272	29.23
816.447	29.67
816.622	30.7
816.797	30.08
816.972	29.34
817.147	28.63
817.322	28.82
817.496	29.01
817.671	29.43
817.846	30.49
818.021	30.76
818.196	30.93
818.371	31.55
818.545	30.99
818.72	31.17
818.895	31.56
819.069	31.43
819.244	31.08
819.419	31.16
819.594	30.4
819.768	30.34
819.943	30.12
820.117	29.85
820.292	29.03
820.467	28.68
820.641	28.88
820.816	28.73
820.99	28.43
821.165	28.24
821.339	27.92
821.514	27.72
821.688	27.71
821.863	27.72
822.037	27.92
822.212	27.91
822.386	28.02
822.56	27.69
822.735	27.71
822.909	27.7
823.084	27.95
823.258	28.02
823.432	28.06
823.606	27.58
823.781	27.33
823.955	27.19
824.129	27.12
824.303	27.01
824.478	27.22
824.652	27.06
824.826	27.64
825	27.47
825.174	27.5
825.348	27.62
825.523	28.1
825.697	28.28
825.871	28.15
826.045	28.65
826.219	28.43
826.393	28.51
826.567	28.65
826.741	28.57
826.915	28.15
827.089	27.97
827.263	28.2
827.437	28.12
827.611	28.29
827.784	28.05
827.958	27.81
828.132	28.17
828.306	28.26
828.48	28.37
828.654	28.06
828.827	28.54
829.001	29.22
829.175	28.66
829.349	28.74
829.522	28.55
829.696	28.64
829.87	28.33
830.044	28.27
830.217	27.77
830.391	27.42
830.565	27.05
830.738	26.72
830.912	26.76
831.085	26.98
831.259	27.58
831.432	27.37
831.606	28.2
831.779	27.99
831.953	28.05
832.126	30.14
832.3	30.34
832.473	30.87
832.647	30.91
832.82	30.88
832.994	31.39
833.167	31.13
833.34	31.17
833.514	30.44
833.687	29.86
833.86	30.05
834.034	28.91
834.207	29.1
834.38	28.87
834.553	28.5
834.727	28.24
834.9	28.19
835.073	28.47
835.246	27.99
835.419	28.69
835.593	29.39
835.766	29.5
835.939	29.67
836.112	30.01
836.285	30.29
836.458	31.72
836.631	31.56
836.804	32.15
836.977	32.45
837.15	34.3
837.323	34.2
837.496	34.08
837.669	33.87
837.842	33.72
838.015	34.41
838.188	33.47
838.361	32.59
838.533	33.38
838.706	33.03
838.879	33.04
839.052	32.07
839.225	33.7
839.398	33.9
839.57	34.07
839.743	33.86
839.916	32.43
840.088	32.94
840.261	33.35
840.434	32.62
840.607	32.83
840.779	32.53
840.952	31.13
841.124	29.74
841.297	28.27
841.47	28.3
841.642	29.8
841.815	31.26
841.987	31.15
842.16	30.82
842.332	31.68
842.505	29.78
842.677	27.94
842.85	30.78
843.022	28.81
843.194	30.65
843.367	30.28
843.539	29.47
843.712	27.07
843.884	27.13
844.056	26.32
844.229	25.27
844.401	27.73
844.573	28.63
844.745	27.75
844.918	30.77
845.09	32.56
845.262	33.98
845.434	32.87
845.606	32.48
845.779	32.96
845.951	34.7
846.123	37.53
846.295	38.52
846.467	40.19
846.639	43.59
846.811	43.99
846.983	43.67
847.155	43.43
847.327	44.75
847.499	45.87
847.671	46.26
847.843	44.81
848.015	43.03
848.187	41.5
848.359	41.07
848.531	39.17
848.703	35.2
848.875	34.95
849.047	33.94
849.218	33.13
849.39	30.24
849.562	28.86
849.734	30.22
849.905	30.47
850.077	34.15
850.249	32.33
850.421	31.78
850.592	37.4
850.764	36.09
850.936	36.76
851.107	37.54
851.279	40.49
851.451	39.1
851.622	38.18
851.794	39.52
851.965	33.65
852.137	35.79
852.308	34.77
852.48	33.7
852.651	37.82
852.823	35.98
852.994	37.14
853.166	36.11
853.337	40.51
853.509	41.65
853.68	40.62
853.851	44.01
854.023	39.03
854.194	39.14
854.365	37.37
854.537	33.85
854.708	35.32
854.879	33.2
855.05	38.09
855.222	36.97
855.393	35.01
855.564	31.85
855.735	32.16
855.906	38.58
856.078	37.7
856.249	39.5
856.42	42.77
856.591	46.03
856.762	47.15
856.933	45.08
857.104	47.63
857.275	48.76
857.446	50.1
857.617	50.74
857.788	47.44
857.959	47.71
858.13	47.56
858.301	44.39
858.472	41.41
858.643	43.81
858.814	40.11
858.985	37.35
859.155	39.63
859.326	39.2
859.497	38.2
859.668	35.46
859.839	34.33
860.009	34.29
860.18	35.83
860.351	39.4
860.522	37.58
860.692	42.35
860.863	43.21
861.034	42.09
861.204	41.39
861.375	40.3
861.546	46.19
861.716	50.27
861.887	45.48
862.057	48.01
862.228	42.16
862.398	37.9
862.569	33.2
862.739	35.75
862.91	32.01
863.08	35.6
863.251	36.06
863.421	32.53
863.592	30
863.762	32.11
863.932	27.45
864.103	29.11
864.273	38.58
864.443	39.78
864.614	37.11
864.784	38.02
864.954	34.65
865.125	37.84
865.295	40.45
865.465	40.01
865.635	40.45
865.805	45.22
865.976	47.33
866.146	43.89
866.316	45.4
866.486	47
866.656	49.28
866.826	50.31
866.996	47.89
867.166	46.59
867.336	45.42
867.506	44.36
867.676	34.89
867.846	30.55
868.016	29.56
868.186	31.76
868.356	26.88
868.526	23.13
868.696	22.09
868.866	19.98
869.036	22.84
869.206	20.17
869.376	25.82
869.545	31.34
869.715	36.29
869.885	37.61
870.055	31.74
870.224	38
870.394	41.14
870.564	44.2
870.734	47.23
870.903	46.65
871.073	47.63
871.243	45.3
871.412	46.06
871.582	43.61
871.751	42.9
871.921	47.38
872.091	41.73
872.26	42.68
872.43	38.68
872.599	37.02
872.769	34.01
872.938	36.23
873.108	39.35
873.277	37.2
873.446	36.78
873.616	38.52
873.785	39.38
873.955	40.62
874.124	38.6
874.293	38.25
874.463	37.22
874.632	40.86
874.801	40.03
874.971	39.06
875.14	40.86
875.309	39.32
875.478	39.82
875.647	35.19
875.817	33.88
875.986	34.84
876.155	33.04
876.324	33.26
876.493	32.44
876.662	31.17
876.831	30.05
877	27.16
877.17	25.4
877.339	25.32
877.508	31.26
877.677	29.08
877.846	27.19
878.015	28.94
878.184	31.36
878.352	28.87
878.521	32.12
878.69	31.13
878.859	34.85
879.028	37.22
879.197	34.55
879.366	33.76
879.534	34.28
879.703	35.79
879.872	34.25
880.041	33.08
880.21	33.46
880.378	31.25
880.547	30.09
880.716	28.81
880.884	28.88
881.053	29.48
881.222	28.89
881.39	29.52
881.559	29.38
881.727	30.11
881.896	30.17
882.065	29.95
882.233	30.06
882.402	30.63
882.57	30.92
882.739	31.49
882.907	30.86
883.076	30.88
883.244	30.99
883.412	30.49
883.581	30.88
883.749	30.54
883.918	31.27
884.086	31.37
884.254	31.86
884.423	32.95
884.591	32.36
884.759	34
884.927	33.9
885.096	33.88
885.264	33.63
885.432	33.26
885.6	33.9
885.769	32.05
885.937	32.5
886.105	30.68
886.273	28.73
886.441	27.5
886.609	24.84
886.777	25.27
886.945	24.31
887.113	27.37
887.281	26.9
887.449	27.49
887.617	28.9
887.785	30.03
887.953	32.96
888.121	31.6
888.289	35.33
888.457	36.43
888.625	35.31
888.793	38.51
888.961	35.14
889.129	37.18
889.296	35.99
889.464	37
889.632	35.95
889.8	34.63
889.967	36.28
890.135	33.92
