Data from 2938571_Reflection_3.txt Node
Date: Sun Jun 14 22:04:17 EDT 2015
User: robert
Spectrometer: USB4E03002
Autoset integration time: false
Trigger mode: 4
Integration Time (sec): 1.000000E-1
Scans to average: 10
Electric dark correction enabled: true
Nonlinearity correction enabled: false
Boxcar width: 5
Stray light correction enabled: false
XAxis mode: Wavelengths
Stop averaging: false
Number of Pixels in Spectrum: 3648
>>>>>Begin Spectral Data<<<<<
177.575	13.4
177.794	40.87
178.014	-30.15
178.233	-79.68
178.452	-409.6
178.672	-66750
178.891	-3.35
179.11	100.21
179.33	100.13
179.549	149.74
179.768	208.38
179.987	-42.96
180.207	94.36
180.426	21.15
180.645	9.52
180.864	-14.71
181.084	-9.05
181.303	-12.44
181.522	-242.7
181.741	-13.19
181.96	3095.45
182.179	-1043.48
182.398	72.83
182.618	-22.57
182.837	-17.45
183.056	-14.55
183.275	-28.67
183.494	26.43
183.713	16.41
183.932	-25.8
184.151	-14.91
184.37	-4.31
184.589	8.71
184.808	25.98
185.027	40.56
185.246	41.91
185.465	59.11
185.684	55.45
185.903	-87.17
186.122	256.33
186.341	744.91
186.56	80.52
186.779	26.4
186.998	-3153.62
187.216	-2749.38
187.435	-163.42
187.654	47.32
187.873	63.09
188.092	60.6
188.311	67.03
188.53	95.44
188.748	87.22
188.967	81.97
189.186	80.42
189.405	143.8
189.623	176.42
189.842	142.74
190.061	135.27
190.28	147.07
190.498	115.62
190.717	-1630.89
190.936	158.63
191.154	144.07
191.373	124.19
191.592	165.08
191.81	127.67
192.029	149.26
192.248	82.04
192.466	75.22
192.685	81.44
192.904	91.5
193.122	74.97
193.341	83.73
193.559	52.86
193.778	51.89
193.996	64.35
194.215	84.91
194.433	69.74
194.652	129.52
194.87	71.74
195.089	68.71
195.307	72.44
195.526	55.77
195.744	86.25
195.963	98.65
196.181	109.87
196.399	90.61
196.618	55.82
196.836	146.58
197.055	42.27
197.273	-372.37
197.491	-1158.12
197.71	374.38
197.928	2524.24
198.146	-1465.95
198.365	-559.01
198.583	-560.36
198.801	657
199.019	337.18
199.238	176.34
199.456	127.61
199.674	93.23
199.892	79.06
200.111	65.97
200.329	61.98
200.547	47.5
200.765	25.54
200.983	40.24
201.202	51.56
201.42	86.96
201.638	110.3
201.856	142.81
202.074	99.12
202.292	68.89
202.51	80.76
202.728	163.8
202.946	202.17
203.165	244.28
203.383	54.66
203.601	57.15
203.819	-144.77
204.037	-121.35
204.255	-34.88
204.473	193.88
204.691	74.33
204.909	76.37
205.127	53.35
205.345	43.38
205.562	39.89
205.78	21.44
205.998	0.92
206.216	15.29
206.434	37.43
206.652	40.41
206.87	45.2
207.088	32.79
207.306	45.03
207.523	39.52
207.741	49.08
207.959	119.72
208.177	121.17
208.395	166.97
208.612	152.05
208.83	126.33
209.048	126.31
209.266	157.18
209.483	202.3
209.701	130.61
209.919	136.63
210.136	126.62
210.354	65.99
210.572	51.28
210.79	53.78
211.007	61.4
211.225	33.37
211.442	20.06
211.66	24.52
211.878	38.42
212.095	79.63
212.313	75.79
212.53	82.2
212.748	94.03
212.966	102
213.183	117.72
213.401	120.45
213.618	142.16
213.836	139
214.053	108.69
214.271	90.81
214.488	48.12
214.705	74.31
214.923	-4.78
215.14	-26.53
215.358	-34.44
215.575	-35.1
215.793	-51.81
216.01	-28.98
216.227	-39.52
216.445	-51.47
216.662	-44.13
216.879	-38.94
217.097	-52.07
217.314	-29.86
217.531	-16.64
217.749	-4.07
217.966	-7.42
218.183	5.01
218.4	5.17
218.618	18.33
218.835	6.21
219.052	13.77
219.269	23.18
219.487	20.79
219.704	31.03
219.921	42.41
220.138	40.02
220.355	30.69
220.572	27.03
220.79	27.3
221.007	17.5
221.224	28.86
221.441	23.6
221.658	15.19
221.875	25.13
222.092	33.45
222.309	15.09
222.526	8.16
222.743	17.03
222.96	18.52
223.177	19.34
223.394	17.78
223.611	18.01
223.828	18.95
224.045	20.03
224.262	15.32
224.479	12.7
224.696	16.03
224.913	15.1
225.13	14.16
225.347	14.9
225.564	14.31
225.781	14.33
225.997	15.26
226.214	15.77
226.431	13.73
226.648	13.44
226.865	13.21
227.082	13.25
227.298	13.62
227.515	12.88
227.732	12.82
227.949	12.82
228.165	13.09
228.382	11.74
228.599	11.15
228.816	11.61
229.032	11.49
229.249	12.23
229.466	11.28
229.682	13.52
229.899	13.28
230.116	13.74
230.332	14.57
230.549	15.9
230.765	16.19
230.982	15.09
231.199	15.3
231.415	16.43
231.632	14.53
231.848	15.48
232.065	12.64
232.281	14.67
232.498	12.83
232.714	11.94
232.931	10.54
233.147	11.95
233.364	11.29
233.58	11.59
233.797	10.97
234.013	10.49
234.23	9.85
234.446	10
234.662	9.99
234.879	11.64
235.095	14.5
235.312	12.3
235.528	11.15
235.744	11.56
235.961	11.97
236.177	12.17
236.393	13.28
236.61	13.28
236.826	14.15
237.042	12.26
237.258	9.73
237.475	8.47
237.691	10.21
237.907	10.19
238.123	10.6
238.339	11.25
238.556	10.67
238.772	10.49
238.988	10.37
239.204	9.31
239.42	10.05
239.636	11.03
239.853	11.26
240.069	11.69
240.285	11.9
240.501	11.09
240.717	10.83
240.933	11.06
241.149	10.8
241.365	10.71
241.581	11.42
241.797	11.79
242.013	11.55
242.229	10.71
242.445	10.85
242.661	10.52
242.877	12.31
243.093	12.03
243.309	12.18
243.525	12.11
243.741	12.74
243.957	11.75
244.173	11.02
244.388	10.89
244.604	10.52
244.82	10.05
245.036	9.75
245.252	9.17
245.468	9.31
245.683	9.25
245.899	9.42
246.115	9.34
246.331	9.42
246.547	9.39
246.762	9.4
246.978	9.22
247.194	9.13
247.409	9.43
247.625	9.5
247.841	9.66
248.057	9.59
248.272	9.43
248.488	9.22
248.703	9.11
248.919	8.74
249.135	8.62
249.35	9.32
249.566	9.4
249.782	8.14
249.997	8.18
250.213	8.11
250.428	8.5
250.644	8.73
250.859	8.56
251.075	8.22
251.29	8.59
251.506	8.94
251.721	9.14
251.937	8.84
252.152	9.01
252.368	9.26
252.583	8.64
252.798	7.32
253.014	6.88
253.229	6.02
253.445	7.25
253.66	7.66
253.875	6.72
254.091	6.39
254.306	6.52
254.521	8.02
254.737	6.75
254.952	7.6
255.167	8.25
255.383	8.91
255.598	10.18
255.813	9.34
256.028	9.24
256.244	9.44
256.459	9.81
256.674	10
256.889	9.62
257.104	10.27
257.32	9.86
257.535	9.16
257.75	8.8
257.965	8.4
258.18	8.84
258.395	8.9
258.61	8.53
258.826	8.01
259.041	8.02
259.256	8.08
259.471	7.85
259.686	7.9
259.901	8.68
260.116	8.85
260.331	9.15
260.546	8.76
260.761	8.36
260.976	8.7
261.191	9.17
261.406	9.07
261.621	9.08
261.836	9.32
262.05	9
262.265	8.22
262.48	7.62
262.695	6.61
262.91	6.82
263.125	7.05
263.34	7.81
263.555	7.42
263.769	7.83
263.984	7.45
264.199	7.48
264.414	7.14
264.629	6.96
264.843	7.62
265.058	8.16
265.273	8.29
265.488	8.13
265.702	7.42
265.917	7.35
266.132	6.82
266.346	7.01
266.561	6.44
266.776	6.92
266.99	6.99
267.205	6.43
267.42	6.54
267.634	5.96
267.849	6.04
268.063	6.74
268.278	6.93
268.492	7.16
268.707	6.75
268.922	7.09
269.136	6.94
269.351	6.84
269.565	7.1
269.78	7.28
269.994	7.28
270.209	7.58
270.423	7.02
270.637	6.68
270.852	6.37
271.066	6.67
271.281	6.82
271.495	6.85
271.709	7.2
271.924	6.88
272.138	6.75
272.353	6.99
272.567	6.33
272.781	6.59
272.996	6.75
273.21	6.46
273.424	6.15
273.638	5.65
273.853	5.55
274.067	5.33
274.281	5.85
274.495	5.65
274.71	5.35
274.924	5.87
275.138	5.64
275.352	5.91
275.566	6.72
275.781	7
275.995	7.12
276.209	7.53
276.423	7.69
276.637	7.39
276.851	7.47
277.065	7.81
277.279	7.63
277.493	7.4
277.707	6.66
277.921	6.46
278.135	6.63
278.349	6.41
278.563	5.86
278.777	5.71
278.991	5.61
279.205	5.81
279.419	5.75
279.633	6.22
279.847	6.92
280.061	7.36
280.275	7.2
280.489	7.23
280.703	7.32
280.917	7.09
281.131	7.2
281.344	7.42
281.558	7.43
281.772	7.14
281.986	6.16
282.2	5.46
282.414	5.77
282.627	5.77
282.841	5.54
283.055	5.7
283.269	6.04
283.482	6
283.696	5.56
283.91	5.2
284.123	5.38
284.337	5.87
284.551	6.03
284.764	5.87
284.978	5.88
285.192	6.15
285.405	6
285.619	5.73
285.833	5.75
286.046	6.04
286.26	6.23
286.473	6.13
286.687	6.23
286.9	6.24
287.114	6.63
287.327	6.65
287.541	6.3
287.754	6.41
287.968	6.64
288.181	6.63
288.395	6.81
288.608	6.96
288.822	6.8
289.035	6.47
289.248	6.41
289.462	6.1
289.675	6.17
289.889	6.32
290.102	6.38
290.315	6.4
290.529	6.46
290.742	6.34
290.955	5.89
291.169	5.95
291.382	6.36
291.595	6.55
291.808	6.99
292.022	7.02
292.235	6.75
292.448	6.71
292.661	6.45
292.875	6.41
293.088	6.4
293.301	6.65
293.514	6.5
293.727	6.36
293.94	6.33
294.153	5.79
294.367	5.65
294.58	6.01
294.793	5.69
295.006	5.75
295.219	5.6
295.432	5.79
295.645	5.86
295.858	6.08
296.071	5.9
296.284	6.03
296.497	6.16
296.71	6.32
296.923	6.3
297.136	6.23
297.349	6.44
297.562	6.88
297.775	7.08
297.988	7.36
298.201	7.45
298.414	7.74
298.626	7.42
298.839	7.53
299.052	7.34
299.265	7.51
299.478	7.96
299.691	7.92
299.903	7.64
300.116	7.06
300.329	6.9
300.542	7.27
300.755	7.37
300.967	7.73
301.18	7.93
301.393	8.02
301.605	7.75
301.818	7.95
302.031	8.03
302.243	7.77
302.456	8.22
302.669	8.05
302.881	7.42
303.094	7.31
303.307	7.58
303.519	7.04
303.732	7.06
303.944	7.41
304.157	6.92
304.37	7.16
304.582	7.47
304.795	7.43
305.007	7.46
305.22	7.65
305.432	7.59
305.645	7.44
305.857	7.84
306.069	7.88
306.282	7.27
306.494	7.93
306.707	7.36
306.919	7.1
307.132	6.92
307.344	6.64
307.556	6.63
307.769	6.66
307.981	6.45
308.193	6.28
308.406	6.18
308.618	6.18
308.83	5.78
309.043	5.87
309.255	5.7
309.467	5.95
309.679	6.24
309.892	6.29
310.104	6.28
310.316	6.44
310.528	6.84
310.74	6.76
310.953	6.74
311.165	6.93
311.377	7.14
311.589	7.42
311.801	7.38
312.013	7.36
312.225	7.34
312.437	7.36
312.649	7.4
312.862	6.84
313.074	6.86
313.286	7.21
313.498	7.2
313.71	7.26
313.922	6.87
314.134	6.41
314.346	6.55
314.558	6.82
314.77	7.18
314.982	6.88
315.193	7.42
315.405	7.78
315.617	7.59
315.829	7.68
316.041	7.6
316.253	8.42
316.465	8.42
316.677	7.95
316.888	7.64
317.1	7.73
317.312	8.24
317.524	8.47
317.736	8.71
317.947	8.88
318.159	9.12
318.371	8.67
318.583	8.28
318.794	8.28
319.006	8.52
319.218	8.52
319.43	8.12
319.641	8
319.853	7.54
320.064	7.01
320.276	6.78
320.488	6.31
320.699	6.44
320.911	6.44
321.123	6.9
321.334	6.6
321.546	6.49
321.757	6.49
321.969	6.4
322.18	6.3
322.392	6.31
322.603	6.51
322.815	7.13
323.026	7.56
323.238	7.65
323.449	7.35
323.661	7.32
323.872	7.19
324.083	7.5
324.295	7.4
324.506	7.32
324.718	7.26
324.929	7.02
325.14	6.8
325.352	6.49
325.563	6.34
325.774	6.55
325.986	7.07
326.197	7.36
326.408	6.93
326.62	6.96
326.831	7.08
327.042	7.17
327.253	7.35
327.464	7.23
327.676	7.59
327.887	7.5
328.098	7.15
328.309	7.09
328.52	7.23
328.732	7.47
328.943	7.52
329.154	8.09
329.365	7.8
329.576	7.58
329.787	7.42
329.998	7.45
330.209	7.53
330.42	7.61
330.631	7.31
330.842	6.9
331.053	7.11
331.264	6.84
331.475	6.57
331.686	6.9
331.897	7.47
332.108	7.63
332.319	7.45
332.53	7.9
332.741	7.87
332.952	7.95
333.163	8.55
333.374	8.17
333.585	8.22
333.795	8.04
334.006	7.94
334.217	7.43
334.428	7.22
334.639	7.64
334.849	7.5
335.06	7.68
335.271	7.96
335.482	7.38
335.692	7.01
335.903	7.09
336.114	7.06
336.325	7.01
336.535	7.34
336.746	7.09
336.957	6.37
337.167	6.03
337.378	5.96
337.589	5.83
337.799	5.9
338.01	6.28
338.22	6.35
338.431	6.37
338.642	6.67
338.852	6.26
339.063	6.35
339.273	6.66
339.484	6.77
339.694	6.7
339.905	6.7
340.115	6.64
340.326	6.46
340.536	6.69
340.746	6.85
340.957	6.74
341.167	7.16
341.378	7.5
341.588	7.42
341.799	7.56
342.009	7.29
342.219	7.26
342.43	7.36
342.64	7.51
342.85	6.95
343.061	6.39
343.271	6.38
343.481	5.89
343.691	5.85
343.902	6.04
344.112	5.77
344.322	6.01
344.532	6.31
344.743	6.53
344.953	6.42
345.163	6.55
345.373	6.85
345.583	7.02
345.793	7.26
346.004	6.98
346.214	6.98
346.424	6.9
346.634	6.89
346.844	6.2
347.054	6.22
347.264	6.29
347.474	6.38
347.684	5.9
347.894	5.47
348.104	5.31
348.314	5.58
348.524	5.38
348.734	5.78
348.944	5.65
349.154	5.82
349.364	5.26
349.574	5.62
349.784	5.45
349.994	5.92
350.204	5.83
350.413	6.12
350.623	5.95
350.833	5.49
351.043	5.3
351.253	5.46
351.463	5.61
351.672	5.7
351.882	5.21
352.092	4.99
352.302	5.18
352.511	5.34
352.721	5.21
352.931	5.38
353.141	5.82
353.35	5.53
353.56	5.48
353.77	5.05
353.979	5.35
354.189	5.36
354.399	5.54
354.608	5.37
354.818	5.34
355.027	5.55
355.237	5.46
355.447	5.55
355.656	5.85
355.866	5.88
356.075	6.06
356.285	6.09
356.494	6.31
356.704	6.31
356.913	6.35
357.123	6.34
357.332	5.98
357.542	6.04
357.751	5.64
357.96	5.39
358.17	5.31
358.379	5.6
358.589	5.63
358.798	5.67
359.007	5.71
359.217	5.82
359.426	5.84
359.635	5.98
359.845	6.01
360.054	6.23
360.263	6.45
360.472	6.52
360.682	6.2
360.891	5.95
361.1	5.77
361.309	5.71
361.519	5.61
361.728	5.71
361.937	5.63
362.146	5.41
362.355	5.23
362.564	5.15
362.774	5.09
362.983	5.17
363.192	5.32
363.401	5.46
363.61	5.54
363.819	5.63
364.028	5.65
364.237	5.82
364.446	5.83
364.655	5.92
364.864	5.91
365.073	5.9
365.282	5.8
365.491	5.67
365.7	5.74
365.909	5.8
366.118	5.67
366.327	5.64
366.536	5.7
366.745	5.81
366.954	5.79
367.162	6.01
367.371	5.92
367.58	6.31
367.789	6.16
367.998	5.91
368.207	5.8
368.415	5.73
368.624	5.65
368.833	5.12
369.042	4.82
369.25	4.95
369.459	4.7
369.668	4.5
369.877	4.13
370.085	4.3
370.294	4.33
370.503	4.32
370.711	4.3
370.92	4.36
371.129	4.64
371.337	4.98
371.546	4.8
371.754	4.56
371.963	4.69
372.171	4.86
372.38	4.7
372.589	4.7
372.797	4.62
373.006	4.54
373.214	4.36
373.423	4.09
373.631	3.88
373.84	4.03
374.048	4.27
374.256	4.41
374.465	4.51
374.673	4.77
374.882	4.64
375.09	4.58
375.298	4.5
375.507	4.55
375.715	4.69
375.923	4.78
376.132	4.88
376.34	4.81
376.548	4.87
376.757	4.92
376.965	4.63
377.173	4.79
377.381	4.84
377.59	4.93
377.798	4.77
378.006	4.84
378.214	4.52
378.423	4.11
378.631	4.16
378.839	4.29
379.047	4.21
379.255	4.4
379.463	4.35
379.671	4.42
379.879	4.34
380.088	4.53
380.296	4.52
380.504	4.76
380.712	4.94
380.92	4.86
381.128	4.44
381.336	4.15
381.544	4.04
381.752	3.9
381.96	3.98
382.168	4.12
382.376	4.11
382.584	4.06
382.791	4.02
382.999	4.12
383.207	4.12
383.415	4.33
383.623	4.61
383.831	4.65
384.039	4.76
384.247	4.54
384.454	4.51
384.662	4.44
384.87	4.57
385.078	4.56
385.285	4.5
385.493	4.6
385.701	4.63
385.909	4.54
386.116	4.54
386.324	4.7
386.532	4.64
386.739	4.66
386.947	4.85
387.155	4.84
387.362	4.96
387.57	5.11
387.778	5.04
387.985	5.02
388.193	5.16
388.4	5.29
388.608	5.22
388.816	5.23
389.023	5.29
389.231	5.06
389.438	5.02
389.646	5.03
389.853	5.02
390.061	5.08
390.268	5.05
390.475	4.93
390.683	4.76
390.89	4.68
391.098	4.76
391.305	4.62
391.512	4.57
391.72	4.53
391.927	4.51
392.135	4.37
392.342	4.3
392.549	4.2
392.756	4.15
392.964	4.12
393.171	4.14
393.378	4.27
393.586	4.2
393.793	4.16
394	4.2
394.207	4.17
394.414	4.2
394.622	4.15
394.829	4.24
395.036	4.04
395.243	4.08
395.45	4.13
395.657	4.05
395.864	3.95
396.072	4.1
396.279	3.86
396.486	3.72
396.693	3.74
396.9	3.9
397.107	3.91
397.314	4.11
397.521	4.1
397.728	3.94
397.935	3.95
398.142	4.17
398.349	4.18
398.556	4.34
398.763	4.62
398.97	4.58
399.177	4.44
399.383	4.07
399.59	4.01
399.797	3.99
400.004	4.27
400.211	4.38
400.418	4.35
400.625	4.3
400.831	4.17
401.038	3.71
401.245	3.65
401.452	3.75
401.658	4.11
401.865	4.01
402.072	4
402.279	3.78
402.485	3.48
402.692	3.51
402.899	3.54
403.105	3.59
403.312	3.8
403.519	3.9
403.725	3.75
403.932	3.62
404.138	3.81
404.345	3.79
404.552	3.74
404.758	3.87
404.965	3.96
405.171	3.88
405.378	3.89
405.584	3.85
405.791	3.77
405.997	3.81
406.204	3.84
406.41	3.8
406.617	4
406.823	3.94
407.029	3.9
407.236	3.79
407.442	3.9
407.649	3.92
407.855	4.03
408.061	4.1
408.268	3.93
408.474	3.85
408.68	3.76
408.887	3.79
409.093	3.95
409.299	3.96
409.505	3.89
409.712	3.74
409.918	3.78
410.124	3.66
410.33	3.69
410.537	3.76
410.743	3.91
410.949	3.86
411.155	3.68
411.361	3.54
411.567	3.52
411.773	3.53
411.98	3.6
412.186	3.4
412.392	3.36
412.598	3.22
412.804	3.34
413.01	3.3
413.216	3.31
413.422	3.2
413.628	3.39
413.834	3.46
414.04	3.54
414.246	3.56
414.452	3.51
414.658	3.55
414.864	3.63
415.07	3.64
415.275	3.61
415.481	3.67
415.687	3.73
415.893	3.68
416.099	3.62
416.305	3.54
416.511	3.58
416.716	3.6
416.922	3.58
417.128	3.49
417.334	3.42
417.539	3.35
417.745	3.29
417.951	3.23
418.157	3.2
418.362	3.24
418.568	3.26
418.774	3.21
418.979	3.16
419.185	3.15
419.391	3.16
419.596	3.14
419.802	3.15
420.008	3.14
420.213	3.05
420.419	3.04
420.624	3.04
420.83	2.97
421.035	2.94
421.241	3.01
421.446	2.94
421.652	2.95
421.857	3.03
422.063	3.04
422.268	3.05
422.474	3.18
422.679	3.19
422.885	3.12
423.09	3.13
423.295	3.08
423.501	3.12
423.706	3.17
423.911	3.15
424.117	3.07
424.322	3.04
424.527	3.06
424.733	3.05
424.938	3
425.143	3.03
425.349	2.97
425.554	3.03
425.759	3
425.964	2.96
426.169	2.95
426.375	2.99
426.58	2.98
426.785	3.05
426.99	3.04
427.195	3
427.4	2.96
427.605	3.03
427.811	3.02
428.016	2.89
428.221	2.91
428.426	2.87
428.631	2.69
428.836	2.79
429.041	2.75
429.246	2.74
429.451	2.87
429.656	2.96
429.861	3
430.066	2.91
430.271	3.03
430.476	3.02
430.681	3.07
430.886	3.24
431.09	3.25
431.295	3.13
431.5	3.17
431.705	3.12
431.91	3.07
432.115	3.06
432.32	3.21
432.524	3.25
432.729	3.25
432.934	3.18
433.139	3.19
433.343	3.19
433.548	3.27
433.753	3.33
433.958	3.32
434.162	3.28
434.367	3.36
434.572	3.25
434.776	3.15
434.981	3.25
435.186	3.31
435.39	3.23
435.595	3.15
435.799	3.21
436.004	3.12
436.209	3.16
436.413	3.16
436.618	3.04
436.822	3.09
437.027	3.22
437.231	3.14
437.436	3.22
437.64	3.26
437.845	3.29
438.049	3.24
438.253	3.19
438.458	3.15
438.662	3.2
438.867	3.23
439.071	3.24
439.275	3.18
439.48	3.18
439.684	3.1
439.888	3.09
440.093	3.06
440.297	2.99
440.501	3
440.706	3.07
440.91	3.03
441.114	3.06
441.318	2.98
441.523	2.9
441.727	2.95
441.931	2.93
442.135	2.92
442.339	2.98
442.543	3
442.748	3.1
442.952	2.97
443.156	3.02
443.36	2.98
443.564	3.07
443.768	3.1
443.972	3.06
444.176	3.11
444.38	3.11
444.584	3.1
444.788	3.1
444.992	3.05
445.196	3.18
445.4	3.19
445.604	3.19
445.808	3.12
446.012	3.07
446.216	3.14
446.42	3.13
446.624	3.17
446.828	3.19
447.032	3.16
447.235	3.22
447.439	3.14
447.643	3.06
447.847	3.08
448.051	3.07
448.254	3.13
448.458	3.02
448.662	2.93
448.866	2.9
449.069	2.78
449.273	2.74
449.477	2.65
449.681	2.72
449.884	2.83
450.088	2.67
450.292	2.57
450.495	2.68
450.699	2.76
450.902	2.9
451.106	2.92
451.31	3.01
451.513	3.13
451.717	3.18
451.92	3.08
452.124	3.04
452.327	3.11
452.531	3.3
452.734	3.24
452.938	3.22
453.141	3.03
453.345	3
453.548	2.9
453.752	2.83
453.955	2.74
454.158	2.74
454.362	2.79
454.565	2.8
454.769	2.74
454.972	2.73
455.175	2.76
455.379	2.86
455.582	2.87
455.785	2.99
455.988	3.06
456.192	3.11
456.395	3.05
456.598	3.05
456.801	3.09
457.005	3.11
457.208	3.1
457.411	3.13
457.614	3.12
457.817	3.12
458.021	3.16
458.224	3.11
458.427	3.08
458.63	3.08
458.833	2.96
459.036	2.94
459.239	2.93
459.442	2.92
459.645	2.87
459.848	2.93
460.051	2.84
460.254	2.8
460.457	2.86
460.66	2.94
460.863	2.98
461.066	3.09
461.269	3.07
461.472	3.11
461.675	3.12
461.878	3.01
462.081	3.01
462.284	3.08
462.486	3.04
462.689	2.97
462.892	2.94
463.095	2.95
463.298	2.96
463.5	2.98
463.703	2.95
463.906	2.88
464.109	3
464.311	2.99
464.514	3
464.717	2.89
464.92	2.97
465.122	2.89
465.325	2.98
465.528	2.94
465.73	2.87
465.933	2.94
466.135	3.02
466.338	3.03
466.541	2.95
466.743	2.92
466.946	3
467.148	2.96
467.351	3.05
467.553	3.02
467.756	3.06
467.958	3.31
468.161	3.22
468.363	3.12
468.566	3.11
468.768	3.19
468.971	3.24
469.173	3.3
469.375	3.37
469.578	3.43
469.78	3.44
469.983	3.41
470.185	3.32
470.387	3.28
470.59	3.29
470.792	3.25
470.994	3.26
471.196	3.23
471.399	3.21
471.601	3.17
471.803	3.11
472.005	3.03
472.208	2.98
472.41	2.84
472.612	2.97
472.814	3.05
473.016	3.03
473.218	2.92
473.421	2.94
473.623	2.88
473.825	2.88
474.027	2.87
474.229	2.95
474.431	2.91
474.633	3.04
474.835	3.07
475.037	3.01
475.239	3.07
475.441	3.12
475.643	3.16
475.845	3.14
476.047	3.09
476.249	3.07
476.451	3.02
476.653	3.1
476.855	2.99
477.057	2.83
477.258	2.87
477.46	2.82
477.662	2.81
477.864	2.7
478.066	2.77
478.268	2.8
478.469	2.75
478.671	2.69
478.873	2.74
479.075	2.77
479.276	2.79
479.478	2.81
479.68	2.9
479.882	2.95
480.083	3.01
480.285	2.94
480.487	2.95
480.688	2.94
480.89	2.93
481.091	2.91
481.293	2.94
481.495	2.96
481.696	2.92
481.898	2.92
482.099	2.92
482.301	2.92
482.502	2.93
482.704	2.9
482.905	2.92
483.107	2.95
483.308	2.93
483.51	2.93
483.711	2.93
483.913	2.95
484.114	2.92
484.315	2.94
484.517	2.94
484.718	2.96
484.92	2.99
485.121	3
485.322	2.97
485.524	2.98
485.725	2.96
485.926	2.98
486.127	2.96
486.329	2.98
486.53	2.94
486.731	2.93
486.932	2.88
487.134	2.89
487.335	2.87
487.536	2.87
487.737	2.89
487.938	2.91
488.139	2.93
488.341	2.96
488.542	2.96
488.743	2.95
488.944	2.99
489.145	3.06
489.346	3.07
489.547	3.11
489.748	3.12
489.949	3.09
490.15	3.05
490.351	3.04
490.552	3.01
490.753	2.98
490.954	3.01
491.155	2.95
491.356	2.94
491.557	2.95
491.758	2.91
491.959	2.93
492.159	2.98
492.36	3
492.561	2.97
492.762	3.04
492.963	3.17
493.164	3.19
493.364	3.25
493.565	3.23
493.766	3.21
493.967	3.21
494.167	3.2
494.368	3.2
494.569	3.26
494.769	3.28
494.97	3.3
495.171	3.28
495.371	3.19
495.572	3.17
495.773	3.25
495.973	3.23
496.174	3.21
496.375	3.23
496.575	3.16
496.776	3.08
496.976	3.07
497.177	3.07
497.377	2.99
497.578	3.02
497.778	2.97
497.979	2.96
498.179	2.98
498.38	3.03
498.58	3.01
498.78	3.04
498.981	3.1
499.181	3.04
499.382	2.93
499.582	2.9
499.782	2.95
499.983	3.06
500.183	3
500.383	3.02
500.584	3.05
500.784	3.05
500.984	3.1
501.184	3.11
501.385	3.21
501.585	3.22
501.785	3.19
501.985	3.08
502.185	3
502.386	3.02
502.586	3.01
502.786	2.99
502.986	2.97
503.186	2.96
503.386	3.03
503.586	2.95
503.786	3.09
503.987	3.17
504.187	3.25
504.387	3.32
504.587	3.29
504.787	3.28
504.987	3.29
505.187	3.33
505.387	3.29
505.587	3.23
505.786	3.32
505.986	3.23
506.186	3.19
506.386	3.2
506.586	3.28
506.786	3.31
506.986	3.32
507.186	3.32
507.386	3.33
507.585	3.37
507.785	3.41
507.985	3.38
508.185	3.39
508.384	3.45
508.584	3.44
508.784	3.38
508.984	3.42
509.183	3.4
509.383	3.36
509.583	3.35
509.782	3.39
509.982	3.38
510.182	3.34
510.381	3.36
510.581	3.34
510.781	3.42
510.98	3.43
511.18	3.42
511.379	3.39
511.579	3.43
511.778	3.41
511.978	3.37
512.177	3.35
512.377	3.47
512.576	3.47
512.776	3.48
512.975	3.4
513.175	3.38
513.374	3.36
513.573	3.5
513.773	3.52
513.972	3.56
514.172	3.59
514.371	3.61
514.57	3.55
514.77	3.59
514.969	3.6
515.168	3.61
515.367	3.67
515.567	3.7
515.766	3.62
515.965	3.63
516.164	3.57
516.364	3.58
516.563	3.56
516.762	3.61
516.961	3.63
517.16	3.66
517.359	3.69
517.559	3.68
517.758	3.67
517.957	3.73
518.156	3.69
518.355	3.75
518.554	3.78
518.753	3.84
518.952	3.8
519.151	3.85
519.35	3.88
519.549	3.87
519.748	3.84
519.947	3.84
520.146	3.76
520.345	3.88
520.544	3.85
520.743	3.78
520.942	3.7
521.141	3.67
521.339	3.63
521.538	3.56
521.737	3.55
521.936	3.6
522.135	3.6
522.333	3.7
522.532	3.62
522.731	3.68
522.93	3.71
523.129	3.81
523.327	3.84
523.526	3.83
523.725	3.88
523.923	3.9
524.122	3.9
524.321	3.94
524.519	3.94
524.718	3.94
524.917	3.9
525.115	3.93
525.314	3.87
525.512	3.87
525.711	3.9
525.909	3.92
526.108	3.92
526.306	3.93
526.505	3.92
526.703	3.95
526.902	3.95
527.1	3.97
527.299	3.97
527.497	3.98
527.696	3.98
527.894	3.97
528.092	3.97
528.291	3.94
528.489	3.99
528.688	4.01
528.886	4
529.084	3.99
529.283	3.97
529.481	3.95
529.679	3.96
529.877	3.98
530.076	3.98
530.274	3.97
530.472	4.02
530.67	4.01
530.869	4.02
531.067	4.03
531.265	4.12
531.463	4.17
531.661	4.22
531.859	4.27
532.057	4.36
532.255	4.41
532.454	4.41
532.652	4.44
532.85	4.4
533.048	4.42
533.246	4.45
533.444	4.47
533.642	4.51
533.84	4.5
534.038	4.52
534.236	4.44
534.434	4.38
534.632	4.43
534.83	4.45
535.027	4.49
535.225	4.5
535.423	4.52
535.621	4.53
535.819	4.51
536.017	4.54
536.215	4.49
536.412	4.58
536.61	4.64
536.808	4.63
537.006	4.69
537.203	4.72
537.401	4.79
537.599	4.78
537.797	4.75
537.994	4.75
538.192	4.8
538.39	4.86
538.587	4.88
538.785	4.88
538.983	4.93
539.18	4.92
539.378	4.91
539.575	4.89
539.773	4.92
539.97	4.93
540.168	5.02
540.366	5.04
540.563	5.05
540.761	5.03
540.958	5.03
541.155	5
541.353	5.02
541.55	5.05
541.748	5.06
541.945	5.03
542.143	5.09
542.34	5.05
542.537	5.1
542.735	5.15
542.932	5.18
543.129	5.27
543.327	5.38
543.524	5.42
543.721	5.46
543.919	5.52
544.116	5.63
544.313	5.58
544.51	5.6
544.708	5.6
544.905	5.62
545.102	5.72
545.299	5.79
545.496	5.74
545.693	5.78
545.891	5.82
546.088	5.84
546.285	5.86
546.482	5.97
546.679	6.08
546.876	6.16
547.073	6.11
547.27	6.14
547.467	6.18
547.664	6.31
547.861	6.29
548.058	6.34
548.255	6.4
548.452	6.41
548.649	6.45
548.846	6.47
549.043	6.38
549.24	6.46
549.437	6.43
549.633	6.43
549.83	6.42
550.027	6.48
550.224	6.51
550.421	6.5
550.618	6.63
550.814	6.64
551.011	6.64
551.208	6.73
551.405	6.77
551.601	6.72
551.798	6.7
551.995	6.79
552.191	6.81
552.388	6.85
552.585	6.96
552.781	6.97
552.978	6.97
553.175	7.13
553.371	7.19
553.568	7.3
553.764	7.47
553.961	7.55
554.157	7.6
554.354	7.67
554.55	7.78
554.747	7.79
554.943	7.76
555.14	7.89
555.336	7.75
555.533	7.9
555.729	7.9
555.926	7.94
556.122	7.93
556.318	7.95
556.515	8.05
556.711	8.01
556.907	8.05
557.104	8.08
557.3	8.14
557.496	8.21
557.693	8.22
557.889	8.26
558.085	8.19
558.281	8.23
558.478	8.37
558.674	8.36
558.87	8.41
559.066	8.51
559.262	8.58
559.459	8.61
559.655	8.78
559.851	8.79
560.047	8.84
560.243	8.93
560.439	9.07
560.635	9.06
560.831	9.08
561.027	9.19
561.223	9.22
561.419	9.34
561.615	9.48
561.811	9.64
562.007	9.65
562.203	9.77
562.399	10
562.595	10.02
562.791	10.2
562.987	10.34
563.183	10.35
563.379	10.4
563.575	10.4
563.771	10.37
563.966	10.24
564.162	10.33
564.358	10.37
564.554	10.34
564.75	10.34
564.945	10.31
565.141	10.37
565.337	10.48
565.533	10.57
565.728	10.68
565.924	10.73
566.12	10.86
566.315	10.79
566.511	10.82
566.707	10.91
566.902	11.08
567.098	11.08
567.293	11.06
567.489	11.1
567.684	11.19
567.88	11.12
568.076	11.19
568.271	11.26
568.467	11.44
568.662	11.6
568.858	11.62
569.053	11.66
569.248	11.81
569.444	11.96
569.639	11.99
569.835	12.04
570.03	12.16
570.225	12.1
570.421	12.07
570.616	12.11
570.812	12.13
571.007	12.22
571.202	12.19
571.397	12.27
571.593	12.31
571.788	12.39
571.983	12.42
572.178	12.58
572.374	12.77
572.569	12.89
572.764	12.92
572.959	12.93
573.154	12.98
573.35	13.09
573.545	13.03
573.74	13.03
573.935	13.06
574.13	13.05
574.325	13.01
574.52	12.98
574.715	12.9
574.91	13.04
575.105	13.11
575.3	13.28
575.495	13.3
575.69	13.38
575.885	13.52
576.08	13.58
576.275	13.71
576.47	13.7
576.665	13.75
576.86	13.9
577.055	13.86
577.25	13.9
577.444	13.7
577.639	13.76
577.834	13.86
578.029	13.76
578.224	13.89
578.418	13.82
578.613	13.99
578.808	14.03
579.003	13.99
579.197	14.09
579.392	14.1
579.587	14.27
579.781	14.37
579.976	14.34
580.171	14.54
580.365	14.58
580.56	14.59
580.755	14.61
580.949	14.77
581.144	14.94
581.338	15.02
581.533	15.08
581.727	15.07
581.922	15.25
582.116	15.35
582.311	15.28
582.505	15.27
582.7	15.39
582.894	15.41
583.089	15.28
583.283	15.2
583.478	15.16
583.672	15.23
583.866	15.16
584.061	14.99
584.255	14.95
584.449	14.98
584.644	15
584.838	14.9
585.032	14.93
585.226	15.05
585.421	15.03
585.615	15.09
585.809	15.28
586.003	15.51
586.198	15.57
586.392	15.73
586.586	15.77
586.78	15.85
586.974	15.96
587.168	16.05
587.363	16.06
587.557	16.2
587.751	16.34
587.945	16.18
588.139	16.19
588.333	16.21
588.527	16.21
588.721	16.18
588.915	16.24
589.109	16.39
589.303	16.34
589.497	16.49
589.691	16.53
589.885	16.5
590.079	16.57
590.273	16.51
590.466	16.43
590.66	16.4
590.854	16.52
591.048	16.58
591.242	16.47
591.436	16.47
591.629	16.45
591.823	16.49
592.017	16.47
592.211	16.43
592.404	16.49
592.598	16.65
592.792	16.74
592.986	16.85
593.179	16.65
593.373	16.8
593.567	16.88
593.76	16.89
593.954	16.96
594.147	16.89
594.341	17.06
594.535	17.18
594.728	17.18
594.922	17.15
595.115	17.1
595.309	17.3
595.502	17.19
595.696	17.15
595.889	17.09
596.083	17.06
596.276	17.14
596.47	17.06
596.663	17.02
596.856	17.03
597.05	17.08
597.243	17.08
597.437	17.01
597.63	17.12
597.823	17.18
598.017	17.23
598.21	17.25
598.403	17.38
598.596	17.45
598.79	17.36
598.983	17.3
599.176	17.25
599.369	17.21
599.563	17.21
599.756	17.23
599.949	17.29
600.142	17.35
600.335	17.34
600.528	17.36
600.722	17.38
600.915	17.49
601.108	17.53
601.301	17.65
601.494	17.74
601.687	17.7
601.88	17.59
602.073	17.69
602.266	17.72
602.459	17.72
602.652	17.62
602.845	17.64
603.038	17.63
603.231	17.65
603.424	17.62
603.617	17.62
603.809	17.58
604.002	17.61
604.195	17.47
604.388	17.57
604.581	17.58
604.774	17.54
604.966	17.56
605.159	17.67
605.352	17.72
605.545	17.7
605.737	17.72
605.93	17.9
606.123	18
606.316	18.11
606.508	18.02
606.701	18.11
606.894	18.16
607.086	18.19
607.279	18.09
607.471	18.12
607.664	18.11
607.857	18.04
608.049	18.14
608.242	18.16
608.434	18.21
608.627	18.3
608.819	18.14
609.012	18.25
609.204	18.18
609.397	18.27
609.589	18.24
609.782	18.32
609.974	18.4
610.166	18.37
610.359	18.27
610.551	18.34
610.743	18.3
610.936	18.48
611.128	18.53
611.32	18.53
611.513	18.46
611.705	18.42
611.897	18.43
612.09	18.5
612.282	18.35
612.474	18.66
612.666	18.76
612.858	18.64
613.051	18.59
613.243	18.46
613.435	18.55
613.627	18.6
613.819	18.63
614.011	18.74
614.203	18.65
614.395	18.8
614.588	18.62
614.78	18.49
614.972	18.44
615.164	18.57
615.356	18.64
615.548	18.57
615.74	18.66
615.932	18.61
616.124	18.49
616.315	18.58
616.507	18.41
616.699	18.49
616.891	18.43
617.083	18.43
617.275	18.44
617.467	18.54
617.659	18.6
617.85	18.63
618.042	18.78
618.234	18.82
618.426	18.88
618.618	19.12
618.809	18.96
619.001	18.92
619.193	19.09
619.384	18.97
619.576	18.99
619.768	19.05
619.959	18.9
620.151	18.82
620.343	18.71
620.534	18.48
620.726	18.35
620.917	18.4
621.109	18.37
621.301	18.39
621.492	18.48
621.684	18.36
621.875	18.37
622.067	18.33
622.258	18.24
622.45	18.44
622.641	18.57
622.832	18.58
623.024	18.67
623.215	18.72
623.407	18.65
623.598	18.69
623.789	18.64
623.981	18.6
624.172	18.76
624.363	18.86
624.555	18.8
624.746	18.83
624.937	18.88
625.129	18.94
625.32	19.07
625.511	19.09
625.702	19.13
625.893	19.07
626.085	19.11
626.276	19.03
626.467	19.05
626.658	19.16
626.849	19.01
627.04	18.97
627.231	18.79
627.422	18.7
627.614	18.67
627.805	18.57
627.996	18.83
628.187	18.73
628.378	18.78
628.569	18.8
628.76	18.65
628.951	18.79
629.142	18.85
629.332	19.01
629.523	19.07
629.714	19.23
629.905	19.37
630.096	19.4
630.287	19.51
630.478	19.57
630.669	19.68
630.859	19.78
631.05	19.83
631.241	19.99
631.432	19.95
631.623	19.83
631.813	19.79
632.004	19.78
632.195	19.67
632.385	19.65
632.576	19.72
632.767	19.65
632.957	19.74
633.148	19.83
633.339	19.64
633.529	19.74
633.72	19.76
633.91	19.71
634.101	19.64
634.292	19.48
634.482	19.6
634.673	19.55
634.863	19.5
635.054	19.47
635.244	19.29
635.435	19.36
635.625	19.23
635.815	19.4
636.006	19.39
636.196	19.3
636.387	19.53
636.577	19.47
636.767	19.46
636.958	19.5
637.148	19.38
637.338	19.3
637.529	19.25
637.719	19.26
637.909	19.15
638.099	19.32
638.29	19.38
638.48	19.33
638.67	19.21
638.86	19.21
639.05	19.4
639.241	19.33
639.431	19.66
639.621	19.67
639.811	19.73
640.001	19.91
640.191	19.7
640.381	19.66
640.571	19.7
640.761	19.75
640.951	19.85
641.141	19.66
641.331	19.76
641.521	19.68
641.711	19.91
641.901	19.92
642.091	19.77
642.281	20.01
642.471	19.97
642.661	20.02
642.851	19.89
643.041	19.68
643.231	19.66
643.42	19.6
643.61	19.58
643.8	19.65
643.99	19.72
644.18	19.74
644.369	19.45
644.559	19.66
644.749	19.42
644.939	19.48
645.128	19.52
645.318	19.62
645.508	19.68
645.697	19.74
645.887	19.42
646.076	19.54
646.266	19.53
646.456	19.82
646.645	19.79
646.835	20.16
647.024	20.42
647.214	20.56
647.403	20.51
647.593	20.56
647.782	20.38
647.972	20.55
648.161	20.32
648.351	20.27
648.54	20.15
648.73	20.22
648.919	19.99
649.108	20
649.298	19.93
649.487	19.75
649.677	19.95
649.866	19.94
650.055	19.92
650.244	19.94
650.434	19.88
650.623	20.04
650.812	20.03
651.002	20
651.191	19.83
651.38	19.81
651.569	20.18
651.758	19.93
651.947	20.06
652.137	20.1
652.326	20.06
652.515	20.17
652.704	20.05
652.893	19.97
653.082	19.97
653.271	20.15
653.46	20.39
653.649	20.11
653.838	20.3
654.027	20.21
654.216	20.04
654.405	20.19
654.594	20.35
654.783	20.26
654.972	20.32
655.161	20.22
655.35	20.01
655.539	20.04
655.728	20.13
655.916	20.14
656.105	20.01
656.294	20.07
656.483	20.01
656.672	19.92
656.86	20.11
657.049	20.12
657.238	20.42
657.427	20.48
657.615	20.57
657.804	20.66
657.993	20.46
658.181	20.67
658.37	20.53
658.559	20.57
658.747	20.63
658.936	20.72
659.125	21.1
659.313	21.06
659.502	21.1
659.69	20.93
659.879	20.97
660.067	21.32
660.256	21.3
660.444	21.59
660.633	21.68
660.821	21.64
661.01	21.59
661.198	21.15
661.387	21.05
661.575	21.09
661.763	21.09
661.952	20.91
662.14	20.61
662.328	20.56
662.517	20.56
662.705	20.42
662.893	20.31
663.082	20.27
663.27	20.07
663.458	20.05
663.646	20.07
663.834	20.05
664.023	20.02
664.211	20.2
664.399	20.39
664.587	20.34
664.775	20.4
664.963	20.66
665.152	20.41
665.34	20.76
665.528	20.74
665.716	20.86
665.904	20.88
666.092	21.06
666.28	21.02
666.468	21
666.656	21.19
666.844	21.23
667.032	21.31
667.22	21.27
667.408	21.22
667.596	21.31
667.784	21.28
667.971	21.25
668.159	21.11
668.347	21.06
668.535	21.11
668.723	21.08
668.911	21.26
669.098	20.98
669.286	21.36
669.474	21.23
669.662	21.32
669.849	21.27
670.037	21.1
670.225	21.11
670.413	21.16
670.6	21.19
670.788	21.15
670.976	21.02
671.163	21.2
671.351	21.2
671.538	21
671.726	20.99
671.913	20.7
672.101	20.81
672.289	20.96
672.476	20.89
672.664	20.64
672.851	20.48
673.039	20.25
673.226	20
673.413	19.85
673.601	20.11
673.788	20.02
673.976	20.17
674.163	20.28
674.35	20.21
674.538	20.3
674.725	20.4
674.912	20.69
675.1	21.01
675.287	21.22
675.474	21.19
675.662	21.46
675.849	21.44
676.036	21.73
676.223	21.63
676.411	21.59
676.598	21.33
676.785	21
676.972	20.75
677.159	20.45
677.346	20.6
677.533	20.61
677.721	20.33
677.908	20.5
678.095	20.5
678.282	20.35
678.469	20.68
678.656	20.86
678.843	21.12
679.03	21.24
679.217	21.41
679.404	21.28
679.591	21.19
679.778	21.25
679.964	21.11
680.151	20.98
680.338	21.17
680.525	20.96
680.712	21.15
680.899	21.04
681.086	20.76
681.272	20.52
681.459	20.64
681.646	20.78
681.833	20.71
682.02	20.83
682.206	20.93
682.393	21.13
682.58	21.22
682.766	20.93
682.953	21.05
683.14	21.27
683.326	21.28
683.513	21.28
683.7	21.21
683.886	21.24
684.073	21.39
684.259	21.32
684.446	21.26
684.632	20.78
684.819	20.98
685.005	21.09
685.192	21.13
685.378	21.24
685.565	21.18
685.751	21.53
685.938	21.79
686.124	21.93
686.31	22.03
686.497	22.01
686.683	22.39
686.87	22.47
687.056	22.52
687.242	22.51
687.429	22.56
687.615	22.46
687.801	22.21
687.987	22.08
688.174	21.47
688.36	21.45
688.546	21.42
688.732	21.68
688.918	21.24
689.105	21.04
689.291	21.19
689.477	21.32
689.663	21.63
689.849	21.66
690.035	21.63
690.221	21.98
690.407	21.77
690.593	21.74
690.779	21.88
690.965	22.34
691.151	22.4
691.337	22.27
691.523	21.96
691.709	21.67
691.895	21.61
692.081	21.83
692.267	21.74
692.453	21.98
692.639	22.15
692.825	22.02
693.011	21.96
693.196	22.2
693.382	22.17
693.568	22.66
693.754	22.51
693.94	22.71
694.125	22.35
694.311	22.57
694.497	22.62
694.682	22.54
694.868	22.33
695.054	22.19
695.239	21.66
695.425	21.64
695.611	21.45
695.796	21.68
695.982	21.6
696.168	21.71
696.353	21.65
696.539	21.52
696.724	21.39
696.91	21.35
697.095	21.39
697.281	21.68
697.466	21.65
697.652	21.7
697.837	21.6
698.023	21.73
698.208	21.82
698.393	21.63
698.579	21.52
698.764	21.63
698.949	21.66
699.135	21.76
699.32	21.93
699.505	22.16
699.691	22.28
699.876	22.57
700.061	22.33
700.246	22.27
700.432	22.5
700.617	22.89
700.802	23.02
700.987	22.96
701.172	22.65
701.358	22.33
701.543	22.16
701.728	22.06
701.913	21.96
702.098	22.06
702.283	22.4
702.468	22.42
702.653	22.25
702.838	21.91
703.023	22
703.208	22.09
703.393	22.33
703.578	22.32
703.763	22.05
703.948	21.94
704.133	22.1
704.318	21.58
704.503	21.55
704.688	21.65
704.873	22.08
705.057	21.91
705.242	22.12
705.427	21.98
705.612	22.24
705.797	22.51
705.981	22.6
706.166	22.66
706.351	23.11
706.536	22.94
706.72	23.06
706.905	22.7
707.09	22.71
707.274	22.76
707.459	22.65
707.644	22.65
707.828	23.05
708.013	22.86
708.197	22.46
708.382	22.44
708.567	22.64
708.751	22.44
708.936	22.64
709.12	22.86
709.305	22.79
709.489	22.84
709.673	22.56
709.858	21.97
710.042	22.02
710.227	22.02
710.411	21.7
710.596	21.72
710.78	21.66
710.964	21.76
711.149	21.84
711.333	22.08
711.517	22.13
711.702	22.23
711.886	22.6
712.07	22.51
712.254	22.82
712.438	23.03
712.623	23.4
712.807	23.39
712.991	23.28
713.175	22.98
713.359	23.22
713.544	23.42
713.728	23.28
713.912	22.77
714.096	22.83
714.28	22.83
714.464	22.9
714.648	22.49
714.832	22.38
715.016	22.05
715.2	22.37
715.384	21.65
715.568	21.4
715.752	21.56
715.936	21.87
716.12	22.05
716.304	22.21
716.488	22.44
716.671	22.41
716.855	22.53
717.039	22.97
717.223	22.63
717.407	23.24
717.59	23.65
717.774	23.84
717.958	23.63
718.142	23.63
718.325	23.65
718.509	23.14
718.693	23.42
718.877	23.07
719.06	23.03
719.244	23.09
719.428	22.86
719.611	22.35
719.795	21.8
719.978	22.34
720.162	22.15
720.345	21.96
720.529	21.96
720.713	21.51
720.896	22.17
721.08	22.28
721.263	22.29
721.446	22.21
721.63	22.34
721.813	22.2
721.997	21.91
722.18	21.68
722.364	21.51
722.547	21.41
722.73	21.76
722.914	21.14
723.097	20.4
723.28	20.68
723.464	20.22
723.647	20.42
723.83	20.63
724.013	20.98
724.197	21.29
724.38	20.88
724.563	20.87
724.746	20.91
724.929	21.58
725.112	22.26
725.296	21.87
725.479	22.38
725.662	22.21
725.845	22.25
726.028	22.29
726.211	22.18
726.394	22.55
726.577	22.83
726.76	22.84
726.943	22.28
727.126	21.81
727.309	22.01
727.492	22.02
727.675	21.84
727.858	21.93
728.041	21.78
728.224	22.18
728.407	22.36
728.589	21.94
728.772	21.71
728.955	22.05
729.138	22.35
729.321	22.19
729.503	21.94
729.686	22.06
729.869	22.16
730.052	21.8
730.234	21.48
730.417	21.42
730.6	21.55
730.782	21.51
730.965	21.47
731.148	21.39
731.33	21.65
731.513	21.65
731.695	21.89
731.878	22.08
732.061	22.71
732.243	22.75
732.426	22.36
732.608	22.74
732.791	22.82
732.973	23.32
733.156	23.65
733.338	23.6
733.52	23.86
733.703	23.59
733.885	23.45
734.068	23.23
734.25	23.58
734.432	23.77
734.615	23.79
734.797	23.9
734.979	23.2
735.162	23.24
735.344	23.11
735.526	23.1
735.708	23.14
735.891	23.25
736.073	22.75
736.255	22.64
736.437	22.72
736.619	22.7
736.802	22.8
736.984	22.96
737.166	22.58
737.348	23.1
737.53	23.44
737.712	23.78
737.894	23.71
738.076	23.95
738.258	23.9
738.44	24.02
738.622	23.83
738.804	23.77
738.986	23.48
739.168	23.55
739.35	22.86
739.532	22.62
739.714	22.43
739.896	22.64
740.078	22.85
740.259	23.09
740.441	23.28
740.623	22.97
740.805	23.05
740.987	22.95
741.168	23.25
741.35	24.16
741.532	24.14
741.714	23.82
741.895	23.28
742.077	22.75
742.259	22.69
742.44	22.76
742.622	22.83
742.804	22.55
742.985	22.71
743.167	22.53
743.348	21.93
743.53	21.94
743.711	22.37
743.893	22.88
744.075	23.44
744.256	23.31
744.438	23
744.619	22.72
744.8	23.31
744.982	23.63
745.163	24.19
745.345	23.88
745.526	24.1
745.707	24.3
745.889	24.11
746.07	24.09
746.252	23.41
746.433	23.63
746.614	23.77
746.795	23.92
746.977	23.97
747.158	22.94
747.339	22.62
747.52	22.12
747.702	21.67
747.883	21.97
748.064	22.19
748.245	22.82
748.426	22.18
748.607	22.64
748.788	21.69
748.97	21.6
749.151	21.66
749.332	22.51
749.513	22.86
749.694	23.14
749.875	22.99
750.056	23.05
750.237	22.29
750.418	22.18
750.599	22.18
750.78	22.58
750.96	22.87
751.141	23.05
751.322	22.73
751.503	22.51
751.684	21.94
751.865	21.63
752.046	20.72
752.226	21.38
752.407	21.98
752.588	22
752.769	22.53
752.949	22.15
753.13	22.37
753.311	22.18
753.492	21.95
753.672	22.24
753.853	23.3
754.034	24.3
754.214	24.07
754.395	23.84
754.575	23.74
754.756	22.85
754.937	22.67
755.117	22.65
755.298	23.02
755.478	22.91
755.659	23.02
755.839	22.57
756.02	22.02
756.2	22.45
756.381	22.65
756.561	22.99
756.741	22.84
756.922	23.35
757.102	23.19
757.283	23.09
757.463	23.34
757.643	23.42
757.823	22.97
758.004	23.05
758.184	22.63
758.364	22.86
758.545	22.55
758.725	23.2
758.905	23.11
759.085	23.29
759.265	23.53
759.446	23.96
759.626	24.22
759.806	24.58
759.986	24.51
760.166	24.85
760.346	24.43
760.526	24.88
760.706	25.35
760.886	24.85
761.066	24.49
761.246	23.55
761.426	23.66
761.606	23.42
761.786	23.23
761.966	23.17
762.146	22.73
762.326	23.15
762.506	23.22
762.686	22.74
762.866	23.17
763.046	22.76
763.225	23.49
763.405	23.2
763.585	22.93
763.765	23.06
763.945	22.82
764.124	23.02
764.304	23.05
764.484	22.98
764.664	22.61
764.843	22.53
765.023	22.14
765.203	21.99
765.382	22.05
765.562	22.79
765.741	22.19
765.921	22.37
766.101	22.43
766.28	21.76
766.46	21.62
766.639	21.97
766.819	21.65
766.998	22.65
767.178	22.59
767.357	22.88
767.537	22.2
767.716	22.75
767.896	23.25
768.075	23.01
768.254	22.71
768.434	22.47
768.613	22.61
768.792	22.95
768.972	23.78
769.151	23.63
769.33	23.25
769.51	23.23
769.689	23.11
769.868	22.98
770.047	23.86
770.226	23.82
770.406	23.75
770.585	24.15
770.764	24.53
770.943	24.39
771.122	25.07
771.301	24.86
771.48	25.03
771.66	24.89
771.839	24.82
772.018	24.62
772.197	25.34
772.376	25.61
772.555	24.9
772.734	24.14
772.913	24.12
773.092	23.46
773.271	23.13
773.449	23.43
773.628	23.83
773.807	23.52
773.986	23.03
774.165	22.83
774.344	21.94
774.523	21.84
774.701	22.16
774.88	21.61
775.059	20.52
775.238	21.57
775.417	21.36
775.595	20.8
775.774	21
775.953	21.05
776.131	22.16
776.31	23.27
776.489	24.24
776.667	24.63
776.846	24.91
777.025	25.7
777.203	26.27
777.382	26.05
777.56	25.9
777.739	26.45
777.917	26.63
778.096	25.54
778.274	25.24
778.453	24.75
778.631	25.11
778.81	25.03
778.988	25.43
779.166	24.22
779.345	24.59
779.523	24.24
779.702	23.94
779.88	23.56
780.058	23.86
780.237	23.83
780.415	24.72
780.593	24.34
780.771	24.97
780.95	24.84
781.128	25.71
781.306	25.11
781.484	25.85
781.662	24.98
781.841	25.69
782.019	24.86
782.197	24.57
782.375	23.18
782.553	22.68
782.731	22.81
782.909	22.78
783.087	21.4
783.265	21.8
783.443	21.22
783.621	22.34
783.799	21.47
783.977	22.77
784.155	23.24
784.333	23.92
784.511	24.07
784.689	23.98
784.867	24.77
785.045	25.97
785.223	25.77
785.4	26.77
785.578	26.41
785.756	26.75
785.934	26.5
786.112	26.37
786.289	26.61
786.467	26.24
786.645	26
786.823	25.29
787	24.51
787.178	24.74
787.356	25
787.533	25.14
787.711	24.99
787.889	25.23
788.066	24.34
788.244	23.98
788.421	24.02
788.599	23.36
788.776	22.95
788.954	22.93
789.131	23.43
789.309	22.76
789.486	21.06
789.664	21.82
789.841	20.33
790.019	21.34
790.196	21.74
790.373	21.95
790.551	21.9
790.728	22.3
790.906	22.81
791.083	21.92
791.26	21.7
791.437	24.47
791.615	23.05
791.792	24.54
791.969	24.05
792.146	23.41
792.324	23.99
792.501	24.12
792.678	23.85
792.855	24.18
793.032	23.87
793.209	23.5
793.387	22.61
793.564	23.39
793.741	23.66
793.918	24.41
794.095	24.86
794.272	23.48
794.449	23.13
794.626	23.37
794.803	22.45
794.98	23.08
795.157	23.67
795.334	24.22
795.511	24.1
795.688	23.17
795.864	23.73
796.041	23.13
796.218	22.95
796.395	23.73
796.572	23.53
796.749	24.32
796.925	24.15
797.102	24.8
797.279	23.81
797.456	24.1
797.632	24.55
797.809	24.09
797.986	25.22
798.162	26.16
798.339	26.64
798.516	26.43
798.692	25.52
798.869	25.51
799.046	24.58
799.222	24.94
799.399	24.67
799.575	25.17
799.752	25.31
799.928	25.18
800.105	25.01
800.281	24.32
800.458	24.87
800.634	25.86
800.811	26.2
800.987	26.57
801.163	25.63
801.34	26.02
801.516	25.43
801.692	24.91
801.869	24.75
802.045	25.23
802.221	26.36
802.398	26.28
802.574	24.69
802.75	25.22
802.926	25.64
803.103	26.11
803.279	26.3
803.455	26.19
803.631	26.45
803.807	25.61
803.983	24.06
804.16	21.87
804.336	22.83
804.512	24.11
804.688	23.92
804.864	23.81
805.04	23.6
805.216	23.55
805.392	23.13
805.568	22.51
805.744	21.75
805.92	22.53
806.096	23.24
806.272	22.85
806.448	23.68
806.623	22.95
806.799	22.08
806.975	23.46
807.151	21.8
807.327	22.74
807.503	23.05
807.678	23.96
807.854	24.46
808.03	24.16
808.206	24.24
808.381	23.67
808.557	23.53
808.733	26.14
808.908	24.68
809.084	26.51
809.26	25.43
809.435	26.8
809.611	27.24
809.787	26.89
809.962	28.18
810.138	28.73
810.313	29.38
810.489	28.82
810.664	26.18
810.84	27.4
811.015	27.07
811.191	27.6
811.366	24.89
811.542	24.28
811.717	23.94
811.892	24.39
812.068	23.79
812.243	23.49
812.419	24.41
812.594	24.94
812.769	25.44
812.944	24.74
813.12	25.27
813.295	27.26
813.47	28.2
813.645	29.39
813.821	27.5
813.996	26.27
814.171	25.17
814.346	26.27
814.521	27.04
814.697	26.02
814.872	27.19
815.047	26.76
815.222	25.79
815.397	24.12
815.572	23.55
815.747	25.08
815.922	24.83
816.097	24.65
816.272	23.71
816.447	22.73
816.622	23.53
816.797	22.42
816.972	21.99
817.147	23.2
817.322	24.4
817.496	24.29
817.671	23.49
817.846	24.46
818.021	24.89
818.196	24.96
818.371	25.59
818.545	23.44
818.72	23.45
818.895	23.81
819.069	22.74
819.244	22.81
819.419	23.79
819.594	23.46
819.768	24.28
819.943	24.55
820.117	24.21
820.292	24.13
820.467	24.72
820.641	24.67
820.816	24.41
820.99	24.34
821.165	24.14
821.339	23.59
821.514	23.72
821.688	23.73
821.863	23.57
822.037	23.49
822.212	23.47
822.386	23.54
822.56	23.65
822.735	23.62
822.909	23.81
823.084	24
823.258	24.19
823.432	24.39
823.606	24.24
823.781	24.44
823.955	24.76
824.129	24.44
824.303	24.52
824.478	24.6
824.652	24.91
824.826	24.92
825	24.87
825.174	25.1
825.348	24.74
825.523	24.53
825.697	24.62
825.871	24.59
826.045	25.28
826.219	25.14
826.393	24.98
826.567	25
826.741	25.38
826.915	25.22
827.089	24.69
827.263	24.83
827.437	25.03
827.611	24.5
827.784	24.12
827.958	24.19
828.132	24.53
828.306	24.62
828.48	24.26
828.654	23.71
828.827	23.58
829.001	24.37
829.175	24.44
829.349	24.43
829.522	24.5
829.696	25.34
829.87	25.29
830.044	25.15
830.217	25.29
830.391	25.81
830.565	25.68
830.738	25.79
830.912	25.41
831.085	24.17
831.259	25.09
831.432	25.21
831.606	24.49
831.779	23.9
831.953	23.91
832.126	24.82
832.3	24.79
832.473	24.93
832.647	25.01
832.82	24.93
832.994	25.73
833.167	24.64
833.34	25.19
833.514	25.53
833.687	25.18
833.86	24.72
834.034	24.24
834.207	24.44
834.38	24.38
834.553	24.39
834.727	24.4
834.9	25.03
835.073	25.6
835.246	25.44
835.419	25.64
835.593	26.24
835.766	26.58
835.939	26.58
836.112	26.06
836.285	26
836.458	27.11
836.631	27.71
836.804	26.36
836.977	26.5
837.15	26.38
837.323	25.07
837.496	24.8
837.669	24.86
837.842	24.93
838.015	25.19
838.188	25
838.361	24.36
838.533	23.13
838.706	23.63
838.879	24.13
839.052	23.69
839.225	26.15
839.398	25.97
839.57	25.52
839.743	25.48
839.916	26.15
840.088	27.12
840.261	26.32
840.434	27.83
840.607	27.58
840.779	26.06
840.952	25.37
841.124	24.13
841.297	24.72
841.47	25.83
841.642	25.95
841.815	25.45
841.987	24
842.16	23.41
842.332	22.89
842.505	22.45
842.677	21.82
842.85	24.93
843.022	22.79
843.194	22.28
843.367	22.61
843.539	21.11
843.712	21.45
843.884	22.36
844.056	21.12
844.229	18.53
844.401	20.92
844.573	21.74
844.745	18.31
844.918	20.75
845.09	22.09
845.262	20.9
845.434	20.39
845.606	19.46
845.779	20.45
845.951	23.86
846.123	27
846.295	26.32
846.467	28.28
846.639	31.11
846.811	29.79
846.983	29.1
847.155	29.25
847.327	31.19
847.499	30.86
847.671	30.61
847.843	28.06
848.015	29.81
848.187	28.42
848.359	28.22
848.531	28.13
848.703	28.02
848.875	25.29
849.047	19.01
849.218	17.23
849.39	17.36
849.562	17.32
849.734	19.46
849.905	17.75
850.077	14.98
850.249	13.67
850.421	15.75
850.592	15.56
850.764	18
850.936	25.9
851.107	24.8
851.279	22.71
851.451	20.44
851.622	16.76
851.794	17.41
851.965	19.87
852.137	21.43
852.308	17.7
852.48	19.29
852.651	19.93
852.823	18.46
852.994	21.63
853.166	24.49
853.337	28.78
853.509	34.91
853.68	33.92
853.851	35.17
854.023	30.54
854.194	33.04
854.365	32.05
854.537	31.19
854.708	32.34
854.879	31.38
855.05	31.56
855.222	31.99
855.393	24.34
855.564	24.52
855.735	25.78
855.906	29.94
856.078	27.08
856.249	32.62
856.42	36.09
856.591	36.12
856.762	37.94
856.933	38.72
857.104	37.44
857.275	41.63
857.446	41.52
857.617	40.86
857.788	43.86
857.959	43.81
858.13	42.26
858.301	40
858.472	38.14
858.643	37.88
858.814	36.33
858.985	32.04
859.155	33.6
859.326	33.79
859.497	32.29
859.668	26.61
859.839	23.75
860.009	24.71
860.18	25.57
860.351	26.89
860.522	25.93
860.692	24.28
860.863	26.04
861.034	23.25
861.204	22.23
861.375	22.12
861.546	21.52
861.716	25.34
861.887	20.62
862.057	20.97
862.228	19
862.398	18.62
862.569	20.85
862.739	23.71
862.91	24.4
863.08	22.56
863.251	23.57
863.421	20.62
863.592	19.98
863.762	17.31
863.932	16.09
864.103	18.18
864.273	19.16
864.443	16.83
864.614	12.09
864.784	13.28
864.954	17.46
865.125	19.6
865.295	24.35
865.465	25.01
865.635	30.17
865.805	32.17
865.976	32.83
866.146	34.41
866.316	38.99
866.486	41.59
866.656	39.35
866.826	38.76
866.996	35.35
867.166	34.79
867.336	31.14
867.506	27.65
867.676	23.68
867.846	18.94
868.016	13.14
868.186	10.87
868.356	10.51
868.526	10.96
868.696	9.61
868.866	12.25
869.036	12.09
869.206	13.95
869.376	17.25
869.545	16.92
869.715	20.41
869.885	24.24
870.055	22.66
870.224	24.47
870.394	25.98
870.564	30.01
870.734	28.02
870.903	28.65
871.073	29.22
871.243	28.55
871.412	28.64
871.582	26.39
871.751	28.85
871.921	33.57
872.091	30.44
872.26	31.76
872.43	25.02
872.599	25.61
872.769	26.33
872.938	28.03
873.108	30
873.277	32.48
873.446	33.02
873.616	29.72
873.785	28.21
873.955	32.08
874.124	33.34
874.293	35.86
874.463	36.86
874.632	40.3
874.801	37.3
874.971	37.41
875.14	35.72
875.309	36.19
875.478	40.83
875.647	40.79
875.817	38.29
875.986	37.32
876.155	38.2
876.324	41.72
876.493	37.49
876.662	34.25
876.831	35.42
877	34.74
877.17	33.36
877.339	30.77
877.508	30.48
877.677	28.94
877.846	23.54
878.015	20.66
878.184	18.2
878.352	16.3
878.521	23.14
878.69	20.24
878.859	21.53
879.028	24.4
879.197	22.14
879.366	23.09
879.534	23.14
879.703	25.16
879.872	23.54
880.041	23.82
880.21	26.65
880.378	26.16
880.547	26.53
880.716	25.11
880.884	24.44
881.053	25.13
881.222	25.37
881.39	26.05
881.559	26.06
881.727	27.11
881.896	26.95
882.065	26.45
882.233	26.88
882.402	26.99
882.57	28.11
882.739	28.57
882.907	28.8
883.076	28.45
883.244	28.23
883.412	28.4
883.581	28.5
883.749	28.22
883.918	28.8
884.086	28.07
884.254	28.1
884.423	27.96
884.591	26.77
884.759	26.83
884.927	26.76
885.096	26.05
885.264	25.23
885.432	25.23
885.6	26.15
885.769	25.89
885.937	25.18
886.105	23.7
886.273	22.75
886.441	24.84
886.609	22.73
886.777	21.98
886.945	24.67
887.113	28.69
887.281	28.08
887.449	29.16
887.617	27.78
887.785	30.89
887.953	33.38
888.121	32.46
888.289	33.98
888.457	38.21
888.625	41.62
888.793	38.15
888.961	36.87
889.129	38.68
889.296	37.12
889.464	38.44
889.632	37.51
889.8	37.46
889.967	41.16
890.135	38.9
