Data from 2938444_Reflection_2.txt Node
Date: Fri Jun 19 18:14:01 EDT 2015
User: robert
Spectrometer: USB4E03002
Autoset integration time: false
Trigger mode: 4
Integration Time (sec): 1.000000E-1
Scans to average: 10
Electric dark correction enabled: true
Nonlinearity correction enabled: false
Boxcar width: 5
Stray light correction enabled: false
XAxis mode: Wavelengths
Stop averaging: false
Number of Pixels in Spectrum: 3648
>>>>>Begin Spectral Data<<<<<
177.575	17.03
177.794	116.19
178.014	-76.09
178.233	396.46
178.452	559.63
178.672	100.57
178.891	-6.32
179.11	2.02
179.33	-172.41
179.549	75.74
179.768	-177.89
179.987	-116.47
180.207	2108.19
180.426	-2186.67
180.645	-395.98
180.864	-168.29
181.084	-112.06
181.303	-133.83
181.522	-130.22
181.741	-104.81
181.96	-172.44
182.179	-117.22
182.398	-176.16
182.618	-28.34
182.837	-57.98
183.056	-177.76
183.275	11628
183.494	341.41
183.713	-1406.28
183.932	1621.2
184.151	341.95
184.37	768.04
184.589	238.59
184.808	165.56
185.027	165.39
185.246	151.07
185.465	83.89
185.684	-123.83
185.903	144.47
186.122	158.79
186.341	96.34
186.56	57.2
186.779	76.86
186.998	98.96
187.216	-146.08
187.435	19.35
187.654	-6.16
187.873	-560.92
188.092	2067.65
188.311	515.7
188.53	-148.4
188.748	-0.18
188.967	12.65
189.186	-68
189.405	-41.21
189.623	-121.93
189.842	106.66
190.061	77.4
190.28	130.87
190.498	114.71
190.717	15493.33
190.936	353.38
191.154	316.18
191.373	513.72
191.592	108.58
191.81	75.03
192.029	70.08
192.248	99.92
192.466	126.42
192.685	105.02
192.904	58.38
193.122	57.97
193.341	57.25
193.559	80.76
193.778	47.32
193.996	14.79
194.215	48.27
194.433	54.03
194.652	6.28
194.87	26.45
195.089	29.67
195.307	48.33
195.526	26.02
195.744	11.68
195.963	-25.54
196.181	-13.48
196.399	-27.43
196.618	-233.12
196.836	649.49
197.055	623.31
197.273	760.43
197.491	160.11
197.71	192.3
197.928	92.28
198.146	60.45
198.365	-83.86
198.583	30.48
198.801	27.16
199.019	92.44
199.238	-337.78
199.456	-1175.56
199.674	-353.7
199.892	139.96
200.111	-12.6
200.329	379.23
200.547	-69.98
200.765	-473.86
200.983	346.99
201.202	237.51
201.42	210.57
201.638	92.17
201.856	84.98
202.074	67.99
202.292	70.04
202.51	47.4
202.728	71.66
202.946	60.91
203.165	-26.16
203.383	-102.95
203.601	-123.8
203.819	-178.26
204.037	10.63
204.255	-95.96
204.473	478.86
204.691	323.14
204.909	-578.48
205.127	-53.5
205.345	-32.87
205.562	45.14
205.78	19.81
205.998	53.77
206.216	108.82
206.434	327.46
206.652	275.21
206.87	112.03
207.088	108.57
207.306	133
207.523	195.14
207.741	188.9
207.959	596.48
208.177	347.87
208.395	778.15
208.612	238.23
208.83	62.23
209.048	102.46
209.266	166.11
209.483	119.11
209.701	77.17
209.919	32.18
210.136	37.38
210.354	43.98
210.572	65.63
210.79	85.7
211.007	99.4
211.225	107.34
211.442	74.83
211.66	87.14
211.878	58.67
212.095	67.31
212.313	81.91
212.53	36.85
212.748	35.34
212.966	16.73
213.183	-1.72
213.401	21.86
213.618	2.89
213.836	8.53
214.053	27.75
214.271	43.31
214.488	35.29
214.705	28.31
214.923	36.43
215.14	24.43
215.358	35.97
215.575	36.26
215.793	30.1
216.01	50.31
216.227	46.1
216.445	30.26
216.662	10.11
216.879	-9.38
217.097	4.05
217.314	-5.27
217.531	5.74
217.749	-208.38
217.966	-209.5
218.183	-412.28
218.4	-232.89
218.618	-232.2
218.835	-281.97
219.052	-297.61
219.269	-70.96
219.487	-40.46
219.704	-39.78
219.921	-18.6
220.138	40.93
220.355	52.34
220.572	59.06
220.79	70.85
221.007	53.97
221.224	45.39
221.441	27.96
221.658	17.1
221.875	2.59
222.092	4
222.309	5.41
222.526	-18.05
222.743	-10.11
222.96	-11.46
223.177	-23.4
223.394	0.97
223.611	7.84
223.828	21.68
224.045	22.55
224.262	28.82
224.479	33.37
224.696	22.41
224.913	25.21
225.13	19.31
225.347	21.79
225.564	22.3
225.781	19.21
225.997	19.21
226.214	14.95
226.431	15.99
226.648	14.25
226.865	14.6
227.082	16.39
227.298	16.57
227.515	15.94
227.732	16.61
227.949	17.16
228.165	15.31
228.382	14.36
228.599	15.55
228.816	14.28
229.032	13.07
229.249	12.9
229.466	13.93
229.682	14.68
229.899	16.31
230.116	14.84
230.332	14.33
230.549	18.03
230.765	16.32
230.982	16
231.199	18.35
231.415	25.67
231.632	26.91
231.848	27.38
232.065	25.68
232.281	26.39
232.498	24.41
232.714	23.87
232.931	22.5
233.147	25.77
233.364	25.67
233.58	23.77
233.797	20.9
234.013	18.81
234.23	14.34
234.446	17.67
234.662	17.8
234.879	19.02
235.095	17.41
235.312	17.46
235.528	17.28
235.744	17.84
235.961	18.84
236.177	16.77
236.393	17.8
236.61	21.14
236.826	19.03
237.042	15.02
237.258	14.86
237.475	14.31
237.691	13.14
237.907	11.64
238.123	10.85
238.339	9.26
238.556	13.44
238.772	13.37
238.988	11.7
239.204	11.34
239.42	13.71
239.636	13.49
239.853	13.27
240.069	13.94
240.285	14.62
240.501	15.66
240.717	15.04
240.933	12.72
241.149	12.28
241.365	11.9
241.581	12.22
241.797	10.76
242.013	11.03
242.229	11.29
242.445	10.95
242.661	10.53
242.877	9.91
243.093	10.62
243.309	10.81
243.525	10.24
243.741	11.55
243.957	11.25
244.173	12.64
244.388	12.39
244.604	12.84
244.82	13.14
245.036	13.26
245.252	12.95
245.468	13.1
245.683	13.03
245.899	13.36
246.115	12.93
246.331	13.03
246.547	12.4
246.762	12.16
246.978	11.97
247.194	11.68
247.409	11.15
247.625	11.88
247.841	11.7
248.057	11.7
248.272	11.14
248.488	12.21
248.703	12.45
248.919	13.1
249.135	13.4
249.35	14.37
249.566	14.39
249.782	13.1
249.997	11.95
250.213	12.05
250.428	12.79
250.644	13.53
250.859	12.72
251.075	11.63
251.29	11.49
251.506	11.85
251.721	10.48
251.937	9.87
252.152	11.99
252.368	12.47
252.583	12.2
252.798	12.37
253.014	12.47
253.229	11.59
253.445	12
253.66	12.3
253.875	11.91
254.091	11.54
254.306	11.48
254.521	9.98
254.737	9.45
254.952	9.95
255.167	11.07
255.383	10.57
255.598	11.25
255.813	11.56
256.028	11.54
256.244	10.85
256.459	10.86
256.674	11.65
256.889	11.98
257.104	12.09
257.32	11.4
257.535	10.65
257.75	10.38
257.965	10.35
258.18	9.91
258.395	9.16
258.61	9.04
258.826	9.07
259.041	8.51
259.256	8.19
259.471	7.5
259.686	7.34
259.901	7.43
260.116	7.53
260.331	7.61
260.546	8.67
260.761	9.04
260.976	9.16
261.191	9.13
261.406	9.67
261.621	10.85
261.836	11.85
262.05	12.44
262.265	11.46
262.48	11.44
262.695	11.01
262.91	10.34
263.125	12.21
263.34	12.52
263.555	11.83
263.769	11.45
263.984	10.97
264.199	10.93
264.414	10.18
264.629	10.49
264.843	10.2
265.058	10.47
265.273	9.6
265.488	8.27
265.702	7.71
265.917	8.97
266.132	9.42
266.346	8.23
266.561	8.17
266.776	9.08
266.99	8.89
267.205	8.52
267.42	8.26
267.634	8.65
267.849	9.13
268.063	10.01
268.278	10.01
268.492	9.49
268.707	10.26
268.922	10
269.136	9.43
269.351	9.2
269.565	9.57
269.78	9.1
269.994	9.19
270.209	9.76
270.423	9.45
270.637	9.11
270.852	9.43
271.066	9.05
271.281	8.68
271.495	9.4
271.709	9.49
271.924	9.22
272.138	9.66
272.353	9.87
272.567	8.74
272.781	8.74
272.996	8.67
273.21	8.81
273.424	9.54
273.638	9.65
273.853	8.89
274.067	8.74
274.281	8.45
274.495	8.8
274.71	8.98
274.924	9.18
275.138	9.04
275.352	8.87
275.566	8.99
275.781	8.98
275.995	9.5
276.209	10.66
276.423	11.21
276.637	12.66
276.851	12.46
277.065	11.49
277.279	12.21
277.493	12.66
277.707	13.33
277.921	12.78
278.135	13.04
278.349	12.9
278.563	11.94
278.777	11.96
278.991	11.79
279.205	11.12
279.419	11.04
279.633	10.51
279.847	10.24
280.061	10.24
280.275	10.23
280.489	9.42
280.703	9.47
280.917	9.34
281.131	9.48
281.344	8.62
281.558	9.1
281.772	8.64
281.986	8.71
282.2	9.04
282.414	9.05
282.627	9.42
282.841	9.89
283.055	9.71
283.269	9.78
283.482	9.92
283.696	10.45
283.91	10.35
284.123	11.18
284.337	11.01
284.551	10.68
284.764	10.31
284.978	9.89
285.192	9.48
285.405	9.62
285.619	9.2
285.833	9.1
286.046	8.74
286.26	8.54
286.473	8.9
286.687	9.18
286.9	9.48
287.114	9.74
287.327	9.96
287.541	10.37
287.754	10.52
287.968	10.64
288.181	10.69
288.395	10.47
288.608	10.78
288.822	10.05
289.035	9.92
289.248	9.93
289.462	10.24
289.675	10.87
289.889	10.73
290.102	10.51
290.315	11.45
290.529	11.31
290.742	12.38
290.955	12.22
291.169	12.88
291.382	13.58
291.595	13.6
291.808	13.28
292.022	12.27
292.235	12
292.448	12.72
292.661	12.21
292.875	12.48
293.088	12.16
293.301	12.21
293.514	12.21
293.727	12.36
293.94	12.06
294.153	11.93
294.367	12.71
294.58	13
294.793	12.67
295.006	12.21
295.219	12.23
295.432	11.88
295.645	12.05
295.858	12.02
296.071	11.21
296.284	11.78
296.497	12.38
296.71	12.46
296.923	12.22
297.136	12.21
297.349	13.03
297.562	12.56
297.775	13.23
297.988	13.45
298.201	13.43
298.414	14.41
298.626	13.88
298.839	13.42
299.052	12.95
299.265	13.81
299.478	14.14
299.691	14.01
299.903	14.8
300.116	14.27
300.329	14.42
300.542	14.52
300.755	13.85
300.967	14.83
301.18	15.09
301.393	14.64
301.605	14.12
301.818	14.14
302.031	13.3
302.243	13.26
302.456	13.17
302.669	13.69
302.881	13.57
303.094	14.4
303.307	14.02
303.519	13.43
303.732	14.33
303.944	14.37
304.157	14.34
304.37	14.2
304.582	14.46
304.795	15.43
305.007	15.54
305.22	15.84
305.432	15.55
305.645	15.38
305.857	15.09
306.069	14.61
306.282	14.36
306.494	14.68
306.707	15.36
306.919	15.05
307.132	13.59
307.344	12.9
307.556	12.86
307.769	12.74
307.981	12.4
308.193	13.65
308.406	13.44
308.618	13.91
308.83	13.57
309.043	12.81
309.255	12.78
309.467	13.48
309.679	13.47
309.892	13.39
310.104	13.26
310.316	13.16
310.528	12.01
310.74	12.52
310.953	12
311.165	12.44
311.377	12.88
311.589	12.74
311.801	12.65
312.013	13.28
312.225	12.9
312.437	12.69
312.649	13.43
312.862	12.73
313.074	11.93
313.286	11.89
313.498	10.81
313.71	11.53
313.922	10.86
314.134	11.5
314.346	10.31
314.558	10.58
314.77	10.52
314.982	10.03
315.193	11.81
315.405	11.95
315.617	12.75
315.829	12.86
316.041	12.5
316.253	14.26
316.465	13.01
316.677	13.96
316.888	13.5
317.1	14.51
317.312	14.91
317.524	14.03
317.736	15.39
317.947	15.05
318.159	14.92
318.371	15.37
318.583	14.28
318.794	14.6
319.006	13.71
319.218	13.48
319.43	12.39
319.641	12.24
319.853	12.51
320.064	11.82
320.276	11.59
320.488	12
320.699	11.06
320.911	11.32
321.123	12.08
321.334	13
321.546	13.64
321.757	14.54
321.969	14
322.18	13.52
322.392	13.14
322.603	13.44
322.815	13.42
323.026	13.2
323.238	13.32
323.449	12.86
323.661	11.45
323.872	12.04
324.083	11.89
324.295	12.28
324.506	12.67
324.718	13.61
324.929	14.05
325.14	14.66
325.352	15.41
325.563	15.24
325.774	14.94
325.986	16.22
326.197	15.41
326.408	15.12
326.62	14.96
326.831	15.3
327.042	13.97
327.253	13.55
327.464	13.45
327.676	13.49
327.887	13.76
328.098	13.91
328.309	13.49
328.52	14.44
328.732	14.83
328.943	15.31
329.154	15.31
329.365	16.22
329.576	16.72
329.787	15.95
329.998	16.08
330.209	15.53
330.42	16.32
330.631	16.63
330.842	16.46
331.053	15.63
331.264	15.38
331.475	15.54
331.686	15.44
331.897	14.98
332.108	15.09
332.319	14.27
332.53	14.67
332.741	14.22
332.952	13.91
333.163	13.56
333.374	14.61
333.585	13.76
333.795	13.88
334.006	14.12
334.217	14.98
334.428	14.99
334.639	15.66
334.849	15.13
335.06	14.43
335.271	15.13
335.482	14.68
335.692	14.26
335.903	15.26
336.114	14.46
336.325	14.52
336.535	14.15
336.746	14.9
336.957	14.14
337.167	14.33
337.378	16.1
337.589	16.12
337.799	16.65
338.01	16.1
338.22	16.51
338.431	16.08
338.642	15.19
338.852	14.24
339.063	13.75
339.273	13.29
339.484	13.6
339.694	11.72
339.905	10.77
340.115	10.91
340.326	11.16
340.536	11.01
340.746	11.98
340.957	12.74
341.167	12.89
341.378	12.34
341.588	13.01
341.799	13.12
342.009	14.04
342.219	14.4
342.43	14.13
342.64	14.27
342.85	14.18
343.061	14
343.271	14.51
343.481	14.41
343.691	14.28
343.902	14.29
344.112	14.28
344.322	13.89
344.532	13.68
344.743	14.04
344.953	13.96
345.163	13.91
345.373	13.83
345.583	13.1
345.793	13.35
346.004	13.76
346.214	13.32
346.424	13.45
346.634	14.06
346.844	14.25
347.054	12.93
347.264	13.21
347.474	12.66
347.684	12.62
347.894	12.19
348.104	12.27
348.314	12.41
348.524	12.51
348.734	11.89
348.944	11.56
349.154	11.12
349.364	12.67
349.574	12.55
349.784	12.69
349.994	13.54
350.204	13.46
350.413	13.16
350.623	13.1
350.833	13.43
351.043	13.57
351.253	13.27
351.463	13.5
351.672	12.6
351.882	12.43
352.092	12.92
352.302	12.13
352.511	12.65
352.721	13.02
352.931	12.56
353.141	12.95
353.35	13.09
353.56	13.74
353.77	13.39
353.979	13.64
354.189	13.35
354.399	12.98
354.608	13.07
354.818	12.82
355.027	12.99
355.237	13.05
355.447	12.87
355.656	12.83
355.866	12.38
356.075	12.61
356.285	12.51
356.494	12.93
356.704	12.92
356.913	13.43
357.123	13.35
357.332	12.75
357.542	13.55
357.751	13.54
357.96	13.71
358.17	13.1
358.379	13.16
358.589	13.12
358.798	12.78
359.007	12.7
359.217	12.36
359.426	12.83
359.635	13.39
359.845	13.01
360.054	12.85
360.263	12.45
360.472	13.12
360.682	13.01
360.891	12.9
361.1	13.07
361.309	13.03
361.519	12.54
361.728	12.68
361.937	12.46
362.146	12.39
362.355	12.6
362.564	12.89
362.774	12.64
362.983	12.64
363.192	12.65
363.401	12.56
363.61	12.41
363.819	12.94
364.028	12.45
364.237	12.04
364.446	11.97
364.655	11.42
364.864	11.55
365.073	11.68
365.282	11.26
365.491	11
365.7	11.18
365.909	11.15
366.118	10.62
366.327	10.5
366.536	10.9
366.745	11.3
366.954	11.75
367.162	11.56
367.371	11.01
367.58	11.15
367.789	11.07
367.998	11.19
368.207	11.12
368.415	11.37
368.624	11.04
368.833	11.09
369.042	10.24
369.25	10.23
369.459	10.22
369.668	10.21
369.877	10.5
370.085	11.29
370.294	10.68
370.503	10.78
370.711	11.09
370.92	11.55
371.129	11.36
371.337	11.41
371.546	11.37
371.754	11.43
371.963	11.84
372.171	11.81
372.38	11.52
372.589	11.83
372.797	11.68
373.006	11.17
373.214	10.92
373.423	10.8
373.631	10.59
373.84	9.97
374.048	9.86
374.256	9.53
374.465	9.61
374.673	8.96
374.882	9.1
375.09	9.21
375.298	9.07
375.507	9.08
375.715	8.91
375.923	8.88
376.132	9.29
376.34	9.02
376.548	9.3
376.757	8.98
376.965	8.98
377.173	8.69
377.381	8.3
377.59	8.18
377.798	8.27
378.006	8.21
378.214	8.27
378.423	7.99
378.631	7.87
378.839	7.34
379.047	7.52
379.255	7.78
379.463	7.63
379.671	8.08
379.879	8.27
380.088	8
380.296	8.25
380.504	8.33
380.712	8.38
380.92	8.35
381.128	8.43
381.336	8.06
381.544	8.05
381.752	7.9
381.96	7.72
382.168	7.77
382.376	7.81
382.584	7.58
382.791	7.74
382.999	7.77
383.207	7.53
383.415	7.3
383.623	7.26
383.831	7.36
384.039	7.5
384.247	7.54
384.454	7.12
384.662	6.66
384.87	6.75
385.078	6.41
385.285	6.36
385.493	6.73
385.701	6.78
385.909	6.7
386.116	6.34
386.324	6.09
386.532	5.8
386.739	6.25
386.947	6.43
387.155	6.1
387.362	6.01
387.57	5.79
387.778	5.41
387.985	5.27
388.193	5.56
388.4	5.68
388.608	5.84
388.816	5.77
389.023	5.71
389.231	5.66
389.438	5.94
389.646	6.05
389.853	6.15
390.061	6.21
390.268	6.24
390.475	5.96
390.683	5.84
390.89	5.72
391.098	5.76
391.305	5.48
391.512	5.46
391.72	5.09
391.927	4.91
392.135	4.73
392.342	4.84
392.549	4.82
392.756	4.79
392.964	4.76
393.171	4.78
393.378	4.83
393.586	4.99
393.793	5.02
394	5.01
394.207	5
394.414	5.04
394.622	4.76
394.829	4.73
395.036	4.88
395.243	4.75
395.45	4.61
395.657	4.59
395.864	4.65
396.072	4.74
396.279	4.85
396.486	5.04
396.693	5.09
396.9	5.41
397.107	5.28
397.314	5.25
397.521	5.14
397.728	5.21
397.935	5.13
398.142	4.88
398.349	4.41
398.556	4.26
398.763	3.86
398.97	3.73
399.177	3.48
399.383	3.39
399.59	3.18
399.797	3.39
400.004	3.21
400.211	3.25
400.418	3.42
400.625	3.86
400.831	3.9
401.038	4.1
401.245	4.17
401.452	4.19
401.658	4.53
401.865	4.6
402.072	4.58
402.279	4.8
402.485	4.75
402.692	4.64
402.899	4.59
403.105	4.54
403.312	4.47
403.519	4.52
403.725	4.59
403.932	4.54
404.138	4.48
404.345	4.41
404.552	4.42
404.758	4.34
404.965	4.3
405.171	4.17
405.378	4.27
405.584	4.37
405.791	4.25
405.997	4.24
406.204	4.09
406.41	4.1
406.617	4.12
406.823	4.09
407.029	4.13
407.236	4.06
407.442	4.05
407.649	4.04
407.855	4.01
408.061	4.03
408.268	4
408.474	4.05
408.68	4
408.887	3.97
409.093	3.85
409.299	3.72
409.505	3.64
409.712	3.58
409.918	3.68
410.124	3.7
410.33	3.72
410.537	3.62
410.743	3.66
410.949	3.67
411.155	3.67
411.361	3.67
411.567	3.71
411.773	3.84
411.98	3.84
412.186	3.55
412.392	3.42
412.598	3.31
412.804	3.32
413.01	3.13
413.216	3.13
413.422	3.13
413.628	3.09
413.834	3.21
414.04	3.31
414.246	3.4
414.452	3.71
414.658	3.79
414.864	3.75
415.07	3.63
415.275	3.75
415.481	3.66
415.687	3.75
415.893	3.81
416.099	3.85
416.305	3.79
416.511	3.78
416.716	3.54
416.922	3.61
417.128	3.67
417.334	3.75
417.539	3.73
417.745	3.81
417.951	3.8
418.157	3.81
418.362	3.77
418.568	3.7
418.774	3.7
418.979	3.83
419.185	3.81
419.391	3.7
419.596	3.68
419.802	3.67
420.008	3.63
420.213	3.58
420.419	3.57
420.624	3.59
420.83	3.61
421.035	3.56
421.241	3.48
421.446	3.48
421.652	3.52
421.857	3.58
422.063	3.64
422.268	3.62
422.474	3.6
422.679	3.53
422.885	3.46
423.09	3.5
423.295	3.5
423.501	3.56
423.706	3.51
423.911	3.51
424.117	3.42
424.322	3.3
424.527	3.34
424.733	3.38
424.938	3.48
425.143	3.43
425.349	3.37
425.554	3.42
425.759	3.42
425.964	3.39
426.169	3.33
426.375	3.31
426.58	3.48
426.785	3.48
426.99	3.47
427.195	3.36
427.4	3.41
427.605	3.4
427.811	3.41
428.016	3.3
428.221	3.27
428.426	3.34
428.631	3.43
428.836	3.34
429.041	3.28
429.246	3.31
429.451	3.42
429.656	3.39
429.861	3.34
430.066	3.38
430.271	3.43
430.476	3.46
430.681	3.36
430.886	3.34
431.09	3.34
431.295	3.43
431.5	3.35
431.705	3.25
431.91	3.33
432.115	3.34
432.32	3.3
432.524	3.17
432.729	3.25
432.934	3.46
433.139	3.39
433.343	3.41
433.548	3.29
433.753	3.29
433.958	3.39
434.162	3.35
434.367	3.46
434.572	3.44
434.776	3.52
434.981	3.44
435.186	3.36
435.39	3.4
435.595	3.32
435.799	3.34
436.004	3.36
436.209	3.23
436.413	3.28
436.618	3.24
436.822	3.2
437.027	3.22
437.231	3.16
437.436	3.19
437.64	3.14
437.845	3.19
438.049	3.17
438.253	3.18
438.458	3.19
438.662	3.18
438.867	3.13
439.071	3.15
439.275	3.1
439.48	3.17
439.684	3.17
439.888	3.14
440.093	3.12
440.297	3.13
440.501	3.16
440.706	3.19
440.91	3.15
441.114	3.13
441.318	3.12
441.523	3.19
441.727	3.21
441.931	3.16
442.135	3.32
442.339	3.38
442.543	3.42
442.748	3.38
442.952	3.39
443.156	3.36
443.36	3.42
443.564	3.4
443.768	3.33
443.972	3.24
444.176	3.14
444.38	3.02
444.584	2.98
444.788	2.98
444.992	3.04
445.196	2.92
445.4	2.94
445.604	2.87
445.808	2.86
446.012	2.89
446.216	2.89
446.42	2.96
446.624	2.96
446.828	2.97
447.032	2.99
447.235	2.83
447.439	2.94
447.643	2.96
447.847	2.98
448.051	2.96
448.254	2.95
448.458	3.01
448.662	3.04
448.866	3.14
449.069	3.14
449.273	3.11
449.477	3.2
449.681	3.21
449.884	3.18
450.088	3.22
450.292	3.14
450.495	3.14
450.699	3.18
450.902	3.13
451.106	3.07
451.31	3.05
451.513	3.1
451.717	3.01
451.92	3.02
452.124	3.11
452.327	3.05
452.531	3.22
452.734	3.2
452.938	3.1
453.141	3.02
453.345	3.1
453.548	3.06
453.752	3.03
453.955	3.16
454.158	3.12
454.362	3
454.565	3.14
454.769	3
454.972	3.12
455.175	3.16
455.379	3.26
455.582	3.17
455.785	3.15
455.988	3.15
456.192	3.13
456.395	3.1
456.598	3.13
456.801	3.05
457.005	3
457.208	2.89
457.411	2.95
457.614	2.97
457.817	2.99
458.021	3.08
458.224	3.03
458.427	3.03
458.63	3.03
458.833	2.99
459.036	2.99
459.239	2.98
459.442	3
459.645	2.98
459.848	2.98
460.051	2.99
460.254	3.02
460.457	3.13
460.66	3.07
460.863	3.1
461.066	3.12
461.269	3.11
461.472	3.32
461.675	3.35
461.878	3.31
462.081	3.31
462.284	3.36
462.486	3.21
462.689	3.11
462.892	3.23
463.095	3.24
463.298	3.18
463.5	3.13
463.703	3.03
463.906	2.94
464.109	2.88
464.311	2.93
464.514	2.89
464.717	2.81
464.92	2.81
465.122	2.82
465.325	2.77
465.528	2.98
465.73	3.05
465.933	3.02
466.135	3.16
466.338	3.18
466.541	3.18
466.743	3.08
466.946	3.17
467.148	3.18
467.351	3.18
467.553	3.21
467.756	3.11
467.958	3.15
468.161	3.17
468.363	3.1
468.566	3.1
468.768	3.07
468.971	3.11
469.173	3.02
469.375	3.13
469.578	3.06
469.78	3.1
469.983	3.17
470.185	3.14
470.387	3.04
470.59	3.15
470.792	3.31
470.994	3.33
471.196	3.41
471.399	3.51
471.601	3.52
471.803	3.61
472.005	3.67
472.208	3.62
472.41	3.57
472.612	3.67
472.814	3.52
473.016	3.45
473.218	3.36
473.421	3.3
473.623	3.34
473.825	3.26
474.027	3.13
474.229	3.05
474.431	3.02
474.633	2.99
474.835	2.9
475.037	2.95
475.239	2.88
475.441	3.05
475.643	3.09
475.845	3.08
476.047	3.02
476.249	3.16
476.451	3.14
476.653	3.13
476.855	3.15
477.057	3.31
477.258	3.32
477.46	3.34
477.662	3.29
477.864	3.25
478.066	3.25
478.268	3.22
478.469	3.04
478.671	3.03
478.873	3.04
479.075	3.14
479.276	3.06
479.478	3.05
479.68	3.02
479.882	2.98
480.083	2.98
480.285	2.97
480.487	3.05
480.688	3.08
480.89	3.15
481.091	3.16
481.293	3.09
481.495	3.11
481.696	3.12
481.898	3.1
482.099	3.08
482.301	3.1
482.502	3.1
482.704	3.08
482.905	3.07
483.107	3.05
483.308	3.05
483.51	3.05
483.711	3.05
483.913	3.04
484.114	3.05
484.315	3.08
484.517	3.06
484.718	3.06
484.92	3.1
485.121	3.14
485.322	3.15
485.524	3.13
485.725	3.13
485.926	3.15
486.127	3.17
486.329	3.17
486.53	3.15
486.731	3.12
486.932	3.1
487.134	3.04
487.335	3.04
487.536	3.06
487.737	3.05
487.938	3.03
488.139	3.01
488.341	3.03
488.542	3.05
488.743	3.09
488.944	3.13
489.145	3.15
489.346	3.24
489.547	3.2
489.748	3.16
489.949	3.15
490.15	3.21
490.351	3.21
490.552	3.21
490.753	3.19
490.954	3.19
491.155	3.21
491.356	3.17
491.557	3.13
491.758	3.16
491.959	3.12
492.159	3.13
492.36	3.1
492.561	3.08
492.762	3.02
492.963	3.01
493.164	3.01
493.364	3
493.565	3.16
493.766	3.11
493.967	3.08
494.167	3.16
494.368	3.15
494.569	3.19
494.769	3.15
494.97	3.17
495.171	3.17
495.371	3.1
495.572	3.17
495.773	3.11
495.973	3.12
496.174	3.13
496.375	3.17
496.575	3.12
496.776	3.15
496.976	3.24
497.177	3.27
497.377	3.3
497.578	3.31
497.778	3.27
497.979	3.27
498.179	3.3
498.38	3.29
498.58	3.29
498.78	3.4
498.981	3.34
499.181	3.29
499.382	3.33
499.582	3.36
499.782	3.47
499.983	3.51
500.183	3.41
500.383	3.48
500.584	3.52
500.784	3.54
500.984	3.49
501.184	3.5
501.385	3.62
501.585	3.61
501.785	3.59
501.985	3.52
502.185	3.51
502.386	3.59
502.586	3.51
502.786	3.55
502.986	3.59
503.186	3.59
503.386	3.58
503.586	3.5
503.786	3.45
503.987	3.49
504.187	3.47
504.387	3.53
504.587	3.56
504.787	3.59
504.987	3.51
505.187	3.47
505.387	3.58
505.587	3.63
505.786	3.67
505.986	3.72
506.186	3.69
506.386	3.77
506.586	3.7
506.786	3.69
506.986	3.69
507.186	3.78
507.386	3.83
507.585	3.77
507.785	3.73
507.985	3.66
508.185	3.64
508.384	3.67
508.584	3.63
508.784	3.57
508.984	3.61
509.183	3.61
509.383	3.6
509.583	3.54
509.782	3.59
509.982	3.66
510.182	3.72
510.381	3.82
510.581	3.82
510.781	3.84
510.98	3.95
511.18	3.97
511.379	4.04
511.579	4.07
511.778	4.08
511.978	4.06
512.177	4
512.377	4.04
512.576	3.94
512.776	3.94
512.975	3.95
513.175	3.86
513.374	3.84
513.573	3.85
513.773	3.77
513.972	3.77
514.172	3.81
514.371	3.87
514.57	3.82
514.77	3.91
514.969	3.97
515.168	4.03
515.367	4.12
515.567	4.18
515.766	4.18
515.965	4.23
516.164	4.28
516.364	4.32
516.563	4.3
516.762	4.3
516.961	4.32
517.16	4.31
517.359	4.28
517.559	4.27
517.758	4.28
517.957	4.27
518.156	4.31
518.355	4.29
518.554	4.3
518.753	4.32
518.952	4.32
519.151	4.28
519.35	4.27
519.549	4.27
519.748	4.24
519.947	4.23
520.146	4.23
520.345	4.13
520.544	4.2
520.743	4.16
520.942	4.12
521.141	4.19
521.339	4.29
521.538	4.33
521.737	4.36
521.936	4.48
522.135	4.51
522.333	4.53
522.532	4.57
522.731	4.59
522.93	4.52
523.129	4.53
523.327	4.55
523.526	4.5
523.725	4.44
523.923	4.48
524.122	4.46
524.321	4.45
524.519	4.45
524.718	4.51
524.917	4.48
525.115	4.56
525.314	4.62
525.512	4.64
525.711	4.66
525.909	4.71
526.108	4.71
526.306	4.71
526.505	4.7
526.703	4.71
526.902	4.7
527.1	4.71
527.299	4.72
527.497	4.76
527.696	4.76
527.894	4.8
528.092	4.79
528.291	4.8
528.489	4.79
528.688	4.81
528.886	4.81
529.084	4.83
529.283	4.87
529.481	4.87
529.679	4.81
529.877	4.82
530.076	4.8
530.274	4.84
530.472	4.84
530.67	4.93
530.869	4.95
531.067	4.92
531.265	4.93
531.463	4.94
531.661	4.99
531.859	5.02
532.057	5.06
532.255	5.04
532.454	5.1
532.652	5.1
532.85	5.1
533.048	5.13
533.246	5.23
533.444	5.28
533.642	5.34
533.84	5.32
534.038	5.35
534.236	5.32
534.434	5.32
534.632	5.3
534.83	5.37
535.027	5.38
535.225	5.39
535.423	5.33
535.621	5.37
535.819	5.31
536.017	5.38
536.215	5.38
536.412	5.37
536.61	5.44
536.808	5.46
537.006	5.45
537.203	5.48
537.401	5.48
537.599	5.5
537.797	5.54
537.994	5.65
538.192	5.59
538.39	5.66
538.587	5.8
538.785	5.81
538.983	5.89
539.18	5.93
539.378	5.93
539.575	5.98
539.773	6.04
539.97	6.01
540.168	6
540.366	6.06
540.563	6.02
540.761	6.02
540.958	6.01
541.155	6.02
541.353	6.03
541.55	6.05
541.748	6.05
541.945	6.07
542.143	6.12
542.34	6.14
542.537	6.14
542.735	6.2
542.932	6.2
543.129	6.27
543.327	6.24
543.524	6.28
543.721	6.35
543.919	6.42
544.116	6.46
544.313	6.51
544.51	6.56
544.708	6.64
544.905	6.65
545.102	6.72
545.299	6.67
545.496	6.76
545.693	6.8
545.891	6.79
546.088	6.79
546.285	6.75
546.482	6.84
546.679	6.83
546.876	6.85
547.073	6.92
547.27	6.96
547.467	7.05
547.664	7.06
547.861	7.08
548.058	7.14
548.255	7.17
548.452	7.24
548.649	7.26
548.846	7.33
549.043	7.34
549.24	7.48
549.437	7.46
549.633	7.49
549.83	7.55
550.027	7.59
550.224	7.61
550.421	7.75
550.618	7.82
550.814	7.81
551.011	7.81
551.208	7.85
551.405	7.87
551.601	7.99
551.798	8.12
551.995	8.22
552.191	8.23
552.388	8.32
552.585	8.33
552.781	8.34
552.978	8.42
553.175	8.51
553.371	8.58
553.568	8.54
553.764	8.53
553.961	8.53
554.157	8.53
554.354	8.76
554.55	8.83
554.747	8.84
554.943	8.89
555.14	8.93
555.336	9.03
555.533	9.11
555.729	9.06
555.926	9.09
556.122	9.1
556.318	9.14
556.515	9.07
556.711	9.04
556.907	9.18
557.104	9.25
557.3	9.31
557.496	9.38
557.693	9.47
557.889	9.67
558.085	9.7
558.281	9.85
558.478	10.15
558.674	10.17
558.87	10.24
559.066	10.19
559.262	10.35
559.459	10.36
559.655	10.31
559.851	10.23
560.047	10.26
560.243	10.27
560.439	10.23
560.635	10
560.831	10.16
561.027	10.16
561.223	10.19
561.419	10.12
561.615	10.07
561.811	10.19
562.007	10.43
562.203	10.34
562.399	10.53
562.595	10.63
562.791	10.76
562.987	10.8
563.183	10.95
563.379	11.08
563.575	11.23
563.771	11.33
563.966	11.34
564.162	11.28
564.358	11.46
564.554	11.48
564.75	11.58
564.945	11.54
565.141	11.51
565.337	11.61
565.533	11.56
565.728	11.55
565.924	11.7
566.12	11.82
566.315	11.87
566.511	11.98
566.707	12.01
566.902	12.06
567.098	12.18
567.293	12.3
567.489	12.27
567.684	12.41
567.88	12.62
568.076	12.54
568.271	12.6
568.467	12.64
568.662	12.71
568.858	12.8
569.053	12.78
569.248	12.8
569.444	12.81
569.639	12.82
569.835	12.77
570.03	12.61
570.225	12.72
570.421	12.65
570.616	12.75
570.812	12.82
571.007	12.84
571.202	12.92
571.397	13
571.593	12.96
571.788	13.07
571.983	13.24
572.178	13.31
572.374	13.42
572.569	13.5
572.764	13.55
572.959	13.51
573.154	13.57
573.35	13.6
573.545	13.66
573.74	13.74
573.935	13.78
574.13	13.74
574.325	13.87
574.52	13.83
574.715	13.98
574.91	13.88
575.105	13.95
575.3	13.95
575.495	14.05
575.69	14.05
575.885	14.03
576.08	13.99
576.275	14.09
576.47	14.03
576.665	14.06
576.86	13.96
577.055	14.18
577.25	14.24
577.444	14.41
577.639	14.37
577.834	14.33
578.029	14.52
578.224	14.49
578.418	14.61
578.613	14.73
578.808	14.82
579.003	14.76
579.197	14.69
579.392	14.7
579.587	14.68
579.781	14.68
579.976	14.83
580.171	14.81
580.365	14.87
580.56	14.71
580.755	14.76
580.949	14.69
581.144	14.8
581.338	14.69
581.533	14.72
581.727	14.7
581.922	14.73
582.116	14.75
582.311	14.79
582.505	14.88
582.7	14.93
582.894	14.75
583.089	14.82
583.283	14.88
583.478	14.97
583.672	14.98
583.866	14.94
584.061	14.79
584.255	14.89
584.449	14.87
584.644	14.8
584.838	14.88
585.032	15.14
585.226	15.16
585.421	15.16
585.615	15.17
585.809	15.18
586.003	15.34
586.198	15.44
586.392	15.42
586.586	15.38
586.78	15.63
586.974	15.75
587.168	15.67
587.363	15.74
587.557	15.72
587.751	15.71
587.945	15.73
588.139	15.67
588.333	15.85
588.527	15.75
588.721	15.93
588.915	15.72
589.109	15.6
589.303	15.66
589.497	15.57
589.691	15.62
589.885	15.81
590.079	15.81
590.273	15.89
590.466	15.83
590.66	15.87
590.854	15.86
591.048	16
591.242	15.99
591.436	15.9
591.629	15.88
591.823	15.95
592.017	15.84
592.211	15.98
592.404	15.92
592.598	15.92
592.792	15.95
592.986	15.88
593.179	15.83
593.373	15.87
593.567	15.98
593.76	16.15
593.954	15.95
594.147	16.1
594.341	16
594.535	16.04
594.728	16.13
594.922	16.34
595.115	16.37
595.309	16.49
595.502	16.49
595.696	16.49
595.889	16.47
596.083	16.6
596.276	16.54
596.47	16.56
596.663	16.45
596.856	16.45
597.05	16.4
597.243	16.42
597.437	16.34
597.63	16.44
597.823	16.52
598.017	16.5
598.21	16.64
598.403	16.72
598.596	16.69
598.79	16.76
598.983	16.7
599.176	16.66
599.369	16.61
599.563	16.47
599.756	16.31
599.949	16.14
600.142	16.17
600.335	16.06
600.528	16.15
600.722	16.14
600.915	16.27
601.108	16.39
601.301	16.32
601.494	16.35
601.687	16.5
601.88	16.54
602.073	16.56
602.266	16.63
602.459	16.63
602.652	16.55
602.845	16.6
603.038	16.59
603.231	16.53
603.424	16.6
603.617	16.69
603.809	16.73
604.002	16.76
604.195	16.83
604.388	16.74
604.581	16.68
604.774	16.58
604.966	16.44
605.159	16.33
605.352	16.25
605.545	16.29
605.737	16.12
605.93	16.08
606.123	16.18
606.316	16.1
606.508	16.33
606.701	16.55
606.894	16.65
607.086	16.77
607.279	16.87
607.471	16.96
607.664	16.88
607.857	17.02
608.049	17.06
608.242	16.94
608.434	17.14
608.627	17.01
608.819	16.93
609.012	16.86
609.204	16.99
609.397	17.02
609.589	17.08
609.782	17.09
609.974	17.02
610.166	16.9
610.359	17.06
610.551	16.81
610.743	16.79
610.936	16.65
611.128	16.74
611.32	16.84
611.513	16.77
611.705	16.72
611.897	16.89
612.09	16.91
612.282	16.95
612.474	16.74
612.666	16.74
612.858	16.9
613.051	17
613.243	16.92
613.435	16.81
613.627	16.85
613.819	16.67
614.011	16.55
614.203	16.69
614.395	16.87
614.588	17.1
614.78	17.21
614.972	17.17
615.164	17.16
615.356	17.25
615.548	17.16
615.74	17.17
615.932	17.33
616.124	17.17
616.315	17.1
616.507	17.03
616.699	16.95
616.891	16.92
617.083	16.77
617.275	16.95
617.467	16.91
617.659	16.93
617.85	16.9
618.042	16.73
618.234	17.01
618.426	16.9
618.618	16.93
618.809	16.93
619.001	16.95
619.193	17.01
619.384	17.01
619.576	17.06
619.768	17.14
619.959	17.11
620.151	17.34
620.343	17.14
620.534	17.22
620.726	17.13
620.917	16.91
621.109	16.86
621.301	17.01
621.492	17
621.684	16.87
621.875	16.82
622.067	16.99
622.258	16.89
622.45	17.07
622.641	17.15
622.832	17.12
623.024	17.33
623.215	17.48
623.407	17.41
623.598	17.4
623.789	17.54
623.981	17.5
624.172	17.4
624.363	17.4
624.555	17.37
624.746	17.47
624.937	17.5
625.129	17.6
625.32	17.54
625.511	17.48
625.702	17.41
625.893	17.4
626.085	17.43
626.276	17.49
626.467	17.48
626.658	17.61
626.849	17.49
627.04	17.61
627.231	17.61
627.422	17.69
627.614	17.87
627.805	17.96
627.996	18.02
628.187	18.05
628.378	17.89
628.569	18.01
628.76	17.68
628.951	17.55
629.142	17.52
629.332	17.33
629.523	17.2
629.714	17.14
629.905	17.01
630.096	16.98
630.287	16.92
630.478	17.06
630.669	16.9
630.859	17.09
631.05	17.15
631.241	17.04
631.432	17.15
631.623	17.25
631.813	17.23
632.004	17.18
632.195	17.14
632.385	17.12
632.576	17.17
632.767	17.2
632.957	17.29
633.148	17.45
633.339	17.62
633.529	17.63
633.72	17.67
633.91	17.58
634.101	17.7
634.292	17.88
634.482	18
634.673	18.06
634.863	18.16
635.054	18.04
635.244	17.81
635.435	17.72
635.625	17.73
635.815	17.73
636.006	17.7
636.196	17.61
636.387	17.55
636.577	17.43
636.767	17.25
636.958	17.27
637.148	17.29
637.338	17.47
637.529	17.33
637.719	17.29
637.909	17.28
638.099	17.44
638.29	17.39
638.48	17.26
638.67	17.33
638.86	17.38
639.05	17.51
639.241	17.48
639.431	17.37
639.621	17.52
639.811	17.64
640.001	17.44
640.191	17.32
640.381	17.51
640.571	17.55
640.761	17.54
640.951	17.44
641.141	17.24
641.331	17.19
641.521	17.31
641.711	17.2
641.901	16.98
642.091	17.08
642.281	17.11
642.471	16.9
642.661	16.92
642.851	17.15
643.041	17.19
643.231	17.24
643.42	17.3
643.61	17.27
643.8	17.28
643.99	17.38
644.18	17.4
644.369	17.52
644.559	17.72
644.749	17.84
644.939	17.4
645.128	17.53
645.318	17.42
645.508	17.42
645.697	17.14
645.887	17.15
646.076	17.11
646.266	16.9
646.456	16.84
646.645	16.84
646.835	16.71
647.024	16.96
647.214	16.91
647.403	16.82
647.593	16.86
647.782	17.07
647.972	17.21
648.161	17.5
648.351	17.71
648.54	17.73
648.73	17.7
648.919	17.75
649.108	17.74
649.298	17.87
649.487	18.06
649.677	18.07
649.866	18.22
650.055	18.3
650.244	18.14
650.434	18.36
650.623	18.05
650.812	18.13
651.002	18.01
651.191	18.12
651.38	18.18
651.569	18.11
651.758	18.02
651.947	18.03
652.137	18.06
652.326	17.99
652.515	17.65
652.704	18.05
652.893	17.78
653.082	17.89
653.271	18.02
653.46	17.79
653.649	17.78
653.838	17.85
654.027	17.61
654.216	17.51
654.405	17.45
654.594	17.65
654.783	17.53
654.972	17.84
655.161	17.78
655.35	17.63
655.539	17.83
655.728	17.79
655.916	17.75
656.105	17.65
656.294	17.81
656.483	17.87
656.672	17.92
656.86	17.83
657.049	17.79
657.238	17.89
657.427	17.87
657.615	17.78
657.804	17.92
657.993	18.09
658.181	18.39
658.37	18.06
658.559	17.98
658.747	17.86
658.936	17.98
659.125	18.37
659.313	18.52
659.502	18.39
659.69	18.5
659.879	18.46
660.067	18.25
660.256	18.07
660.444	18.16
660.633	18.22
660.821	18.26
661.01	18.15
661.198	17.7
661.387	17.51
661.575	17.57
661.763	17.41
661.952	17.43
662.14	17.55
662.328	17.64
662.517	17.63
662.705	17.59
662.893	17.89
663.082	17.85
663.27	17.83
663.458	17.74
663.646	17.88
663.834	17.96
664.023	18.27
664.211	18.55
664.399	18.73
664.587	18.76
664.775	18.88
664.963	18.32
665.152	18.41
665.34	18.57
665.528	18.55
665.716	18.68
665.904	18.73
666.092	18.38
666.28	18.25
666.468	17.89
666.656	18.02
666.844	18.27
667.032	18.61
667.22	18.44
667.408	18.29
667.596	18.37
667.784	18.06
667.971	18.08
668.159	17.93
668.347	18.01
668.535	18.16
668.723	18.08
668.911	18.02
669.098	18.03
669.286	18.36
669.474	18.37
669.662	18.39
669.849	18.36
670.037	18.19
670.225	18.45
670.413	18.06
670.6	18.23
670.788	18.01
670.976	17.89
671.163	17.97
671.351	17.76
671.538	17.89
671.726	17.76
671.913	17.77
672.101	17.59
672.289	17.3
672.476	17.21
672.664	17.14
672.851	17.46
673.039	17.45
673.226	17.27
673.413	17.24
673.601	16.88
673.788	16.78
673.976	16.97
674.163	17.35
674.35	17.42
674.538	17.78
674.725	17.64
674.912	17.49
675.1	17.52
675.287	17.59
675.474	17.64
675.662	17.77
675.849	17.98
676.036	18.13
676.223	18.19
676.411	18.34
676.598	18.22
676.785	18.22
676.972	18.67
677.159	18.75
677.346	18.84
677.533	18.94
677.721	19.08
677.908	18.92
678.095	18.76
678.282	18.63
678.469	18.55
678.656	18.74
678.843	18.83
679.03	18.41
679.217	18.35
679.404	18.45
679.591	18.41
679.778	18.48
679.964	18.58
680.151	18.64
680.338	18.6
680.525	18.76
680.712	18.41
680.899	18.37
681.086	18.66
681.272	18.46
681.459	18.33
681.646	18.18
681.833	18.11
682.02	18.19
682.206	18.13
682.393	18.17
682.58	18.13
682.766	18.37
682.953	18.46
683.14	18.23
683.326	18.59
683.513	18.72
683.7	19.02
683.886	18.9
684.073	18.89
684.259	18.79
684.446	18.75
684.632	18.57
684.819	18.48
685.005	18.39
685.192	18.52
685.378	18.35
685.565	18.37
685.751	18.27
685.938	18.26
686.124	18.08
686.31	18.14
686.497	18.11
686.683	18.26
686.87	17.94
687.056	17.96
687.242	17.81
687.429	17.63
687.615	17.44
687.801	17.22
687.987	17.33
688.174	17.66
688.36	17.88
688.546	17.79
688.732	17.72
688.918	18.22
689.105	18.26
689.291	18
689.477	18.56
689.663	18.39
689.849	18.6
690.035	18.42
690.221	18.44
690.407	18.42
690.593	18.49
690.779	18.74
690.965	18.51
691.151	18.38
691.337	18.57
691.523	18.33
691.709	18.74
691.895	19.12
692.081	19.55
692.267	19.22
692.453	19.24
692.639	19.26
692.825	18.89
693.011	18.87
693.196	18.95
693.382	19.06
693.568	18.8
693.754	18.51
693.94	18.2
694.125	17.6
694.311	17.46
694.497	17.19
694.682	17.3
694.868	17.43
695.054	17.43
695.239	17.32
695.425	17.15
695.611	17.4
695.796	17.45
695.982	17.2
696.168	17.39
696.353	17.36
696.539	17.44
696.724	17.46
696.91	17.72
697.095	17.81
697.281	17.97
697.466	18.15
697.652	18.16
697.837	18.04
698.023	18.2
698.208	18.33
698.393	18.58
698.579	18.52
698.764	18.46
698.949	18.42
699.135	18.37
699.32	18.4
699.505	18.29
699.691	18.22
699.876	18.38
700.061	18.2
700.246	17.98
700.432	17.85
700.617	17.77
700.802	17.74
700.987	17.77
701.172	17.86
701.358	17.83
701.543	17.66
701.728	17.29
701.913	17.14
702.098	17.17
702.283	17.45
702.468	17.51
702.653	17.73
702.838	17.87
703.023	17.79
703.208	17.68
703.393	17.54
703.578	18.02
703.763	18.3
703.948	18.54
704.133	18.36
704.318	18.18
704.503	18.2
704.688	18.11
704.873	18.12
705.057	18.29
705.242	18.42
705.427	18.31
705.612	18.45
705.797	18.47
705.981	18.41
706.166	18.89
706.351	18.71
706.536	18.71
706.72	18.84
706.905	18.94
707.09	18.65
707.274	18.65
707.459	18.69
707.644	18.31
707.828	18.3
708.013	17.87
708.197	18.17
708.382	18.37
708.567	18.23
708.751	18.14
708.936	18.12
709.12	18.23
709.305	18
709.489	17.97
709.673	18.2
709.858	17.93
710.042	18.61
710.227	18.05
710.411	18.09
710.596	18.2
710.78	18.05
710.964	17.89
711.149	17.85
711.333	18.15
711.517	18.39
711.702	18.05
711.886	18.37
712.07	18.21
712.254	18.4
712.438	18.29
712.623	18.04
712.807	17.98
712.991	18.16
713.175	18.4
713.359	18.41
713.544	18.35
713.728	18.91
713.912	18.79
714.096	18.66
714.28	18.54
714.464	18.58
714.648	18.91
714.832	18.99
715.016	18.92
715.2	18.38
715.384	18.08
715.568	18.09
715.752	17.65
715.936	18.03
716.12	17.91
716.304	18.05
716.488	18.07
716.671	17.76
716.855	18.13
717.039	18.02
717.223	18.29
717.407	18.4
717.59	18.26
717.774	18.28
717.958	17.93
718.142	17.72
718.325	17.36
718.509	17.3
718.693	17.78
718.877	17.5
719.06	17.76
719.244	17.78
719.428	17.86
719.611	18.03
719.795	18.37
719.978	18.39
720.162	18.81
720.345	19.35
720.529	19.68
720.713	19.59
720.896	19.74
721.08	19.11
721.263	18.96
721.446	19
721.63	18.72
721.813	18.27
721.997	18.44
722.18	18.12
722.364	17.43
722.547	16.94
722.73	16.77
722.914	16.7
723.097	17.05
723.28	17.18
723.464	17.38
723.647	17.62
723.83	17.72
724.013	17.75
724.197	17.96
724.38	18.05
724.563	18.09
724.746	18.31
724.929	18.49
725.112	18.88
725.296	18.68
725.479	18.41
725.662	18.4
725.845	18.67
726.028	18.7
726.211	18.79
726.394	19.08
726.577	18.67
726.76	18.29
726.943	17.81
727.126	17.6
727.309	17.78
727.492	17.95
727.675	17.72
727.858	17.7
728.041	17.79
728.224	17.95
728.407	18.02
728.589	18.56
728.772	18.77
728.955	19.22
729.138	19.39
729.321	19.3
729.503	18.67
729.686	18.56
729.869	18.44
730.052	17.99
730.234	17.78
730.417	17.65
730.6	17.48
730.782	17.44
730.965	16.99
731.148	16.98
731.33	17.12
731.513	17.32
731.695	17.43
731.878	17.06
732.061	17.08
732.243	16.94
732.426	17.14
732.608	17.45
732.791	17.36
732.973	17.48
733.156	16.99
733.338	17.07
733.52	17.27
733.703	16.91
733.885	17.17
734.068	17.05
734.25	16.92
734.432	16.74
734.615	16.75
734.797	17.18
734.979	17.14
735.162	16.93
735.344	16.77
735.526	16.82
735.708	17.31
735.891	17.63
736.073	18.07
736.255	18.49
736.437	18.41
736.619	18.46
736.802	18.49
736.984	18.43
737.166	18.84
737.348	18.12
737.53	18.28
737.712	18.38
737.894	18.15
738.076	18.02
738.258	17.57
738.44	17.58
738.622	17.54
738.804	17.54
738.986	17.18
739.168	17.07
739.35	17.49
739.532	17.16
739.714	17.05
739.896	17.46
740.078	17.1
740.259	17.54
740.441	17.67
740.623	17.69
740.805	17.49
740.987	17.93
741.168	18
741.35	18.05
741.532	18.53
741.714	17.86
741.895	17.36
742.077	17.91
742.259	18.3
742.44	18.37
742.622	18.01
742.804	17.7
742.985	18.02
743.167	18.16
743.348	18.16
743.53	17.34
743.711	17.89
743.893	18.03
744.075	17.65
744.256	17.75
744.438	17.79
744.619	17.45
744.8	16.71
744.982	16.74
745.163	17.09
745.345	17.28
745.526	17.59
745.707	17.99
745.889	17.88
746.07	18.04
746.252	17.54
746.433	17.22
746.614	17.33
746.795	17.91
746.977	17.54
747.158	16.98
747.339	17.41
747.52	18.09
747.702	18.7
747.883	18.87
748.064	19.03
748.245	18.26
748.426	18.37
748.607	18.87
748.788	18.72
748.97	19.32
749.151	19.33
749.332	19.22
749.513	19.12
749.694	18.18
749.875	18.46
750.056	18.61
750.237	19.61
750.418	19.1
750.599	18.91
750.78	19.51
750.96	19.07
751.141	19.83
751.322	19.27
751.503	18.9
751.684	19.33
751.865	18.61
752.046	18.18
752.226	17.61
752.407	18.49
752.588	18.4
752.769	17.78
752.949	18.01
753.13	17.7
753.311	18.28
753.492	18.41
753.672	18.44
753.853	18.93
754.034	19.53
754.214	19.79
754.395	19.77
754.575	20.28
754.756	20.75
754.937	20.75
755.117	20.78
755.298	20.88
755.478	20.43
755.659	20.14
755.839	20.24
756.02	19.83
756.2	19.74
756.381	18.85
756.561	18.4
756.741	18.31
756.922	18.36
757.102	17.95
757.283	17.36
757.463	17.75
757.643	17.5
757.823	17.34
758.004	16.4
758.184	16.11
758.364	16.6
758.545	16.88
758.725	17.01
758.905	16.96
759.085	17.25
759.265	17.69
759.446	18.06
759.626	17.99
759.806	17.6
759.986	18.83
760.166	18.15
760.346	18.16
760.526	18.18
760.706	18.63
760.886	18.32
761.066	18.82
761.246	18.36
761.426	17.86
761.606	18.19
761.786	18.57
761.966	18.49
762.146	19.41
762.326	19.28
762.506	18.96
762.686	18.75
762.866	18.75
763.046	18.21
763.225	18.52
763.405	18.02
763.585	17.96
763.765	18.28
763.945	18.25
764.124	18.17
764.304	18.27
764.484	18.3
764.664	18.35
764.843	18.27
765.023	17.95
765.203	17.78
765.382	19.08
765.562	19.09
765.741	18.19
765.921	18.29
766.101	18.69
766.28	18.99
766.46	19.37
766.639	18.86
766.819	19.47
766.998	20.5
767.178	20.7
767.357	19.9
767.537	20.41
767.716	20.96
767.896	21.24
768.075	20.34
768.254	19.13
768.434	19.25
768.613	19.76
768.792	19.15
768.972	19.06
769.151	18.45
769.33	18.46
769.51	17.73
769.689	18.08
769.868	17.24
770.047	17.34
770.226	18.15
770.406	17.47
770.585	17.13
770.764	17.36
770.943	16.74
771.122	16.37
771.301	15.95
771.48	16.1
771.66	15.06
771.839	14.78
772.018	13.83
772.197	13.76
772.376	14.83
772.555	14.56
772.734	14.37
772.913	14.65
773.092	15.68
773.271	15.89
773.449	16.36
773.628	17.14
773.807	18.02
773.986	18.77
774.165	19.51
774.344	18.52
774.523	18.96
774.701	19.28
774.88	18.52
775.059	18.01
775.238	17.93
775.417	17.97
775.595	17.37
775.774	15.61
775.953	15
776.131	14.28
776.31	13.06
776.489	12.5
776.667	11.6
776.846	12.97
777.025	12.94
777.203	13.58
777.382	13.63
777.56	14.34
777.739	15.1
777.917	15.93
778.096	15.81
778.274	17.44
778.453	17.91
778.631	18.74
778.81	18.19
778.988	17.79
779.166	17.03
779.345	16.54
779.523	16.19
779.702	16.73
779.88	16.63
780.058	16.52
780.237	15.66
780.415	15.74
780.593	15.56
780.771	15.43
780.95	15.94
781.128	17.39
781.306	16.95
781.484	17.46
781.662	18.04
781.841	18.39
782.019	19.17
782.197	19.41
782.375	19.38
782.553	19.02
782.731	18.16
782.909	18.48
783.087	17.7
783.265	18.2
783.443	17.34
783.621	16.31
783.799	16.64
783.977	15.97
784.155	16.87
784.333	17.51
784.511	17.63
784.689	18.37
784.867	17.9
785.045	17.65
785.223	16.95
785.4	17.03
785.578	16.97
785.756	15.78
785.934	15.84
786.112	15.79
786.289	15.47
786.467	14.81
786.645	15.58
786.823	15.77
787	15.36
787.178	15.51
787.356	15.78
787.533	16.3
787.711	16.7
787.889	16.88
788.066	17.11
788.244	17.02
788.421	17.2
788.599	16.76
788.776	16.59
788.954	17.14
789.131	17.76
789.309	17.9
789.486	17.4
789.664	16.74
789.841	17.59
790.019	17.09
790.196	16.7
790.373	17.6
790.551	17.94
790.728	17.67
790.906	17.72
791.083	16.46
791.26	16.52
791.437	16.61
791.615	17.98
791.792	17.11
791.969	17.38
792.146	16.83
792.324	15.79
792.501	16.05
792.678	16.65
792.855	16.81
793.032	17.52
793.209	16.9
793.387	17.99
793.564	17.83
793.741	18.62
793.918	18.14
794.095	18.8
794.272	20.05
794.449	18.66
794.626	19.16
794.803	19.14
794.98	19.68
795.157	20.04
795.334	18.31
795.511	17.6
795.688	16.59
795.864	16.53
796.041	16.85
796.218	15.48
796.395	16.78
796.572	16.24
796.749	16.74
796.925	16.9
797.102	17.13
797.279	18.56
797.456	18.87
797.632	19.19
797.809	19.36
797.986	18.61
798.162	19.59
798.339	19.19
798.516	19.36
798.692	18.11
798.869	18.71
799.046	18.69
799.222	17.97
799.399	18.35
799.575	17.68
799.752	17.72
799.928	18.08
800.105	17.29
800.281	17.28
800.458	17.12
800.634	18.46
800.811	16.78
800.987	16.95
801.163	16.65
801.34	15.72
801.516	15.51
801.692	15.45
801.869	15.98
802.045	17.33
802.221	17
802.398	17.08
802.574	15.91
802.75	15.88
802.926	15.97
803.103	15.71
803.279	16.66
803.455	18.26
803.631	18.05
803.807	17.08
803.983	17.03
804.16	17.51
804.336	17.64
804.512	18.1
804.688	18.18
804.864	17.15
805.04	17.59
805.216	17.56
805.392	16.22
805.568	16.25
805.744	17.69
805.92	15.99
806.096	15.41
806.272	14.55
806.448	15.15
806.623	16.21
806.799	17.25
806.975	17.86
807.151	17.96
807.327	17.91
807.503	18.41
807.678	18.68
807.854	20.44
808.03	19.61
808.206	19.93
808.381	19.21
808.557	20.12
808.733	20.2
808.908	19.43
809.084	20.12
809.26	21.15
809.435	20.1
809.611	18.73
809.787	17.64
809.962	19.3
810.138	20.3
810.313	20.59
810.489	19.77
810.664	18.59
810.84	19.75
811.015	18.54
811.191	17.51
811.366	18
811.542	18.42
811.717	19.29
811.892	19.7
812.068	19.27
812.243	17.65
812.419	17.21
812.594	17.64
812.769	17.41
812.944	18.41
813.12	16.34
813.295	15.82
813.47	15.93
813.645	16.04
813.821	15.31
813.996	15.76
814.171	17.89
814.346	17.82
814.521	18.72
814.697	17.76
814.872	16.81
815.047	19
815.222	21.58
815.397	21.57
815.572	21.16
815.747	21.84
815.922	21.48
816.097	21.22
816.272	21.78
816.447	20.68
816.622	22.3
816.797	23.4
816.972	24.28
817.147	22.27
817.322	22.35
817.496	22.85
817.671	22.3
817.846	22.16
818.021	22.31
818.196	21.59
818.371	21.34
818.545	20.72
818.72	21.72
818.895	21.19
819.069	20.77
819.244	19.56
819.419	20
819.594	20.53
819.768	20.22
819.943	19.03
820.117	18.63
820.292	18.73
820.467	18.42
820.641	17.34
820.816	17.09
820.99	17.48
821.165	17.46
821.339	17.16
821.514	16.83
821.688	17.07
821.863	17.08
822.037	17.26
822.212	17.23
822.386	17.29
822.56	17.29
822.735	17.81
822.909	17.93
823.084	18.02
823.258	18.3
823.432	18.44
823.606	18.25
823.781	18.43
823.955	18.56
824.129	18.71
824.303	18.83
824.478	18.92
824.652	18.65
824.826	18.48
825	18.51
825.174	18.02
825.348	17.84
825.523	17.87
825.697	17.96
825.871	18.13
826.045	18.09
826.219	17.94
826.393	18.16
826.567	17.8
826.741	17.96
826.915	18.32
827.089	18.67
827.263	18.62
827.437	18.95
827.611	19.37
827.784	19.19
827.958	19.66
828.132	19.41
828.306	19.25
828.48	19.42
828.654	19.53
828.827	19.14
829.001	18.61
829.175	19.71
829.349	19.3
829.522	18.47
829.696	18.31
829.87	19
830.044	19.59
830.217	20.05
830.391	20.26
830.565	19.36
830.738	19.69
830.912	20.33
831.085	19.11
831.259	18.46
831.432	19.04
831.606	18.77
831.779	16.77
831.953	15.85
832.126	15
832.3	15.11
832.473	16.04
832.647	16.43
832.82	16.45
832.994	16.58
833.167	17.73
833.34	17.64
833.514	17.9
833.687	18.45
833.86	19.46
834.034	19.96
834.207	19.96
834.38	19.86
834.553	19.62
834.727	20.1
834.9	20.16
835.073	19.65
835.246	19.96
835.419	19.26
835.593	19.36
835.766	18.89
835.939	18.2
836.112	18.29
836.285	17.63
836.458	18.18
836.631	16.2
836.804	17.16
836.977	17.57
837.15	18.25
837.323	18.33
837.496	18.15
837.669	17.5
837.842	18.35
838.015	18.37
838.188	19.68
838.361	20.16
838.533	22.27
838.706	21.67
838.879	21.15
839.052	20.99
839.225	21.92
839.398	21.76
839.57	23.5
839.743	23.04
839.916	23.14
840.088	24.18
840.261	22.87
840.434	22.06
840.607	22.97
840.779	24.4
840.952	22.71
841.124	21.94
841.297	21.83
841.47	21.82
841.642	22.55
841.815	21.88
841.987	20.09
842.16	20.26
842.332	20.55
842.505	18.12
842.677	13.71
842.85	14.51
843.022	14.95
843.194	15.58
843.367	15.63
843.539	16.59
843.712	18.68
843.884	19.32
844.056	18.45
844.229	19
844.401	20.85
844.573	24.23
844.745	23.63
844.918	22.6
845.09	20.05
845.262	18.62
845.434	16.65
845.606	13.11
845.779	13.39
845.951	16.79
846.123	13.45
846.295	11.64
846.467	10.39
846.639	8.47
846.811	10.75
846.983	11.97
847.155	13.94
847.327	15.89
847.499	16.9
847.671	15.99
847.843	12.76
848.015	16.25
848.187	17.76
848.359	17.15
848.531	21.25
848.703	22.35
848.875	23.25
849.047	22.55
849.218	18.93
849.39	20.9
849.562	18.74
849.734	20.08
849.905	18.31
850.077	16.42
850.249	19.07
850.421	17.88
850.592	14.54
850.764	17.29
850.936	15.44
851.107	21.54
851.279	18.85
851.451	19.23
851.622	19.22
851.794	17.83
851.965	18.09
852.137	13.41
852.308	11.34
852.48	12.43
852.651	11.15
852.823	14.24
852.994	9.81
853.166	9.69
853.337	12.93
853.509	9.35
853.68	12.31
853.851	14.34
854.023	14.54
854.194	17.19
854.365	18.39
854.537	17.38
854.708	14.87
854.879	17.54
855.05	21.53
855.222	20.06
855.393	25.24
855.564	23.38
855.735	19.62
855.906	21.85
856.078	17
856.249	15.53
856.42	16.94
856.591	14.72
856.762	14.73
856.933	13.14
857.104	12.27
857.275	9.39
857.446	9
857.617	10.28
857.788	15.26
857.959	18.36
858.13	20.06
858.301	19.4
858.472	20.67
858.643	20.34
858.814	17.92
858.985	14.78
859.155	16.65
859.326	16.17
859.497	18.29
859.668	15.33
859.839	15.3
860.009	12.39
860.18	9.9
860.351	10.77
860.522	10.14
860.692	10.66
860.863	12.74
861.034	10.78
861.204	10.14
861.375	10.17
861.546	11.01
861.716	7.17
861.887	11.41
862.057	11.85
862.228	17.32
862.398	16
862.569	17.69
862.739	18.09
862.91	20.17
863.08	21.71
863.251	20.78
863.421	19.66
863.592	25.33
863.762	23.38
863.932	24.56
864.103	18.78
864.273	20.2
864.443	15.05
864.614	13.3
864.784	10.94
864.954	9.91
865.125	8.89
865.295	13.81
865.465	12.49
865.635	13.49
865.805	13.46
865.976	16.58
866.146	14.86
866.316	19.74
866.486	22.17
866.656	23.65
866.826	26.16
866.996	25.38
867.166	20.26
867.336	14.78
867.506	14.56
867.676	14.6
867.846	11.64
868.016	9.7
868.186	8.36
868.356	11.69
868.526	14.08
868.696	11.62
868.866	11.75
869.036	12.18
869.206	19.22
869.376	14.26
869.545	11.35
869.715	9.88
869.885	15.48
870.055	17.23
870.224	14.27
870.394	14.39
870.564	13.75
870.734	16.39
870.903	16.34
871.073	16.78
871.243	19.91
871.412	21.76
871.582	23.93
871.751	21.59
871.921	27.55
872.091	30.84
872.26	27.34
872.43	27.61
872.599	23.45
872.769	23.26
872.938	23.61
873.108	19.58
873.277	19.32
873.446	18.91
873.616	16.16
873.785	13.12
873.955	12.24
874.124	14.13
874.293	18.02
874.463	23.54
874.632	25.22
874.801	24.86
874.971	27.81
875.14	25.87
875.309	18.73
875.478	19.09
875.647	17.4
875.817	12.93
875.986	10.04
876.155	8.11
876.324	7.92
876.493	10.05
876.662	6.08
876.831	10.22
877	14.48
877.17	23.59
877.339	27.89
877.508	28.87
877.677	29.19
877.846	29.85
878.015	29.28
878.184	25.8
878.352	20.31
878.521	25.7
878.69	19.87
878.859	18.38
879.028	15.89
879.197	14.68
879.366	16.02
879.534	14.16
879.703	15.46
879.872	16.03
880.041	17.23
880.21	20.16
880.378	19.29
880.547	19.51
880.716	19.25
880.884	20.37
881.053	20.38
881.222	20.57
881.39	21.48
881.559	21.01
881.727	20.48
881.896	21.44
882.065	20.23
882.233	19.99
882.402	19.49
882.57	19.75
882.739	19.49
882.907	18.98
883.076	18.58
883.244	18.61
883.412	19.58
883.581	19.96
883.749	19
883.918	18.69
884.086	18.1
884.254	18.48
884.423	18.86
884.591	18.95
884.759	19.3
884.927	19.48
885.096	19.21
885.264	18.17
885.432	16.91
885.6	16.52
885.769	18.43
885.937	19.1
886.105	18.74
886.273	19.26
886.441	15.46
886.609	15.29
886.777	11.43
886.945	10.52
887.113	10.26
887.281	11.23
887.449	12.62
887.617	12.6
887.785	13.53
887.953	17.74
888.121	13.4
888.289	18.74
888.457	22.3
888.625	25.25
888.793	25.83
888.961	24.62
889.129	28.17
889.296	25.49
889.464	24.38
889.632	23.53
889.8	20.15
889.967	23.21
890.135	22.56
