Data from 2938563_Reflection_1.txt Node
Date: Sun Jun 14 23:10:18 EDT 2015
User: robert
Spectrometer: USB4E03002
Autoset integration time: false
Trigger mode: 4
Integration Time (sec): 1.000000E-1
Scans to average: 10
Electric dark correction enabled: true
Nonlinearity correction enabled: false
Boxcar width: 5
Stray light correction enabled: false
XAxis mode: Wavelengths
Stop averaging: false
Number of Pixels in Spectrum: 3648
>>>>>Begin Spectral Data<<<<<
177.575	26.28
177.794	113.35
178.014	-24.59
178.233	-89.39
178.452	-7.14
178.672	190.37
178.891	112.05
179.11	-76.49
179.33	29.18
179.549	52.08
179.768	57.68
179.987	55.28
180.207	62.48
180.426	69.94
180.645	150.16
180.864	140.93
181.084	80.43
181.303	55.79
181.522	54.51
181.741	30.69
181.96	-22.97
182.179	47.11
182.398	141.73
182.618	208.82
182.837	57.06
183.056	56.89
183.275	73.5
183.494	92.07
183.713	145.46
183.932	159.2
184.151	179.64
184.37	175.12
184.589	272.26
184.808	428.02
185.027	272.42
185.246	-375.86
185.465	-202.27
185.684	-263.54
185.903	-162.23
186.122	786.46
186.341	305.23
186.56	214.26
186.779	357.76
186.998	153.52
187.216	105.64
187.435	162.15
187.654	142.22
187.873	165.76
188.092	202.34
188.311	446.72
188.53	432.06
188.748	-483.45
188.967	-269.74
189.186	-744.89
189.405	-1360.11
189.623	-964.73
189.842	-4905.56
190.061	-1013.43
190.28	-1502.94
190.498	340.41
190.717	190.88
190.936	243.76
191.154	162.68
191.373	175.44
191.592	219.82
191.81	174.34
192.029	271
192.248	290.7
192.466	247.01
192.685	106.7
192.904	68.51
193.122	341.47
193.341	-1054.88
193.559	20.81
193.778	-2.36
193.996	56.28
194.215	64.25
194.433	172.14
194.652	175.62
194.87	153.76
195.089	154.54
195.307	190.39
195.526	218.41
195.744	159.73
195.963	126.85
196.181	182.3
196.399	156.29
196.618	223.04
196.836	75.73
197.055	76.03
197.273	114.43
197.491	217.9
197.71	222.16
197.928	121.55
198.146	154.63
198.365	195.91
198.583	187.4
198.801	291.65
199.019	243.49
199.238	709.63
199.456	232.49
199.674	227.75
199.892	173.38
200.111	128.88
200.329	318.49
200.547	264.07
200.765	168.36
200.983	133.77
201.202	112.16
201.42	93.27
201.638	78.74
201.856	107.64
202.074	134.4
202.292	148.14
202.51	150.8
202.728	96.85
202.946	120.03
203.165	117.33
203.383	29.06
203.601	207.43
203.819	-130.53
204.037	-2532.54
204.255	-191.83
204.473	-77.48
204.691	8.57
204.909	-98.15
205.127	-120.11
205.345	-193.27
205.562	-224.73
205.78	-826.57
205.998	1343.32
206.216	-8240.23
206.434	-8628.74
206.652	-690.73
206.87	-420.84
207.088	3303.31
207.306	-2307
207.523	-99.19
207.741	2.55
207.959	15.31
208.177	-1.11
208.395	-20.06
208.612	-38.98
208.83	-12.12
209.048	-22.22
209.266	-51.26
209.483	-39.61
209.701	-44.05
209.919	-59.06
210.136	-106.44
210.354	-113.07
210.572	-206.05
210.79	-274.54
211.007	-382.51
211.225	-2099.59
211.442	424.91
211.66	169.52
211.878	148.45
212.095	62.08
212.313	51.47
212.53	35.38
212.748	25.51
212.966	37.77
213.183	55.45
213.401	49.74
213.618	38.45
213.836	44.66
214.053	44.82
214.271	32.08
214.488	-105.34
214.705	-69.86
214.923	-52.52
215.14	-21.49
215.358	-25.71
215.575	-55.25
215.793	-49.74
216.01	-84.07
216.227	-97.39
216.445	-93.15
216.662	-103.24
216.879	-66.77
217.097	-152.62
217.314	-86
217.531	-110.71
217.749	-131.44
217.966	-120.68
218.183	-153.12
218.4	-61.64
218.618	-98.66
218.835	-74.78
219.052	-55.77
219.269	-48.52
219.487	-38.36
219.704	-36.9
219.921	-30.09
220.138	-10.62
220.355	-12.69
220.572	-20.41
220.79	-17.03
221.007	6.95
221.224	2.34
221.441	-1.92
221.658	0.21
221.875	8.16
222.092	-2.4
222.309	-7.81
222.526	-15.26
222.743	-13.28
222.96	-16.59
223.177	-14.62
223.394	-20.51
223.611	-18.3
223.828	-19.69
224.045	-16.45
224.262	-18.34
224.479	-12.14
224.696	-8.33
224.913	-7.21
225.13	-10.11
225.347	-6.67
225.564	-6.17
225.781	-4.75
225.997	-2.23
226.214	1.38
226.431	1.64
226.648	1.86
226.865	3.4
227.082	3.21
227.298	4.47
227.515	6.3
227.732	7.54
227.949	7.08
228.165	6.91
228.382	5.7
228.599	4.28
228.816	4.87
229.032	4.91
229.249	4.3
229.466	5.38
229.682	3.3
229.899	2.85
230.116	1.14
230.332	1.01
230.549	1.62
230.765	0.79
230.982	-0.75
231.199	1.13
231.415	0.81
231.632	-0.74
231.848	-2.18
232.065	-1.04
232.281	-3.83
232.498	-3.32
232.714	-2.14
232.931	-1.68
233.147	1.6
233.364	5.5
233.58	2.13
233.797	2.19
234.013	3.53
234.23	3.37
234.446	3.47
234.662	5.1
234.879	4.53
235.095	4.06
235.312	2.82
235.528	1.33
235.744	-1.32
235.961	1.42
236.177	2.93
236.393	-0.11
236.61	-1.66
236.826	-1.99
237.042	-3.52
237.258	-2.52
237.475	-1.89
237.691	-0.8
237.907	-2.33
238.123	-0.58
238.339	-1.2
238.556	-1.09
238.772	0.16
238.988	2.49
239.204	4.02
239.42	4.63
239.636	4.97
239.853	4.94
240.069	5.34
240.285	6.62
240.501	6.49
240.717	6.83
240.933	6.59
241.149	7.17
241.365	7.48
241.581	6.82
241.797	7.54
242.013	6.91
242.229	6.62
242.445	6.7
242.661	6.76
242.877	7.71
243.093	7.48
243.309	7.86
243.525	7.18
243.741	6.24
243.957	5.69
244.173	5.59
244.388	6.32
244.604	6.66
244.82	6.56
245.036	6.6
245.252	5.95
245.468	6.19
245.683	5.82
245.899	6.02
246.115	6.16
246.331	6.55
246.547	6.37
246.762	6.54
246.978	6.95
247.194	7.09
247.409	6.8
247.625	7.25
247.841	6.84
248.057	7
248.272	7.23
248.488	6.72
248.703	6.98
248.919	6.92
249.135	6.02
249.35	5.16
249.566	4.64
249.782	4.84
249.997	4.74
250.213	4.56
250.428	4.64
250.644	4.18
250.859	4.64
251.075	4.62
251.29	5.24
251.506	5.78
251.721	4.81
251.937	4.88
252.152	5.33
252.368	5.05
252.583	5.17
252.798	5
253.014	4.44
253.229	2.8
253.445	2.02
253.66	2.18
253.875	1.12
254.091	1.68
254.306	1.75
254.521	0.56
254.737	1.36
254.952	1.94
255.167	1.82
255.383	3.18
255.598	4.93
255.813	5.78
256.028	4.65
256.244	5.2
256.459	5.51
256.674	5.2
256.889	5.47
257.104	5.23
257.32	5.18
257.535	5.59
257.75	5.53
257.965	5.23
258.18	4.85
258.395	5
258.61	5.27
258.826	5.43
259.041	5.3
259.256	5.37
259.471	4.58
259.686	4.46
259.901	4.38
260.116	3.78
260.331	3.51
260.546	4.17
260.761	4.32
260.976	3.72
261.191	3.12
261.406	3.56
261.621	3.41
261.836	4.22
262.05	4.54
262.265	4.43
262.48	4.71
262.695	4.99
262.91	3.63
263.125	2.82
263.34	2.14
263.555	1.88
263.769	1.28
263.984	0.91
264.199	1.34
264.414	1.19
264.629	1.37
264.843	1.55
265.058	1.66
265.273	1.97
265.488	2.06
265.702	2.59
265.917	3.51
266.132	3.45
266.346	3.91
266.561	3.68
266.776	3.65
266.99	3.1
267.205	3.59
267.42	3.94
267.634	4.05
267.849	4.27
268.063	4.5
268.278	4.16
268.492	4.69
268.707	4.27
268.922	4.19
269.136	4.27
269.351	5.01
269.565	4.93
269.78	4.54
269.994	4.49
270.209	3.91
270.423	3.96
270.637	3.49
270.852	3.62
271.066	3.31
271.281	3.25
271.495	3.38
271.709	3.12
271.924	2.86
272.138	2.81
272.353	2.26
272.567	2.81
272.781	2.09
272.996	2.47
273.21	2.33
273.424	2.82
273.638	3.34
273.853	2.88
274.067	3.18
274.281	3.1
274.495	3.08
274.71	3.68
274.924	3
275.138	3.74
275.352	3.27
275.566	3.22
275.781	3.05
275.995	2.87
276.209	3.26
276.423	3.39
276.637	3.35
276.851	3.4
277.065	4.03
277.279	5.01
277.493	4.75
277.707	4.63
277.921	3.93
278.135	3.88
278.349	3.45
278.563	3.18
278.777	3.02
278.991	3.46
279.205	3.38
279.419	3.04
279.633	2.62
279.847	2.71
280.061	3.12
280.275	3.58
280.489	3.98
280.703	4.64
280.917	4.56
281.131	4.29
281.344	3.8
281.558	4.1
281.772	3.68
281.986	3.77
282.2	3.56
282.414	3.77
282.627	3.58
282.841	3.68
283.055	3.58
283.269	3.54
283.482	3.7
283.696	3.86
283.91	3.69
284.123	3.74
284.337	3.76
284.551	3.95
284.764	4.16
284.978	4.47
285.192	4.19
285.405	4.15
285.619	4.57
285.833	4.57
286.046	4.66
286.26	4.38
286.473	4.81
286.687	4.81
286.9	4.82
287.114	4.35
287.327	4.02
287.541	4.13
287.754	3.95
287.968	3.96
288.181	4.16
288.395	4.32
288.608	4.57
288.822	4.29
289.035	4.29
289.248	3.99
289.462	4
289.675	4.1
289.889	3.97
290.102	4.15
290.315	3.81
290.529	3.63
290.742	3.04
290.955	3.34
291.169	3.46
291.382	3.59
291.595	4.06
291.808	3.98
292.022	3.97
292.235	4.02
292.448	3.79
292.661	4.26
292.875	4.45
293.088	5.04
293.301	4.96
293.514	4.66
293.727	4.45
293.94	4.58
294.153	4.82
294.367	5.03
294.58	5.13
294.793	5.31
295.006	5.12
295.219	4.65
295.432	4.64
295.645	4.71
295.858	4.97
296.071	5.51
296.284	5.45
296.497	5.64
296.71	5.38
296.923	5.09
297.136	5.1
297.349	4.88
297.562	5.15
297.775	5.1
297.988	5.03
298.201	4.99
298.414	4.63
298.626	4.35
298.839	4.66
299.052	4.68
299.265	5.31
299.478	5.34
299.691	5.91
299.903	5.87
300.116	5.78
300.329	5.74
300.542	5.35
300.755	4.86
300.967	4.99
301.18	4.23
301.393	4.2
301.605	4.18
301.818	3.92
302.031	3.34
302.243	3.53
302.456	3.6
302.669	3.61
302.881	4.13
303.094	4.69
303.307	4.92
303.519	5.24
303.732	5.35
303.944	5.18
304.157	5.46
304.37	5.76
304.582	5.45
304.795	5.44
305.007	5.67
305.22	5.56
305.432	5.36
305.645	5.22
305.857	4.89
306.069	4.75
306.282	4.79
306.494	4.35
306.707	4.68
306.919	4.87
307.132	4.97
307.344	4.7
307.556	4.9
307.769	4.91
307.981	4.61
308.193	4.75
308.406	5.17
308.618	5.08
308.83	5.46
309.043	5
309.255	5.08
309.467	5.09
309.679	4.98
309.892	5.02
310.104	5.23
310.316	5.22
310.528	5.3
310.74	5.35
310.953	5.44
311.165	5.39
311.377	5.42
311.589	5.99
311.801	6.43
312.013	6.77
312.225	6.5
312.437	6.12
312.649	7.23
312.862	7.52
313.074	7.03
313.286	7.15
313.498	6.89
313.71	6.72
313.922	5.55
314.134	5.16
314.346	5.14
314.558	5.41
314.77	5.41
314.982	4.17
315.193	3.96
315.405	4.51
315.617	3.96
315.829	4.27
316.041	4.3
316.253	4.56
316.465	4.38
316.677	4.62
316.888	4.53
317.1	4.97
317.312	5.1
317.524	4.8
317.736	4.07
317.947	4.55
318.159	4.19
318.371	4.06
318.583	4.53
318.794	4.35
319.006	4.18
319.218	4.63
319.43	4.51
319.641	4.47
319.853	4.34
320.064	4.91
320.276	4.53
320.488	4.95
320.699	5.39
320.911	5.24
321.123	5.28
321.334	5.29
321.546	4.83
321.757	4.32
321.969	4.83
322.18	5.1
322.392	4.61
322.603	4.63
322.815	4.34
323.026	4.42
323.238	4.34
323.449	3.98
323.661	3.79
323.872	3.59
324.083	4.02
324.295	3.56
324.506	3.54
324.718	3.71
324.929	3.55
325.14	3.81
325.352	3.67
325.563	3.55
325.774	3.97
325.986	3.88
326.197	4.09
326.408	4.26
326.62	4.45
326.831	4.39
327.042	5.03
327.253	5.28
327.464	5.41
327.676	5.39
327.887	5.66
328.098	5.59
328.309	5.43
328.52	5.38
328.732	5.16
328.943	5.34
329.154	5.55
329.365	5.28
329.576	5.21
329.787	4.77
329.998	5.04
330.209	4.86
330.42	4.89
330.631	5.59
330.842	5.54
331.053	5.47
331.264	5.42
331.475	5.26
331.686	4.69
331.897	4.69
332.108	4.54
332.319	4.71
332.53	4.42
332.741	4.4
332.952	3.92
333.163	3.6
333.374	3.5
333.585	3.48
333.795	3.75
334.006	4.13
334.217	4.4
334.428	4.94
334.639	4.49
334.849	4.61
335.06	4.67
335.271	4.48
335.482	4.95
335.692	5.34
335.903	5.35
336.114	5.2
336.325	5.03
336.535	4.91
336.746	4.84
336.957	5.02
337.167	5.15
337.378	5.11
337.589	5.39
337.799	5.02
338.01	4.71
338.22	4.81
338.431	5.09
338.642	4.86
338.852	4.75
339.063	4.55
339.273	4.65
339.484	4.34
339.694	3.96
339.905	3.57
340.115	3.69
340.326	3.47
340.536	3.09
340.746	2.76
340.957	3.36
341.167	3.32
341.378	3.3
341.588	3.4
341.799	3.48
342.009	3.86
342.219	4.12
342.43	4.34
342.64	4.24
342.85	4.23
343.061	4.26
343.271	3.61
343.481	3.73
343.691	4.11
343.902	3.76
344.112	3.68
344.322	4.05
344.532	3.94
344.743	3.8
344.953	3.96
345.163	4.11
345.373	3.88
345.583	4.26
345.793	4.12
346.004	3.67
346.214	3.83
346.424	4.06
346.634	3.65
346.844	3.69
347.054	3.6
347.264	3.8
347.474	3.93
347.684	4.33
347.894	4.15
348.104	4.06
348.314	3.98
348.524	3.74
348.734	4.19
348.944	4.5
349.154	4.64
349.364	4.62
349.574	4.41
349.784	4.45
349.994	4.31
350.204	4.78
350.413	4.86
350.623	5.35
350.833	5.66
351.043	5.49
351.253	5.37
351.463	5.12
351.672	5.25
351.882	5.33
352.092	5.21
352.302	5.02
352.511	4.45
352.721	4.56
352.931	4.29
353.141	4.23
353.35	4.07
353.56	3.83
353.77	4.26
353.979	4.11
354.189	4.25
354.399	4.11
354.608	4.46
354.818	4.52
355.027	4.6
355.237	4.44
355.447	4.65
355.656	4.81
355.866	4.8
356.075	4.69
356.285	4.88
356.494	4.79
356.704	5.1
356.913	4.97
357.123	4.94
357.332	4.95
357.542	4.96
357.751	4.71
357.96	4.38
358.17	4.47
358.379	4.46
358.589	4.3
358.798	4.33
359.007	4.23
359.217	4.17
359.426	4.25
359.635	4.12
359.845	4.23
360.054	4.27
360.263	4.54
360.472	4.42
360.682	4.48
360.891	4.43
361.1	4.34
361.309	4.19
361.519	4.31
361.728	4.3
361.937	4.3
362.146	4.19
362.355	4.06
362.564	3.85
362.774	4.1
362.983	3.87
363.192	3.89
363.401	3.89
363.61	4
363.819	3.84
364.028	3.84
364.237	3.81
364.446	3.85
364.655	4.05
364.864	3.9
365.073	3.92
365.282	3.97
365.491	4.05
365.7	4.2
365.909	3.94
366.118	3.8
366.327	3.99
366.536	3.83
366.745	3.96
366.954	3.6
367.162	3.88
367.371	3.65
367.58	3.84
367.789	3.75
367.998	3.6
368.207	3.72
368.415	3.85
368.624	3.69
368.833	3.79
369.042	3.83
369.25	3.9
369.459	4.21
369.668	3.94
369.877	3.64
370.085	3.97
370.294	4.27
370.503	4.11
370.711	4.16
370.92	4.12
371.129	4
371.337	3.75
371.546	3.8
371.754	3.4
371.963	3.64
372.171	3.76
372.38	3.69
372.589	3.61
372.797	3.69
373.006	3.39
373.214	3.35
373.423	3.35
373.631	3.46
373.84	3.23
374.048	2.93
374.256	2.8
374.465	2.54
374.673	2.49
374.882	2.32
375.09	2.37
375.298	2.55
375.507	2.57
375.715	2.69
375.923	2.56
376.132	2.87
376.34	3.02
376.548	3
376.757	3.26
376.965	3.17
377.173	3.12
377.381	3.31
377.59	3.21
377.798	3.43
378.006	3.58
378.214	3.47
378.423	3.17
378.631	3.26
378.839	3.22
379.047	3.02
379.255	2.85
379.463	2.76
379.671	2.74
379.879	2.66
380.088	2.37
380.296	2.32
380.504	2.61
380.712	2.93
380.92	2.81
381.128	3.05
381.336	3.25
381.544	3.34
381.752	3.4
381.96	3.27
382.168	3.44
382.376	3.34
382.584	3.19
382.791	3.16
382.999	2.99
383.207	3.06
383.415	3.04
383.623	2.99
383.831	2.86
384.039	2.95
384.247	2.98
384.454	3
384.662	3.07
384.87	3.09
385.078	3
385.285	2.9
385.493	2.85
385.701	2.81
385.909	2.88
386.116	2.92
386.324	2.72
386.532	2.59
386.739	2.44
386.947	2.54
387.155	2.59
387.362	2.55
387.57	2.63
387.778	2.56
387.985	2.51
388.193	2.68
388.4	2.73
388.608	2.85
388.816	2.8
389.023	2.89
389.231	3.1
389.438	2.96
389.646	3.03
389.853	3.11
390.061	3.3
390.268	3.37
390.475	3.15
390.683	3.31
390.89	3.24
391.098	3.39
391.305	3.4
391.512	3
391.72	3.12
391.927	3.04
392.135	2.97
392.342	2.91
392.549	2.67
392.756	2.76
392.964	2.48
393.171	2.49
393.378	2.33
393.586	2.25
393.793	2.61
394	2.53
394.207	2.64
394.414	2.43
394.622	2.33
394.829	2.49
395.036	2.46
395.243	2.56
395.45	2.65
395.657	2.61
395.864	2.68
396.072	2.34
396.279	2.42
396.486	2.3
396.693	2.47
396.9	2.3
397.107	2.22
397.314	2.13
397.521	2.17
397.728	2.09
397.935	2.18
398.142	2.29
398.349	2.36
398.556	2.22
398.763	2.15
398.97	2.22
399.177	2.33
399.383	2.49
399.59	2.69
399.797	2.71
400.004	2.47
400.211	2.67
400.418	2.45
400.625	2.34
400.831	2.34
401.038	2.32
401.245	2.46
401.452	2.49
401.658	2.45
401.865	2.17
402.072	2.07
402.279	2.19
402.485	2.09
402.692	2.22
402.899	2.32
403.105	2.46
403.312	2.51
403.519	2.32
403.725	2.36
403.932	2.36
404.138	2.36
404.345	2.32
404.552	2.45
404.758	2.43
404.965	2.36
405.171	2.21
405.378	2.21
405.584	2.19
405.791	2.27
405.997	2.23
406.204	2.32
406.41	2.43
406.617	2.59
406.823	2.56
407.029	2.54
407.236	2.46
407.442	2.54
407.649	2.55
407.855	2.67
408.061	2.75
408.268	2.79
408.474	2.64
408.68	2.65
408.887	2.51
409.093	2.54
409.299	2.68
409.505	2.92
409.712	2.98
409.918	2.73
410.124	2.57
410.33	2.54
410.537	2.54
410.743	2.67
410.949	2.65
411.155	2.76
411.361	2.65
411.567	2.4
411.773	2.26
411.98	2.41
412.186	2.59
412.392	2.7
412.598	2.59
412.804	2.51
413.01	2.46
413.216	2.51
413.422	2.42
413.628	2.48
413.834	2.61
414.04	2.64
414.246	2.55
414.452	2.46
414.658	2.37
414.864	2.46
415.07	2.45
415.275	2.23
415.481	2.32
415.687	2.27
415.893	2.23
416.099	2.06
416.305	1.97
416.511	1.86
416.716	1.99
416.922	2.08
417.128	2.03
417.334	1.98
417.539	2.05
417.745	1.96
417.951	2.06
418.157	2.13
418.362	2.26
418.568	2.28
418.774	2.31
418.979	2.25
419.185	2.26
419.391	2.31
419.596	2.39
419.802	2.39
420.008	2.38
420.213	1.5
420.419	1.37
420.624	1.29
420.83	1.3
421.035	1.32
421.241	1.32
421.446	1.32
421.652	1.32
421.857	1.3
422.063	1.31
422.268	1.37
422.474	2.21
422.679	2.33
422.885	2.29
423.09	2.3
423.295	2.29
423.501	2.35
423.706	2.32
423.911	2.29
424.117	2.25
424.322	2.26
424.527	2.22
424.733	2.23
424.938	2.16
425.143	2.24
425.349	2.24
425.554	2.27
425.759	2.17
425.964	2.07
426.169	1.94
426.375	1.99
426.58	1.99
426.785	1.97
426.99	2
427.195	2.17
427.4	2.15
427.605	2.09
427.811	2.17
428.016	2.22
428.221	2.3
428.426	2.41
428.631	2.36
428.836	2.3
429.041	2.38
429.246	2.3
429.451	2.17
429.656	2.12
429.861	2.22
430.066	2.12
430.271	2.07
430.476	2.07
430.681	1.94
430.886	2.02
431.09	2.05
431.295	1.84
431.5	1.96
431.705	2.01
431.91	2
432.115	1.96
432.32	1.96
432.524	2.06
432.729	2.06
432.934	2.17
433.139	2.12
433.343	2.11
433.548	2.09
433.753	1.95
433.958	1.83
434.162	1.86
434.367	1.87
434.572	1.84
434.776	1.83
434.981	1.82
435.186	1.89
435.39	1.89
435.595	1.92
435.799	2.01
436.004	2.07
436.209	2.07
436.413	2.19
436.618	2.08
436.822	2.13
437.027	2.05
437.231	2.03
437.436	1.96
437.64	1.97
437.845	2.02
438.049	1.98
438.253	1.99
438.458	1.98
438.662	1.95
438.867	1.97
439.071	1.96
439.275	1.97
439.48	1.99
439.684	2.02
439.888	2.05
440.093	2
440.297	2.02
440.501	1.98
440.706	2.02
440.91	1.96
441.114	1.96
441.318	1.87
441.523	1.9
441.727	1.87
441.931	1.84
442.135	1.85
442.339	1.8
442.543	1.86
442.748	1.82
442.952	1.82
443.156	1.87
443.36	1.97
443.564	1.92
443.768	1.91
443.972	1.9
444.176	1.9
444.38	1.88
444.584	1.93
444.788	1.89
444.992	1.93
445.196	1.89
445.4	1.88
445.604	1.74
445.808	1.82
446.012	1.81
446.216	1.83
446.42	1.82
446.624	1.77
446.828	1.79
447.032	1.8
447.235	1.82
447.439	1.83
447.643	1.78
447.847	1.88
448.051	1.87
448.254	1.78
448.458	1.74
448.662	1.71
448.866	1.77
449.069	1.7
449.273	1.73
449.477	1.66
449.681	1.7
449.884	1.62
450.088	1.68
450.292	1.6
450.495	1.65
450.699	1.67
450.902	1.78
451.106	1.73
451.31	1.77
451.513	1.7
451.717	1.73
451.92	1.7
452.124	1.78
452.327	1.67
452.531	1.68
452.734	1.63
452.938	1.57
453.141	1.37
453.345	1.41
453.548	1.46
453.752	1.39
453.955	1.44
454.158	1.41
454.362	1.49
454.565	1.52
454.769	1.5
454.972	1.73
455.175	1.8
455.379	1.97
455.582	1.94
455.785	1.84
455.988	2.06
456.192	1.95
456.395	1.99
456.598	1.94
456.801	1.94
457.005	2.01
457.208	1.78
457.411	1.84
457.614	1.83
457.817	1.8
458.021	1.8
458.224	1.72
458.427	1.86
458.63	1.84
458.833	1.81
459.036	1.78
459.239	1.75
459.442	1.84
459.645	1.84
459.848	1.79
460.051	1.8
460.254	1.82
460.457	1.82
460.66	1.68
460.863	1.73
461.066	1.88
461.269	1.88
461.472	1.91
461.675	1.83
461.878	1.71
462.081	1.79
462.284	1.83
462.486	1.79
462.689	1.77
462.892	1.77
463.095	1.76
463.298	1.58
463.5	1.72
463.703	1.69
463.906	1.8
464.109	1.9
464.311	1.8
464.514	1.77
464.717	1.77
464.92	1.79
465.122	1.78
465.325	1.72
465.528	1.68
465.73	1.65
465.933	1.7
466.135	1.64
466.338	1.61
466.541	1.59
466.743	1.6
466.946	1.69
467.148	1.63
467.351	1.67
467.553	1.69
467.756	1.74
467.958	1.77
468.161	1.69
468.363	1.68
468.566	1.58
468.768	1.64
468.971	1.57
469.173	1.54
469.375	1.57
469.578	1.46
469.78	1.47
469.983	1.49
470.185	1.39
470.387	1.38
470.59	1.31
470.792	1.35
470.994	1.31
471.196	1.34
471.399	1.28
471.601	1.29
471.803	1.3
472.005	1.25
472.208	1.23
472.41	1.13
472.612	1.1
472.814	1.14
473.016	1.09
473.218	1.19
473.421	1.22
473.623	1.25
473.825	1.27
474.027	1.27
474.229	1.31
474.431	1.31
474.633	1.42
474.835	1.44
475.037	1.5
475.239	1.51
475.441	1.48
475.643	1.52
475.845	1.56
476.047	1.53
476.249	1.63
476.451	1.6
476.653	1.65
476.855	1.62
477.057	1.76
477.258	1.78
477.46	1.9
477.662	1.9
477.864	1.89
478.066	1.83
478.268	1.8
478.469	1.79
478.671	1.83
478.873	1.75
479.075	1.78
479.276	1.56
479.478	1.54
479.68	1.54
479.882	1.56
480.083	1.56
480.285	1.63
480.487	1.74
480.688	1.75
480.89	1.72
481.091	1.72
481.293	1.75
481.495	1.75
481.696	1.75
481.898	1.73
482.099	1.73
482.301	1.73
482.502	1.74
482.704	1.73
482.905	1.69
483.107	1.68
483.308	1.7
483.51	1.7
483.711	1.73
483.913	1.7
484.114	1.66
484.315	1.64
484.517	1.62
484.718	1.61
484.92	1.61
485.121	1.66
485.322	1.7
485.524	1.69
485.725	1.65
485.926	1.67
486.127	1.73
486.329	1.75
486.53	1.76
486.731	1.74
486.932	1.71
487.134	1.7
487.335	1.67
487.536	1.67
487.737	1.67
487.938	1.67
488.139	1.71
488.341	1.67
488.542	1.67
488.743	1.66
488.944	1.69
489.145	1.72
489.346	1.67
489.547	1.7
489.748	1.68
489.949	1.72
490.15	1.76
490.351	1.69
490.552	1.73
490.753	1.7
490.954	1.71
491.155	1.69
491.356	1.67
491.557	1.72
491.758	1.64
491.959	1.67
492.159	1.61
492.36	1.58
492.561	1.66
492.762	1.6
492.963	1.6
493.164	1.56
493.364	1.59
493.565	1.56
493.766	1.52
493.967	1.6
494.167	1.53
494.368	1.58
494.569	1.58
494.769	1.54
494.97	1.59
495.171	1.6
495.371	1.58
495.572	1.57
495.773	1.64
495.973	1.69
496.174	1.69
496.375	1.74
496.575	1.71
496.776	1.77
496.976	1.71
497.177	1.67
497.377	1.7
497.578	1.77
497.778	1.7
497.979	1.72
498.179	1.7
498.38	1.72
498.58	1.67
498.78	1.68
498.981	1.59
499.181	1.7
499.382	1.66
499.582	1.64
499.782	1.54
499.983	1.68
500.183	1.68
500.383	1.59
500.584	1.57
500.784	1.61
500.984	1.67
501.184	1.7
501.385	1.63
501.585	1.65
501.785	1.69
501.985	1.74
502.185	1.65
502.386	1.65
502.586	1.69
502.786	1.68
502.986	1.68
503.186	1.61
503.386	1.58
503.586	1.61
503.786	1.68
503.987	1.68
504.187	1.72
504.387	1.72
504.587	1.62
504.787	1.68
504.987	1.71
505.187	1.61
505.387	1.65
505.587	1.66
505.786	1.65
505.986	1.69
506.186	1.66
506.386	1.65
506.586	1.63
506.786	1.71
506.986	1.69
507.186	1.6
507.386	1.66
507.585	1.68
507.785	1.72
507.985	1.7
508.185	1.72
508.384	1.82
508.584	1.82
508.784	1.88
508.984	1.94
509.183	1.98
509.383	2.1
509.583	2.16
509.782	2.13
509.982	2.08
510.182	2.14
510.381	2.17
510.581	2.2
510.781	2.26
510.98	2.32
511.18	2.2
511.379	2.18
511.579	2.21
511.778	2.17
511.978	2.22
512.177	2.21
512.377	2.17
512.576	2.17
512.776	2.1
512.975	2.11
513.175	2.14
513.374	2.26
513.573	2.3
513.773	2.27
513.972	2.25
514.172	2.25
514.371	2.31
514.57	2.33
514.77	2.19
514.969	2.24
515.168	2.15
515.367	2.16
515.567	2.06
515.766	2.05
515.965	2.15
516.164	2.25
516.364	2.23
516.563	2.25
516.762	2.36
516.961	2.41
517.16	2.4
517.359	2.55
517.559	2.5
517.758	2.54
517.957	2.55
518.156	2.6
518.355	2.53
518.554	2.54
518.753	2.58
518.952	2.45
519.151	2.52
519.35	2.48
519.549	2.41
519.748	2.41
519.947	2.42
520.146	2.41
520.345	2.3
520.544	2.39
520.743	2.41
520.942	2.38
521.141	2.5
521.339	2.49
521.538	2.49
521.737	2.49
521.936	2.53
522.135	2.65
522.333	2.68
522.532	2.69
522.731	2.67
522.93	2.75
523.129	2.8
523.327	2.82
523.526	2.83
523.725	2.9
523.923	2.97
524.122	3.02
524.321	2.96
524.519	2.98
524.718	3.06
524.917	3.13
525.115	3.05
525.314	3.07
525.512	3.08
525.711	3.12
525.909	3.11
526.108	3.11
526.306	3.08
526.505	3.09
526.703	3.14
526.902	3.13
527.1	3.12
527.299	3.17
527.497	3.22
527.696	3.2
527.894	3.21
528.092	3.25
528.291	3.29
528.489	3.33
528.688	3.38
528.886	3.4
529.084	3.44
529.283	3.48
529.481	3.49
529.679	3.43
529.877	3.46
530.076	3.48
530.274	3.49
530.472	3.42
530.67	3.47
530.869	3.39
531.067	3.41
531.265	3.37
531.463	3.33
531.661	3.33
531.859	3.37
532.057	3.39
532.255	3.42
532.454	3.43
532.652	3.47
532.85	3.46
533.048	3.54
533.246	3.53
533.444	3.57
533.642	3.63
533.84	3.69
534.038	3.73
534.236	3.76
534.434	3.71
534.632	3.76
534.83	3.75
535.027	3.74
535.225	3.75
535.423	3.73
535.621	3.74
535.819	3.8
536.017	3.78
536.215	3.78
536.412	3.8
536.61	3.89
536.808	3.86
537.006	3.94
537.203	3.96
537.401	3.98
537.599	4.06
537.797	4.14
537.994	4.07
538.192	4.06
538.39	4.12
538.587	4.07
538.785	3.99
538.983	4
539.18	3.98
539.378	4.02
539.575	4.03
539.773	4.04
539.97	4.05
540.168	4.12
540.366	4.17
540.563	4.2
540.761	4.26
540.958	4.34
541.155	4.41
541.353	4.41
541.55	4.43
541.748	4.48
541.945	4.53
542.143	4.54
542.34	4.56
542.537	4.62
542.735	4.64
542.932	4.7
543.129	4.75
543.327	4.78
543.524	4.88
543.721	4.92
543.919	4.9
544.116	4.83
544.313	4.85
544.51	4.84
544.708	4.83
544.905	4.84
545.102	4.85
545.299	4.83
545.496	4.81
545.693	4.81
545.891	4.88
546.088	5.03
546.285	5.19
546.482	5.27
546.679	5.34
546.876	5.4
547.073	5.44
547.27	5.5
547.467	5.61
547.664	5.59
547.861	5.68
548.058	5.61
548.255	5.53
548.452	5.52
548.649	5.52
548.846	5.55
549.043	5.55
549.24	5.65
549.437	5.67
549.633	5.61
549.83	5.65
550.027	5.67
550.224	5.77
550.421	5.79
550.618	5.82
550.814	5.91
551.011	6.06
551.208	6.04
551.405	6.03
551.601	5.94
551.798	6.02
551.995	6.1
552.191	6.14
552.388	6.13
552.585	6.14
552.781	6.18
552.978	6.14
553.175	6.07
553.371	6.28
553.568	6.34
553.764	6.57
553.961	6.49
554.157	6.57
554.354	6.73
554.55	6.79
554.747	6.89
554.943	6.92
555.14	6.9
555.336	6.73
555.533	6.68
555.729	6.66
555.926	6.55
556.122	6.59
556.318	6.62
556.515	6.47
556.711	6.49
556.907	6.46
557.104	6.49
557.3	6.63
557.496	6.92
557.693	6.95
557.889	7.04
558.085	7.12
558.281	7.22
558.478	7.23
558.674	7.23
558.87	7.3
559.066	7.46
559.262	7.54
559.459	7.48
559.655	7.41
559.851	7.36
560.047	7.4
560.243	7.46
560.439	7.53
560.635	7.55
560.831	7.81
561.027	7.93
561.223	8.01
561.419	8.05
561.615	8.1
561.811	8.21
562.007	8.35
562.203	8.32
562.399	8.33
562.595	8.36
562.791	8.49
562.987	8.33
563.183	8.28
563.379	8.35
563.575	8.36
563.771	8.43
563.966	8.5
564.162	8.58
564.358	8.66
564.554	8.79
564.75	8.82
564.945	8.83
565.141	8.96
565.337	9.03
565.533	9.04
565.728	9.05
565.924	9.06
566.12	9.05
566.315	9.18
566.511	9.25
566.707	9.26
566.902	9.36
567.098	9.44
567.293	9.41
567.489	9.44
567.684	9.41
567.88	9.55
568.076	9.71
568.271	9.85
568.467	9.87
568.662	9.89
568.858	9.93
569.053	9.92
569.248	9.98
569.444	10.14
569.639	10.21
569.835	10.24
570.03	10.27
570.225	10.3
570.421	10.33
570.616	10.26
570.812	10.32
571.007	10.39
571.202	10.5
571.397	10.46
571.593	10.29
571.788	10.39
571.983	10.44
572.178	10.44
572.374	10.49
572.569	10.45
572.764	10.49
572.959	10.5
573.154	10.47
573.35	10.57
573.545	10.64
573.74	10.85
573.935	10.88
574.13	10.9
574.325	11.01
574.52	11.03
574.715	11.09
574.91	11.16
575.105	11.26
575.3	11.23
575.495	11.25
575.69	11.31
575.885	11.3
576.08	11.3
576.275	11.4
576.47	11.41
576.665	11.43
576.86	11.45
577.055	11.38
577.25	11.4
577.444	11.56
577.639	11.44
577.834	11.44
578.029	11.46
578.224	11.57
578.418	11.7
578.613	11.62
578.808	11.76
579.003	11.79
579.197	11.96
579.392	11.98
579.587	11.93
579.781	11.97
579.976	12
580.171	11.96
580.365	11.92
580.56	11.9
580.755	11.98
580.949	11.88
581.144	11.97
581.338	11.94
581.533	11.96
581.727	12.06
581.922	12.09
582.116	12.17
582.311	12.49
582.505	12.43
582.7	12.35
582.894	12.36
583.089	12.43
583.283	12.4
583.478	12.37
583.672	12.45
583.866	12.4
584.061	12.56
584.255	12.36
584.449	12.27
584.644	12.31
584.838	12.37
585.032	12.48
585.226	12.42
585.421	12.47
585.615	12.63
585.809	12.51
586.003	12.57
586.198	12.55
586.392	12.84
586.586	12.75
586.78	12.9
586.974	12.9
587.168	12.79
587.363	12.87
587.557	12.99
587.751	12.85
587.945	13.05
588.139	13.14
588.333	13.28
588.527	13.31
588.721	13.47
588.915	13.52
589.109	13.55
589.303	13.6
589.497	13.6
589.691	13.51
589.885	13.6
590.079	13.52
590.273	13.42
590.466	13.39
590.66	13.4
590.854	13.34
591.048	13.34
591.242	13.54
591.436	13.62
591.629	13.71
591.823	13.81
592.017	13.95
592.211	14.05
592.404	14.21
592.598	14.25
592.792	14.29
592.986	14.36
593.179	14.25
593.373	14.14
593.567	14.15
593.76	14.07
593.954	14.07
594.147	14.06
594.341	14.04
594.535	13.98
594.728	13.89
594.922	13.87
595.115	14
595.309	14.06
595.502	14.1
595.696	14.15
595.889	14.23
596.083	14.2
596.276	14.24
596.47	14.25
596.663	14.37
596.856	14.53
597.05	14.61
597.243	14.38
597.437	14.47
597.63	14.48
597.823	14.48
598.017	14.48
598.21	14.48
598.403	14.48
598.596	14.52
598.79	14.45
598.983	14.34
599.176	14.29
599.369	14.42
599.563	14.36
599.756	14.39
599.949	14.46
600.142	14.55
600.335	14.74
600.528	14.68
600.722	14.72
600.915	14.83
601.108	14.86
601.301	14.83
601.494	14.89
601.687	14.95
601.88	14.99
602.073	14.99
602.266	14.99
602.459	14.95
602.652	15.05
602.845	15.06
603.038	15.08
603.231	15.09
603.424	15.15
603.617	15.15
603.809	15.18
604.002	15.22
604.195	15.24
604.388	15.32
604.581	15.37
604.774	15.35
604.966	15.33
605.159	15.31
605.352	15.31
605.545	15.41
605.737	15.48
605.93	15.47
606.123	15.49
606.316	15.55
606.508	15.41
606.701	15.28
606.894	15.21
607.086	15.21
607.279	15.23
607.471	15.28
607.664	15.15
607.857	15.04
608.049	15.06
608.242	15.09
608.434	15.02
608.627	15.14
608.819	15.2
609.012	15.29
609.204	15.32
609.397	15.24
609.589	15.31
609.782	15.31
609.974	15.47
610.166	15.49
610.359	15.34
610.551	15.37
610.743	15.33
610.936	15.32
611.128	15.36
611.32	15.5
611.513	15.59
611.705	15.56
611.897	15.69
612.09	15.64
612.282	15.64
612.474	15.69
612.666	15.83
612.858	15.76
613.051	15.97
613.243	15.96
613.435	15.78
613.627	15.93
613.819	15.86
614.011	15.71
614.203	15.74
614.395	15.87
614.588	16
614.78	16.1
614.972	16.35
615.164	16.24
615.356	16.26
615.548	16.43
615.74	16.39
615.932	16.31
616.124	16.46
616.315	16.46
616.507	16.26
616.699	16.34
616.891	16.09
617.083	16.01
617.275	16.05
617.467	16.02
617.659	15.94
617.85	15.96
618.042	16.02
618.234	15.92
618.426	16.06
618.618	16.2
618.809	16.11
619.001	16.36
619.193	16.41
619.384	16.43
619.576	16.52
619.768	16.58
619.959	16.71
620.151	16.6
620.343	16.88
620.534	16.81
620.726	16.81
620.917	16.88
621.109	16.72
621.301	16.5
621.492	16.48
621.684	16.58
621.875	16.53
622.067	16.32
622.258	16.61
622.45	16.39
622.641	16.37
622.832	16.39
623.024	16.42
623.215	16.47
623.407	16.61
623.598	16.54
623.789	16.4
623.981	16.6
624.172	16.74
624.363	16.58
624.555	16.77
624.746	16.92
624.937	17
625.129	17.02
625.32	16.98
625.511	17.09
625.702	17.21
625.893	17.4
626.085	17.36
626.276	17.42
626.467	17.6
626.658	17.63
626.849	17.5
627.04	17.63
627.231	17.71
627.422	17.78
627.614	17.75
627.805	17.91
627.996	17.89
628.187	18.01
628.378	17.79
628.569	17.73
628.76	17.5
628.951	17.68
629.142	17.57
629.332	17.51
629.523	17.61
629.714	17.88
629.905	17.78
630.096	17.77
630.287	17.7
630.478	18.06
630.669	18.16
630.859	18.19
631.05	18.12
631.241	17.98
631.432	17.97
631.623	18.01
631.813	17.64
632.004	17.55
632.195	17.57
632.385	17.45
632.576	17.43
632.767	17.45
632.957	17.64
633.148	17.76
633.339	17.86
633.529	17.93
633.72	17.97
633.91	18
634.101	18.01
634.292	17.89
634.482	18.03
634.673	17.86
634.863	17.72
635.054	17.61
635.244	17.6
635.435	17.61
635.625	17.61
635.815	17.51
636.006	17.55
636.196	17.63
636.387	17.73
636.577	17.64
636.767	17.6
636.958	17.81
637.148	17.89
637.338	17.82
637.529	17.89
637.719	17.91
637.909	18.07
638.099	18.14
638.29	18.3
638.48	18.34
638.67	18.49
638.86	18.63
639.05	18.44
639.241	18.44
639.431	18.62
639.621	18.69
639.811	18.63
640.001	18.6
640.191	18.66
640.381	18.6
640.571	18.55
640.761	18.56
640.951	18.49
641.141	18.45
641.331	18.38
641.521	18.04
641.711	17.92
641.901	18.03
642.091	18.07
642.281	18.03
642.471	18.11
642.661	18.33
642.851	18.19
643.041	18.23
643.231	18.49
643.42	18.7
643.61	18.94
643.8	19.15
643.99	19.29
644.18	19.18
644.369	19.18
644.559	18.98
644.749	18.71
644.939	18.82
645.128	19.09
645.318	18.77
645.508	18.83
645.697	18.66
645.887	18.53
646.076	18.42
646.266	18.54
646.456	18.43
646.645	18.7
646.835	19.03
647.024	18.92
647.214	18.75
647.403	19.13
647.593	19.13
647.782	19.09
647.972	19.18
648.161	19.2
648.351	19.04
648.54	19.22
648.73	18.89
648.919	18.62
649.108	18.79
649.298	18.79
649.487	18.7
649.677	18.67
649.866	18.85
650.055	18.76
650.244	18.85
650.434	19.07
650.623	19.09
650.812	19.29
651.002	19.48
651.191	19.45
651.38	19.55
651.569	19.53
651.758	19.65
651.947	19.74
652.137	19.66
652.326	19.71
652.515	19.71
652.704	19.89
652.893	19.88
653.082	19.87
653.271	19.96
653.46	20
653.649	20.04
653.838	19.63
654.027	19.66
654.216	19.67
654.405	19.53
654.594	19.17
654.783	19.1
654.972	19.39
655.161	19.17
655.35	19.24
655.539	19.19
655.728	19.09
655.916	19.34
656.105	19.27
656.294	19.33
656.483	19.4
656.672	19.73
656.86	19.62
657.049	19.44
657.238	19.67
657.427	19.63
657.615	19.68
657.804	19.87
657.993	19.91
658.181	19.99
658.37	20
658.559	19.93
658.747	19.93
658.936	19.99
659.125	20.09
659.313	20.04
659.502	19.93
659.69	19.94
659.879	20.12
660.067	20.17
660.256	20.13
660.444	20.24
660.633	20.3
660.821	20.26
661.01	20.42
661.198	20.35
661.387	20.45
661.575	20.58
661.763	20.39
661.952	20.31
662.14	20.4
662.328	20.48
662.517	20.49
662.705	20.61
662.893	20.65
663.082	20.38
663.27	20.56
663.458	20.43
663.646	20.31
663.834	20.5
664.023	20.19
664.211	20.11
664.399	20.12
664.587	20.14
664.775	20.1
664.963	20.1
665.152	20.22
665.34	19.86
665.528	19.94
665.716	20
665.904	20.03
666.092	20.18
666.28	20.17
666.468	20.15
666.656	20.05
666.844	20.11
667.032	19.92
667.22	20.08
667.408	20.1
667.596	20.16
667.784	20.13
667.971	20.07
668.159	19.94
668.347	20.09
668.535	19.94
668.723	19.89
668.911	19.81
669.098	20.21
669.286	20.17
669.474	20.5
669.662	20.36
669.849	20.56
670.037	20.67
670.225	20.83
670.413	20.77
670.6	20.91
670.788	21.13
670.976	21.08
671.163	20.96
671.351	21.11
671.538	21.13
671.726	21.38
671.913	21.18
672.101	21.32
672.289	21.29
672.476	21.16
672.664	21.26
672.851	21.32
673.039	21.45
673.226	21.48
673.413	21.21
673.601	21.18
673.788	21.04
673.976	21.09
674.163	20.94
674.35	21.12
674.538	21.27
674.725	21.27
674.912	20.97
675.1	20.99
675.287	20.89
675.474	20.99
675.662	20.95
675.849	21.14
676.036	21.37
676.223	21.45
676.411	21.32
676.598	21.16
676.785	20.96
676.972	21.28
677.159	21.55
677.346	21.56
677.533	21.49
677.721	21.41
677.908	21.29
678.095	21.31
678.282	21.26
678.469	21.33
678.656	21.47
678.843	21.44
679.03	21.27
679.217	20.98
679.404	21.22
679.591	21.36
679.778	21.52
679.964	21.47
680.151	21.43
680.338	21.48
680.525	21.26
680.712	21.24
680.899	21.36
681.086	21.21
681.272	21.2
681.459	20.97
681.646	20.79
681.833	20.79
682.02	20.92
682.206	20.77
682.393	20.82
682.58	21.12
682.766	20.96
682.953	21.07
683.14	21.26
683.326	21.61
683.513	21.49
683.7	21.73
683.886	21.59
684.073	21.48
684.259	21.38
684.446	21.49
684.632	21.45
684.819	21.67
685.005	21.71
685.192	21.91
685.378	21.66
685.565	21.75
685.751	21.85
685.938	21.98
686.124	21.97
686.31	22.36
686.497	22.57
686.683	22.66
686.87	22.54
687.056	22.42
687.242	22.23
687.429	22.29
687.615	22.31
687.801	22.21
687.987	22.2
688.174	22.35
688.36	22.32
688.546	21.98
688.732	21.82
688.918	21.83
689.105	21.87
689.291	22.23
689.477	22.07
689.663	22.28
689.849	22.11
690.035	22.22
690.221	22.11
690.407	21.94
690.593	22.16
690.779	22.29
690.965	22.41
691.151	22.54
691.337	22.43
691.523	22.62
691.709	22.56
691.895	22.69
692.081	22.64
692.267	22.67
692.453	22.82
692.639	22.79
692.825	22.47
693.011	22.3
693.196	22.4
693.382	22.38
693.568	22.45
693.754	22.19
693.94	22.11
694.125	22.12
694.311	21.96
694.497	21.94
694.682	21.86
694.868	22.1
695.054	22.34
695.239	22.01
695.425	22.03
695.611	21.81
695.796	22.27
695.982	21.97
696.168	21.99
696.353	22.49
696.539	22.29
696.724	22.44
696.91	22.38
697.095	22.31
697.281	22.51
697.466	22.48
697.652	22.52
697.837	22.5
698.023	22.81
698.208	22.84
698.393	22.53
698.579	22.57
698.764	22.57
698.949	22.97
699.135	22.98
699.32	22.93
699.505	22.95
699.691	23.13
699.876	23.02
700.061	23.29
700.246	23.2
700.432	23.39
700.617	23.89
700.802	23.51
700.987	22.92
701.172	22.85
701.358	22.73
701.543	22.8
701.728	22.82
701.913	22.28
702.098	21.9
702.283	21.77
702.468	21.78
702.653	21.38
702.838	21.77
703.023	22.13
703.208	22.17
703.393	22.24
703.578	22.4
703.763	22.26
703.948	22.63
704.133	22.32
704.318	22.8
704.503	22.61
704.688	22.84
704.873	22.86
705.057	22.58
705.242	22.71
705.427	22.83
705.612	22.65
705.797	22.72
705.981	22.79
706.166	23.17
706.351	22.82
706.536	22.73
706.72	22.6
706.905	22.42
707.09	22.16
707.274	22.16
707.459	22.49
707.644	22.56
707.828	22.37
708.013	22.6
708.197	22.56
708.382	23.02
708.567	23.45
708.751	23.6
708.936	23.85
709.12	24.38
709.305	24.48
709.489	24.35
709.673	24.4
709.858	24.62
710.042	24.63
710.227	24.84
710.411	24.49
710.596	24.39
710.78	24.2
710.964	24.02
711.149	23.57
711.333	23.51
711.517	23.69
711.702	23.52
711.886	23.47
712.07	23.24
712.254	23.26
712.438	23.37
712.623	23.34
712.807	23.45
712.991	23.52
713.175	23.94
713.359	24.01
713.544	23.33
713.728	23.71
713.912	23.87
714.096	24.35
714.28	23.73
714.464	23.45
714.648	23.5
714.832	23.29
715.016	23.04
715.2	22.96
715.384	23.02
715.568	23.65
715.752	23.12
715.936	23.28
716.12	22.84
716.304	23.62
716.488	23.68
716.671	23.71
716.855	24.18
717.039	23.99
717.223	24.05
717.407	24.14
717.59	23.7
717.774	24.26
717.958	23.73
718.142	23.95
718.325	23.43
718.509	23.58
718.693	23.92
718.877	23.48
719.06	24.04
719.244	23.88
719.428	23.79
719.611	24.2
719.795	24.14
719.978	24.3
720.162	23.9
720.345	24.11
720.529	23.85
720.713	23.22
720.896	23.13
721.08	23
721.263	23.36
721.446	23.27
721.63	23.66
721.813	23.61
721.997	23.37
722.18	24.17
722.364	24.13
722.547	24.22
722.73	24.4
722.914	24.72
723.097	24.63
723.28	24.53
723.464	24.42
723.647	23.59
723.83	23.49
724.013	23.38
724.197	22.72
724.38	22.84
724.563	23.39
724.746	23.25
724.929	23.2
725.112	23.93
725.296	23.97
725.479	24.15
725.662	24.13
725.845	23.85
726.028	24.09
726.211	23.97
726.394	23.87
726.577	23.4
726.76	23.52
726.943	23.1
727.126	22.32
727.309	22.15
727.492	22.16
727.675	22.43
727.858	22.75
728.041	23.36
728.224	23.72
728.407	23.95
728.589	23.94
728.772	24.2
728.955	24.27
729.138	24.87
729.321	24.91
729.503	25.06
729.686	24.37
729.869	24.69
730.052	24
730.234	23.87
730.417	23.35
730.6	24.03
730.782	23.55
730.965	23.9
731.148	23.72
731.33	24.17
731.513	23.72
731.695	24.14
731.878	24.35
732.061	24.52
732.243	24.73
732.426	25.32
732.608	24.68
732.791	25.09
732.973	24.74
733.156	24.22
733.338	23.99
733.52	23.99
733.703	23.94
733.885	23.06
734.068	23.38
734.25	23.05
734.432	22.8
734.615	23.2
734.797	23.11
734.979	23.36
735.162	23.9
735.344	23.82
735.526	24.39
735.708	24.39
735.891	24.75
736.073	24.7
736.255	25.11
736.437	24.65
736.619	24.78
736.802	24.35
736.984	24.61
737.166	24.16
737.348	24.33
737.53	24.18
737.712	24.45
737.894	24.39
738.076	24.1
738.258	23.46
738.44	23.74
738.622	23.25
738.804	23.93
738.986	23.97
739.168	24.02
739.35	23.63
739.532	23.51
739.714	23.18
739.896	23.26
740.078	23.12
740.259	23.65
740.441	23.13
740.623	23.32
740.805	22.99
740.987	22.56
741.168	23.81
741.35	23.84
741.532	24.24
741.714	23.97
741.895	24.58
742.077	24.66
742.259	24.37
742.44	24.43
742.622	24.47
742.804	24.29
742.985	24.08
743.167	22.89
743.348	22.86
743.53	22.13
743.711	22.78
743.893	22.36
744.075	22.64
744.256	22.38
744.438	22.98
744.619	23.03
744.8	22.26
744.982	22.89
745.163	23.05
745.345	22.62
745.526	22.9
745.707	23.12
745.889	23.24
746.07	22.98
746.252	23.47
746.433	23.86
746.614	23.8
746.795	24.25
746.977	24.28
747.158	24.19
747.339	25.14
747.52	25.7
747.702	25.54
747.883	25.33
748.064	26.02
748.245	25.8
748.426	24.85
748.607	24.23
748.788	25.35
748.97	25.21
749.151	25.66
749.332	25.6
749.513	24.19
749.694	24.18
749.875	24.27
750.056	23.06
750.237	23.42
750.418	24.13
750.599	24.09
750.78	22.95
750.96	22.81
751.141	22.01
751.322	20.9
751.503	21.94
751.684	21.62
751.865	21.11
752.046	21.54
752.226	20.97
752.407	20.8
752.588	21
752.769	21.02
752.949	21.38
753.13	21.91
753.311	22.08
753.492	22.35
753.672	23.01
753.853	23.42
754.034	23.69
754.214	24.3
754.395	24.1
754.575	24.32
754.756	24.77
754.937	23.22
755.117	23.03
755.298	23.79
755.478	23.61
755.659	23.75
755.839	23.75
756.02	23.78
756.2	23.45
756.381	23.65
756.561	23.5
756.741	23.59
756.922	24.87
757.102	24.88
757.283	24.98
757.463	24.48
757.643	23.96
757.823	23.75
758.004	23.41
758.184	23.18
758.364	23.39
758.545	23.39
758.725	23.01
758.905	23
759.085	23.06
759.265	22.65
759.446	21.93
759.626	22.23
759.806	22.24
759.986	22.04
760.166	21.94
760.346	21.64
760.526	22.17
760.706	22.83
760.886	23.06
761.066	22.77
761.246	22.79
761.426	23.7
761.606	23.94
761.786	24.03
761.966	24.46
762.146	24.85
762.326	25.27
762.506	24.71
762.686	24.57
762.866	24.44
763.046	24.69
763.225	24.55
763.405	24.72
763.585	24.69
763.765	24.37
763.945	24.25
764.124	24.09
764.304	23.84
764.484	24.39
764.664	24.43
764.843	24.4
765.023	24
765.203	24.17
765.382	24.15
765.562	23.69
765.741	24.32
765.921	24.69
766.101	25
766.28	24.98
766.46	24.49
766.639	24.28
766.819	23.95
766.998	24.35
767.178	24.22
767.357	24.21
767.537	24.38
767.716	24.05
767.896	23.11
768.075	23.1
768.254	23.01
768.434	23.26
768.613	23.06
768.792	23.67
768.972	23.07
769.151	23.47
769.33	23.32
769.51	23.61
769.689	23.65
769.868	23.85
770.047	23.58
770.226	24.15
770.406	24.31
770.585	24.42
770.764	23.84
770.943	23.21
771.122	22.11
771.301	22.55
771.48	21.72
771.66	21.21
771.839	21.8
772.018	21.83
772.197	21.29
772.376	22.5
772.555	23.01
772.734	22.89
772.913	24.87
773.092	25.46
773.271	25
773.449	25.73
773.628	26.43
773.807	27.09
773.986	27.11
774.165	27.1
774.344	26.43
774.523	25.76
774.701	26.68
774.88	26.68
775.059	26.9
775.238	26.58
775.417	26.07
775.595	26.22
775.774	24.83
775.953	24.65
776.131	24.73
776.31	24.68
776.489	24.55
776.667	23.46
776.846	22.83
777.025	23.46
777.203	23.67
777.382	23.47
777.56	23.18
777.739	24.17
777.917	25.17
778.096	24.84
778.274	23.51
778.453	23.31
778.631	23.61
778.81	23.88
778.988	23.69
779.166	24.26
779.345	24.45
779.523	23.67
779.702	23.82
779.88	23.24
780.058	23.76
780.237	24.66
780.415	25.55
780.593	26.26
780.771	26.12
780.95	25.71
781.128	25.3
781.306	25.07
781.484	26.49
781.662	26.19
781.841	25.92
782.019	25.57
782.197	25.52
782.375	25.57
782.553	24.52
782.731	23.72
782.909	24
783.087	23.15
783.265	24.31
783.443	22.68
783.621	22.81
783.799	22.64
783.977	22.74
784.155	22.9
784.333	23.21
784.511	23.98
784.689	24.1
784.867	24.27
785.045	24.47
785.223	23.72
785.4	25.09
785.578	23.86
785.756	24.56
785.934	24.4
786.112	24.06
786.289	23.55
786.467	23.54
786.645	24.42
786.823	24.03
787	24.84
787.178	24.45
787.356	23.96
787.533	24.14
787.711	24.15
787.889	24.52
788.066	24.78
788.244	23.96
788.421	24
788.599	22.98
788.776	23.67
788.954	22.16
789.131	22.73
789.309	22.81
789.486	23.56
789.664	22.45
789.841	22.25
790.019	21.78
790.196	23.52
790.373	23.28
790.551	24.41
790.728	23.96
790.906	25.34
791.083	25.03
791.26	23.8
791.437	23.48
791.615	25.24
791.792	24.45
791.969	25.08
792.146	24.65
792.324	24.56
792.501	24.49
792.678	23.7
792.855	23.91
793.032	24.35
793.209	26.04
793.387	26.24
793.564	25.64
793.741	26.39
793.918	26.39
794.095	25.26
794.272	25.82
794.449	25.71
794.626	27.57
794.803	28.26
794.98	28.4
795.157	27.14
795.334	26.72
795.511	26.1
795.688	26.04
795.864	25.4
796.041	26.14
796.218	25.78
796.395	24.3
796.572	22.57
796.749	21.9
796.925	21.36
797.102	22.42
797.279	23.38
797.456	23.44
797.632	24.21
797.809	24.51
797.986	24.52
798.162	25.47
798.339	27.27
798.516	27.54
798.692	26.94
798.869	26.89
799.046	25.33
799.222	24.29
799.399	24.1
799.575	23.22
799.752	23.31
799.928	22.94
800.105	20.99
800.281	19.84
800.458	19.86
800.634	19.91
800.811	20.87
800.987	21.82
801.163	20.93
801.34	21.94
801.516	22.02
801.692	22.39
801.869	22.22
802.045	23.71
802.221	23.22
802.398	24.72
802.574	25.04
802.75	24.78
802.926	25.76
803.103	26.65
803.279	25.13
803.455	25.63
803.631	26
803.807	25.54
803.983	25.28
804.16	26.01
804.336	24.51
804.512	24.48
804.688	24.55
804.864	24.23
805.04	24.71
805.216	25.63
805.392	24.58
805.568	23.97
805.744	24.85
805.92	24.98
806.096	25.84
806.272	25.84
806.448	26.87
806.623	26.36
806.799	26.79
806.975	27.04
807.151	26.55
807.327	27.65
807.503	27.02
807.678	26.92
807.854	26.12
808.03	25.63
808.206	26.44
808.381	25.93
808.557	25.94
808.733	24.52
808.908	24.14
809.084	24.94
809.26	23.94
809.435	24.87
809.611	24.81
809.787	24.39
809.962	24.14
810.138	23.75
810.313	22.62
810.489	22.86
810.664	24.31
810.84	24.91
811.015	25.03
811.191	26.21
811.366	24.48
811.542	24.4
811.717	26.13
811.892	25.72
812.068	25.53
812.243	25.94
812.419	25.67
812.594	24.81
812.769	24.58
812.944	24.4
813.12	22.59
813.295	22.7
813.47	21.96
813.645	21.44
813.821	21.43
813.996	21.88
814.171	21.71
814.346	20.88
814.521	20.42
814.697	21.1
814.872	20.71
815.047	21.67
815.222	22.38
815.397	23.43
815.572	23.53
815.747	24.61
815.922	25.57
816.097	25.26
816.272	27.54
816.447	27.45
816.622	27.11
816.797	26.06
816.972	24.24
817.147	23.66
817.322	22.63
817.496	22.32
817.671	21.86
817.846	20.39
818.021	21.37
818.196	19.97
818.371	21.32
818.545	21.2
818.72	21.85
818.895	23.46
819.069	24.79
819.244	25.63
819.419	25.82
819.594	26.08
819.768	26.46
819.943	27.03
820.117	26.79
820.292	26.39
820.467	26.66
820.641	27
820.816	27.6
820.99	27.24
821.165	27.03
821.339	27.12
821.514	26.99
821.688	26.97
821.863	26.75
822.037	26.69
822.212	26.98
822.386	26.88
822.56	26.99
822.735	26.71
822.909	26.67
823.084	26.88
823.258	26.67
823.432	26.9
823.606	26.82
823.781	27.06
823.955	27.17
824.129	27.05
824.303	27.22
824.478	27.17
824.652	26.91
824.826	27.25
825	26.84
825.174	27.13
825.348	26.89
825.523	27.35
825.697	27.27
825.871	27.57
826.045	27.52
826.219	27.18
826.393	26.53
826.567	26.86
826.741	26.64
826.915	26.96
827.089	27.13
827.263	27.35
827.437	26.62
827.611	26.16
827.784	26.16
827.958	26.1
828.132	26.57
828.306	27.75
828.48	27.69
828.654	27.66
828.827	27.57
829.001	27.19
829.175	26.71
829.349	26.88
829.522	27.07
829.696	27.04
829.87	26.86
830.044	25.94
830.217	25.5
830.391	25.44
830.565	25.16
830.738	25.66
830.912	25.17
831.085	25.27
831.259	26
831.432	26.12
831.606	26.44
831.779	26.54
831.953	26.73
832.126	26.11
832.3	26.16
832.473	26.71
832.647	26.12
832.82	26.36
832.994	25.78
833.167	25.99
833.34	26.27
833.514	25.46
833.687	25.46
833.86	26.15
834.034	26.33
834.207	26.23
834.38	25.41
834.553	25.26
834.727	25.16
834.9	25.86
835.073	25.03
835.246	25.39
835.419	25.79
835.593	26.24
835.766	25.4
835.939	24.9
836.112	25.04
836.285	25.94
836.458	26.17
836.631	25.15
836.804	24.28
836.977	24.12
837.15	22.84
837.323	21.55
837.496	19.13
837.669	18.7
837.842	18.4
838.015	18.48
838.188	17.43
838.361	17.28
838.533	19.48
838.706	21.98
838.879	22.09
839.052	23.78
839.225	25.88
839.398	28.26
839.57	28.53
839.743	29.43
839.916	31.76
840.088	32.84
840.261	31.84
840.434	30.36
840.607	30.22
840.779	31.19
840.952	28.7
841.124	29.67
841.297	28.88
841.47	29.63
841.642	28.07
841.815	25.41
841.987	23.73
842.16	24.48
842.332	25.71
842.505	21.13
842.677	19.55
842.85	22.93
843.022	22.24
843.194	20.28
843.367	16.12
843.539	16.01
843.712	16.73
843.884	17.77
844.056	18.66
844.229	21.81
844.401	25.26
844.573	26.34
844.745	23.83
844.918	21.25
845.09	21.97
845.262	25.03
845.434	25.72
845.606	22.85
845.779	24.11
845.951	24.09
846.123	22.23
846.295	22.04
846.467	23.29
846.639	23.43
846.811	24.07
846.983	28.42
847.155	30.45
847.327	26.83
847.499	32.42
847.671	30.22
847.843	29.37
848.015	25.51
848.187	27.88
848.359	25.42
848.531	25.04
848.703	26.31
848.875	22.09
849.047	18.57
849.218	21.02
849.39	20.29
849.562	20.21
849.734	23.81
849.905	25.55
850.077	25.43
850.249	29.62
850.421	26.7
850.592	25.67
850.764	27.18
850.936	30.97
851.107	33.98
851.279	30.34
851.451	31.08
851.622	30.89
851.794	30.9
851.965	27.17
852.137	24.9
852.308	26.22
852.48	23.26
852.651	24.91
852.823	21.83
852.994	19.09
853.166	21.4
853.337	23.03
853.509	17.64
853.68	19.68
853.851	22.79
854.023	23.1
854.194	19.29
854.365	21.74
854.537	20.65
854.708	24.82
854.879	23.05
855.05	24.25
855.222	21.8
855.393	23.78
855.564	21.02
855.735	14.51
855.906	15.13
856.078	16.14
856.249	16.44
856.42	14.8
856.591	11.43
856.762	10.47
856.933	4.05
857.104	0.15
857.275	-2.55
857.446	-4.15
857.617	4.3
857.788	2.38
857.959	3.98
858.13	5.48
858.301	7.18
858.472	8.33
858.643	7.39
858.814	10.55
858.985	14.88
859.155	12.87
859.326	15.07
859.497	10.95
859.668	8.78
859.839	9.49
860.009	5.6
860.18	0.66
860.351	-0.12
860.522	7.96
860.692	13.19
860.863	5.5
861.034	6.93
861.204	7
861.375	5.56
861.546	8.72
861.716	7.65
861.887	11.71
862.057	15.17
862.228	14.24
862.398	12.53
862.569	3.73
862.739	11.01
862.91	13.54
863.08	16.11
863.251	21.11
863.421	20.89
863.592	20.81
863.762	18.31
863.932	18.34
864.103	18.24
864.273	17.03
864.443	20.92
864.614	16.83
864.784	13.37
864.954	9.37
865.125	12.61
865.295	10
865.465	6.98
865.635	7.58
865.805	8.87
865.976	8.13
866.146	8.08
866.316	3.29
866.486	8.98
866.656	7.14
866.826	7.73
866.996	2.31
867.166	5.67
867.336	3.68
867.506	5.59
867.676	3.64
867.846	3.3
868.016	2.15
868.186	2.15
868.356	2.56
868.526	4.99
868.696	8.1
868.866	9.08
869.036	10.69
869.206	22.75
869.376	27.44
869.545	30.82
869.715	34.26
869.885	37.62
870.055	41.28
870.224	39.28
870.394	37.75
870.564	34.28
870.734	31.04
870.903	29.04
871.073	22.22
871.243	18.58
871.412	11.48
871.582	6.92
871.751	6.5
871.921	5.92
872.091	11
872.26	14.48
872.43	14.41
872.599	17.89
872.769	18.11
872.938	22.16
873.108	17.88
873.277	20.6
873.446	21.46
873.616	18.4
873.785	17.62
873.955	14.04
874.124	15.08
874.293	12.5
874.463	4.64
874.632	1.71
874.801	2.73
874.971	5.52
875.14	-2.64
875.309	-6.13
875.478	-1.72
875.647	1.37
875.817	3.4
875.986	-1.01
876.155	3.95
876.324	5.39
876.493	6.92
876.662	3.73
876.831	6.23
877	12.45
877.17	20.13
877.339	20.84
877.508	21.09
877.677	22.58
877.846	25.59
878.015	23.41
878.184	23.76
878.352	21.57
878.521	22.43
878.69	21.7
878.859	24.29
879.028	20.55
879.197	18.81
879.366	19.72
879.534	20.96
879.703	21.34
879.872	23.26
880.041	25.54
880.21	26.75
880.378	26.38
880.547	27.97
880.716	28.3
880.884	27.73
881.053	28.34
881.222	29.05
881.39	28.98
881.559	28.74
881.727	28.5
881.896	28.61
882.065	28.74
882.233	28.87
882.402	28.65
882.57	28.32
882.739	28.44
882.907	27.66
883.076	27.4
883.244	26.72
883.412	27.37
883.581	27.89
883.749	27.33
883.918	27.89
884.086	27.72
884.254	26.6
884.423	27.03
884.591	26.81
884.759	27.8
884.927	26.01
885.096	26.93
885.264	26.33
885.432	25
885.6	25.19
885.769	23.03
885.937	21.34
886.105	21.71
886.273	20.54
886.441	19.44
886.609	17.91
886.777	18.45
886.945	17.26
887.113	15.75
887.281	17.28
887.449	18.96
887.617	19.91
887.785	22.14
887.953	23.24
888.121	24.22
888.289	28.91
888.457	31.65
888.625	33.78
888.793	34.16
888.961	31.54
889.129	30.36
889.296	26.54
889.464	26.83
889.632	27.26
889.8	27.66
889.967	24.63
890.135	18.67
