Data from 2938548_Reflection_1.txt Node
Date: Mon Jun 15 00:12:27 EDT 2015
User: robert
Spectrometer: USB4E03002
Autoset integration time: false
Trigger mode: 4
Integration Time (sec): 1.000000E-1
Scans to average: 10
Electric dark correction enabled: true
Nonlinearity correction enabled: false
Boxcar width: 5
Stray light correction enabled: false
XAxis mode: Wavelengths
Stop averaging: false
Number of Pixels in Spectrum: 3648
>>>>>Begin Spectral Data<<<<<
177.575	26.05
177.794	5.71
178.014	12
178.233	22.76
178.452	22.39
178.672	17.68
178.891	-4.86
179.11	70.67
179.33	44.55
179.549	39.71
179.768	-4.62
179.987	-19.07
180.207	-60.76
180.426	-177.69
180.645	-75.56
180.864	-88.69
181.084	-75.25
181.303	-396.11
181.522	444.35
181.741	-262.65
181.96	2163.02
182.179	160.1
182.398	249.6
182.618	79.44
182.837	-930.14
183.056	31.44
183.275	-36.18
183.494	208.41
183.713	-78.24
183.932	146.22
184.151	147
184.37	134.71
184.589	98.63
184.808	146.45
185.027	174.72
185.246	148.55
185.465	199.98
185.684	239.54
185.903	272.02
186.122	234.17
186.341	599.81
186.56	518.21
186.779	-92.19
186.998	-50.99
187.216	33.26
187.435	66.89
187.654	94.44
187.873	85.48
188.092	104.56
188.311	90.85
188.53	77.41
188.748	103.92
188.967	71.19
189.186	89.35
189.405	54.72
189.623	45.58
189.842	16.57
190.061	2.66
190.28	16.51
190.498	32
190.717	16.85
190.936	95.72
191.154	-2.89
191.373	1414.17
191.592	282.26
191.81	-39.52
192.029	-3.85
192.248	2.05
192.466	20.85
192.685	62.53
192.904	73.84
193.122	103.84
193.341	128.81
193.559	122.21
193.778	82.51
193.996	85.53
194.215	119.06
194.433	72.72
194.652	19.1
194.87	-28.59
195.089	890.68
195.307	115.73
195.526	523.57
195.744	4022.56
195.963	-387.59
196.181	-1240
196.399	-519.25
196.618	-559.43
196.836	-1332.96
197.055	-164.27
197.273	-266.31
197.491	-88.93
197.71	16.67
197.928	-33.11
198.146	40.67
198.365	-68.95
198.583	-426.55
198.801	1352.35
199.019	-1100.18
199.238	18941.38
199.456	222.3
199.674	748.7
199.892	920.04
200.111	351.91
200.329	209.44
200.547	507.67
200.765	1310.06
200.983	231.38
201.202	80.53
201.42	196.09
201.638	246.57
201.856	-188.65
202.074	-427.23
202.292	308.1
202.51	196.39
202.728	240.94
202.946	-294.76
203.165	-41.97
203.383	72.03
203.601	52.76
203.819	267.48
204.037	151.26
204.255	207.33
204.473	193.98
204.691	190.73
204.909	106.44
205.127	63.81
205.345	-18.69
205.562	-31.47
205.78	-64.94
205.998	-210.25
206.216	-369.99
206.434	-4202.36
206.652	409.79
206.87	315.87
207.088	509.94
207.306	85.69
207.523	32.39
207.741	-2.61
207.959	-21.56
208.177	-639.92
208.395	-215.49
208.612	-316.47
208.83	689.57
209.048	192.21
209.266	106.89
209.483	107.86
209.701	110.04
209.919	78.17
210.136	87.99
210.354	30.49
210.572	60.47
210.79	38.66
211.007	39.47
211.225	80.13
211.442	62.13
211.66	82.44
211.878	140.61
212.095	396.55
212.313	278.79
212.53	279.87
212.748	270.75
212.966	275.35
213.183	225
213.401	189.32
213.618	165.47
213.836	122.27
214.053	146.09
214.271	151.01
214.488	-19.03
214.705	-61.42
214.923	-34.17
215.14	-23.48
215.358	-25.34
215.575	-17.24
215.793	4.24
216.01	-3.09
216.227	50.21
216.445	18.72
216.662	10.55
216.879	13.31
217.097	23.42
217.314	6.22
217.531	2.31
217.749	10.64
217.966	20.52
218.183	14.24
218.4	15.46
218.618	2
218.835	5.91
219.052	-0.28
219.269	1.14
219.487	6.13
219.704	-1.86
219.921	4.41
220.138	-0.05
220.355	-6.72
220.572	-10.75
220.79	4.5
221.007	10.17
221.224	0.24
221.441	12.22
221.658	21.13
221.875	11.63
222.092	23.15
222.309	14.66
222.526	14.5
222.743	3.51
222.96	-1.4
223.177	-5.02
223.394	-4.57
223.611	-1.07
223.828	-7.2
224.045	-11.95
224.262	-13.23
224.479	-18.26
224.696	-11.81
224.913	-10.78
225.13	-7.75
225.347	-3.36
225.564	0.03
225.781	1.17
225.997	2.47
226.214	2.38
226.431	2.51
226.648	3.89
226.865	6.33
227.082	5.93
227.298	6.87
227.515	8.1
227.732	7.99
227.949	8.34
228.165	8.8
228.382	9.64
228.599	9.5
228.816	9.99
229.032	10.22
229.249	9.98
229.466	9.58
229.682	10.05
229.899	9.6
230.116	9.38
230.332	7.63
230.549	3.6
230.765	1.88
230.982	2.6
231.199	2.91
231.415	3.98
231.632	3.47
231.848	5.41
232.065	4.11
232.281	3.88
232.498	4.43
232.714	4.07
232.931	6.09
233.147	6.55
233.364	7.47
233.58	6.05
233.797	7.13
234.013	7.44
234.23	8.1
234.446	7.46
234.662	9.05
234.879	10.35
235.095	11.53
235.312	13.86
235.528	14.73
235.744	14.81
235.961	15.94
236.177	15.29
236.393	14.64
236.61	16.42
236.826	17.45
237.042	13.86
237.258	11.2
237.475	9.24
237.691	9.39
237.907	6.83
238.123	7.04
238.339	6.21
238.556	5.12
238.772	5.24
238.988	4.56
239.204	3.19
239.42	5.24
239.636	6.48
239.853	8.11
240.069	7.75
240.285	8.14
240.501	8.64
240.717	8.47
240.933	9.4
241.149	9.27
241.365	8.51
241.581	8.7
241.797	8.34
242.013	8.27
242.229	8.04
242.445	7.84
242.661	8.61
242.877	8.17
243.093	8.41
243.309	8.74
243.525	8.89
243.741	9.36
243.957	9.88
244.173	9.24
244.388	9.16
244.604	8.72
244.82	9
245.036	8.73
245.252	8.49
245.468	8.35
245.683	8.2
245.899	7.81
246.115	7.76
246.331	7.63
246.547	7.62
246.762	7.39
246.978	7.26
247.194	7.08
247.409	6.74
247.625	6.62
247.841	7
248.057	6.43
248.272	6.64
248.488	5.87
248.703	5.38
248.919	5.85
249.135	5.82
249.35	5.81
249.566	5.66
249.782	6.09
249.997	6.36
250.213	5.65
250.428	5.87
250.644	6.42
250.859	6.54
251.075	6.91
251.29	6.71
251.506	6.44
251.721	6.58
251.937	6.2
252.152	5.86
252.368	5.43
252.583	5.15
252.798	5.01
253.014	4.26
253.229	4.34
253.445	3.68
253.66	3.32
253.875	4.09
254.091	4.41
254.306	4.62
254.521	4.08
254.737	4.1
254.952	4.39
255.167	3.53
255.383	3.57
255.598	3.77
255.813	3.69
256.028	3.86
256.244	3.51
256.459	3.23
256.674	3.38
256.889	3.79
257.104	4.02
257.32	4.67
257.535	5.13
257.75	5.1
257.965	5.01
258.18	5.28
258.395	5.3
258.61	5.34
258.826	5.41
259.041	5.66
259.256	5.72
259.471	5.9
259.686	5.41
259.901	5.49
260.116	5.42
260.331	5.89
260.546	6.16
260.761	6.64
260.976	6.96
261.191	7.02
261.406	6.57
261.621	6.23
261.836	5.95
262.05	7.51
262.265	7.16
262.48	7.72
262.695	7.1
262.91	6.08
263.125	5.2
263.34	5.41
263.555	5.47
263.769	5.9
263.984	6
264.199	5.5
264.414	4.85
264.629	4.91
264.843	4.06
265.058	4.69
265.273	5.3
265.488	5.61
265.702	5.31
265.917	5.43
266.132	5.1
266.346	5.37
266.561	5.34
266.776	4.85
266.99	4.78
267.205	5.76
267.42	5.26
267.634	5.55
267.849	6.09
268.063	5.99
268.278	5.91
268.492	5.85
268.707	5.52
268.922	6.12
269.136	6.14
269.351	6.14
269.565	5.44
269.78	5.86
269.994	5.45
270.209	4.69
270.423	4.86
270.637	4.58
270.852	4.46
271.066	4.64
271.281	4.49
271.495	4.7
271.709	4.68
271.924	5.18
272.138	4.61
272.353	4.71
272.567	5.04
272.781	5.1
272.996	5.19
273.21	5.53
273.424	5.51
273.638	5.96
273.853	6.11
274.067	5.9
274.281	4.88
274.495	5.16
274.71	5.56
274.924	5.52
275.138	5.66
275.352	5.4
275.566	5.42
275.781	5.07
275.995	4.46
276.209	4.05
276.423	4.71
276.637	5.57
276.851	5.59
277.065	5.13
277.279	5.09
277.493	4.67
277.707	4.95
277.921	5.07
278.135	5.45
278.349	5.53
278.563	5.33
278.777	5.05
278.991	4.81
279.205	4.76
279.419	4.8
279.633	4.75
279.847	4.99
280.061	5.37
280.275	5.64
280.489	5.49
280.703	5.63
280.917	5.85
281.131	5.89
281.344	6.02
281.558	5.95
281.772	5.82
281.986	6.21
282.2	6.28
282.414	6.18
282.627	5.79
282.841	6.12
283.055	5.76
283.269	5.61
283.482	5.29
283.696	5.45
283.91	5.45
284.123	5.63
284.337	5.29
284.551	5.32
284.764	5.32
284.978	5.42
285.192	4.89
285.405	4.8
285.619	4.85
285.833	4.73
286.046	4.37
286.26	4.54
286.473	4.09
286.687	4.27
286.9	4.03
287.114	4.07
287.327	3.94
287.541	4.17
287.754	4.55
287.968	4.54
288.181	5.01
288.395	4.95
288.608	4.81
288.822	4.79
289.035	4.16
289.248	3.99
289.462	3.59
289.675	3.72
289.889	4.03
290.102	3.76
290.315	3.65
290.529	3.64
290.742	3.87
290.955	3.68
291.169	3.43
291.382	4.08
291.595	4.03
291.808	4.39
292.022	4.6
292.235	4.51
292.448	4.83
292.661	5.38
292.875	5.12
293.088	5.13
293.301	5.2
293.514	5.81
293.727	5.68
293.94	5.77
294.153	5.7
294.367	5.09
294.58	4.69
294.793	4.35
295.006	4.05
295.219	3.73
295.432	3.85
295.645	4.04
295.858	4.02
296.071	4
296.284	3.97
296.497	4.05
296.71	4.05
296.923	4.58
297.136	4.61
297.349	4.5
297.562	4.8
297.775	4.63
297.988	4.56
298.201	4.31
298.414	4.28
298.626	4.11
298.839	3.84
299.052	4
299.265	3.9
299.478	4.04
299.691	3.8
299.903	3.97
300.116	4.18
300.329	4.29
300.542	4.4
300.755	4.43
300.967	4.78
301.18	4.78
301.393	4.97
301.605	4.5
301.818	4.52
302.031	4.87
302.243	4.86
302.456	4.58
302.669	4.46
302.881	4.65
303.094	4.62
303.307	4.43
303.519	4.9
303.732	5
303.944	5.34
304.157	5.57
304.37	5.59
304.582	5.37
304.795	5.79
305.007	5.9
305.22	5.65
305.432	5.82
305.645	6.13
305.857	5.84
306.069	5.76
306.282	6.06
306.494	5.89
306.707	5.64
306.919	5.84
307.132	5.14
307.344	5.04
307.556	5.51
307.769	5.04
307.981	4.9
308.193	4.71
308.406	4.76
308.618	4.3
308.83	4.22
309.043	4.32
309.255	4.23
309.467	4.44
309.679	4.68
309.892	4.16
310.104	4.61
310.316	4.79
310.528	4.92
310.74	5.09
310.953	5.51
311.165	5.61
311.377	5.8
311.589	5.99
311.801	6.14
312.013	5.99
312.225	5.92
312.437	5.63
312.649	5.12
312.862	5.16
313.074	5.23
313.286	5.17
313.498	5.3
313.71	5.38
313.922	5.5
314.134	5.32
314.346	5
314.558	5.08
314.77	5.55
314.982	5.86
315.193	5.72
315.405	5.21
315.617	4.94
315.829	4.77
316.041	4.47
316.253	4.38
316.465	4.21
316.677	4.27
316.888	4.34
317.1	3.9
317.312	3.65
317.524	3.73
317.736	3.75
317.947	3.72
318.159	3.6
318.371	3.77
318.583	3.11
318.794	3.34
319.006	3.09
319.218	3.64
319.43	3.38
319.641	3.71
319.853	3.95
320.064	4.26
320.276	4.44
320.488	4.62
320.699	4.95
320.911	5.13
321.123	5.71
321.334	5.62
321.546	5.57
321.757	5.87
321.969	5.79
322.18	5.34
322.392	4.94
322.603	5.15
322.815	4.78
323.026	4.47
323.238	4.28
323.449	4.11
323.661	4.47
323.872	4.29
324.083	4.59
324.295	4.59
324.506	4.93
324.718	5.2
324.929	4.91
325.14	5.23
325.352	5.74
325.563	6.25
325.774	6.16
325.986	6.07
326.197	6.13
326.408	6.17
326.62	6.07
326.831	5.83
327.042	5.87
327.253	5.89
327.464	5.95
327.676	5.76
327.887	5.45
328.098	5.78
328.309	5.57
328.52	5.06
328.732	5.31
328.943	5.36
329.154	5.56
329.365	5.71
329.576	5.61
329.787	5.71
329.998	5.53
330.209	5.96
330.42	5.98
330.631	6.22
330.842	6.51
331.053	6.2
331.264	6.3
331.475	6.19
331.686	6.07
331.897	5.9
332.108	5.45
332.319	5.22
332.53	5.18
332.741	4.95
332.952	5.13
333.163	5.33
333.374	4.83
333.585	4.55
333.795	4.74
334.006	4.61
334.217	5.03
334.428	5.8
334.639	5.97
334.849	5.73
335.06	5.37
335.271	5.4
335.482	5.17
335.692	5.49
335.903	5.3
336.114	5.24
336.325	5.7
336.535	5.91
336.746	5.53
336.957	5.57
337.167	6.31
337.378	6.77
337.589	6.53
337.799	6.7
338.01	7.21
338.22	7.9
338.431	8.03
338.642	7.46
338.852	7.26
339.063	7.23
339.273	7.12
339.484	6.56
339.694	6.5
339.905	6.62
340.115	6.72
340.326	6.64
340.536	6.25
340.746	6.04
340.957	6.27
341.167	6.07
341.378	6
341.588	6.21
341.799	6.22
342.009	6.04
342.219	6.37
342.43	6.32
342.64	5.96
342.85	6.16
343.061	6.24
343.271	6.27
343.481	6.2
343.691	6.17
343.902	6.02
344.112	5.92
344.322	5.99
344.532	5.61
344.743	5.55
344.953	5.75
345.163	5.62
345.373	5.73
345.583	5.27
345.793	5.1
346.004	5.1
346.214	5.03
346.424	5.23
346.634	5.33
346.844	5.64
347.054	5.57
347.264	5.08
347.474	5.44
347.684	5.52
347.894	6.09
348.104	6.16
348.314	6.09
348.524	6.15
348.734	5.93
348.944	5.56
349.154	5.78
349.364	5.79
349.574	6.19
349.784	5.91
349.994	5.62
350.204	5.53
350.413	5.86
350.623	5.67
350.833	5.49
351.043	5.27
351.253	5.46
351.463	5.02
351.672	4.87
351.882	4.83
352.092	4.86
352.302	4.77
352.511	4.41
352.721	4.3
352.931	4.66
353.141	4.57
353.35	4.71
353.56	4.89
353.77	4.77
353.979	4.87
354.189	4.94
354.399	5.02
354.608	5.19
354.818	5.31
355.027	5.33
355.237	5.29
355.447	5.44
355.656	5.85
355.866	5.76
356.075	5.84
356.285	5.86
356.494	5.68
356.704	5.35
356.913	5.17
357.123	5.36
357.332	5.33
357.542	5.33
357.751	5.43
357.96	5.25
358.17	5.41
358.379	5.33
358.589	5.44
358.798	5.35
359.007	5.5
359.217	5.68
359.426	5.45
359.635	5.46
359.845	5.5
360.054	5.51
360.263	5.6
360.472	5.33
360.682	5.17
360.891	5.18
361.1	5.22
361.309	5.36
361.519	5.35
361.728	5.47
361.937	5.43
362.146	5.39
362.355	5.34
362.564	5.01
362.774	5.09
362.983	5.42
363.192	5.29
363.401	5.34
363.61	5.16
363.819	4.95
364.028	4.96
364.237	5.08
364.446	4.72
364.655	4.64
364.864	4.6
365.073	4.59
365.282	4.54
365.491	4.59
365.7	4.57
365.909	4.75
366.118	4.9
366.327	4.74
366.536	4.54
366.745	4.77
366.954	4.73
367.162	4.78
367.371	5.05
367.58	4.85
367.789	4.83
367.998	4.84
368.207	4.52
368.415	4.14
368.624	4.1
368.833	3.98
369.042	4.2
369.25	4.3
369.459	4.17
369.668	3.99
369.877	3.95
370.085	3.71
370.294	3.79
370.503	3.72
370.711	4.06
370.92	4.25
371.129	4.42
371.337	4.11
371.546	3.93
371.754	4.09
371.963	3.93
372.171	3.77
372.38	3.79
372.589	3.54
372.797	3.39
373.006	3.5
373.214	3.59
373.423	3.8
373.631	3.79
373.84	3.78
374.048	3.75
374.256	3.82
374.465	4.03
374.673	4.15
374.882	4.35
375.09	4.48
375.298	4.28
375.507	4
375.715	3.94
375.923	4.02
376.132	4.12
376.34	4.14
376.548	4.16
376.757	4.11
376.965	4.07
377.173	3.97
377.381	3.99
377.59	3.86
377.798	3.82
378.006	3.59
378.214	3.71
378.423	3.76
378.631	3.66
378.839	3.29
379.047	3.43
379.255	3.48
379.463	3.41
379.671	3.46
379.879	3.58
380.088	3.71
380.296	3.74
380.504	3.53
380.712	3.8
380.92	3.94
381.128	4.02
381.336	3.98
381.544	3.78
381.752	3.77
381.96	3.72
382.168	3.73
382.376	3.85
382.584	3.96
382.791	4.07
382.999	3.73
383.207	3.61
383.415	3.9
383.623	3.66
383.831	3.76
384.039	3.69
384.247	3.81
384.454	3.85
384.662	3.66
384.87	3.74
385.078	3.66
385.285	3.73
385.493	3.89
385.701	3.64
385.909	3.89
386.116	3.7
386.324	3.85
386.532	3.71
386.739	3.65
386.947	3.63
387.155	3.55
387.362	3.53
387.57	3.2
387.778	2.96
387.985	3.05
388.193	2.97
388.4	3.02
388.608	2.89
388.816	3
389.023	3.18
389.231	3.08
389.438	2.94
389.646	2.78
389.853	2.81
390.061	3.06
390.268	3.15
390.475	3.11
390.683	3.14
390.89	3.11
391.098	2.99
391.305	2.78
391.512	2.83
391.72	2.92
391.927	2.95
392.135	3.15
392.342	3.02
392.549	3.04
392.756	3.1
392.964	3.14
393.171	3.04
393.378	3.03
393.586	2.95
393.793	2.96
394	3.05
394.207	3.19
394.414	3
394.622	2.83
394.829	2.84
395.036	2.57
395.243	2.55
395.45	2.67
395.657	2.51
395.864	2.65
396.072	2.84
396.279	2.62
396.486	2.61
396.693	2.67
396.9	2.77
397.107	2.69
397.314	2.77
397.521	2.88
397.728	2.87
397.935	3.18
398.142	3.22
398.349	3.24
398.556	3.45
398.763	3.3
398.97	3.48
399.177	3.31
399.383	3.23
399.59	3.34
399.797	3.18
400.004	3.09
400.211	2.98
400.418	2.85
400.625	2.67
400.831	2.48
401.038	2.57
401.245	2.18
401.452	2.35
401.658	2.31
401.865	2.42
402.072	2.53
402.279	2.66
402.485	2.53
402.692	2.51
402.899	2.41
403.105	2.38
403.312	2.24
403.519	2.54
403.725	2.32
403.932	2.51
404.138	2.24
404.345	2.2
404.552	2.19
404.758	2.25
404.965	2.22
405.171	2.41
405.378	2.23
405.584	2.5
405.791	2.28
405.997	2.42
406.204	2.36
406.41	2.56
406.617	2.58
406.823	2.48
407.029	2.47
407.236	2.51
407.442	2.47
407.649	2.47
407.855	2.38
408.061	2.5
408.268	2.61
408.474	2.49
408.68	2.58
408.887	2.58
409.093	2.56
409.299	2.59
409.505	2.58
409.712	2.66
409.918	2.9
410.124	2.91
410.33	2.84
410.537	2.76
410.743	2.77
410.949	2.42
411.155	2.22
411.361	2.14
411.567	2.02
411.773	2.01
411.98	1.86
412.186	1.91
412.392	1.76
412.598	1.79
412.804	1.88
413.01	1.87
413.216	2.14
413.422	2.16
413.628	2.17
413.834	2.35
414.04	2.41
414.246	2.48
414.452	2.29
414.658	2.46
414.864	2.56
415.07	2.63
415.275	2.62
415.481	2.56
415.687	2.5
415.893	2.44
416.099	2.35
416.305	2.35
416.511	2.35
416.716	2.36
416.922	2.3
417.128	2.22
417.334	2.14
417.539	2.03
417.745	2.09
417.951	2.24
418.157	2.31
418.362	2.41
418.568	2.29
418.774	2.16
418.979	2.17
419.185	2.1
419.391	2.21
419.596	2.13
419.802	2.19
420.008	2.18
420.213	2.17
420.419	2.15
420.624	2.17
420.83	2.23
421.035	2.3
421.241	2.3
421.446	2.34
421.652	2.26
421.857	2.27
422.063	2.38
422.268	2.37
422.474	2.28
422.679	2.33
422.885	2.25
423.09	2.29
423.295	2.35
423.501	2.32
423.706	2.25
423.911	2.29
424.117	2.27
424.322	2.11
424.527	2.08
424.733	2.16
424.938	2.19
425.143	2.14
425.349	2.08
425.554	1.98
425.759	2.08
425.964	2.21
426.169	2.19
426.375	2.21
426.58	2.34
426.785	2.32
426.99	2.19
427.195	2.18
427.4	2.16
427.605	2.15
427.811	2.19
428.016	2.08
428.221	2.02
428.426	2
428.631	2.02
428.836	1.89
429.041	1.99
429.246	2.07
429.451	1.94
429.656	1.88
429.861	1.91
430.066	1.82
430.271	1.84
430.476	1.81
430.681	1.78
430.886	1.75
431.09	1.87
431.295	1.82
431.5	1.89
431.705	1.93
431.91	2.07
432.115	1.96
432.32	2.01
432.524	1.93
432.729	1.95
432.934	1.85
433.139	1.87
433.343	1.85
433.548	1.87
433.753	1.77
433.958	1.69
434.162	1.55
434.367	1.54
434.572	1.52
434.776	1.6
434.981	1.68
435.186	1.74
435.39	1.82
435.595	1.72
435.799	1.66
436.004	1.7
436.209	1.86
436.413	1.88
436.618	1.95
436.822	1.94
437.027	1.86
437.231	1.85
437.436	1.81
437.64	1.77
437.845	1.83
438.049	1.86
438.253	1.81
438.458	1.7
438.662	1.73
438.867	1.81
439.071	1.88
439.275	1.95
439.48	1.88
439.684	1.92
439.888	1.89
440.093	1.84
440.297	1.87
440.501	1.93
440.706	2
440.91	1.99
441.114	1.92
441.318	1.9
441.523	1.89
441.727	1.96
441.931	2.02
442.135	2.14
442.339	2.21
442.543	2.15
442.748	2.17
442.952	2.17
443.156	2.08
443.36	2.03
443.564	1.97
443.768	1.96
443.972	1.97
444.176	1.9
444.38	1.83
444.584	1.81
444.788	1.75
444.992	1.67
445.196	1.63
445.4	1.65
445.604	1.72
445.808	1.7
446.012	1.71
446.216	1.68
446.42	1.69
446.624	1.65
446.828	1.7
447.032	1.75
447.235	1.83
447.439	1.83
447.643	1.93
447.847	1.9
448.051	1.89
448.254	1.89
448.458	1.89
448.662	1.94
448.866	1.99
449.069	2.03
449.273	1.96
449.477	1.88
449.681	1.86
449.884	1.77
450.088	1.72
450.292	1.65
450.495	1.72
450.699	1.71
450.902	1.57
451.106	1.48
451.31	1.43
451.513	1.46
451.717	1.42
451.92	1.48
452.124	1.52
452.327	1.65
452.531	1.8
452.734	1.74
452.938	1.77
453.141	1.87
453.345	2.02
453.548	2.03
453.752	1.98
453.955	2.08
454.158	2.12
454.362	2.09
454.565	1.97
454.769	1.96
454.972	1.96
455.175	1.93
455.379	1.89
455.582	1.8
455.785	1.84
455.988	1.92
456.192	1.91
456.395	1.83
456.598	1.85
456.801	1.99
457.005	2.01
457.208	1.95
457.411	1.97
457.614	1.94
457.817	1.92
458.021	1.82
458.224	1.84
458.427	1.81
458.63	1.86
458.833	1.78
459.036	1.73
459.239	1.75
459.442	1.8
459.645	1.78
459.848	1.86
460.051	1.85
460.254	1.92
460.457	1.81
460.66	1.83
460.863	1.81
461.066	1.92
461.269	1.93
461.472	1.74
461.675	1.71
461.878	1.7
462.081	1.6
462.284	1.53
462.486	1.44
462.689	1.41
462.892	1.49
463.095	1.42
463.298	1.44
463.5	1.43
463.703	1.47
463.906	1.46
464.109	1.35
464.311	1.32
464.514	1.36
464.717	1.31
464.92	1.4
465.122	1.38
465.325	1.44
465.528	1.47
465.73	1.5
465.933	1.5
466.135	1.55
466.338	1.74
466.541	1.79
466.743	1.83
466.946	1.99
467.148	2.04
467.351	2
467.553	1.9
467.756	1.78
467.958	1.67
468.161	1.65
468.363	1.54
468.566	1.37
468.768	1.34
468.971	1.31
469.173	1.26
469.375	1.08
469.578	1.2
469.78	1.3
469.983	1.31
470.185	1.38
470.387	1.39
470.59	1.55
470.792	1.56
470.994	1.53
471.196	1.49
471.399	1.46
471.601	1.6
471.803	1.46
472.005	1.41
472.208	1.39
472.41	1.3
472.612	1.41
472.814	1.35
473.016	1.38
473.218	1.46
473.421	1.53
473.623	1.64
473.825	1.74
474.027	1.77
474.229	1.81
474.431	1.82
474.633	1.89
474.835	1.85
475.037	1.81
475.239	1.78
475.441	1.68
475.643	1.66
475.845	1.59
476.047	1.52
476.249	1.47
476.451	1.52
476.653	1.62
476.855	1.58
477.057	1.55
477.258	1.56
477.46	1.67
477.662	1.81
477.864	1.83
478.066	1.91
478.268	1.86
478.469	1.85
478.671	1.79
478.873	1.74
479.075	1.76
479.276	1.72
479.478	1.75
479.68	1.71
479.882	1.68
480.083	1.65
480.285	1.58
480.487	1.63
480.688	1.69
480.89	1.73
481.091	1.72
481.293	1.76
481.495	1.81
481.696	1.78
481.898	1.75
482.099	1.75
482.301	1.75
482.502	1.77
482.704	1.77
482.905	1.76
483.107	1.75
483.308	1.77
483.51	1.76
483.711	1.72
483.913	1.74
484.114	1.77
484.315	1.76
484.517	1.79
484.718	1.76
484.92	1.77
485.121	1.74
485.322	1.72
485.524	1.73
485.725	1.73
485.926	1.73
486.127	1.72
486.329	1.7
486.53	1.71
486.731	1.68
486.932	1.7
487.134	1.69
487.335	1.69
487.536	1.7
487.737	1.66
487.938	1.64
488.139	1.68
488.341	1.7
488.542	1.68
488.743	1.66
488.944	1.64
489.145	1.62
489.346	1.64
489.547	1.69
489.748	1.68
489.949	1.71
490.15	1.69
490.351	1.66
490.552	1.69
490.753	1.77
490.954	1.75
491.155	1.79
491.356	1.81
491.557	1.77
491.758	1.74
491.959	1.78
492.159	1.73
492.36	1.79
492.561	1.77
492.762	1.77
492.963	1.7
493.164	1.75
493.364	1.75
493.565	1.7
493.766	1.72
493.967	1.75
494.167	1.72
494.368	1.84
494.569	1.85
494.769	1.86
494.97	1.79
495.171	1.79
495.371	1.81
495.572	1.79
495.773	1.91
495.973	1.95
496.174	1.95
496.375	1.87
496.575	1.86
496.776	1.83
496.976	1.83
497.177	1.87
497.377	1.9
497.578	1.86
497.778	1.88
497.979	1.81
498.179	1.7
498.38	1.76
498.58	1.78
498.78	1.71
498.981	1.73
499.181	1.75
499.382	1.72
499.582	1.68
499.782	1.64
499.983	1.62
500.183	1.67
500.383	1.79
500.584	1.75
500.784	1.81
500.984	1.92
501.184	1.91
501.385	1.87
501.585	1.89
501.785	1.94
501.985	2.1
502.185	2.09
502.386	2.05
502.586	2.05
502.786	2.09
502.986	2.1
503.186	2.07
503.386	2.06
503.586	2.21
503.786	2.19
503.987	2.13
504.187	2.13
504.387	2.18
504.587	2.21
504.787	2.23
504.987	2.2
505.187	2.28
505.387	2.33
505.587	2.4
505.786	2.37
505.986	2.35
506.186	2.45
506.386	2.43
506.586	2.46
506.786	2.46
506.986	2.46
507.186	2.5
507.386	2.47
507.585	2.47
507.785	2.44
507.985	2.48
508.185	2.55
508.384	2.6
508.584	2.55
508.784	2.53
508.984	2.57
509.183	2.62
509.383	2.65
509.583	2.7
509.782	2.66
509.982	2.71
510.182	2.64
510.381	2.65
510.581	2.57
510.781	2.61
510.98	2.64
511.18	2.63
511.379	2.61
511.579	2.57
511.778	2.52
511.978	2.58
512.177	2.55
512.377	2.58
512.576	2.63
512.776	2.64
512.975	2.67
513.175	2.65
513.374	2.65
513.573	2.65
513.773	2.69
513.972	2.7
514.172	2.69
514.371	2.66
514.57	2.65
514.77	2.57
514.969	2.69
515.168	2.62
515.367	2.67
515.567	2.75
515.766	2.71
515.965	2.71
516.164	2.8
516.364	2.81
516.563	2.9
516.762	2.94
516.961	2.98
517.16	3.01
517.359	3.02
517.559	3.05
517.758	3.02
517.957	3.11
518.156	3.17
518.355	3.18
518.554	3.19
518.753	3.16
518.952	3.19
519.151	3.21
519.35	3.18
519.549	3.25
519.748	3.21
519.947	3.23
520.146	3.22
520.345	3.23
520.544	3.29
520.743	3.32
520.942	3.36
521.141	3.35
521.339	3.4
521.538	3.35
521.737	3.31
521.936	3.35
522.135	3.38
522.333	3.41
522.532	3.36
522.731	3.39
522.93	3.49
523.129	3.55
523.327	3.62
523.526	3.64
523.725	3.71
523.923	3.77
524.122	3.78
524.321	3.82
524.519	3.86
524.718	3.94
524.917	3.93
525.115	3.89
525.314	3.86
525.512	3.88
525.711	3.91
525.909	3.92
526.108	3.98
526.306	4.03
526.505	4
526.703	3.99
526.902	4
527.1	4
527.299	4.05
527.497	4.05
527.696	4.07
527.894	4.09
528.092	4.09
528.291	4.09
528.489	4.07
528.688	4.11
528.886	4.12
529.084	4.1
529.283	4.12
529.481	4.1
529.679	4.12
529.877	4.16
530.076	4.16
530.274	4.21
530.472	4.26
530.67	4.34
530.869	4.37
531.067	4.43
531.265	4.52
531.463	4.49
531.661	4.49
531.859	4.55
532.057	4.52
532.255	4.48
532.454	4.49
532.652	4.46
532.85	4.46
533.048	4.46
533.246	4.5
533.444	4.47
533.642	4.55
533.84	4.56
534.038	4.52
534.236	4.57
534.434	4.65
534.632	4.67
534.83	4.67
535.027	4.65
535.225	4.71
535.423	4.7
535.621	4.71
535.819	4.66
536.017	4.71
536.215	4.79
536.412	4.83
536.61	4.81
536.808	4.85
537.006	4.89
537.203	4.99
537.401	4.98
537.599	4.99
537.797	5.11
537.994	5.13
538.192	5.19
538.39	5.16
538.587	5.18
538.785	5.24
538.983	5.26
539.18	5.29
539.378	5.26
539.575	5.28
539.773	5.3
539.97	5.29
540.168	5.34
540.366	5.33
540.563	5.36
540.761	5.33
540.958	5.34
541.155	5.37
541.353	5.39
541.55	5.39
541.748	5.45
541.945	5.45
542.143	5.41
542.34	5.4
542.537	5.4
542.735	5.41
542.932	5.51
543.129	5.57
543.327	5.58
543.524	5.61
543.721	5.69
543.919	5.66
544.116	5.72
544.313	5.81
544.51	5.86
544.708	5.95
544.905	6.1
545.102	6.08
545.299	6.12
545.496	6.19
545.693	6.1
545.891	6.13
546.088	6.08
546.285	6
546.482	6
546.679	6.07
546.876	6.13
547.073	6.08
547.27	6.15
547.467	6.2
547.664	6.21
547.861	6.43
548.058	6.52
548.255	6.74
548.452	6.89
548.649	6.95
548.846	6.94
549.043	6.88
549.24	6.93
549.437	6.98
549.633	6.95
549.83	6.89
550.027	6.92
550.224	6.92
550.421	6.9
550.618	7.01
550.814	7.11
551.011	7.17
551.208	7.28
551.405	7.34
551.601	7.33
551.798	7.31
551.995	7.41
552.191	7.49
552.388	7.36
552.585	7.38
552.781	7.34
552.978	7.35
553.175	7.43
553.371	7.47
553.568	7.56
553.764	7.62
553.961	7.84
554.157	7.86
554.354	7.9
554.55	8.17
554.747	8.19
554.943	8.25
555.14	8.31
555.336	8.42
555.533	8.43
555.729	8.4
555.926	8.43
556.122	8.35
556.318	8.37
556.515	8.4
556.711	8.43
556.907	8.5
557.104	8.61
557.3	8.7
557.496	8.66
557.693	8.79
557.889	8.81
558.085	8.96
558.281	9.03
558.478	9.15
558.674	9.26
558.87	9.34
559.066	9.48
559.262	9.55
559.459	9.67
559.655	9.79
559.851	9.84
560.047	10.01
560.243	10.05
560.439	10.14
560.635	10.23
560.831	10.23
561.027	10.2
561.223	10.18
561.419	10.19
561.615	10.23
561.811	10.22
562.007	10.21
562.203	10.13
562.399	10.08
562.595	10.11
562.791	10.2
562.987	10.3
563.183	10.55
563.379	10.74
563.575	10.85
563.771	10.95
563.966	10.95
564.162	10.99
564.358	11.06
564.554	11.22
564.75	11.31
564.945	11.33
565.141	11.32
565.337	11.39
565.533	11.36
565.728	11.36
565.924	11.4
566.12	11.57
566.315	11.71
566.511	11.86
566.707	11.85
566.902	11.9
567.098	11.94
567.293	12.07
567.489	12.08
567.684	12.14
567.88	12.25
568.076	12.33
568.271	12.43
568.467	12.56
568.662	12.64
568.858	12.82
569.053	12.9
569.248	13.06
569.444	13.17
569.639	13.11
569.835	13.21
570.03	13.32
570.225	13.35
570.421	13.29
570.616	13.24
570.812	13.29
571.007	13.31
571.202	13.34
571.397	13.31
571.593	13.28
571.788	13.39
571.983	13.47
572.178	13.48
572.374	13.41
572.569	13.47
572.764	13.57
572.959	13.6
573.154	13.66
573.35	13.74
573.545	13.85
573.74	13.93
573.935	13.96
574.13	13.98
574.325	14.07
574.52	14.21
574.715	14.37
574.91	14.39
575.105	14.43
575.3	14.46
575.495	14.5
575.69	14.53
575.885	14.6
576.08	14.66
576.275	14.8
576.47	14.77
576.665	14.85
576.86	14.8
577.055	14.84
577.25	14.84
577.444	14.88
577.639	14.9
577.834	14.92
578.029	15
578.224	15.17
578.418	15.23
578.613	15.23
578.808	15.22
579.003	15.36
579.197	15.38
579.392	15.6
579.587	15.59
579.781	15.74
579.976	15.82
580.171	15.67
580.365	15.46
580.56	15.49
580.755	15.59
580.949	15.73
581.144	15.69
581.338	15.8
581.533	15.72
581.727	15.9
581.922	16.11
582.116	16.11
582.311	16.27
582.505	16.55
582.7	16.57
582.894	16.65
583.089	16.71
583.283	16.77
583.478	16.88
583.672	16.93
583.866	16.93
584.061	16.76
584.255	16.75
584.449	16.78
584.644	16.77
584.838	16.77
585.032	16.73
585.226	16.61
585.421	16.56
585.615	16.54
585.809	16.48
586.003	16.51
586.198	16.6
586.392	16.65
586.586	16.74
586.78	16.81
586.974	16.71
587.168	16.84
587.363	16.95
587.557	17.1
587.751	17.14
587.945	17.24
588.139	17.16
588.333	17.19
588.527	17.33
588.721	17.45
588.915	17.48
589.109	17.7
589.303	17.71
589.497	17.79
589.691	17.84
589.885	17.81
590.079	17.95
590.273	18.08
590.466	18.12
590.66	18.01
590.854	17.94
591.048	17.81
591.242	17.88
591.436	17.87
591.629	17.86
591.823	17.82
592.017	17.88
592.211	17.93
592.404	17.96
592.598	17.93
592.792	18.06
592.986	18.04
593.179	18.22
593.373	18.1
593.567	18.24
593.76	18.36
593.954	18.38
594.147	18.48
594.341	18.52
594.535	18.59
594.728	18.61
594.922	18.76
595.115	18.76
595.309	18.82
595.502	18.91
595.696	18.93
595.889	18.93
596.083	19
596.276	18.92
596.47	18.86
596.663	18.88
596.856	18.94
597.05	18.81
597.243	18.93
597.437	18.93
597.63	19.04
597.823	19.17
598.017	19.19
598.21	19.18
598.403	19.38
598.596	19.39
598.79	19.3
598.983	19.3
599.176	19.46
599.369	19.62
599.563	19.71
599.756	19.65
599.949	19.69
600.142	19.67
600.335	19.94
600.528	19.86
600.722	19.87
600.915	19.83
601.108	19.92
601.301	19.92
601.494	19.61
601.687	19.66
601.88	19.72
602.073	19.56
602.266	19.48
602.459	19.34
602.652	19.35
602.845	19.5
603.038	19.74
603.231	19.83
603.424	19.75
603.617	20.02
603.809	19.91
604.002	19.87
604.195	19.99
604.388	20.06
604.581	20.1
604.774	20.23
604.966	20.26
605.159	20.29
605.352	20.23
605.545	20.42
605.737	20.44
605.93	20.44
606.123	20.4
606.316	20.44
606.508	20.54
606.701	20.6
606.894	20.72
607.086	20.59
607.279	20.58
607.471	20.57
607.664	20.64
607.857	20.67
608.049	20.82
608.242	20.96
608.434	21.03
608.627	21.09
608.819	21.06
609.012	20.9
609.204	20.91
609.397	20.86
609.589	20.95
609.782	20.8
609.974	20.76
610.166	20.73
610.359	20.61
610.551	20.53
610.743	20.45
610.936	20.45
611.128	20.55
611.32	20.62
611.513	20.71
611.705	20.52
611.897	20.76
612.09	20.84
612.282	20.75
612.474	20.88
612.666	20.92
612.858	21.05
613.051	21.23
613.243	21.18
613.435	21.38
613.627	21.44
613.819	21.63
614.011	21.88
614.203	21.68
614.395	21.77
614.588	21.97
614.78	21.88
614.972	21.99
615.164	22.01
615.356	22
615.548	22.09
615.74	21.99
615.932	22.02
616.124	21.71
616.315	21.98
616.507	21.95
616.699	21.72
616.891	21.9
617.083	21.89
617.275	21.85
617.467	21.92
617.659	21.65
617.85	21.66
618.042	21.54
618.234	21.59
618.426	21.4
618.618	21.44
618.809	21.53
619.001	21.59
619.193	21.51
619.384	21.4
619.576	21.38
619.768	21.47
619.959	21.43
620.151	21.77
620.343	21.68
620.534	21.77
620.726	21.87
620.917	21.74
621.109	21.67
621.301	21.64
621.492	21.73
621.684	21.74
621.875	22
622.067	22.02
622.258	21.85
622.45	21.88
622.641	21.81
622.832	21.62
623.024	21.79
623.215	21.9
623.407	22
623.598	22.03
623.789	22.19
623.981	22.03
624.172	22.04
624.363	22.09
624.555	22.06
624.746	22.19
624.937	22.51
625.129	22.45
625.32	22.51
625.511	22.54
625.702	22.52
625.893	22.39
626.085	22.45
626.276	22.44
626.467	22.37
626.658	22.48
626.849	22.3
627.04	22.14
627.231	22.25
627.422	22.12
627.614	22.06
627.805	22.1
627.996	22.3
628.187	22.27
628.378	22.5
628.569	22.61
628.76	22.65
628.951	22.96
629.142	23.06
629.332	23.05
629.523	23.09
629.714	23.21
629.905	23.33
630.096	23.26
630.287	23.29
630.478	23.1
630.669	23.17
630.859	22.99
631.05	22.86
631.241	22.77
631.432	22.73
631.623	22.69
631.813	22.69
632.004	22.66
632.195	22.52
632.385	22.53
632.576	22.68
632.767	22.47
632.957	22.61
633.148	22.64
633.339	22.8
633.529	22.93
633.72	23.01
633.91	22.91
634.101	22.9
634.292	22.93
634.482	22.78
634.673	22.8
634.863	23.07
635.054	23.04
635.244	23.26
635.435	23.14
635.625	22.98
635.815	22.74
636.006	22.84
636.196	22.88
636.387	23.01
636.577	23.12
636.767	23.03
636.958	23
637.148	23.28
637.338	23.06
637.529	23.3
637.719	23.48
637.909	23.61
638.099	23.74
638.29	23.8
638.48	23.81
638.67	23.89
638.86	23.92
639.05	23.73
639.241	23.49
639.431	23.45
639.621	23.3
639.811	23.5
640.001	23.6
640.191	23.51
640.381	23.71
640.571	23.74
640.761	23.88
640.951	24.09
641.141	24.25
641.331	24.28
641.521	24.54
641.711	24.62
641.901	24.26
642.091	24.08
642.281	24.1
642.471	23.77
642.661	23.8
642.851	23.72
643.041	23.37
643.231	23.2
643.42	23.14
643.61	22.93
643.8	23.14
643.99	23.36
644.18	23.64
644.369	23.68
644.559	23.66
644.749	23.65
644.939	23.8
645.128	23.97
645.318	24.06
645.508	24.14
645.697	24.35
645.887	23.97
646.076	24.14
646.266	24.33
646.456	24.24
646.645	24.49
646.835	24.48
647.024	24.44
647.214	24.53
647.403	24.7
647.593	24.89
647.782	24.79
647.972	24.96
648.161	24.68
648.351	24.42
648.54	24.63
648.73	24.56
648.919	24.66
649.108	24.59
649.298	24.34
649.487	24.3
649.677	24.26
649.866	24.21
650.055	24.16
650.244	24.19
650.434	24.2
650.623	24.06
650.812	23.99
651.002	23.98
651.191	23.94
651.38	24.08
651.569	24.09
651.758	24
651.947	23.92
652.137	24.02
652.326	24.13
652.515	24.12
652.704	24.24
652.893	24.39
653.082	24.46
653.271	24.65
653.46	24.87
653.649	24.79
653.838	24.95
654.027	24.99
654.216	25.05
654.405	25.08
654.594	25.23
654.783	25.2
654.972	25.05
655.161	24.87
655.35	24.65
655.539	24.6
655.728	24.5
655.916	24.57
656.105	24.73
656.294	24.69
656.483	24.69
656.672	24.72
656.86	24.78
657.049	24.92
657.238	25.21
657.427	25.36
657.615	25.28
657.804	25.44
657.993	25.32
658.181	25.47
658.37	25.48
658.559	25.42
658.747	25.32
658.936	25.38
659.125	25.72
659.313	25.49
659.502	25.59
659.69	25.62
659.879	25.74
660.067	25.91
660.256	25.64
660.444	25.62
660.633	25.7
660.821	25.84
661.01	25.93
661.198	25.72
661.387	25.84
661.575	25.77
661.763	25.85
661.952	25.72
662.14	25.91
662.328	26.11
662.517	26.29
662.705	26.31
662.893	26.38
663.082	25.87
663.27	25.54
663.458	25.6
663.646	25.47
663.834	25.4
664.023	25.43
664.211	25.15
664.399	25.14
664.587	25.08
664.775	25.17
664.963	25.31
665.152	25.73
665.34	25.98
665.528	26.17
665.716	26.37
665.904	26.27
666.092	26.33
666.28	26.69
666.468	26.77
666.656	26.87
666.844	26.83
667.032	26.66
667.22	27.06
667.408	26.93
667.596	26.74
667.784	26.68
667.971	26.94
668.159	26.89
668.347	26.46
668.535	26.13
668.723	25.91
668.911	25.92
669.098	25.89
669.286	25.5
669.474	25.5
669.662	25.56
669.849	25.42
670.037	25.45
670.225	25.53
670.413	25.55
670.6	25.99
670.788	25.99
670.976	25.91
671.163	25.89
671.351	26
671.538	26.07
671.726	25.94
671.913	26.17
672.101	26
672.289	26.18
672.476	26.14
672.664	26.32
672.851	26.55
673.039	26.66
673.226	26.5
673.413	26.49
673.601	26.49
673.788	26.63
673.976	26.85
674.163	26.91
674.35	26.65
674.538	26.93
674.725	26.85
674.912	26.87
675.1	27
675.287	27.44
675.474	27.29
675.662	26.95
675.849	26.87
676.036	26.73
676.223	27.03
676.411	26.94
676.598	26.61
676.785	26.41
676.972	26.29
677.159	26.06
677.346	25.97
677.533	26.18
677.721	26.67
677.908	26.93
678.095	27.02
678.282	26.96
678.469	27.14
678.656	27.3
678.843	27.24
679.03	27.32
679.217	27.3
679.404	27.28
679.591	27.17
679.778	27
679.964	26.83
680.151	26.62
680.338	26.46
680.525	26.63
680.712	26.74
680.899	26.83
681.086	26.94
681.272	27.13
681.459	27.2
681.646	27.38
681.833	27.57
682.02	27.76
682.206	27.8
682.393	27.74
682.58	27.64
682.766	27.6
682.953	27.52
683.14	27.38
683.326	27.31
683.513	27.25
683.7	27.14
683.886	27.2
684.073	26.94
684.259	27.12
684.446	27.28
684.632	27.29
684.819	27.4
685.005	27.48
685.192	27.63
685.378	27.65
685.565	27.64
685.751	27.54
685.938	27.73
686.124	27.91
686.31	27.95
686.497	27.71
686.683	27.62
686.87	27.4
687.056	27.53
687.242	27.49
687.429	27.38
687.615	27.38
687.801	27.51
687.987	27.23
688.174	27.03
688.36	27.01
688.546	27.26
688.732	27.29
688.918	27.56
689.105	27.62
689.291	27.64
689.477	27.83
689.663	27.74
689.849	27.45
690.035	27.49
690.221	27.68
690.407	27.69
690.593	27.62
690.779	27.59
690.965	27.27
691.151	27.32
691.337	27.1
691.523	27.27
691.709	27.17
691.895	27.2
692.081	27.41
692.267	27.42
692.453	27.1
692.639	27.36
692.825	27.37
693.011	27.53
693.196	27.45
693.382	27.78
693.568	27.85
693.754	27.77
693.94	28.01
694.125	27.71
694.311	27.85
694.497	28.46
694.682	28.36
694.868	28.44
695.054	28.48
695.239	28.44
695.425	28.48
695.611	28.43
695.796	28.69
695.982	28.62
696.168	28.64
696.353	28.53
696.539	28.27
696.724	28.4
696.91	28.31
697.095	28.24
697.281	28.19
697.466	28.02
697.652	27.83
697.837	27.64
698.023	27.75
698.208	27.85
698.393	28.04
698.579	27.83
698.764	27.6
698.949	27.53
699.135	27.53
699.32	27.72
699.505	27.55
699.691	27.7
699.876	27.82
700.061	27.85
700.246	27.55
700.432	27.27
700.617	27.49
700.802	27.47
700.987	27.6
701.172	27.99
701.358	27.44
701.543	27.95
701.728	27.97
701.913	28.14
702.098	28.45
702.283	28.67
702.468	28.8
702.653	28.46
702.838	28.65
703.023	28.36
703.208	28.1
703.393	28.05
703.578	27.82
703.763	27.7
703.948	27.68
704.133	27.2
704.318	27.32
704.503	27.1
704.688	27.3
704.873	27.47
705.057	27.83
705.242	27.63
705.427	28.01
705.612	27.92
705.797	27.8
705.981	27.72
706.166	27.9
706.351	27.67
706.536	27.53
706.72	27.49
706.905	27.44
707.09	27.32
707.274	27.64
707.459	27.48
707.644	27.82
707.828	27.96
708.013	27.83
708.197	27.74
708.382	28.13
708.567	28.56
708.751	28.89
708.936	28.87
709.12	29.22
709.305	29.08
709.489	29.5
709.673	28.97
709.858	28.78
710.042	28.96
710.227	29.22
710.411	28.88
710.596	28.42
710.78	28.22
710.964	28.06
711.149	27.59
711.333	27.8
711.517	27.64
711.702	28.2
711.886	28.18
712.07	28.3
712.254	27.91
712.438	27.94
712.623	28.22
712.807	28.15
712.991	28.5
713.175	28.88
713.359	28.48
713.544	28.74
713.728	28.47
713.912	28.72
714.096	29.09
714.28	29.41
714.464	29.63
714.648	29.72
714.832	29.99
715.016	30.08
715.2	29.62
715.384	29.87
715.568	29.59
715.752	29.87
715.936	29.7
716.12	29.48
716.304	29.62
716.488	29.51
716.671	29.82
716.855	29.86
717.039	29.27
717.223	29.95
717.407	29.91
717.59	29.77
717.774	29.65
717.958	30.12
718.142	29.66
718.325	29.48
718.509	29.42
718.693	29.14
718.877	29.27
719.06	29.52
719.244	29.13
719.428	29.09
719.611	29.45
719.795	29.11
719.978	28.92
720.162	29.28
720.345	29.54
720.529	29.53
720.713	29.18
720.896	28.25
721.08	28.36
721.263	28.15
721.446	28.41
721.63	28.41
721.813	28.48
721.997	28.18
722.18	27.76
722.364	27.83
722.547	28.1
722.73	28.26
722.914	28.71
723.097	28.56
723.28	28.89
723.464	28.42
723.647	28.25
723.83	27.79
724.013	28.02
724.197	28.36
724.38	27.85
724.563	27.48
724.746	27.62
724.929	27.87
725.112	27.83
725.296	27.87
725.479	27.86
725.662	28.02
725.845	28.69
726.028	28.67
726.211	28.7
726.394	28.91
726.577	29.05
726.76	29.2
726.943	28.7
727.126	28.95
727.309	28.88
727.492	29.01
727.675	28.66
727.858	28.68
728.041	28.86
728.224	29.06
728.407	28.94
728.589	29.1
728.772	28.68
728.955	29.18
729.138	29.46
729.321	29.16
729.503	29.23
729.686	29.28
729.869	29.34
730.052	29
730.234	28.74
730.417	28.82
730.6	28.66
730.782	28.47
730.965	28.46
731.148	27.68
731.33	28.34
731.513	28.26
731.695	28.92
731.878	28.81
732.061	29.04
732.243	29.27
732.426	29.11
732.608	29.09
732.791	29.69
732.973	29.77
733.156	30.2
733.338	30.26
733.52	30.51
733.703	30.03
733.885	30.04
734.068	29.85
734.25	29.8
734.432	29.88
734.615	29.66
734.797	29.77
734.979	29.72
735.162	29.65
735.344	29.27
735.526	29.34
735.708	29.4
735.891	29.22
736.073	29.15
736.255	28.81
736.437	28.38
736.619	28.48
736.802	28.52
736.984	28.1
737.166	28.28
737.348	28.58
737.53	28.41
737.712	28.65
737.894	28.74
738.076	28.91
738.258	29.14
738.44	29.39
738.622	29.96
738.804	29.65
738.986	30.4
739.168	30.16
739.35	29.71
739.532	29.53
739.714	29.07
739.896	28.91
740.078	29.32
740.259	29.88
740.441	30.3
740.623	30.06
740.805	29.65
740.987	29.3
741.168	29.91
741.35	29.8
741.532	30.29
741.714	30.74
741.895	31.03
742.077	30.89
742.259	30.31
742.44	30.18
742.622	30.73
742.804	30.9
742.985	30.61
743.167	30.67
743.348	30.53
743.53	30.18
743.711	29.83
743.893	29.97
744.075	30.67
744.256	30.27
744.438	30.26
744.619	29.83
744.8	30.52
744.982	30.86
745.163	30.55
745.345	30.94
745.526	30.93
745.707	30.94
745.889	30.83
746.07	30.27
746.252	31.01
746.433	30.56
746.614	30.31
746.795	29.95
746.977	30.01
747.158	29.18
747.339	29.77
747.52	30.25
747.702	30.86
747.883	31.54
748.064	31.7
748.245	31.05
748.426	31.12
748.607	30.74
748.788	30.65
748.97	30.31
749.151	30.31
749.332	30.05
749.513	29.14
749.694	28.74
749.875	28.56
750.056	28.48
750.237	28.95
750.418	29.64
750.599	29.43
750.78	29.11
750.96	29.34
751.141	30.35
751.322	30.13
751.503	30.4
751.684	30.7
751.865	30.63
752.046	30.42
752.226	30.51
752.407	30.57
752.588	30.97
752.769	31.49
752.949	31.51
753.13	30.95
753.311	31.08
753.492	31.08
753.672	31.1
753.853	30.25
754.034	29.62
754.214	29.32
754.395	29.44
754.575	29.62
754.756	29.24
754.937	29.17
755.117	29.71
755.298	29.48
755.478	29.66
755.659	29.22
755.839	29.01
756.02	29.97
756.2	30.08
756.381	29.59
756.561	29.88
756.741	30.35
756.922	30.13
757.102	30.11
757.283	29.9
757.463	30.3
757.643	30.46
757.823	30.76
758.004	30.72
758.184	30.64
758.364	30.93
758.545	31.32
758.725	31.04
758.905	31.33
759.085	31.05
759.265	31.63
759.446	31.38
759.626	31.74
759.806	32.36
759.986	31.96
760.166	31.84
760.346	31.6
760.526	30.45
760.706	30.21
760.886	29.8
761.066	30.49
761.246	30.67
761.426	30.88
761.606	30.58
761.786	30.24
761.966	30.48
762.146	30.9
762.326	30.64
762.506	31.2
762.686	31.69
762.866	31.6
763.046	31.47
763.225	31.42
763.405	31.13
763.585	30.86
763.765	30.93
763.945	30.36
764.124	30.55
764.304	30.85
764.484	30.51
764.664	30.29
764.843	30.87
765.023	30.49
765.203	30.18
765.382	30.12
765.562	30.08
765.741	29.79
765.921	30.35
766.101	29.62
766.28	29.62
766.46	30.35
766.639	30.08
766.819	29.72
766.998	30.29
767.178	30.56
767.357	30.79
767.537	31.19
767.716	31.55
767.896	31.45
768.075	31.48
768.254	30.67
768.434	30
768.613	29.86
768.792	30.21
768.972	29.73
769.151	29.74
769.33	29.93
769.51	30.36
769.689	30.33
769.868	30.66
770.047	30.76
770.226	31.6
770.406	32.15
770.585	32.13
770.764	31.98
770.943	31.62
771.122	31.47
771.301	31.06
771.48	30.36
771.66	30.67
771.839	30.23
772.018	30.2
772.197	30.43
772.376	30.37
772.555	31.1
772.734	31.03
772.913	31.28
773.092	30.78
773.271	31.72
773.449	31.92
773.628	31.33
773.807	31.9
773.986	31.76
774.165	31.84
774.344	31.9
774.523	31.93
774.701	31.38
774.88	30.99
775.059	31.23
775.238	29.89
775.417	29.79
775.595	30.31
775.774	30.22
775.953	30.11
776.131	29.23
776.31	28.44
776.489	29.02
776.667	29.77
776.846	30.13
777.025	30.32
777.203	31.76
777.382	32.35
777.56	31.98
777.739	32.06
777.917	32.6
778.096	33.37
778.274	34.43
778.453	33.12
778.631	32.53
778.81	32.39
778.988	32.86
779.166	32.18
779.345	31.81
779.523	31.6
779.702	31.67
779.88	31.5
780.058	30.83
780.237	30.81
780.415	31.03
780.593	31.79
780.771	32.72
780.95	32.37
781.128	32.59
781.306	32.87
781.484	33.2
781.662	32.52
781.841	32.86
782.019	33.89
782.197	32.73
782.375	33.5
782.553	33.44
782.731	33.51
782.909	32.49
783.087	31.57
783.265	30.81
783.443	30.46
783.621	30.66
783.799	29.15
783.977	28.76
784.155	28.91
784.333	29.02
784.511	27.66
784.689	26.83
784.867	28.22
785.045	29.42
785.223	30.09
785.4	29.91
785.578	30.75
785.756	32.41
785.934	32.44
786.112	31.99
786.289	31.43
786.467	33
786.645	33.06
786.823	32.6
787	32.51
787.178	32.11
787.356	32.9
787.533	31.18
787.711	30.98
787.889	31.48
788.066	31.66
788.244	31.24
788.421	29.98
788.599	29.65
788.776	28.95
788.954	27.26
789.131	27.11
789.309	26.97
789.486	28.14
789.664	27.52
789.841	25.63
790.019	25.54
790.196	25.93
790.373	26.25
790.551	26.86
790.728	27.3
790.906	28.92
791.083	28.46
791.26	29.1
791.437	28.99
791.615	29.34
791.792	30.85
791.969	31.41
792.146	31.97
792.324	32.57
792.501	32.82
792.678	32.63
792.855	32.37
793.032	33.46
793.209	32.75
793.387	32.7
793.564	32.9
793.741	32.34
793.918	32.95
794.095	32.66
794.272	32.34
794.449	31.44
794.626	31.44
794.803	32.01
794.98	32.18
795.157	31.41
795.334	30.14
795.511	29.39
795.688	29.65
795.864	29.38
796.041	28.61
796.218	29.77
796.395	29.73
796.572	30.24
796.749	30.25
796.925	30.47
797.102	31.94
797.279	33.05
797.456	32.34
797.632	33.18
797.809	32.72
797.986	32.22
798.162	30.91
798.339	31.09
798.516	30.48
798.692	29.85
798.869	28.98
799.046	28.14
799.222	28.65
799.399	30.17
799.575	28.8
799.752	29.21
799.928	30.73
800.105	30.63
800.281	30.84
800.458	31.78
800.634	32.03
800.811	32.45
800.987	32.02
801.163	31.83
801.34	32.08
801.516	33.15
801.692	32.2
801.869	31.58
802.045	31.47
802.221	30.01
802.398	29.61
802.574	29.53
802.75	29
802.926	29.47
803.103	29.67
803.279	28.52
803.455	29.22
803.631	29.62
803.807	30.64
803.983	30.66
804.16	31.73
804.336	31.73
804.512	30.81
804.688	30.43
804.864	30.69
805.04	29.49
805.216	30.44
805.392	27.91
805.568	29.41
805.744	28.29
805.92	27.55
806.096	27.2
806.272	26.8
806.448	27.32
806.623	28.36
806.799	27.08
806.975	27.71
807.151	27.56
807.327	29.19
807.503	27.97
807.678	27.82
807.854	29.5
808.03	30.51
808.206	30.44
808.381	30.95
808.557	30.22
808.733	31.49
808.908	32.18
809.084	31.76
809.26	31.77
809.435	32.19
809.611	32.17
809.787	31.87
809.962	31.82
810.138	32.1
810.313	32.57
810.489	33.52
810.664	33.12
810.84	32.82
811.015	32.58
811.191	31.84
811.366	30.23
811.542	29.17
811.717	28.58
811.892	27.4
812.068	28.07
812.243	27.34
812.419	27.28
812.594	26.62
812.769	27.01
812.944	28.31
813.12	28.85
813.295	31.05
813.47	32.15
813.645	31.98
813.821	32.41
813.996	31.67
814.171	31.11
814.346	31.08
814.521	32.26
814.697	31.27
814.872	29.84
815.047	29.9
815.222	29.84
815.397	29.56
815.572	30.59
815.747	31.91
815.922	32.8
816.097	33.17
816.272	32.05
816.447	32.76
816.622	33.1
816.797	34.53
816.972	34.28
817.147	34.52
817.322	35.15
817.496	34.08
817.671	32.32
817.846	30.61
818.021	32.29
818.196	33.16
818.371	31.88
818.545	33.38
818.72	34.2
818.895	34.76
819.069	34.34
819.244	33.99
819.419	35.02
819.594	35.64
819.768	36.58
819.943	35.68
820.117	35.03
820.292	33.99
820.467	32.75
820.641	31.89
820.816	31.66
820.99	31.89
821.165	32.17
821.339	32.05
821.514	32.02
821.688	31.72
821.863	31.44
822.037	31.36
822.212	31.92
822.386	31.97
822.56	32.14
822.735	32.14
822.909	31.95
823.084	31.82
823.258	31.47
823.432	31.35
823.606	31.27
823.781	31.26
823.955	31.28
824.129	31.17
824.303	31.17
824.478	31.26
824.652	30.76
824.826	30.76
825	31.07
825.174	31.05
825.348	31.18
825.523	31.45
825.697	31.31
825.871	31.82
826.045	31.46
826.219	31.88
826.393	31.38
826.567	31.69
826.741	31.15
826.915	30.55
827.089	31.02
827.263	31.2
827.437	31.22
827.611	31.07
827.784	30.77
827.958	30.7
828.132	30.37
828.306	30.62
828.48	30.86
828.654	31.47
828.827	31.48
829.001	30.94
829.175	31.04
829.349	31.66
829.522	32.76
829.696	31.96
829.87	32.87
830.044	32.38
830.217	33.49
830.391	33.96
830.565	33.95
830.738	33.97
830.912	34.35
831.085	33.21
831.259	31.89
831.432	32.08
831.606	32.72
831.779	33.12
831.953	32.75
832.126	31.75
832.3	31.4
832.473	31.59
832.647	32.01
832.82	32.33
832.994	33.06
833.167	33.16
833.34	32.1
833.514	31.74
833.687	31.02
833.86	31.54
834.034	30.66
834.207	30.63
834.38	29.89
834.553	30.04
834.727	30.33
834.9	30.07
835.073	30.01
835.246	31.08
835.419	32.02
835.593	31.12
835.766	30.84
835.939	32.06
836.112	32.17
836.285	32.57
836.458	33.29
836.631	32.04
836.804	32.18
836.977	32.4
837.15	32.46
837.323	32.14
837.496	34.15
837.669	34.44
837.842	33.87
838.015	33.48
838.188	33.74
838.361	31.92
838.533	32.64
838.706	31.91
838.879	31.84
839.052	30.33
839.225	29.79
839.398	29.86
839.57	32.15
839.743	32.53
839.916	33.58
840.088	34.61
840.261	36.26
840.434	37.01
840.607	37.37
840.779	39.29
840.952	39.91
841.124	40.1
841.297	39.27
841.47	36.59
841.642	37.04
841.815	36.74
841.987	35.94
842.16	34.86
842.332	35.27
842.505	35.49
842.677	33.57
842.85	33.12
843.022	35.34
843.194	34.79
843.367	35.34
843.539	36.09
843.712	35.76
843.884	34.72
844.056	33.57
844.229	33.34
844.401	31.41
844.573	30.63
844.745	32.42
844.918	29.67
845.09	32.09
845.262	32.35
845.434	28.72
845.606	28.07
845.779	30.91
845.951	31.31
846.123	30.78
846.295	30.49
846.467	31.01
846.639	26.86
846.811	27.97
846.983	25.47
847.155	25.61
847.327	27.66
847.499	25.9
847.671	23.25
847.843	26.3
848.015	26.71
848.187	31.74
848.359	31.19
848.531	29.93
848.703	30.45
848.875	26.75
849.047	27.3
849.218	24.72
849.39	25.1
849.562	23.31
849.734	19.92
849.905	18.66
850.077	16.92
850.249	16.63
850.421	21.54
850.592	21.99
850.764	24.71
850.936	24.14
851.107	23.79
851.279	23.91
851.451	29.13
851.622	29.25
851.794	28.11
851.965	21.64
852.137	22.27
852.308	17.27
852.48	13.84
852.651	18.41
852.823	17.42
852.994	18.41
853.166	20.22
853.337	17.84
853.509	18.85
853.68	18.94
853.851	24.09
854.023	24.1
854.194	28.24
854.365	28.46
854.537	27.82
854.708	31.69
854.879	33.86
855.05	33.36
855.222	38.39
855.393	36.91
855.564	38.7
855.735	36.55
855.906	37.15
856.078	38.29
856.249	42.87
856.42	40.33
856.591	37.36
856.762	37.79
856.933	39.2
857.104	32.92
857.275	36.42
857.446	39.05
857.617	43.12
857.788	48.18
857.959	49.65
858.13	45.39
858.301	48.66
858.472	49.62
858.643	44.77
858.814	45.84
858.985	48.11
859.155	47.85
859.326	45.46
859.497	44.18
859.668	40.28
859.839	41.03
860.009	38.16
860.18	36.36
860.351	32.29
860.522	38.33
860.692	33.25
860.863	30.42
861.034	26.59
861.204	23.65
861.375	24.62
861.546	25.8
861.716	22.01
861.887	22.68
862.057	25.21
862.228	30.4
862.398	27.06
862.569	29.67
862.739	34.78
862.91	40.11
863.08	44.47
863.251	43.31
863.421	41.04
863.592	41.14
863.762	45.9
863.932	40.87
864.103	40.76
864.273	44.1
864.443	42.29
864.614	37.34
864.784	32.85
864.954	32.45
865.125	29.4
865.295	31.29
865.465	33.04
865.635	34.49
865.805	38.36
865.976	36.48
866.146	33.07
866.316	35.87
866.486	38.15
866.656	41.9
866.826	38.28
866.996	35.65
867.166	35.67
867.336	32.96
867.506	32.31
867.676	29.86
867.846	25.09
868.016	25.95
868.186	22.05
868.356	23.14
868.526	18.05
868.696	17
868.866	19.25
869.036	16.09
869.206	19.62
869.376	15.48
869.545	7.81
869.715	14.52
869.885	15.39
870.055	19.08
870.224	17.75
870.394	18.03
870.564	22.98
870.734	26.88
870.903	28.26
871.073	31.68
871.243	24.9
871.412	33.05
871.582	31.95
871.751	29.73
871.921	27.09
872.091	28.64
872.26	24.78
872.43	25.85
872.599	26.21
872.769	29.16
872.938	26.2
873.108	35.32
873.277	36.7
873.446	33.34
873.616	35.6
873.785	37.48
873.955	29.4
874.124	30.97
874.293	26.4
874.463	26.63
874.632	26.41
874.801	26.69
874.971	18.36
875.14	16.43
875.309	20.45
875.478	20.21
875.647	19.37
875.817	27.32
875.986	30.35
876.155	38.04
876.324	38.79
876.493	39.02
876.662	40.41
876.831	45.15
877	47.43
877.17	45
877.339	45.67
877.508	47.25
877.677	44.04
877.846	43.54
878.015	40.44
878.184	33.88
878.352	30.83
878.521	29.46
878.69	24.85
878.859	25.8
879.028	28.42
879.197	30.38
879.366	28.29
879.534	27.59
879.703	28.82
879.872	27.55
880.041	30.67
880.21	31.94
880.378	31.33
880.547	32.38
880.716	31.99
880.884	31.66
881.053	30.47
881.222	30.93
881.39	32.03
881.559	32.8
881.727	33.57
881.896	33.56
882.065	34.2
882.233	33.9
882.402	33.7
882.57	33.32
882.739	33.48
882.907	33.7
883.076	33.9
883.244	33.59
883.412	32.89
883.581	32.29
883.749	31.88
883.918	31.34
884.086	31.81
884.254	32.83
884.423	32.29
884.591	32.97
884.759	33.1
884.927	32.13
885.096	32.22
885.264	31.23
885.432	32.14
885.6	32.91
885.769	32.25
885.937	31.45
886.105	30.27
886.273	31.57
886.441	28.26
886.609	28.79
886.777	31.48
886.945	32
887.113	35.71
887.281	34.14
887.449	35.24
887.617	34.61
887.785	37.06
887.953	38.57
888.121	43.37
888.289	46.53
888.457	45.55
888.625	40.98
888.793	38.25
888.961	37.12
889.129	41.09
889.296	41.26
889.464	44.22
889.632	42.7
889.8	40.75
889.967	34.83
890.135	34.68
