Data from 2938522_Reflection_3.txt Node
Date: Tue Jun 16 22:14:24 EDT 2015
User: robert
Spectrometer: USB4E03002
Autoset integration time: false
Trigger mode: 4
Integration Time (sec): 1.000000E-1
Scans to average: 10
Electric dark correction enabled: true
Nonlinearity correction enabled: false
Boxcar width: 5
Stray light correction enabled: false
XAxis mode: Wavelengths
Stop averaging: false
Number of Pixels in Spectrum: 3648
>>>>>Begin Spectral Data<<<<<
177.575	-213.26
177.794	-187.51
178.014	-72.19
178.233	-47.56
178.452	-59.95
178.672	-43.49
178.891	105.72
179.11	2078.51
179.33	4758.76
179.549	1212.04
179.768	463.93
179.987	684.56
180.207	783.42
180.426	284.52
180.645	195.95
180.864	224.24
181.084	217.72
181.303	174.23
181.522	118.95
181.741	112.38
181.96	118.79
182.179	134.51
182.398	112.13
182.618	90.96
182.837	89.58
183.056	79.13
183.275	72.13
183.494	70.41
183.713	68.49
183.932	75.43
184.151	66.01
184.37	68.84
184.589	70.12
184.808	64.37
185.027	82.39
185.246	105.53
185.465	112.05
185.684	124.24
185.903	133.08
186.122	137.1
186.341	127.54
186.56	185.7
186.779	167.82
186.998	179.69
187.216	202.87
187.435	250.43
187.654	257.48
187.873	432.44
188.092	604.96
188.311	-402.35
188.53	-120.29
188.748	-251.48
188.967	-4156.25
189.186	412.34
189.405	192.96
189.623	150.12
189.842	156.68
190.061	119.11
190.28	104.37
190.498	71.65
190.717	94
190.936	96.99
191.154	92.09
191.373	95.74
191.592	95.8
191.81	100.27
192.029	104.53
192.248	99.13
192.466	105.56
192.685	99.38
192.904	118.66
193.122	111.57
193.341	136.65
193.559	123.12
193.778	117.47
193.996	144.38
194.215	176.91
194.433	179.47
194.652	197.29
194.87	172.93
195.089	172.57
195.307	177.36
195.526	199.62
195.744	187.68
195.963	224.53
196.181	197.93
196.399	195.93
196.618	188.83
196.836	174.84
197.055	147.65
197.273	167.89
197.491	163.39
197.71	170.25
197.928	138.35
198.146	144.91
198.365	121.69
198.583	136.33
198.801	128.65
199.019	129.52
199.238	146.07
199.456	145.71
199.674	141.34
199.892	132.46
200.111	104.17
200.329	105.68
200.547	76.57
200.765	73.67
200.983	74.81
201.202	65.19
201.42	70.74
201.638	75.91
201.856	86.62
202.074	93.27
202.292	96.14
202.51	119.24
202.728	119.1
202.946	133.27
203.165	154.06
203.383	179.11
203.601	202.63
203.819	166.42
204.037	141.81
204.255	139.9
204.473	125.12
204.691	135.18
204.909	129.41
205.127	136.64
205.345	133.13
205.562	123.42
205.78	138.62
205.998	120.97
206.216	117.01
206.434	122.75
206.652	126.78
206.87	122.86
207.088	117.88
207.306	124.26
207.523	109.63
207.741	108.69
207.959	119.19
208.177	105.64
208.395	109.01
208.612	112.47
208.83	108.25
209.048	92.16
209.266	90.38
209.483	71.56
209.701	63.08
209.919	60.68
210.136	63.01
210.354	56.5
210.572	59.98
210.79	65.8
211.007	65.53
211.225	76.19
211.442	77.02
211.66	82.61
211.878	108.74
212.095	182.46
212.313	204.23
212.53	229.24
212.748	199.44
212.966	186.98
213.183	180.03
213.401	191.02
213.618	169.13
213.836	190.68
214.053	169.61
214.271	164.9
214.488	71.04
214.705	80.27
214.923	81.59
215.14	74.57
215.358	69.86
215.575	58.7
215.793	63.99
216.01	67.13
216.227	76.04
216.445	78.25
216.662	88.35
216.879	97.37
217.097	87.11
217.314	84.49
217.531	90.03
217.749	101.8
217.966	102.95
218.183	97.25
218.4	85.81
218.618	76.61
218.835	77.2
219.052	63.27
219.269	56.01
219.487	54.23
219.704	58.24
219.921	55.76
220.138	47.19
220.355	45.91
220.572	60.75
220.79	63.87
221.007	60.98
221.224	58.09
221.441	58.82
221.658	64.73
221.875	64.01
222.092	47.63
222.309	46.29
222.526	47.4
222.743	49.43
222.96	37.95
223.177	39.27
223.394	37.44
223.611	34.11
223.828	34.04
224.045	30.15
224.262	33.78
224.479	38.58
224.696	36.73
224.913	35.12
225.13	30.66
225.347	28.21
225.564	24.24
225.781	21.64
225.997	21.66
226.214	21.66
226.431	20.08
226.648	17.59
226.865	16.49
227.082	14.72
227.298	14.56
227.515	14.82
227.732	15.79
227.949	15.53
228.165	16.31
228.382	16.39
228.599	16.57
228.816	17.01
229.032	16.74
229.249	15.85
229.466	17.01
229.682	17.94
229.899	18.3
230.116	16.59
230.332	18.27
230.549	17.92
230.765	17.83
230.982	18.22
231.199	17.51
231.415	20.41
231.632	21.01
231.848	22.12
232.065	19.26
232.281	21.19
232.498	21.53
232.714	20.76
232.931	20.65
233.147	20.65
233.364	18.66
233.58	18.58
233.797	17.99
234.013	19
234.23	19.46
234.446	20.21
234.662	18.87
234.879	18.74
235.095	18.72
235.312	19.03
235.528	21.11
235.744	21.29
235.961	22.3
236.177	21.1
236.393	22.33
236.61	20.97
236.826	22.46
237.042	23.12
237.258	24.54
237.475	25.17
237.691	25.61
237.907	23.85
238.123	23.87
238.339	23.25
238.556	22.03
238.772	20.96
238.988	20.71
239.204	19.07
239.42	17.44
239.636	15.54
239.853	14.21
240.069	12.73
240.285	12.16
240.501	11.13
240.717	10.67
240.933	9.93
241.149	9.53
241.365	9.61
241.581	9.82
241.797	10.14
242.013	10.74
242.229	10.92
242.445	11.72
242.661	11.66
242.877	12.61
243.093	12.74
243.309	13.29
243.525	12.74
243.741	11.62
243.957	11.12
244.173	10.58
244.388	10.72
244.604	10.48
244.82	9.72
245.036	9.35
245.252	9.32
245.468	9.07
245.683	9.33
245.899	9.67
246.115	9.87
246.331	9.49
246.547	9.52
246.762	9.46
246.978	9.66
247.194	10.12
247.409	10.68
247.625	11.08
247.841	11.41
248.057	10.82
248.272	10.67
248.488	11.12
248.703	11.28
248.919	11.08
249.135	10.75
249.35	10.29
249.566	9.65
249.782	9.78
249.997	9.34
250.213	9.21
250.428	10.04
250.644	10.48
250.859	10.86
251.075	11.63
251.29	12.14
251.506	12.19
251.721	12.61
251.937	13.45
252.152	13.13
252.368	12.62
252.583	12.69
252.798	12.98
253.014	13.28
253.229	11.85
253.445	12.36
253.66	12.2
253.875	12.31
254.091	12.86
254.306	12.13
254.521	11.79
254.737	11.78
254.952	10.92
255.167	9.79
255.383	9.46
255.598	9.93
255.813	8.96
256.028	9.03
256.244	8.83
256.459	8.14
256.674	7.85
256.889	7.78
257.104	7.53
257.32	7.93
257.535	7.62
257.75	7.26
257.965	6.83
258.18	7.01
258.395	7.12
258.61	6.79
258.826	7.01
259.041	7.2
259.256	7.26
259.471	7.33
259.686	7.47
259.901	7.6
260.116	7.75
260.331	8.08
260.546	8.52
260.761	8.28
260.976	8.55
261.191	8.17
261.406	8.57
261.621	8.01
261.836	7.78
262.05	7.82
262.265	8.6
262.48	9.13
262.695	9.05
262.91	8.22
263.125	8.37
263.34	8.5
263.555	8.58
263.769	8.13
263.984	9.4
264.199	9.85
264.414	9.35
264.629	9.46
264.843	9.26
265.058	9.22
265.273	9.22
265.488	9.18
265.702	9.37
265.917	9.85
266.132	10.02
266.346	9.48
266.561	9.85
266.776	9.61
266.99	9.07
267.205	9
267.42	8.87
267.634	8.71
267.849	8.89
268.063	8.72
268.278	8.21
268.492	8.26
268.707	8.24
268.922	8.12
269.136	8.19
269.351	8.12
269.565	7.69
269.78	7.86
269.994	7.95
270.209	7.5
270.423	7.54
270.637	7.6
270.852	6.65
271.066	6.77
271.281	6.56
271.495	6.55
271.709	6.95
271.924	6.67
272.138	6.8
272.353	6.95
272.567	7.16
272.781	7.09
272.996	7.32
273.21	8.26
273.424	8.31
273.638	8.51
273.853	9.1
274.067	8.72
274.281	9.66
274.495	9.39
274.71	9.42
274.924	8.98
275.138	8.85
275.352	8.51
275.566	8.38
275.781	8.64
275.995	8.04
276.209	7.57
276.423	7.59
276.637	7.69
276.851	7.34
277.065	6.88
277.279	7.22
277.493	7.36
277.707	7.21
277.921	7.04
278.135	6.75
278.349	7.45
278.563	7.06
278.777	7.54
278.991	7.01
279.205	6.84
279.419	7.09
279.633	7.62
279.847	8.03
280.061	8.29
280.275	8.58
280.489	8.5
280.703	8.16
280.917	8.53
281.131	8.06
281.344	8.27
281.558	8.61
281.772	8.82
281.986	8.07
282.2	7.71
282.414	7.54
282.627	7.14
282.841	7.41
283.055	7.26
283.269	7.23
283.482	7.29
283.696	6.97
283.91	7.15
284.123	6.54
284.337	6.94
284.551	6.66
284.764	7.02
284.978	7.02
285.192	6.58
285.405	6.6
285.619	6.49
285.833	6.64
286.046	6.47
286.26	6.38
286.473	6.83
286.687	6.66
286.9	6.83
287.114	6.47
287.327	6.74
287.541	6.74
287.754	6.72
287.968	6.93
288.181	6.46
288.395	6.67
288.608	6.81
288.822	6.67
289.035	6.78
289.248	6.6
289.462	6.78
289.675	6.49
289.889	6.98
290.102	7.15
290.315	7.02
290.529	7.29
290.742	7.03
290.955	6.38
291.169	6.25
291.382	6.8
291.595	7.21
291.808	6.92
292.022	7.38
292.235	7.18
292.448	7.3
292.661	7.17
292.875	7.32
293.088	7.94
293.301	8.33
293.514	8.44
293.727	7.81
293.94	7.8
294.153	7.67
294.367	7.48
294.58	6.87
294.793	6.8
295.006	6.57
295.219	6.46
295.432	6.56
295.645	6.46
295.858	6.4
296.071	6.26
296.284	6.33
296.497	6.43
296.71	6.32
296.923	6.77
297.136	6.64
297.349	7.1
297.562	7.43
297.775	7.35
297.988	7.57
298.201	7.87
298.414	8.18
298.626	7.81
298.839	7.93
299.052	7.87
299.265	8
299.478	8.33
299.691	8.43
299.903	8.22
300.116	7.86
300.329	8.16
300.542	8.11
300.755	7.98
300.967	8.39
301.18	8.42
301.393	8.6
301.605	7.89
301.818	7.68
302.031	7.51
302.243	7.47
302.456	7.45
302.669	6.95
302.881	7.3
303.094	7.44
303.307	7.22
303.519	7.17
303.732	7.77
303.944	8.16
304.157	8.44
304.37	8.25
304.582	8.2
304.795	8.36
305.007	8.84
305.22	8.33
305.432	8.37
305.645	8.25
305.857	8.73
306.069	8.56
306.282	8.52
306.494	8.16
306.707	8.23
306.919	8.32
307.132	8.45
307.344	8.25
307.556	8.47
307.769	8.74
307.981	8.9
308.193	8.5
308.406	7.95
308.618	8.36
308.83	8.22
309.043	8.27
309.255	8.33
309.467	8.26
309.679	8.44
309.892	8.36
310.104	8.24
310.316	8.7
310.528	8.48
310.74	8.74
310.953	8.54
311.165	8.89
311.377	8.95
311.589	8.77
311.801	8.67
312.013	8.59
312.225	8.66
312.437	8.41
312.649	8.28
312.862	8.71
313.074	8.66
313.286	8.72
313.498	8.61
313.71	8.75
313.922	9.23
314.134	9.03
314.346	9.1
314.558	9.18
314.77	9.64
314.982	9.38
315.193	9.44
315.405	9.56
315.617	9.29
315.829	9.33
316.041	9.1
316.253	8.92
316.465	9.82
316.677	9.05
316.888	9.08
317.1	8.89
317.312	9.03
317.524	9.14
317.736	9.16
317.947	10.28
318.159	10.24
318.371	10.14
318.583	10.08
318.794	9.45
319.006	10.36
319.218	10.12
319.43	9.88
319.641	9.44
319.853	9.28
320.064	9.51
320.276	9.22
320.488	9.64
320.699	9.9
320.911	9.55
321.123	9.14
321.334	8.96
321.546	9.56
321.757	9.4
321.969	9.78
322.18	10.02
322.392	9.66
322.603	9.22
322.815	8.84
323.026	8.8
323.238	9.09
323.449	9.68
323.661	9.89
323.872	9.69
324.083	10.04
324.295	9.53
324.506	9.16
324.718	9.31
324.929	9.5
325.14	9.67
325.352	9.98
325.563	10.1
325.774	10.06
325.986	9.75
326.197	9.76
326.408	9.78
326.62	10.09
326.831	10.14
327.042	10.22
327.253	10.1
327.464	10.37
327.676	9.7
327.887	9.79
328.098	9.76
328.309	10.29
328.52	10.41
328.732	10.77
328.943	11.1
329.154	11.24
329.365	11.39
329.576	11.34
329.787	11.2
329.998	11.76
330.209	11.76
330.42	12.22
330.631	11.82
330.842	11.81
331.053	11.39
331.264	11.22
331.475	11.28
331.686	11.08
331.897	11.15
332.108	11.11
332.319	11.5
332.53	11.05
332.741	10.75
332.952	10.94
333.163	10.89
333.374	11.01
333.585	10.88
333.795	10.53
334.006	10.99
334.217	10.65
334.428	10.6
334.639	10.14
334.849	10.5
335.06	10.44
335.271	10.43
335.482	10.34
335.692	10.21
335.903	10.35
336.114	10.79
336.325	10.5
336.535	11.22
336.746	11.38
336.957	11.82
337.167	12.29
337.378	12.58
337.589	12.53
337.799	12.52
338.01	12.89
338.22	12.74
338.431	13.04
338.642	13.1
338.852	12.95
339.063	12.7
339.273	12.35
339.484	12.23
339.694	12.1
339.905	11.79
340.115	11.7
340.326	11.15
340.536	11.31
340.746	10.76
340.957	10.79
341.167	10.62
341.378	10.67
341.588	10.47
341.799	10.12
342.009	10.48
342.219	10.88
342.43	10.94
342.64	11
342.85	10.86
343.061	11.03
343.271	10.68
343.481	10.42
343.691	10.43
343.902	10.65
344.112	10.88
344.322	10.47
344.532	10.41
344.743	10.33
344.953	10.34
345.163	10.22
345.373	10.01
345.583	10.17
345.793	9.99
346.004	10.09
346.214	9.82
346.424	9.59
346.634	9.64
346.844	9.71
347.054	9.72
347.264	10.15
347.474	9.98
347.684	9.91
347.894	9.69
348.104	10.05
348.314	10
348.524	10.3
348.734	10.13
348.944	10.11
349.154	9.92
349.364	9.7
349.574	9.23
349.784	9.42
349.994	9.95
350.204	10.11
350.413	10.18
350.623	10.39
350.833	10.36
351.043	10.51
351.253	10.66
351.463	10.47
351.672	10.87
351.882	11.12
352.092	11.25
352.302	10.86
352.511	10.66
352.721	10.48
352.931	10.45
353.141	10.54
353.35	10.7
353.56	10.28
353.77	10.29
353.979	10.25
354.189	10.12
354.399	10.2
354.608	10.46
354.818	10.82
355.027	10.94
355.237	10.79
355.447	10.46
355.656	10.35
355.866	10.25
356.075	10.2
356.285	10.15
356.494	10.25
356.704	10.2
356.913	10.11
357.123	10
357.332	9.94
357.542	9.84
357.751	9.92
357.96	9.63
358.17	9.84
358.379	10.1
358.589	10.04
358.798	9.82
359.007	9.77
359.217	9.59
359.426	9.5
359.635	9.68
359.845	9.58
360.054	9.56
360.263	9.75
360.472	9.6
360.682	9.54
360.891	9.44
361.1	9.43
361.309	9.32
361.519	9.28
361.728	9.22
361.937	9.11
362.146	9.17
362.355	9.31
362.564	9.11
362.774	9.21
362.983	9.15
363.192	9.36
363.401	9.58
363.61	9.76
363.819	9.8
364.028	9.84
364.237	9.64
364.446	9.53
364.655	9.27
364.864	9.39
365.073	9.29
365.282	9.23
365.491	8.89
365.7	8.77
365.909	8.6
366.118	8.66
366.327	8.74
366.536	8.71
366.745	8.8
366.954	8.85
367.162	9.03
367.371	9.05
367.58	9.07
367.789	8.9
367.998	8.9
368.207	8.93
368.415	8.61
368.624	8.49
368.833	8.47
369.042	8.22
369.25	8.34
369.459	8.11
369.668	8.16
369.877	7.9
370.085	8.27
370.294	8.23
370.503	8.11
370.711	8.34
370.92	8.04
371.129	8.27
371.337	8.37
371.546	8.1
371.754	8.03
371.963	7.83
372.171	7.96
372.38	7.77
372.589	7.62
372.797	7.54
373.006	7.46
373.214	7.77
373.423	7.48
373.631	7.37
373.84	7.53
374.048	7.57
374.256	7.69
374.465	7.71
374.673	7.85
374.882	7.78
375.09	7.96
375.298	8.02
375.507	8.09
375.715	8.17
375.923	8.51
376.132	8.35
376.34	8.46
376.548	8.32
376.757	8.25
376.965	8.16
377.173	8.25
377.381	8.05
377.59	8.14
377.798	7.99
378.006	7.83
378.214	7.54
378.423	7.56
378.631	7.22
378.839	7.48
379.047	7.51
379.255	7.46
379.463	7.53
379.671	7.34
379.879	7.11
380.088	7.08
380.296	7.11
380.504	7.17
380.712	7.29
380.92	7.6
381.128	7.37
381.336	7.36
381.544	7.04
381.752	7.08
381.96	7.21
382.168	7.31
382.376	7.24
382.584	7.32
382.791	7.06
382.999	7.09
383.207	6.96
383.415	7
383.623	6.78
383.831	7.03
384.039	6.79
384.247	6.79
384.454	6.65
384.662	6.57
384.87	6.36
385.078	6.66
385.285	6.47
385.493	6.35
385.701	6.16
385.909	6.33
386.116	6.16
386.324	6.2
386.532	6.45
386.739	6.64
386.947	6.52
387.155	6.62
387.362	6.67
387.57	6.62
387.778	6.52
387.985	6.6
388.193	6.57
388.4	6.56
388.608	6.68
388.816	6.34
389.023	6.07
389.231	6.02
389.438	6.11
389.646	5.95
389.853	6.01
390.061	6.03
390.268	6.03
390.475	5.96
390.683	6
390.89	5.8
391.098	6.02
391.305	6.26
391.512	6.49
391.72	6.15
391.927	6.03
392.135	5.76
392.342	5.78
392.549	5.83
392.756	5.63
392.964	5.46
393.171	5.53
393.378	5.47
393.586	5.35
393.793	5.09
394	5.42
394.207	5.52
394.414	5.71
394.622	5.74
394.829	5.64
395.036	5.81
395.243	5.83
395.45	5.78
395.657	5.59
395.864	5.53
396.072	5.81
396.279	5.71
396.486	5.53
396.693	5.43
396.9	5.44
397.107	5.35
397.314	5.45
397.521	5.58
397.728	5.67
397.935	5.88
398.142	5.84
398.349	5.77
398.556	5.64
398.763	5.78
398.97	5.86
399.177	5.67
399.383	5.73
399.59	5.43
399.797	5.4
400.004	5.15
400.211	4.96
400.418	4.78
400.625	4.67
400.831	4.64
401.038	4.48
401.245	4.47
401.452	4.55
401.658	4.56
401.865	4.74
402.072	4.75
402.279	4.98
402.485	4.99
402.692	5.03
402.899	4.95
403.105	4.97
403.312	5.06
403.519	4.98
403.725	4.9
403.932	4.83
404.138	4.88
404.345	4.85
404.552	4.69
404.758	4.58
404.965	4.55
405.171	4.65
405.378	4.65
405.584	4.66
405.791	4.73
405.997	4.96
406.204	5.24
406.41	5.19
406.617	5.21
406.823	5.16
407.029	5.27
407.236	5.52
407.442	5.5
407.649	5.56
407.855	5.27
408.061	5.23
408.268	4.95
408.474	4.7
408.68	4.67
408.887	4.58
409.093	4.78
409.299	4.67
409.505	4.51
409.712	4.43
409.918	4.48
410.124	4.62
410.33	4.75
410.537	4.86
410.743	4.87
410.949	4.87
411.155	5.06
411.361	4.79
411.567	4.93
411.773	4.84
411.98	4.95
412.186	4.84
412.392	4.97
412.598	4.64
412.804	4.5
413.01	4.52
413.216	4.55
413.422	4.5
413.628	4.58
413.834	4.41
414.04	4.41
414.246	4.33
414.452	4.22
414.658	4.24
414.864	4.42
415.07	4.39
415.275	4.45
415.481	4.33
415.687	4.31
415.893	4.31
416.099	4.32
416.305	4.33
416.511	4.31
416.716	4.4
416.922	4.34
417.128	4.31
417.334	4.28
417.539	4.06
417.745	4.01
417.951	3.96
418.157	3.96
418.362	4.04
418.568	4.02
418.774	3.97
418.979	3.91
419.185	3.78
419.391	3.64
419.596	3.7
419.802	3.73
420.008	3.71
420.213	4.38
420.419	4.32
420.624	4.17
420.83	4.21
421.035	4.22
421.241	4.22
421.446	4.28
421.652	4.33
421.857	4.23
422.063	4.3
422.268	4.39
422.474	3.69
422.679	3.71
422.885	3.72
423.09	3.58
423.295	3.56
423.501	3.59
423.706	3.54
423.911	3.49
424.117	3.6
424.322	3.49
424.527	3.47
424.733	3.5
424.938	3.48
425.143	3.61
425.349	3.75
425.554	3.71
425.759	3.6
425.964	3.72
426.169	3.82
426.375	3.75
426.58	3.88
426.785	3.9
426.99	3.83
427.195	3.89
427.4	3.83
427.605	3.86
427.811	3.93
428.016	3.88
428.221	3.92
428.426	3.88
428.631	3.94
428.836	3.91
429.041	3.9
429.246	3.87
429.451	3.75
429.656	3.61
429.861	3.62
430.066	3.63
430.271	3.74
430.476	3.61
430.681	3.69
430.886	3.68
431.09	3.66
431.295	3.57
431.5	3.58
431.705	3.63
431.91	3.71
432.115	3.63
432.32	3.63
432.524	3.6
432.729	3.73
432.934	3.69
433.139	3.68
433.343	3.65
433.548	3.65
433.753	3.61
433.958	3.6
434.162	3.68
434.367	3.67
434.572	3.63
434.776	3.5
434.981	3.43
435.186	3.48
435.39	3.41
435.595	3.45
435.799	3.5
436.004	3.54
436.209	3.45
436.413	3.35
436.618	3.39
436.822	3.39
437.027	3.56
437.231	3.42
437.436	3.37
437.64	3.37
437.845	3.32
438.049	3.24
438.253	3.23
438.458	3.27
438.662	3.28
438.867	3.24
439.071	3.23
439.275	3.17
439.48	3.31
439.684	3.24
439.888	3.36
440.093	3.33
440.297	3.36
440.501	3.42
440.706	3.42
440.91	3.48
441.114	3.51
441.318	3.52
441.523	3.6
441.727	3.59
441.931	3.63
442.135	3.51
442.339	3.56
442.543	3.54
442.748	3.48
442.952	3.57
443.156	3.46
443.36	3.4
443.564	3.38
443.768	3.3
443.972	3.25
444.176	3.34
444.38	3.37
444.584	3.33
444.788	3.33
444.992	3.35
445.196	3.27
445.4	3.26
445.604	3.27
445.808	3.34
446.012	3.27
446.216	3.24
446.42	3.18
446.624	3.16
446.828	3.24
447.032	3.26
447.235	3.28
447.439	3.29
447.643	3.37
447.847	3.36
448.051	3.33
448.254	3.44
448.458	3.44
448.662	3.48
448.866	3.44
449.069	3.47
449.273	3.46
449.477	3.33
449.681	3.34
449.884	3.37
450.088	3.35
450.292	3.28
450.495	3.36
450.699	3.51
450.902	3.42
451.106	3.41
451.31	3.38
451.513	3.47
451.717	3.54
451.92	3.48
452.124	3.37
452.327	3.44
452.531	3.5
452.734	3.4
452.938	3.36
453.141	3.43
453.345	3.43
453.548	3.33
453.752	3.25
453.955	3.26
454.158	3.29
454.362	3.33
454.565	3.37
454.769	3.34
454.972	3.36
455.175	3.3
455.379	3.28
455.582	3.33
455.785	3.42
455.988	3.42
456.192	3.46
456.395	3.43
456.598	3.43
456.801	3.3
457.005	3.33
457.208	3.32
457.411	3.29
457.614	3.23
457.817	3.17
458.021	3.14
458.224	3.13
458.427	3.07
458.63	3.09
458.833	3.14
459.036	3.15
459.239	3.11
459.442	3.06
459.645	3.08
459.848	3.14
460.051	3.13
460.254	3.11
460.457	3.06
460.66	3.14
460.863	3.18
461.066	3.22
461.269	3.23
461.472	3.31
461.675	3.36
461.878	3.38
462.081	3.3
462.284	3.38
462.486	3.38
462.689	3.49
462.892	3.49
463.095	3.41
463.298	3.21
463.5	3.34
463.703	3.25
463.906	3.33
464.109	3.38
464.311	3.47
464.514	3.52
464.717	3.5
464.92	3.5
465.122	3.58
465.325	3.64
465.528	3.8
465.73	3.76
465.933	3.71
466.135	3.73
466.338	3.65
466.541	3.67
466.743	3.61
466.946	3.63
467.148	3.55
467.351	3.41
467.553	3.39
467.756	3.41
467.958	3.42
468.161	3.53
468.363	3.49
468.566	3.54
468.768	3.63
468.971	3.66
469.173	3.68
469.375	3.63
469.578	3.6
469.78	3.62
469.983	3.54
470.185	3.47
470.387	3.41
470.59	3.31
470.792	3.34
470.994	3.25
471.196	3.14
471.399	3.26
471.601	3.36
471.803	3.28
472.005	3.38
472.208	3.36
472.41	3.42
472.612	3.56
472.814	3.61
473.016	3.69
473.218	3.76
473.421	3.78
473.623	3.66
473.825	3.67
474.027	3.81
474.229	3.76
474.431	3.81
474.633	3.8
474.835	3.77
475.037	3.79
475.239	3.56
475.441	3.4
475.643	3.43
475.845	3.46
476.047	3.47
476.249	3.43
476.451	3.45
476.653	3.53
476.855	3.42
477.057	3.3
477.258	3.28
477.46	3.35
477.662	3.43
477.864	3.46
478.066	3.4
478.268	3.32
478.469	3.31
478.671	3.18
478.873	3.03
479.075	3.12
479.276	3.12
479.478	3.1
479.68	3.15
479.882	3.1
480.083	3.08
480.285	3.1
480.487	3.14
480.688	3.16
480.89	3.19
481.091	3.11
481.293	3.08
481.495	3.05
481.696	3.02
481.898	2.98
482.099	2.98
482.301	2.96
482.502	2.97
482.704	2.94
482.905	2.94
483.107	2.93
483.308	2.97
483.51	2.97
483.711	2.97
483.913	2.96
484.114	2.95
484.315	2.95
484.517	2.99
484.718	2.93
484.92	2.96
485.121	2.93
485.322	2.9
485.524	2.88
485.725	2.9
485.926	2.91
486.127	2.93
486.329	2.94
486.53	2.95
486.731	2.91
486.932	2.93
487.134	2.92
487.335	2.95
487.536	2.94
487.737	2.98
487.938	2.96
488.139	2.99
488.341	2.98
488.542	2.96
488.743	2.95
488.944	2.99
489.145	3.05
489.346	3.04
489.547	3.03
489.748	3.07
489.949	3.11
490.15	3.08
490.351	3.06
490.552	3.09
490.753	3.1
490.954	3.1
491.155	3.08
491.356	3.06
491.557	3.11
491.758	3.18
491.959	3.17
492.159	3.14
492.36	3.16
492.561	3.23
492.762	3.28
492.963	3.39
493.164	3.46
493.364	3.51
493.565	3.51
493.766	3.51
493.967	3.42
494.167	3.48
494.368	3.44
494.569	3.51
494.769	3.46
494.97	3.42
495.171	3.36
495.371	3.33
495.572	3.34
495.773	3.37
495.973	3.37
496.174	3.41
496.375	3.44
496.575	3.46
496.776	3.49
496.976	3.58
497.177	3.65
497.377	3.72
497.578	3.78
497.778	3.79
497.979	3.84
498.179	3.81
498.38	3.83
498.58	3.83
498.78	3.89
498.981	3.91
499.181	3.9
499.382	3.89
499.582	3.97
499.782	4.02
499.983	4.07
500.183	4.13
500.383	4.23
500.584	4.26
500.784	4.21
500.984	4.29
501.184	4.33
501.385	4.29
501.585	4.3
501.785	4.2
501.985	4.19
502.185	4.2
502.386	4.18
502.586	4.15
502.786	4.17
502.986	4.33
503.186	4.28
503.386	4.28
503.586	4.42
503.786	4.45
503.987	4.5
504.187	4.55
504.387	4.51
504.587	4.61
504.787	4.67
504.987	4.76
505.187	4.67
505.387	4.66
505.587	4.75
505.786	4.69
505.986	4.69
506.186	4.69
506.386	4.69
506.586	4.79
506.786	4.72
506.986	4.73
507.186	4.73
507.386	4.79
507.585	4.79
507.785	4.77
507.985	4.81
508.185	4.89
508.384	4.95
508.584	4.92
508.784	4.96
508.984	5.05
509.183	5.08
509.383	5.03
509.583	5.06
509.782	5.08
509.982	5.16
510.182	5.14
510.381	5.05
510.581	5.17
510.781	5.3
510.98	5.33
511.18	5.31
511.379	5.39
511.579	5.4
511.778	5.47
511.978	5.56
512.177	5.56
512.377	5.6
512.576	5.7
512.776	5.67
512.975	5.67
513.175	5.67
513.374	5.69
513.573	5.7
513.773	5.86
513.972	5.9
514.172	5.93
514.371	5.99
514.57	6.1
514.77	6.16
514.969	6.28
515.168	6.3
515.367	6.34
515.567	6.39
515.766	6.37
515.965	6.38
516.164	6.42
516.364	6.44
516.563	6.44
516.762	6.44
516.961	6.41
517.16	6.4
517.359	6.44
517.559	6.51
517.758	6.5
517.957	6.52
518.156	6.55
518.355	6.61
518.554	6.63
518.753	6.67
518.952	6.74
519.151	6.88
519.35	6.89
519.549	6.98
519.748	7.06
519.947	7.21
520.146	7.32
520.345	7.37
520.544	7.38
520.743	7.45
520.942	7.54
521.141	7.55
521.339	7.58
521.538	7.61
521.737	7.64
521.936	7.67
522.135	7.67
522.333	7.77
522.532	7.83
522.731	7.87
522.93	8
523.129	8.08
523.327	8.13
523.526	8.15
523.725	8.24
523.923	8.33
524.122	8.38
524.321	8.43
524.519	8.46
524.718	8.53
524.917	8.56
525.115	8.56
525.314	8.58
525.512	8.62
525.711	8.67
525.909	8.68
526.108	8.65
526.306	8.67
526.505	8.68
526.703	8.66
526.902	8.65
527.1	8.7
527.299	8.75
527.497	8.79
527.696	8.86
527.894	8.94
528.092	9.03
528.291	9.08
528.489	9.14
528.688	9.23
528.886	9.38
529.084	9.53
529.283	9.62
529.481	9.7
529.679	9.75
529.877	9.82
530.076	9.84
530.274	9.85
530.472	9.88
530.67	9.95
530.869	9.99
531.067	9.96
531.265	9.94
531.463	9.96
531.661	9.97
531.859	9.99
532.057	10.01
532.255	10.05
532.454	10.11
532.652	10.22
532.85	10.29
533.048	10.36
533.246	10.46
533.444	10.52
533.642	10.6
533.84	10.71
534.038	10.84
534.236	10.97
534.434	10.97
534.632	11
534.83	11.05
535.027	11.05
535.225	11.08
535.423	11.09
535.621	11.2
535.819	11.25
536.017	11.29
536.215	11.35
536.412	11.3
536.61	11.4
536.808	11.45
537.006	11.48
537.203	11.58
537.401	11.75
537.599	11.84
537.797	11.78
537.994	11.83
538.192	11.9
538.39	11.94
538.587	12.04
538.785	12.1
538.983	12.08
539.18	12.07
539.378	12.08
539.575	12
539.773	11.96
539.97	12.06
540.168	12.08
540.366	12.11
540.563	12.14
540.761	12.16
540.958	12.17
541.155	12.25
541.353	12.37
541.55	12.4
541.748	12.47
541.945	12.56
542.143	12.61
542.34	12.67
542.537	12.72
542.735	12.76
542.932	12.8
543.129	12.9
543.327	12.98
543.524	13.03
543.721	13.08
543.919	13.16
544.116	13.24
544.313	13.36
544.51	13.38
544.708	13.43
544.905	13.45
545.102	13.55
545.299	13.62
545.496	13.71
545.693	13.75
545.891	13.86
546.088	13.91
546.285	13.97
546.482	14.02
546.679	14.14
546.876	14.22
547.073	14.41
547.27	14.44
547.467	14.43
547.664	14.41
547.861	14.33
548.058	14.45
548.255	14.54
548.452	14.56
548.649	14.7
548.846	14.77
549.043	14.78
549.24	14.73
549.437	14.78
549.633	14.95
549.83	15.07
550.027	15.23
550.224	15.25
550.421	15.33
550.618	15.33
550.814	15.34
551.011	15.3
551.208	15.41
551.405	15.45
551.601	15.47
551.798	15.45
551.995	15.48
552.191	15.52
552.388	15.38
552.585	15.44
552.781	15.58
552.978	15.51
553.175	15.61
553.371	15.63
553.568	15.78
553.764	16
553.961	16.13
554.157	16.17
554.354	16.29
554.55	16.44
554.747	16.39
554.943	16.51
555.14	16.64
555.336	16.64
555.533	16.61
555.729	16.61
555.926	16.63
556.122	16.65
556.318	16.76
556.515	16.83
556.711	16.89
556.907	16.98
557.104	17.08
557.3	17.17
557.496	17.33
557.693	17.44
557.889	17.56
558.085	17.64
558.281	17.71
558.478	17.85
558.674	17.92
558.87	18.01
559.066	18.13
559.262	18.09
559.459	18.08
559.655	18.1
559.851	18.22
560.047	18.23
560.243	18.23
560.439	18.28
560.635	18.25
560.831	18.22
561.027	18.29
561.223	18.31
561.419	18.34
561.615	18.42
561.811	18.48
562.007	18.56
562.203	18.59
562.399	18.58
562.595	18.65
562.791	18.73
562.987	18.9
563.183	18.98
563.379	19.07
563.575	19.09
563.771	19.15
563.966	19.21
564.162	19.25
564.358	19.34
564.554	19.38
564.75	19.36
564.945	19.47
565.141	19.5
565.337	19.64
565.533	19.71
565.728	19.74
565.924	19.76
566.12	19.87
566.315	19.92
566.511	19.92
566.707	20.04
566.902	20.16
567.098	20.26
567.293	20.21
567.489	20.21
567.684	20.21
567.88	20.36
568.076	20.39
568.271	20.38
568.467	20.51
568.662	20.56
568.858	20.68
569.053	20.68
569.248	20.56
569.444	20.7
569.639	20.8
569.835	20.91
570.03	20.91
570.225	21.06
570.421	21.18
570.616	21.19
570.812	21.41
571.007	21.36
571.202	21.53
571.397	21.74
571.593	21.77
571.788	21.8
571.983	21.91
572.178	22.02
572.374	22
572.569	22.08
572.764	22.09
572.959	22
573.154	22.07
573.35	22.11
573.545	22.14
573.74	22.2
573.935	22.18
574.13	22.11
574.325	22.12
574.52	22.29
574.715	22.29
574.91	22.38
575.105	22.54
575.3	22.66
575.495	22.67
575.69	22.63
575.885	22.75
576.08	22.96
576.275	23.07
576.47	23.24
576.665	23.21
576.86	23.28
577.055	23.35
577.25	23.4
577.444	23.44
577.639	23.54
577.834	23.67
578.029	23.66
578.224	23.64
578.418	23.71
578.613	23.72
578.808	23.8
579.003	23.81
579.197	24.02
579.392	24.07
579.587	24.29
579.781	24.28
579.976	24.36
580.171	24.37
580.365	24.44
580.56	24.51
580.755	24.61
580.949	24.68
581.144	24.82
581.338	24.76
581.533	24.81
581.727	24.76
581.922	24.77
582.116	24.83
582.311	24.86
582.505	24.9
582.7	24.94
582.894	24.96
583.089	24.96
583.283	25.03
583.478	25.06
583.672	25.15
583.866	25.15
584.061	25.18
584.255	25.22
584.449	25.41
584.644	25.48
584.838	25.6
585.032	25.65
585.226	25.65
585.421	25.71
585.615	25.78
585.809	25.66
586.003	25.64
586.198	25.77
586.392	25.85
586.586	25.79
586.78	25.81
586.974	25.88
587.168	25.86
587.363	25.83
587.557	25.85
587.751	25.79
587.945	25.92
588.139	25.95
588.333	25.91
588.527	25.98
588.721	26.08
588.915	26.15
589.109	26.16
589.303	26.25
589.497	26.28
589.691	26.14
589.885	26.21
590.079	26.29
590.273	26.41
590.466	26.51
590.66	26.28
590.854	26.26
591.048	26.27
591.242	26.31
591.436	26.25
591.629	26.37
591.823	26.53
592.017	26.6
592.211	26.58
592.404	26.57
592.598	26.62
592.792	26.84
592.986	26.85
593.179	26.77
593.373	26.71
593.567	26.84
593.76	26.87
593.954	27.05
594.147	27.04
594.341	27.01
594.535	27.03
594.728	27.04
594.922	26.97
595.115	26.89
595.309	26.95
595.502	27.03
595.696	26.99
595.889	27.05
596.083	26.84
596.276	26.89
596.47	27.08
596.663	27.05
596.856	27.14
597.05	27.29
597.243	27.31
597.437	27.32
597.63	27.37
597.823	27.46
598.017	27.46
598.21	27.84
598.403	27.87
598.596	27.82
598.79	27.95
598.983	27.95
599.176	27.89
599.369	28.22
599.563	28.29
599.756	28.19
599.949	28.09
600.142	28.09
600.335	27.94
600.528	28.05
600.722	28.05
600.915	28.14
601.108	28.1
601.301	28.15
601.494	28.06
601.687	28.08
601.88	28.03
602.073	28.15
602.266	28.24
602.459	28.22
602.652	28.23
602.845	28.17
603.038	28.05
603.231	28.21
603.424	28.24
603.617	28.26
603.809	28.25
604.002	28.33
604.195	28.31
604.388	28.34
604.581	28.46
604.774	28.46
604.966	28.54
605.159	28.58
605.352	28.4
605.545	28.4
605.737	28.34
605.93	28.38
606.123	28.44
606.316	28.39
606.508	28.45
606.701	28.37
606.894	28.3
607.086	28.31
607.279	28.44
607.471	28.6
607.664	28.66
607.857	28.82
608.049	28.92
608.242	28.94
608.434	29.05
608.627	29.01
608.819	29.01
609.012	29.09
609.204	29.24
609.397	29.24
609.589	29.2
609.782	29.08
609.974	29.09
610.166	29.1
610.359	29.11
610.551	29.18
610.743	29.32
610.936	29.24
611.128	29.27
611.32	29.06
611.513	29.14
611.705	29.16
611.897	29.31
612.09	29.46
612.282	29.61
612.474	29.62
612.666	29.74
612.858	29.64
613.051	29.9
613.243	29.82
613.435	29.99
613.627	30.08
613.819	29.94
614.011	30.44
614.203	30.42
614.395	30.35
614.588	30.48
614.78	30.4
614.972	30.42
615.164	30.38
615.356	30.3
615.548	30.2
615.74	30.14
615.932	30.33
616.124	29.97
616.315	29.97
616.507	29.91
616.699	30.01
616.891	30.23
617.083	30.24
617.275	30.17
617.467	30.25
617.659	30.34
617.85	30.44
618.042	30.54
618.234	30.5
618.426	30.57
618.618	30.7
618.809	30.67
619.001	30.32
619.193	30.55
619.384	30.59
619.576	30.91
619.768	30.98
619.959	30.81
620.151	31.02
620.343	31.02
620.534	30.98
620.726	30.87
620.917	30.95
621.109	30.95
621.301	30.84
621.492	30.89
621.684	30.83
621.875	30.89
622.067	30.99
622.258	30.88
622.45	31.12
622.641	31.06
622.832	31.02
623.024	30.88
623.215	31.11
623.407	31.13
623.598	31.17
623.789	30.99
623.981	30.89
624.172	31.12
624.363	30.89
624.555	30.72
624.746	30.6
624.937	30.57
625.129	30.7
625.32	30.7
625.511	30.73
625.702	30.78
625.893	30.92
626.085	31.04
626.276	30.95
626.467	31.18
626.658	31.14
626.849	31.1
627.04	31.11
627.231	31.02
627.422	31.07
627.614	31.03
627.805	30.89
627.996	30.75
628.187	30.8
628.378	30.73
628.569	30.64
628.76	30.92
628.951	31.21
629.142	31.33
629.332	31.33
629.523	31.3
629.714	31.34
629.905	31.5
630.096	31.7
630.287	31.85
630.478	31.94
630.669	31.86
630.859	31.8
631.05	31.69
631.241	31.63
631.432	31.59
631.623	31.62
631.813	31.7
632.004	31.64
632.195	31.61
632.385	31.33
632.576	31.18
632.767	31.19
632.957	31.24
633.148	31.29
633.339	31.36
633.529	31.4
633.72	31.35
633.91	31.32
634.101	31.36
634.292	31.37
634.482	31.44
634.673	31.53
634.863	31.82
635.054	31.78
635.244	31.83
635.435	32.07
635.625	32.08
635.815	32.25
636.006	32.21
636.196	32.19
636.387	32.36
636.577	32.31
636.767	32.47
636.958	32.2
637.148	32.36
637.338	32.2
637.529	32.03
637.719	32.18
637.909	32.06
638.099	32.21
638.29	32.34
638.48	32.2
638.67	32.36
638.86	32.19
639.05	32.32
639.241	32.22
639.431	32.2
639.621	32.3
639.811	32.36
640.001	32.44
640.191	32.31
640.381	32.26
640.571	32.27
640.761	32.19
640.951	32.2
641.141	32.14
641.331	31.85
641.521	32.04
641.711	31.92
641.901	32.17
642.091	32.09
642.281	32.17
642.471	32.3
642.661	32.29
642.851	32.61
643.041	32.65
643.231	32.65
643.42	33.01
643.61	33.3
643.8	33.32
643.99	33.11
644.18	33.26
644.369	33.43
644.559	33.41
644.749	33.63
644.939	33.28
645.128	33.51
645.318	33.65
645.508	33.4
645.697	33.27
645.887	33.22
646.076	32.92
646.266	32.82
646.456	32.6
646.645	32.78
646.835	32.56
647.024	32.74
647.214	32.68
647.403	32.66
647.593	32.87
647.782	32.75
647.972	32.89
648.161	33.33
648.351	33.37
648.54	33.32
648.73	33.05
648.919	33.09
649.108	33.27
649.298	33.19
649.487	33.24
649.677	33.23
649.866	33.41
650.055	33.42
650.244	33.25
650.434	33.34
650.623	33.72
650.812	33.72
651.002	33.61
651.191	33.48
651.38	33.55
651.569	33.37
651.758	33.17
651.947	33.15
652.137	33.12
652.326	33.27
652.515	33.28
652.704	32.98
652.893	33.07
653.082	33.29
653.271	33.31
653.46	33.12
653.649	33.21
653.838	33.39
654.027	33.28
654.216	33.12
654.405	32.99
654.594	32.72
654.783	32.87
654.972	32.91
655.161	32.65
655.35	32.6
655.539	33.03
655.728	33.23
655.916	33.17
656.105	33.23
656.294	33.74
656.483	33.71
656.672	33.77
656.86	33.64
657.049	33.6
657.238	33.63
657.427	33.63
657.615	33.57
657.804	33.53
657.993	33.51
658.181	33.52
658.37	33.24
658.559	33.23
658.747	33.53
658.936	33.69
659.125	33.78
659.313	33.95
659.502	33.98
659.69	33.84
659.879	33.85
660.067	34.01
660.256	34.04
660.444	34.25
660.633	34.35
660.821	34.38
661.01	34.56
661.198	34.44
661.387	34.64
661.575	34.66
661.763	34.81
661.952	34.83
662.14	34.77
662.328	34.46
662.517	34.55
662.705	34.48
662.893	34.15
663.082	33.95
663.27	34.27
663.458	34.16
663.646	34.12
663.834	33.86
664.023	33.97
664.211	34
664.399	34.46
664.587	34.26
664.775	34.25
664.963	34.69
665.152	34.55
665.34	34.46
665.528	34.2
665.716	34.22
665.904	34.51
666.092	34.6
666.28	34.78
666.468	34.91
666.656	35.09
666.844	35.48
667.032	35.55
667.22	35.96
667.408	36.04
667.596	36.44
667.784	36.49
667.971	36.49
668.159	36.15
668.347	36
668.535	35.75
668.723	35.6
668.911	35.37
669.098	35.09
669.286	34.95
669.474	34.59
669.662	34.29
669.849	34.14
670.037	34.02
670.225	34.24
670.413	34.3
670.6	34.25
670.788	34.4
670.976	34.46
671.163	34.46
671.351	34.44
671.538	34.73
671.726	35.04
671.913	35.09
672.101	35.43
672.289	35.58
672.476	35.36
672.664	35.59
672.851	35.57
673.039	35.6
673.226	35.85
673.413	35.57
673.601	35.59
673.788	35.38
673.976	35.36
674.163	35.35
674.35	35.26
674.538	35.73
674.725	35.59
674.912	35.3
675.1	35.28
675.287	35.05
675.474	35.1
675.662	35.34
675.849	35.54
676.036	35.71
676.223	35.51
676.411	35.46
676.598	35.17
676.785	35.34
676.972	35.51
677.159	35.36
677.346	35.33
677.533	35.7
677.721	35.45
677.908	35.29
678.095	35.23
678.282	35.38
678.469	35.31
678.656	35.28
678.843	35.38
679.03	35.43
679.217	35.62
679.404	35.87
679.591	35.58
679.778	35.48
679.964	35.39
680.151	35.38
680.338	35.2
680.525	35.3
680.712	35.67
680.899	35.85
681.086	35.83
681.272	35.81
681.459	35.6
681.646	35.59
681.833	35.66
682.02	35.83
682.206	36.11
682.393	36.21
682.58	36.19
682.766	35.75
682.953	35.63
683.14	35.72
683.326	35.89
683.513	36.15
683.7	36.61
683.886	36.5
684.073	36.53
684.259	36.35
684.446	36.61
684.632	36.75
684.819	36.88
685.005	36.77
685.192	36.9
685.378	37.09
685.565	36.8
685.751	36.36
685.938	36.84
686.124	37.05
686.31	37.29
686.497	37.18
686.683	37.32
686.87	37.28
687.056	37.25
687.242	37.13
687.429	36.74
687.615	36.65
687.801	36.88
687.987	36.74
688.174	36.76
688.36	36.84
688.546	36.79
688.732	36.5
688.918	36.38
689.105	36.18
689.291	36.3
689.477	36.43
689.663	36.84
689.849	36.56
690.035	36.62
690.221	36.54
690.407	36.52
690.593	36.62
690.779	36.8
690.965	37.03
691.151	37.29
691.337	37.19
691.523	37.03
691.709	37.05
691.895	37.8
692.081	37.6
692.267	37.88
692.453	37.58
692.639	37.46
692.825	37.45
693.011	37.5
693.196	37.43
693.382	37.23
693.568	37.4
693.754	37.69
693.94	37.09
694.125	37.49
694.311	37.06
694.497	37
694.682	37.31
694.868	37.4
695.054	37.39
695.239	37.58
695.425	37.84
695.611	37.66
695.796	36.99
695.982	37.18
696.168	36.81
696.353	36.87
696.539	36.94
696.724	36.8
696.91	36.52
697.095	36.63
697.281	36.18
697.466	36.11
697.652	36.14
697.837	36.34
698.023	36.21
698.208	36.31
698.393	36.29
698.579	36.23
698.764	36.09
698.949	36.18
699.135	35.89
699.32	36.39
699.505	36.3
699.691	36.45
699.876	36.25
700.061	36.29
700.246	36.37
700.432	36.6
700.617	36.7
700.802	36.38
700.987	36.68
701.172	37.04
701.358	36.66
701.543	36.77
701.728	36.86
701.913	37.27
702.098	37.58
702.283	37.62
702.468	37.23
702.653	37.23
702.838	37.66
703.023	37.4
703.208	37.36
703.393	37.46
703.578	37.71
703.763	37.47
703.948	37.16
704.133	37.12
704.318	36.66
704.503	37.17
704.688	37.47
704.873	37.2
705.057	37.16
705.242	37.44
705.427	37.79
705.612	37.59
705.797	37.53
705.981	37.7
706.166	37.77
706.351	38.12
706.536	37.85
706.72	37.44
706.905	37.5
707.09	37.52
707.274	37.25
707.459	37.42
707.644	37.76
707.828	37.99
708.013	38.05
708.197	37.85
708.382	38.09
708.567	37.89
708.751	38.14
708.936	38.3
709.12	38.82
709.305	38.74
709.489	38.28
709.673	37.83
709.858	37.75
710.042	37.82
710.227	37.92
710.411	37.79
710.596	37.95
710.78	38.05
710.964	38.2
711.149	38.13
711.333	38.27
711.517	38.61
711.702	38.77
711.886	38.95
712.07	38.82
712.254	38.36
712.438	38.39
712.623	38.38
712.807	38.31
712.991	38.54
713.175	38.16
713.359	38.17
713.544	37.95
713.728	37.83
713.912	37.47
714.096	37.14
714.28	37.36
714.464	37.26
714.648	37.18
714.832	37.37
715.016	37.2
715.2	37.34
715.384	37.15
715.568	37.39
715.752	37.63
715.936	38.08
716.12	38.16
716.304	38.69
716.488	38.5
716.671	38.8
716.855	39.1
717.039	39.23
717.223	39.21
717.407	39.27
717.59	39.28
717.774	39.29
717.958	38.85
718.142	38.88
718.325	38.66
718.509	39.13
718.693	39.31
718.877	38.47
719.06	38.23
719.244	38.32
719.428	38.34
719.611	37.94
719.795	38.19
719.978	39.05
720.162	39.17
720.345	38.73
720.529	38.63
720.713	38.22
720.896	38.4
721.08	38.64
721.263	38.29
721.446	38.46
721.63	38.47
721.813	37.96
721.997	37.39
722.18	37.51
722.364	37.98
722.547	37.9
722.73	37.84
722.914	37.97
723.097	37.88
723.28	38.05
723.464	37.77
723.647	37.95
723.83	37.84
724.013	38.12
724.197	38.33
724.38	38.79
724.563	38.64
724.746	38.7
724.929	38.98
725.112	39.53
725.296	39.56
725.479	39.68
725.662	39.5
725.845	39.88
726.028	39.38
726.211	38.81
726.394	37.97
726.577	38.08
726.76	38.09
726.943	37.71
727.126	37.24
727.309	36.95
727.492	36.99
727.675	37.3
727.858	36.88
728.041	36.95
728.224	37.62
728.407	38.04
728.589	37.88
728.772	37.8
728.955	38.12
729.138	38.53
729.321	39.03
729.503	39.4
729.686	39.37
729.869	39.78
730.052	39.85
730.234	40.12
730.417	39.62
730.6	39.93
730.782	40.11
730.965	39.87
731.148	39.17
731.33	38.78
731.513	38.5
731.695	38.5
731.878	38.11
732.061	38.18
732.243	37.71
732.426	37.71
732.608	37.4
732.791	37.74
732.973	38.05
733.156	38.09
733.338	38.2
733.52	38.42
733.703	38.16
733.885	38.71
734.068	38.5
734.25	38.63
734.432	38.59
734.615	38.55
734.797	37.71
734.979	37.09
735.162	37.29
735.344	37.38
735.526	37.85
735.708	38.24
735.891	38.43
736.073	38.65
736.255	38.74
736.437	39.37
736.619	39.11
736.802	39.41
736.984	39.9
737.166	40.01
737.348	40.14
737.53	39.33
737.712	38.85
737.894	38.91
738.076	38.94
738.258	38.59
738.44	38.44
738.622	39.09
738.804	39.36
738.986	39.36
739.168	39.01
739.35	39.19
739.532	39.07
739.714	39.27
739.896	38.41
740.078	38.45
740.259	38.37
740.441	39.06
740.623	38.73
740.805	38.2
740.987	37.94
741.168	38.49
741.35	38.41
741.532	38.7
741.714	38.67
741.895	38.86
742.077	39.09
742.259	39
742.44	38.59
742.622	39.03
742.804	39.89
742.985	40.06
743.167	39.83
743.348	40.23
743.53	40.66
743.711	40.95
743.893	41.11
744.075	40.75
744.256	40.89
744.438	40.77
744.619	40.21
744.8	39.55
744.982	39.46
745.163	39.57
745.345	38.98
745.526	38.89
745.707	39.17
745.889	38.89
746.07	38.97
746.252	39.6
746.433	39.79
746.614	39.72
746.795	40.6
746.977	40.69
747.158	40.28
747.339	40.16
747.52	40.2
747.702	39.89
747.883	40.41
748.064	40.26
748.245	40.11
748.426	39.62
748.607	40.38
748.788	39.69
748.97	39.8
749.151	40.08
749.332	40.36
749.513	40.17
749.694	39.65
749.875	40.32
750.056	40.64
750.237	40.25
750.418	40.3
750.599	39.74
750.78	39.6
750.96	39.25
751.141	38.96
751.322	38.62
751.503	38.05
751.684	38.13
751.865	37.08
752.046	37.45
752.226	37.74
752.407	37.56
752.588	37.74
752.769	38.93
752.949	39.45
753.13	39.72
753.311	39.26
753.492	39.87
753.672	39.83
753.853	39.8
754.034	39.4
754.214	39.53
754.395	39.82
754.575	39.81
754.756	39.09
754.937	38.84
755.117	38.58
755.298	39.5
755.478	39.74
755.659	39.74
755.839	39.42
756.02	39.52
756.2	39.26
756.381	39.29
756.561	39.69
756.741	39.6
756.922	39.62
757.102	39.92
757.283	39.59
757.463	38.98
757.643	39.38
757.823	40.13
758.004	39.78
758.184	39.55
758.364	39.3
758.545	38.91
758.725	38.87
758.905	39.22
759.085	39.18
759.265	39.12
759.446	39.17
759.626	39.55
759.806	39
759.986	39.28
760.166	39.33
760.346	39.4
760.526	39.71
760.706	39.57
760.886	39.26
761.066	39.37
761.246	40.13
761.426	40.64
761.606	40.04
761.786	40.37
761.966	40.01
762.146	39.92
762.326	39.96
762.506	39.69
762.686	39.89
762.866	39.82
763.046	39.82
763.225	39.45
763.405	39.16
763.585	39.09
763.765	39.28
763.945	39.09
764.124	39.4
764.304	39.7
764.484	40.28
764.664	40.14
764.843	40.2
765.023	40.16
765.203	40.17
765.382	40.04
765.562	40.47
765.741	40.5
765.921	40.74
766.101	40.68
766.28	40.57
766.46	40.16
766.639	40.47
766.819	40.69
766.998	40.83
767.178	40.93
767.357	41.17
767.537	40.76
767.716	40.29
767.896	40.48
768.075	40.44
768.254	40.39
768.434	40.64
768.613	40.69
768.792	40.08
768.972	40.31
769.151	40.03
769.33	39.57
769.51	40.6
769.689	40.82
769.868	41.22
770.047	41.79
770.226	41.79
770.406	41.79
770.585	41.62
770.764	42.26
770.943	41.79
771.122	41.85
771.301	42.6
771.48	41.99
771.66	42.35
771.839	42.52
772.018	41.66
772.197	41.33
772.376	41.37
772.555	40.77
772.734	40.67
772.913	40.95
773.092	40.67
773.271	40.58
773.449	40.55
773.628	39.93
773.807	39.41
773.986	39.15
774.165	40.2
774.344	39.61
774.523	40.06
774.701	39.42
774.88	39.57
775.059	39.69
775.238	39.78
775.417	40.34
775.595	41.21
775.774	41.06
775.953	41.85
776.131	40.74
776.31	41.32
776.489	40.99
776.667	41.54
776.846	41.4
777.025	41.33
777.203	40.89
777.382	40.99
777.56	39.95
777.739	39.91
777.917	40.15
778.096	40.07
778.274	39.28
778.453	39.37
778.631	39.99
778.81	40.46
778.988	40.98
779.166	40.46
779.345	40.51
779.523	40.63
779.702	40.65
779.88	39.81
780.058	40.16
780.237	40.82
780.415	40.71
780.593	40.53
780.771	40.19
780.95	41.37
781.128	42.25
781.306	41.94
781.484	42.91
781.662	43.16
781.841	43.76
782.019	43.67
782.197	42.98
782.375	43.16
782.553	43.36
782.731	43.42
782.909	42.99
783.087	43.42
783.265	43.4
783.443	42.31
783.621	41.27
783.799	41.4
783.977	41.9
784.155	42.28
784.333	42.56
784.511	41.61
784.689	41.43
784.867	40.22
785.045	39.73
785.223	40.13
785.4	40.52
785.578	42.34
785.756	42.07
785.934	41.46
786.112	41.7
786.289	41.96
786.467	42.88
786.645	42.93
786.823	43.29
787	44.5
787.178	43.31
787.356	43.49
787.533	42.89
787.711	43.47
787.889	43.63
788.066	43.28
788.244	42.9
788.421	43.06
788.599	43.34
788.776	43.78
788.954	42.23
789.131	43
789.309	42.97
789.486	42.56
789.664	42.03
789.841	42.67
790.019	42.9
790.196	43.44
790.373	42.58
790.551	42.73
790.728	42.27
790.906	42.87
791.083	43.88
791.26	44.64
791.437	45.57
791.615	45.8
791.792	45.31
791.969	45.56
792.146	45.27
792.324	44.87
792.501	45.32
792.678	45.66
792.855	45.25
793.032	44.73
793.209	44.21
793.387	44.15
793.564	44.42
793.741	44.91
793.918	43.71
794.095	43.71
794.272	43.14
794.449	42.31
794.626	42.43
794.803	43.01
794.98	42.38
795.157	42.32
795.334	42.09
795.511	41.11
795.688	40.49
795.864	41.37
796.041	42.09
796.218	43.36
796.395	43.74
796.572	43.03
796.749	42.99
796.925	42.24
797.102	41.95
797.279	41.65
797.456	42.33
797.632	42.42
797.809	42.56
797.986	42.4
798.162	41.73
798.339	41.73
798.516	42.4
798.692	41.8
798.869	43.13
799.046	44.22
799.222	44.66
799.399	45.11
799.575	45.07
799.752	44.38
799.928	43.88
800.105	44.9
800.281	44.96
800.458	44.84
800.634	46.28
800.811	46.8
800.987	44.12
801.163	43.88
801.34	44.13
801.516	44.06
801.692	44.51
801.869	45.01
802.045	44.5
802.221	43.62
802.398	42.79
802.574	41.84
802.75	40.86
802.926	41.45
803.103	42.48
803.279	41.69
803.455	41.81
803.631	42.62
803.807	42.59
803.983	43.49
804.16	43.14
804.336	43.8
804.512	43.36
804.688	43.87
804.864	44.86
805.04	43.99
805.216	44.79
805.392	45.79
805.568	45.63
805.744	46.13
805.92	45.47
806.096	47.5
806.272	48.31
806.448	49.18
806.623	48.4
806.799	49.44
806.975	49.19
807.151	48.47
807.327	46.57
807.503	45.23
807.678	44.87
807.854	44.35
808.03	42.99
808.206	42.02
808.381	41.42
808.557	41.34
808.733	39.87
808.908	39.73
809.084	39.65
809.26	39.74
809.435	40.37
809.611	38.96
809.787	39.84
809.962	40.45
810.138	39.83
810.313	39.44
810.489	39.83
810.664	39.7
810.84	39.15
811.015	38.52
811.191	40.92
811.366	42
811.542	42.24
811.717	41.8
811.892	40.99
812.068	42.12
812.243	41.01
812.419	40.78
812.594	41.86
812.769	42.79
812.944	42.6
813.12	42.32
813.295	41.7
813.47	42.08
813.645	41.88
813.821	42.44
813.996	42.33
814.171	44.49
814.346	44.24
814.521	43.3
814.697	44.99
814.872	46.52
815.047	45.1
815.222	46.75
815.397	46.76
815.572	46.29
815.747	45.77
815.922	44.52
816.097	43.63
816.272	45.04
816.447	44.49
816.622	42.85
816.797	41.95
816.972	41.71
817.147	40.05
817.322	40.33
817.496	40.28
817.671	39.86
817.846	40.28
818.021	40.56
818.196	38.64
818.371	39.12
818.545	39.24
818.72	40.66
818.895	40.69
819.069	40.43
819.244	40.2
819.419	40.71
819.594	41.04
819.768	40.72
819.943	40.83
820.117	41.46
820.292	41.18
820.467	40.97
820.641	40.44
820.816	40.51
820.99	40.03
821.165	39.76
821.339	39.51
821.514	39.45
821.688	39.32
821.863	38.9
822.037	38.67
822.212	38.8
822.386	38.71
822.56	38.61
822.735	38.23
822.909	38.43
823.084	38.48
823.258	38.37
823.432	38.22
823.606	38.37
823.781	38.75
823.955	39.05
824.129	39.25
824.303	39.6
824.478	39.74
824.652	40.16
824.826	40.59
825	40.57
825.174	40.49
825.348	40.66
825.523	40.79
825.697	40.44
825.871	40.51
826.045	40.02
826.219	39.81
826.393	39.44
826.567	39.54
826.741	39.21
826.915	39.14
827.089	39.33
827.263	39.21
827.437	39.09
827.611	39.33
827.784	39.43
827.958	39.49
828.132	39.58
828.306	40.26
828.48	40.15
828.654	40.23
828.827	40.78
829.001	41.17
829.175	41.47
829.349	42.13
829.522	42.53
829.696	42.83
829.87	43.16
830.044	43.65
830.217	43.07
830.391	43.92
830.565	43.38
830.738	43.16
830.912	43.45
831.085	43.5
831.259	43.43
831.432	42.97
831.606	42.17
831.779	42.4
831.953	41.4
832.126	40.54
832.3	40.05
832.473	40.95
832.647	40.64
832.82	41.06
832.994	40.31
833.167	40.75
833.34	40.13
833.514	40.57
833.687	40.17
833.86	40.49
834.034	41.59
834.207	41.7
834.38	41.42
834.553	41.42
834.727	40.81
834.9	41.47
835.073	39.91
835.246	41.19
835.419	40.77
835.593	41.5
835.766	40.52
835.939	40.59
836.112	41.21
836.285	41.38
836.458	41.98
836.631	42.06
836.804	43.82
836.977	45.91
837.15	46.51
837.323	46.8
837.496	48.31
837.669	50.38
837.842	50.01
838.015	50.35
838.188	51.44
838.361	51.05
838.533	50.95
838.706	48.53
838.879	48.11
839.052	47.35
839.225	47.28
839.398	45.11
839.57	45.38
839.743	46.9
839.916	46.44
840.088	46.58
840.261	47.08
840.434	47.74
840.607	48.85
840.779	48.03
840.952	47.08
841.124	45.97
841.297	47.52
841.47	47.79
841.642	46.93
841.815	48.26
841.987	49.02
842.16	48.45
842.332	48.96
842.505	48.85
842.677	49.67
842.85	51.08
843.022	53.42
843.194	53.41
843.367	52.98
843.539	52.28
843.712	49.15
843.884	47.1
844.056	49.33
844.229	50.07
844.401	49.57
844.573	48.57
844.745	46.11
844.918	44.12
845.09	42.76
845.262	42.65
845.434	43.97
845.606	45.37
845.779	46.01
845.951	45.63
846.123	42.26
846.295	43.99
846.467	44.98
846.639	47.59
846.811	49.22
846.983	51.26
847.155	51.78
847.327	50.28
847.499	50.42
847.671	50.25
847.843	48.13
848.015	50.19
848.187	50.69
848.359	55.2
848.531	53.66
848.703	53.64
848.875	52.41
849.047	48.86
849.218	49.35
849.39	50.65
849.562	49.56
849.734	53.1
849.905	53.52
850.077	51.23
850.249	45.46
850.421	48.24
850.592	45.81
850.764	47.38
850.936	51.14
851.107	49.26
851.279	48.47
851.451	55.91
851.622	53.62
851.794	51.98
851.965	55.95
852.137	59.3
852.308	60.09
852.48	63.63
852.651	62.42
852.823	61.67
852.994	62.1
853.166	60.09
853.337	56.83
853.509	57.4
853.68	59.07
853.851	55.14
854.023	54.49
854.194	48.99
854.365	43.78
854.537	43.77
854.708	44.93
854.879	45.29
855.05	48.4
855.222	45.67
855.393	43.58
855.564	45.82
855.735	48.51
855.906	46.85
856.078	47.89
856.249	54.18
856.42	54.98
856.591	56.03
856.762	56.56
856.933	55.91
857.104	55.92
857.275	56.66
857.446	52.5
857.617	52.96
857.788	48.43
857.959	49.86
858.13	48.4
858.301	45.26
858.472	40.46
858.643	40.08
858.814	38.84
858.985	43.72
859.155	47.14
859.326	50.51
859.497	47.36
859.668	52.12
859.839	53.99
860.009	52.53
860.18	55.03
860.351	60.98
860.522	62.03
860.692	59.72
860.863	54.23
861.034	53.07
861.204	51.27
861.375	52.82
861.546	51.54
861.716	47.53
861.887	49.27
862.057	49.87
862.228	47.23
862.398	48.35
862.569	52.47
862.739	57.06
862.91	55.52
863.08	56.67
863.251	56.41
863.421	56.53
863.592	59.67
863.762	60.25
863.932	56.54
864.103	54.78
864.273	55.89
864.443	54.64
864.614	52.68
864.784	56.54
864.954	56.48
865.125	59.08
865.295	61.29
865.465	60.48
865.635	59.03
865.805	65.11
865.976	65.66
866.146	64.47
866.316	64.08
866.486	64.7
866.656	59.61
866.826	56.7
866.996	53.88
867.166	52.15
867.336	51.3
867.506	51.54
867.676	46.93
867.846	51.17
868.016	51.16
868.186	49.54
868.356	51.41
868.526	52.79
868.696	52.77
868.866	55.24
869.036	53.03
869.206	53.05
869.376	50.84
869.545	50.96
869.715	50.36
869.885	50.72
870.055	54.53
870.224	51.53
870.394	46.4
870.564	50.77
870.734	49.45
870.903	53.89
871.073	54.54
871.243	55.88
871.412	56.49
871.582	54
871.751	53.35
871.921	51.67
872.091	51.2
872.26	54.96
872.43	51.99
872.599	52.22
872.769	54.03
872.938	56.35
873.108	55.37
873.277	53.09
873.446	51.51
873.616	50.68
873.785	54.16
873.955	53.08
874.124	52.88
874.293	55.23
874.463	57
874.632	55.98
874.801	55.25
874.971	57.91
875.14	62.88
875.309	65.25
875.478	64.56
875.647	60.41
875.817	59.59
875.986	59.79
876.155	57.54
876.324	57.16
876.493	56.56
876.662	55.71
876.831	49.71
877	49.7
877.17	48.47
877.339	46.49
877.508	47.43
877.677	45.83
877.846	44.44
878.015	44.43
878.184	41.61
878.352	39.76
878.521	37.17
878.69	39.93
878.859	37.26
879.028	37.78
879.197	40.42
879.366	38.48
879.534	40.9
879.703	41.19
879.872	41.24
880.041	40.32
880.21	40.99
880.378	41.28
880.547	40.92
880.716	41.67
880.884	42.37
881.053	41.53
881.222	42.32
881.39	41.61
881.559	41.58
881.727	41.46
881.896	41.83
882.065	41.05
882.233	41.24
882.402	41.64
882.57	41.8
882.739	41.55
882.907	41.94
883.076	41.44
883.244	42.14
883.412	41.94
883.581	42.56
883.749	43.16
883.918	44.07
884.086	44.15
884.254	44.69
884.423	44.39
884.591	44.26
884.759	43.18
884.927	44.43
885.096	43.35
885.264	45.24
885.432	45.86
885.6	46.35
885.769	45.67
885.937	45.48
886.105	45.66
886.273	45.98
886.441	46.49
886.609	49.17
886.777	49.51
886.945	53.93
887.113	52.96
887.281	51.98
887.449	52.91
887.617	55
887.785	58.13
887.953	57.93
888.121	58.81
888.289	58.74
888.457	59.82
888.625	58.5
888.793	58.94
888.961	60.35
889.129	60.75
889.296	56.08
889.464	55.69
889.632	54.85
889.8	55.6
889.967	56.42
890.135	60.41
