Data from 2938435_Reflection_4.txt Node
Date: Fri Jun 19 18:41:04 EDT 2015
User: robert
Spectrometer: USB4E03002
Autoset integration time: false
Trigger mode: 4
Integration Time (sec): 1.000000E-1
Scans to average: 10
Electric dark correction enabled: true
Nonlinearity correction enabled: false
Boxcar width: 5
Stray light correction enabled: false
XAxis mode: Wavelengths
Stop averaging: false
Number of Pixels in Spectrum: 3648
>>>>>Begin Spectral Data<<<<<
177.575	147.61
177.794	72.77
178.014	167.48
178.233	-48600
178.452	217.78
178.672	164.98
178.891	-4.51
179.11	-259.26
179.33	-592.64
179.549	-68.91
179.768	-144.58
179.987	8738.3
180.207	-271.82
180.426	-336.63
180.645	-234.84
180.864	-689.12
181.084	-212.19
181.303	-274.89
181.522	-224.33
181.741	-324.03
181.96	-304.46
182.179	-149.86
182.398	-12.84
182.618	-2.4
182.837	-119.03
183.056	-74.1
183.275	-12.03
183.494	1635.71
183.713	199.5
183.932	40.08
184.151	93.38
184.37	23.56
184.589	71.48
184.808	61.24
185.027	21.13
185.246	61.78
185.465	-649.5
185.684	-9.18
185.903	99.87
186.122	113.21
186.341	102.93
186.56	-4476.47
186.779	-16587.5
186.998	-47.75
187.216	-307.95
187.435	-506.44
187.654	-694.08
187.873	-74.96
188.092	-36.07
188.311	-12.73
188.53	-42.51
188.748	-72.81
188.967	-36.76
189.186	-49.63
189.405	-86.63
189.623	-55.26
189.842	10.92
190.061	30.08
190.28	7.39
190.498	-66.79
190.717	-1.78
190.936	-12.65
191.154	40.16
191.373	6.96
191.592	2.49
191.81	6.38
192.029	13.86
192.248	9.32
192.466	-60.26
192.685	-72.81
192.904	-12.83
193.122	-48.33
193.341	-44.54
193.559	-81.93
193.778	8.95
193.996	-4.5
194.215	-0.53
194.433	3.18
194.652	15.85
194.87	42.88
195.089	77.43
195.307	79.39
195.526	85.24
195.744	116.35
195.963	185.74
196.181	233.42
196.399	212.15
196.618	362.12
196.836	147.52
197.055	292.57
197.273	950.29
197.491	-742.28
197.71	254.96
197.928	-632.45
198.146	142.21
198.365	43.77
198.583	49.06
198.801	42.3
199.019	-1.07
199.238	-3.88
199.456	4.97
199.674	20.99
199.892	-11.88
200.111	-32.49
200.329	-10.87
200.547	-4.13
200.765	229.05
200.983	-178.23
201.202	-26.23
201.42	28.83
201.638	68.99
201.856	64.67
202.074	28.18
202.292	17.46
202.51	42.98
202.728	26.94
202.946	-19.99
203.165	-68.55
203.383	1.57
203.601	-8.45
203.819	-15.61
204.037	-51.72
204.255	118.31
204.473	135.27
204.691	-476.6
204.909	-776.15
205.127	-498.49
205.345	1244.89
205.562	189.38
205.78	123.34
205.998	255.07
206.216	357.88
206.434	-3779.82
206.652	184.52
206.87	156.37
207.088	71.82
207.306	42.84
207.523	56.35
207.741	88.54
207.959	-175
208.177	138.26
208.395	278.7
208.612	75.7
208.83	36.77
209.048	22.77
209.266	-822.02
209.483	-10.31
209.701	15.32
209.919	60.64
210.136	17.94
210.354	114.26
210.572	161.76
210.79	169.83
211.007	171.93
211.225	204.08
211.442	-621.08
211.66	165.59
211.878	179
212.095	68.83
212.313	92.24
212.53	103.09
212.748	113.53
212.966	119.97
213.183	138.33
213.401	162.21
213.618	150.27
213.836	198.77
214.053	210.72
214.271	156.47
214.488	69.83
214.705	85.25
214.923	87.28
215.14	85.91
215.358	49.68
215.575	55.53
215.793	106.26
216.01	118.16
216.227	151.86
216.445	111.5
216.662	72.07
216.879	90.12
217.097	87.89
217.314	89.2
217.531	96.94
217.749	91.28
217.966	69.83
218.183	54.13
218.4	35.94
218.618	28.5
218.835	41.29
219.052	29.21
219.269	28
219.487	7.41
219.704	-0.01
219.921	-0.37
220.138	-11.65
220.355	-0.81
220.572	-0.88
220.79	3.7
221.007	4.09
221.224	6.84
221.441	6.59
221.658	-35.19
221.875	-23.73
222.092	-48.81
222.309	-69.46
222.526	-64.96
222.743	-70.52
222.96	-45.75
223.177	-45.8
223.394	-38.29
223.611	-34.58
223.828	-17.49
224.045	-13.61
224.262	-11.39
224.479	-1.18
224.696	1.84
224.913	4.83
225.13	3.94
225.347	3.78
225.564	-1.45
225.781	-2.63
225.997	-6.18
226.214	-8.98
226.431	-6.65
226.648	-6.12
226.865	-4.09
227.082	-3.4
227.298	-3.17
227.515	-3.77
227.732	-6.7
227.949	-4.9
228.165	-6.22
228.382	-6.41
228.599	-8.78
228.816	-9.4
229.032	-8.56
229.249	-11.61
229.466	-12.62
229.682	-12.71
229.899	-13.7
230.116	-12.19
230.332	-14.51
230.549	-15.72
230.765	-14.95
230.982	-11.79
231.199	-10.73
231.415	-14.1
231.632	-12.9
231.848	-13.08
232.065	-10.41
232.281	-9.42
232.498	-11.83
232.714	-8.57
232.931	-3.51
233.147	-6.43
233.364	-3.92
233.58	0.41
233.797	1.11
234.013	3.09
234.23	6.04
234.446	4.46
234.662	4.9
234.879	6.27
235.095	6.61
235.312	2.42
235.528	3.4
235.744	0.81
235.961	-4.77
236.177	-5.32
236.393	-7.01
236.61	-11.75
236.826	-14.37
237.042	-12.01
237.258	-11.51
237.475	-8.6
237.691	-4.08
237.907	-1.43
238.123	1.34
238.339	0.84
238.556	1.57
238.772	2.23
238.988	1.24
239.204	-0.18
239.42	-1.42
239.636	-3.77
239.853	-4.2
240.069	-4.31
240.285	-5.56
240.501	-6.83
240.717	-6.58
240.933	-6.65
241.149	-7.22
241.365	-6.24
241.581	-6.36
241.797	-5.56
242.013	-2.87
242.229	-3.4
242.445	-3.18
242.661	-2.36
242.877	-1.46
243.093	-1.19
243.309	-1.55
243.525	-0.24
243.741	-1.46
243.957	-0.57
244.173	-2.09
244.388	-2.88
244.604	-2.66
244.82	-2.75
245.036	-3.22
245.252	-3.87
245.468	-4.67
245.683	-4.16
245.899	-4.51
246.115	-3.89
246.331	-4.05
246.547	-3.62
246.762	-3.9
246.978	-3.68
247.194	-3.64
247.409	-3.12
247.625	-2.64
247.841	-1.22
248.057	-1.39
248.272	-1.26
248.488	-2.31
248.703	-1.78
248.919	-2.29
249.135	-2.29
249.35	-2.97
249.566	-3.92
249.782	-4.11
249.997	-3.99
250.213	-5.03
250.428	-5.69
250.644	-6.09
250.859	-4.82
251.075	-6.13
251.29	-7.34
251.506	-6.73
251.721	-8.18
251.937	-7.22
252.152	-8.03
252.368	-7.58
252.583	-5.96
252.798	-5.28
253.014	-4.17
253.229	-2.68
253.445	-1.24
253.66	0.84
253.875	0.82
254.091	3.02
254.306	2.09
254.521	3.35
254.737	1.33
254.952	0.19
255.167	0.27
255.383	0.31
255.598	-1.55
255.813	-2.18
256.028	-1
256.244	-2.02
256.459	-2.9
256.674	-2.2
256.889	-3.37
257.104	-2.76
257.32	-2.8
257.535	-2.29
257.75	-3
257.965	-2.62
258.18	-2.68
258.395	-3.51
258.61	-3.25
258.826	-2.9
259.041	-3.38
259.256	-3.19
259.471	-3.4
259.686	-3.3
259.901	-3.58
260.116	-3.85
260.331	-4.44
260.546	-3.43
260.761	-2.95
260.976	-2.53
261.191	-2.08
261.406	-1.35
261.621	-0.73
261.836	-1.26
262.05	-1.44
262.265	-0.56
262.48	0.47
262.695	1.82
262.91	0.13
263.125	-0.8
263.34	-1.95
263.555	-2.17
263.769	-3.7
263.984	-4.16
264.199	-2.84
264.414	-3.82
264.629	-5.25
264.843	-5.04
265.058	-5.06
265.273	-5.18
265.488	-4.37
265.702	-4.41
265.917	-4.13
266.132	-3.86
266.346	-3.89
266.561	-4.4
266.776	-3.52
266.99	-3.75
267.205	-3.83
267.42	-4.44
267.634	-3.2
267.849	-3.43
268.063	-2.08
268.278	-2.05
268.492	-1.49
268.707	-0.78
268.922	-0.28
269.136	-0.63
269.351	-0.2
269.565	0.51
269.78	0.62
269.994	0.22
270.209	-0.11
270.423	-0.28
270.637	-0.79
270.852	-0.41
271.066	-1.03
271.281	-0.86
271.495	-0.85
271.709	-1.19
271.924	-1.96
272.138	-2.18
272.353	-2.15
272.567	-1.82
272.781	-1.95
272.996	-2.48
273.21	-3.6
273.424	-3.45
273.638	-2.81
273.853	-2.91
274.067	-3.12
274.281	-3.67
274.495	-3.52
274.71	-3.66
274.924	-3.62
275.138	-4.39
275.352	-3.66
275.566	-3.01
275.781	-3.56
275.995	-4.91
276.209	-4.64
276.423	-3
276.637	-2.5
276.851	-2.81
277.065	-3.34
277.279	-3.61
277.493	-4.11
277.707	-3.99
277.921	-4.73
278.135	-4.91
278.349	-4.32
278.563	-3.68
278.777	-4.89
278.991	-4.88
279.205	-5.31
279.419	-4.4
279.633	-3.87
279.847	-3.65
280.061	-2.94
280.275	-2.09
280.489	-1.19
280.703	-0.45
280.917	-0.44
281.131	0.01
281.344	0.67
281.558	1.28
281.772	0.62
281.986	0.55
282.2	0.88
282.414	-0.11
282.627	-0
282.841	-0.19
283.055	-1.43
283.269	-2.43
283.482	-2.94
283.696	-3.32
283.91	-3.11
284.123	-2.54
284.337	-2.81
284.551	-3.51
284.764	-3.62
284.978	-4.11
285.192	-3.93
285.405	-3.48
285.619	-3.21
285.833	-2.89
286.046	-3.05
286.26	-3.25
286.473	-4.56
286.687	-4.84
286.9	-4.11
287.114	-3.07
287.327	-2.75
287.541	-3
287.754	-3.04
287.968	-3.36
288.181	-3.06
288.395	-2.52
288.608	-3.18
288.822	-1.7
289.035	-1.32
289.248	-1.37
289.462	-2.7
289.675	-3.41
289.889	-3.49
290.102	-3.89
290.315	-3.88
290.529	-3.94
290.742	-4.43
290.955	-3.07
291.169	-4.24
291.382	-3.73
291.595	-3.58
291.808	-2.81
292.022	-2.5
292.235	-2.27
292.448	-2.13
292.661	-1.7
292.875	-2.42
293.088	-2.57
293.301	-3.72
293.514	-3.45
293.727	-3.87
293.94	-3.55
294.153	-3.9
294.367	-4.66
294.58	-5.46
294.793	-5.15
295.006	-5.26
295.219	-4.87
295.432	-4.98
295.645	-4.42
295.858	-4.55
296.071	-4.59
296.284	-5.1
296.497	-4.96
296.71	-4.42
296.923	-4.14
297.136	-4.56
297.349	-4.49
297.562	-4.73
297.775	-4.49
297.988	-4.83
298.201	-5.21
298.414	-5.2
298.626	-4.75
298.839	-4.36
299.052	-4.25
299.265	-4.19
299.478	-4.18
299.691	-4.42
299.903	-4.15
300.116	-5.15
300.329	-5.01
300.542	-4.46
300.755	-5.07
300.967	-5.34
301.18	-6.25
301.393	-6.05
301.605	-4.99
301.818	-4.99
302.031	-4.76
302.243	-5.34
302.456	-4.55
302.669	-4.72
302.881	-5.56
303.094	-5.28
303.307	-5.92
303.519	-5.78
303.732	-5.52
303.944	-6.84
304.157	-6.4
304.37	-6.84
304.582	-6.56
304.795	-6.72
305.007	-6.78
305.22	-6.29
305.432	-7
305.645	-6.3
305.857	-5.99
306.069	-6.67
306.282	-6.81
306.494	-7.1
306.707	-7.26
306.919	-7.67
307.132	-7.84
307.344	-7.54
307.556	-7.59
307.769	-7.16
307.981	-7.05
308.193	-7
308.406	-7.23
308.618	-6.47
308.83	-6.65
309.043	-5.64
309.255	-5.89
309.467	-5.93
309.679	-5.86
309.892	-5.17
310.104	-5.22
310.316	-6.03
310.528	-5.65
310.74	-5.46
310.953	-5.74
311.165	-4.79
311.377	-4.89
311.589	-4.05
311.801	-4.49
312.013	-5.48
312.225	-5.65
312.437	-5.15
312.649	-4.53
312.862	-5.13
313.074	-4.99
313.286	-5.43
313.498	-6.54
313.71	-6.45
313.922	-5.6
314.134	-4.64
314.346	-3.9
314.558	-3.73
314.77	-4.85
314.982	-4.79
315.193	-4.85
315.405	-3.97
315.617	-3.18
315.829	-3.52
316.041	-3.48
316.253	-4.05
316.465	-3.74
316.677	-2.35
316.888	-2.82
317.1	-1.41
317.312	-1.16
317.524	-0.22
317.736	-0.08
317.947	-0.49
318.159	1.04
318.371	0.58
318.583	0.99
318.794	0.87
319.006	-0.11
319.218	-0.37
319.43	-1.57
319.641	-1.92
319.853	-2.41
320.064	-2.4
320.276	-3.05
320.488	-5.7
320.699	-5.26
320.911	-6.51
321.123	-7.03
321.334	-6.79
321.546	-6.54
321.757	-5.11
321.969	-5.22
322.18	-4.88
322.392	-5.77
322.603	-4.28
322.815	-3.01
323.026	-3.17
323.238	-3.88
323.449	-2.95
323.661	-3.72
323.872	-3.49
324.083	-3.19
324.295	-2.43
324.506	-2.51
324.718	-2.57
324.929	-3.74
325.14	-3.66
325.352	-3.45
325.563	-3.12
325.774	-3.5
325.986	-3.03
326.197	-2.79
326.408	-2.27
326.62	-2.33
326.831	-2.72
327.042	-1.94
327.253	-1.6
327.464	-1.34
327.676	-1.03
327.887	0.41
328.098	0.03
328.309	0.31
328.52	0.45
328.732	-0.9
328.943	-0.93
329.154	-0.12
329.365	0.38
329.576	0.81
329.787	1.35
329.998	1.34
330.209	0.67
330.42	1.42
330.631	1.25
330.842	1.55
331.053	1.54
331.264	2.47
331.475	2.25
331.686	1.83
331.897	2.2
332.108	3.06
332.319	2.93
332.53	2.95
332.741	3.06
332.952	3.8
333.163	3.19
333.374	3.37
333.585	2.76
333.795	2.96
334.006	1.89
334.217	1.76
334.428	0.15
334.639	-0.2
334.849	0.43
335.06	1.02
335.271	0.35
335.482	0.32
335.692	0.64
335.903	0.86
336.114	0.97
336.325	2.17
336.535	1.96
336.746	2.66
336.957	3.41
337.167	3.29
337.378	2.62
337.589	3.45
337.799	3.95
338.01	4.62
338.22	5.41
338.431	5.83
338.642	6.25
338.852	7.16
339.063	7.9
339.273	7.74
339.484	7.76
339.694	8.54
339.905	9.45
340.115	9.61
340.326	9.29
340.536	8.91
340.746	8.88
340.957	9
341.167	8.58
341.378	8.42
341.588	8.38
341.799	8.54
342.009	8.83
342.219	7.83
342.43	7.83
342.64	7.82
342.85	7.86
343.061	7.84
343.271	7.91
343.481	8.69
343.691	8.56
343.902	9.35
344.112	9.08
344.322	8.6
344.532	8.8
344.743	9.02
344.953	9.41
345.163	9.8
345.373	10.23
345.583	10.95
345.793	10.71
346.004	11.57
346.214	11.52
346.424	12.65
346.634	13.45
346.844	13.55
347.054	13.68
347.264	14.48
347.474	14.62
347.684	14.93
347.894	14.99
348.104	15.02
348.314	14.67
348.524	14.39
348.734	14.89
348.944	15.03
349.154	15.77
349.364	16.97
349.574	16.37
349.784	16.93
349.994	16.67
350.204	16.28
350.413	16.5
350.623	17.04
350.833	17.95
351.043	18.11
351.253	18.13
351.463	18.6
351.672	18.07
351.882	19.27
352.092	19.78
352.302	20.31
352.511	20.6
352.721	20.82
352.931	19.77
353.141	19.76
353.35	19.71
353.56	19.95
353.77	18.99
353.979	18.9
354.189	18.23
354.399	17.03
354.608	16.93
354.818	16.02
355.027	15.39
355.237	15.63
355.447	14.79
355.656	14
355.866	13.07
356.075	13.33
356.285	13.39
356.494	12.8
356.704	13.3
356.913	13.01
357.123	13.47
357.332	14.45
357.542	15.08
357.751	15.78
357.96	15.65
358.17	16.23
358.379	16.32
358.589	15.95
358.798	16.23
359.007	15.64
359.217	15.33
359.426	15.35
359.635	14.78
359.845	14.81
360.054	14.26
360.263	14.56
360.472	14.56
360.682	14.37
360.891	14.69
361.1	15.07
361.309	15.93
361.519	16.77
361.728	17.86
361.937	18.43
362.146	18.77
362.355	20.18
362.564	21.52
362.774	22.2
362.983	23.25
363.192	24.3
363.401	24.77
363.61	25.19
363.819	25.82
364.028	25.97
364.237	26.62
364.446	27.32
364.655	27.32
364.864	27.74
365.073	28.25
365.282	28.3
365.491	29.02
365.7	29.21
365.909	29.55
366.118	29.5
366.327	29.59
366.536	30.01
366.745	29.81
366.954	30.45
367.162	29.97
367.371	30.2
367.58	30.56
367.789	30.15
367.998	30.92
368.207	31.11
368.415	30.93
368.624	30.48
368.833	29.99
369.042	29.58
369.25	28.45
369.459	28.31
369.668	27.48
369.877	27.2
370.085	26.35
370.294	25.59
370.503	24.76
370.711	24.67
370.92	24.41
371.129	23.87
371.337	23.79
371.546	23.69
371.754	23.42
371.963	23.16
372.171	23.07
372.38	23.07
372.589	23.17
372.797	23.5
373.006	23.5
373.214	23.85
373.423	24.25
373.631	24.02
373.84	24.49
374.048	24.88
374.256	25.23
374.465	25.19
374.673	25.5
374.882	25.08
375.09	24.98
375.298	25.21
375.507	25.09
375.715	25.05
375.923	25.27
376.132	24.94
376.34	24.32
376.548	24.45
376.757	24.23
376.965	24.36
377.173	24.59
377.381	24.82
377.59	24.33
377.798	24.27
378.006	24.24
378.214	24.35
378.423	24.22
378.631	24.2
378.839	23.99
379.047	23.51
379.255	22.95
379.463	22.39
379.671	21.68
379.879	21.5
380.088	20.93
380.296	20.07
380.504	19.33
380.712	18.79
380.92	18.33
381.128	17.57
381.336	17.03
381.544	17.06
381.752	16.43
381.96	16.14
382.168	15.74
382.376	15.55
382.584	15.65
382.791	15.72
382.999	15.86
383.207	16.18
383.415	16.22
383.623	16.68
383.831	16.23
384.039	16.43
384.247	16.48
384.454	16.64
384.662	16.62
384.87	16.75
385.078	16.45
385.285	16.63
385.493	16.62
385.701	16.62
385.909	16.53
386.116	16.6
386.324	16.99
386.532	16.97
386.739	17.05
386.947	17.39
387.155	17.55
387.362	18.06
387.57	18.24
387.778	18.26
387.985	18.34
388.193	18.3
388.4	18.45
388.608	18.15
388.816	18.16
389.023	17.63
389.231	17.24
389.438	16.65
389.646	16.08
389.853	15.54
390.061	14.93
390.268	14.39
390.475	13.96
390.683	13.45
390.89	12.99
391.098	12.38
391.305	12.18
391.512	11.9
391.72	11.74
391.927	11.61
392.135	11.36
392.342	11.45
392.549	11.74
392.756	11.97
392.964	12.01
393.171	12.43
393.378	12.75
393.586	13.18
393.793	13.34
394	13.58
394.207	13.69
394.414	13.7
394.622	13.67
394.829	14
395.036	14.07
395.243	14.56
395.45	14.8
395.657	15.4
395.864	15.77
396.072	16.27
396.279	16.94
396.486	17.94
396.693	18.89
396.9	19.51
397.107	19.89
397.314	20.51
397.521	21.22
397.728	21.88
397.935	22.45
398.142	23.04
398.349	23.56
398.556	23.86
398.763	23.83
398.97	24.22
399.177	24.66
399.383	25.24
399.59	25.44
399.797	25.2
400.004	25.27
400.211	25.07
400.418	24.96
400.625	24.93
400.831	25.05
401.038	24.89
401.245	24.58
401.452	24.05
401.658	23.31
401.865	23.01
402.072	22.77
402.279	22.43
402.485	22.15
402.692	21.74
402.899	21.44
403.105	20.96
403.312	20.73
403.519	20.54
403.725	20.59
403.932	20.61
404.138	20.51
404.345	20.5
404.552	20.53
404.758	20.52
404.965	20.68
405.171	20.98
405.378	21.3
405.584	21.53
405.791	21.88
405.997	22.29
406.204	22.67
406.41	23.09
406.617	23.53
406.823	23.69
407.029	23.81
407.236	23.79
407.442	23.66
407.649	23.51
407.855	23.29
408.061	23.09
408.268	22.82
408.474	22.75
408.68	22.65
408.887	22.67
409.093	22.57
409.299	22.65
409.505	22.77
409.712	22.94
409.918	23.16
410.124	23.45
410.33	23.84
410.537	24.32
410.743	24.46
410.949	24.67
411.155	24.64
411.361	24.92
411.567	25.29
411.773	25.43
411.98	25.3
412.186	25.3
412.392	25.23
412.598	24.8
412.804	24.57
413.01	24.27
413.216	23.94
413.422	23.6
413.628	23.01
413.834	22.4
414.04	21.86
414.246	21.4
414.452	20.94
414.658	20.66
414.864	20.07
415.07	19.35
415.275	18.64
415.481	18
415.687	17.3
415.893	16.77
416.099	16.19
416.305	15.78
416.511	15.28
416.716	14.72
416.922	14.07
417.128	13.82
417.334	13.37
417.539	13.1
417.745	12.7
417.951	12.42
418.157	12.08
418.362	11.8
418.568	11.44
418.774	11.17
418.979	10.89
419.185	10.63
419.391	10.32
419.596	10.21
419.802	10.15
420.008	10.04
420.213	9.24
420.419	9.25
420.624	9.15
420.83	9.16
421.035	9.14
421.241	9.08
421.446	9.11
421.652	9.17
421.857	9.06
422.063	8.92
422.268	8.96
422.474	9.59
422.679	9.51
422.885	9.56
423.09	9.54
423.295	9.55
423.501	9.57
423.706	9.7
423.911	9.82
424.117	10.11
424.322	10.36
424.527	10.58
424.733	11.01
424.938	11.43
425.143	11.78
425.349	12.08
425.554	12.51
425.759	13.02
425.964	13.37
426.169	13.68
426.375	13.92
426.58	14.19
426.785	14.38
426.99	14.36
427.195	14.37
427.4	14.37
427.605	14.38
427.811	14.36
428.016	14.2
428.221	14.15
428.426	14.02
428.631	14.03
428.836	13.97
429.041	13.91
429.246	13.89
429.451	14.02
429.656	14.1
429.861	14.28
430.066	14.38
430.271	14.48
430.476	14.4
430.681	14.39
430.886	14.37
431.09	14.2
431.295	14.12
431.5	14.07
431.705	13.83
431.91	13.7
432.115	13.56
432.32	13.42
432.524	13.4
432.729	13.51
432.934	13.6
433.139	13.73
433.343	14.03
433.548	14.27
433.753	14.49
433.958	14.65
434.162	14.99
434.367	15.3
434.572	15.57
434.776	15.85
434.981	15.89
435.186	15.94
435.39	15.82
435.595	15.63
435.799	15.45
436.004	15.28
436.209	15.17
436.413	14.84
436.618	14.43
436.822	14.17
437.027	13.72
437.231	13.42
437.436	13.08
437.64	12.83
437.845	12.67
438.049	12.44
438.253	12.2
438.458	12.04
438.662	11.84
438.867	11.77
439.071	11.6
439.275	11.6
439.48	11.63
439.684	11.67
439.888	11.79
440.093	11.89
440.297	12.08
440.501	12.38
440.706	12.61
440.91	12.99
441.114	13.25
441.318	13.51
441.523	13.81
441.727	14.09
441.931	14.32
442.135	14.4
442.339	14.42
442.543	14.24
442.748	13.94
442.952	13.64
443.156	13.18
443.36	12.78
443.564	12.42
443.768	11.95
443.972	11.48
444.176	11.07
444.38	10.73
444.584	10.47
444.788	10.28
444.992	10.22
445.196	10.14
445.4	10.16
445.604	10.2
445.808	10.26
446.012	10.44
446.216	10.63
446.42	11.01
446.624	11.33
446.828	11.67
447.032	12.1
447.235	12.52
447.439	13.04
447.643	13.51
447.847	14.06
448.051	14.61
448.254	15.03
448.458	15.59
448.662	15.95
448.866	16.3
449.069	16.53
449.273	16.76
449.477	16.78
449.681	16.85
449.884	16.85
450.088	16.82
450.292	16.74
450.495	16.66
450.699	16.5
450.902	16.3
451.106	16.15
451.31	16.06
451.513	15.98
451.717	15.91
451.92	15.83
452.124	15.91
452.327	15.94
452.531	16.08
452.734	16.16
452.938	16.11
453.141	16.34
453.345	16.46
453.548	16.65
453.752	16.85
453.955	17.08
454.158	17.28
454.362	17.48
454.565	17.54
454.769	17.62
454.972	17.72
455.175	17.85
455.379	17.81
455.582	17.83
455.785	17.68
455.988	17.49
456.192	17.25
456.395	16.75
456.598	16.12
456.801	15.64
457.005	14.99
457.208	14.42
457.411	13.88
457.614	13.27
457.817	12.73
458.021	12.36
458.224	12.03
458.427	11.71
458.63	11.63
458.833	11.63
459.036	11.62
459.239	11.8
459.442	12.07
459.645	12.4
459.848	12.87
460.051	13.42
460.254	14.02
460.457	14.65
460.66	15.37
460.863	16.02
461.066	16.61
461.269	17.2
461.472	17.71
461.675	18.07
461.878	18.47
462.081	18.76
462.284	18.91
462.486	19.05
462.689	19.08
462.892	19.15
463.095	19.27
463.298	19.28
463.5	19.32
463.703	19.44
463.906	19.46
464.109	19.47
464.311	19.51
464.514	19.38
464.717	19.36
464.92	19.34
465.122	19.31
465.325	19.2
465.528	19.16
465.73	19.2
465.933	19.16
466.135	19.19
466.338	19.19
466.541	19.26
466.743	19.49
466.946	19.65
467.148	19.83
467.351	19.93
467.553	20.07
467.756	20.39
467.958	20.57
468.161	20.74
468.363	20.93
468.566	21.17
468.768	21.31
468.971	21.45
469.173	21.55
469.375	21.66
469.578	21.94
469.78	22.14
469.983	22.12
470.185	22.16
470.387	22.32
470.59	22.39
470.792	22.33
470.994	22.4
471.196	22.4
471.399	22.59
471.601	22.69
471.803	22.74
472.005	22.88
472.208	23.16
472.41	23.43
472.612	23.54
472.814	23.75
473.016	24.15
473.218	24.4
473.421	24.64
473.623	24.69
473.825	24.66
474.027	24.74
474.229	24.8
474.431	24.67
474.633	24.57
474.835	24.53
475.037	24.39
475.239	24.25
475.441	24.13
475.643	24.05
475.845	23.76
476.047	23.8
476.249	23.75
476.451	23.7
476.653	23.69
476.855	23.71
477.057	23.8
477.258	23.94
477.46	23.97
477.662	23.98
477.864	24.01
478.066	24.28
478.268	24.35
478.469	24.2
478.671	24.16
478.873	24.09
479.075	23.88
479.276	23.54
479.478	23.11
479.68	22.58
479.882	21.94
480.083	21.09
480.285	20.05
480.487	18.82
480.688	17.55
480.89	16.15
481.091	14.67
481.293	13.38
481.495	12.15
481.696	11.08
481.898	10.13
482.099	9.37
482.301	8.75
482.502	8.28
482.704	7.95
482.905	7.75
483.107	7.65
483.308	7.7
483.51	7.82
483.711	8.05
483.913	8.34
484.114	8.76
484.315	9.14
484.517	9.56
484.718	9.94
484.92	10.26
485.121	10.52
485.322	10.7
485.524	10.77
485.725	10.74
485.926	10.68
486.127	10.64
486.329	10.61
486.53	10.72
486.731	10.87
486.932	11.16
487.134	11.5
487.335	11.94
487.536	12.5
487.737	13.12
487.938	13.84
488.139	14.64
488.341	15.34
488.542	16
488.743	16.48
488.944	16.76
489.145	16.74
489.346	16.64
489.547	16.42
489.748	16.08
489.949	15.76
490.15	15.49
490.351	15.21
490.552	15.17
490.753	15.27
490.954	15.49
491.155	15.97
491.356	16.69
491.557	17.58
491.758	18.62
491.959	19.87
492.159	21.31
492.36	22.88
492.561	24.57
492.762	26.33
492.963	27.88
493.164	29.31
493.364	30.51
493.565	31.41
493.766	32.06
493.967	32.46
494.167	32.59
494.368	32.57
494.569	32.27
494.769	32.05
494.97	31.5
495.171	31.21
495.371	30.9
495.572	30.6
495.773	30.45
495.973	30.35
496.174	30.28
496.375	30.41
496.575	30.48
496.776	30.76
496.976	31.07
497.177	31.58
497.377	31.93
497.578	32.35
497.778	32.79
497.979	33.29
498.179	33.81
498.38	34.36
498.58	34.79
498.78	35.45
498.981	35.86
499.181	36.33
499.382	36.73
499.582	37.27
499.782	37.79
499.983	38.24
500.183	38.49
500.383	38.67
500.584	38.85
500.784	39.07
500.984	38.99
501.184	38.97
501.385	38.88
501.585	38.73
501.785	38.44
501.985	38.2
502.185	38.03
502.386	37.96
502.586	37.88
502.786	37.93
502.986	37.87
503.186	38.05
503.386	38.28
503.586	38.55
503.786	38.92
503.987	39.43
504.187	39.77
504.387	40.05
504.587	40.36
504.787	40.6
504.987	40.64
505.187	40.65
505.387	40.59
505.587	40.5
505.786	40.28
505.986	39.95
506.186	39.48
506.386	39.11
506.586	38.83
506.786	38.54
506.986	38.11
507.186	37.86
507.386	37.66
507.585	37.48
507.785	37.38
507.985	37.4
508.185	37.43
508.384	37.47
508.584	37.67
508.784	37.8
508.984	37.83
509.183	38.14
509.383	38.29
509.583	38.62
509.782	38.78
509.982	38.97
510.182	39.01
510.381	39.17
510.581	39.36
510.781	39.5
510.98	39.6
511.18	39.78
511.379	39.98
511.579	40.26
511.778	40.5
511.978	40.88
512.177	41.27
512.377	41.79
512.576	42.18
512.776	42.65
512.975	43.06
513.175	43.5
513.374	43.84
513.573	44.03
513.773	44.17
513.972	44.16
514.172	43.95
514.371	43.61
514.57	43.14
514.77	42.53
514.969	41.67
515.168	40.63
515.367	39.59
515.567	38.51
515.766	37.34
515.965	36.19
516.164	35.03
516.364	34
516.563	33.1
516.762	32.32
516.961	31.75
517.16	31.42
517.359	31.17
517.559	31.14
517.758	31.25
517.957	31.59
518.156	32.09
518.355	32.75
518.554	33.56
518.753	34.33
518.952	35.31
519.151	36.33
519.35	37.3
519.549	38.38
519.748	39.36
519.947	40.25
520.146	41.12
520.345	41.78
520.544	42.43
520.743	42.89
520.942	43.37
521.141	43.61
521.339	43.74
521.538	43.88
521.737	43.87
521.936	43.62
522.135	43.41
522.333	42.79
522.532	42.07
522.731	41.04
522.93	40.08
523.129	38.97
523.327	37.81
523.526	36.49
523.725	35.05
523.923	33.71
524.122	32.51
524.321	31.24
524.519	30.21
524.718	29.3
524.917	28.4
525.115	27.39
525.314	26.38
525.512	25.26
525.711	24.13
525.909	22.99
526.108	21.77
526.306	20.63
526.505	19.56
526.703	18.59
526.902	17.72
527.1	17.01
527.299	16.5
527.497	16.13
527.696	15.97
527.894	16
528.092	16.27
528.291	16.76
528.489	17.39
528.688	18.23
528.886	19.19
529.084	20.3
529.283	21.54
529.481	22.74
529.679	23.93
529.877	24.98
530.076	25.79
530.274	26.22
530.472	26.25
530.67	26.06
530.869	25.64
531.067	25.03
531.265	24.31
531.463	23.59
531.661	23
531.859	22.64
532.057	22.31
532.255	22.15
532.454	22.21
532.652	22.49
532.85	22.96
533.048	23.58
533.246	24.35
533.444	25.27
533.642	26.26
533.84	27.13
534.038	27.8
534.236	28.43
534.434	28.96
534.632	29.22
534.83	29.37
535.027	29.31
535.225	29.27
535.423	29.25
535.621	29.23
535.819	29.29
536.017	29.6
536.215	30.05
536.412	30.7
536.61	31.29
536.808	32.02
537.006	32.77
537.203	33.45
537.401	33.91
537.599	34.23
537.797	34.15
537.994	33.72
538.192	32.71
538.39	31.36
538.587	29.73
538.785	28.02
538.983	26.31
539.18	24.67
539.378	23.14
539.575	21.85
539.773	20.66
539.97	19.76
540.168	19.07
540.366	18.67
540.563	18.44
540.761	18.43
540.958	18.57
541.155	18.89
541.353	19.34
541.55	19.94
541.748	20.62
541.945	21.48
542.143	22.45
542.34	23.42
542.537	24.45
542.735	25.47
542.932	26.41
543.129	27.39
543.327	28.27
543.524	29
543.721	29.57
543.919	30.06
544.116	30.29
544.313	30.43
544.51	30.52
544.708	30.47
544.905	30.46
545.102	30.34
545.299	30.24
545.496	30.25
545.693	30.46
545.891	30.75
546.088	31.15
546.285	31.77
546.482	32.5
546.679	33.43
546.876	34.42
547.073	35.55
547.27	36.88
547.467	38.21
547.664	39.49
547.861	40.62
548.058	41.89
548.255	42.98
548.452	44.05
548.649	44.87
548.846	45.35
549.043	45.79
549.24	46.06
549.437	46.19
549.633	46.16
549.83	45.96
550.027	45.59
550.224	45.06
550.421	44.51
550.618	43.78
550.814	43.21
551.011	42.68
551.208	42.19
551.405	41.71
551.601	41.27
551.798	40.92
551.995	40.88
552.191	40.98
552.388	41.27
552.585	41.68
552.781	42.17
552.978	42.6
553.175	43.25
553.371	43.93
553.568	44.66
553.764	45.27
553.961	45.9
554.157	46.34
554.354	46.8
554.55	47.02
554.747	47.06
554.943	47.18
555.14	47.39
555.336	47.37
555.533	47.28
555.729	47.12
555.926	47.12
556.122	47
556.318	46.83
556.515	46.68
556.711	46.59
556.907	46.48
557.104	46.42
557.3	46.17
557.496	46.04
557.693	45.97
557.889	45.76
558.085	45.49
558.281	45.42
558.478	45.35
558.674	45.09
558.87	44.74
559.066	44.6
559.262	44.28
559.459	43.97
559.655	43.67
559.851	43.45
560.047	43.28
560.243	43.15
560.439	43.01
560.635	42.88
560.831	42.86
561.027	42.88
561.223	43.01
561.419	43.09
561.615	43.2
561.811	43.35
562.007	43.25
562.203	43.29
562.399	43.22
562.595	42.92
562.791	42.37
562.987	41.79
563.183	41.12
563.379	40.2
563.575	39.28
563.771	38.38
563.966	37.29
564.162	36.35
564.358	35.3
564.554	34.41
564.75	33.65
564.945	33.14
565.141	32.67
565.337	32.31
565.533	32.02
565.728	31.89
565.924	31.77
566.12	31.89
566.315	31.96
566.511	32.19
566.707	32.34
566.902	32.45
567.098	32.54
567.293	32.65
567.489	32.77
567.684	32.84
567.88	32.91
568.076	32.75
568.271	32.59
568.467	32.33
568.662	31.95
568.858	31.4
569.053	30.98
569.248	30.57
569.444	30.06
569.639	29.51
569.835	28.95
570.03	28.31
570.225	27.96
570.421	27.53
570.616	27.19
570.812	26.92
571.007	26.87
571.202	26.77
571.397	26.75
571.593	26.67
571.788	26.77
571.983	26.95
572.178	27.06
572.374	27.14
572.569	27.19
572.764	27.19
572.959	27.25
573.154	27.25
573.35	27.29
573.545	27.23
573.74	27.21
573.935	27.2
574.13	27.13
574.325	27.22
574.52	27.39
574.715	27.63
574.91	27.91
575.105	28.19
575.3	28.48
575.495	28.93
575.69	29.32
575.885	29.81
576.08	30.19
576.275	30.79
576.47	31.33
576.665	31.79
576.86	32.18
577.055	32.86
577.25	33.34
577.444	33.97
577.639	34.27
577.834	34.77
578.029	35.34
578.224	35.81
578.418	36.09
578.613	36.45
578.808	36.78
579.003	37.05
579.197	37.15
579.392	37.38
579.587	37.51
579.781	37.7
579.976	37.88
580.171	37.91
580.365	38.04
580.56	38.1
580.755	38.14
580.949	38.21
581.144	38.39
581.338	38.51
581.533	38.56
581.727	38.48
581.922	38.6
582.116	38.64
582.311	38.71
582.505	38.64
582.7	38.71
582.894	38.76
583.089	38.7
583.283	38.6
583.478	38.38
583.672	38.22
583.866	38.12
584.061	37.86
584.255	37.54
584.449	37.25
584.644	36.99
584.838	36.59
585.032	36.15
585.226	35.54
585.421	34.92
585.615	34.16
585.809	33.41
586.003	32.57
586.198	31.59
586.392	30.65
586.586	29.62
586.78	28.57
586.974	27.67
587.168	26.74
587.363	25.8
587.557	24.9
587.751	24.4
587.945	23.75
588.139	23.24
588.333	23.03
588.527	22.76
588.721	22.73
588.915	22.7
589.109	22.69
589.303	22.61
589.497	22.88
589.691	23.22
589.885	23.35
590.079	23.69
590.273	24.04
590.466	24.24
590.66	24.41
590.854	24.63
591.048	24.82
591.242	24.98
591.436	25.14
591.629	24.99
591.823	24.91
592.017	24.74
592.211	24.57
592.404	24.32
592.598	24.1
592.792	23.87
592.986	23.47
593.179	23.25
593.373	22.96
593.567	22.7
593.76	22.41
593.954	22.11
594.147	21.8
594.341	21.41
594.535	20.96
594.728	20.43
594.922	20.07
595.115	19.73
595.309	19.33
595.502	19.05
595.696	18.96
595.889	19
596.083	18.94
596.276	19.06
596.47	19.34
596.663	19.82
596.856	20.37
597.05	20.92
597.243	21.55
597.437	22.29
597.63	23
597.823	23.59
598.017	24.32
598.21	25.09
598.403	25.8
598.596	26.28
598.79	26.64
598.983	26.97
599.176	27.17
599.369	27.51
599.563	27.65
599.756	27.67
599.949	27.56
600.142	27.28
600.335	27.07
600.528	26.81
600.722	26.42
600.915	26.11
601.108	25.61
601.301	25.22
601.494	24.46
601.687	23.82
601.88	23.17
602.073	22.61
602.266	22
602.459	21.31
602.652	20.73
602.845	20.34
603.038	19.87
603.231	19.68
603.424	19.45
603.617	19.39
603.809	19.39
604.002	19.49
604.195	19.72
604.388	20.11
604.581	20.64
604.774	21.19
604.966	21.82
605.159	22.42
605.352	23.03
605.545	23.52
605.737	24.03
605.93	24.43
606.123	24.8
606.316	24.92
606.508	24.79
606.701	24.51
606.894	24.15
607.086	23.6
607.279	23.13
607.471	22.58
607.664	22.13
607.857	21.61
608.049	21.11
608.242	20.76
608.434	20.53
608.627	20.45
608.819	20.44
609.012	20.41
609.204	20.55
609.397	20.87
609.589	21.12
609.782	21.55
609.974	21.97
610.166	22.46
610.359	22.94
610.551	23.46
610.743	24.01
610.936	24.43
611.128	24.97
611.32	25.33
611.513	25.64
611.705	26.08
611.897	26.37
612.09	26.67
612.282	27.08
612.474	27.27
612.666	27.52
612.858	27.54
613.051	27.7
613.243	27.86
613.435	28.01
613.627	27.82
613.819	27.84
614.011	27.74
614.203	27.79
614.395	27.53
614.588	27.52
614.78	27.21
614.972	27.27
615.164	27.26
615.356	27.2
615.548	27.21
615.74	27.27
615.932	27.14
616.124	27.14
616.315	27.07
616.507	27.16
616.699	27.04
616.891	27.07
617.083	27.08
617.275	26.9
617.467	26.85
617.659	26.91
617.85	27.2
618.042	27.22
618.234	27.19
618.426	27.07
618.618	26.97
618.809	27.05
619.001	27.08
619.193	26.99
619.384	27.17
619.576	27.11
619.768	26.85
619.959	26.59
620.151	26.54
620.343	26.51
620.534	26.39
620.726	26.41
620.917	26.49
621.109	26.41
621.301	26.32
621.492	26.14
621.684	26.07
621.875	25.96
622.067	25.88
622.258	25.68
622.45	25.48
622.641	25.36
622.832	25.01
623.024	24.56
623.215	24.28
623.407	23.89
623.598	23.45
623.789	22.97
623.981	22.63
624.172	22.05
624.363	21.49
624.555	20.85
624.746	20.25
624.937	19.81
625.129	19.1
625.32	18.59
625.511	18.25
625.702	17.9
625.893	17.7
626.085	17.43
626.276	17.26
626.467	17.25
626.658	17.37
626.849	17.51
627.04	17.68
627.231	18.04
627.422	18.24
627.614	18.38
627.805	18.75
627.996	18.97
628.187	19.25
628.378	19.44
628.569	19.57
628.76	19.85
628.951	20.24
629.142	20.3
629.332	20.46
629.523	20.73
629.714	20.95
629.905	21.11
630.096	21.21
630.287	21.18
630.478	21.29
630.669	21.47
630.859	21.42
631.05	21.27
631.241	21.48
631.432	21.44
631.623	21.47
631.813	21.33
632.004	21.05
632.195	20.94
632.385	20.74
632.576	20.62
632.767	20.51
632.957	20.56
633.148	20.54
633.339	20.5
633.529	20.67
633.72	20.69
633.91	20.89
634.101	21.08
634.292	21.08
634.482	21.52
634.673	21.88
634.863	22.09
635.054	22.21
635.244	22.31
635.435	22.5
635.625	22.51
635.815	22.61
636.006	22.8
636.196	23.05
636.387	23.23
636.577	23.27
636.767	23.24
636.958	23.37
637.148	23.47
637.338	23.8
637.529	23.84
637.719	24.09
637.909	24.12
638.099	24.07
638.29	24.25
638.48	24.54
638.67	24.43
638.86	24.63
639.05	24.76
639.241	24.89
639.431	24.64
639.621	24.81
639.811	24.73
640.001	24.78
640.191	25.13
640.381	24.93
640.571	24.92
640.761	25.29
640.951	25.34
641.141	25.28
641.331	25.22
641.521	25.55
641.711	25.33
641.901	25.44
642.091	25.45
642.281	25.05
642.471	25.08
642.661	24.87
642.851	24.73
643.041	24.58
643.231	24.29
643.42	24.12
643.61	23.47
643.8	23.36
643.99	23.11
644.18	22.7
644.369	22.36
644.559	22.04
644.749	21.75
644.939	21.16
645.128	20.72
645.318	20.53
645.508	20.36
645.697	20.18
645.887	19.96
646.076	19.66
646.266	19.57
646.456	19.53
646.645	19.36
646.835	19.16
647.024	19.32
647.214	19.41
647.403	19.32
647.593	19.29
647.782	19.41
647.972	19.19
648.161	19.23
648.351	19.13
648.54	19.06
648.73	19.1
648.919	19.33
649.108	19.18
649.298	19.09
649.487	19.15
649.677	18.88
649.866	18.89
650.055	18.72
650.244	18.56
650.434	18.53
650.623	18.66
650.812	18.66
651.002	18.55
651.191	18.67
651.38	18.8
651.569	18.76
651.758	19.04
651.947	18.84
652.137	19.41
652.326	19.53
652.515	19.74
652.704	19.69
652.893	19.66
653.082	19.51
653.271	19.44
653.46	18.97
653.649	18.69
653.838	18.54
654.027	18.63
654.216	18.26
654.405	17.96
654.594	17.89
654.783	17.85
654.972	17.77
655.161	17.68
655.35	17.7
655.539	18.2
655.728	18.34
655.916	18.31
656.105	18.23
656.294	18.01
656.483	17.82
656.672	17.49
656.86	17.16
657.049	16.86
657.238	16.82
657.427	16.4
657.615	15.87
657.804	15.66
657.993	15.43
658.181	15.34
658.37	15.4
658.559	15.46
658.747	15.5
658.936	15.77
659.125	16.15
659.313	16.34
659.502	16.78
659.69	17.04
659.879	17.59
660.067	18.23
660.256	18.65
660.444	19.14
660.633	19.78
660.821	20.42
661.01	20.72
661.198	21.01
661.387	21.54
661.575	21.66
661.763	22.18
661.952	22.56
662.14	22.69
662.328	22.91
662.517	23.01
662.705	23.05
662.893	23.26
663.082	23.45
663.27	23.42
663.458	23.42
663.646	23.73
663.834	23.76
664.023	23.58
664.211	23.45
664.399	23.71
664.587	23.74
664.775	23.81
664.963	23.62
665.152	23.76
665.34	23.86
665.528	23.71
665.716	23.49
665.904	23.71
666.092	23.73
666.28	23.89
666.468	23.67
666.656	23.71
666.844	23.5
667.032	23.55
667.22	23.35
667.408	23.26
667.596	23.3
667.784	23.38
667.971	23.27
668.159	23.16
668.347	23.15
668.535	23.09
668.723	23.27
668.911	23.26
669.098	22.94
669.286	23.04
669.474	22.98
669.662	23.3
669.849	23.37
670.037	23.23
670.225	23.28
670.413	23.23
670.6	23.44
670.788	23.36
670.976	23.69
671.163	24.2
671.351	24.15
671.538	24.59
671.726	24.4
671.913	24.23
672.101	24.25
672.289	24.4
672.476	24.43
672.664	24.29
672.851	23.93
673.039	23.92
673.226	23.63
673.413	23.99
673.601	23.81
673.788	23.75
673.976	23.94
674.163	24.07
674.35	24.07
674.538	23.96
674.725	24.04
674.912	24.39
675.1	24.32
675.287	24.36
675.474	24.01
675.662	23.9
675.849	23.84
676.036	23.74
676.223	23.75
676.411	23.56
676.598	23.34
676.785	23.17
676.972	22.88
677.159	22.54
677.346	22.11
677.533	21.91
677.721	21.28
677.908	20.81
678.095	20.44
678.282	19.83
678.469	19.46
678.656	19.32
678.843	18.93
679.03	18.65
679.217	18.49
679.404	18.47
679.591	18.43
679.778	18.52
679.964	18.45
680.151	18.51
680.338	18.75
680.525	18.98
680.712	19.39
680.899	19.63
681.086	19.9
681.272	19.98
681.459	20.13
681.646	20.1
681.833	20.51
682.02	20.64
682.206	20.89
682.393	21.24
682.58	21.42
682.766	21.38
682.953	21.75
683.14	22.13
683.326	22.4
683.513	22.53
683.7	22.47
683.886	22.22
684.073	22.11
684.259	21.83
684.446	21.3
684.632	20.76
684.819	20.14
685.005	19.43
685.192	18.42
685.378	17.97
685.565	17.52
685.751	17.24
685.938	16.7
686.124	16.29
686.31	15.88
686.497	15.47
686.683	15.31
686.87	15.32
687.056	15.29
687.242	15.24
687.429	15.03
687.615	14.95
687.801	15.05
687.987	15.17
688.174	15.7
688.36	16.12
688.546	16.55
688.732	16.69
688.918	16.96
689.105	17.08
689.291	17.34
689.477	17.76
689.663	17.85
689.849	17.72
690.035	17.85
690.221	17.85
690.407	17.72
690.593	17.59
690.779	17.64
690.965	17.56
691.151	17.57
691.337	17.65
691.523	17.64
691.709	17.68
691.895	17.72
692.081	17.72
692.267	17.81
692.453	17.66
692.639	17.89
692.825	17.81
693.011	17.7
693.196	17.57
693.382	17.68
693.568	17.29
693.754	17.44
693.94	17.62
694.125	17.81
694.311	17.59
694.497	17.84
694.682	17.88
694.868	18.19
695.054	17.99
695.239	18.21
695.425	17.85
695.611	17.68
695.796	17.43
695.982	17
696.168	16.37
696.353	15.82
696.539	15.06
696.724	14.42
696.91	13.52
697.095	13.01
697.281	12.18
697.466	11.69
697.652	11.43
697.837	10.96
698.023	10.66
698.208	10.51
698.393	10.41
698.579	10.47
698.764	10.36
698.949	10.6
699.135	11
699.32	11.51
699.505	12.05
699.691	12.49
699.876	13.15
700.061	13.63
700.246	14.23
700.432	14.82
700.617	15.43
700.802	16.22
700.987	16.58
701.172	16.54
701.358	17.03
701.543	17.55
701.728	18.1
701.913	18.26
702.098	18.85
702.283	19.16
702.468	19.49
702.653	19.78
702.838	20.08
703.023	20.46
703.208	21.05
703.393	21.33
703.578	21.02
703.763	20.92
703.948	20.96
704.133	20.5
704.318	20.33
704.503	20.3
704.688	20.02
704.873	19.88
705.057	20.1
705.242	20.11
705.427	20.15
705.612	20.56
705.797	20.79
705.981	21.21
706.166	21.88
706.351	22.15
706.536	22.35
706.72	22.68
706.905	22.61
707.09	22.5
707.274	22.54
707.459	22.43
707.644	22.49
707.828	22.35
708.013	22.24
708.197	22.24
708.382	22.16
708.567	21.86
708.751	21.66
708.936	21.85
709.12	21.93
709.305	22.01
709.489	21.95
709.673	22.13
709.858	21.82
710.042	21.67
710.227	21.26
710.411	21.29
710.596	21.39
710.78	21.69
710.964	21.44
711.149	21.46
711.333	21.24
711.517	21.12
711.702	21.09
711.886	21.25
712.07	20.94
712.254	20.95
712.438	20.73
712.623	20.52
712.807	19.72
712.991	19.56
713.175	19.17
713.359	19.01
713.544	18.88
713.728	17.85
713.912	17.19
714.096	16.51
714.28	15.86
714.464	15.31
714.648	14.75
714.832	14.26
715.016	13.95
715.2	13.38
715.384	12.56
715.568	11.98
715.752	11.81
715.936	11.59
716.12	11.5
716.304	11.05
716.488	10.8
716.671	10.23
716.855	10.46
717.039	9.82
717.223	9.58
717.407	9.38
717.59	9.16
717.774	9.03
717.958	8.76
718.142	8.71
718.325	8.97
718.509	9.17
718.693	9.95
718.877	9.83
719.06	10.48
719.244	11.15
719.428	12.27
719.611	12.82
719.795	13.24
719.978	13.99
720.162	14.79
720.345	15.16
720.529	15.2
720.713	15.2
720.896	15.71
721.08	15.44
721.263	15.42
721.446	14.85
721.63	14.46
721.813	14.39
721.997	13.96
722.18	13.38
722.364	12.63
722.547	12.64
722.73	12.81
722.914	12.33
723.097	12.17
723.28	11.15
723.464	11.19
723.647	11.19
723.83	10.74
724.013	10.6
724.197	10.64
724.38	11.18
724.563	11.19
724.746	10.97
724.929	11.41
725.112	12.14
725.296	12.98
725.479	12.91
725.662	13.24
725.845	13.29
726.028	13.03
726.211	12.87
726.394	13.19
726.577	12.98
726.76	12.52
726.943	12.22
727.126	11.45
727.309	11.02
727.492	11.03
727.675	10.54
727.858	10.37
728.041	10.7
728.224	11.08
728.407	10.95
728.589	11.09
728.772	11.69
728.955	11.46
729.138	11.89
729.321	12.15
729.503	12.04
729.686	12.68
729.869	13.01
730.052	13.39
730.234	13.6
730.417	13.38
730.6	13.54
730.782	13.97
730.965	14.74
731.148	14.92
731.33	14.95
731.513	15.21
731.695	14.98
731.878	15.34
732.061	15.67
732.243	15.58
732.426	16.24
732.608	16.79
732.791	17.13
732.973	17.32
733.156	17.58
733.338	18.41
733.52	19.19
733.703	19.96
733.885	20.21
734.068	20.32
734.25	21.48
734.432	22.17
734.615	22.23
734.797	22.56
734.979	22.74
735.162	23.23
735.344	23.11
735.526	23.38
735.708	23.68
735.891	24.56
736.073	25.23
736.255	24.87
736.437	24.52
736.619	24.15
736.802	23.5
736.984	23.42
737.166	23.59
737.348	24.31
737.53	24.15
737.712	24.44
737.894	24.6
738.076	24.56
738.258	24.86
738.44	25.28
738.622	26.53
738.804	26.93
738.986	27.82
739.168	27.68
739.35	27.71
739.532	28.18
739.714	28.42
739.896	28.48
740.078	29.04
740.259	29.63
740.441	30.16
740.623	30.01
740.805	31.06
740.987	30.94
741.168	31.83
741.35	32.33
741.532	32.67
741.714	33.31
741.895	33.63
742.077	33.92
742.259	34.47
742.44	35.2
742.622	35.54
742.804	35.8
742.985	36.42
743.167	36.87
743.348	37.21
743.53	37.45
743.711	37.36
743.893	37.76
744.075	38.07
744.256	38.47
744.438	38.44
744.619	38.98
744.8	39.14
744.982	38.97
745.163	38.85
745.345	38.66
745.526	39.07
745.707	39.07
745.889	38.8
746.07	38.27
746.252	38.12
746.433	37.65
746.614	37.76
746.795	38.15
746.977	38.25
747.158	37.54
747.339	37.72
747.52	37.28
747.702	37.12
747.883	37.74
748.064	38.4
748.245	37.99
748.426	37.85
748.607	37.38
748.788	36.69
748.97	37.13
749.151	37.93
749.332	37.93
749.513	38.19
749.694	38.2
749.875	37.31
750.056	36.78
750.237	36.38
750.418	36.94
750.599	37.38
750.78	37.65
750.96	37.07
751.141	36.81
751.322	36.55
751.503	36.69
751.684	36.5
751.865	37.29
752.046	37.45
752.226	37.97
752.407	37.53
752.588	37.16
752.769	36.53
752.949	37.39
753.13	37.66
753.311	37.24
753.492	37.16
753.672	36.84
753.853	36.95
754.034	36.63
754.214	36.57
754.395	36.45
754.575	36.71
754.756	36.91
754.937	36.37
755.117	36.65
755.298	36.84
755.478	36.62
755.659	37.53
755.839	37.39
756.02	38.09
756.2	37.41
756.381	37.59
756.561	37.09
756.741	35.99
756.922	34.58
757.102	33.24
757.283	31.82
757.463	30.55
757.643	28.17
757.823	25.92
758.004	23.63
758.184	21.66
758.364	19.77
758.545	17.66
758.725	16.32
758.905	15.15
759.085	13.55
759.265	12.57
759.446	10.71
759.626	10.18
759.806	9.52
759.986	8.98
760.166	8.04
760.346	7.36
760.526	7.08
760.706	6.99
760.886	6.79
761.066	6.98
761.246	7.16
761.426	6.88
761.606	6.89
761.786	6.71
761.966	5.99
762.146	6.36
762.326	5.78
762.506	5.59
762.686	5.61
762.866	5.7
763.046	5.54
763.225	5.76
763.405	6.25
763.585	6.57
763.765	6.9
763.945	8.12
764.124	8.49
764.304	9.99
764.484	11.22
764.664	11.93
764.843	13
765.023	14.19
765.203	15.2
765.382	16.71
765.562	18.23
765.741	19.69
765.921	20.51
766.101	22.62
766.28	23.66
766.46	24.66
766.639	26.51
766.819	27.19
766.998	27.96
767.178	29.05
767.357	29.73
767.537	30.08
767.716	31.02
767.896	31.93
768.075	32.32
768.254	33.4
768.434	34.15
768.613	34.16
768.792	34.96
768.972	35.59
769.151	36.01
769.33	36.92
769.51	37.49
769.689	37.34
769.868	38.02
770.047	38.69
770.226	38.25
770.406	38.85
770.585	39.24
770.764	39.99
770.943	41.05
771.122	40.64
771.301	40.27
771.48	40.51
771.66	40.88
771.839	40.73
772.018	40.64
772.197	40.95
772.376	40.45
772.555	40.53
772.734	40.74
772.913	40.87
773.092	41.56
773.271	42.34
773.449	42.39
773.628	42.91
773.807	42.99
773.986	43.25
774.165	44.1
774.344	44.95
774.523	45.02
774.701	44.44
774.88	43.17
775.059	43.34
775.238	42.48
775.417	42.71
775.595	42.77
775.774	43.04
775.953	42.79
776.131	42.07
776.31	40.9
776.489	40.27
776.667	40.62
776.846	41.15
777.025	40.95
777.203	41.69
777.382	41.81
777.56	41.4
777.739	40.57
777.917	39.64
778.096	39.61
778.274	39.9
778.453	40.33
778.631	40.75
778.81	41.63
778.988	41.69
779.166	41.28
779.345	40.66
779.523	41
779.702	42
779.88	42.76
780.058	42.79
780.237	43.24
780.415	43.28
780.593	42.87
780.771	42.24
780.95	42.8
781.128	43.11
781.306	43.71
781.484	43.45
781.662	42.24
781.841	42.55
782.019	41.46
782.197	41.3
782.375	41.11
782.553	40.44
782.731	40.22
782.909	39.09
783.087	38.75
783.265	37.88
783.443	36.76
783.621	37.25
783.799	36.23
783.977	37.15
784.155	37.18
784.333	37.05
784.511	37.76
784.689	37.14
784.867	37.26
785.045	36.75
785.223	37.02
785.4	36.7
785.578	35.94
785.756	36.27
785.934	35.2
786.112	34.52
786.289	33.65
786.467	33.08
786.645	32.06
786.823	30.95
787	29.74
787.178	28.69
787.356	28.6
787.533	28.53
787.711	27.3
787.889	26.34
788.066	25.69
788.244	25.97
788.421	24.73
788.599	25.29
788.776	25.41
788.954	26.58
789.131	26.68
789.309	26.86
789.486	28.12
789.664	28.85
789.841	29.76
790.019	29.3
790.196	30.12
790.373	31.09
790.551	31.06
790.728	31.22
790.906	30.42
791.083	29.52
791.26	29.96
791.437	28.19
791.615	29.89
791.792	30.01
791.969	31.39
792.146	30.55
792.324	30.74
792.501	30.74
792.678	30.37
792.855	31.48
793.032	33.49
793.209	33.26
793.387	34.1
793.564	32.19
793.741	31.63
793.918	30.89
794.095	31.3
794.272	31.09
794.449	30.08
794.626	29.68
794.803	29.01
794.98	28.1
795.157	26.6
795.334	25.77
795.511	25.06
795.688	24.71
795.864	25.01
796.041	24.74
796.218	23.71
796.395	23.44
796.572	23.83
796.749	22.95
796.925	21.86
797.102	22.31
797.279	22.12
797.456	22.28
797.632	22.59
797.809	21.71
797.986	20.71
798.162	20.68
798.339	20.78
798.516	20.27
798.692	20.29
798.869	20.38
799.046	20.87
799.222	20.79
799.399	20.02
799.575	19.8
799.752	20.26
799.928	20.37
800.105	20.01
800.281	21.14
800.458	21.58
800.634	21.3
800.811	21.72
800.987	22.43
801.163	22.33
801.34	23.09
801.516	22.65
801.692	21.83
801.869	22.26
802.045	22.05
802.221	21.81
802.398	21.53
802.574	21.82
802.75	22.96
802.926	23.23
803.103	24.56
803.279	25.36
803.455	26.63
803.631	27.55
803.807	27.79
803.983	28.43
804.16	28.9
804.336	27.93
804.512	28.27
804.688	28.43
804.864	26.57
805.04	25.53
805.216	25.36
805.392	24.95
805.568	25.24
805.744	24.34
805.92	25.89
806.096	24.38
806.272	26.06
806.448	25.79
806.623	24.38
806.799	24.83
806.975	24.63
807.151	23.94
807.327	23.48
807.503	22.98
807.678	23.63
807.854	22.13
808.03	23.27
808.206	22.06
808.381	22.53
808.557	22.46
808.733	22.61
808.908	22.88
809.084	23.05
809.26	22.97
809.435	22.84
809.611	22.59
809.787	22.49
809.962	21.79
810.138	21.62
810.313	21.5
810.489	21.34
810.664	20.47
810.84	20
811.015	19.81
811.191	18.46
811.366	18.53
811.542	19.3
811.717	19.43
811.892	18.52
812.068	18.15
812.243	17
812.419	16.11
812.594	16.37
812.769	15.91
812.944	14.55
813.12	15.32
813.295	14.24
813.47	12
813.645	10.85
813.821	9.92
813.996	9.2
814.171	8.48
814.346	8.81
814.521	8.1
814.697	7.4
814.872	8.77
815.047	8.16
815.222	8.25
815.397	9.1
815.572	9.71
815.747	11.17
815.922	12.08
816.097	11.73
816.272	11.03
816.447	12.95
816.622	13.61
816.797	12.52
816.972	13.12
817.147	13.34
817.322	12
817.496	9.49
817.671	8.75
817.846	8.28
818.021	8.39
818.196	9.11
818.371	7.18
818.545	6.68
818.72	6.41
818.895	5.81
819.069	5.51
819.244	5.44
819.419	6.1
819.594	6.42
819.768	6.11
819.943	5.45
820.117	4.26
820.292	4.17
820.467	3.6
820.641	3.53
820.816	3.11
820.99	2.39
821.165	2.3
821.339	2.34
821.514	1.83
821.688	1.53
821.863	1.55
822.037	1.42
822.212	1.08
822.386	0.97
822.56	0.7
822.735	0.91
822.909	0.9
823.084	0.76
823.258	0.68
823.432	0.77
823.606	1.03
823.781	1.1
823.955	1.4
824.129	1.92
824.303	2.14
824.478	2.53
824.652	2.51
824.826	3.2
825	3.68
825.174	3.88
825.348	3.73
825.523	3.79
825.697	3.74
825.871	3.98
826.045	3.36
826.219	3.32
826.393	3.12
826.567	2.83
826.741	2.5
826.915	1.94
827.089	2.09
827.263	2.07
827.437	1.91
827.611	2.01
827.784	1.95
827.958	2.43
828.132	2.95
828.306	3.63
828.48	4.3
828.654	3.96
828.827	4.05
829.001	4.6
829.175	5.64
829.349	6.93
829.522	6.95
829.696	6.97
829.87	7.34
830.044	7.43
830.217	7.21
830.391	6.79
830.565	8.16
830.738	9.85
830.912	9.01
831.085	8.8
831.259	8.28
831.432	7.87
831.606	9.18
831.779	9.07
831.953	9.03
832.126	7.79
832.3	7.71
832.473	6.69
832.647	5.97
832.82	6
832.994	5.75
833.167	4.69
833.34	4.63
833.514	3.82
833.687	4.62
833.86	4.7
834.034	5.49
834.207	5.3
834.38	5.63
834.553	5.98
834.727	6.19
834.9	6.53
835.073	7.3
835.246	8.36
835.419	8.32
835.593	7.14
835.766	7.97
835.939	8.56
836.112	9.95
836.285	11.02
836.458	12.32
836.631	12.33
836.804	14.1
836.977	15.45
837.15	15.83
837.323	17.4
837.496	18.54
837.669	17.06
837.842	17.19
838.015	16.81
838.188	18.47
838.361	18.48
838.533	19.88
838.706	20.29
838.879	19.25
839.052	20
839.225	20.24
839.398	20.41
839.57	22.89
839.743	23.74
839.916	24.68
840.088	23.95
840.261	23.87
840.434	23.39
840.607	22.62
840.779	22.03
840.952	23.26
841.124	22.95
841.297	23.21
841.47	21.17
841.642	21.85
841.815	22.33
841.987	21.52
842.16	21.43
842.332	22.12
842.505	22.9
842.677	25.67
842.85	27.11
843.022	30.03
843.194	33.69
843.367	38.02
843.539	37.5
843.712	36.22
843.884	37.92
844.056	38.56
844.229	39.75
844.401	40.61
844.573	39.09
844.745	39.63
844.918	38.64
845.09	34.95
845.262	36.94
845.434	36.61
845.606	37.38
845.779	40.11
845.951	41.53
846.123	44.46
846.295	45.4
846.467	45.36
846.639	42.57
846.811	44.47
846.983	44.68
847.155	39.68
847.327	43.34
847.499	44.25
847.671	40.34
847.843	36.72
848.015	34.73
848.187	30.7
848.359	32.87
848.531	32.71
848.703	29.35
848.875	32.43
849.047	31
849.218	26.05
849.39	24.11
849.562	24.97
849.734	26.59
849.905	27.28
850.077	30.64
850.249	29.05
850.421	27.72
850.592	28.99
850.764	26.69
850.936	31.74
851.107	35.77
851.279	34.54
851.451	37.64
851.622	40.48
851.794	38.97
851.965	40.31
852.137	43.58
852.308	44.13
852.48	45.51
852.651	46.91
852.823	42.61
852.994	39.43
853.166	40.31
853.337	36.18
853.509	34.94
853.68	32.96
853.851	32.36
854.023	30.57
854.194	29.68
854.365	24.74
854.537	26.94
854.708	29.02
854.879	32.98
855.05	35.75
855.222	34.94
855.393	34.5
855.564	37.44
855.735	39.09
855.906	41.73
856.078	41.92
856.249	43.99
856.42	40.35
856.591	42.08
856.762	38.2
856.933	35.34
857.104	36.57
857.275	39.23
857.446	38.7
857.617	36.31
857.788	33.68
857.959	38.15
858.13	38.19
858.301	40.73
858.472	36.95
858.643	36.35
858.814	40.49
858.985	42.71
859.155	38.39
859.326	36.47
859.497	35.7
859.668	34.34
859.839	31.2
860.009	33.62
860.18	33.89
860.351	35.35
860.522	37.78
860.692	34.48
860.863	30.4
861.034	33
861.204	35.75
861.375	35.33
861.546	38.07
861.716	34.8
861.887	34.64
862.057	33.81
862.228	33.17
862.398	33.19
862.569	34.58
862.739	38.19
862.91	38.75
863.08	36.7
863.251	36.9
863.421	33.34
863.592	36.97
863.762	36.63
863.932	36.77
864.103	36.27
864.273	34.79
864.443	38.28
864.614	35.61
864.784	33.02
864.954	31.68
865.125	31.47
865.295	31.43
865.465	28.78
865.635	27.53
865.805	28.46
865.976	26.6
866.146	28.36
866.316	24.14
866.486	23.82
866.656	23.85
866.826	23.65
866.996	22.84
867.166	24.82
867.336	23.7
867.506	24.44
867.676	20.35
867.846	26.44
868.016	26.18
868.186	28.08
868.356	27.45
868.526	29.36
868.696	32.89
868.866	33.98
869.036	34.44
869.206	37.24
869.376	37.25
869.545	42.13
869.715	40.38
869.885	43.73
870.055	40.53
870.224	42.85
870.394	40.77
870.564	41.25
870.734	43.73
870.903	41.26
871.073	35.74
871.243	32.74
871.412	32.34
871.582	30.41
871.751	27.33
871.921	31.98
872.091	33.92
872.26	35.04
872.43	35.03
872.599	34.1
872.769	33.87
872.938	38.37
873.108	39.62
873.277	37.35
873.446	34.54
873.616	34.83
873.785	34.7
873.955	29.81
874.124	33.17
874.293	32.47
874.463	32.86
874.632	32.37
874.801	32.64
874.971	32.68
875.14	28.73
875.309	28.23
875.478	26.9
875.647	22.42
875.817	24.05
875.986	21.39
876.155	21.91
876.324	18.65
876.493	20.99
876.662	22.57
876.831	19.67
877	22.61
877.17	27.71
877.339	26.73
877.508	26.22
877.677	26.33
877.846	27.13
878.015	23.08
878.184	23.11
878.352	24.89
878.521	21.46
878.69	24.49
878.859	24.75
879.028	22.88
879.197	19.67
879.366	18.48
879.534	16.75
879.703	13.95
879.872	14.94
880.041	15.19
880.21	12.01
880.378	11.61
880.547	8.81
880.716	7.35
880.884	7.49
881.053	7.74
881.222	7.73
881.39	6.97
881.559	6.95
881.727	5.67
881.896	5.31
882.065	5.25
882.233	5.24
882.402	5.54
882.57	5.61
882.739	5.12
882.907	4.58
883.076	4.17
883.244	4
883.412	3.36
883.581	3.86
883.749	3.49
883.918	3.69
884.086	3.99
884.254	4.64
884.423	3.97
884.591	2.73
884.759	2.88
884.927	3.31
885.096	2.89
885.264	4.43
885.432	4.59
885.6	2.9
885.769	3.44
885.937	2.42
886.105	2.53
886.273	2.65
886.441	5.42
886.609	7.19
886.777	5.32
886.945	7.42
887.113	8.32
887.281	7.93
887.449	13.65
887.617	13.59
887.785	15.78
887.953	15.3
888.121	18.82
888.289	17.76
888.457	17.08
888.625	21.8
888.793	25.02
888.961	22.94
889.129	23.91
889.296	23.24
889.464	23.53
889.632	22.63
889.8	23.64
889.967	24.06
890.135	28.16
