Data from 2938436_Reflection_2.txt Node
Date: Fri Jun 19 18:36:31 EDT 2015
User: robert
Spectrometer: USB4E03002
Autoset integration time: false
Trigger mode: 4
Integration Time (sec): 1.000000E-1
Scans to average: 10
Electric dark correction enabled: true
Nonlinearity correction enabled: false
Boxcar width: 5
Stray light correction enabled: false
XAxis mode: Wavelengths
Stop averaging: false
Number of Pixels in Spectrum: 3648
>>>>>Begin Spectral Data<<<<<
177.575	149.26
177.794	148.89
178.014	507.33
178.233	-37133.33
178.452	235.13
178.672	457.83
178.891	72.19
179.11	4.94
179.33	-9.74
179.549	243.91
179.768	175.17
179.987	-936.17
180.207	-1.01
180.426	-65.9
180.645	57.65
180.864	53.02
181.084	77.3
181.303	200.06
181.522	162.84
181.741	226.45
181.96	142.09
182.179	133.92
182.398	255.01
182.618	239.96
182.837	592.85
183.056	1148.57
183.275	333
183.494	-2888.39
183.713	-389.26
183.932	-294.98
184.151	353.17
184.37	-268.39
184.589	80.06
184.808	92.47
185.027	35.8
185.246	-30.27
185.465	-469
185.684	-74.49
185.903	122.29
186.122	197.69
186.341	210.02
186.56	-13682.35
186.779	-107062.5
186.998	-1252.11
187.216	-1747.73
187.435	-1372.61
187.654	-1147.75
187.873	-153.26
188.092	-123.36
188.311	-50.82
188.53	-69.37
188.748	-74.71
188.967	-24.09
189.186	-48.35
189.405	-209.26
189.623	-399.52
189.842	-283.3
190.061	-114.05
190.28	-182.94
190.498	-282.73
190.717	-159.2
190.936	-277.13
191.154	-143.94
191.373	-143
191.592	-149.19
191.81	-81.07
192.029	-39
192.248	-35.91
192.466	-135.56
192.685	-163.31
192.904	-25.59
193.122	-128.29
193.341	-77.16
193.559	-90.09
193.778	-82.96
193.996	-71.08
194.215	-113.3
194.433	-165.22
194.652	-122.66
194.87	-38.8
195.089	-28.62
195.307	-103.42
195.526	-51.2
195.744	-49.69
195.963	-108.65
196.181	-178.92
196.399	-145.18
196.618	-32.63
196.836	-21.73
197.055	-72.08
197.273	-262.43
197.491	424.25
197.71	-93.18
197.928	950.94
198.146	-18.86
198.365	27.43
198.583	18.02
198.801	32.05
199.019	12.41
199.238	19.6
199.456	-22.68
199.674	-54.68
199.892	-10.87
200.111	8.25
200.329	-0.31
200.547	-79.61
200.765	3152.03
200.983	-710.83
201.202	-556.23
201.42	-289.24
201.638	-149
201.856	-95.05
202.074	-119.91
202.292	-120.09
202.51	-102.97
202.728	-94.19
202.946	-101.61
203.165	-267.73
203.383	-98.49
203.601	-31.3
203.819	-54.07
204.037	13.79
204.255	198.42
204.473	-28.4
204.691	-30.93
204.909	184.57
205.127	142.87
205.345	-152.67
205.562	30.98
205.78	3.96
205.998	-145.13
206.216	-324.34
206.434	5699.08
206.652	-31.69
206.87	-22.65
207.088	-56.22
207.306	-105.85
207.523	-97.49
207.741	-123.27
207.959	-728.1
208.177	220.85
208.395	516.17
208.612	-238
208.83	-81.68
209.048	-203.1
209.266	5699.08
209.483	-619.17
209.701	-254.55
209.919	-135.85
210.136	-193.97
210.354	-32.7
210.572	-17.44
210.79	-56.03
211.007	-145.48
211.225	-244.85
211.442	1089.22
211.66	-555.32
211.878	-306.76
212.095	72.16
212.313	85.88
212.53	96.44
212.748	111.25
212.966	75.14
213.183	81.34
213.401	85.03
213.618	61.2
213.836	77.83
214.053	35.78
214.271	16.56
214.488	-3.1
214.705	27.21
214.923	26.34
215.14	0.84
215.358	-32.39
215.575	-58.18
215.793	-167.84
216.01	-117.11
216.227	-48.01
216.445	-4.76
216.662	-31.48
216.879	-38.63
217.097	-84.43
217.314	-18.75
217.531	-17.65
217.749	-11.55
217.966	17.03
218.183	31.54
218.4	23.57
218.618	18.47
218.835	24.41
219.052	26.24
219.269	21.72
219.487	14.55
219.704	-7.38
219.921	-2.4
220.138	-16.3
220.355	-30.16
220.572	-15.52
220.79	0.84
221.007	-5.34
221.224	-12.04
221.441	-27.45
221.658	-33.43
221.875	-10.71
222.092	-18.99
222.309	-24.62
222.526	-21.9
222.743	-24.84
222.96	-23.56
223.177	-22.44
223.394	-15.82
223.611	-13.32
223.828	-2.3
224.045	-1.97
224.262	-4.55
224.479	0.89
224.696	-2.26
224.913	0.65
225.13	4.02
225.347	8.38
225.564	5.64
225.781	3.26
225.997	4.53
226.214	1.7
226.431	2.19
226.648	4.6
226.865	4.59
227.082	7.04
227.298	7.38
227.515	5.99
227.732	4.03
227.949	4.07
228.165	4.32
228.382	2.77
228.599	3.9
228.816	3.16
229.032	1.42
229.249	0.58
229.466	-0.59
229.682	-0.44
229.899	2.12
230.116	2.04
230.332	2.01
230.549	-2.95
230.765	-0.96
230.982	-1.05
231.199	0.78
231.415	3.25
231.632	5.77
231.848	6.67
232.065	6.77
232.281	9.35
232.498	7.64
232.714	9.09
232.931	15.69
233.147	12.82
233.364	13.4
233.58	16.24
233.797	16.01
234.013	15.24
234.23	18.12
234.446	19.81
234.662	16.84
234.879	17.92
235.095	17.56
235.312	10.13
235.528	10.3
235.744	7.34
235.961	1.19
236.177	-1.38
236.393	-2.86
236.61	-6.76
236.826	-10.91
237.042	-7.29
237.258	-5.93
237.475	-4.66
237.691	0.36
237.907	2.71
238.123	5.76
238.339	6.6
238.556	6.87
238.772	8.31
238.988	9.51
239.204	10.34
239.42	11.08
239.636	9.1
239.853	7.79
240.069	8.95
240.285	9.51
240.501	9.13
240.717	10.13
240.933	10.68
241.149	10.71
241.365	10.25
241.581	10.92
241.797	10.24
242.013	11.29
242.229	11.85
242.445	11.84
242.661	11.48
242.877	12.03
243.093	11.86
243.309	11.38
243.525	12.43
243.741	12.2
243.957	11.83
244.173	10.92
244.388	12.22
244.604	12.65
244.82	13.49
245.036	13.78
245.252	13.22
245.468	12.94
245.683	12.79
245.899	11.91
246.115	12.1
246.331	12.45
246.547	12.48
246.762	12.27
246.978	12.25
247.194	11.61
247.409	10.8
247.625	10.68
247.841	11.01
248.057	11.32
248.272	11.29
248.488	10.45
248.703	9.87
248.919	10.73
249.135	9.65
249.35	9.5
249.566	9
249.782	9.83
249.997	10.4
250.213	9.79
250.428	9.58
250.644	9.67
250.859	9.71
251.075	8.87
251.29	7.22
251.506	6.73
251.721	6.12
251.937	6.67
252.152	5.18
252.368	4.19
252.583	4.69
252.798	3.51
253.014	4.19
253.229	5.45
253.445	7.09
253.66	9.68
253.875	10.29
254.091	10.56
254.306	10.02
254.521	12.2
254.737	13.57
254.952	11.92
255.167	13.55
255.383	12.48
255.598	12.29
255.813	11.29
256.028	11.27
256.244	11.2
256.459	11.06
256.674	11.76
256.889	11.15
257.104	10.46
257.32	10.7
257.535	10.63
257.75	10.6
257.965	10.58
258.18	10.3
258.395	9.81
258.61	9.67
258.826	9.53
259.041	8.67
259.256	8.63
259.471	8.69
259.686	8.59
259.901	8.31
260.116	8.14
260.331	7.55
260.546	7.51
260.761	6.65
260.976	6.98
261.191	7.42
261.406	8.21
261.621	9.32
261.836	8.6
262.05	8
262.265	7.58
262.48	7.67
262.695	8.28
262.91	7.73
263.125	8.35
263.34	8.27
263.555	8.33
263.769	8.87
263.984	6.76
264.199	7.25
264.414	8.1
264.629	7.53
264.843	7.47
265.058	7.1
265.273	6.87
265.488	7.2
265.702	6.51
265.917	6.6
266.132	5.49
266.346	5.65
266.561	6
266.776	6.38
266.99	6.02
267.205	5.98
267.42	6.05
267.634	7.39
267.849	7.39
268.063	7.18
268.278	7.65
268.492	7.79
268.707	8.45
268.922	7.61
269.136	7.5
269.351	8.2
269.565	9.5
269.78	9.5
269.994	9.06
270.209	9
270.423	9.08
270.637	8.22
270.852	8.7
271.066	8.41
271.281	9.12
271.495	8.69
271.709	8.66
271.924	7.72
272.138	7.34
272.353	7.58
272.567	7.62
272.781	8.28
272.996	8.72
273.21	8.04
273.424	8.73
273.638	8.59
273.853	8.35
274.067	9.01
274.281	8.88
274.495	8.66
274.71	8.31
274.924	8.38
275.138	7.89
275.352	8.29
275.566	8.66
275.781	7.78
275.995	7.08
276.209	7.71
276.423	7.64
276.637	8.07
276.851	9.12
277.065	9.25
277.279	8.36
277.493	8.41
277.707	8.21
277.921	7.5
278.135	7.91
278.349	8.38
278.563	8.84
278.777	8.36
278.991	7.65
279.205	7.01
279.419	7.51
279.633	8.4
279.847	7.83
280.061	7.71
280.275	8.44
280.489	8.73
280.703	8.47
280.917	8.64
281.131	8.98
281.344	9.74
281.558	10.06
281.772	9.44
281.986	9.71
282.2	10.48
282.414	10.6
282.627	11.06
282.841	10.46
283.055	10.96
283.269	9.79
283.482	9.51
283.696	9.38
283.91	9.22
284.123	9.62
284.337	9.92
284.551	9.54
284.764	9.06
284.978	8.71
285.192	8.94
285.405	9.07
285.619	9.6
285.833	9.86
286.046	9.61
286.26	10.21
286.473	9.35
286.687	8.44
286.9	8.37
287.114	9.03
287.327	9.16
287.541	9.33
287.754	8.93
287.968	8.72
288.181	8.87
288.395	8.99
288.608	8.23
288.822	9.27
289.035	10.04
289.248	10.2
289.462	9.72
289.675	9.57
289.889	10.23
290.102	10.22
290.315	10.71
290.529	10.72
290.742	10.76
290.955	11.93
291.169	11.13
291.382	11.03
291.595	11.61
291.808	11.71
292.022	11.2
292.235	11.09
292.448	11.82
292.661	12.21
292.875	11.79
293.088	11.48
293.301	10.94
293.514	10.57
293.727	10.43
293.94	10.63
294.153	11.16
294.367	10.77
294.58	10.08
294.793	9.79
295.006	9.32
295.219	10.27
295.432	10.25
295.645	10.37
295.858	10.87
296.071	10.95
296.284	10.95
296.497	10.76
296.71	11.63
296.923	12.04
297.136	12.13
297.349	12.81
297.562	11.67
297.775	11.87
297.988	11.84
298.201	11.93
298.414	11.85
298.626	11.91
298.839	11.8
299.052	11.33
299.265	10.4
299.478	10.01
299.691	9.13
299.903	9.46
300.116	8.97
300.329	9.2
300.542	9.77
300.755	9.93
300.967	9.79
301.18	10.01
301.393	10.73
301.605	12.38
301.818	13.41
302.031	13.87
302.243	13.87
302.456	14.2
302.669	14.28
302.881	13.61
303.094	13.11
303.307	11.96
303.519	11.49
303.732	11.45
303.944	10.29
304.157	9.75
304.37	9.27
304.582	9.85
304.795	9.71
305.007	9.83
305.22	9.59
305.432	8.87
305.645	10
305.857	10.51
306.069	10.27
306.282	10.82
306.494	10.8
306.707	10.79
306.919	10.68
307.132	10.93
307.344	9.98
307.556	9.7
307.769	9.98
307.981	9.97
308.193	9.21
308.406	9.09
308.618	8.91
308.83	8.24
309.043	8.28
309.255	7.77
309.467	7.63
309.679	8.99
309.892	9.94
310.104	10.64
310.316	10.13
310.528	10.9
310.74	10.23
310.953	10.06
311.165	10.48
311.377	11.22
311.589	12.17
311.801	12.44
312.013	10.85
312.225	11.19
312.437	11.48
312.649	11.72
312.862	11.69
313.074	12.76
313.286	12.83
313.498	12.45
313.71	12.61
313.922	12.68
314.134	12.31
314.346	13.46
314.558	12.84
314.77	11.39
314.982	11.78
315.193	11.19
315.405	12.21
315.617	12.59
315.829	12.86
316.041	11.87
316.253	11.25
316.465	12.68
316.677	12.62
316.888	12.89
317.1	13.69
317.312	13.1
317.524	14.31
317.736	13.34
317.947	13.6
318.159	13.2
318.371	12.88
318.583	13.23
318.794	13.15
319.006	12.51
319.218	11.5
319.43	10.8
319.641	11.4
319.853	11.18
320.064	11.84
320.276	10.61
320.488	10.47
320.699	10.92
320.911	11.03
321.123	10.08
321.334	11.2
321.546	11.61
321.757	12.8
321.969	12.14
322.18	12.27
322.392	11.56
322.603	12.91
322.815	13.65
323.026	14.31
323.238	13.86
323.449	14.27
323.661	14.09
323.872	13.81
324.083	13.74
324.295	14.75
324.506	14.6
324.718	14.8
324.929	14.11
325.14	14
325.352	13.72
325.563	14.2
325.774	13.87
325.986	12.95
326.197	13.36
326.408	13.33
326.62	12.81
326.831	12.43
327.042	12.63
327.253	12.42
327.464	12.63
327.676	12.95
327.887	13.21
328.098	13.39
328.309	13.62
328.52	13.94
328.732	13.82
328.943	14.19
329.154	14.67
329.365	14.95
329.576	15.3
329.787	14.84
329.998	14.42
330.209	14.25
330.42	14.66
330.631	15.56
330.842	15.29
331.053	14.91
331.264	14.54
331.475	14.3
331.686	14.25
331.897	13.86
332.108	14.81
332.319	14.8
332.53	14.62
332.741	14.49
332.952	14.71
333.163	13.97
333.374	14.53
333.585	14.9
333.795	15.18
334.006	14.23
334.217	13.97
334.428	13.48
334.639	14.3
334.849	14.05
335.06	13.93
335.271	13.44
335.482	14.98
335.692	14.51
335.903	14.27
336.114	13.87
336.325	13.67
336.535	13.8
336.746	13.72
336.957	12.81
337.167	13.12
337.378	12.56
337.589	12.43
337.799	11.54
338.01	11.7
338.22	11.47
338.431	11.09
338.642	11.66
338.852	12.43
339.063	12.67
339.273	12.06
339.484	11.43
339.694	11.51
339.905	11.85
340.115	12.19
340.326	12.33
340.536	12.79
340.746	12.75
340.957	12.57
341.167	12.41
341.378	11.9
341.588	12.54
341.799	12.68
342.009	13.06
342.219	12.49
342.43	12.03
342.64	11.25
342.85	10.55
343.061	10.64
343.271	11.22
343.481	11.03
343.691	11.24
343.902	11.27
344.112	11.55
344.322	11.37
344.532	11.39
344.743	11.83
344.953	12.31
345.163	12.86
345.373	13.53
345.583	13.81
345.793	13.74
346.004	13.91
346.214	14.53
346.424	14.63
346.634	14.9
346.844	14.93
347.054	14.81
347.264	15.21
347.474	15.21
347.684	14.88
347.894	14.72
348.104	14.58
348.314	14.17
348.524	13.2
348.734	12.87
348.944	12.65
349.154	13.47
349.364	12.76
349.574	12.47
349.784	12.03
349.994	11.64
350.204	10.9
350.413	10.93
350.623	11.15
350.833	11.71
351.043	12.13
351.253	12.08
351.463	11.07
351.672	11.61
351.882	11.64
352.092	12.36
352.302	12.71
352.511	12.92
352.721	12.78
352.931	12.48
353.141	12.53
353.35	12.45
353.56	12.67
353.77	12.94
353.979	12.17
354.189	12.31
354.399	11.72
354.608	11.78
354.818	11.06
355.027	11.11
355.237	11.12
355.447	10.57
355.656	10.47
355.866	10.31
356.075	9.95
356.285	10.48
356.494	10.28
356.704	10.85
356.913	10.38
357.123	11.02
357.332	11.06
357.542	11.45
357.751	11.75
357.96	11.19
358.17	11.13
358.379	11.83
358.589	11.8
358.798	11.77
359.007	11.38
359.217	11.16
359.426	11.05
359.635	11.04
359.845	10.88
360.054	10.94
360.263	11.03
360.472	10.79
360.682	10.26
360.891	10.09
361.1	10.02
361.309	10
361.519	10.15
361.728	9.98
361.937	10
362.146	9.61
362.355	9.69
362.564	10.29
362.774	10.34
362.983	9.83
363.192	10.1
363.401	9.79
363.61	9.45
363.819	9.63
364.028	9.6
364.237	9.29
364.446	10.01
364.655	9.83
364.864	9.56
365.073	10.15
365.282	10.77
365.491	10.9
365.7	10.89
365.909	11.02
366.118	10.89
366.327	11.07
366.536	11.54
366.745	10.52
366.954	10.47
367.162	10.52
367.371	10.11
367.58	10.34
367.789	10.08
367.998	10.46
368.207	10.52
368.415	10.24
368.624	9.81
368.833	9.35
369.042	9.5
369.25	9.36
369.459	9.12
369.668	8.77
369.877	8.37
370.085	8.34
370.294	8.06
370.503	7.84
370.711	8.24
370.92	8.75
371.129	8.76
371.337	8.58
371.546	8.61
371.754	8.18
371.963	7.9
372.171	8.1
372.38	8.02
372.589	7.79
372.797	8.19
373.006	8.14
373.214	7.97
373.423	8.51
373.631	8.87
373.84	8.61
374.048	8.95
374.256	8.92
374.465	8.94
374.673	8.94
374.882	8.84
375.09	8.57
375.298	8.57
375.507	8.43
375.715	8.19
375.923	8.18
376.132	8.29
376.34	8.03
376.548	8.66
376.757	8.47
376.965	8.43
377.173	8.99
377.381	9.1
377.59	8.8
377.798	8.48
378.006	8.24
378.214	8.2
378.423	8.18
378.631	7.94
378.839	7.4
379.047	7.14
379.255	7.05
379.463	6.68
379.671	6.73
379.879	7.07
380.088	7.61
380.296	8
380.504	8.25
380.712	8.03
380.92	8.33
381.128	8.4
381.336	8.18
381.544	8.24
381.752	8.01
381.96	7.8
382.168	7.3
382.376	6.83
382.584	6.51
382.791	6
382.999	6.14
383.207	6.06
383.415	5.85
383.623	5.97
383.831	5.7
384.039	5.7
384.247	5.51
384.454	5.92
384.662	5.92
384.87	5.88
385.078	5.77
385.285	5.94
385.493	5.81
385.701	5.78
385.909	5.94
386.116	5.94
386.324	5.96
386.532	5.91
386.739	5.66
386.947	5.8
387.155	5.63
387.362	5.73
387.57	5.32
387.778	5.39
387.985	5.35
388.193	4.92
388.4	4.88
388.608	4.77
388.816	4.89
389.023	4.79
389.231	4.79
389.438	4.61
389.646	4.6
389.853	4.65
390.061	4.71
390.268	4.58
390.475	4.8
390.683	4.98
390.89	5
391.098	4.87
391.305	4.69
391.512	4.42
391.72	4.57
391.927	4.47
392.135	4.21
392.342	4.08
392.549	4.25
392.756	4.27
392.964	4.03
393.171	4.12
393.378	4.33
393.586	4.48
393.793	4.56
394	4.46
394.207	4.49
394.414	4.54
394.622	4.31
394.829	4.5
395.036	4.29
395.243	4.32
395.45	4.02
395.657	3.83
395.864	3.65
396.072	3.66
396.279	3.62
396.486	3.62
396.693	3.69
396.9	3.7
397.107	3.47
397.314	3.49
397.521	3.5
397.728	3.66
397.935	3.58
398.142	3.62
398.349	3.64
398.556	3.74
398.763	3.66
398.97	3.69
399.177	4.09
399.383	4.28
399.59	4.34
399.797	4.27
400.004	4.33
400.211	4.25
400.418	4.41
400.625	4.25
400.831	4.35
401.038	4.46
401.245	4.5
401.452	4.19
401.658	3.89
401.865	3.96
402.072	4.1
402.279	4.21
402.485	4.3
402.692	4.12
402.899	4.17
403.105	4.01
403.312	3.96
403.519	3.82
403.725	3.74
403.932	3.84
404.138	3.67
404.345	3.48
404.552	3.26
404.758	3.18
404.965	3.1
405.171	3.16
405.378	3.1
405.584	3.12
405.791	3.2
405.997	3.33
406.204	3.26
406.41	3.37
406.617	3.39
406.823	3.44
407.029	3.35
407.236	3.44
407.442	3.32
407.649	3.45
407.855	3.26
408.061	3.13
408.268	3.15
408.474	3.38
408.68	3.32
408.887	3.45
409.093	3.36
409.299	3.45
409.505	3.48
409.712	3.57
409.918	3.56
410.124	3.75
410.33	3.93
410.537	3.8
410.743	3.51
410.949	3.45
411.155	3.39
411.361	3.66
411.567	3.67
411.773	3.65
411.98	3.61
412.186	3.52
412.392	3.35
412.598	3.25
412.804	3.4
413.01	3.47
413.216	3.55
413.422	3.52
413.628	3.18
413.834	3.07
414.04	2.99
414.246	2.85
414.452	2.97
414.658	3.06
414.864	2.95
415.07	2.88
415.275	2.83
415.481	2.88
415.687	2.75
415.893	2.82
416.099	2.91
416.305	2.95
416.511	3.01
416.716	3.04
416.922	3
417.128	3.14
417.334	3.1
417.539	3.13
417.745	3.11
417.951	3.18
418.157	3.29
418.362	3.36
418.568	3.38
418.774	3.48
418.979	3.44
419.185	3.41
419.391	3.4
419.596	3.44
419.802	3.54
420.008	3.59
420.213	3.56
420.419	3.53
420.624	3.39
420.83	3.39
421.035	3.29
421.241	3.22
421.446	3.22
421.652	3.27
421.857	3.21
422.063	3.1
422.268	3.06
422.474	3.07
422.679	3
422.885	3.08
423.09	3.06
423.295	3.05
423.501	3.08
423.706	3.15
423.911	3.07
424.117	3.11
424.322	3.06
424.527	2.94
424.733	3
424.938	3.1
425.143	3.05
425.349	3.06
425.554	3.13
425.759	3.1
425.964	2.99
426.169	2.96
426.375	3
426.58	2.98
426.785	3.16
426.99	3.13
427.195	3.05
427.4	3.06
427.605	3.12
427.811	3.05
428.016	3.07
428.221	3.11
428.426	3.13
428.631	3.07
428.836	3.13
429.041	3.02
429.246	2.89
429.451	2.91
429.656	2.9
429.861	2.75
430.066	2.73
430.271	2.78
430.476	2.68
430.681	2.6
430.886	2.75
431.09	2.71
431.295	2.8
431.5	2.86
431.705	2.84
431.91	2.83
432.115	2.9
432.32	3
432.524	3.02
432.729	3.08
432.934	3.11
433.139	3.01
433.343	3.13
433.548	3.13
433.753	3.16
433.958	3.1
434.162	3.11
434.367	3.15
434.572	3.16
434.776	3.09
434.981	3.13
435.186	3.2
435.39	3.18
435.595	3.09
435.799	3.05
436.004	3.06
436.209	3.07
436.413	3.1
436.618	2.96
436.822	2.85
437.027	2.84
437.231	2.77
437.436	2.64
437.64	2.73
437.845	2.77
438.049	2.72
438.253	2.71
438.458	2.76
438.662	2.78
438.867	2.77
439.071	2.79
439.275	2.81
439.48	2.87
439.684	2.92
439.888	2.86
440.093	2.83
440.297	2.83
440.501	2.75
440.706	2.67
440.91	2.63
441.114	2.69
441.318	2.65
441.523	2.71
441.727	2.65
441.931	2.66
442.135	2.63
442.339	2.69
442.543	2.68
442.748	2.73
442.952	2.76
443.156	2.81
443.36	2.82
443.564	2.91
443.768	2.76
443.972	2.86
444.176	2.77
444.38	2.85
444.584	2.8
444.788	2.84
444.992	2.91
445.196	2.86
445.4	2.8
445.604	2.84
445.808	2.78
446.012	2.85
446.216	2.84
446.42	3
446.624	2.94
446.828	2.97
447.032	2.93
447.235	2.87
447.439	2.95
447.643	2.99
447.847	2.94
448.051	2.91
448.254	2.85
448.458	2.83
448.662	2.69
448.866	2.68
449.069	2.63
449.273	2.63
449.477	2.49
449.681	2.54
449.884	2.59
450.088	2.7
450.292	2.66
450.495	2.73
450.699	2.77
450.902	2.85
451.106	2.77
451.31	2.8
451.513	2.83
451.717	2.84
451.92	2.68
452.124	2.66
452.327	2.52
452.531	2.6
452.734	2.62
452.938	2.47
453.141	2.43
453.345	2.35
453.548	2.21
453.752	2.22
453.955	2.32
454.158	2.32
454.362	2.3
454.565	2.35
454.769	2.36
454.972	2.34
455.175	2.29
455.379	2.34
455.582	2.5
455.785	2.62
455.988	2.62
456.192	2.61
456.395	2.61
456.598	2.61
456.801	2.62
457.005	2.56
457.208	2.49
457.411	2.67
457.614	2.67
457.817	2.67
458.021	2.68
458.224	2.63
458.427	2.68
458.63	2.79
458.833	2.76
459.036	2.78
459.239	2.76
459.442	2.8
459.645	2.68
459.848	2.64
460.051	2.67
460.254	2.69
460.457	2.67
460.66	2.63
460.863	2.5
461.066	2.45
461.269	2.45
461.472	2.44
461.675	2.48
461.878	2.66
462.081	2.65
462.284	2.57
462.486	2.56
462.689	2.57
462.892	2.51
463.095	2.61
463.298	2.66
463.5	2.53
463.703	2.67
463.906	2.65
464.109	2.59
464.311	2.63
464.514	2.65
464.717	2.63
464.92	2.66
465.122	2.73
465.325	2.67
465.528	2.61
465.73	2.73
465.933	2.71
466.135	2.69
466.338	2.58
466.541	2.6
466.743	2.65
466.946	2.63
467.148	2.78
467.351	2.66
467.553	2.68
467.756	2.84
467.958	2.87
468.161	2.77
468.363	2.85
468.566	2.97
468.768	3.03
468.971	3.01
469.173	2.96
469.375	2.83
469.578	2.95
469.78	2.95
469.983	2.89
470.185	2.89
470.387	3.01
470.59	3.02
470.792	2.94
470.994	2.93
471.196	2.86
471.399	2.97
471.601	2.97
471.803	2.98
472.005	3.03
472.208	3.03
472.41	3.04
472.612	2.92
472.814	2.81
473.016	2.93
473.218	2.8
473.421	2.75
473.623	2.69
473.825	2.64
474.027	2.58
474.229	2.56
474.431	2.46
474.633	2.45
474.835	2.68
475.037	2.83
475.239	2.72
475.441	2.78
475.643	2.83
475.845	2.81
476.047	2.9
476.249	2.9
476.451	2.95
476.653	2.91
476.855	2.92
477.057	2.77
477.258	2.64
477.46	2.68
477.662	2.7
477.864	2.7
478.066	2.82
478.268	2.77
478.469	2.75
478.671	2.68
478.873	2.83
479.075	2.87
479.276	2.85
479.478	2.84
479.68	2.84
479.882	2.83
480.083	2.86
480.285	2.81
480.487	2.8
480.688	2.81
480.89	2.79
481.091	2.74
481.293	2.72
481.495	2.73
481.696	2.75
481.898	2.74
482.099	2.76
482.301	2.77
482.502	2.77
482.704	2.78
482.905	2.78
483.107	2.78
483.308	2.78
483.51	2.79
483.711	2.78
483.913	2.79
484.114	2.82
484.315	2.76
484.517	2.75
484.718	2.75
484.92	2.78
485.121	2.76
485.322	2.74
485.524	2.75
485.725	2.73
485.926	2.76
486.127	2.77
486.329	2.75
486.53	2.77
486.731	2.75
486.932	2.78
487.134	2.74
487.335	2.76
487.536	2.79
487.737	2.79
487.938	2.83
488.139	2.82
488.341	2.8
488.542	2.83
488.743	2.84
488.944	2.85
489.145	2.82
489.346	2.79
489.547	2.84
489.748	2.83
489.949	2.83
490.15	2.8
490.351	2.82
490.552	2.8
490.753	2.79
490.954	2.75
491.155	2.75
491.356	2.72
491.557	2.76
491.758	2.71
491.959	2.65
492.159	2.64
492.36	2.67
492.561	2.6
492.762	2.64
492.963	2.6
493.164	2.69
493.364	2.73
493.565	2.84
493.766	2.84
493.967	2.89
494.167	3.06
494.368	3.07
494.569	3.02
494.769	3.09
494.97	3
495.171	3.04
495.371	3.06
495.572	3.07
495.773	2.97
495.973	2.99
496.174	3.04
496.375	3.02
496.575	2.97
496.776	3.01
496.976	2.97
497.177	3.06
497.377	3.1
497.578	3.06
497.778	2.99
497.979	3.06
498.179	3.08
498.38	3.05
498.58	3.03
498.78	3.02
498.981	2.95
499.181	2.89
499.382	2.85
499.582	2.84
499.782	2.85
499.983	2.94
500.183	2.9
500.383	2.85
500.584	2.85
500.784	2.84
500.984	2.87
501.184	2.96
501.385	3.12
501.585	3.11
501.785	3.09
501.985	3.07
502.185	3.04
502.386	3.05
502.586	3.07
502.786	3.12
502.986	3.13
503.186	3.18
503.386	3.13
503.586	3.09
503.786	3.14
503.987	3.23
504.187	3.25
504.387	3.29
504.587	3.3
504.787	3.34
504.987	3.31
505.187	3.31
505.387	3.35
505.587	3.45
505.786	3.42
505.986	3.38
506.186	3.32
506.386	3.4
506.586	3.51
506.786	3.6
506.986	3.59
507.186	3.58
507.386	3.69
507.585	3.64
507.785	3.64
507.985	3.73
508.185	3.75
508.384	3.74
508.584	3.79
508.784	3.65
508.984	3.62
509.183	3.64
509.383	3.66
509.583	3.62
509.782	3.65
509.982	3.68
510.182	3.66
510.381	3.72
510.581	3.7
510.781	3.69
510.98	3.73
511.18	3.76
511.379	3.84
511.579	3.9
511.778	3.86
511.978	3.89
512.177	3.9
512.377	3.95
512.576	3.9
512.776	3.94
512.975	3.84
513.175	3.94
513.374	3.95
513.573	3.83
513.773	3.76
513.972	3.84
514.172	3.83
514.371	3.85
514.57	3.8
514.77	3.81
514.969	3.86
515.168	3.9
515.367	3.85
515.567	3.84
515.766	3.91
515.965	3.94
516.164	3.91
516.364	3.92
516.563	3.85
516.762	3.92
516.961	3.99
517.16	3.97
517.359	3.99
517.559	4
517.758	4
517.957	4
518.156	4.06
518.355	4.09
518.554	4.07
518.753	4.06
518.952	4.03
519.151	4.09
519.35	4.11
519.549	4.14
519.748	4.1
519.947	4.05
520.146	4.03
520.345	4.02
520.544	4.09
520.743	4.13
520.942	4.22
521.141	4.3
521.339	4.21
521.538	4.22
521.737	4.2
521.936	4.3
522.135	4.44
522.333	4.47
522.532	4.45
522.731	4.38
522.93	4.39
523.129	4.41
523.327	4.36
523.526	4.42
523.725	4.39
523.923	4.44
524.122	4.45
524.321	4.37
524.519	4.42
524.718	4.46
524.917	4.49
525.115	4.52
525.314	4.5
525.512	4.52
525.711	4.47
525.909	4.51
526.108	4.52
526.306	4.5
526.505	4.54
526.703	4.51
526.902	4.52
527.1	4.5
527.299	4.5
527.497	4.53
527.696	4.53
527.894	4.54
528.092	4.55
528.291	4.56
528.489	4.58
528.688	4.6
528.886	4.62
529.084	4.65
529.283	4.71
529.481	4.7
529.679	4.71
529.877	4.73
530.076	4.78
530.274	4.77
530.472	4.78
530.67	4.78
530.869	4.81
531.067	4.83
531.265	4.83
531.463	4.83
531.661	4.77
531.859	4.79
532.057	4.78
532.255	4.8
532.454	4.88
532.652	4.87
532.85	4.93
533.048	4.94
533.246	4.94
533.444	4.97
533.642	5.02
533.84	5.13
534.038	5.14
534.236	5.24
534.434	5.24
534.632	5.23
534.83	5.29
535.027	5.29
535.225	5.3
535.423	5.36
535.621	5.32
535.819	5.3
536.017	5.32
536.215	5.32
536.412	5.32
536.61	5.38
536.808	5.38
537.006	5.3
537.203	5.3
537.401	5.29
537.599	5.32
537.797	5.39
537.994	5.43
538.192	5.48
538.39	5.46
538.587	5.48
538.785	5.45
538.983	5.47
539.18	5.56
539.378	5.59
539.575	5.61
539.773	5.58
539.97	5.57
540.168	5.57
540.366	5.58
540.563	5.64
540.761	5.64
540.958	5.67
541.155	5.68
541.353	5.67
541.55	5.7
541.748	5.74
541.945	5.77
542.143	5.85
542.34	5.87
542.537	5.86
542.735	5.86
542.932	5.84
543.129	5.87
543.327	5.88
543.524	5.94
543.721	5.9
543.919	5.9
544.116	5.92
544.313	5.91
544.51	5.9
544.708	5.96
544.905	6.06
545.102	6.13
545.299	6.13
545.496	6.19
545.693	6.26
545.891	6.34
546.088	6.33
546.285	6.35
546.482	6.37
546.679	6.45
546.876	6.49
547.073	6.46
547.27	6.41
547.467	6.49
547.664	6.41
547.861	6.32
548.058	6.36
548.255	6.43
548.452	6.51
548.649	6.56
548.846	6.58
549.043	6.62
549.24	6.58
549.437	6.7
549.633	6.68
549.83	6.86
550.027	6.87
550.224	6.92
550.421	6.98
550.618	6.98
550.814	7.07
551.011	7.15
551.208	7.13
551.405	7.26
551.601	7.18
551.798	7.18
551.995	7.21
552.191	7.31
552.388	7.3
552.585	7.3
552.781	7.28
552.978	7.14
553.175	7.13
553.371	7.18
553.568	7.16
553.764	7.24
553.961	7.3
554.157	7.32
554.354	7.38
554.55	7.48
554.747	7.57
554.943	7.71
555.14	7.84
555.336	7.92
555.533	7.91
555.729	8.03
555.926	8.14
556.122	8.23
556.318	8.24
556.515	8.21
556.711	8.19
556.907	8.23
557.104	8.27
557.3	8.29
557.496	8.27
557.693	8.35
557.889	8.25
558.085	8.27
558.281	8.27
558.478	8.36
558.674	8.47
558.87	8.53
559.066	8.57
559.262	8.63
559.459	8.64
559.655	8.73
559.851	8.82
560.047	8.99
560.243	9.02
560.439	9.15
560.635	9.18
560.831	9.22
561.027	9.2
561.223	9.31
561.419	9.31
561.615	9.28
561.811	9.36
562.007	9.3
562.203	9.39
562.399	9.63
562.595	9.52
562.791	9.6
562.987	9.63
563.183	9.67
563.379	9.64
563.575	9.72
563.771	9.83
563.966	9.86
564.162	9.94
564.358	9.94
564.554	9.96
564.75	10.07
564.945	10.07
565.141	10.07
565.337	10.15
565.533	10.17
565.728	10.19
565.924	10.21
566.12	10.18
566.315	10.2
566.511	10.18
566.707	10.15
566.902	10.13
567.098	10.2
567.293	10.26
567.489	10.29
567.684	10.42
567.88	10.49
568.076	10.6
568.271	10.77
568.467	10.79
568.662	10.92
568.858	10.89
569.053	10.91
569.248	10.97
569.444	11.06
569.639	11.13
569.835	11.22
570.03	11.27
570.225	11.35
570.421	11.39
570.616	11.52
570.812	11.64
571.007	11.88
571.202	12.02
571.397	12.06
571.593	12.04
571.788	12.1
571.983	12.07
572.178	12.11
572.374	12.19
572.569	12.16
572.764	12.13
572.959	12.05
573.154	11.92
573.35	11.98
573.545	12.07
573.74	12.19
573.935	12.15
574.13	12.21
574.325	12.16
574.52	12.15
574.715	12.24
574.91	12.31
575.105	12.35
575.3	12.4
575.495	12.47
575.69	12.36
575.885	12.29
576.08	12.3
576.275	12.25
576.47	12.36
576.665	12.43
576.86	12.43
577.055	12.49
577.25	12.49
577.444	12.48
577.639	12.34
577.834	12.47
578.029	12.58
578.224	12.7
578.418	12.75
578.613	12.71
578.808	12.71
579.003	12.63
579.197	12.62
579.392	12.71
579.587	12.74
579.781	12.74
579.976	12.76
580.171	12.8
580.365	12.83
580.56	12.95
580.755	12.97
580.949	13.01
581.144	13.14
581.338	13.18
581.533	13.21
581.727	13.31
581.922	13.45
582.116	13.44
582.311	13.45
582.505	13.51
582.7	13.53
582.894	13.57
583.089	13.64
583.283	13.75
583.478	13.78
583.672	13.83
583.866	13.87
584.061	13.79
584.255	13.9
584.449	13.95
584.644	13.97
584.838	13.95
585.032	14.08
585.226	13.96
585.421	13.77
585.615	13.65
585.809	13.63
586.003	13.65
586.198	13.82
586.392	13.83
586.586	13.86
586.78	13.99
586.974	14.14
587.168	14.15
587.363	14.13
587.557	14.29
587.751	14.59
587.945	14.65
588.139	14.73
588.333	14.65
588.527	14.67
588.721	14.6
588.915	14.53
589.109	14.52
589.303	14.45
589.497	14.65
589.691	14.58
589.885	14.4
590.079	14.41
590.273	14.38
590.466	14.41
590.66	14.4
590.854	14.64
591.048	14.67
591.242	14.52
591.436	14.59
591.629	14.46
591.823	14.48
592.017	14.65
592.211	14.59
592.404	14.66
592.598	14.73
592.792	14.78
592.986	14.69
593.179	14.78
593.373	14.81
593.567	14.78
593.76	14.79
593.954	14.91
594.147	14.97
594.341	15.03
594.535	14.92
594.728	14.86
594.922	14.88
595.115	15.02
595.309	14.96
595.502	15.08
595.696	15.2
595.889	15.26
596.083	15.21
596.276	15.11
596.47	15.15
596.663	15.28
596.856	15.39
597.05	15.39
597.243	15.32
597.437	15.37
597.63	15.32
597.823	15.28
598.017	15.28
598.21	15.32
598.403	15.42
598.596	15.45
598.79	15.53
598.983	15.39
599.176	15.31
599.369	15.31
599.563	15.25
599.756	15.34
599.949	15.34
600.142	15.33
600.335	15.47
600.528	15.48
600.722	15.32
600.915	15.31
601.108	15.36
601.301	15.53
601.494	15.54
601.687	15.56
601.88	15.54
602.073	15.55
602.266	15.6
602.459	15.51
602.652	15.46
602.845	15.56
603.038	15.51
603.231	15.6
603.424	15.54
603.617	15.51
603.809	15.61
604.002	15.57
604.195	15.58
604.388	15.66
604.581	15.73
604.774	15.81
604.966	15.89
605.159	15.91
605.352	15.95
605.545	15.96
605.737	15.94
605.93	15.93
606.123	16.14
606.316	16.24
606.508	16.11
606.701	16.09
606.894	16.12
607.086	16.07
607.279	16.04
607.471	15.86
607.664	15.99
607.857	16.09
608.049	15.95
608.242	15.95
608.434	15.9
608.627	15.99
608.819	15.92
609.012	15.89
609.204	15.97
609.397	16.18
609.589	16.31
609.782	16.29
609.974	16.29
610.166	16.34
610.359	16.19
610.551	16.14
610.743	16.22
610.936	16.23
611.128	16.19
611.32	16.02
611.513	15.75
611.705	15.88
611.897	15.91
612.09	15.92
612.282	16.22
612.474	16.34
612.666	16.39
612.858	16.24
613.051	16.31
613.243	16.31
613.435	16.47
613.627	16.53
613.819	16.56
614.011	16.59
614.203	16.52
614.395	16.13
614.588	16.11
614.78	16.1
614.972	16.1
615.164	16.08
615.356	16.29
615.548	16.25
615.74	16.32
615.932	16.09
616.124	16.11
616.315	16.12
616.507	16.34
616.699	16.25
616.891	16.13
617.083	16.2
617.275	16.07
617.467	15.99
617.659	16.26
617.85	16.35
618.042	16.48
618.234	16.45
618.426	16.55
618.618	16.51
618.809	16.51
619.001	16.67
619.193	16.68
619.384	16.97
619.576	16.93
619.768	16.66
619.959	16.57
620.151	16.48
620.343	16.53
620.534	16.34
620.726	16.36
620.917	16.6
621.109	16.63
621.301	16.7
621.492	16.82
621.684	16.91
621.875	16.83
622.067	16.91
622.258	16.86
622.45	17.02
622.641	16.95
622.832	16.86
623.024	16.8
623.215	16.9
623.407	16.98
623.598	16.79
623.789	16.87
623.981	17
624.172	17.04
624.363	17.17
624.555	17.01
624.746	17.2
624.937	17.37
625.129	17.19
625.32	17.3
625.511	17.23
625.702	17.34
625.893	17.24
626.085	17.26
626.276	17.24
626.467	17.16
626.658	17.11
626.849	17.2
627.04	17.2
627.231	17.43
627.422	17.26
627.614	17.31
627.805	17.3
627.996	17.31
628.187	17.28
628.378	17.25
628.569	17.32
628.76	17.38
628.951	17.27
629.142	17.21
629.332	17.14
629.523	17.19
629.714	17.16
629.905	17.08
630.096	17.16
630.287	17.23
630.478	17.15
630.669	17.16
630.859	17.07
631.05	17.12
631.241	17.28
631.432	17.25
631.623	17.19
631.813	17.09
632.004	17.07
632.195	17.06
632.385	17
632.576	16.96
632.767	16.87
632.957	16.89
633.148	16.73
633.339	16.56
633.529	16.48
633.72	16.53
633.91	16.67
634.101	16.74
634.292	16.63
634.482	16.73
634.673	16.68
634.863	16.77
635.054	16.89
635.244	16.92
635.435	17.04
635.625	17.04
635.815	17.07
636.006	17.23
636.196	17.1
636.387	17
636.577	17
636.767	16.92
636.958	16.93
637.148	16.9
637.338	17.03
637.529	16.89
637.719	17.01
637.909	17.02
638.099	16.8
638.29	16.84
638.48	17.01
638.67	16.87
638.86	17.16
639.05	17.3
639.241	17.13
639.431	17.1
639.621	17.09
639.811	17.1
640.001	17.13
640.191	17.24
640.381	17.33
640.571	17.49
640.761	17.75
640.951	18
641.141	17.91
641.331	18.09
641.521	18.37
641.711	18.45
641.901	18.65
642.091	18.73
642.281	18.54
642.471	18.53
642.661	18.32
642.851	18.28
643.041	17.9
643.231	18.07
643.42	18.04
643.61	17.63
643.8	17.79
643.99	17.6
644.18	17.37
644.369	17.51
644.559	17.6
644.749	17.59
644.939	17.57
645.128	17.73
645.318	17.61
645.508	17.89
645.697	18
645.887	18.02
646.076	18
646.266	18.08
646.456	18
646.645	17.85
646.835	18.06
647.024	18.22
647.214	18.13
647.403	18.19
647.593	18
647.782	18.06
647.972	17.86
648.161	17.82
648.351	17.93
648.54	17.94
648.73	17.99
648.919	18.01
649.108	17.91
649.298	18.06
649.487	17.93
649.677	17.96
649.866	18.03
650.055	18.06
650.244	18.09
650.434	17.92
650.623	17.95
650.812	18.03
651.002	18.08
651.191	18
651.38	17.99
651.569	18.17
651.758	18.03
651.947	18.1
652.137	18.09
652.326	18.16
652.515	18.25
652.704	18.19
652.893	18.18
653.082	17.98
653.271	17.97
653.46	17.8
653.649	17.85
653.838	18.18
654.027	18.18
654.216	18.36
654.405	18.33
654.594	18.43
654.783	18.61
654.972	18.62
655.161	18.83
655.35	18.94
655.539	19.18
655.728	18.9
655.916	18.68
656.105	18.64
656.294	18.62
656.483	18.42
656.672	18.35
656.86	18.26
657.049	18.17
657.238	18.01
657.427	17.87
657.615	17.75
657.804	17.94
657.993	17.98
658.181	18.03
658.37	17.92
658.559	18.08
658.747	18.09
658.936	18.23
659.125	18.41
659.313	18.46
659.502	18.57
659.69	18.51
659.879	18.44
660.067	18.47
660.256	18.37
660.444	18.42
660.633	18.48
660.821	18.6
661.01	18.45
661.198	18.32
661.387	18.51
661.575	18.44
661.763	18.6
661.952	18.73
662.14	18.66
662.328	18.58
662.517	18.46
662.705	18.4
662.893	18.26
663.082	18.31
663.27	18.23
663.458	18.06
663.646	18.15
663.834	18.13
664.023	17.84
664.211	17.84
664.399	18.31
664.587	18.43
664.775	18.17
664.963	18.1
665.152	17.98
665.34	17.98
665.528	17.96
665.716	17.81
665.904	17.82
666.092	18.05
666.28	18.2
666.468	18.03
666.656	18.2
666.844	18.36
667.032	18.47
667.22	18.82
667.408	18.82
667.596	18.89
667.784	19.1
667.971	19.32
668.159	19.12
668.347	19.12
668.535	18.76
668.723	18.71
668.911	18.99
669.098	18.94
669.286	18.53
669.474	18.53
669.662	18.54
669.849	18.69
670.037	18.32
670.225	18.51
670.413	18.22
670.6	18.65
670.788	18.68
670.976	18.49
671.163	18.81
671.351	18.98
671.538	19.37
671.726	19.18
671.913	18.82
672.101	19.12
672.289	19.26
672.476	19.47
672.664	19.17
672.851	19.14
673.039	19.15
673.226	18.8
673.413	18.97
673.601	18.66
673.788	18.57
673.976	18.74
674.163	18.53
674.35	18.62
674.538	18.91
674.725	19.34
674.912	19.22
675.1	19.38
675.287	19.52
675.474	19.49
675.662	19.51
675.849	19.76
676.036	19.55
676.223	19.61
676.411	19.53
676.598	19.1
676.785	18.85
676.972	18.81
677.159	18.66
677.346	18.68
677.533	18.78
677.721	18.61
677.908	18.56
678.095	18.67
678.282	18.7
678.469	18.6
678.656	18.73
678.843	18.72
679.03	18.57
679.217	18.54
679.404	18.49
679.591	18.62
679.778	18.68
679.964	18.64
680.151	18.59
680.338	18.59
680.525	18.77
680.712	18.62
680.899	18.43
681.086	18.7
681.272	18.9
681.459	18.72
681.646	18.41
681.833	18.61
682.02	18.55
682.206	18.7
682.393	18.85
682.58	18.47
682.766	18.69
682.953	19.03
683.14	19.16
683.326	19.02
683.513	19.31
683.7	19.02
683.886	19.03
684.073	19.02
684.259	18.94
684.446	18.97
684.632	19.19
684.819	19.22
685.005	19.12
685.192	18.99
685.378	19.15
685.565	19.09
685.751	19.56
685.938	19.58
686.124	19.47
686.31	19.49
686.497	19.52
686.683	19.57
686.87	19.46
687.056	19.22
687.242	19.28
687.429	19.09
687.615	19.13
687.801	18.98
687.987	18.93
688.174	19.19
688.36	19.26
688.546	19.15
688.732	19.06
688.918	19.59
689.105	19.69
689.291	19.69
689.477	19.86
689.663	19.76
689.849	19.64
690.035	19.73
690.221	19.78
690.407	19.73
690.593	19.63
690.779	19.66
690.965	19.31
691.151	19.72
691.337	19.78
691.523	19.62
691.709	19.85
691.895	20.04
692.081	19.89
692.267	19.84
692.453	20.06
692.639	20.28
692.825	20.28
693.011	20.27
693.196	19.73
693.382	19.49
693.568	19.51
693.754	19.46
693.94	19.32
694.125	19.29
694.311	19.45
694.497	19.23
694.682	19.25
694.868	19.24
695.054	19.13
695.239	19.21
695.425	19.2
695.611	19.11
695.796	19.19
695.982	19.45
696.168	19.62
696.353	19.54
696.539	19.71
696.724	19.6
696.91	19.49
697.095	19.75
697.281	19.85
697.466	19.89
697.652	20.12
697.837	19.97
698.023	19.79
698.208	19.86
698.393	19.8
698.579	19.7
698.764	19.73
698.949	19.85
699.135	19.69
699.32	19.6
699.505	19.73
699.691	19.58
699.876	19.9
700.061	20.01
700.246	19.92
700.432	20.03
700.617	20.27
700.802	20.43
700.987	20.29
701.172	20.19
701.358	20.55
701.543	20.57
701.728	20.66
701.913	20.04
702.098	20.07
702.283	19.96
702.468	19.88
702.653	19.23
702.838	19.02
703.023	19.08
703.208	18.94
703.393	19.01
703.578	18.62
703.763	18.54
703.948	19.07
704.133	18.81
704.318	18.65
704.503	18.59
704.688	18.89
704.873	18.76
705.057	18.98
705.242	18.81
705.427	18.64
705.612	18.75
705.797	18.83
705.981	18.75
706.166	19.03
706.351	18.98
706.536	19.32
706.72	19.26
706.905	19.16
707.09	19.14
707.274	19.56
707.459	19.33
707.644	19.46
707.828	19.34
708.013	18.99
708.197	19.3
708.382	19.36
708.567	19.09
708.751	18.93
708.936	18.73
709.12	18.78
709.305	18.69
709.489	18.91
709.673	19.3
709.858	19.38
710.042	19.7
710.227	19.26
710.411	19.37
710.596	19.13
710.78	19.28
710.964	19.59
711.149	19.76
711.333	19.73
711.517	19.64
711.702	19.52
711.886	19.44
712.07	19.2
712.254	19.12
712.438	19.13
712.623	19.45
712.807	19.46
712.991	19.72
713.175	19.52
713.359	19.49
713.544	19.58
713.728	19.13
713.912	19.04
714.096	19.27
714.28	19.43
714.464	19.64
714.648	19.53
714.832	19.75
715.016	19.37
715.2	19.77
715.384	19.99
715.568	20.21
715.752	20.67
715.936	21.02
716.12	20.87
716.304	20.77
716.488	20.53
716.671	20.49
716.855	20.57
717.039	20.41
717.223	19.92
717.407	19.89
717.59	19.54
717.774	19.66
717.958	19.46
718.142	19.82
718.325	19.81
718.509	20.13
718.693	20.31
718.877	19.68
719.06	20.27
719.244	20.53
719.428	20.82
719.611	20.47
719.795	20.21
719.978	20.05
720.162	20.08
720.345	20.47
720.529	19.96
720.713	19.71
720.896	20.07
721.08	19.95
721.263	19.75
721.446	19.15
721.63	19.77
721.813	19.56
721.997	19.88
722.18	19.48
722.364	18.47
722.547	18.79
722.73	19.13
722.914	19.18
723.097	18.74
723.28	18.22
723.464	18.17
723.647	17.99
723.83	17.99
724.013	17.78
724.197	18.07
724.38	18.7
724.563	18.51
724.746	18.09
724.929	18.38
725.112	18.82
725.296	19.21
725.479	19.22
725.662	19.1
725.845	18.91
726.028	19.11
726.211	19.2
726.394	19.38
726.577	19.22
726.76	19.54
726.943	19.21
727.126	19.45
727.309	19.26
727.492	19.43
727.675	19.49
727.858	19.73
728.041	19.74
728.224	19.48
728.407	19.56
728.589	20.03
728.772	20.39
728.955	20.38
729.138	20.26
729.321	20.33
729.503	20.4
729.686	20.56
729.869	20.49
730.052	20.56
730.234	20.68
730.417	20.7
730.6	20.49
730.782	20.02
730.965	20.24
731.148	20.11
731.33	19.86
731.513	20.13
731.695	19.96
731.878	20.4
732.061	19.94
732.243	19.9
732.426	19.92
732.608	20.01
732.791	20.2
732.973	19.71
733.156	19.31
733.338	19.87
733.52	19.49
733.703	19.62
733.885	19.09
734.068	19.44
734.25	20.15
734.432	20.03
734.615	20.03
734.797	20.05
734.979	20.3
735.162	20.93
735.344	20.73
735.526	20.62
735.708	20.58
735.891	21.03
736.073	21.4
736.255	20.37
736.437	20.42
736.619	20.29
736.802	20.03
736.984	19.92
737.166	19.33
737.348	19.2
737.53	19.06
737.712	18.77
737.894	18.42
738.076	18.15
738.258	18.28
738.44	18.02
738.622	17.77
738.804	17.49
738.986	18.13
739.168	18.24
739.35	18.42
739.532	18.7
739.714	19.22
739.896	19.36
740.078	19.05
740.259	19.12
740.441	18.98
740.623	19.11
740.805	19.76
740.987	19.45
741.168	19.53
741.35	19.39
741.532	19.12
741.714	18.74
741.895	18.5
742.077	18.3
742.259	18.47
742.44	18.51
742.622	18.18
742.804	18.06
742.985	18.05
743.167	18.41
743.348	18.41
743.53	18.39
743.711	18.02
743.893	18.58
744.075	19.23
744.256	19.09
744.438	19.12
744.619	19.91
744.8	19.45
744.982	19.7
745.163	19.34
745.345	19.96
745.526	20.67
745.707	21.18
745.889	20.5
746.07	20.62
746.252	20.72
746.433	20.39
746.614	20.1
746.795	20.66
746.977	19.93
747.158	19.72
747.339	19.3
747.52	19.08
747.702	19
747.883	19.43
748.064	19.25
748.245	18.77
748.426	19.15
748.607	19.41
748.788	19.12
748.97	19.99
749.151	20.69
749.332	20.72
749.513	20.81
749.694	20.62
749.875	20.34
750.056	20.14
750.237	20.07
750.418	20.64
750.599	20.53
750.78	20.72
750.96	20.55
751.141	20.1
751.322	20
751.503	20.2
751.684	20.43
751.865	20.27
752.046	20.18
752.226	20.61
752.407	20.29
752.588	20.04
752.769	19.84
752.949	20.21
753.13	21.08
753.311	21.05
753.492	21.03
753.672	21.05
753.853	21.18
754.034	20.8
754.214	21.15
754.395	21.37
754.575	21.1
754.756	20.9
754.937	21.08
755.117	20.31
755.298	20.03
755.478	19.58
755.659	19.78
755.839	19.96
756.02	20.55
756.2	19.71
756.381	19.74
756.561	20.09
756.741	20.51
756.922	19.89
757.102	19.59
757.283	20.09
757.463	20.35
757.643	20.16
757.823	20.75
758.004	20.26
758.184	20.77
758.364	20.7
758.545	21.15
758.725	20.64
758.905	20.89
759.085	21.08
759.265	20.54
759.446	20.45
759.626	20.77
759.806	20.5
759.986	20.67
760.166	20.13
760.346	19.73
760.526	19.47
760.706	19.77
760.886	18.82
761.066	19.61
761.246	20.16
761.426	20.08
761.606	19.67
761.786	19.49
761.966	19.67
762.146	20.14
762.326	19.76
762.506	19.96
762.686	19.92
762.866	20.4
763.046	20.29
763.225	19.99
763.405	19.92
763.585	20.38
763.765	20.27
763.945	20.78
764.124	20.91
764.304	21.48
764.484	21.26
764.664	21.4
764.843	21.43
765.023	20.84
765.203	21.02
765.382	21.43
765.562	21.11
765.741	21.26
765.921	20.27
766.101	20.2
766.28	20.75
766.46	20.97
766.639	21.46
766.819	21.81
766.998	22.25
767.178	22.44
767.357	21.87
767.537	22.02
767.716	21.85
767.896	22.33
768.075	22.04
768.254	22.15
768.434	22.31
768.613	21.45
768.792	20.78
768.972	20.9
769.151	20.45
769.33	20.67
769.51	20.63
769.689	21.2
769.868	20.76
770.047	21.33
770.226	21.24
770.406	20.94
770.585	21.91
770.764	22.38
770.943	22.53
771.122	22.95
771.301	22.99
771.48	22.76
771.66	22.14
771.839	22.37
772.018	22.44
772.197	21.61
772.376	21.41
772.555	20.49
772.734	20.13
772.913	19.89
773.092	20.63
773.271	19.82
773.449	19.9
773.628	20.36
773.807	20.79
773.986	19.86
774.165	20.51
774.344	20.43
774.523	19.85
774.701	20.3
774.88	21.08
775.059	20.29
775.238	20.75
775.417	21.11
775.595	20.74
775.774	20.43
775.953	21.06
776.131	20.16
776.31	19.88
776.489	20.67
776.667	19.76
776.846	19.43
777.025	18.96
777.203	19.76
777.382	19.45
777.56	19.79
777.739	19.57
777.917	19.35
778.096	20.14
778.274	20.24
778.453	20.78
778.631	20.53
778.81	19.94
778.988	19.87
779.166	18.52
779.345	18.75
779.523	18.01
779.702	18.47
779.88	18.01
780.058	16.56
780.237	17.57
780.415	16.7
780.593	17.77
780.771	18.18
780.95	19.43
781.128	20.01
781.306	19.33
781.484	19.77
781.662	18.89
781.841	19.13
782.019	19.07
782.197	18.95
782.375	19.86
782.553	19.32
782.731	19.46
782.909	18.51
783.087	18.77
783.265	19.29
783.443	18.76
783.621	19.18
783.799	18.92
783.977	20.15
784.155	19.88
784.333	18.84
784.511	19.67
784.689	18.83
784.867	18.79
785.045	19
785.223	19.18
785.4	19.99
785.578	20.86
785.756	21.17
785.934	21.11
786.112	21
786.289	21.67
786.467	21.93
786.645	22.29
786.823	22.37
787	22.09
787.178	21.57
787.356	21.84
787.533	20.99
787.711	21
787.889	21.52
788.066	21.31
788.244	21.2
788.421	20.76
788.599	20.74
788.776	20.46
788.954	20.62
789.131	20.79
789.309	20.96
789.486	21.91
789.664	22.06
789.841	21.92
790.019	21.26
790.196	21.56
790.373	21.42
790.551	21.93
790.728	21.98
790.906	22
791.083	22.83
791.26	22.09
791.437	21.35
791.615	22.18
791.792	21.24
791.969	22.65
792.146	22.48
792.324	23.04
792.501	21.82
792.678	22.25
792.855	22.06
793.032	21.54
793.209	21.91
793.387	21.52
793.564	20.21
793.741	20.63
793.918	19.8
794.095	20.66
794.272	20.03
794.449	20.52
794.626	20.27
794.803	20.54
794.98	20.43
795.157	19.1
795.334	19.68
795.511	19.42
795.688	19.1
795.864	19.81
796.041	19.59
796.218	19.86
796.395	19.88
796.572	20.36
796.749	20.95
796.925	21.55
797.102	22.84
797.279	23.05
797.456	23.56
797.632	22.69
797.809	21.26
797.986	20.29
798.162	20.18
798.339	20.14
798.516	19.82
798.692	18.35
798.869	17.38
799.046	17.64
799.222	17.23
799.399	16.12
799.575	17.19
799.752	18.28
799.928	17.97
800.105	17.58
800.281	17.45
800.458	17.94
800.634	18.26
800.811	18.14
800.987	18.58
801.163	19.39
801.34	20.2
801.516	20.29
801.692	20.69
801.869	21.35
802.045	21.31
802.221	21.44
802.398	20.42
802.574	20.85
802.75	22.7
802.926	21.13
803.103	20.64
803.279	21.33
803.455	21.61
803.631	20.48
803.807	20.31
803.983	20.26
804.16	19.91
804.336	18.93
804.512	18.43
804.688	17.98
804.864	18.24
805.04	17.74
805.216	17.47
805.392	17.24
805.568	18.74
805.744	17.89
805.92	17.67
806.096	16.75
806.272	19.42
806.448	19.66
806.623	19.05
806.799	19.1
806.975	19.55
807.151	19.14
807.327	18.85
807.503	17.44
807.678	18.91
807.854	19.34
808.03	20.05
808.206	18.62
808.381	19.65
808.557	19.33
808.733	20.07
808.908	20.19
809.084	20.41
809.26	19.98
809.435	21.34
809.611	20.3
809.787	19.61
809.962	18.37
810.138	18.63
810.313	18.5
810.489	18.82
810.664	19.03
810.84	19.09
811.015	18.73
811.191	18.73
811.366	17.94
811.542	19.41
811.717	19.35
811.892	20.22
812.068	19.86
812.243	19.18
812.419	18.63
812.594	17.67
812.769	17.44
812.944	18.4
813.12	18.29
813.295	18.35
813.47	16.95
813.645	18.01
813.821	18.46
813.996	19.32
814.171	20.62
814.346	20.72
814.521	21.12
814.697	21.08
814.872	21.21
815.047	22.6
815.222	22.94
815.397	22.54
815.572	22.57
815.747	23.29
815.922	22.28
816.097	21.6
816.272	20.75
816.447	21.6
816.622	21.91
816.797	21.59
816.972	21.58
817.147	20.5
817.322	21.49
817.496	20.03
817.671	19.2
817.846	19.91
818.021	19.3
818.196	19.82
818.371	19.45
818.545	18.48
818.72	18.65
818.895	17.73
819.069	18.27
819.244	17.76
819.419	18.34
819.594	19.07
819.768	19.17
819.943	19.49
820.117	19.39
820.292	19.38
820.467	19.95
820.641	20.29
820.816	20.83
820.99	21.14
821.165	21.64
821.339	21.85
821.514	21.86
821.688	22.07
821.863	21.96
822.037	22.25
822.212	22.07
822.386	22.13
822.56	22.19
822.735	22.17
822.909	21.95
823.084	21.69
823.258	21.63
823.432	21.57
823.606	21.52
823.781	21.65
823.955	21.57
824.129	22.11
824.303	22.01
824.478	21.9
824.652	21.78
824.826	21.89
825	21.98
825.174	21.98
825.348	21.83
825.523	21.81
825.697	21.75
825.871	21.93
826.045	21.37
826.219	21.58
826.393	21.83
826.567	22
826.741	22.1
826.915	21.79
827.089	22.11
827.263	22.15
827.437	22.11
827.611	21.99
827.784	21.81
827.958	22.03
828.132	21.98
828.306	22.02
828.48	22.42
828.654	22.06
828.827	22.39
829.001	22.07
829.175	22.59
829.349	22.23
829.522	22.18
829.696	22
829.87	21.93
830.044	22.23
830.217	21.6
830.391	20.16
830.565	21.02
830.738	20.58
830.912	20.56
831.085	19.64
831.259	19.77
831.432	20.21
831.606	20.57
831.779	21.12
831.953	21.54
832.126	20.48
832.3	21.06
832.473	20.05
832.647	19.86
832.82	20.74
832.994	21.26
833.167	21.78
833.34	21.51
833.514	20.38
833.687	20.33
833.86	19.63
834.034	19.88
834.207	19.78
834.38	20.42
834.553	20.83
834.727	20.38
834.9	20.46
835.073	20.06
835.246	19.92
835.419	20.37
835.593	20.02
835.766	20.91
835.939	22.05
836.112	22.73
836.285	23.29
836.458	23.95
836.631	24.37
836.804	24.33
836.977	24.16
837.15	23.88
837.323	25.08
837.496	24.92
837.669	23.78
837.842	23.12
838.015	22.01
838.188	21.95
838.361	21.6
838.533	20.74
838.706	20.67
838.879	19.33
839.052	20.97
839.225	20.79
839.398	20.93
839.57	21.59
839.743	21.92
839.916	23.03
840.088	21.59
840.261	21.32
840.434	20.21
840.607	19.59
840.779	19.55
840.952	19.98
841.124	20.35
841.297	20.5
841.47	20.11
841.642	19.04
841.815	17.69
841.987	19.38
842.16	18.91
842.332	19.17
842.505	19.97
842.677	24.71
842.85	24.87
843.022	25.03
843.194	26.06
843.367	27.54
843.539	28
843.712	24.44
843.884	23.87
844.056	23.11
844.229	24.11
844.401	23
844.573	18
844.745	19.84
844.918	18.51
845.09	16.58
845.262	15.96
845.434	16.27
845.606	17.05
845.779	15.84
845.951	17.49
846.123	20.28
846.295	24.83
846.467	24.02
846.639	20.09
846.811	17.89
846.983	18.12
847.155	16.6
847.327	16.66
847.499	18.89
847.671	20.32
847.843	20.44
848.015	22.12
848.187	16.55
848.359	18.26
848.531	17.32
848.703	17.53
848.875	19.9
849.047	19.98
849.218	19.03
849.39	22.74
849.562	20.32
849.734	19.48
849.905	10.24
850.077	12.07
850.249	11.53
850.421	9.85
850.592	10.99
850.764	6.73
850.936	7.66
851.107	10.91
851.279	7.53
851.451	8.93
851.622	15.25
851.794	19.18
851.965	18.74
852.137	20.64
852.308	24.19
852.48	23.51
852.651	25.31
852.823	22.44
852.994	18.74
853.166	19.91
853.337	17.62
853.509	12.77
853.68	8.99
853.851	6.5
854.023	5.19
854.194	4.41
854.365	5.91
854.537	5.68
854.708	3.92
854.879	7.13
855.05	8.91
855.222	10.45
855.393	10.89
855.564	13.08
855.735	16.13
855.906	20.14
856.078	19.91
856.249	17.53
856.42	16.91
856.591	22.27
856.762	21.44
856.933	21.24
857.104	21.04
857.275	19
857.446	19.17
857.617	21.91
857.788	20.26
857.959	24.46
858.13	27.71
858.301	26.43
858.472	25.06
858.643	24.77
858.814	26.41
858.985	29.69
859.155	29.38
859.326	29.06
859.497	27.77
859.668	25.46
859.839	18.78
860.009	20.74
860.18	21.6
860.351	22.74
860.522	23.26
860.692	22.28
860.863	19.72
861.034	21.82
861.204	20.78
861.375	17.48
861.546	16.2
861.716	15.93
861.887	14.88
862.057	15.48
862.228	12.58
862.398	13.88
862.569	15.14
862.739	13.47
862.91	8.39
863.08	8.44
863.251	9.84
863.421	11.33
863.592	11.97
863.762	13.19
863.932	13.31
864.103	10.86
864.273	11.37
864.443	6.93
864.614	11.69
864.784	14.73
864.954	10.8
865.125	8.62
865.295	11.23
865.465	14.89
865.635	12.15
865.805	14.64
865.976	18.97
866.146	18.64
866.316	20.29
866.486	17.49
866.656	19.36
866.826	23.73
866.996	24.84
867.166	23.96
867.336	23.7
867.506	23.44
867.676	21.03
867.846	20.23
868.016	16.42
868.186	16.18
868.356	16.6
868.526	14.99
868.696	14.19
868.866	16.49
869.036	17.57
869.206	15.69
869.376	19.21
869.545	21.31
869.715	24.58
869.885	28.87
870.055	29.21
870.224	28.74
870.394	29.81
870.564	30.22
870.734	28.73
870.903	26.73
871.073	25.19
871.243	20.6
871.412	16.89
871.582	14.06
871.751	13.22
871.921	13.74
872.091	12.87
872.26	9.02
872.43	8.16
872.599	10.91
872.769	7.83
872.938	10.29
873.108	10.98
873.277	12.94
873.446	12.19
873.616	8.16
873.785	10.12
873.955	10.93
874.124	11.88
874.293	14.79
874.463	10.56
874.632	14.25
874.801	13.36
874.971	14.43
875.14	10.57
875.309	10.1
875.478	14.79
875.647	12.13
875.817	13.5
875.986	16.78
876.155	15.45
876.324	18.78
876.493	19.21
876.662	18.65
876.831	17.24
877	17.06
877.17	17.87
877.339	14.11
877.508	10.24
877.677	8.03
877.846	8.7
878.015	9.47
878.184	4.23
878.352	4.29
878.521	6.81
878.69	9.76
878.859	14.47
879.028	15.83
879.197	14.05
879.366	17.82
879.534	18.31
879.703	18.02
879.872	19.09
880.041	20.92
880.21	21.01
880.378	20.71
880.547	19.31
880.716	18.89
880.884	19.6
881.053	21.02
881.222	20.32
881.39	20.96
881.559	21.31
881.727	21.5
881.896	22.86
882.065	22.7
882.233	22.67
882.402	23.35
882.57	23.68
882.739	23.74
882.907	24.12
883.076	24.57
883.244	24.08
883.412	23.95
883.581	23.44
883.749	22.69
883.918	22.78
884.086	22.54
884.254	22.24
884.423	21.32
884.591	19.89
884.759	18.77
884.927	18.52
885.096	19.06
885.264	17.9
885.432	17.72
885.6	14.6
885.769	13.93
885.937	14.02
886.105	14.46
886.273	14.28
886.441	16.18
886.609	17.73
886.777	16.17
886.945	14.77
887.113	14.47
887.281	14.08
887.449	20.11
887.617	21.28
887.785	22.48
887.953	21.92
888.121	23.83
888.289	22.99
888.457	20.94
888.625	24.15
888.793	24.12
888.961	27.02
889.129	25.69
889.296	22.43
889.464	22.5
889.632	20.24
889.8	18.73
889.967	19.86
890.135	19.56
