Data from 2938536_Reflection_1.txt Node
Date: Mon Jun 15 23:48:15 EDT 2015
User: robert
Spectrometer: USB4E03002
Autoset integration time: false
Trigger mode: 4
Integration Time (sec): 1.000000E-1
Scans to average: 10
Electric dark correction enabled: true
Nonlinearity correction enabled: false
Boxcar width: 6
Stray light correction enabled: false
XAxis mode: Wavelengths
Stop averaging: false
Number of Pixels in Spectrum: 3648
>>>>>Begin Spectral Data<<<<<
177.575	-37.24
177.794	-34.88
178.014	-122.18
178.233	-141.22
178.452	-1150
178.672	-361.85
178.891	160
179.11	-212.9
179.33	-239.78
179.549	-327.31
179.768	-294.18
179.987	-565.85
180.207	-193.92
180.426	-215.44
180.645	-222.81
180.864	-178.76
181.084	-213.26
181.303	-227.34
181.522	-200.72
181.741	-193.19
181.96	-165.27
182.179	-114.01
182.398	-92.8
182.618	-168.88
182.837	-108.18
183.056	-124.71
183.275	-72.16
183.494	-66.92
183.713	-126.63
183.932	-120.14
184.151	-248.06
184.37	-283.14
184.589	-185.95
184.808	-419.25
185.027	-710
185.246	-334.47
185.465	-207.98
185.684	-310.2
185.903	-410.37
186.122	-2727.66
186.341	7645
186.56	1798.77
186.779	3287.18
186.998	-721.83
187.216	4180.77
187.435	455.13
187.654	1141.75
187.873	5966.67
188.092	1056.25
188.311	912.7
188.53	5550
188.748	-6095
188.967	-915.45
189.186	-2595.12
189.405	-1442.86
189.623	2455.77
189.842	887.58
190.061	11809.09
190.28	-1074.77
190.498	-1985.96
190.717	-1321.62
190.936	-6678.57
191.154	-2751.35
191.373	10633.33
191.592	3992.59
191.81	2702.7
192.029	1425.81
192.248	1568.25
192.466	-3566.67
192.685	-556.85
192.904	-692.56
193.122	1906.12
193.341	3896.3
193.559	495.62
193.778	848.7
193.996	437.64
194.215	477.93
194.433	412.05
194.652	507.62
194.87	784.66
195.089	455.94
195.307	464.53
195.526	300.9
195.744	356.76
195.963	887.98
196.181	887.86
196.399	5121.21
196.618	1277.1
196.836	-718.18
197.055	-591.2
197.273	-1170
197.491	-411.53
197.71	-726.94
197.928	-245.79
198.146	-232.81
198.365	-275
198.583	-455.47
198.801	32425
199.019	1357.89
199.238	2008.62
199.456	3431.25
199.674	682.74
199.892	865.38
200.111	4553.57
200.329	415.34
200.547	552.85
200.765	518.06
200.983	638.03
201.202	600
201.42	978.62
201.638	748.9
201.856	2298.33
202.074	987.83
202.292	761.45
202.51	628.13
202.728	547.45
202.946	349.23
203.165	309.5
203.383	301.1
203.601	285.43
203.819	207.49
204.037	258.11
204.255	208.65
204.473	312.7
204.691	269.75
204.909	220
205.127	257.6
205.345	248.15
205.562	273.48
205.78	574.84
205.998	339.55
206.216	308.62
206.434	264
206.652	289.41
206.87	259.5
207.088	255.89
207.306	281.93
207.523	247.12
207.741	344.44
207.959	263.07
208.177	306.08
208.395	283.83
208.612	256.85
208.83	331.83
209.048	351.81
209.266	350.65
209.483	312.93
209.701	470.24
209.919	1081.54
210.136	441.89
210.354	458.87
210.572	405.6
210.79	440.12
211.007	318.38
211.225	286.42
211.442	258.99
211.66	218.06
211.878	108.77
212.095	123.61
212.313	129.04
212.53	95.26
212.748	82.23
212.966	69.01
213.183	83.3
213.401	91.09
213.618	99.83
213.836	84.25
214.053	100.15
214.271	81.51
214.488	147.73
214.705	276.41
214.923	209.41
215.14	234.75
215.358	154.77
215.575	165.42
215.793	145.97
216.01	137.67
216.227	124.69
216.445	107.62
216.662	121.44
216.879	125.78
217.097	115.08
217.314	122.73
217.531	131.24
217.749	152.67
217.966	118.49
218.183	131.61
218.4	111.2
218.618	109.35
218.835	93.6
219.052	101.14
219.269	105
219.487	105.53
219.704	93.41
219.921	89.46
220.138	80.28
220.355	75.25
220.572	69.06
220.79	78.46
221.007	71.68
221.224	84.63
221.441	88.46
221.658	95.59
221.875	92.8
222.092	86.52
222.309	80.01
222.526	79.35
222.743	72.49
222.96	64.76
223.177	59.23
223.394	60.34
223.611	50.59
223.828	50.9
224.045	44.79
224.262	40.09
224.479	34.06
224.696	32.54
224.913	30.18
225.13	28.38
225.347	27.88
225.564	26.72
225.781	24.06
225.997	22.59
226.214	20.2
226.431	19.43
226.648	18.44
226.865	18.54
227.082	19.09
227.298	18.76
227.515	17.71
227.732	18.53
227.949	17.75
228.165	17.31
228.382	17.75
228.599	18.18
228.816	18.83
229.032	20.16
229.249	21.08
229.466	21.52
229.682	21.46
229.899	20.92
230.116	20.26
230.332	19.83
230.549	19.19
230.765	20.92
230.982	20.77
231.199	21.35
231.415	19.9
231.632	17.91
231.848	16.11
232.065	15.49
232.281	15.49
232.498	16.2
232.714	15.41
232.931	17.4
233.147	17.85
233.364	16.82
233.58	16.29
233.797	17.57
234.013	15.87
234.23	16.93
234.446	17.78
234.662	19.04
234.879	17.98
235.095	18.19
235.312	18.64
235.528	18.27
235.744	18.84
235.961	18.41
236.177	21.16
236.393	20.59
236.61	18.62
236.826	19.9
237.042	20.44
237.258	20.5
237.475	18.32
237.691	19.22
237.907	18.84
238.123	18.56
238.339	20.4
238.556	19.97
238.772	19.35
238.988	17.39
239.204	17.76
239.42	18.09
239.636	17.44
239.853	17.33
240.069	16.91
240.285	17.3
240.501	16.74
240.717	16.11
240.933	16.47
241.149	15.57
241.365	15.92
241.581	15.88
241.797	15.1
242.013	14.57
242.229	14.09
242.445	13.86
242.661	13.24
242.877	12.99
243.093	13.29
243.309	12.78
243.525	12.68
243.741	11.28
243.957	10.97
244.173	9.75
244.388	9.88
244.604	10.37
244.82	9.92
245.036	9.71
245.252	9.63
245.468	9.42
245.683	9.42
245.899	9.14
246.115	9.37
246.331	9.08
246.547	9.25
246.762	9.22
246.978	9.25
247.194	9.29
247.409	9.57
247.625	9.76
247.841	10.37
248.057	10.28
248.272	10.51
248.488	10.36
248.703	10.49
248.919	10.43
249.135	10.45
249.35	10.23
249.566	10.3
249.782	10.81
249.997	10.74
250.213	10.53
250.428	10.77
250.644	10.79
250.859	11.27
251.075	11.89
251.29	12.53
251.506	12.58
251.721	12.31
251.937	13.4
252.152	14.2
252.368	15.22
252.583	15.66
252.798	15.34
253.014	15.4
253.229	15.52
253.445	14.9
253.66	14.66
253.875	13.94
254.091	13.71
254.306	12.69
254.521	12.92
254.737	11.17
254.952	10.03
255.167	8.69
255.383	7.63
255.598	8.4
255.813	7.85
256.028	7.4
256.244	7.42
256.459	7.19
256.674	7.09
256.889	6.52
257.104	6.73
257.32	6.77
257.535	7.11
257.75	6.96
257.965	7
258.18	7.32
258.395	7.09
258.61	7.27
258.826	7.49
259.041	7.33
259.256	7.52
259.471	7.56
259.686	7.72
259.901	7.83
260.116	7.77
260.331	8.09
260.546	8.66
260.761	9.18
260.976	9.17
261.191	9.63
261.406	9.46
261.621	9.74
261.836	10.29
262.05	10.4
262.265	10.73
262.48	11.12
262.695	11.7
262.91	11.96
263.125	11.76
263.34	11.39
263.555	11.04
263.769	10.59
263.984	10.8
264.199	10.72
264.414	10.37
264.629	9.97
264.843	10.31
265.058	10.44
265.273	10.06
265.488	9.34
265.702	9.06
265.917	8.6
266.132	8.62
266.346	8.51
266.561	8.83
266.776	8.56
266.99	8.96
267.205	8.77
267.42	8.12
267.634	7.95
267.849	7.66
268.063	7.85
268.278	7.71
268.492	7.7
268.707	7.77
268.922	7.38
269.136	7.66
269.351	7.38
269.565	7.27
269.78	7.22
269.994	7.49
270.209	7.79
270.423	7.78
270.637	7.71
270.852	7.79
271.066	8.44
271.281	8.86
271.495	8.91
271.709	9.13
271.924	8.92
272.138	8.9
272.353	9.1
272.567	9.09
272.781	8.87
272.996	9.4
273.21	9.39
273.424	9.85
273.638	10.17
273.853	9.92
274.067	9.75
274.281	9.67
274.495	9.5
274.71	9.35
274.924	9.25
275.138	9.38
275.352	9.59
275.566	9.59
275.781	9.15
275.995	9.46
276.209	9.14
276.423	8.29
276.637	7.64
276.851	7.53
277.065	7.62
277.279	8.27
277.493	8.64
277.707	9.12
277.921	8.78
278.135	8.24
278.349	8.26
278.563	8.37
278.777	7.6
278.991	7.42
279.205	7.78
279.419	8.37
279.633	8.38
279.847	8.56
280.061	8.26
280.275	8.13
280.489	8
280.703	8.29
280.917	8.57
281.131	8.85
281.344	9
281.558	9.19
281.772	9.16
281.986	9.21
282.2	8.86
282.414	8.68
282.627	8.37
282.841	8.27
283.055	8.12
283.269	8.18
283.482	7.68
283.696	7.64
283.91	7.18
284.123	7.03
284.337	6.8
284.551	6.66
284.764	6.42
284.978	6.56
285.192	6.52
285.405	6.89
285.619	6.84
285.833	6.88
286.046	6.71
286.26	6.79
286.473	6.7
286.687	7
286.9	7.39
287.114	7.61
287.327	7.37
287.541	7.53
287.754	7.82
287.968	7.71
288.181	7.38
288.395	7.69
288.608	7.61
288.822	7.73
289.035	7.83
289.248	7.83
289.462	7.63
289.675	7.39
289.889	7.26
290.102	7.73
290.315	7.45
290.529	6.95
290.742	7.18
290.955	7.58
291.169	7.19
291.382	7.13
291.595	6.96
291.808	6.95
292.022	6.84
292.235	7.22
292.448	7.07
292.661	7.31
292.875	7.38
293.088	7.78
293.301	7.82
293.514	7.65
293.727	7.25
293.94	7.48
294.153	7.26
294.367	7.27
294.58	7.1
294.793	7.38
295.006	7.24
295.219	7.35
295.432	7.05
295.645	6.82
295.858	6.44
296.071	6.54
296.284	6.81
296.497	6.97
296.71	6.87
296.923	7.15
297.136	7.27
297.349	7.46
297.562	7.16
297.775	7.19
297.988	7.32
298.201	7.59
298.414	7.5
298.626	7.59
298.839	7.31
299.052	6.93
299.265	6.78
299.478	6.66
299.691	6.5
299.903	6.73
300.116	6.89
300.329	6.77
300.542	6.61
300.755	6.7
300.967	6.67
301.18	6.65
301.393	7.15
301.605	7.46
301.818	7.57
302.031	7.62
302.243	8.06
302.456	8.23
302.669	8.38
302.881	8.29
303.094	8.59
303.307	8.66
303.519	8.54
303.732	8.75
303.944	8.95
304.157	8.83
304.37	8.97
304.582	9.27
304.795	9.5
305.007	9.17
305.22	9.04
305.432	8.35
305.645	8.35
305.857	8.59
306.069	8.51
306.282	8.33
306.494	8.21
306.707	8.19
306.919	7.73
307.132	7.81
307.344	7.51
307.556	7.28
307.769	6.84
307.981	6.96
308.193	7.16
308.406	7.04
308.618	6.74
308.83	6.71
309.043	6.53
309.255	6.71
309.467	7.16
309.679	7.49
309.892	7.3
310.104	7.57
310.316	7.56
310.528	8.13
310.74	8.23
310.953	8.35
311.165	8.51
311.377	8.58
311.589	8.78
311.801	8.81
312.013	9.11
312.225	8.98
312.437	9.19
312.649	9
312.862	9.01
313.074	9.2
313.286	9.03
313.498	9.05
313.71	9.2
313.922	8.97
314.134	8.96
314.346	8.99
314.558	9.53
314.77	8.92
314.982	8.86
315.193	8.58
315.405	8.59
315.617	8.6
315.829	8.32
316.041	8.13
316.253	8.29
316.465	7.42
316.677	7.9
316.888	7.82
317.1	7.98
317.312	7.63
317.524	7.8
317.736	7.84
317.947	8.17
318.159	7.83
318.371	7.71
318.583	7.93
318.794	8.31
319.006	8.32
319.218	9.2
319.43	8.99
319.641	9.14
319.853	9.06
320.064	9.22
320.276	8.93
320.488	8.97
320.699	9.03
320.911	9.94
321.123	10.36
321.334	10.41
321.546	10.16
321.757	9.72
321.969	9.85
322.18	9.65
322.392	9.96
322.603	9.8
322.815	9.75
323.026	9.84
323.238	9.81
323.449	9.83
323.661	9.76
323.872	9.62
324.083	9.64
324.295	9.35
324.506	9.49
324.718	9.25
324.929	9.2
325.14	9.01
325.352	9.25
325.563	9.16
325.774	9.51
325.986	9.68
326.197	9.59
326.408	9.61
326.62	9.54
326.831	9.85
327.042	10.38
327.253	10.68
327.464	10.4
327.676	10.94
327.887	10.83
328.098	11.08
328.309	11.19
328.52	11.56
328.732	11.5
328.943	11.16
329.154	11.34
329.365	11.22
329.576	10.92
329.787	10.93
329.998	10.83
330.209	11.25
330.42	10.95
330.631	11.31
330.842	11.15
331.053	11.19
331.264	10.87
331.475	10.77
331.686	11.56
331.897	11.45
332.108	11.81
332.319	12.13
332.53	12.03
332.741	12.03
332.952	11.83
333.163	12.07
333.374	11.81
333.585	11.65
333.795	11.65
334.006	11.45
334.217	11.45
334.428	11.41
334.639	11.17
334.849	10.6
335.06	10.02
335.271	10.06
335.482	9.61
335.692	9.77
335.903	9.57
336.114	9.69
336.325	9.88
336.535	10.27
336.746	10.36
336.957	10.9
337.167	10.76
337.378	11.39
337.589	11.35
337.799	11.93
338.01	11.81
338.22	11.96
338.431	11.85
338.642	12.14
338.852	12.23
339.063	12.01
339.273	11.47
339.484	11.31
339.694	10.99
339.905	10.76
340.115	10.26
340.326	10.58
340.536	10.04
340.746	10.18
340.957	10.28
341.167	10.21
341.378	10.21
341.588	9.94
341.799	9.69
342.009	9.83
342.219	9.98
342.43	9.48
342.64	9.41
342.85	9.29
343.061	9.36
343.271	9.59
343.481	9.36
343.691	9.08
343.902	9.25
344.112	9.01
344.322	8.99
344.532	9.2
344.743	9.01
344.953	8.8
345.163	8.99
345.373	9.05
345.583	9.25
345.793	9.49
346.004	9.59
346.214	10.01
346.424	10.1
346.634	10.11
346.844	10.17
347.054	10.49
347.264	10.81
347.474	10.82
347.684	10.74
347.894	10.94
348.104	10.66
348.314	10.77
348.524	10.05
348.734	10.13
348.944	10.17
349.154	10.44
349.364	10.14
349.574	10.21
349.784	9.8
349.994	9.31
350.204	9.42
350.413	9.25
350.623	9.07
350.833	9.1
351.043	8.88
351.253	9.15
351.463	8.79
351.672	8.53
351.882	8.28
352.092	8.24
352.302	8.01
352.511	8.04
352.721	8.29
352.931	8.36
353.141	8.55
353.35	8.47
353.56	8.76
353.77	8.77
353.979	8.59
354.189	8.69
354.399	8.47
354.608	8.76
354.818	9
355.027	8.91
355.237	9
355.447	8.92
355.656	8.57
355.866	8.62
356.075	8.73
356.285	8.65
356.494	8.6
356.704	8.65
356.913	8.63
357.123	8.87
357.332	8.48
357.542	8.39
357.751	8.6
357.96	8.57
358.17	8.43
358.379	8.59
358.589	8.54
358.798	8.34
359.007	7.96
359.217	7.73
359.426	7.93
359.635	7.95
359.845	7.93
360.054	7.97
360.263	7.98
360.472	7.96
360.682	7.98
360.891	7.89
361.1	8.07
361.309	8.01
361.519	8
361.728	8.34
361.937	8.47
362.146	8.52
362.355	8.41
362.564	8.07
362.774	8.04
362.983	7.9
363.192	7.62
363.401	7.48
363.61	7.93
363.819	7.66
364.028	7.55
364.237	7.69
364.446	7.45
364.655	7.64
364.864	7.62
365.073	7.67
365.282	7.85
365.491	8.12
365.7	8.34
365.909	8.48
366.118	8.58
366.327	8.48
366.536	8.6
366.745	8.74
366.954	8.75
367.162	8.74
367.371	8.62
367.58	8.32
367.789	8.11
367.998	8.11
368.207	8.05
368.415	8.05
368.624	8.07
368.833	8.17
369.042	8.01
369.25	7.95
369.459	7.98
369.668	7.6
369.877	7.64
370.085	7.22
370.294	7.29
370.503	7.49
370.711	7.48
370.92	7.51
371.129	7.41
371.337	7.22
371.546	7.27
371.754	7.21
371.963	7.02
372.171	6.96
372.38	7.24
372.589	7.31
372.797	7.6
373.006	7.62
373.214	7.71
373.423	8.05
373.631	7.8
373.84	7.92
374.048	7.85
374.256	7.73
374.465	7.78
374.673	7.84
374.882	7.79
375.09	7.72
375.298	7.61
375.507	7.52
375.715	7.21
375.923	6.98
376.132	6.7
376.34	6.82
376.548	6.7
376.757	6.88
376.965	6.76
377.173	6.68
377.381	6.74
377.59	6.57
377.798	6.4
378.006	6.41
378.214	6.54
378.423	6.71
378.631	6.78
378.839	6.68
379.047	6.77
379.255	6.59
379.463	6.66
379.671	6.66
379.879	6.58
380.088	6.48
380.296	6.63
380.504	7.03
380.712	7.08
380.92	6.96
381.128	6.99
381.336	6.85
381.544	6.79
381.752	6.85
381.96	6.88
382.168	6.9
382.376	6.94
382.584	7
382.791	7.27
382.999	7.16
383.207	6.89
383.415	6.96
383.623	6.93
383.831	7.01
384.039	7.09
384.247	7.04
384.454	6.63
384.662	6.64
384.87	6.43
385.078	6.37
385.285	6.29
385.493	5.91
385.701	5.96
385.909	6
386.116	5.62
386.324	5.71
386.532	5.71
386.739	5.7
386.947	5.79
387.155	5.86
387.362	5.8
387.57	5.94
387.778	5.89
387.985	5.75
388.193	5.78
388.4	5.98
388.608	6.04
388.816	6.18
389.023	6.16
389.231	6.05
389.438	6.05
389.646	5.92
389.853	5.85
390.061	5.85
390.268	5.76
390.475	5.84
390.683	5.85
390.89	5.86
391.098	5.64
391.305	5.46
391.512	5.44
391.72	5.29
391.927	5.21
392.135	5.07
392.342	5.22
392.549	5.29
392.756	5.18
392.964	5.17
393.171	4.95
393.378	4.94
393.586	4.85
393.793	4.74
394	4.79
394.207	4.81
394.414	4.8
394.622	4.78
394.829	4.88
395.036	4.91
395.243	5.01
395.45	5.08
395.657	4.95
395.864	5
396.072	5.09
396.279	5.15
396.486	5.35
396.693	5.28
396.9	5.38
397.107	5.58
397.314	5.58
397.521	5.44
397.728	5.32
397.935	5.18
398.142	5.19
398.349	5.18
398.556	5.24
398.763	5.23
398.97	5.23
399.177	5.21
399.383	5.25
399.59	5.19
399.797	5.14
400.004	5.34
400.211	5.32
400.418	5.32
400.625	5.37
400.831	5.38
401.038	5.39
401.245	5.3
401.452	5.11
401.658	5.28
401.865	5.22
402.072	5.17
402.279	5.14
402.485	5.02
402.692	4.78
402.899	4.91
403.105	4.78
403.312	4.78
403.519	4.72
403.725	4.79
403.932	4.81
404.138	4.96
404.345	4.75
404.552	4.82
404.758	4.86
404.965	4.7
405.171	4.73
405.378	4.77
405.584	4.74
405.791	4.78
405.997	4.79
406.204	4.83
406.41	4.84
406.617	4.83
406.823	4.73
407.029	4.79
407.236	4.69
407.442	4.7
407.649	4.66
407.855	4.64
408.061	4.61
408.268	4.53
408.474	4.52
408.68	4.57
408.887	4.63
409.093	4.56
409.299	4.51
409.505	4.52
409.712	4.49
409.918	4.37
410.124	4.29
410.33	4.27
410.537	4.35
410.743	4.36
410.949	4.37
411.155	4.42
411.361	4.25
411.567	4.13
411.773	3.9
411.98	4.02
412.186	4.06
412.392	4.07
412.598	4.12
412.804	4.2
413.01	4.32
413.216	4.31
413.422	4.36
413.628	4.37
413.834	4.27
414.04	4.2
414.246	4.27
414.452	4.34
414.658	4.25
414.864	4.21
415.07	4.24
415.275	4.22
415.481	4.07
415.687	4
415.893	3.9
416.099	3.92
416.305	3.86
416.511	3.86
416.716	3.88
416.922	3.84
417.128	3.84
417.334	3.84
417.539	3.88
417.745	3.83
417.951	3.87
418.157	3.91
418.362	3.93
418.568	3.89
418.774	3.79
418.979	3.72
419.185	3.67
419.391	3.68
419.596	3.62
419.802	3.67
420.008	3.24
420.213	3.23
420.419	3.21
420.624	3.12
420.83	3.11
421.035	3.11
421.241	3.13
421.446	3.15
421.652	3.19
421.857	3.18
422.063	3.17
422.268	3.12
422.474	3.09
422.679	3.54
422.885	3.44
423.09	3.35
423.295	3.39
423.501	3.4
423.706	3.36
423.911	3.37
424.117	3.27
424.322	3.28
424.527	3.36
424.733	3.24
424.938	3.3
425.143	3.29
425.349	3.28
425.554	3.38
425.759	3.47
425.964	3.48
426.169	3.45
426.375	3.54
426.58	3.47
426.785	3.69
426.99	3.7
427.195	3.6
427.4	3.79
427.605	3.83
427.811	3.85
428.016	3.73
428.221	3.59
428.426	3.61
428.631	3.58
428.836	3.6
429.041	3.43
429.246	3.47
429.451	3.36
429.656	3.29
429.861	3.42
430.066	3.29
430.271	3.15
430.476	3.14
430.681	3.21
430.886	3.32
431.09	3.32
431.295	3.34
431.5	3.2
431.705	3.28
431.91	3.24
432.115	3.27
432.32	3.25
432.524	3.21
432.729	3.26
432.934	3.34
433.139	3.33
433.343	3.27
433.548	3.21
433.753	3.22
433.958	3.2
434.162	3.26
434.367	3.33
434.572	3.36
434.776	3.41
434.981	3.39
435.186	3.41
435.39	3.43
435.595	3.41
435.799	3.46
436.004	3.41
436.209	3.35
436.413	3.28
436.618	3.24
436.822	3.28
437.027	3.26
437.231	3.19
437.436	3.13
437.64	3.26
437.845	3.24
438.049	3.23
438.253	3.26
438.458	3.19
438.662	3.2
438.867	3.28
439.071	3.25
439.275	3.3
439.48	3.25
439.684	3.19
439.888	3.28
440.093	3.26
440.297	3.19
440.501	3.14
440.706	3.17
440.91	3.17
441.114	3.25
441.318	3.29
441.523	3.23
441.727	3.25
441.931	3.25
442.135	3.23
442.339	3.29
442.543	3.29
442.748	3.26
442.952	3.2
443.156	3.22
443.36	3.13
443.564	3.06
443.768	2.93
443.972	3
444.176	3.04
444.38	3.04
444.584	2.99
444.788	3
444.992	2.98
445.196	2.94
445.4	2.88
445.604	2.94
445.808	2.96
446.012	2.89
446.216	2.93
446.42	3.02
446.624	2.91
446.828	2.89
447.032	2.93
447.235	2.9
447.439	2.9
447.643	2.89
447.847	2.92
448.051	2.98
448.254	2.94
448.458	2.91
448.662	3.02
448.866	2.97
449.069	2.9
449.273	2.82
449.477	2.76
449.681	2.72
449.884	2.73
450.088	2.76
450.292	2.81
450.495	2.81
450.699	2.76
450.902	2.74
451.106	2.76
451.31	2.69
451.513	2.71
451.717	2.79
451.92	2.85
452.124	2.85
452.327	2.83
452.531	2.96
452.734	2.9
452.938	2.85
453.141	2.74
453.345	2.77
453.548	2.78
453.752	2.77
453.955	2.77
454.158	2.78
454.362	2.76
454.565	2.79
454.769	2.9
454.972	2.99
455.175	2.91
455.379	2.94
455.582	2.88
455.785	3.01
455.988	3.05
456.192	2.97
456.395	2.94
456.598	2.94
456.801	3
457.005	3
457.208	2.97
457.411	2.9
457.614	2.79
457.817	2.76
458.021	2.74
458.224	2.76
458.427	2.75
458.63	2.76
458.833	2.77
459.036	2.84
459.239	2.82
459.442	2.79
459.645	2.72
459.848	2.79
460.051	2.83
460.254	2.81
460.457	2.84
460.66	2.91
460.863	2.89
461.066	2.83
461.269	2.88
461.472	2.87
461.675	2.74
461.878	2.77
462.081	2.71
462.284	2.76
462.486	2.71
462.689	2.63
462.892	2.74
463.095	2.83
463.298	2.75
463.5	2.75
463.703	2.7
463.906	2.64
464.109	2.64
464.311	2.77
464.514	2.88
464.717	2.95
464.92	3.02
465.122	3.09
465.325	3.21
465.528	3.2
465.73	3.03
465.933	3.02
466.135	2.98
466.338	3.04
466.541	2.89
466.743	2.84
466.946	2.67
467.148	2.59
467.351	2.55
467.553	2.44
467.756	2.31
467.958	2.21
468.161	2.2
468.363	2.35
468.566	2.31
468.768	2.36
468.971	2.35
469.173	2.44
469.375	2.53
469.578	2.58
469.78	2.66
469.983	2.59
470.185	2.65
470.387	2.7
470.59	2.78
470.792	2.83
470.994	2.69
471.196	2.85
471.399	2.86
471.601	2.92
471.803	2.91
472.005	2.93
472.208	2.91
472.41	2.88
472.612	2.92
472.814	2.89
473.016	2.9
473.218	2.87
473.421	2.84
473.623	2.93
473.825	2.89
474.027	2.83
474.229	2.86
474.431	2.95
474.633	2.95
474.835	3.02
475.037	3.05
475.239	3.1
475.441	3.13
475.643	3.12
475.845	3.09
476.047	3.05
476.249	3.02
476.451	3
476.653	3.11
476.855	3.06
477.057	3
477.258	2.97
477.46	2.98
477.662	2.91
477.864	2.89
478.066	2.79
478.268	2.8
478.469	2.72
478.671	2.77
478.873	2.8
479.075	2.78
479.276	2.71
479.478	2.65
479.68	2.68
479.882	2.68
480.083	2.7
480.285	2.68
480.487	2.62
480.688	2.69
480.89	2.64
481.091	2.7
481.293	2.68
481.495	2.63
481.696	2.6
481.898	2.57
482.099	2.55
482.301	2.54
482.502	2.5
482.704	2.48
482.905	2.46
483.107	2.46
483.308	2.4
483.51	2.39
483.711	2.39
483.913	2.37
484.114	2.38
484.315	2.4
484.517	2.43
484.718	2.45
484.92	2.45
485.121	2.5
485.322	2.53
485.524	2.57
485.725	2.57
485.926	2.61
486.127	2.59
486.329	2.58
486.53	2.56
486.731	2.56
486.932	2.53
487.134	2.48
487.335	2.46
487.536	2.45
487.737	2.43
487.938	2.4
488.139	2.39
488.341	2.4
488.542	2.43
488.743	2.49
488.944	2.48
489.145	2.52
489.346	2.54
489.547	2.57
489.748	2.65
489.949	2.68
490.15	2.68
490.351	2.67
490.552	2.66
490.753	2.65
490.954	2.64
491.155	2.62
491.356	2.6
491.557	2.57
491.758	2.55
491.959	2.51
492.159	2.53
492.36	2.52
492.561	2.53
492.762	2.54
492.963	2.56
493.164	2.61
493.364	2.57
493.565	2.61
493.766	2.61
493.967	2.53
494.167	2.6
494.368	2.62
494.569	2.69
494.769	2.74
494.97	2.7
495.171	2.68
495.371	2.75
495.572	2.72
495.773	2.76
495.973	2.84
496.174	2.79
496.375	2.85
496.575	2.98
496.776	3
496.976	3.03
497.177	3.02
497.377	3.05
497.578	3.07
497.778	3.08
497.979	3.1
498.179	3.13
498.38	3.14
498.58	3.23
498.78	3.28
498.981	3.35
499.181	3.31
499.382	3.33
499.582	3.35
499.782	3.32
499.983	3.25
500.183	3.31
500.383	3.25
500.584	3.27
500.784	3.33
500.984	3.27
501.184	3.25
501.385	3.34
501.585	3.34
501.785	3.35
501.985	3.37
502.185	3.38
502.386	3.4
502.586	3.47
502.786	3.46
502.986	3.65
503.186	3.57
503.386	3.55
503.586	3.69
503.786	3.7
503.987	3.67
504.187	3.63
504.387	3.65
504.587	3.69
504.787	3.73
504.987	3.81
505.187	3.81
505.387	3.86
505.587	3.87
505.786	3.94
505.986	3.97
506.186	3.96
506.386	3.96
506.586	4
506.786	4.04
506.986	4.08
507.186	4.08
507.386	4.08
507.585	4.04
507.785	4.04
507.985	4.09
508.185	4.06
508.384	4.02
508.584	4.06
508.784	4.03
508.984	4.03
509.183	4.04
509.383	4.03
509.583	4.07
509.782	4.15
509.982	4.22
510.182	4.28
510.381	4.3
510.581	4.34
510.781	4.34
510.98	4.46
511.18	4.53
511.379	4.62
511.579	4.73
511.778	4.75
511.978	4.72
512.177	4.73
512.377	4.64
512.576	4.67
512.776	4.69
512.975	4.73
513.175	4.7
513.374	4.81
513.573	4.82
513.773	4.84
513.972	4.87
514.172	4.91
514.371	5.06
514.57	5.21
514.77	5.23
514.969	5.33
515.168	5.39
515.367	5.48
515.567	5.53
515.766	5.54
515.965	5.57
516.164	5.58
516.364	5.55
516.563	5.62
516.762	5.63
516.961	5.61
517.16	5.59
517.359	5.63
517.559	5.64
517.758	5.63
517.957	5.64
518.156	5.68
518.355	5.72
518.554	5.67
518.753	5.69
518.952	5.82
519.151	5.79
519.35	5.77
519.549	5.84
519.748	5.98
519.947	5.98
520.146	6.03
520.345	6.13
520.544	6.24
520.743	6.23
520.942	6.3
521.141	6.53
521.339	6.53
521.538	6.48
521.737	6.55
521.936	6.64
522.135	6.65
522.333	6.65
522.532	6.8
522.731	6.93
522.93	6.96
523.129	6.95
523.327	7.04
523.526	7.15
523.725	7.12
523.923	7.24
524.122	7.34
524.321	7.35
524.519	7.4
524.718	7.45
524.917	7.47
525.115	7.5
525.314	7.51
525.512	7.58
525.711	7.66
525.909	7.67
526.108	7.7
526.306	7.76
526.505	7.74
526.703	7.71
526.902	7.68
527.1	7.67
527.299	7.66
527.497	7.63
527.696	7.63
527.894	7.57
528.092	7.55
528.291	7.5
528.489	7.5
528.688	7.44
528.886	7.4
529.084	7.42
529.283	7.46
529.481	7.54
529.679	7.6
529.877	7.68
530.076	7.85
530.274	7.91
530.472	8.1
530.67	8.15
530.869	8.28
531.067	8.36
531.265	8.47
531.463	8.55
531.661	8.62
531.859	8.67
532.057	8.71
532.255	8.66
532.454	8.62
532.652	8.59
532.85	8.58
533.048	8.58
533.246	8.63
533.444	8.68
533.642	8.76
533.84	8.81
534.038	8.83
534.236	8.85
534.434	8.88
534.632	8.94
534.83	9.06
535.027	9.21
535.225	9.27
535.423	9.35
535.621	9.42
535.819	9.43
536.017	9.42
536.215	9.39
536.412	9.39
536.61	9.42
536.808	9.48
537.006	9.57
537.203	9.71
537.401	9.75
537.599	9.79
537.797	9.93
537.994	10.1
538.192	10.22
538.39	10.34
538.587	10.44
538.785	10.56
538.983	10.68
539.18	10.73
539.378	10.78
539.575	10.75
539.773	10.71
539.97	10.72
540.168	10.71
540.366	10.67
540.563	10.67
540.761	10.6
540.958	10.62
541.155	10.6
541.353	10.57
541.55	10.54
541.748	10.59
541.945	10.58
542.143	10.64
542.34	10.7
542.537	10.81
542.735	10.9
542.932	11
543.129	11.07
543.327	11.25
543.524	11.31
543.721	11.43
543.919	11.6
544.116	11.75
544.313	11.72
544.51	11.82
544.708	11.87
544.905	11.88
545.102	11.87
545.299	11.93
545.496	11.92
545.693	11.87
545.891	11.83
546.088	11.84
546.285	11.91
546.482	11.9
546.679	11.85
546.876	11.93
547.073	11.99
547.27	12.06
547.467	12.19
547.664	12.26
547.861	12.32
548.058	12.41
548.255	12.54
548.452	12.66
548.649	12.8
548.846	12.78
549.043	12.89
549.24	13
549.437	13.03
549.633	13.13
549.83	13.22
550.027	13.23
550.224	13.34
550.421	13.38
550.618	13.62
550.814	13.69
551.011	13.69
551.208	13.67
551.405	13.83
551.601	13.84
551.798	13.93
551.995	14.06
552.191	14.05
552.388	13.98
552.585	13.9
552.781	13.99
552.978	14.04
553.175	14.01
553.371	13.97
553.568	14.24
553.764	14.3
553.961	14.23
554.157	14.22
554.354	14.29
554.55	14.34
554.747	14.4
554.943	14.54
555.14	14.72
555.336	14.65
555.533	14.73
555.729	14.79
555.926	14.93
556.122	14.77
556.318	14.93
556.515	15.01
556.711	15.12
556.907	15.25
557.104	15.28
557.3	15.36
557.496	15.45
557.693	15.54
557.889	15.67
558.085	15.77
558.281	15.73
558.478	15.78
558.674	15.83
558.87	15.86
559.066	15.95
559.262	16.01
559.459	15.95
559.655	16.08
559.851	16.17
560.047	16.2
560.243	16.38
560.439	16.43
560.635	16.45
560.831	16.53
561.027	16.5
561.223	16.44
561.419	16.51
561.615	16.55
561.811	16.68
562.007	16.74
562.203	16.71
562.399	16.72
562.595	16.84
562.791	16.89
562.987	16.99
563.183	17.04
563.379	17.13
563.575	17.27
563.771	17.53
563.966	17.62
564.162	17.63
564.358	17.67
564.554	17.66
564.75	17.7
564.945	17.68
565.141	17.64
565.337	17.59
565.533	17.59
565.728	17.59
565.924	17.55
566.12	17.61
566.315	17.61
566.511	17.64
566.707	17.7
566.902	17.76
567.098	17.82
567.293	17.82
567.489	17.9
567.684	17.96
567.88	18.03
568.076	18.12
568.271	18.18
568.467	18.22
568.662	18.21
568.858	18.17
569.053	18.12
569.248	18.15
569.444	18.12
569.639	18.2
569.835	18.31
570.03	18.41
570.225	18.4
570.421	18.42
570.616	18.44
570.812	18.42
571.007	18.52
571.202	18.67
571.397	18.76
571.593	18.87
571.788	18.82
571.983	18.87
572.178	18.93
572.374	18.87
572.569	18.88
572.764	18.95
572.959	18.97
573.154	18.97
573.35	19.02
573.545	18.95
573.74	18.93
573.935	18.87
574.13	18.8
574.325	18.88
574.52	18.98
574.715	18.86
574.91	19.02
575.105	19.04
575.3	19.02
575.495	19.04
575.69	19
575.885	19
576.08	19.12
576.275	19.13
576.47	19.3
576.665	19.4
576.86	19.4
577.055	19.28
577.25	19.44
577.444	19.48
577.639	19.43
577.834	19.53
578.029	19.5
578.224	19.6
578.418	19.72
578.613	19.7
578.808	19.61
579.003	19.54
579.197	19.49
579.392	19.68
579.587	19.76
579.781	19.74
579.976	19.68
580.171	19.77
580.365	19.8
580.56	19.82
580.755	19.75
580.949	19.65
581.144	19.65
581.338	19.8
581.533	19.71
581.727	19.75
581.922	19.72
582.116	19.69
582.311	19.82
582.505	19.79
582.7	19.82
582.894	19.74
583.089	19.82
583.283	19.82
583.478	20.05
583.672	20.15
583.866	20.15
584.061	20.43
584.255	20.47
584.449	20.49
584.644	20.52
584.838	20.43
585.032	20.42
585.226	20.35
585.421	20.54
585.615	20.56
585.809	20.69
586.003	20.68
586.198	20.68
586.392	20.58
586.586	20.44
586.78	20.54
586.974	20.58
587.168	20.64
587.363	20.7
587.557	20.73
587.751	20.87
587.945	20.86
588.139	20.97
588.333	21
588.527	20.92
588.721	20.84
588.915	21.04
589.109	21.09
589.303	21.02
589.497	20.95
589.691	20.95
589.885	20.91
590.079	21.02
590.273	21.05
590.466	20.92
590.66	20.83
590.854	20.78
591.048	20.89
591.242	20.98
591.436	20.95
591.629	20.85
591.823	20.95
592.017	20.93
592.211	20.91
592.404	21.05
592.598	21.07
592.792	21.06
592.986	21.14
593.179	21.16
593.373	21.29
593.567	21.38
593.76	21.54
593.954	21.54
594.147	21.67
594.341	21.63
594.535	21.75
594.728	21.8
594.922	21.73
595.115	21.7
595.309	21.73
595.502	21.74
595.696	21.77
595.889	21.61
596.083	21.56
596.276	21.47
596.47	21.36
596.663	21.25
596.856	21.27
597.05	21.21
597.243	21.09
597.437	21.07
597.63	21.15
597.823	21.11
598.017	21.2
598.21	21.26
598.403	21.45
598.596	21.43
598.79	21.57
598.983	21.73
599.176	21.93
599.369	21.9
599.563	21.94
599.756	22.13
599.949	22.21
600.142	22.21
600.335	22.17
600.528	22.17
600.722	22.06
600.915	22.1
601.108	22.16
601.301	22.15
601.494	22.32
601.687	22.3
601.88	22.32
602.073	22.35
602.266	22.38
602.459	22.42
602.652	22.38
602.845	22.31
603.038	22.23
603.231	22.28
603.424	22.21
603.617	22.22
603.809	22.06
604.002	21.96
604.195	21.84
604.388	21.89
604.581	21.87
604.774	21.83
604.966	21.72
605.159	21.66
605.352	21.86
605.545	21.93
605.737	21.96
605.93	21.97
606.123	21.86
606.316	22.02
606.508	22.19
606.701	22.23
606.894	22.27
607.086	22.4
607.279	22.45
607.471	22.5
607.664	22.64
607.857	22.53
608.049	22.48
608.242	22.43
608.434	22.44
608.627	22.44
608.819	22.41
609.012	22.27
609.204	22.37
609.397	22.36
609.589	22.37
609.782	22.33
609.974	22.43
610.166	22.32
610.359	22.36
610.551	22.41
610.743	22.47
610.936	22.43
611.128	22.48
611.32	22.33
611.513	22.26
611.705	22.19
611.897	22.25
612.09	22.1
612.282	22.11
612.474	22.21
612.666	22.49
612.858	22.61
613.051	22.59
613.243	22.7
613.435	22.7
613.627	22.77
613.819	23.32
614.011	23.47
614.203	23.59
614.395	23.52
614.588	23.64
614.78	23.75
614.972	23.79
615.164	23.65
615.356	23.66
615.548	23.69
615.74	23.65
615.932	23.82
616.124	23.97
616.315	23.67
616.507	23.61
616.699	23.72
616.891	23.72
617.083	23.69
617.275	23.56
617.467	23.47
617.659	23.38
617.85	23.25
618.042	23.21
618.234	23.2
618.426	23.09
618.618	22.88
618.809	22.79
619.001	22.85
619.193	22.86
619.384	22.89
619.576	22.7
619.768	22.74
619.959	22.64
620.151	22.7
620.343	22.75
620.534	22.84
620.726	22.95
620.917	22.93
621.109	23.03
621.301	23.17
621.492	23.25
621.684	22.98
621.875	22.84
622.067	23.06
622.258	23.22
622.45	23.34
622.641	23.42
622.832	23.4
623.024	23.37
623.215	23.25
623.407	23.35
623.598	23.27
623.789	23.17
623.981	23.13
624.172	23.24
624.363	23.4
624.555	23.38
624.746	23.24
624.937	23.19
625.129	23.16
625.32	23.18
625.511	23.21
625.702	23.17
625.893	23.29
626.085	23.36
626.276	23.38
626.467	23.3
626.658	23.36
626.849	23.36
627.04	23.36
627.231	23.42
627.422	23.42
627.614	23.34
627.805	23.39
627.996	23.38
628.187	23.53
628.378	23.44
628.569	23.46
628.76	23.48
628.951	23.44
629.142	23.55
629.332	23.55
629.523	23.51
629.714	23.62
629.905	23.42
630.096	23.43
630.287	23.34
630.478	23.3
630.669	23.32
630.859	23.26
631.05	23.2
631.241	23.08
631.432	23.23
631.623	23.22
631.813	23.09
632.004	23.01
632.195	22.98
632.385	23.16
632.576	23.19
632.767	23.33
632.957	23.34
633.148	23.2
633.339	23.22
633.529	23.18
633.72	23.18
633.91	23.11
634.101	23.02
634.292	23.15
634.482	23.23
634.673	23.09
634.863	23.08
635.054	23.07
635.244	22.91
635.435	23.03
635.625	23.05
635.815	23.1
636.006	23.1
636.196	23.47
636.387	23.59
636.577	23.44
636.767	23.43
636.958	23.61
637.148	23.65
637.338	23.71
637.529	23.68
637.719	23.67
637.909	23.64
638.099	23.73
638.29	23.56
638.48	23.83
638.67	23.61
638.86	23.56
639.05	23.74
639.241	23.61
639.431	23.18
639.621	23.24
639.811	23.23
640.001	23.26
640.191	23.26
640.381	23.24
640.571	23.17
640.761	23.26
640.951	23.07
641.141	22.81
641.331	22.91
641.521	22.92
641.711	23
641.901	23.31
642.091	23.18
642.281	23.15
642.471	23.25
642.661	23.43
642.851	23.45
643.041	23.62
643.231	23.77
643.42	23.96
643.61	24.12
643.8	23.87
643.99	23.89
644.18	24.01
644.369	24.12
644.559	24.3
644.749	24.29
644.939	24.3
645.128	24.19
645.318	24.17
645.508	24.06
645.697	23.8
645.887	23.75
646.076	24.03
646.266	24.36
646.456	24.59
646.645	24.59
646.835	24.32
647.024	24.3
647.214	24.45
647.403	24.38
647.593	24.56
647.782	24.67
647.972	24.79
648.161	24.95
648.351	24.96
648.54	24.87
648.73	24.65
648.919	24.36
649.108	24.45
649.298	24.56
649.487	24.49
649.677	24.32
649.866	24.35
650.055	24.35
650.244	24.29
650.434	24.27
650.623	24.33
650.812	24.11
651.002	24.03
651.191	24.15
651.38	24.26
651.569	24.19
651.758	24.36
651.947	24.54
652.137	24.57
652.326	24.53
652.515	24.4
652.704	24.41
652.893	24.39
653.082	24.47
653.271	24.61
653.46	24.57
653.649	24.55
653.838	24.56
654.027	24.64
654.216	24.59
654.405	24.46
654.594	24.52
654.783	24.68
654.972	24.82
655.161	24.81
655.35	24.81
655.539	24.62
655.728	24.73
655.916	24.76
656.105	24.81
656.294	24.78
656.483	24.6
656.672	24.48
656.86	24.52
657.049	24.51
657.238	24.51
657.427	24.5
657.615	24.44
657.804	24.37
657.993	24.46
658.181	24.32
658.37	24.29
658.559	24.2
658.747	24.24
658.936	24.19
659.125	24.14
659.313	24.22
659.502	24.15
659.69	24.42
659.879	24.42
660.067	24.39
660.256	24.45
660.444	24.59
660.633	24.66
660.821	24.67
661.01	24.51
661.198	24.51
661.387	24.46
661.575	24.72
661.763	24.48
661.952	24.71
662.14	24.25
662.328	24.32
662.517	24.52
662.705	24.47
662.893	24.42
663.082	24.38
663.27	24.54
663.458	24.75
663.646	24.66
663.834	24.87
664.023	24.68
664.211	24.8
664.399	24.7
664.587	24.66
664.775	24.63
664.963	24.78
665.152	25.12
665.34	24.78
665.528	24.95
665.716	24.87
665.904	24.99
666.092	25
666.28	24.98
666.468	25.04
666.656	25.19
666.844	25.23
667.032	25.3
667.22	25.28
667.408	25.18
667.596	24.78
667.784	25.21
667.971	25.12
668.159	25.05
668.347	25.03
668.535	25.1
668.723	25.15
668.911	25.36
669.098	25.38
669.286	25.36
669.474	25.52
669.662	25.49
669.849	25.34
670.037	25.63
670.225	25.26
670.413	25.43
670.6	25.78
670.788	25.68
670.976	25.75
671.163	25.63
671.351	25.39
671.538	25.16
671.726	25.24
671.913	25.28
672.101	25.12
672.289	25.12
672.476	24.92
672.664	25.15
672.851	24.8
673.039	24.53
673.226	24.79
673.413	24.72
673.601	24.66
673.788	24.75
673.976	24.8
674.163	24.72
674.35	24.72
674.538	24.78
674.725	24.71
674.912	24.65
675.1	24.68
675.287	24.78
675.474	24.68
675.662	24.35
675.849	24.44
676.036	24.6
676.223	24.44
676.411	24.58
676.598	24.5
676.785	24.27
676.972	24.38
677.159	24.47
677.346	24.49
677.533	24.58
677.721	24.75
677.908	24.85
678.095	25.17
678.282	25.02
678.469	25.05
678.656	25.19
678.843	25.25
679.03	25.4
679.217	25.48
679.404	25.42
679.591	25.56
679.778	25.55
679.964	25.3
680.151	25.18
680.338	25.14
680.525	24.9
680.712	25.01
680.899	25.23
681.086	25.09
681.272	24.98
681.459	25.12
681.646	25.13
681.833	25.25
682.02	25
682.206	24.95
682.393	25.17
682.58	25.28
682.766	25.31
682.953	25.37
683.14	25.9
683.326	25.7
683.513	25.8
683.7	25.67
683.886	25.38
684.073	25.31
684.259	25.36
684.446	25.67
684.632	25.82
684.819	25.73
685.005	25.74
685.192	25.97
685.378	26.05
685.565	25.46
685.751	25.46
685.938	25.56
686.124	25.62
686.31	25.74
686.497	25.78
686.683	25.66
686.87	25.45
687.056	25.43
687.242	25.52
687.429	25.42
687.615	25.37
687.801	25.47
687.987	25.65
688.174	25.57
688.36	25.61
688.546	25.8
688.732	25.64
688.918	25.57
689.105	25.56
689.291	25.66
689.477	25.77
689.663	25.57
689.849	25.73
690.035	25.63
690.221	25.81
690.407	25.59
690.593	25.73
690.779	25.61
690.965	25.37
691.151	25.75
691.337	25.87
691.523	26.11
691.709	26.09
691.895	25.99
692.081	26.13
692.267	26.37
692.453	26.16
692.639	26.01
692.825	26.15
693.011	26.21
693.196	26.1
693.382	26.24
693.568	25.9
693.754	25.91
693.94	26.07
694.125	26.03
694.311	25.95
694.497	25.98
694.682	25.85
694.868	26.34
695.054	26.16
695.239	25.82
695.425	25.83
695.611	25.89
695.796	25.79
695.982	25.88
696.168	25.91
696.353	25.7
696.539	25.81
696.724	25.73
696.91	25.73
697.095	25.46
697.281	25.11
697.466	25.08
697.652	25.38
697.837	25.24
698.023	25.38
698.208	25.54
698.393	25.51
698.579	25.28
698.764	25.2
698.949	25.13
699.135	25.24
699.32	25.37
699.505	25.29
699.691	25.43
699.876	25.53
700.061	25.31
700.246	25.42
700.432	25.36
700.617	24.95
700.802	25
700.987	25.96
701.172	26.02
701.358	26.07
701.543	25.84
701.728	25.44
701.913	25.69
702.098	26.05
702.283	25.79
702.468	25.97
702.653	26.07
702.838	25.92
703.023	26.17
703.208	26.1
703.393	25.71
703.578	25.61
703.763	25.44
703.948	25.86
704.133	25.94
704.318	25.8
704.503	25.46
704.688	25.53
704.873	25.39
705.057	25.35
705.242	25.45
705.427	25.68
705.612	25.66
705.797	25.33
705.981	25.64
706.166	25.74
706.351	25.44
706.536	25.69
706.72	25.82
706.905	25.8
707.09	26.02
707.274	26.1
707.459	26.08
707.644	26.15
707.828	25.92
708.013	25.94
708.197	26.35
708.382	25.96
708.567	26.06
708.751	26.06
708.936	25.91
709.12	25.95
709.305	25.84
709.489	25.82
709.673	25.87
709.858	25.99
710.042	25.88
710.227	25.95
710.411	26.19
710.596	25.6
710.78	25.83
710.964	25.92
711.149	26.17
711.333	26.3
711.517	26.52
711.702	26.65
711.886	26.59
712.07	26.78
712.254	26.6
712.438	26.74
712.623	26.9
712.807	26.84
712.991	27.09
713.175	26.9
713.359	26.78
713.544	26.7
713.728	26.64
713.912	26.45
714.096	26.4
714.28	26.49
714.464	26.03
714.648	26.16
714.832	25.94
715.016	25.97
715.2	25.79
715.384	25.86
715.568	25.81
715.752	25.89
715.936	25.79
716.12	26.02
716.304	26.03
716.488	26.2
716.671	26.24
716.855	26.67
717.039	26.19
717.223	25.99
717.407	25.64
717.59	25.87
717.774	25.65
717.958	25.77
718.142	25.64
718.325	25.84
718.509	25.54
718.693	25.7
718.877	25.94
719.06	26
719.244	25.79
719.428	25.95
719.611	26.82
719.795	27.24
719.978	27.16
720.162	27.32
720.345	27.61
720.529	27.6
720.713	27.23
720.896	27.34
721.08	27.42
721.263	26.84
721.446	26.67
721.63	26.67
721.813	26.67
721.997	26.13
722.18	25.91
722.364	25.83
722.547	25.92
722.73	25.62
722.914	25.58
723.097	26.25
723.28	25.82
723.464	25.68
723.647	26.13
723.83	26.39
724.013	26.42
724.197	26.78
724.38	27.13
724.563	27.75
724.746	28.16
724.929	28.1
725.112	28.28
725.296	28.31
725.479	28.15
725.662	28.27
725.845	27.93
726.028	27.62
726.211	27.37
726.394	27.68
726.577	27.64
726.76	27.25
726.943	26.99
727.126	26.96
727.309	27
727.492	26.68
727.675	26.61
727.858	26.57
728.041	26.76
728.224	26.71
728.407	26.9
728.589	26.91
728.772	26.86
728.955	26.68
729.138	26.96
729.321	27
729.503	26.71
729.686	26.89
729.869	27.16
730.052	27.39
730.234	27.51
730.417	27.63
730.6	27.91
730.782	27.79
730.965	28.07
731.148	27.65
731.33	27.74
731.513	27.54
731.695	27.04
731.878	27.16
732.061	27.16
732.243	26.97
732.426	27.17
732.608	26.79
732.791	26.77
732.973	26.96
733.156	26.97
733.338	26.67
733.52	26.84
733.703	26.89
733.885	27.3
734.068	27.47
734.25	27.33
734.432	26.85
734.615	27.26
734.797	27.21
734.979	27.44
735.162	27.46
735.344	27.32
735.526	27.93
735.708	28.3
735.891	27.99
736.073	28.04
736.255	27.49
736.437	27.65
736.619	27.54
736.802	27.44
736.984	27.36
737.166	27.21
737.348	27.39
737.53	27.64
737.712	27.56
737.894	26.86
738.076	26.14
738.258	26.58
738.44	26.78
738.622	26.96
738.804	26.81
738.986	26.67
739.168	27.34
739.35	27.01
739.532	26.82
739.714	26.35
739.896	26.31
740.078	26.4
740.259	26.85
740.441	27.51
740.623	27.69
740.805	27.53
740.987	27.39
741.168	27.59
741.35	28.11
741.532	27.77
741.714	27.82
741.895	28.3
742.077	28.48
742.259	28.16
742.44	28.4
742.622	27.73
742.804	27.04
742.985	26.69
743.167	27.03
743.348	27.48
743.53	27.44
743.711	27.37
743.893	27.62
744.075	27.61
744.256	27.15
744.438	27.44
744.619	27.83
744.8	27.13
744.982	27.69
745.163	27.94
745.345	28.14
745.526	28.29
745.707	28.2
745.889	28
746.07	27.52
746.252	27.13
746.433	26.59
746.614	26.64
746.795	26.75
746.977	26.56
747.158	27.41
747.339	26.8
747.52	26.64
747.702	26.57
747.883	26.82
748.064	26.89
748.245	27.11
748.426	27.89
748.607	28.04
748.788	28.28
748.97	28.2
749.151	28.48
749.332	28.31
749.513	27.93
749.694	28.41
749.875	28.64
750.056	28.58
750.237	27.84
750.418	27.38
750.599	27.43
750.78	26.73
750.96	26.61
751.141	26.82
751.322	27.5
751.503	26.81
751.684	26.38
751.865	26.01
752.046	25.72
752.226	26.06
752.407	25.97
752.588	25.86
752.769	25.97
752.949	26.23
753.13	26.36
753.311	26.43
753.492	27.24
753.672	26.54
753.853	26.98
754.034	27.75
754.214	28.1
754.395	28.15
754.575	27.46
754.756	28.22
754.937	28.65
755.117	29.59
755.298	29.37
755.478	28.8
755.659	28.53
755.839	28.43
756.02	28.52
756.2	28.24
756.381	28.46
756.561	28.58
756.741	28.89
756.922	29.3
757.102	28.93
757.283	28.97
757.463	28.34
757.643	28.8
757.823	29.69
758.004	30.11
758.184	30.04
758.364	29.77
758.545	29.64
758.725	28.76
758.905	29.05
759.085	28.5
759.265	28.49
759.446	28.29
759.626	27.53
759.806	27.82
759.986	27.47
760.166	27.69
760.346	27.2
760.526	26.9
760.706	27.25
760.886	27.51
761.066	27.74
761.246	27.07
761.426	27.07
761.606	26.92
761.786	26.69
761.966	26.86
762.146	26.62
762.326	26.63
762.506	26.32
762.686	26.78
762.866	26.58
763.046	26.89
763.225	26.78
763.405	26.76
763.585	26.61
763.765	26.81
763.945	26.94
764.124	27.5
764.304	28.2
764.484	28.22
764.664	28.12
764.843	28.19
765.023	27.93
765.203	28.09
765.382	27.81
765.562	28.09
765.741	28.71
765.921	29.2
766.101	29.34
766.28	29.88
766.46	29.6
766.639	28.8
766.819	28.93
766.998	28.84
767.178	29.15
767.357	29.8
767.537	29.92
767.716	29.77
767.896	29.95
768.075	28.83
768.254	29.22
768.434	29.58
768.613	29.25
768.792	28.93
768.972	29.24
769.151	28.76
769.33	29.51
769.51	29.52
769.689	28.83
769.868	29.7
770.047	30.26
770.226	29.44
770.406	30.13
770.585	29.74
770.764	29.21
770.943	28.87
771.122	29.36
771.301	29.86
771.48	30.94
771.66	31.12
771.839	30.87
772.018	31.15
772.197	30.41
772.376	29.58
772.555	30.04
772.734	29.04
772.913	28.88
773.092	29.22
773.271	29.45
773.449	28.97
773.628	28.43
773.807	28.51
773.986	27.7
774.165	27.5
774.344	26.56
774.523	26.17
774.701	26.66
774.88	26.47
775.059	27.9
775.238	28.1
775.417	28.74
775.595	28.32
775.774	28.86
775.953	28.67
776.131	27.45
776.31	27.22
776.489	27.5
776.667	28.39
776.846	27.64
777.025	27.67
777.203	27.89
777.382	27.95
777.56	27.62
777.739	27.28
777.917	28.25
778.096	27.73
778.274	28.19
778.453	29.34
778.631	28.84
778.81	29.49
778.988	28.9
779.166	30.52
779.345	30.01
779.523	30.63
779.702	30.54
779.88	30.52
780.058	30.03
780.237	30.12
780.415	31.34
780.593	31.27
780.771	32.11
780.95	33.62
781.128	32.42
781.306	34.1
781.484	33.17
781.662	33.94
781.841	32.92
782.019	31.97
782.197	31.5
782.375	31.12
782.553	30.49
782.731	29.74
782.909	29.64
783.087	28.39
783.265	28.33
783.443	29.24
783.621	28.27
783.799	28.59
783.977	28.24
784.155	29.61
784.333	30.17
784.511	30.82
784.689	31.68
784.867	31.78
785.045	31.55
785.223	31.42
785.4	31.2
785.578	30.73
785.756	30.61
785.934	31.05
786.112	30.44
786.289	29.85
786.467	29.01
786.645	29.42
786.823	29.78
787	29.32
787.178	29.43
787.356	29.8
787.533	30.63
787.711	30.78
787.889	30.74
788.066	30.64
788.244	30.66
788.421	31.01
788.599	31.17
788.776	30.97
788.954	30.97
789.131	31.18
789.309	32.26
789.486	32.9
789.664	33.08
789.841	31.54
790.019	31.89
790.196	32.09
790.373	32.7
790.551	31.8
790.728	32.31
790.906	32.77
791.083	33.39
791.26	33.13
791.437	32.12
791.615	30.83
791.792	30.16
791.969	30.22
792.146	31.93
792.324	32.77
792.501	33.02
792.678	32.43
792.855	32.88
793.032	32.64
793.209	33.14
793.387	32.11
793.564	32.08
793.741	33
793.918	33.36
794.095	33.69
794.272	33.33
794.449	33.44
794.626	31.99
794.803	32.36
794.98	32.14
795.157	32.99
795.334	33.04
795.511	32.92
795.688	33.17
795.864	33.45
796.041	33.73
796.218	33.75
796.395	33.77
796.572	33.99
796.749	32.37
796.925	33.59
797.102	32.76
797.279	32.5
797.456	32.02
797.632	32.21
797.809	31.92
797.986	31.82
798.162	31.68
798.339	31.04
798.516	31.1
798.692	31.52
798.869	30.89
799.046	31.51
799.222	30.65
799.399	30.53
799.575	31.57
799.752	31.88
799.928	32.63
800.105	33.77
800.281	34.59
800.458	34.82
800.634	35
800.811	34.98
800.987	34.87
801.163	35.51
801.34	34.98
801.516	35.02
801.692	35.16
801.869	34.83
802.045	34.81
802.221	34.15
802.398	33.82
802.574	34.68
802.75	34.64
802.926	35
803.103	34.86
803.279	34.43
803.455	34.74
803.631	36.66
803.807	36.6
803.983	35.94
804.16	34.8
804.336	34.35
804.512	35.81
804.688	35.03
804.864	34.04
805.04	34.45
805.216	34.4
805.392	35.17
805.568	35.16
805.744	34.41
805.92	33.04
806.096	34.18
806.272	35.67
806.448	36.7
806.623	35.86
806.799	33.86
806.975	34.04
807.151	33.88
807.327	32.65
807.503	32.64
807.678	33.16
807.854	32.41
808.03	33.28
808.206	33.08
808.381	31.99
808.557	30.55
808.733	30.24
808.908	32.19
809.084	31.85
809.26	31.45
809.435	31.24
809.611	31.86
809.787	32.03
809.962	30.81
810.138	31.38
810.313	30.64
810.489	31.52
810.664	30.64
810.84	31.37
811.015	32.82
811.191	33.29
811.366	34.76
811.542	34.41
811.717	36.54
811.892	37.05
812.068	36.88
812.243	38.89
812.419	39.54
812.594	40.13
812.769	39.9
812.944	40.37
813.12	41.13
813.295	39.8
813.47	39.43
813.645	38.69
813.821	40.23
813.996	39.21
814.171	38.53
814.346	40.38
814.521	39.13
814.697	39.02
814.872	38.56
815.047	39.37
815.222	38.5
815.397	38.21
815.572	38.32
815.747	37.14
815.922	36.45
816.097	35.79
816.272	35.14
816.447	35.7
816.622	33.41
816.797	32.23
816.972	31.71
817.147	31.58
817.322	30.77
817.496	31.49
817.671	30.64
817.846	29.72
818.021	28.5
818.196	28.62
818.371	29.35
818.545	29.6
818.72	29.95
818.895	29.45
819.069	29.86
819.244	30.09
819.419	29.41
819.594	29.61
819.768	29.13
819.943	28.4
820.117	29.23
820.292	29.55
820.467	29.95
820.641	29.06
820.816	28.38
820.99	28.06
821.165	28.18
821.339	27.73
821.514	27.54
821.688	27.46
821.863	27.11
822.037	27.33
822.212	27.47
822.386	26.97
822.56	27.18
822.735	26.78
822.909	26.72
823.084	26.81
823.258	26.65
823.432	26.51
823.606	26.75
823.781	26.71
823.955	26.67
824.129	27.18
824.303	27.34
824.478	27.13
824.652	27.49
824.826	27.26
825	27.96
825.174	28.12
825.348	28.2
825.523	28.61
825.697	29.04
825.871	28.93
826.045	29.12
826.219	29.39
826.393	28.81
826.567	28.66
826.741	28.84
826.915	29.06
827.089	28.85
827.263	28.35
827.437	28.27
827.611	28.55
827.784	28.31
827.958	27.98
828.132	28.06
828.306	27.76
828.48	27.83
828.654	28.3
828.827	27.81
829.001	28.07
829.175	28.37
829.349	28.03
829.522	28.05
829.696	28.12
829.87	28.91
830.044	29.52
830.217	29.42
830.391	28.69
830.565	28.56
830.738	28.98
830.912	28.32
831.085	29.33
831.259	29.26
831.432	29.34
831.606	30.4
831.779	31.02
831.953	31.35
832.126	29.88
832.3	29.54
832.473	29.79
832.647	31.04
832.82	31.78
832.994	31.5
833.167	31.86
833.34	31.53
833.514	31.42
833.687	30.61
833.86	30.24
834.034	29.68
834.207	30.2
834.38	30.56
834.553	31.06
834.727	30.67
834.9	30.52
835.073	30.2
835.246	30.18
835.419	30.46
835.593	30.35
835.766	31.95
835.939	32.37
836.112	32.27
836.285	32.45
836.458	31.95
836.631	33.52
836.804	32.54
836.977	34.11
837.15	33.53
837.323	34.86
837.496	35.03
837.669	34.42
837.842	35.22
838.015	33.64
838.188	33.24
838.361	35.34
838.533	35.92
838.706	34.87
838.879	33.73
839.052	34.87
839.225	34.04
839.398	35.49
839.57	35.01
839.743	35.54
839.916	34.87
840.088	34.31
840.261	34.78
840.434	35.3
840.607	35.03
840.779	35.48
840.952	37.77
841.124	37.16
841.297	35.57
841.47	35.83
841.642	35.78
841.815	35.35
841.987	34.45
842.16	36.22
842.332	36.59
842.505	36.34
842.677	38.24
842.85	38.22
843.022	39.5
843.194	40.17
843.367	40.08
843.539	43.13
843.712	42.82
843.884	41.42
844.056	41.76
844.229	44.58
844.401	42.78
844.573	44.22
844.745	43.43
844.918	41.39
845.09	43
845.262	41.7
845.434	39.29
845.606	43
845.779	42.07
845.951	49.45
846.123	50.58
846.295	49.87
846.467	48.25
846.639	48.91
846.811	46.55
846.983	47.81
847.155	47.83
847.327	46.57
847.499	46.37
847.671	48.06
847.843	45.82
848.015	44.08
848.187	40.63
848.359	42.21
848.531	40.53
848.703	39.54
848.875	39.74
849.047	40.21
849.218	39.2
849.39	40.44
849.562	37.16
849.734	42.17
849.905	39.82
850.077	35.54
850.249	39.83
850.421	35.56
850.592	34.77
850.764	38.67
850.936	40.08
851.107	39.55
851.279	41.49
851.451	40.78
851.622	39.45
851.794	46.86
851.965	44.9
852.137	47.48
852.308	49.93
852.48	46.89
852.651	48.49
852.823	45.58
852.994	43.77
853.166	45.93
853.337	47.82
853.509	46.47
853.68	48.48
853.851	47.01
854.023	42.07
854.194	41.05
854.365	40.05
854.537	43.48
854.708	45.84
854.879	47.5
855.05	51.14
855.222	54.75
855.393	54.5
855.564	58.26
855.735	62.05
855.906	59.96
856.078	63.68
856.249	68.27
856.42	71.43
856.591	68.68
856.762	62.4
856.933	60.03
857.104	58
857.275	56.46
857.446	57.08
857.617	56.11
857.788	51.98
857.959	50.02
858.13	55.57
858.301	54.52
858.472	54.05
858.643	50.66
858.814	53.88
858.985	56.33
859.155	59.55
859.326	61.72
859.497	62.55
859.668	61.09
859.839	59.42
860.009	61.23
860.18	62.4
860.351	56.47
860.522	56.07
860.692	55.07
860.863	57.69
861.034	54.36
861.204	55.39
861.375	56.64
861.546	57.22
861.716	57.49
861.887	56
862.057	57.36
862.228	57.42
862.398	57.41
862.569	61.4
862.739	58.74
862.91	56.24
863.08	55.48
863.251	55.96
863.421	56.49
863.592	53.71
863.762	51.02
863.932	51.68
864.103	54.81
864.273	55.95
864.443	51.59
864.614	51.03
864.784	50.16
864.954	58.07
865.125	59.97
865.295	56.7
865.465	61.43
865.635	64.63
865.805	65.84
865.976	70.19
866.146	63
866.316	64.57
866.486	63.75
866.656	66.72
866.826	67.92
866.996	72.07
867.166	67.01
867.336	66.65
867.506	67.23
867.676	61.7
867.846	57.16
868.016	57.38
868.186	53.96
868.356	58.02
868.526	55.21
868.696	54.04
868.866	56.28
869.036	56
869.206	53.3
869.376	54.07
869.545	56.47
869.715	53.94
869.885	57.24
870.055	59.63
870.224	61.56
870.394	64.17
870.564	69.25
870.734	67.46
870.903	69.79
871.073	70.95
871.243	68.91
871.412	70.32
871.582	76.3
871.751	74.96
871.921	78.37
872.091	75.06
872.26	70.1
872.43	67.94
872.599	66.28
872.769	64.51
872.938	68.73
873.108	66.07
873.277	62.36
873.446	64.14
873.616	60.48
873.785	59.08
873.955	56.39
874.124	58.07
874.293	57.3
874.463	63.52
874.632	60.38
874.801	58.53
874.971	60.14
875.14	52.58
875.309	57.36
875.478	60
875.647	57.88
875.817	58.19
875.986	57.12
876.155	58.18
876.324	55.41
876.493	54.48
876.662	48.97
876.831	48.23
877	50
877.17	44.16
877.339	46.77
877.508	45.25
877.677	45.53
877.846	49.17
878.015	46.09
878.184	43.61
878.352	43.05
878.521	41.75
878.69	46.56
878.859	47.19
879.028	46.54
879.197	45.79
879.366	46.7
879.534	45.48
879.703	43.6
879.872	41.71
880.041	40.29
880.21	38.82
880.378	37.91
880.547	36.89
880.716	36.95
880.884	35.68
881.053	34.99
881.222	34.62
881.39	33.79
881.559	33.05
881.727	32.42
881.896	32.14
882.065	32.21
882.233	31.17
882.402	31.45
882.57	30.63
882.739	30.91
882.907	30.19
883.076	29.36
883.244	29.83
883.412	30.57
883.581	30.67
883.749	30.45
883.918	30.65
884.086	31.53
884.254	31.7
884.423	31.59
884.591	31.9
884.759	33.11
884.927	32.79
885.096	34.42
885.264	36.8
885.432	36.96
885.6	35.91
885.769	36.87
885.937	38.46
886.105	41.79
886.273	39.7
886.441	40.89
886.609	42.61
886.777	42.75
886.945	43.64
887.113	46.44
887.281	44.85
887.449	41.47
887.617	41.22
887.785	42.55
887.953	41.81
888.121	43.42
888.289	39.74
888.457	40.35
888.625	38.48
888.793	40.58
888.961	42.92
889.129	45.17
889.296	43.57
889.464	44.62
889.632	47.44
889.8	48.06
889.967	49.01
890.135	52.53
