Data from 2938503_Reflection_2.txt Node
Date: Tue Jun 16 23:11:15 EDT 2015
User: robert
Spectrometer: USB4E03002
Autoset integration time: false
Trigger mode: 4
Integration Time (sec): 1.000000E-1
Scans to average: 10
Electric dark correction enabled: true
Nonlinearity correction enabled: false
Boxcar width: 5
Stray light correction enabled: false
XAxis mode: Wavelengths
Stop averaging: false
Number of Pixels in Spectrum: 3648
>>>>>Begin Spectral Data<<<<<
177.575	452
177.794	120.15
178.014	78.89
178.233	70.45
178.452	72.85
178.672	110.57
178.891	113.66
179.11	-10325
179.33	1991.15
179.549	1116.59
179.768	262.19
179.987	-336.78
180.207	121.05
180.426	97.44
180.645	107.47
180.864	88.4
181.084	111
181.303	132.09
181.522	80.44
181.741	55.41
181.96	66.7
182.179	29.05
182.398	32.55
182.618	40.97
182.837	16.03
183.056	35.35
183.275	51.74
183.494	59.74
183.713	52.96
183.932	52.97
184.151	66.88
184.37	59.05
184.589	69.64
184.808	72.68
185.027	68.3
185.246	91.94
185.465	74.36
185.684	57.31
185.903	47.9
186.122	63.99
186.341	69.7
186.56	38.68
186.779	126.64
186.998	74.91
187.216	102.79
187.435	103.14
187.654	122.66
187.873	119.66
188.092	143.51
188.311	137.41
188.53	133.65
188.748	151.79
188.967	146.71
189.186	109.19
189.405	103.81
189.623	110.44
189.842	128.36
190.061	110.91
190.28	97.61
190.498	72.48
190.717	73.05
190.936	65.33
191.154	65.81
191.373	65.96
191.592	78.49
191.81	84.75
192.029	80.84
192.248	74.01
192.466	72.58
192.685	75.31
192.904	77.58
193.122	67.95
193.341	63.5
193.559	54.96
193.778	54.73
193.996	68.96
194.215	47.05
194.433	60.46
194.652	83.67
194.87	87.85
195.089	100.34
195.307	120.47
195.526	163.73
195.744	155.65
195.963	160.9
196.181	198.69
196.399	140.83
196.618	149.46
196.836	134.23
197.055	101.09
197.273	75.08
197.491	31.76
197.71	41.28
197.928	34.15
198.146	18.19
198.365	27.67
198.583	41.65
198.801	40.96
199.019	61.51
199.238	48.02
199.456	52.47
199.674	66.07
199.892	89.01
200.111	92.93
200.329	79.48
200.547	111.37
200.765	110.8
200.983	143.35
201.202	133.64
201.42	164.67
201.638	171.44
201.856	211.39
202.074	156.47
202.292	163.01
202.51	121.97
202.728	136.45
202.946	83.22
203.165	82.75
203.383	40.24
203.601	62.79
203.819	8.24
204.037	-16.06
204.255	3.71
204.473	9.03
204.691	-10.71
204.909	-2.67
205.127	15.52
205.345	0.47
205.562	-9.71
205.78	6.66
205.998	-20.69
206.216	7.66
206.434	0.69
206.652	10.84
206.87	38.26
207.088	62.2
207.306	68.82
207.523	78.73
207.741	100.94
207.959	85.08
208.177	102.73
208.395	113.21
208.612	108.62
208.83	104.2
209.048	102.34
209.266	91.25
209.483	82.58
209.701	79.15
209.919	67.94
210.136	59.78
210.354	58.51
210.572	43.81
210.79	37.2
211.007	37.08
211.225	37.39
211.442	45.82
211.66	44.17
211.878	39.09
212.095	-45.24
212.313	-42.91
212.53	-44.45
212.748	-75.58
212.966	-79.43
213.183	-45.34
213.401	-50.72
213.618	-50.06
213.836	-61.16
214.053	-38.53
214.271	-29.12
214.488	61
214.705	55.28
214.923	50.84
215.14	48.17
215.358	43.78
215.575	51.14
215.793	42.41
216.01	61.65
216.227	60.3
216.445	57.68
216.662	52.29
216.879	55.68
217.097	50.84
217.314	52.35
217.531	54.58
217.749	63.35
217.966	60.52
218.183	50.97
218.4	35.81
218.618	28.85
218.835	29.26
219.052	23.83
219.269	8.88
219.487	15.15
219.704	22.11
219.921	33.19
220.138	34.2
220.355	27.84
220.572	34.78
220.79	44.39
221.007	44.96
221.224	41.63
221.441	37.5
221.658	42.87
221.875	43.62
222.092	37.04
222.309	31.65
222.526	32.08
222.743	30.04
222.96	31.32
223.177	29.9
223.394	24.43
223.611	22.91
223.828	23.2
224.045	19.74
224.262	23.67
224.479	27.32
224.696	27.3
224.913	21.52
225.13	21.23
225.347	21.69
225.564	18.59
225.781	19.38
225.997	22.04
226.214	20.55
226.431	20.51
226.648	19.22
226.865	17.98
227.082	16.45
227.298	16.34
227.515	16.15
227.732	14.99
227.949	14.76
228.165	14.52
228.382	12.15
228.599	13.1
228.816	12.63
229.032	11.97
229.249	12.67
229.466	13.16
229.682	13.47
229.899	12.47
230.116	12.22
230.332	13.46
230.549	14.78
230.765	15.74
230.982	15.97
231.199	15.57
231.415	15.89
231.632	14.03
231.848	13.88
232.065	15.54
232.281	17.7
232.498	18.95
232.714	17.81
232.931	16.49
233.147	17.59
233.364	15.64
233.58	16.99
233.797	15.32
234.013	14.51
234.23	15.45
234.446	14.07
234.662	13.56
234.879	12.98
235.095	13.19
235.312	14.19
235.528	12.1
235.744	12.61
235.961	12.89
236.177	12.98
236.393	14.32
236.61	14.22
236.826	13.45
237.042	11.82
237.258	11.36
237.475	9.72
237.691	8.89
237.907	9.5
238.123	11.13
238.339	10.31
238.556	12.56
238.772	13.32
238.988	13.34
239.204	13.64
239.42	14.34
239.636	13.61
239.853	14.2
240.069	15
240.285	15.1
240.501	14.64
240.717	15
240.933	13.72
241.149	13.51
241.365	13.18
241.581	13.21
241.797	13.42
242.013	13.83
242.229	14.37
242.445	14.09
242.661	14.33
242.877	14.27
243.093	13.82
243.309	14.67
243.525	14.98
243.741	14.92
243.957	13.9
244.173	13.2
244.388	12.81
244.604	12.21
244.82	11.59
245.036	11.19
245.252	11.1
245.468	11.14
245.683	10.9
245.899	10.99
246.115	11.03
246.331	11.15
246.547	11.34
246.762	11.35
246.978	11.16
247.194	11.13
247.409	11.51
247.625	11.23
247.841	10.93
248.057	10.76
248.272	9.23
248.488	9.27
248.703	9.47
248.919	9.53
249.135	9.95
249.35	9.79
249.566	10.15
249.782	9.5
249.997	10.01
250.213	10.49
250.428	10.81
250.644	12.16
250.859	11.73
251.075	11.45
251.29	10.94
251.506	10.38
251.721	10.08
251.937	9.86
252.152	9.74
252.368	9.88
252.583	9.49
252.798	9.3
253.014	8.63
253.229	8.09
253.445	8.78
253.66	8.39
253.875	8.94
254.091	10.82
254.306	12.04
254.521	13.32
254.737	13.07
254.952	12.88
255.167	12.25
255.383	11.76
255.598	11.67
255.813	11.29
256.028	11.13
256.244	10.73
256.459	10.01
256.674	8.68
256.889	8.2
257.104	8.11
257.32	8.66
257.535	8.65
257.75	8.46
257.965	8.49
258.18	8.66
258.395	8.72
258.61	8.95
258.826	8.96
259.041	9.57
259.256	9.52
259.471	9.74
259.686	9.23
259.901	9.39
260.116	9.38
260.331	9.62
260.546	9.62
260.761	9.49
260.976	9.48
261.191	9.72
261.406	9.36
261.621	9.33
261.836	9.35
262.05	9.56
262.265	9.63
262.48	10.12
262.695	10.86
262.91	11.08
263.125	10.81
263.34	10.73
263.555	10.02
263.769	9.87
263.984	10.32
264.199	9.35
264.414	9.03
264.629	8.3
264.843	8.27
265.058	7.41
265.273	6.93
265.488	7.75
265.702	7.79
265.917	7.98
266.132	8.15
266.346	7.66
266.561	8.09
266.776	8.66
266.99	9.05
267.205	8.75
267.42	8.93
267.634	8.79
267.849	8.37
268.063	7.64
268.278	7.59
268.492	7.6
268.707	8.08
268.922	8.34
269.136	7.9
269.351	8.34
269.565	8.71
269.78	8.57
269.994	8.29
270.209	8.1
270.423	8.41
270.637	8.56
270.852	8.52
271.066	8.47
271.281	8.09
271.495	8.15
271.709	7.89
271.924	8.13
272.138	8.51
272.353	8.86
272.567	9.03
272.781	8.94
272.996	8.75
273.21	8.57
273.424	8.42
273.638	8.51
273.853	8.82
274.067	8.97
274.281	8.71
274.495	8.83
274.71	8.59
274.924	8.46
275.138	8.61
275.352	8.63
275.566	8.53
275.781	8.18
275.995	8.48
276.209	7.98
276.423	8.15
276.637	8.56
276.851	7.77
277.065	7.85
277.279	8.49
277.493	8.46
277.707	8.48
277.921	8.36
278.135	9.1
278.349	9.18
278.563	9.36
278.777	9.11
278.991	8.64
279.205	9.11
279.419	9.38
279.633	9.18
279.847	9.31
280.061	9.48
280.275	9.71
280.489	10.14
280.703	10.16
280.917	10.01
281.131	9.72
281.344	9.58
281.558	9.88
281.772	9.56
281.986	9.31
282.2	8.6
282.414	8.26
282.627	8.14
282.841	7.56
283.055	7.3
283.269	7.52
283.482	7.75
283.696	7.77
283.91	7.25
284.123	7.63
284.337	7.64
284.551	8.2
284.764	8.77
284.978	9.04
285.192	8.56
285.405	8.56
285.619	8.46
285.833	8.2
286.046	8.15
286.26	8.5
286.473	8.18
286.687	8.22
286.9	8.06
287.114	7.73
287.327	7.6
287.541	7.69
287.754	7.64
287.968	7.99
288.181	8.19
288.395	8.61
288.608	8.61
288.822	8.95
289.035	9.16
289.248	9.26
289.462	9.44
289.675	9.26
289.889	9.76
290.102	9.66
290.315	9.31
290.529	9.29
290.742	8.9
290.955	8.97
291.169	9.13
291.382	9.1
291.595	9.12
291.808	8.83
292.022	9.69
292.235	9.88
292.448	10.01
292.661	10.4
292.875	10.83
293.088	10.74
293.301	10.4
293.514	10.13
293.727	10.36
293.94	10.14
294.153	10.35
294.367	9.87
294.58	9.85
294.793	10.1
295.006	10.04
295.219	9.9
295.432	9.84
295.645	10.3
295.858	10.3
296.071	10.28
296.284	10.56
296.497	10.47
296.71	10.64
296.923	10.61
297.136	10.39
297.349	10.53
297.562	10.24
297.775	10.49
297.988	10.21
298.201	10.47
298.414	10.69
298.626	10.52
298.839	10.72
299.052	11.15
299.265	10.56
299.478	11.29
299.691	11.39
299.903	11.9
300.116	12.26
300.329	11.9
300.542	11.81
300.755	11.63
300.967	12.01
301.18	11.95
301.393	11.37
301.605	11.96
301.818	11.86
302.031	11.51
302.243	11.42
302.456	11.5
302.669	11.96
302.881	11.74
303.094	11.5
303.307	11.61
303.519	11.78
303.732	11.85
303.944	12.06
304.157	12.08
304.37	12.11
304.582	11.89
304.795	11.72
305.007	12.29
305.22	12.13
305.432	12.17
305.645	12.12
305.857	11.9
306.069	12.39
306.282	11.8
306.494	11.74
306.707	11.81
306.919	12
307.132	11.91
307.344	11.41
307.556	11.93
307.769	12.16
307.981	11.89
308.193	12.22
308.406	11.79
308.618	12.36
308.83	12.47
309.043	12.62
309.255	12.65
309.467	12.99
309.679	12.72
309.892	12.6
310.104	12.49
310.316	12.78
310.528	12.62
310.74	12.85
310.953	12.56
311.165	12.41
311.377	12.48
311.589	12.81
311.801	12.75
312.013	13.19
312.225	13.13
312.437	13.01
312.649	13.43
312.862	13.4
313.074	13.57
313.286	13.82
313.498	13.73
313.71	13.99
313.922	14.05
314.134	14.17
314.346	14.05
314.558	14.73
314.77	14.93
314.982	14.86
315.193	14.88
315.405	14.76
315.617	14.8
315.829	15.21
316.041	14.92
316.253	14.5
316.465	14.11
316.677	14.14
316.888	13.64
317.1	13.83
317.312	13.65
317.524	13.58
317.736	13.73
317.947	13.91
318.159	13.92
318.371	13.83
318.583	14.34
318.794	14.32
319.006	14.41
319.218	14.7
319.43	14.71
319.641	14.93
319.853	15.7
320.064	15.63
320.276	15.13
320.488	14.53
320.699	14.73
320.911	14.14
321.123	14.57
321.334	14.68
321.546	14.63
321.757	14.22
321.969	13.43
322.18	13.23
322.392	13.47
322.603	13.91
322.815	14.52
323.026	14.25
323.238	14.38
323.449	13.93
323.661	13.63
323.872	13.84
324.083	13.76
324.295	14.26
324.506	14
324.718	13.67
324.929	13.5
325.14	13.11
325.352	13.18
325.563	13.21
325.774	13.82
325.986	14.13
326.197	13.7
326.408	14.49
326.62	14.33
326.831	14.75
327.042	14.66
327.253	14.62
327.464	14.8
327.676	14.76
327.887	14.76
328.098	14.35
328.309	14.24
328.52	15.14
328.732	15.09
328.943	15.01
329.154	14.93
329.365	14.9
329.576	14.81
329.787	14.81
329.998	15.41
330.209	15.41
330.42	15.35
330.631	15.52
330.842	14.51
331.053	14.16
331.264	14.27
331.475	13.83
331.686	14.08
331.897	14.42
332.108	14.33
332.319	14.14
332.53	14.22
332.741	15.05
332.952	14.67
333.163	15.1
333.374	15.27
333.585	15.37
333.795	15.34
334.006	15.42
334.217	15.11
334.428	15.09
334.639	15.17
334.849	15.33
335.06	14.86
335.271	15.05
335.482	14.24
335.692	14.26
335.903	14.35
336.114	14.34
336.325	14.37
336.535	14.65
336.746	14.63
336.957	14.63
337.167	14.56
337.378	14.23
337.589	14.01
337.799	14.85
338.01	14.61
338.22	14.2
338.431	13.84
338.642	13.63
338.852	13.72
339.063	13.73
339.273	13.52
339.484	13.57
339.694	13.29
339.905	14.01
340.115	13.61
340.326	13.76
340.536	14.09
340.746	14.38
340.957	14.4
341.167	13.91
341.378	14.04
341.588	13.96
341.799	13.61
342.009	13.6
342.219	12.84
342.43	12.89
342.64	12.51
342.85	11.95
343.061	12.06
343.271	11.78
343.481	11.95
343.691	11.91
343.902	11.92
344.112	11.59
344.322	11.74
344.532	11.97
344.743	11.87
344.953	12.15
345.163	12.64
345.373	12.15
345.583	12.3
345.793	12.53
346.004	12.72
346.214	12.88
346.424	13.74
346.634	14
346.844	13.96
347.054	14.14
347.264	14.1
347.474	14.11
347.684	14.69
347.894	14.77
348.104	14.74
348.314	14.29
348.524	14.12
348.734	13.73
348.944	13.28
349.154	13.41
349.364	13.31
349.574	13.33
349.784	13.03
349.994	12.8
350.204	12.6
350.413	12.66
350.623	12.72
350.833	12.54
351.043	12.19
351.253	12.45
351.463	12.41
351.672	12.71
351.882	12.58
352.092	12.91
352.302	13.15
352.511	13.23
352.721	12.88
352.931	12.88
353.141	13.05
353.35	13.28
353.56	13.11
353.77	13.19
353.979	12.94
354.189	13.18
354.399	12.96
354.608	12.72
354.818	12.44
355.027	12.36
355.237	12.55
355.447	12.46
355.656	12.44
355.866	12.51
356.075	12.16
356.285	12.18
356.494	11.91
356.704	11.72
356.913	11.93
357.123	12.08
357.332	11.95
357.542	11.83
357.751	11.66
357.96	11.81
358.17	11.52
358.379	11.62
358.589	11.83
358.798	11.76
359.007	11.74
359.217	11.73
359.426	11.54
359.635	11.67
359.845	11.4
360.054	11.52
360.263	11.3
360.472	11.36
360.682	11.33
360.891	11.09
361.1	11.13
361.309	11.2
361.519	11.01
361.728	11.32
361.937	11.43
362.146	11.43
362.355	11.72
362.564	11.94
362.774	12.09
362.983	11.9
363.192	11.73
363.401	11.76
363.61	11.98
363.819	12.14
364.028	11.87
364.237	11.49
364.446	11.52
364.655	11.17
364.864	11.07
365.073	10.84
365.282	11.02
365.491	11.24
365.7	11.28
365.909	11.05
366.118	10.54
366.327	10.76
366.536	10.87
366.745	11
366.954	11.27
367.162	11.36
367.371	11.59
367.58	11.65
367.789	11.71
367.998	11.6
368.207	11.52
368.415	11.62
368.624	11.58
368.833	11.77
369.042	11.91
369.25	11.75
369.459	11.31
369.668	11.29
369.877	11.09
370.085	10.78
370.294	10.67
370.503	10.88
370.711	10.92
370.92	10.57
371.129	10.33
371.337	10.26
371.546	10.01
371.754	9.95
371.963	9.9
372.171	9.83
372.38	9.89
372.589	9.63
372.797	9.36
373.006	9.44
373.214	9.64
373.423	10.01
373.631	10
373.84	10.25
374.048	10.29
374.256	10.29
374.465	10.25
374.673	10.44
374.882	10.7
375.09	10.79
375.298	10.6
375.507	10.39
375.715	10.22
375.923	10.07
376.132	9.66
376.34	9.69
376.548	9.75
376.757	9.97
376.965	9.75
377.173	9.68
377.381	9.57
377.59	9.58
377.798	9.75
378.006	9.61
378.214	9.82
378.423	10.03
378.631	9.95
378.839	9.83
379.047	9.97
379.255	10.06
379.463	10.26
379.671	10.47
379.879	10.61
380.088	10.53
380.296	10.5
380.504	10.13
380.712	10.09
380.92	10.19
381.128	10.35
381.336	10.08
381.544	10.05
381.752	10.04
381.96	9.83
382.168	9.79
382.376	9.73
382.584	9.67
382.791	9.7
382.999	9.68
383.207	9.99
383.415	9.79
383.623	9.74
383.831	9.72
384.039	9.68
384.247	9.76
384.454	9.49
384.662	9.51
384.87	9.7
385.078	9.81
385.285	9.84
385.493	9.84
385.701	9.67
385.909	9.93
386.116	9.68
386.324	9.57
386.532	9.57
386.739	9.62
386.947	9.61
387.155	9.31
387.362	9.3
387.57	9.29
387.778	8.69
387.985	8.9
388.193	8.39
388.4	8.7
388.608	8.75
388.816	8.67
389.023	8.76
389.231	9.04
389.438	9.1
389.646	9.11
389.853	8.94
390.061	9
390.268	8.91
390.475	9.07
390.683	8.74
390.89	8.54
391.098	8.56
391.305	8.49
391.512	8.41
391.72	8.4
391.927	8.45
392.135	8.56
392.342	8.89
392.549	9.01
392.756	9.11
392.964	9.24
393.171	9.3
393.378	9.1
393.586	9.16
393.793	9.13
394	9.13
394.207	9.18
394.414	9.03
394.622	8.63
394.829	8.53
395.036	8.41
395.243	8.29
395.45	8.35
395.657	8.53
395.864	8.58
396.072	8.42
396.279	8.56
396.486	8.31
396.693	8.55
396.9	8.76
397.107	8.7
397.314	8.75
397.521	9.05
397.728	8.83
397.935	8.84
398.142	8.96
398.349	9.04
398.556	8.95
398.763	8.92
398.97	8.86
399.177	8.93
399.383	8.86
399.59	8.92
399.797	8.76
400.004	8.73
400.211	8.8
400.418	8.57
400.625	8.42
400.831	8.35
401.038	8.27
401.245	8.18
401.452	8.13
401.658	8.18
401.865	8.16
402.072	8.13
402.279	8.19
402.485	8.07
402.692	8.1
402.899	8.09
403.105	8.19
403.312	8.35
403.519	8.25
403.725	8.27
403.932	8.18
404.138	7.95
404.345	7.82
404.552	7.92
404.758	7.94
404.965	8.01
405.171	7.96
405.378	7.96
405.584	7.9
405.791	7.86
405.997	7.78
406.204	7.81
406.41	7.96
406.617	8.22
406.823	8.28
407.029	8.13
407.236	8.13
407.442	8.21
407.649	8.03
407.855	8.11
408.061	8.19
408.268	8.17
408.474	8.17
408.68	8.06
408.887	7.87
409.093	7.78
409.299	7.74
409.505	7.67
409.712	7.79
409.918	7.95
410.124	7.8
410.33	7.75
410.537	7.73
410.743	7.81
410.949	7.95
411.155	8.11
411.361	8.12
411.567	8.29
411.773	8.36
411.98	8.25
412.186	8.19
412.392	8.27
412.598	8.31
412.804	8.24
413.01	8.24
413.216	8.26
413.422	8.18
413.628	8.12
413.834	7.94
414.04	7.88
414.246	7.89
414.452	7.88
414.658	7.91
414.864	7.92
415.07	7.97
415.275	7.93
415.481	7.92
415.687	7.87
415.893	7.9
416.099	7.95
416.305	7.84
416.511	7.77
416.716	7.59
416.922	7.49
417.128	7.44
417.334	7.45
417.539	7.46
417.745	7.47
417.951	7.5
418.157	7.42
418.362	7.39
418.568	7.39
418.774	7.34
418.979	7.45
419.185	7.51
419.391	7.59
419.596	7.57
419.802	7.4
420.008	7.31
420.213	7.19
420.419	7.2
420.624	7.2
420.83	7.19
421.035	7.3
421.241	7.25
421.446	7.17
421.652	7.1
421.857	6.99
422.063	7.09
422.268	7.12
422.474	7.18
422.679	7.21
422.885	7.22
423.09	7.25
423.295	7.17
423.501	7.24
423.706	7.35
423.911	7.39
424.117	7.47
424.322	7.45
424.527	7.46
424.733	7.5
424.938	7.52
425.143	7.49
425.349	7.53
425.554	7.63
425.759	7.52
425.964	7.5
426.169	7.35
426.375	7.38
426.58	7.45
426.785	7.45
426.99	7.3
427.195	7.36
427.4	7.46
427.605	7.38
427.811	7.22
428.016	7.29
428.221	7.09
428.426	7.16
428.631	7.14
428.836	7.16
429.041	7.11
429.246	7.19
429.451	7.11
429.656	6.96
429.861	7.03
430.066	7.08
430.271	7.02
430.476	7.04
430.681	6.97
430.886	7.05
431.09	7.05
431.295	7.06
431.5	6.94
431.705	6.95
431.91	7.06
432.115	7.06
432.32	7.06
432.524	7.01
432.729	7.03
432.934	7.14
433.139	7.07
433.343	7.05
433.548	7.07
433.753	7.16
433.958	7.2
434.162	7.23
434.367	7.1
434.572	7.06
434.776	7.33
434.981	7.22
435.186	7.15
435.39	7.16
435.595	7.09
435.799	7.04
436.004	7.03
436.209	6.91
436.413	6.81
436.618	6.81
436.822	6.84
437.027	6.61
437.231	6.74
437.436	6.74
437.64	6.78
437.845	6.72
438.049	6.67
438.253	6.69
438.458	6.69
438.662	6.7
438.867	6.8
439.071	6.83
439.275	6.84
439.48	6.83
439.684	6.82
439.888	6.71
440.093	6.73
440.297	6.84
440.501	6.9
440.706	6.88
440.91	6.87
441.114	6.85
441.318	6.8
441.523	6.84
441.727	6.87
441.931	6.96
442.135	7.01
442.339	6.9
442.543	6.89
442.748	6.86
442.952	6.91
443.156	6.92
443.36	6.89
443.564	6.86
443.768	6.85
443.972	6.82
444.176	6.72
444.38	6.76
444.584	6.87
444.788	6.85
444.992	6.74
445.196	6.72
445.4	6.68
445.604	6.57
445.808	6.56
446.012	6.48
446.216	6.47
446.42	6.51
446.624	6.4
446.828	6.43
447.032	6.32
447.235	6.31
447.439	6.35
447.643	6.39
447.847	6.5
448.051	6.52
448.254	6.64
448.458	6.63
448.662	6.67
448.866	6.75
449.069	6.82
449.273	6.8
449.477	6.92
449.681	6.87
449.884	6.79
450.088	6.72
450.292	6.68
450.495	6.65
450.699	6.61
450.902	6.5
451.106	6.52
451.31	6.42
451.513	6.63
451.717	6.54
451.92	6.56
452.124	6.58
452.327	6.5
452.531	6.54
452.734	6.6
452.938	6.63
453.141	6.67
453.345	6.63
453.548	6.6
453.752	6.49
453.955	6.43
454.158	6.43
454.362	6.33
454.565	6.48
454.769	6.42
454.972	6.32
455.175	6.32
455.379	6.31
455.582	6.27
455.785	6.24
455.988	6.22
456.192	6.3
456.395	6.22
456.598	6.43
456.801	6.44
457.005	6.45
457.208	6.44
457.411	6.53
457.614	6.6
457.817	6.61
458.021	6.66
458.224	6.7
458.427	6.72
458.63	6.73
458.833	6.69
459.036	6.68
459.239	6.68
459.442	6.69
459.645	6.63
459.848	6.55
460.051	6.54
460.254	6.51
460.457	6.52
460.66	6.49
460.863	6.57
461.066	6.52
461.269	6.42
461.472	6.44
461.675	6.55
461.878	6.59
462.081	6.56
462.284	6.68
462.486	6.78
462.689	6.75
462.892	6.82
463.095	6.8
463.298	6.88
463.5	6.89
463.703	6.81
463.906	6.79
464.109	6.8
464.311	6.79
464.514	6.79
464.717	6.74
464.92	6.74
465.122	6.72
465.325	6.61
465.528	6.51
465.73	6.6
465.933	6.7
466.135	6.77
466.338	6.75
466.541	6.89
466.743	6.87
466.946	6.96
467.148	6.96
467.351	6.89
467.553	6.85
467.756	6.94
467.958	7.03
468.161	7.05
468.363	6.94
468.566	6.93
468.768	6.87
468.971	6.77
469.173	6.74
469.375	6.8
469.578	6.83
469.78	7.09
469.983	7.05
470.185	7.01
470.387	6.93
470.59	6.89
470.792	6.94
470.994	6.89
471.196	6.96
471.399	6.91
471.601	6.88
471.803	6.99
472.005	6.9
472.208	6.83
472.41	6.84
472.612	6.8
472.814	6.81
473.016	6.76
473.218	6.77
473.421	6.81
473.623	6.87
473.825	6.86
474.027	6.74
474.229	6.72
474.431	6.75
474.633	6.68
474.835	6.74
475.037	6.76
475.239	6.74
475.441	6.69
475.643	6.62
475.845	6.57
476.047	6.47
476.249	6.5
476.451	6.41
476.653	6.44
476.855	6.54
477.057	6.55
477.258	6.49
477.46	6.42
477.662	6.56
477.864	6.58
478.066	6.59
478.268	6.65
478.469	6.62
478.671	6.69
478.873	6.66
479.075	6.6
479.276	6.53
479.478	6.54
479.68	6.56
479.882	6.44
480.083	6.45
480.285	6.46
480.487	6.46
480.688	6.44
480.89	6.36
481.091	6.33
481.293	6.3
481.495	6.31
481.696	6.34
481.898	6.32
482.099	6.33
482.301	6.34
482.502	6.29
482.704	6.27
482.905	6.3
483.107	6.34
483.308	6.34
483.51	6.35
483.711	6.37
483.913	6.36
484.114	6.34
484.315	6.35
484.517	6.32
484.718	6.36
484.92	6.39
485.121	6.36
485.322	6.33
485.524	6.32
485.725	6.35
485.926	6.34
486.127	6.35
486.329	6.35
486.53	6.37
486.731	6.38
486.932	6.3
487.134	6.28
487.335	6.32
487.536	6.32
487.737	6.35
487.938	6.35
488.139	6.38
488.341	6.41
488.542	6.48
488.743	6.42
488.944	6.45
489.145	6.51
489.346	6.49
489.547	6.48
489.748	6.48
489.949	6.46
490.15	6.5
490.351	6.43
490.552	6.39
490.753	6.38
490.954	6.43
491.155	6.42
491.356	6.44
491.557	6.47
491.758	6.5
491.959	6.54
492.159	6.58
492.36	6.54
492.561	6.62
492.762	6.67
492.963	6.66
493.164	6.68
493.364	6.77
493.565	6.82
493.766	6.87
493.967	6.83
494.167	6.88
494.368	6.89
494.569	6.87
494.769	6.79
494.97	6.76
495.171	6.82
495.371	6.8
495.572	6.75
495.773	6.67
495.973	6.68
496.174	6.76
496.375	6.64
496.575	6.64
496.776	6.67
496.976	6.72
497.177	6.75
497.377	6.76
497.578	6.75
497.778	6.77
497.979	6.86
498.179	6.85
498.38	6.79
498.58	6.84
498.78	6.8
498.981	6.85
499.181	6.89
499.382	6.79
499.582	6.84
499.782	6.92
499.983	6.92
500.183	6.84
500.383	6.85
500.584	6.85
500.784	6.92
500.984	6.97
501.184	6.92
501.385	6.98
501.585	7.11
501.785	6.98
501.985	6.91
502.185	6.95
502.386	6.97
502.586	7.01
502.786	7.06
502.986	7.02
503.186	7.04
503.386	7.08
503.586	7.06
503.786	7.05
503.987	7.14
504.187	7.2
504.387	7.25
504.587	7.25
504.787	7.22
504.987	7.31
505.187	7.28
505.387	7.27
505.587	7.21
505.786	7.26
505.986	7.3
506.186	7.27
506.386	7.31
506.586	7.34
506.786	7.46
506.986	7.42
507.186	7.37
507.386	7.4
507.585	7.42
507.785	7.47
507.985	7.43
508.185	7.39
508.384	7.49
508.584	7.43
508.784	7.34
508.984	7.31
509.183	7.36
509.383	7.37
509.583	7.39
509.782	7.36
509.982	7.42
510.182	7.44
510.381	7.48
510.581	7.45
510.781	7.44
510.98	7.46
511.18	7.5
511.379	7.52
511.579	7.52
511.778	7.57
511.978	7.66
512.177	7.66
512.377	7.66
512.576	7.66
512.776	7.63
512.975	7.74
513.175	7.81
513.374	7.79
513.573	7.76
513.773	7.81
513.972	7.8
514.172	7.79
514.371	7.78
514.57	7.76
514.77	7.8
514.969	7.87
515.168	7.86
515.367	7.83
515.567	7.88
515.766	7.95
515.965	7.92
516.164	7.93
516.364	7.91
516.563	7.92
516.762	7.96
516.961	7.97
517.16	7.94
517.359	7.93
517.559	7.94
517.758	7.93
517.957	7.89
518.156	7.91
518.355	7.87
518.554	7.89
518.753	7.92
518.952	7.95
519.151	7.93
519.35	7.92
519.549	7.91
519.748	7.95
519.947	7.91
520.146	7.93
520.345	7.92
520.544	7.97
520.743	8.04
520.942	8.01
521.141	7.97
521.339	8.06
521.538	8.13
521.737	8.24
521.936	8.27
522.135	8.34
522.333	8.39
522.532	8.4
522.731	8.4
522.93	8.35
523.129	8.32
523.327	8.32
523.526	8.28
523.725	8.26
523.923	8.18
524.122	8.19
524.321	8.21
524.519	8.19
524.718	8.22
524.917	8.23
525.115	8.29
525.314	8.31
525.512	8.32
525.711	8.34
525.909	8.36
526.108	8.37
526.306	8.35
526.505	8.35
526.703	8.35
526.902	8.33
527.1	8.34
527.299	8.32
527.497	8.36
527.696	8.36
527.894	8.38
528.092	8.39
528.291	8.44
528.489	8.5
528.688	8.53
528.886	8.58
529.084	8.6
529.283	8.64
529.481	8.71
529.679	8.7
529.877	8.72
530.076	8.77
530.274	8.81
530.472	8.83
530.67	8.72
530.869	8.74
531.067	8.71
531.265	8.74
531.463	8.76
531.661	8.73
531.859	8.78
532.057	8.8
532.255	8.78
532.454	8.79
532.652	8.8
532.85	8.89
533.048	8.89
533.246	8.97
533.444	9.02
533.642	9.08
533.84	9.07
534.038	9.07
534.236	9.15
534.434	9.16
534.632	9.14
534.83	9.1
535.027	9.13
535.225	9.15
535.423	9.11
535.621	9.13
535.819	9.09
536.017	9.11
536.215	9.14
536.412	9.13
536.61	9.14
536.808	9.16
537.006	9.24
537.203	9.25
537.401	9.35
537.599	9.45
537.797	9.51
537.994	9.59
538.192	9.66
538.39	9.65
538.587	9.62
538.785	9.61
538.983	9.68
539.18	9.67
539.378	9.63
539.575	9.61
539.773	9.61
539.97	9.56
540.168	9.55
540.366	9.6
540.563	9.66
540.761	9.72
540.958	9.77
541.155	9.8
541.353	9.86
541.55	9.9
541.748	9.94
541.945	10.01
542.143	10.09
542.34	10.14
542.537	10.15
542.735	10.17
542.932	10.22
543.129	10.21
543.327	10.2
543.524	10.22
543.721	10.27
543.919	10.28
544.116	10.27
544.313	10.29
544.51	10.29
544.708	10.32
544.905	10.39
545.102	10.4
545.299	10.5
545.496	10.64
545.693	10.67
545.891	10.71
546.088	10.79
546.285	10.81
546.482	10.82
546.679	10.9
546.876	10.93
547.073	11
547.27	11.07
547.467	11.11
547.664	11.13
547.861	11.22
548.058	11.25
548.255	11.3
548.452	11.39
548.649	11.66
548.846	11.82
549.043	11.94
549.24	11.91
549.437	11.95
549.633	12.03
549.83	11.96
550.027	12.05
550.224	12.08
550.421	12.05
550.618	12.01
550.814	11.93
551.011	11.85
551.208	11.84
551.405	11.91
551.601	11.99
551.798	11.97
551.995	11.97
552.191	11.94
552.388	11.97
552.585	12.03
552.781	12.12
552.978	12.19
553.175	12.19
553.371	12.34
553.568	12.34
553.764	12.31
553.961	12.55
554.157	12.78
554.354	12.86
554.55	13.13
554.747	13.19
554.943	13.22
555.14	13.23
555.336	13.37
555.533	13.24
555.729	13.3
555.926	13.41
556.122	13.28
556.318	13.16
556.515	13.11
556.711	13.04
556.907	13
557.104	13
557.3	13.04
557.496	13.08
557.693	13.21
557.889	13.29
558.085	13.23
558.281	13.28
558.478	13.34
558.674	13.46
558.87	13.32
559.066	13.43
559.262	13.42
559.459	13.47
559.655	13.52
559.851	13.57
560.047	13.58
560.243	13.74
560.439	13.82
560.635	13.9
560.831	13.98
561.027	14.06
561.223	14.26
561.419	14.37
561.615	14.42
561.811	14.49
562.007	14.55
562.203	14.57
562.399	14.57
562.595	14.79
562.791	14.83
562.987	14.77
563.183	14.89
563.379	14.75
563.575	14.84
563.771	14.91
563.966	14.88
564.162	14.87
564.358	14.87
564.554	14.92
564.75	14.76
564.945	14.78
565.141	14.81
565.337	14.85
565.533	14.8
565.728	14.84
565.924	14.83
566.12	14.81
566.315	14.88
566.511	15.04
566.707	15.03
566.902	15.15
567.098	15.06
567.293	15.22
567.489	15.25
567.684	15.38
567.88	15.44
568.076	15.55
568.271	15.6
568.467	15.7
568.662	15.69
568.858	15.77
569.053	15.84
569.248	16.02
569.444	15.95
569.639	16.07
569.835	16.21
570.03	16.2
570.225	16.23
570.421	16.3
570.616	16.23
570.812	16.21
571.007	16.16
571.202	16.13
571.397	16.13
571.593	16.13
571.788	16.01
571.983	16.04
572.178	16.04
572.374	16.07
572.569	16.08
572.764	16.14
572.959	16.17
573.154	16.25
573.35	16.29
573.545	16.34
573.74	16.44
573.935	16.53
574.13	16.56
574.325	16.62
574.52	16.63
574.715	16.61
574.91	16.65
575.105	16.72
575.3	16.74
575.495	16.67
575.69	16.68
575.885	16.68
576.08	16.61
576.275	16.54
576.47	16.4
576.665	16.32
576.86	16.51
577.055	16.46
577.25	16.42
577.444	16.51
577.639	16.74
577.834	16.71
578.029	16.67
578.224	16.84
578.418	16.8
578.613	17.01
578.808	17.14
579.003	17.08
579.197	17.17
579.392	17.3
579.587	17.23
579.781	17.12
579.976	17.18
580.171	17.26
580.365	17.28
580.56	17.44
580.755	17.6
580.949	17.63
581.144	17.56
581.338	17.61
581.533	17.61
581.727	17.72
581.922	17.73
582.116	17.83
582.311	17.92
582.505	17.97
582.7	18.06
582.894	18.03
583.089	17.91
583.283	17.96
583.478	17.92
583.672	17.89
583.866	17.89
584.061	17.82
584.255	17.84
584.449	17.86
584.644	17.88
584.838	17.91
585.032	17.8
585.226	18.07
585.421	18.08
585.615	18.13
585.809	18.27
586.003	18.26
586.198	18.38
586.392	18.32
586.586	18.27
586.78	18.16
586.974	18.05
587.168	18.05
587.363	17.97
587.557	18.01
587.751	18.01
587.945	17.99
588.139	17.97
588.333	18.01
588.527	18.08
588.721	18.15
588.915	18.28
589.109	18.27
589.303	18.42
589.497	18.3
589.691	18.36
589.885	18.53
590.079	18.54
590.273	18.61
590.466	18.57
590.66	18.47
590.854	18.47
591.048	18.38
591.242	18.5
591.436	18.4
591.629	18.44
591.823	18.36
592.017	18.17
592.211	18.12
592.404	18.02
592.598	18.07
592.792	18.24
592.986	18.28
593.179	18.42
593.373	18.38
593.567	18.38
593.76	18.39
593.954	18.45
594.147	18.45
594.341	18.5
594.535	18.56
594.728	18.57
594.922	18.51
595.115	18.55
595.309	18.41
595.502	18.43
595.696	18.45
595.889	18.38
596.083	18.38
596.276	18.42
596.47	18.34
596.663	18.32
596.856	18.23
597.05	18.24
597.243	18.08
597.437	18.12
597.63	18.14
597.823	18.12
598.017	18.31
598.21	18.31
598.403	18.38
598.596	18.44
598.79	18.46
598.983	18.54
599.176	18.53
599.369	18.6
599.563	18.68
599.756	18.63
599.949	18.46
600.142	18.62
600.335	18.59
600.528	18.53
600.722	18.52
600.915	18.44
601.108	18.47
601.301	18.43
601.494	18.5
601.687	18.51
601.88	18.59
602.073	18.76
602.266	18.47
602.459	18.47
602.652	18.49
602.845	18.58
603.038	18.75
603.231	18.61
603.424	18.67
603.617	18.58
603.809	18.61
604.002	18.58
604.195	18.63
604.388	18.88
604.581	18.95
604.774	18.99
604.966	19
605.159	18.97
605.352	19.09
605.545	19.03
605.737	19.14
605.93	19.08
606.123	19.04
606.316	18.98
606.508	18.8
606.701	18.76
606.894	18.57
607.086	18.48
607.279	18.53
607.471	18.61
607.664	18.75
607.857	18.82
608.049	18.88
608.242	18.89
608.434	18.85
608.627	18.87
608.819	18.82
609.012	18.94
609.204	18.9
609.397	18.94
609.589	18.83
609.782	18.74
609.974	18.7
610.166	18.64
610.359	18.84
610.551	18.9
610.743	18.92
610.936	19.03
611.128	19.01
611.32	19.15
611.513	19.09
611.705	19.23
611.897	19.26
612.09	19.32
612.282	19.45
612.474	19.28
612.666	19.28
612.858	19.39
613.051	19.44
613.243	19.43
613.435	19.45
613.627	19.42
613.819	19.57
614.011	19.44
614.203	19.33
614.395	19.35
614.588	19.37
614.78	19.39
614.972	19.22
615.164	19.22
615.356	19.41
615.548	19.15
615.74	19.11
615.932	18.97
616.124	19.18
616.315	19.08
616.507	19
616.699	18.99
616.891	18.98
617.083	19.1
617.275	19.05
617.467	19.02
617.659	19.19
617.85	19.36
618.042	19.32
618.234	19.36
618.426	19.56
618.618	19.63
618.809	19.49
619.001	19.56
619.193	19.6
619.384	19.85
619.576	19.81
619.768	19.78
619.959	19.65
620.151	19.7
620.343	19.6
620.534	19.47
620.726	19.47
620.917	19.79
621.109	19.68
621.301	19.66
621.492	19.49
621.684	19.49
621.875	19.56
622.067	19.6
622.258	19.69
622.45	19.8
622.641	19.87
622.832	19.73
623.024	19.52
623.215	19.44
623.407	19.4
623.598	19.29
623.789	19.22
623.981	19.19
624.172	19.34
624.363	19.34
624.555	19.17
624.746	19.06
624.937	19.12
625.129	19.2
625.32	19.27
625.511	19.14
625.702	19.14
625.893	19.05
626.085	18.96
626.276	18.86
626.467	18.91
626.658	19.06
626.849	19.25
627.04	19.19
627.231	19.2
627.422	19.08
627.614	19.15
627.805	19.32
627.996	19.39
628.187	19.54
628.378	19.56
628.569	19.4
628.76	19.23
628.951	19.18
629.142	19.35
629.332	19.26
629.523	19.36
629.714	19.39
629.905	19.42
630.096	19.51
630.287	19.7
630.478	19.7
630.669	19.84
630.859	19.9
631.05	19.84
631.241	19.86
631.432	19.93
631.623	20.1
631.813	20.23
632.004	20.19
632.195	20.15
632.385	19.94
632.576	19.93
632.767	19.85
632.957	19.82
633.148	19.77
633.339	19.62
633.529	19.68
633.72	19.56
633.91	19.5
634.101	19.48
634.292	19.68
634.482	19.65
634.673	19.65
634.863	19.76
635.054	19.84
635.244	19.89
635.435	19.95
635.625	19.83
635.815	19.8
636.006	19.75
636.196	19.77
636.387	19.56
636.577	19.6
636.767	19.7
636.958	19.47
637.148	19.52
637.338	19.59
637.529	19.6
637.719	19.57
637.909	19.66
638.099	19.8
638.29	19.55
638.48	19.76
638.67	19.8
638.86	19.58
639.05	19.44
639.241	19.44
639.431	19.29
639.621	19.27
639.811	19.38
640.001	19.41
640.191	19.35
640.381	19.47
640.571	19.3
640.761	19.32
640.951	19.52
641.141	19.66
641.331	19.65
641.521	19.71
641.711	19.62
641.901	19.64
642.091	19.65
642.281	19.62
642.471	19.73
642.661	19.82
642.851	19.91
643.041	19.96
643.231	20.07
643.42	20.15
643.61	20.12
643.8	20.39
643.99	20.36
644.18	20.39
644.369	20.35
644.559	20.12
644.749	19.9
644.939	19.89
645.128	19.94
645.318	19.95
645.508	19.91
645.697	20.06
645.887	20.03
646.076	20.01
646.266	19.92
646.456	19.91
646.645	20.2
646.835	20.24
647.024	20.2
647.214	19.83
647.403	19.75
647.593	19.75
647.782	19.66
647.972	19.48
648.161	19.32
648.351	19.4
648.54	19.61
648.73	19.43
648.919	19.55
649.108	19.53
649.298	19.61
649.487	19.73
649.677	19.72
649.866	19.68
650.055	19.78
650.244	19.97
650.434	19.95
650.623	19.87
650.812	19.81
651.002	19.94
651.191	20
651.38	20.28
651.569	20.24
651.758	20.19
651.947	20.26
652.137	20.14
652.326	19.82
652.515	19.66
652.704	19.7
652.893	19.99
653.082	19.89
653.271	19.73
653.46	19.52
653.649	19.81
653.838	19.87
654.027	19.89
654.216	20.08
654.405	20.38
654.594	20.56
654.783	20.73
654.972	20.49
655.161	20.55
655.35	20.67
655.539	20.76
655.728	20.6
655.916	20.6
656.105	20.62
656.294	20.37
656.483	20.28
656.672	20.17
656.86	20.08
657.049	20.18
657.238	19.86
657.427	19.75
657.615	19.78
657.804	19.6
657.993	19.67
658.181	19.62
658.37	19.84
658.559	20.06
658.747	20.3
658.936	20.2
659.125	20.12
659.313	20.21
659.502	20.4
659.69	20.3
659.879	20.41
660.067	20.19
660.256	20.15
660.444	20.02
660.633	19.9
660.821	19.65
661.01	19.7
661.198	19.87
661.387	20.14
661.575	20.17
661.763	20.08
661.952	19.96
662.14	20.03
662.328	20.01
662.517	20.02
662.705	19.93
662.893	19.96
663.082	19.8
663.27	19.69
663.458	19.66
663.646	19.52
663.834	19.66
664.023	19.81
664.211	20.14
664.399	20.17
664.587	20.13
664.775	20.05
664.963	19.93
665.152	19.85
665.34	19.91
665.528	19.83
665.716	19.52
665.904	19.64
666.092	19.51
666.28	19.38
666.468	19.67
666.656	19.87
666.844	19.95
667.032	19.96
667.22	20.01
667.408	19.9
667.596	19.88
667.784	20.19
667.971	20.19
668.159	19.95
668.347	19.7
668.535	19.58
668.723	19.55
668.911	19.64
669.098	19.86
669.286	19.97
669.474	19.92
669.662	19.82
669.849	19.84
670.037	19.71
670.225	20.16
670.413	20.35
670.6	20.26
670.788	20.27
670.976	20.52
671.163	20.54
671.351	20.54
671.538	20.57
671.726	20.69
671.913	20.46
672.101	20.28
672.289	20.22
672.476	20.07
672.664	20.24
672.851	20.01
673.039	19.73
673.226	19.53
673.413	19.5
673.601	19.39
673.788	19.36
673.976	19.53
674.163	19.96
674.35	19.99
674.538	20.13
674.725	20.14
674.912	20.05
675.1	20.17
675.287	20.22
675.474	20.34
675.662	20.36
675.849	20.32
676.036	20.1
676.223	20.26
676.411	20.19
676.598	20.25
676.785	20.32
676.972	20.39
677.159	20.24
677.346	20.28
677.533	20.15
677.721	20.35
677.908	20.15
678.095	20.54
678.282	20.32
678.469	20.33
678.656	20.16
678.843	19.85
679.03	19.88
679.217	19.87
679.404	19.78
679.591	19.65
679.778	19.69
679.964	19.84
680.151	19.56
680.338	19.53
680.525	19.33
680.712	19.19
680.899	19.39
681.086	19.32
681.272	19.36
681.459	19.39
681.646	19.64
681.833	19.93
682.02	19.86
682.206	19.86
682.393	19.85
682.58	19.93
682.766	20.32
682.953	20.41
683.14	20.51
683.326	20.84
683.513	21.02
683.7	20.83
683.886	20.5
684.073	20.87
684.259	21.09
684.446	21.23
684.632	21.61
684.819	21.41
685.005	21.03
685.192	21.12
685.378	20.73
685.565	20.62
685.751	20.72
685.938	20.73
686.124	20.52
686.31	20.46
686.497	20.2
686.683	19.84
686.87	20.14
687.056	20.37
687.242	20.36
687.429	20.3
687.615	20.16
687.801	20.07
687.987	20.07
688.174	20.19
688.36	20.17
688.546	20.32
688.732	20.47
688.918	20.4
689.105	20.4
689.291	20.41
689.477	20.4
689.663	20.41
689.849	20.72
690.035	20.75
690.221	20.76
690.407	20.55
690.593	20.42
690.779	20.13
690.965	19.92
691.151	19.91
691.337	19.99
691.523	20.26
691.709	20.34
691.895	20.16
692.081	19.99
692.267	19.64
692.453	19.9
692.639	19.98
692.825	20.27
693.011	20.52
693.196	20.54
693.382	20.37
693.568	20.44
693.754	20.3
693.94	20.28
694.125	20.62
694.311	20.94
694.497	20.71
694.682	20.67
694.868	20.66
695.054	20.47
695.239	20.73
695.425	20.64
695.611	20.52
695.796	20.63
695.982	20.64
696.168	20.47
696.353	20.54
696.539	20.81
696.724	20.86
696.91	20.81
697.095	20.83
697.281	20.84
697.466	20.74
697.652	20.64
697.837	20.7
698.023	20.59
698.208	20.47
698.393	20.4
698.579	20.25
698.764	20.23
698.949	20.21
699.135	20.05
699.32	19.72
699.505	19.82
699.691	19.79
699.876	19.71
700.061	19.82
700.246	19.85
700.432	19.76
700.617	19.85
700.802	19.84
700.987	19.69
701.172	19.98
701.358	20.22
701.543	20.25
701.728	20.19
701.913	19.91
702.098	19.85
702.283	19.93
702.468	20.1
702.653	20.08
702.838	20.2
703.023	20.42
703.208	20.48
703.393	20.18
703.578	20.29
703.763	20.47
703.948	20.53
704.133	20.7
704.318	20.85
704.503	21.2
704.688	21.16
704.873	20.86
705.057	20.98
705.242	21.13
705.427	21.5
705.612	21.37
705.797	21.42
705.981	21.55
706.166	21.75
706.351	21.74
706.536	20.97
706.72	20.71
706.905	20.72
707.09	20.55
707.274	20.13
707.459	19.86
707.644	19.87
707.828	19.55
708.013	19.69
708.197	19.47
708.382	19.09
708.567	19.62
708.751	19.62
708.936	19.9
709.12	20.22
709.305	20.31
709.489	20.34
709.673	20.53
709.858	20.59
710.042	20.71
710.227	20.67
710.411	21.06
710.596	20.79
710.78	21.23
710.964	21.01
711.149	20.63
711.333	20.67
711.517	20.74
711.702	20.63
711.886	20.54
712.07	20.14
712.254	19.9
712.438	20.07
712.623	20.37
712.807	19.77
712.991	19.82
713.175	20.01
713.359	19.79
713.544	19.89
713.728	19.92
713.912	20.12
714.096	20.6
714.28	20.77
714.464	20.36
714.648	20.02
714.832	20.47
715.016	20.27
715.2	20.1
715.384	20.26
715.568	20.19
715.752	20.16
715.936	20.1
716.12	20.21
716.304	19.83
716.488	19.96
716.671	19.92
716.855	19.7
717.039	19.9
717.223	20.09
717.407	20.31
717.59	20.41
717.774	20.25
717.958	20.18
718.142	19.62
718.325	20.07
718.509	19.96
718.693	19.85
718.877	20.21
719.06	20.3
719.244	20.35
719.428	20.21
719.611	20.02
719.795	20.1
719.978	20.22
720.162	20.5
720.345	20.4
720.529	20.62
720.713	21.18
720.896	21.3
721.08	21.2
721.263	21.1
721.446	20.99
721.63	20.63
721.813	20.57
721.997	20.02
722.18	19.61
722.364	19.78
722.547	19.63
722.73	19.68
722.914	19.6
723.097	20
723.28	20.14
723.464	19.97
723.647	20.13
723.83	20.51
724.013	20.99
724.197	21.25
724.38	21.82
724.563	21.97
724.746	21.66
724.929	22.16
725.112	22.3
725.296	21.91
725.479	22.33
725.662	22.9
725.845	22.69
726.028	22.75
726.211	22.83
726.394	22.09
726.577	21.8
726.76	21.58
726.943	20.92
727.126	20.53
727.309	20.5
727.492	20.44
727.675	20.41
727.858	20.25
728.041	20.32
728.224	20.39
728.407	20.67
728.589	20.94
728.772	21.46
728.955	21.64
729.138	21.76
729.321	22.1
729.503	21.75
729.686	21.51
729.869	22.04
730.052	22.26
730.234	22.17
730.417	22.24
730.6	22.01
730.782	21.94
730.965	21.68
731.148	21.66
731.33	21.4
731.513	21.73
731.695	21.86
731.878	21.31
732.061	21.13
732.243	21.13
732.426	20.71
732.608	20.78
732.791	20.63
732.973	20.37
733.156	20.25
733.338	20.21
733.52	20.14
733.703	20.4
733.885	20.52
734.068	19.9
734.25	20.22
734.432	20.24
734.615	20.2
734.797	20.16
734.979	20.99
735.162	21.15
735.344	21.47
735.526	21.86
735.708	21.81
735.891	21.74
736.073	22.34
736.255	22.1
736.437	22.25
736.619	22.05
736.802	22.3
736.984	22.07
737.166	21.59
737.348	21.44
737.53	21.23
737.712	20.84
737.894	21
738.076	21.27
738.258	21.67
738.44	22.01
738.622	21.96
738.804	22.29
738.986	22.18
739.168	22.76
739.35	22.22
739.532	22.02
739.714	22.35
739.896	22.74
740.078	21.91
740.259	21.26
740.441	20.94
740.623	21.5
740.805	20.89
740.987	20.99
741.168	20.25
741.35	20.82
741.532	20.64
741.714	19.88
741.895	19.13
742.077	19.99
742.259	20.27
742.44	20.91
742.622	20.93
742.804	20.77
742.985	20.55
743.167	21.17
743.348	21.37
743.53	21.22
743.711	21.77
743.893	22.51
744.075	22
744.256	22.3
744.438	21.59
744.619	20.56
744.8	20.78
744.982	20.87
745.163	20.71
745.345	21.28
745.526	21.98
745.707	22.12
745.889	22.36
746.07	23.01
746.252	22.1
746.433	21.99
746.614	22.52
746.795	21.6
746.977	21.19
747.158	20.94
747.339	19.94
747.52	19.36
747.702	18.84
747.883	18.34
748.064	17.93
748.245	18.52
748.426	18.97
748.607	19.51
748.788	20.57
748.97	20.96
749.151	20.6
749.332	20.73
749.513	20.5
749.694	20.42
749.875	20.81
750.056	20.98
750.237	20.82
750.418	20.48
750.599	20.24
750.78	20.17
750.96	20.51
751.141	21.37
751.322	21.71
751.503	21.84
751.684	22.28
751.865	21.66
752.046	21.14
752.226	21.77
752.407	21.63
752.588	21.83
752.769	22.7
752.949	22.15
753.13	22.23
753.311	21.92
753.492	22.27
753.672	22.91
753.853	23.15
754.034	23.65
754.214	22.25
754.395	22.47
754.575	22.44
754.756	21.74
754.937	22.23
755.117	22.18
755.298	22.99
755.478	23.17
755.659	22.05
755.839	21.76
756.02	21.78
756.2	22.53
756.381	22.56
756.561	22.68
756.741	22.76
756.922	22.86
757.102	22.33
757.283	22.17
757.463	22.25
757.643	22.34
757.823	22.52
758.004	22.77
758.184	22.66
758.364	22.68
758.545	22.38
758.725	22.06
758.905	21.36
759.085	21.86
759.265	21.81
759.446	21.6
759.626	21.99
759.806	21.72
759.986	21.06
760.166	20.89
760.346	20.77
760.526	20.69
760.706	20.63
760.886	21.27
761.066	20.89
761.246	20.32
761.426	20.11
761.606	20.32
761.786	20.17
761.966	20.57
762.146	20.26
762.326	20.5
762.506	20.29
762.686	20.37
762.866	20.48
763.046	20.49
763.225	20.51
763.405	20.58
763.585	20.3
763.765	20.73
763.945	20.37
764.124	20.88
764.304	20.83
764.484	21.27
764.664	21.18
764.843	20.75
765.023	20.79
765.203	20.77
765.382	20.44
765.562	20.91
765.741	20.57
765.921	20.62
766.101	20.78
766.28	20.74
766.46	20.57
766.639	20.6
766.819	20.37
766.998	20.86
767.178	20.7
767.357	20.91
767.537	21
767.716	21.26
767.896	21.42
768.075	21.7
768.254	21.57
768.434	21.03
768.613	21
768.792	21.27
768.972	20.27
769.151	20.51
769.33	20.57
769.51	20.55
769.689	19.68
769.868	19.64
770.047	18.59
770.226	18.24
770.406	18.79
770.585	18.6
770.764	18.45
770.943	19.42
771.122	19.92
771.301	20.24
771.48	20.11
771.66	21.1
771.839	21
772.018	21.67
772.197	22.32
772.376	22.61
772.555	23.29
772.734	23.45
772.913	23.54
773.092	23.12
773.271	22.83
773.449	22.53
773.628	22.24
773.807	23.09
773.986	22.96
774.165	23.06
774.344	23.36
774.523	22.02
774.701	21.37
774.88	21.08
775.059	20.57
775.238	20.54
775.417	19.49
775.595	19.65
775.774	18.67
775.953	19.03
776.131	18.64
776.31	17.29
776.489	18.65
776.667	19.64
776.846	19.54
777.025	20.17
777.203	19.99
777.382	20.94
777.56	20.92
777.739	21.83
777.917	21.79
778.096	21.75
778.274	22.56
778.453	21.44
778.631	20.95
778.81	20.77
778.988	21.48
779.166	22.19
779.345	21.88
779.523	21.72
779.702	21.11
779.88	19.84
780.058	19.88
780.237	19.94
780.415	20.41
780.593	20.52
780.771	21.29
780.95	21.49
781.128	21.08
781.306	20.85
781.484	20.74
781.662	20.63
781.841	21.24
782.019	21.1
782.197	20.39
782.375	20.71
782.553	21.48
782.731	20.08
782.909	18.77
783.087	18.26
783.265	19.35
783.443	18.85
783.621	18.82
783.799	18.31
783.977	18.21
784.155	18.74
784.333	19.13
784.511	18.32
784.689	18.74
784.867	18.79
785.045	20.38
785.223	18.77
785.4	20.25
785.578	20.07
785.756	20.96
785.934	21.24
786.112	20.73
786.289	20.33
786.467	20.25
786.645	20.35
786.823	20.66
787	19.66
787.178	20.58
787.356	20.33
787.533	21.3
787.711	21.48
787.889	20.95
788.066	20.85
788.244	20.62
788.421	20.67
788.599	21.34
788.776	21.39
788.954	21.55
789.131	22.63
789.309	22.58
789.486	22.07
789.664	21.6
789.841	22.63
790.019	23.77
790.196	23.83
790.373	24.24
790.551	22.96
790.728	22.99
790.906	22.85
791.083	21.55
791.26	21.3
791.437	20.89
791.615	21.17
791.792	19.7
791.969	18.54
792.146	18.61
792.324	18.32
792.501	19.43
792.678	18.81
792.855	18.74
793.032	18.88
793.209	20.22
793.387	20.97
793.564	20.97
793.741	22.04
793.918	23.03
794.095	23.53
794.272	23.08
794.449	23.35
794.626	23.86
794.803	24.56
794.98	24.33
795.157	23.42
795.334	23.19
795.511	23.16
795.688	22.88
795.864	22.24
796.041	22.19
796.218	23.06
796.395	22.98
796.572	23.42
796.749	23.48
796.925	23.17
797.102	22.95
797.279	22.61
797.456	22.02
797.632	22.19
797.809	22.03
797.986	21.34
798.162	20.31
798.339	20.65
798.516	19.72
798.692	19.49
798.869	19.58
799.046	19.41
799.222	19.01
799.399	20.39
799.575	20.57
799.752	20.62
799.928	20.45
800.105	20.64
800.281	19.53
800.458	19.62
800.634	18.67
800.811	18.35
800.987	17.88
801.163	19.03
801.34	17.91
801.516	18.03
801.692	18.25
801.869	19.18
802.045	20.1
802.221	19.84
802.398	21.25
802.574	22.48
802.75	23.27
802.926	23.89
803.103	23.82
803.279	24.86
803.455	24.73
803.631	24.57
803.807	24.41
803.983	24.12
804.16	24.16
804.336	23.42
804.512	23.05
804.688	23.62
804.864	23.03
805.04	22.09
805.216	20.98
805.392	21.58
805.568	22.06
805.744	21.11
805.92	19.92
806.096	20.23
806.272	20.18
806.448	18.94
806.623	17.68
806.799	18.07
806.975	16.95
807.151	17
807.327	16.61
807.503	16.78
807.678	17.5
807.854	18.76
808.03	18.21
808.206	18.03
808.381	19.57
808.557	20.87
808.733	20.49
808.908	22.39
809.084	21.63
809.26	22.49
809.435	21.31
809.611	21.73
809.787	21.49
809.962	22.04
810.138	21.75
810.313	22.03
810.489	22.15
810.664	22.85
810.84	23.57
811.015	24.11
811.191	22.02
811.366	21.7
811.542	21.18
811.717	21.54
811.892	21.11
812.068	21.64
812.243	19.98
812.419	18.6
812.594	18.43
812.769	16.7
812.944	17.31
813.12	18.17
813.295	19.72
813.47	19.66
813.645	19.61
813.821	20.57
813.996	20.99
814.171	21.74
814.346	22.07
814.521	22.19
814.697	23.14
814.872	23.06
815.047	23.17
815.222	22.41
815.397	21.98
815.572	22.03
815.747	21.9
815.922	23.05
816.097	22.59
816.272	23.26
816.447	23.42
816.622	22.54
816.797	23.05
816.972	22.89
817.147	23.24
817.322	23.52
817.496	22.5
817.671	22.3
817.846	20.09
818.021	21.22
818.196	20.18
818.371	19.28
818.545	20.15
818.72	19.9
818.895	19.99
819.069	20.48
819.244	20.66
819.419	21.93
819.594	21.7
819.768	21.86
819.943	21.96
820.117	22.35
820.292	21.97
820.467	21.68
820.641	21.31
820.816	20.82
820.99	20.46
821.165	20.12
821.339	19.83
821.514	19.66
821.688	19.93
821.863	19.69
822.037	19.85
822.212	19.92
822.386	19.93
822.56	19.96
822.735	20.22
822.909	20.03
823.084	20.15
823.258	19.91
823.432	20.05
823.606	19.82
823.781	19.72
823.955	19.71
824.129	19.67
824.303	20.11
824.478	20.09
824.652	20.26
824.826	20.74
825	21.15
825.174	21.66
825.348	22.03
825.523	22.07
825.697	22.22
825.871	21.63
826.045	21.89
826.219	21.09
826.393	20.93
826.567	20.83
826.741	21.02
826.915	20.98
827.089	20.96
827.263	20.41
827.437	19.97
827.611	20.41
827.784	20.61
827.958	20.55
828.132	21.36
828.306	21.94
828.48	22.03
828.654	21.64
828.827	20.73
829.001	21.09
829.175	21.18
829.349	22.12
829.522	21.98
829.696	22.24
829.87	22.84
830.044	22.01
830.217	21.55
830.391	21.09
830.565	20.98
830.738	21.56
830.912	20.95
831.085	22.34
831.259	21.88
831.432	21.5
831.606	22.17
831.779	20.48
831.953	20.69
832.126	21.57
832.3	21.68
832.473	22.25
832.647	23.34
832.82	23.05
832.994	22.6
833.167	22.03
833.34	21.56
833.514	20.56
833.687	20.71
833.86	20.64
834.034	20.34
834.207	20.55
834.38	20.48
834.553	20.11
834.727	20.51
834.9	19.89
835.073	19.96
835.246	20.3
835.419	20.78
835.593	21.81
835.766	20.87
835.939	20.47
836.112	20.04
836.285	19.05
836.458	18.89
836.631	19.1
836.804	19.54
836.977	20.75
837.15	20.44
837.323	20.86
837.496	19.72
837.669	21.64
837.842	22.47
838.015	21.92
838.188	23.24
838.361	22.1
838.533	21.21
838.706	21.09
838.879	19.87
839.052	20.15
839.225	21.07
839.398	22.66
839.57	21.49
839.743	21.64
839.916	22.12
840.088	23.07
840.261	24.39
840.434	24.23
840.607	25.26
840.779	27.5
840.952	27.35
841.124	26.21
841.297	27.04
841.47	27.84
841.642	25.7
841.815	26.11
841.987	24.14
842.16	23.07
842.332	25
842.505	25.67
842.677	24.49
842.85	25.37
843.022	26.28
843.194	23.61
843.367	21.67
843.539	25.09
843.712	26.11
843.884	26.85
844.056	29.25
844.229	25.84
844.401	24.18
844.573	24.08
844.745	23.01
844.918	22.53
845.09	25.25
845.262	26.61
845.434	26.5
845.606	24.74
845.779	25.28
845.951	23
846.123	25.4
846.295	24.75
846.467	23.43
846.639	25.22
846.811	23.94
846.983	23.91
847.155	26.87
847.327	26.28
847.499	31.12
847.671	30.64
847.843	31.01
848.015	35.48
848.187	36.22
848.359	37.14
848.531	37.42
848.703	39.87
848.875	41.59
849.047	39.51
849.218	38.72
849.39	34.44
849.562	36.77
849.734	38.34
849.905	32.71
850.077	30.9
850.249	28.39
850.421	22.55
850.592	19.51
850.764	15.39
850.936	16.05
851.107	15.35
851.279	11.31
851.451	10.35
851.622	9.15
851.794	11.71
851.965	14.17
852.137	18.85
852.308	24.47
852.48	26.62
852.651	27.89
852.823	25.65
852.994	28.65
853.166	33.99
853.337	32.32
853.509	30.93
853.68	30.22
853.851	32.71
854.023	29.72
854.194	33.4
854.365	34.09
854.537	34.06
854.708	32.43
854.879	30.78
855.05	28.72
855.222	27.83
855.393	30.59
855.564	32.16
855.735	31.17
855.906	34.32
856.078	28.35
856.249	26.31
856.42	26.39
856.591	27.07
856.762	27.74
856.933	28.15
857.104	30.32
857.275	25.77
857.446	25.53
857.617	24.23
857.788	24.46
857.959	24.79
858.13	29.27
858.301	27.06
858.472	29.44
858.643	27.08
858.814	28.25
858.985	28.3
859.155	30.92
859.326	30.11
859.497	29.73
859.668	29.19
859.839	28.34
860.009	23.73
860.18	26.85
860.351	26.92
860.522	27.83
860.692	27.96
860.863	26.84
861.034	28.47
861.204	29.86
861.375	29.72
861.546	28.15
861.716	27.91
861.887	29.12
862.057	27.32
862.228	31.35
862.398	28.73
862.569	28.48
862.739	27.98
862.91	26.53
863.08	24.93
863.251	29.99
863.421	29.68
863.592	32.71
863.762	28.89
863.932	28.31
864.103	22.09
864.273	24.69
864.443	23
864.614	24.92
864.784	27.83
864.954	29.08
865.125	26.67
865.295	31.38
865.465	30.13
865.635	31.92
865.805	31.14
865.976	36.48
866.146	36.32
866.316	37.37
866.486	36.17
866.656	34.62
866.826	34.64
866.996	31.02
867.166	25.42
867.336	27.63
867.506	29.17
867.676	32.45
867.846	28.49
868.016	28.98
868.186	27.06
868.356	26.83
868.526	25.41
868.696	23.75
868.866	25.71
869.036	30.17
869.206	28.14
869.376	31
869.545	32.55
869.715	31.67
869.885	29
870.055	31.8
870.224	32.85
870.394	33.24
870.564	32.84
870.734	36.34
870.903	35.44
871.073	37.15
871.243	30.68
871.412	28.11
871.582	29.73
871.751	31.61
871.921	32.26
872.091	28.98
872.26	26.86
872.43	25.07
872.599	20.79
872.769	19.48
872.938	15.98
873.108	21.15
873.277	18.65
873.446	19.92
873.616	19.89
873.785	18.7
873.955	20.53
874.124	24.15
874.293	24.62
874.463	25.55
874.632	22.79
874.801	22.75
874.971	18.73
875.14	20.95
875.309	19.47
875.478	23.85
875.647	28.11
875.817	29.49
875.986	24.94
876.155	26.81
876.324	24.84
876.493	25.72
876.662	29.89
876.831	32.99
877	30.51
877.17	29.75
877.339	24.38
877.508	23.06
877.677	21.36
877.846	22.79
878.015	23.86
878.184	24.08
878.352	25.52
878.521	21.77
878.69	19.16
878.859	20.76
879.028	22.8
879.197	24.56
879.366	22.23
879.534	24.34
879.703	24.6
879.872	24.82
880.041	24.57
880.21	23.71
880.378	23.74
880.547	23.96
880.716	23.26
880.884	22.96
881.053	22.43
881.222	22.47
881.39	21.06
881.559	21.15
881.727	19.83
881.896	19.5
882.065	20.92
882.233	21.14
882.402	21.87
882.57	22.11
882.739	21.72
882.907	21.64
883.076	21.84
883.244	22.06
883.412	21.89
883.581	22.72
883.749	24.17
883.918	23.37
884.086	23.4
884.254	23.08
884.423	22.39
884.591	21.91
884.759	21.44
884.927	21.66
885.096	21.56
885.264	21.61
885.432	20.81
885.6	18.73
885.769	17.92
885.937	17.58
886.105	16.04
886.273	17.32
886.441	16.62
886.609	16.82
886.777	17.19
886.945	16.6
887.113	15.79
887.281	18.68
887.449	22.35
887.617	21.8
887.785	24.2
887.953	26.64
888.121	25.51
888.289	30.29
888.457	30.8
888.625	32.79
888.793	34.37
888.961	38
889.129	35.59
889.296	32.26
889.464	34.53
889.632	32.75
889.8	30.54
889.967	33.8
890.135	31.29
