Data from 2938521_Reflection_2.txt Node
Date: Tue Jun 16 22:17:33 EDT 2015
User: robert
Spectrometer: USB4E03002
Autoset integration time: false
Trigger mode: 4
Integration Time (sec): 1.000000E-1
Scans to average: 10
Electric dark correction enabled: true
Nonlinearity correction enabled: false
Boxcar width: 5
Stray light correction enabled: false
XAxis mode: Wavelengths
Stop averaging: false
Number of Pixels in Spectrum: 3648
>>>>>Begin Spectral Data<<<<<
177.575	-177.83
177.794	-124.91
178.014	-44.06
178.233	-5.31
178.452	13.45
178.672	2.67
178.891	112.07
179.11	1603.31
179.33	4219.21
179.549	957.37
179.768	404.43
179.987	639.75
180.207	704.27
180.426	258.4
180.645	153.55
180.864	159.22
181.084	151.4
181.303	113.91
181.522	93.26
181.741	83.07
181.96	91.01
182.179	95.9
182.398	90.15
182.618	77.79
182.837	71.8
183.056	85.14
183.275	82.52
183.494	89.65
183.713	101.45
183.932	109.39
184.151	106.99
184.37	98.43
184.589	108.56
184.808	108.9
185.027	113.19
185.246	160.85
185.465	152.38
185.684	157.47
185.903	151.38
186.122	139.67
186.341	118.61
186.56	134.82
186.779	139.17
186.998	122.38
187.216	123.04
187.435	61.99
187.654	77.33
187.873	131.43
188.092	284.57
188.311	-211.53
188.53	-153.05
188.748	-350.09
188.967	-6343.75
189.186	414.04
189.405	232.72
189.623	195.14
189.842	225.25
190.061	162.3
190.28	161.72
190.498	119.12
190.717	109.88
190.936	94.27
191.154	87.96
191.373	100.47
191.592	111.66
191.81	114.71
192.029	131.46
192.248	133.29
192.466	171.03
192.685	135.89
192.904	159.94
193.122	184.99
193.341	188.57
193.559	153.09
193.778	144.71
193.996	159.13
194.215	156.57
194.433	157.51
194.652	142.08
194.87	134.18
195.089	146.14
195.307	137.73
195.526	139.18
195.744	127.33
195.963	155.77
196.181	155.74
196.399	149.02
196.618	152.7
196.836	130.48
197.055	112.38
197.273	113.11
197.491	97.06
197.71	93.98
197.928	81.93
198.146	99.45
198.365	94.31
198.583	95.66
198.801	99.13
199.019	99.04
199.238	124.44
199.456	124.53
199.674	113.32
199.892	114.86
200.111	107.61
200.329	111.97
200.547	75.86
200.765	59.94
200.983	59.27
201.202	66.86
201.42	79.3
201.638	76.05
201.856	99.19
202.074	100.49
202.292	123.24
202.51	129.88
202.728	125.27
202.946	133.1
203.165	145.51
203.383	158.19
203.601	154.04
203.819	129.57
204.037	111.19
204.255	83.73
204.473	80.87
204.691	77.85
204.909	59.22
205.127	53.63
205.345	71.35
205.562	55.74
205.78	86.46
205.998	75.93
206.216	75.09
206.434	83.02
206.652	90.64
206.87	96.99
207.088	95.62
207.306	105.79
207.523	105.35
207.741	104.45
207.959	124.31
208.177	100.2
208.395	107.71
208.612	107.78
208.83	101.11
209.048	99.2
209.266	90.73
209.483	85.23
209.701	81.24
209.919	83.59
210.136	86.36
210.354	76.4
210.572	86.41
210.79	79.61
211.007	72.16
211.225	72.66
211.442	58.64
211.66	65.46
211.878	69.04
212.095	140.23
212.313	153.62
212.53	163.18
212.748	161.12
212.966	153.57
213.183	143.05
213.401	162.2
213.618	153.41
213.836	183.25
214.053	159.6
214.271	165.77
214.488	77.73
214.705	77.35
214.923	71.89
215.14	61.37
215.358	54.82
215.575	54.96
215.793	60.72
216.01	60.2
216.227	61.53
216.445	71.01
216.662	67.84
216.879	73.44
217.097	65.08
217.314	70.34
217.531	76.35
217.749	82.57
217.966	86.47
218.183	85.5
218.4	76.08
218.618	77.95
218.835	74.46
219.052	73.08
219.269	75.16
219.487	80.92
219.704	74.42
219.921	69.79
220.138	66.63
220.355	60.5
220.572	60.03
220.79	61.46
221.007	54.87
221.224	49.71
221.441	48.36
221.658	44.03
221.875	42.52
222.092	37.64
222.309	34.01
222.526	33.42
222.743	31.53
222.96	27.68
223.177	31.08
223.394	31.08
223.611	32.33
223.828	34.73
224.045	35.66
224.262	37.74
224.479	37.2
224.696	35.34
224.913	35.23
225.13	33.03
225.347	31.43
225.564	27.72
225.781	26.04
225.997	23.36
226.214	22.62
226.431	20.04
226.648	17.54
226.865	17.09
227.082	17.21
227.298	15.51
227.515	15.39
227.732	16.22
227.949	16.08
228.165	16.17
228.382	15.58
228.599	15.6
228.816	16.93
229.032	16.76
229.249	16.19
229.466	15.16
229.682	17.68
229.899	18.23
230.116	16.68
230.332	18.3
230.549	17.48
230.765	19.08
230.982	19.86
231.199	17.83
231.415	18.73
231.632	19.39
231.848	20.99
232.065	19.09
232.281	20.1
232.498	20.82
232.714	20.83
232.931	21.98
233.147	22.66
233.364	20.23
233.58	20.21
233.797	19.24
234.013	18.43
234.23	18.69
234.446	17.43
234.662	16.19
234.879	16.08
235.095	14.41
235.312	13.76
235.528	14.82
235.744	13.95
235.961	13.13
236.177	13.58
236.393	15.49
236.61	14.28
236.826	16.68
237.042	17.71
237.258	18.16
237.475	18.2
237.691	18.66
237.907	17.86
238.123	18.71
238.339	19.64
238.556	19.17
238.772	18.27
238.988	18.21
239.204	16.53
239.42	15.08
239.636	14.24
239.853	13.57
240.069	12.98
240.285	12.32
240.501	11.75
240.717	11.39
240.933	11.41
241.149	11.57
241.365	11.78
241.581	11.79
241.797	12.53
242.013	12.62
242.229	12.9
242.445	13.14
242.661	13.06
242.877	13.67
243.093	14.16
243.309	14.14
243.525	13.58
243.741	13.16
243.957	13.43
244.173	12.11
244.388	12.18
244.604	12.08
244.82	11.34
245.036	10.91
245.252	10.74
245.468	10.6
245.683	10.9
245.899	10.98
246.115	11.04
246.331	10.36
246.547	10.45
246.762	10.64
246.978	11.01
247.194	11.35
247.409	12.26
247.625	12.75
247.841	12.45
248.057	11.96
248.272	11.98
248.488	11.81
248.703	12.57
248.919	12.63
249.135	11.47
249.35	10.47
249.566	9.93
249.782	9.21
249.997	9.25
250.213	9.24
250.428	9.48
250.644	9.65
250.859	9.77
251.075	9.78
251.29	10.41
251.506	11.09
251.721	11.51
251.937	12.08
252.152	12.26
252.368	11.71
252.583	12.55
252.798	13.16
253.014	12.87
253.229	12.68
253.445	12.99
253.66	12.66
253.875	11.87
254.091	11.3
254.306	10.22
254.521	9.74
254.737	9.58
254.952	9.12
255.167	8.51
255.383	9.03
255.598	8.65
255.813	8.08
256.028	8.38
256.244	8.78
256.459	8.85
256.674	9.09
256.889	8.82
257.104	8.62
257.32	8.73
257.535	8.24
257.75	8.02
257.965	8.32
258.18	8.48
258.395	8.46
258.61	8.27
258.826	8.4
259.041	8.56
259.256	8.89
259.471	9.04
259.686	8.99
259.901	9.23
260.116	9.17
260.331	8.75
260.546	8.59
260.761	8.26
260.976	8.34
261.191	7.95
261.406	7.78
261.621	7.25
261.836	6.47
262.05	6.37
262.265	6.34
262.48	6.9
262.695	7.16
262.91	6.91
263.125	7
263.34	6.87
263.555	6.73
263.769	7.16
263.984	7.38
264.199	7.9
264.414	7.81
264.629	8.07
264.843	7.92
265.058	7.51
265.273	7.52
265.488	7.86
265.702	8.23
265.917	9.14
266.132	8.88
266.346	8.71
266.561	8.97
266.776	9.02
266.99	8.9
267.205	8.35
267.42	8.64
267.634	9.19
267.849	9.31
268.063	8.89
268.278	8.58
268.492	8.78
268.707	9.02
268.922	8.51
269.136	8.16
269.351	7.93
269.565	7.95
269.78	8.01
269.994	7.59
270.209	7.35
270.423	7.72
270.637	7.54
270.852	6.94
271.066	7.09
271.281	7.28
271.495	7.02
271.709	7.56
271.924	7.48
272.138	8.03
272.353	8.43
272.567	8.16
272.781	8.14
272.996	8.25
273.21	8.95
273.424	8.64
273.638	8.65
273.853	8.9
274.067	8.58
274.281	9.1
274.495	8.95
274.71	8.81
274.924	9.14
275.138	8.72
275.352	8.11
275.566	7.91
275.781	8.24
275.995	8.01
276.209	8.26
276.423	8.26
276.637	8.93
276.851	7.85
277.065	7.67
277.279	7.56
277.493	7.95
277.707	8.57
277.921	8.24
278.135	7.85
278.349	8.62
278.563	8.3
278.777	8.53
278.991	7.6
279.205	7.99
279.419	8.26
279.633	8.91
279.847	8.62
280.061	8.6
280.275	9.17
280.489	9.33
280.703	8.96
280.917	9.1
281.131	8.75
281.344	8.86
281.558	8.51
281.772	8.39
281.986	7.74
282.2	8.06
282.414	7.61
282.627	7.34
282.841	7.3
283.055	7.49
283.269	7.54
283.482	7.57
283.696	7.59
283.91	8.08
284.123	7.86
284.337	7.94
284.551	7.62
284.764	8.16
284.978	8.14
285.192	7.91
285.405	7.66
285.619	7.56
285.833	7.74
286.046	7.46
286.26	7.52
286.473	7.9
286.687	8.18
286.9	8.29
287.114	7.8
287.327	7.75
287.541	7.6
287.754	7.79
287.968	8.24
288.181	8.03
288.395	8.13
288.608	8.16
288.822	8.15
289.035	7.9
289.248	7.6
289.462	7.75
289.675	7.43
289.889	8.36
290.102	7.95
290.315	7.91
290.529	8
290.742	8.03
290.955	8.21
291.169	8.17
291.382	8.69
291.595	8.81
291.808	9.01
292.022	9.97
292.235	9.03
292.448	9.93
292.661	9.6
292.875	9.91
293.088	10.32
293.301	10.16
293.514	9.7
293.727	9.22
293.94	9.61
294.153	9.34
294.367	8.98
294.58	8.88
294.793	8.27
295.006	8.33
295.219	8.25
295.432	8.28
295.645	8.03
295.858	8.34
296.071	8.32
296.284	8.25
296.497	8.19
296.71	8.2
296.923	8.56
297.136	8.63
297.349	8.95
297.562	8.91
297.775	8.99
297.988	9.27
298.201	9.57
298.414	9.83
298.626	9.65
298.839	9.87
299.052	9.38
299.265	9.48
299.478	9.96
299.691	9.71
299.903	9.58
300.116	9.56
300.329	10
300.542	10.21
300.755	10.23
300.967	10.43
301.18	10.5
301.393	10.95
301.605	10.65
301.818	10.49
302.031	10.74
302.243	10.43
302.456	10.17
302.669	9.62
302.881	9.45
303.094	9.46
303.307	9.64
303.519	9.66
303.732	10.18
303.944	10.25
304.157	10.35
304.37	10.02
304.582	10.35
304.795	10.4
305.007	10.43
305.22	10.32
305.432	10.69
305.645	10.35
305.857	10.79
306.069	10.37
306.282	10.53
306.494	10.32
306.707	10.41
306.919	10.26
307.132	10.34
307.344	10.6
307.556	10.57
307.769	10.5
307.981	10.41
308.193	10.26
308.406	9.96
308.618	10.26
308.83	10.16
309.043	10.02
309.255	10.14
309.467	10.05
309.679	10.12
309.892	10.2
310.104	10.16
310.316	10.57
310.528	10.21
310.74	10.65
310.953	10.24
311.165	10.64
311.377	10.94
311.589	11.17
311.801	11.13
312.013	11.13
312.225	11.11
312.437	10.61
312.649	10.68
312.862	10.84
313.074	10.43
313.286	10.79
313.498	10.58
313.71	10.57
313.922	10.85
314.134	11
314.346	10.4
314.558	10.33
314.77	10.98
314.982	10.75
315.193	10.99
315.405	11.03
315.617	10.73
315.829	10.71
316.041	10.33
316.253	10.07
316.465	10.28
316.677	10.42
316.888	10.37
317.1	10.28
317.312	10.45
317.524	10.32
317.736	10.84
317.947	11.68
318.159	11.48
318.371	11.41
318.583	11.25
318.794	11.32
319.006	11.91
319.218	12.04
319.43	12.29
319.641	12.08
319.853	11.97
320.064	12.11
320.276	11.69
320.488	12.14
320.699	12.67
320.911	12.99
321.123	12.27
321.334	12.3
321.546	12.47
321.757	12.32
321.969	12.59
322.18	12.74
322.392	12.14
322.603	12.06
322.815	11.87
323.026	11.98
323.238	11.84
323.449	12
323.661	11.8
323.872	11.75
324.083	11.4
324.295	11.11
324.506	10.98
324.718	11.37
324.929	11.23
325.14	11.37
325.352	11.4
325.563	11.44
325.774	11.82
325.986	11.76
326.197	11.71
326.408	11.81
326.62	11.96
326.831	11.97
327.042	11.87
327.253	12.2
327.464	12.27
327.676	11.85
327.887	11.88
328.098	11.88
328.309	12.03
328.52	12.1
328.732	12.3
328.943	12.21
329.154	12.27
329.365	12.5
329.576	12.29
329.787	12.34
329.998	12.64
330.209	12.6
330.42	12.73
330.631	12.68
330.842	12.55
331.053	12.4
331.264	12.78
331.475	12.97
331.686	12.79
331.897	12.6
332.108	12.42
332.319	12.82
332.53	12.63
332.741	12.61
332.952	12.82
333.163	12.65
333.374	12.68
333.585	12.37
333.795	12.36
334.006	12.64
334.217	12.49
334.428	12.34
334.639	12.16
334.849	12.1
335.06	11.71
335.271	11.73
335.482	11.7
335.692	11.78
335.903	11.7
336.114	11.71
336.325	11.41
336.535	12.07
336.746	12.24
336.957	12.52
337.167	13.07
337.378	13.38
337.589	13.23
337.799	13.15
338.01	13.47
338.22	13.69
338.431	13.64
338.642	13.66
338.852	13.6
339.063	13.68
339.273	13.13
339.484	12.95
339.694	12.68
339.905	12.66
340.115	12.74
340.326	12.21
340.536	12.15
340.746	11.91
340.957	11.74
341.167	11.37
341.378	10.88
341.588	10.74
341.799	10.38
342.009	10.62
342.219	10.38
342.43	10.67
342.64	10.95
342.85	10.75
343.061	11.16
343.271	11.25
343.481	10.92
343.691	11.22
343.902	11.13
344.112	11.36
344.322	11.26
344.532	11.59
344.743	11.41
344.953	10.98
345.163	11.04
345.373	10.86
345.583	10.72
345.793	10.55
346.004	10.69
346.214	10.63
346.424	10.68
346.634	10.92
346.844	10.96
347.054	10.96
347.264	11.41
347.474	11.33
347.684	11.34
347.894	11.46
348.104	12.03
348.314	11.81
348.524	12.13
348.734	11.72
348.944	11.59
349.154	11.15
349.364	10.99
349.574	10.55
349.784	10.51
349.994	10.72
350.204	10.32
350.413	10.22
350.623	10.34
350.833	10.3
351.043	10.4
351.253	10.16
351.463	10.22
351.672	10.29
351.882	10.44
352.092	10.45
352.302	10.1
352.511	10.51
352.721	10.6
352.931	10.53
353.141	10.31
353.35	10.65
353.56	10.7
353.77	10.73
353.979	11.04
354.189	11.04
354.399	11.04
354.608	11.3
354.818	11.08
355.027	11.1
355.237	10.88
355.447	10.95
355.656	10.76
355.866	10.66
356.075	10.44
356.285	10.22
356.494	10.09
356.704	10.11
356.913	10.01
357.123	10
357.332	9.9
357.542	9.92
357.751	9.97
357.96	9.67
358.17	9.87
358.379	10.12
358.589	10.28
358.798	10.17
359.007	9.93
359.217	9.89
359.426	9.88
359.635	10.08
359.845	10.03
360.054	9.87
360.263	10.14
360.472	10.04
360.682	10.08
360.891	9.9
361.1	10.07
361.309	10.17
361.519	10.03
361.728	10.08
361.937	9.85
362.146	10.02
362.355	10.1
362.564	10.04
362.774	10
362.983	9.97
363.192	10.21
363.401	10.28
363.61	10.33
363.819	10.46
364.028	10.49
364.237	10.14
364.446	9.92
364.655	9.73
364.864	9.7
365.073	9.74
365.282	9.77
365.491	9.44
365.7	9.45
365.909	9.35
366.118	9.24
366.327	9.16
366.536	9.22
366.745	9.35
366.954	9.52
367.162	9.57
367.371	9.58
367.58	9.48
367.789	9.24
367.998	9.25
368.207	9.32
368.415	9.19
368.624	9.15
368.833	9.42
369.042	9.24
369.25	9.34
369.459	9.25
369.668	9.2
369.877	8.95
370.085	9.13
370.294	9.06
370.503	8.95
370.711	9.08
370.92	8.87
371.129	8.78
371.337	8.92
371.546	8.8
371.754	8.78
371.963	8.63
372.171	8.73
372.38	8.74
372.589	8.93
372.797	8.97
373.006	9.01
373.214	9.42
373.423	9.54
373.631	9.46
373.84	9.54
374.048	9.41
374.256	9.35
374.465	9.45
374.673	9.61
374.882	9.3
375.09	9.27
375.298	9.31
375.507	9.15
375.715	9.16
375.923	9.41
376.132	9.22
376.34	9.35
376.548	9.27
376.757	9.21
376.965	8.96
377.173	9.01
377.381	9.15
377.59	9.17
377.798	9.19
378.006	9.15
378.214	9.05
378.423	8.96
378.631	8.92
378.839	9.14
379.047	9
379.255	9.06
379.463	9.09
379.671	8.83
379.879	8.71
380.088	8.73
380.296	8.49
380.504	8.43
380.712	8.73
380.92	8.6
381.128	8.7
381.336	8.76
381.544	8.5
381.752	8.42
381.96	8.57
382.168	8.4
382.376	8.42
382.584	8.74
382.791	8.63
382.999	8.46
383.207	8.65
383.415	8.57
383.623	8.63
383.831	8.79
384.039	8.69
384.247	8.63
384.454	8.62
384.662	8.35
384.87	8.03
385.078	8.16
385.285	7.94
385.493	7.75
385.701	7.49
385.909	7.36
386.116	7.27
386.324	7.4
386.532	7.57
386.739	7.73
386.947	7.78
387.155	7.74
387.362	7.47
387.57	7.62
387.778	7.63
387.985	7.74
388.193	7.69
388.4	7.76
388.608	7.73
388.816	7.45
389.023	7.21
389.231	7.12
389.438	7.35
389.646	7.46
389.853	7.49
390.061	7.33
390.268	7.26
390.475	7.43
390.683	7.42
390.89	7.19
391.098	7.27
391.305	7.41
391.512	7.61
391.72	7.43
391.927	7.16
392.135	7.03
392.342	7.08
392.549	7.14
392.756	6.79
392.964	6.82
393.171	6.91
393.378	6.94
393.586	6.87
393.793	6.83
394	6.93
394.207	7.11
394.414	7.19
394.622	7.33
394.829	7.44
395.036	7.63
395.243	7.69
395.45	7.71
395.657	7.54
395.864	7.36
396.072	7.29
396.279	7.29
396.486	7.25
396.693	7.29
396.9	6.96
397.107	6.68
397.314	6.72
397.521	6.77
397.728	6.84
397.935	7.13
398.142	7.36
398.349	7.28
398.556	7.12
398.763	7.17
398.97	7.01
399.177	7.08
399.383	7.07
399.59	6.73
399.797	6.6
400.004	6.53
400.211	6.47
400.418	6.42
400.625	6.51
400.831	6.66
401.038	6.47
401.245	6.5
401.452	6.53
401.658	6.64
401.865	6.9
402.072	6.85
402.279	6.77
402.485	6.59
402.692	6.59
402.899	6.44
403.105	6.31
403.312	6.42
403.519	6.26
403.725	6.21
403.932	6.22
404.138	6.29
404.345	6.12
404.552	6.19
404.758	6.23
404.965	6.13
405.171	6.19
405.378	6.22
405.584	6.27
405.791	6.46
405.997	6.71
406.204	6.7
406.41	6.72
406.617	6.83
406.823	6.76
407.029	6.65
407.236	6.74
407.442	6.75
407.649	6.8
407.855	6.72
408.061	6.82
408.268	6.6
408.474	6.51
408.68	6.36
408.887	6.28
409.093	6.35
409.299	6.38
409.505	6.23
409.712	6.17
409.918	6.3
410.124	6.36
410.33	6.16
410.537	6.23
410.743	6.32
410.949	6.25
411.155	6.38
411.361	6.21
411.567	6.14
411.773	6.1
411.98	6.26
412.186	6.13
412.392	5.98
412.598	5.87
412.804	5.76
413.01	5.66
413.216	5.73
413.422	5.73
413.628	5.7
413.834	5.69
414.04	5.76
414.246	5.57
414.452	5.39
414.658	5.54
414.864	5.66
415.07	5.7
415.275	5.79
415.481	5.72
415.687	5.63
415.893	5.71
416.099	5.69
416.305	5.68
416.511	5.6
416.716	5.59
416.922	5.5
417.128	5.55
417.334	5.51
417.539	5.36
417.745	5.37
417.951	5.41
418.157	5.34
418.362	5.44
418.568	5.42
418.774	5.41
418.979	5.49
419.185	5.46
419.391	5.35
419.596	5.33
419.802	5.32
420.008	5.22
420.213	5.81
420.419	5.82
420.624	5.71
420.83	5.61
421.035	5.7
421.241	5.63
421.446	5.69
421.652	5.76
421.857	5.73
422.063	5.79
422.268	5.89
422.474	5.23
422.679	5.31
422.885	5.34
423.09	5.32
423.295	5.2
423.501	5.16
423.706	5.11
423.911	5.05
424.117	5.18
424.322	5.1
424.527	5.11
424.733	5.06
424.938	5.02
425.143	5.02
425.349	5.17
425.554	5.22
425.759	5.25
425.964	5.33
426.169	5.33
426.375	5.12
426.58	5.14
426.785	5.03
426.99	5.1
427.195	5.02
427.4	5.04
427.605	5.06
427.811	5.1
428.016	5.08
428.221	5.02
428.426	5
428.631	5.1
428.836	5.13
429.041	5.26
429.246	5.29
429.451	5.15
429.656	5.04
429.861	5.07
430.066	5.13
430.271	5.11
430.476	5.05
430.681	4.98
430.886	4.93
431.09	4.94
431.295	4.84
431.5	4.75
431.705	4.85
431.91	4.93
432.115	4.87
432.32	4.77
432.524	4.74
432.729	4.77
432.934	4.75
433.139	4.75
433.343	4.73
433.548	4.81
433.753	4.89
433.958	4.87
434.162	4.86
434.367	4.91
434.572	4.95
434.776	4.85
434.981	4.94
435.186	5
435.39	5.02
435.595	5.12
435.799	4.95
436.004	4.97
436.209	4.92
436.413	4.82
436.618	4.73
436.822	4.76
437.027	4.86
437.231	4.67
437.436	4.67
437.64	4.61
437.845	4.52
438.049	4.59
438.253	4.52
438.458	4.56
438.662	4.59
438.867	4.57
439.071	4.56
439.275	4.61
439.48	4.74
439.684	4.72
439.888	4.81
440.093	4.78
440.297	4.69
440.501	4.71
440.706	4.72
440.91	4.78
441.114	4.77
441.318	4.78
441.523	4.86
441.727	4.8
441.931	4.84
442.135	4.82
442.339	4.76
442.543	4.8
442.748	4.75
442.952	4.75
443.156	4.62
443.36	4.63
443.564	4.57
443.768	4.49
443.972	4.45
444.176	4.51
444.38	4.55
444.584	4.59
444.788	4.66
444.992	4.75
445.196	4.67
445.4	4.71
445.604	4.69
445.808	4.73
446.012	4.71
446.216	4.67
446.42	4.67
446.624	4.61
446.828	4.68
447.032	4.6
447.235	4.57
447.439	4.64
447.643	4.68
447.847	4.73
448.051	4.71
448.254	4.72
448.458	4.81
448.662	4.74
448.866	4.77
449.069	4.73
449.273	4.84
449.477	4.79
449.681	4.73
449.884	4.71
450.088	4.65
450.292	4.67
450.495	4.71
450.699	4.73
450.902	4.72
451.106	4.6
451.31	4.61
451.513	4.67
451.717	4.72
451.92	4.77
452.124	4.81
452.327	4.85
452.531	4.83
452.734	4.8
452.938	4.79
453.141	4.88
453.345	4.88
453.548	4.84
453.752	4.74
453.955	4.72
454.158	4.73
454.362	4.6
454.565	4.68
454.769	4.66
454.972	4.66
455.175	4.63
455.379	4.54
455.582	4.6
455.785	4.6
455.988	4.54
456.192	4.49
456.395	4.47
456.598	4.52
456.801	4.39
457.005	4.46
457.208	4.48
457.411	4.47
457.614	4.35
457.817	4.35
458.021	4.36
458.224	4.39
458.427	4.29
458.63	4.27
458.833	4.31
459.036	4.27
459.239	4.2
459.442	4.18
459.645	4.17
459.848	4.24
460.051	4.25
460.254	4.25
460.457	4.24
460.66	4.38
460.863	4.38
461.066	4.41
461.269	4.47
461.472	4.57
461.675	4.53
461.878	4.66
462.081	4.67
462.284	4.64
462.486	4.59
462.689	4.61
462.892	4.63
463.095	4.58
463.298	4.52
463.5	4.66
463.703	4.54
463.906	4.61
464.109	4.59
464.311	4.61
464.514	4.75
464.717	4.82
464.92	4.82
465.122	4.75
465.325	4.85
465.528	4.9
465.73	4.84
465.933	4.88
466.135	4.82
466.338	4.79
466.541	4.75
466.743	4.71
466.946	4.67
467.148	4.62
467.351	4.69
467.553	4.63
467.756	4.62
467.958	4.65
468.161	4.63
468.363	4.67
468.566	4.67
468.768	4.78
468.971	4.76
469.173	4.75
469.375	4.76
469.578	4.75
469.78	4.77
469.983	4.69
470.185	4.64
470.387	4.55
470.59	4.57
470.792	4.59
470.994	4.53
471.196	4.5
471.399	4.6
471.601	4.6
471.803	4.57
472.005	4.73
472.208	4.73
472.41	4.8
472.612	4.93
472.814	4.89
473.016	4.93
473.218	4.99
473.421	4.91
473.623	4.85
473.825	4.82
474.027	4.81
474.229	4.73
474.431	4.74
474.633	4.64
474.835	4.62
475.037	4.68
475.239	4.56
475.441	4.47
475.643	4.53
475.845	4.51
476.047	4.6
476.249	4.51
476.451	4.44
476.653	4.56
476.855	4.52
477.057	4.49
477.258	4.45
477.46	4.5
477.662	4.5
477.864	4.49
478.066	4.51
478.268	4.37
478.469	4.47
478.671	4.53
478.873	4.4
479.075	4.46
479.276	4.42
479.478	4.41
479.68	4.37
479.882	4.41
480.083	4.39
480.285	4.39
480.487	4.45
480.688	4.38
480.89	4.35
481.091	4.32
481.293	4.3
481.495	4.25
481.696	4.22
481.898	4.19
482.099	4.14
482.301	4.13
482.502	4.13
482.704	4.15
482.905	4.16
483.107	4.16
483.308	4.18
483.51	4.18
483.711	4.19
483.913	4.2
484.114	4.25
484.315	4.28
484.517	4.31
484.718	4.27
484.92	4.26
485.121	4.27
485.322	4.24
485.524	4.2
485.725	4.19
485.926	4.19
486.127	4.22
486.329	4.18
486.53	4.2
486.731	4.17
486.932	4.2
487.134	4.19
487.335	4.17
487.536	4.17
487.737	4.2
487.938	4.22
488.139	4.25
488.341	4.2
488.542	4.21
488.743	4.17
488.944	4.21
489.145	4.21
489.346	4.17
489.547	4.17
489.748	4.21
489.949	4.23
490.15	4.2
490.351	4.17
490.552	4.22
490.753	4.21
490.954	4.26
491.155	4.25
491.356	4.26
491.557	4.32
491.758	4.42
491.959	4.43
492.159	4.41
492.36	4.41
492.561	4.51
492.762	4.54
492.963	4.56
493.164	4.51
493.364	4.52
493.565	4.51
493.766	4.53
493.967	4.47
494.167	4.44
494.368	4.5
494.569	4.64
494.769	4.58
494.97	4.52
495.171	4.53
495.371	4.53
495.572	4.53
495.773	4.55
495.973	4.61
496.174	4.55
496.375	4.55
496.575	4.57
496.776	4.55
496.976	4.6
497.177	4.67
497.377	4.75
497.578	4.82
497.778	4.83
497.979	4.83
498.179	4.69
498.38	4.76
498.58	4.84
498.78	4.83
498.981	4.87
499.181	4.89
499.382	4.86
499.582	4.88
499.782	4.84
499.983	4.79
500.183	4.79
500.383	4.94
500.584	4.88
500.784	4.82
500.984	4.87
501.184	4.85
501.385	4.82
501.585	4.84
501.785	4.75
501.985	4.81
502.185	4.88
502.386	4.91
502.586	4.88
502.786	5.03
502.986	5.08
503.186	5
503.386	5.05
503.586	5.11
503.786	5.17
503.987	5.23
504.187	5.19
504.387	5.2
504.587	5.28
504.787	5.28
504.987	5.28
505.187	5.35
505.387	5.43
505.587	5.44
505.786	5.48
505.986	5.45
506.186	5.52
506.386	5.54
506.586	5.61
506.786	5.59
506.986	5.62
507.186	5.55
507.386	5.52
507.585	5.51
507.785	5.45
507.985	5.51
508.185	5.59
508.384	5.58
508.584	5.59
508.784	5.57
508.984	5.59
509.183	5.57
509.383	5.65
509.583	5.64
509.782	5.63
509.982	5.72
510.182	5.67
510.381	5.61
510.581	5.62
510.781	5.73
510.98	5.74
511.18	5.76
511.379	5.85
511.579	5.81
511.778	5.82
511.978	5.89
512.177	5.84
512.377	5.86
512.576	5.91
512.776	5.9
512.975	5.89
513.175	5.92
513.374	5.91
513.573	5.92
513.773	6.03
513.972	6.04
514.172	6.11
514.371	6.24
514.57	6.23
514.77	6.3
514.969	6.38
515.168	6.37
515.367	6.4
515.567	6.42
515.766	6.32
515.965	6.3
516.164	6.31
516.364	6.28
516.563	6.2
516.762	6.22
516.961	6.11
517.16	6.09
517.359	6.09
517.559	6.18
517.758	6.16
517.957	6.24
518.156	6.32
518.355	6.4
518.554	6.4
518.753	6.44
518.952	6.49
519.151	6.59
519.35	6.63
519.549	6.7
519.748	6.64
519.947	6.77
520.146	6.8
520.345	6.78
520.544	6.74
520.743	6.78
520.942	6.88
521.141	6.9
521.339	6.97
521.538	6.97
521.737	7.04
521.936	7.05
522.135	7.05
522.333	7.08
522.532	6.99
522.731	7.02
522.93	7.1
523.129	7.14
523.327	7.18
523.526	7.06
523.725	7.1
523.923	7.14
524.122	7.21
524.321	7.18
524.519	7.15
524.718	7.26
524.917	7.31
525.115	7.25
525.314	7.22
525.512	7.21
525.711	7.27
525.909	7.28
526.108	7.21
526.306	7.23
526.505	7.28
526.703	7.32
526.902	7.33
527.1	7.32
527.299	7.37
527.497	7.41
527.696	7.46
527.894	7.52
528.092	7.56
528.291	7.58
528.489	7.6
528.688	7.6
528.886	7.68
529.084	7.72
529.283	7.79
529.481	7.83
529.679	7.83
529.877	7.89
530.076	7.89
530.274	7.91
530.472	7.95
530.67	7.98
530.869	8.01
531.067	8.04
531.265	8.04
531.463	8.07
531.661	8.05
531.859	8
532.057	8
532.255	8.04
532.454	8.1
532.652	8.15
532.85	8.21
533.048	8.28
533.246	8.29
533.444	8.32
533.642	8.36
533.84	8.43
534.038	8.56
534.236	8.64
534.434	8.64
534.632	8.66
534.83	8.72
535.027	8.73
535.225	8.71
535.423	8.75
535.621	8.84
535.819	8.8
536.017	8.82
536.215	8.84
536.412	8.85
536.61	8.89
536.808	8.92
537.006	8.87
537.203	8.89
537.401	9.03
537.599	9.07
537.797	9.07
537.994	9.08
538.192	9.15
538.39	9.26
538.587	9.23
538.785	9.28
538.983	9.28
539.18	9.34
539.378	9.35
539.575	9.32
539.773	9.31
539.97	9.34
540.168	9.4
540.366	9.48
540.563	9.48
540.761	9.57
540.958	9.57
541.155	9.65
541.353	9.67
541.55	9.73
541.748	9.78
541.945	9.85
542.143	9.89
542.34	9.96
542.537	10
542.735	10
542.932	9.95
543.129	10.09
543.327	10.15
543.524	10.33
543.721	10.33
543.919	10.37
544.116	10.49
544.313	10.64
544.51	10.61
544.708	10.6
544.905	10.69
545.102	10.8
545.299	10.78
545.496	10.78
545.693	10.78
545.891	10.91
546.088	10.98
546.285	11.06
546.482	11.07
546.679	11.26
546.876	11.35
547.073	11.49
547.27	11.6
547.467	11.65
547.664	11.73
547.861	11.8
548.058	11.84
548.255	11.89
548.452	11.85
548.649	11.96
548.846	11.96
549.043	11.9
549.24	11.93
549.437	11.92
549.633	12.11
549.83	12.22
550.027	12.32
550.224	12.28
550.421	12.32
550.618	12.36
550.814	12.37
551.011	12.39
551.208	12.58
551.405	12.67
551.601	12.73
551.798	12.75
551.995	12.77
552.191	12.87
552.388	13.01
552.585	13.09
552.781	13.23
552.978	13.31
553.175	13.4
553.371	13.54
553.568	13.56
553.764	13.65
553.961	13.82
554.157	13.91
554.354	13.94
554.55	14
554.747	14.09
554.943	14.14
555.14	14.24
555.336	14.29
555.533	14.19
555.729	14.34
555.926	14.43
556.122	14.4
556.318	14.46
556.515	14.62
556.711	14.73
556.907	14.96
557.104	15.01
557.3	15.12
557.496	15.24
557.693	15.44
557.889	15.48
558.085	15.62
558.281	15.69
558.478	15.86
558.674	15.88
558.87	15.89
559.066	15.9
559.262	16.02
559.459	16.09
559.655	16.13
559.851	16.16
560.047	16.26
560.243	16.36
560.439	16.38
560.635	16.43
560.831	16.35
561.027	16.4
561.223	16.41
561.419	16.42
561.615	16.46
561.811	16.58
562.007	16.67
562.203	16.74
562.399	16.82
562.595	16.9
562.791	17.02
562.987	17.25
563.183	17.46
563.379	17.57
563.575	17.72
563.771	17.86
563.966	17.99
564.162	18.1
564.358	18.17
564.554	18.15
564.75	18.36
564.945	18.37
565.141	18.48
565.337	18.53
565.533	18.66
565.728	18.74
565.924	18.75
566.12	18.82
566.315	18.87
566.511	18.92
566.707	19.02
566.902	19.07
567.098	19.28
567.293	19.31
567.489	19.4
567.684	19.45
567.88	19.46
568.076	19.5
568.271	19.56
568.467	19.6
568.662	19.71
568.858	19.91
569.053	19.93
569.248	19.86
569.444	19.89
569.639	19.96
569.835	20.03
570.03	20.17
570.225	20.27
570.421	20.48
570.616	20.58
570.812	20.8
571.007	20.85
571.202	21
571.397	21.19
571.593	21.34
571.788	21.37
571.983	21.48
572.178	21.53
572.374	21.67
572.569	21.65
572.764	21.84
572.959	21.77
573.154	21.75
573.35	21.73
573.545	21.76
573.74	21.8
573.935	21.93
574.13	22.06
574.325	22.17
574.52	22.27
574.715	22.34
574.91	22.31
575.105	22.53
575.3	22.64
575.495	22.76
575.69	22.87
575.885	23.05
576.08	23.07
576.275	23.06
576.47	23.09
576.665	23.04
576.86	23.13
577.055	23.23
577.25	23.14
577.444	23.24
577.639	23.4
577.834	23.4
578.029	23.34
578.224	23.43
578.418	23.48
578.613	23.61
578.808	23.75
579.003	23.77
579.197	23.84
579.392	24
579.587	24.13
579.781	24.06
579.976	24.24
580.171	24.34
580.365	24.44
580.56	24.58
580.755	24.59
580.949	24.56
581.144	24.71
581.338	24.76
581.533	24.81
581.727	24.89
581.922	24.94
582.116	24.93
582.311	25.05
582.505	25.19
582.7	25.16
582.894	25.16
583.089	25.3
583.283	25.21
583.478	25.33
583.672	25.23
583.866	25.37
584.061	25.38
584.255	25.44
584.449	25.45
584.644	25.51
584.838	25.56
585.032	25.63
585.226	25.65
585.421	25.75
585.615	25.84
585.809	25.87
586.003	25.85
586.198	26.07
586.392	26.06
586.586	25.98
586.78	25.83
586.974	25.95
587.168	26.05
587.363	26.08
587.557	26.2
587.751	26.07
587.945	26.16
588.139	26.11
588.333	26.06
588.527	26.13
588.721	26.35
588.915	26.54
589.109	26.53
589.303	26.61
589.497	26.75
589.691	26.68
589.885	26.75
590.079	26.8
590.273	26.89
590.466	26.93
590.66	26.87
590.854	26.76
591.048	26.72
591.242	26.81
591.436	26.59
591.629	26.56
591.823	26.64
592.017	26.75
592.211	26.74
592.404	26.79
592.598	26.85
592.792	27.03
592.986	27.23
593.179	27.19
593.373	27.19
593.567	27.35
593.76	27.41
593.954	27.67
594.147	27.65
594.341	27.64
594.535	27.69
594.728	27.63
594.922	27.6
595.115	27.42
595.309	27.48
595.502	27.53
595.696	27.61
595.889	27.57
596.083	27.4
596.276	27.47
596.47	27.62
596.663	27.55
596.856	27.63
597.05	27.72
597.243	27.84
597.437	27.97
597.63	27.98
597.823	28.17
598.017	28.36
598.21	28.54
598.403	28.67
598.596	28.71
598.79	28.76
598.983	28.71
599.176	28.7
599.369	28.78
599.563	28.75
599.756	28.8
599.949	28.67
600.142	28.51
600.335	28.42
600.528	28.44
600.722	28.57
600.915	28.53
601.108	28.64
601.301	28.64
601.494	28.58
601.687	28.53
601.88	28.52
602.073	28.39
602.266	28.54
602.459	28.59
602.652	28.53
602.845	28.41
603.038	28.48
603.231	28.6
603.424	28.61
603.617	28.79
603.809	28.89
604.002	28.88
604.195	29.12
604.388	29.05
604.581	29.16
604.774	29.22
604.966	29.21
605.159	29.17
605.352	29.15
605.545	29.26
605.737	29.02
605.93	29.02
606.123	29.13
606.316	29.07
606.508	29.2
606.701	29.09
606.894	29.15
607.086	29.25
607.279	29.34
607.471	29.3
607.664	29.32
607.857	29.52
608.049	29.49
608.242	29.46
608.434	29.52
608.627	29.46
608.819	29.45
609.012	29.52
609.204	29.52
609.397	29.56
609.589	29.71
609.782	29.74
609.974	29.75
610.166	29.73
610.359	29.81
610.551	29.66
610.743	29.77
610.936	29.79
611.128	29.75
611.32	29.66
611.513	29.57
611.705	29.55
611.897	29.45
612.09	29.45
612.282	29.62
612.474	29.47
612.666	29.58
612.858	29.46
613.051	29.64
613.243	29.55
613.435	29.67
613.627	29.85
613.819	29.77
614.011	30.01
614.203	30.02
614.395	30.18
614.588	30.22
614.78	30.35
614.972	30.33
615.164	30.27
615.356	30.24
615.548	30.26
615.74	30.44
615.932	30.34
616.124	30.23
616.315	30.35
616.507	30.23
616.699	30.5
616.891	30.52
617.083	30.67
617.275	30.8
617.467	30.8
617.659	30.8
617.85	30.83
618.042	30.92
618.234	31.09
618.426	31.03
618.618	31.15
618.809	30.86
619.001	30.6
619.193	30.59
619.384	30.47
619.576	30.59
619.768	30.66
619.959	30.43
620.151	30.69
620.343	30.51
620.534	30.62
620.726	30.58
620.917	30.79
621.109	30.87
621.301	30.77
621.492	30.56
621.684	30.49
621.875	30.57
622.067	30.54
622.258	30.35
622.45	30.53
622.641	30.37
622.832	30.39
623.024	30.41
623.215	30.6
623.407	30.75
623.598	30.96
623.789	31.09
623.981	30.98
624.172	31.18
624.363	31.17
624.555	31.1
624.746	31.04
624.937	31
625.129	31.02
625.32	30.99
625.511	30.8
625.702	30.67
625.893	30.64
626.085	30.61
626.276	30.55
626.467	30.64
626.658	30.44
626.849	30.32
627.04	30.37
627.231	30.34
627.422	30.33
627.614	30.68
627.805	30.87
627.996	30.8
628.187	30.94
628.378	30.94
628.569	30.86
628.76	31.19
628.951	31.32
629.142	31.08
629.332	30.97
629.523	30.92
629.714	30.77
629.905	30.74
630.096	30.84
630.287	30.79
630.478	30.75
630.669	30.76
630.859	30.63
631.05	30.87
631.241	31.09
631.432	31.19
631.623	31.31
631.813	31.16
632.004	31.19
632.195	31.09
632.385	31.08
632.576	31.09
632.767	31.25
632.957	31.37
633.148	31.35
633.339	31.29
633.529	31.44
633.72	31.44
633.91	31.52
634.101	31.48
634.292	31.64
634.482	31.59
634.673	31.7
634.863	31.67
635.054	31.71
635.244	31.78
635.435	31.81
635.625	31.8
635.815	31.65
636.006	31.71
636.196	31.8
636.387	31.7
636.577	31.82
636.767	31.87
636.958	31.86
637.148	31.85
637.338	31.68
637.529	31.71
637.719	31.66
637.909	31.67
638.099	31.72
638.29	31.58
638.48	31.53
638.67	31.51
638.86	31.51
639.05	31.55
639.241	31.48
639.431	31.29
639.621	31.44
639.811	31.32
640.001	31.38
640.191	31.29
640.381	31.42
640.571	31.67
640.761	31.72
640.951	31.54
641.141	31.35
641.331	31.08
641.521	31.47
641.711	31.54
641.901	31.7
642.091	31.79
642.281	31.9
642.471	31.88
642.661	31.96
642.851	32.03
643.041	32.22
643.231	32.24
643.42	32.51
643.61	32.42
643.8	32.36
643.99	32.29
644.18	32.1
644.369	32.19
644.559	32.12
644.749	32.18
644.939	32.07
645.128	32.01
645.318	31.97
645.508	31.94
645.697	32.15
645.887	31.91
646.076	31.83
646.266	32
646.456	32.14
646.645	32.44
646.835	32.16
647.024	32.18
647.214	32.09
647.403	32.09
647.593	32.2
647.782	31.99
647.972	32.08
648.161	32.24
648.351	32.27
648.54	32.19
648.73	32.06
648.919	32.08
649.108	32.22
649.298	32.33
649.487	32.51
649.677	32.38
649.866	32.35
650.055	32.56
650.244	32.53
650.434	32.6
650.623	32.54
650.812	32.54
651.002	32.64
651.191	32.56
651.38	32.76
651.569	32.6
651.758	32.63
651.947	32.83
652.137	32.74
652.326	32.85
652.515	32.92
652.704	32.78
652.893	32.59
653.082	32.46
653.271	32.72
653.46	32.38
653.649	32.39
653.838	32.42
654.027	32.22
654.216	32
654.405	32
654.594	31.74
654.783	31.63
654.972	32.02
655.161	32.03
655.35	31.64
655.539	32.06
655.728	32.28
655.916	32.26
656.105	32.02
656.294	32.35
656.483	32.22
656.672	32.37
656.86	32.48
657.049	32.24
657.238	32.26
657.427	32.42
657.615	32.13
657.804	32.07
657.993	32.04
658.181	32.38
658.37	32.31
658.559	32.32
658.747	32.21
658.936	32.24
659.125	32.18
659.313	32.11
659.502	32.05
659.69	31.98
659.879	31.96
660.067	31.93
660.256	31.82
660.444	31.75
660.633	31.87
660.821	32.1
661.01	32.12
661.198	32.22
661.387	32.37
661.575	32.43
661.763	32.72
661.952	32.65
662.14	32.65
662.328	32.48
662.517	32.6
662.705	32.34
662.893	32.08
663.082	32.22
663.27	32.28
663.458	32.25
663.646	32.15
663.834	32.08
664.023	32.15
664.211	32.23
664.399	32.46
664.587	32.16
664.775	32.32
664.963	32.39
665.152	32.16
665.34	32.12
665.528	32.11
665.716	32.19
665.904	32.07
666.092	32.07
666.28	32
666.468	31.93
666.656	32.14
666.844	32.31
667.032	32.38
667.22	32.55
667.408	32.69
667.596	32.9
667.784	32.85
667.971	32.79
668.159	32.73
668.347	32.91
668.535	32.62
668.723	32.56
668.911	32.24
669.098	32.39
669.286	32.33
669.474	32.15
669.662	32.02
669.849	32.05
670.037	32.09
670.225	32.35
670.413	32.36
670.6	32.79
670.788	32.68
670.976	33.19
671.163	33.08
671.351	33.13
671.538	33.22
671.726	33.16
671.913	33.26
672.101	33.54
672.289	33.32
672.476	33.41
672.664	33.36
672.851	33.87
673.039	33.64
673.226	33.78
673.413	33.62
673.601	33.6
673.788	33.76
673.976	33.85
674.163	33.72
674.35	33.9
674.538	33.73
674.725	33.75
674.912	33.23
675.1	33.06
675.287	32.87
675.474	32.65
675.662	32.93
675.849	32.97
676.036	32.76
676.223	32.65
676.411	32.47
676.598	32.24
676.785	32.09
676.972	32.24
677.159	32.03
677.346	31.78
677.533	32.02
677.721	32.03
677.908	32.06
678.095	32.24
678.282	32.48
678.469	32.59
678.656	32.74
678.843	32.9
679.03	33.03
679.217	33.31
679.404	33.48
679.591	33.5
679.778	33.2
679.964	33.25
680.151	33.02
680.338	32.84
680.525	32.95
680.712	32.94
680.899	33.12
681.086	32.89
681.272	33
681.459	32.9
681.646	33.16
681.833	33.16
682.02	33.01
682.206	33.21
682.393	33.45
682.58	33.35
682.766	33.32
682.953	33.26
683.14	33.52
683.326	33.77
683.513	34.15
683.7	34.13
683.886	34.33
684.073	34.44
684.259	34.4
684.446	34.49
684.632	34.52
684.819	34.42
685.005	34.23
685.192	34.46
685.378	34.18
685.565	33.91
685.751	33.58
685.938	33.5
686.124	33.48
686.31	33.35
686.497	32.82
686.683	32.84
686.87	33.15
687.056	33.06
687.242	33
687.429	33.04
687.615	33.03
687.801	33.18
687.987	33.56
688.174	33.51
688.36	33.84
688.546	33.78
688.732	33.49
688.918	33.32
689.105	33.33
689.291	33.14
689.477	32.87
689.663	32.99
689.849	32.76
690.035	32.47
690.221	32.59
690.407	32.67
690.593	32.92
690.779	32.97
690.965	33.07
691.151	33.33
691.337	33.31
691.523	33.34
691.709	33.6
691.895	34.07
692.081	33.9
692.267	33.76
692.453	33.51
692.639	33.27
692.825	33.37
693.011	33.54
693.196	33.66
693.382	33.82
693.568	33.65
693.754	33.88
693.94	33.54
694.125	34.11
694.311	34.05
694.497	33.95
694.682	34.39
694.868	34.65
695.054	34.51
695.239	34.23
695.425	34.15
695.611	34.3
695.796	33.96
695.982	33.99
696.168	33.5
696.353	33.4
696.539	33.53
696.724	33.38
696.91	33.13
697.095	33.19
697.281	33.08
697.466	32.95
697.652	33.08
697.837	33.12
698.023	33.12
698.208	33.15
698.393	33.2
698.579	33.19
698.764	33.13
698.949	33.17
699.135	32.86
699.32	32.93
699.505	32.9
699.691	32.75
699.876	32.52
700.061	32.56
700.246	32.49
700.432	32.7
700.617	32.51
700.802	32.31
700.987	32.38
701.172	32.56
701.358	32.29
701.543	32.55
701.728	32.42
701.913	32.99
702.098	33.05
702.283	33.44
702.468	33.1
702.653	33.61
702.838	33.9
703.023	33.72
703.208	33.97
703.393	34.17
703.578	34.05
703.763	34.18
703.948	33.75
704.133	34.02
704.318	33.77
704.503	34
704.688	33.71
704.873	33.63
705.057	33.79
705.242	33.75
705.427	34.02
705.612	34.18
705.797	34.38
705.981	34.26
706.166	33.89
706.351	33.6
706.536	33.2
706.72	33.07
706.905	33.17
707.09	33.07
707.274	33.1
707.459	32.88
707.644	32.94
707.828	32.92
708.013	33.08
708.197	32.95
708.382	33.27
708.567	33.34
708.751	33.15
708.936	33.03
709.12	33.27
709.305	33.47
709.489	33.77
709.673	33.3
709.858	33
710.042	32.89
710.227	33.11
710.411	33.17
710.596	33.46
710.78	33.84
710.964	34.19
711.149	34.35
711.333	34.31
711.517	34.33
711.702	34.54
711.886	34.89
712.07	34.87
712.254	34.74
712.438	35.02
712.623	34.7
712.807	34.53
712.991	34.37
713.175	33.84
713.359	33.5
713.544	32.72
713.728	32.65
713.912	32.4
714.096	32.74
714.28	32.69
714.464	32.46
714.648	32.52
714.832	32.66
715.016	32.9
715.2	33.11
715.384	33.14
715.568	33.65
715.752	33.67
715.936	33.86
716.12	33.45
716.304	33.85
716.488	33.76
716.671	33.82
716.855	33.95
717.039	33.45
717.223	33.49
717.407	33.54
717.59	33.71
717.774	33.74
717.958	33.36
718.142	33.12
718.325	32.96
718.509	32.61
718.693	32.59
718.877	32.29
719.06	32.33
719.244	32.65
719.428	32.41
719.611	32.67
719.795	32.91
719.978	33.77
720.162	33.93
720.345	33.34
720.529	33.66
720.713	33.95
720.896	33.91
721.08	34.3
721.263	34
721.446	34.07
721.63	33.4
721.813	32.87
721.997	32.69
722.18	32.57
722.364	32.91
722.547	32.61
722.73	32.36
722.914	32.41
723.097	32.22
723.28	32.24
723.464	32.01
723.647	32.54
723.83	32.37
724.013	32.49
724.197	32.91
724.38	32.8
724.563	33.12
724.746	33.39
724.929	33.67
725.112	34.19
725.296	34
725.479	34.32
725.662	34.19
725.845	34.84
726.028	34.49
726.211	34.53
726.394	35.03
726.577	34.87
726.76	34.88
726.943	34.47
727.126	34.21
727.309	34.12
727.492	34.16
727.675	33.9
727.858	33.64
728.041	33.53
728.224	33.26
728.407	33.16
728.589	33.3
728.772	33.01
728.955	33.36
729.138	32.91
729.321	33.44
729.503	33.72
729.686	33.89
729.869	34.21
730.052	34.18
730.234	34.44
730.417	34.28
730.6	34.56
730.782	34.93
730.965	34.64
731.148	34.73
731.33	34.16
731.513	33.99
731.695	34.38
731.878	34.3
732.061	34.37
732.243	34.32
732.426	33.73
732.608	33.28
732.791	33.42
732.973	33.83
733.156	33.55
733.338	33.77
733.52	33.55
733.703	33.11
733.885	32.72
734.068	32.67
734.25	32.98
734.432	33.5
734.615	33.64
734.797	33.06
734.979	32.51
735.162	33.07
735.344	33.07
735.526	33.11
735.708	33.39
735.891	34.1
736.073	34.54
736.255	34.12
736.437	34.44
736.619	34.47
736.802	34.58
736.984	35.19
737.166	35.56
737.348	35.88
737.53	35.78
737.712	35.64
737.894	35.38
738.076	34.89
738.258	35.21
738.44	34.86
738.622	35.06
738.804	34.8
738.986	34.36
739.168	33.81
739.35	34.13
739.532	34.35
739.714	34.34
739.896	33.91
740.078	34.48
740.259	33.98
740.441	34.15
740.623	33.87
740.805	33.92
740.987	33.91
741.168	33.43
741.35	33.1
741.532	33.41
741.714	32.96
741.895	33.32
742.077	33.01
742.259	32.78
742.44	33.09
742.622	33.29
742.804	33.61
742.985	33.92
743.167	34.99
743.348	34.37
743.53	34.47
743.711	35.15
743.893	35.26
744.075	35.19
744.256	36.04
744.438	35.84
744.619	35.38
744.8	34.85
744.982	35.13
745.163	34.74
745.345	35.7
745.526	36.14
745.707	35.7
745.889	35.44
746.07	34.76
746.252	34.92
746.433	35.13
746.614	35.19
746.795	35.84
746.977	35.24
747.158	35.55
747.339	35.12
747.52	34.7
747.702	34.55
747.883	34.64
748.064	35.3
748.245	34.78
748.426	34.59
748.607	35.2
748.788	34.76
748.97	35.25
749.151	34.39
749.332	34.44
749.513	34.69
749.694	34.96
749.875	35.13
750.056	35.45
750.237	35.32
750.418	35.05
750.599	34.45
750.78	34.39
750.96	33.7
751.141	33.97
751.322	33.57
751.503	32.53
751.684	32.78
751.865	32.29
752.046	32.04
752.226	32.5
752.407	33.14
752.588	33.27
752.769	34.2
752.949	34.56
753.13	34.79
753.311	34.72
753.492	35.79
753.672	35.18
753.853	35.18
754.034	35.16
754.214	34.83
754.395	34.07
754.575	34.44
754.756	33.46
754.937	33.53
755.117	33.08
755.298	33.01
755.478	32.85
755.659	32.87
755.839	32.62
756.02	32.55
756.2	32.3
756.381	32.39
756.561	32.31
756.741	32.73
756.922	32.88
757.102	33.42
757.283	34.3
757.463	33.73
757.643	34.05
757.823	34.62
758.004	34.69
758.184	34.43
758.364	34.64
758.545	34.48
758.725	34.28
758.905	34.18
759.085	33.91
759.265	32.86
759.446	32.41
759.626	32.57
759.806	32.15
759.986	32.39
760.166	32.96
760.346	32.52
760.526	32.26
760.706	32.26
760.886	32
761.066	32.69
761.246	33.26
761.426	34.03
761.606	33.72
761.786	34.01
761.966	33.45
762.146	33.25
762.326	33.93
762.506	33.81
762.686	34.05
762.866	34.28
763.046	33.89
763.225	33.6
763.405	33.29
763.585	33.37
763.765	33.44
763.945	33.34
764.124	33.28
764.304	32.94
764.484	33.45
764.664	33.34
764.843	33.1
765.023	33.17
765.203	33.26
765.382	33.25
765.562	33.51
765.741	33.8
765.921	34.31
766.101	34.71
766.28	34.73
766.46	34.53
766.639	34.59
766.819	35.06
766.998	34.82
767.178	34.52
767.357	34.25
767.537	34.16
767.716	33.61
767.896	32.96
768.075	32.62
768.254	32.05
768.434	32.37
768.613	32.77
768.792	32.22
768.972	32.87
769.151	33.5
769.33	33.55
769.51	33.71
769.689	34.02
769.868	34.55
770.047	35.4
770.226	36.17
770.406	35.83
770.585	35.85
770.764	35.99
770.943	35.5
771.122	35.31
771.301	35.82
771.48	35.69
771.66	34.99
771.839	35.45
772.018	34.92
772.197	34.8
772.376	35.58
772.555	34.42
772.734	34.77
772.913	34.55
773.092	34.31
773.271	34.9
773.449	34.42
773.628	34.78
773.807	34.4
773.986	34.28
774.165	34.58
774.344	34.14
774.523	35.56
774.701	35.44
774.88	35.3
775.059	36.31
775.238	35.83
775.417	36
775.595	37.42
775.774	37.45
775.953	37.16
776.131	36.65
776.31	35.99
776.489	34.76
776.667	35.3
776.846	35.74
777.025	35.72
777.203	35.18
777.382	35.14
777.56	33.34
777.739	33.6
777.917	33.49
778.096	33.49
778.274	33.31
778.453	33.81
778.631	33.23
778.81	33.44
778.988	32.61
779.166	32.39
779.345	32.68
779.523	33.01
779.702	32.78
779.88	33.03
780.058	32.76
780.237	33.56
780.415	32.89
780.593	33.12
780.771	32.54
780.95	33.61
781.128	34.79
781.306	35.06
781.484	35
781.662	35.02
781.841	34.88
782.019	35.52
782.197	34.41
782.375	34.01
782.553	33.64
782.731	34.11
782.909	33.12
783.087	32.57
783.265	33.61
783.443	33.81
783.621	32.8
783.799	33.34
783.977	32.91
784.155	33.73
784.333	35.74
784.511	35.38
784.689	35.39
784.867	35.04
785.045	34.66
785.223	33.27
785.4	33.68
785.578	35.04
785.756	35.53
785.934	35.65
786.112	35.49
786.289	34.64
786.467	35.29
786.645	34.76
786.823	34.48
787	35.02
787.178	34.92
787.356	34.3
787.533	33.75
787.711	33.4
787.889	33.3
788.066	32.68
788.244	32.5
788.421	32.09
788.599	32.64
788.776	32.71
788.954	32.29
789.131	32.81
789.309	33.44
789.486	33.22
789.664	33.45
789.841	34.27
790.019	34.91
790.196	35.84
790.373	36.1
790.551	36.23
790.728	37.12
790.906	36.91
791.083	37.44
791.26	37.7
791.437	38.71
791.615	38.34
791.792	36.25
791.969	36.31
792.146	35.86
792.324	36.07
792.501	36.93
792.678	35.88
792.855	36.43
793.032	35.55
793.209	35.17
793.387	34.94
793.564	34.64
793.741	36.51
793.918	36.8
794.095	37.87
794.272	36.98
794.449	35.78
794.626	38.04
794.803	36.92
794.98	37
795.157	37.31
795.334	36.89
795.511	36.75
795.688	36.63
795.864	35.96
796.041	35
796.218	36.2
796.395	37.12
796.572	35.24
796.749	36.66
796.925	36
797.102	35.45
797.279	35.13
797.456	35.31
797.632	34.92
797.809	35.25
797.986	34.88
798.162	34.31
798.339	34.43
798.516	36.1
798.692	35.27
798.869	35.66
799.046	36.12
799.222	36.6
799.399	35.7
799.575	36.43
799.752	35.81
799.928	36.99
800.105	36.99
800.281	36.27
800.458	35.32
800.634	36.54
800.811	36.14
800.987	34.97
801.163	35.17
801.34	36.5
801.516	36.58
801.692	37.82
801.869	35.49
802.045	35.51
802.221	34.3
802.398	34.59
802.574	34.02
802.75	34.28
802.926	34.35
803.103	34.72
803.279	33.93
803.455	33.74
803.631	33.66
803.807	35.67
803.983	35.77
804.16	36.7
804.336	35.75
804.512	34.67
804.688	36.02
804.864	36.46
805.04	35.92
805.216	37.02
805.392	36.1
805.568	36.33
805.744	36.74
805.92	37.42
806.096	38.06
806.272	39.73
806.448	40.74
806.623	39.75
806.799	40.34
806.975	40.31
807.151	38.78
807.327	39.23
807.503	38.98
807.678	38.1
807.854	36.95
808.03	36.82
808.206	35.59
808.381	35.53
808.557	35.29
808.733	35.7
808.908	36.38
809.084	37.94
809.26	37.83
809.435	36.94
809.611	35.34
809.787	35.33
809.962	34.93
810.138	34.66
810.313	34
810.489	34.26
810.664	33.53
810.84	31.69
811.015	31.2
811.191	32.35
811.366	32.85
811.542	34.9
811.717	35.14
811.892	35.58
812.068	36.29
812.243	35.39
812.419	35.38
812.594	35.89
812.769	36.81
812.944	37.38
813.12	36.41
813.295	36.19
813.47	34.98
813.645	35.93
813.821	34.58
813.996	34.94
814.171	37.92
814.346	37.72
814.521	37.28
814.697	38.54
814.872	37.9
815.047	38.53
815.222	40.25
815.397	40.71
815.572	39.72
815.747	39.89
815.922	37.94
816.097	35.89
816.272	36.85
816.447	36.57
816.622	35.7
816.797	35.86
816.972	35.33
817.147	33.56
817.322	33.78
817.496	33.42
817.671	33.18
817.846	33.65
818.021	33.36
818.196	32.7
818.371	32.66
818.545	32.08
818.72	32.03
818.895	32.38
819.069	32.48
819.244	33.27
819.419	33.69
819.594	33.07
819.768	32.42
819.943	32.48
820.117	32.5
820.292	32.8
820.467	33.15
820.641	32.87
820.816	32.55
820.99	32.44
821.165	32.13
821.339	32.28
821.514	32.77
821.688	33.02
821.863	32.75
822.037	32.5
822.212	32.45
822.386	32.11
822.56	32.22
822.735	32.08
822.909	32.08
823.084	31.86
823.258	31.47
823.432	31.25
823.606	31.28
823.781	31.55
823.955	31.75
824.129	31.79
824.303	32.17
824.478	32.31
824.652	32.7
824.826	32.73
825	32.81
825.174	33.09
825.348	32.98
825.523	33.22
825.697	33
825.871	32.87
826.045	32.38
826.219	32.45
826.393	31.91
826.567	31.76
826.741	32.08
826.915	32.56
827.089	32.77
827.263	32.94
827.437	32.57
827.611	32.95
827.784	33.59
827.958	34.3
828.132	34.33
828.306	34.85
828.48	35.15
828.654	35.58
828.827	35.27
829.001	35.06
829.175	35.3
829.349	36.05
829.522	36.36
829.696	36.51
829.87	36.5
830.044	36.77
830.217	36.54
830.391	37.03
830.565	36.97
830.738	36.93
830.912	37.24
831.085	37.42
831.259	36.88
831.432	35.89
831.606	34.61
831.779	34.74
831.953	34.49
832.126	34.41
832.3	33.87
832.473	33.89
832.647	34.34
832.82	34.83
832.994	34.43
833.167	35.43
833.34	35.96
833.514	36.45
833.687	35.7
833.86	35.68
834.034	35.96
834.207	35.74
834.38	34.66
834.553	34.45
834.727	34.51
834.9	34.95
835.073	33.44
835.246	33.86
835.419	34.22
835.593	34.54
835.766	33.49
835.939	34.19
836.112	35.79
836.285	37.1
836.458	38.04
836.631	37.11
836.804	38.13
836.977	40.34
837.15	40.58
837.323	39.79
837.496	40.33
837.669	41.38
837.842	40.83
838.015	39.36
838.188	39.21
838.361	37.16
838.533	37.21
838.706	36.13
838.879	33.64
839.052	33
839.225	33.56
839.398	33.85
839.57	34.55
839.743	35.54
839.916	35.68
840.088	36.4
840.261	37.76
840.434	39.1
840.607	39.65
840.779	40.78
840.952	40.46
841.124	39.46
841.297	39.32
841.47	40.59
841.642	39.09
841.815	39.89
841.987	39.95
842.16	40.63
842.332	39.48
842.505	39.21
842.677	38.63
842.85	38.04
843.022	39.27
843.194	39.62
843.367	40
843.539	39.49
843.712	37.67
843.884	35.3
844.056	35.76
844.229	38.48
844.401	40.03
844.573	41.13
844.745	41.25
844.918	42.78
845.09	41.99
845.262	42.58
845.434	46.56
845.606	45.6
845.779	48.25
845.951	46.93
846.123	43.77
846.295	40.74
846.467	38.91
846.639	41.06
846.811	37.84
846.983	38.69
847.155	35.78
847.327	36.17
847.499	34.09
847.671	32.69
847.843	31.02
848.015	32.61
848.187	35.7
848.359	38.07
848.531	36.69
848.703	40.68
848.875	42.33
849.047	42.8
849.218	39.39
849.39	44.65
849.562	43.89
849.734	46.69
849.905	47.45
850.077	42.39
850.249	37.98
850.421	39.21
850.592	34.35
850.764	34.45
850.936	35.85
851.107	35.03
851.279	33.54
851.451	39.27
851.622	38.56
851.794	38.3
851.965	43.19
852.137	47.58
852.308	48.77
852.48	54.28
852.651	51.76
852.823	53.51
852.994	54.74
853.166	53.29
853.337	50.78
853.509	50.31
853.68	49.13
853.851	47.18
854.023	47.19
854.194	43.93
854.365	41.13
854.537	42.91
854.708	41.64
854.879	40.04
855.05	43.52
855.222	42.88
855.393	42.28
855.564	46.07
855.735	50.06
855.906	50.33
856.078	54.09
856.249	52.33
856.42	52.48
856.591	54.18
856.762	54.5
856.933	54.4
857.104	54.74
857.275	56.52
857.446	52.79
857.617	52.6
857.788	51.92
857.959	49.77
858.13	52.5
858.301	49.87
858.472	42.75
858.643	42.65
858.814	39.95
858.985	39.72
859.155	41.08
859.326	43.42
859.497	40.27
859.668	40.75
859.839	39.77
860.009	41.01
860.18	41.93
860.351	49.29
860.522	49.23
860.692	50.07
860.863	51.39
861.034	49.55
861.204	46.05
861.375	47.49
861.546	49.44
861.716	47.69
861.887	46.86
862.057	48.27
862.228	48.47
862.398	47.25
862.569	48.54
862.739	49.85
862.91	49.09
863.08	52.27
863.251	53.58
863.421	49.5
863.592	51.04
863.762	50.8
863.932	50
864.103	46.27
864.273	51.83
864.443	50.43
864.614	49.69
864.784	50.53
864.954	48.37
865.125	49.14
865.295	51.43
865.465	51.32
865.635	47.67
865.805	52.2
865.976	52.99
866.146	50.63
866.316	52.35
866.486	56.75
866.656	57.06
866.826	55.4
866.996	50.44
867.166	49.69
867.336	49.81
867.506	52.23
867.676	47.32
867.846	48.53
868.016	47.57
868.186	49.73
868.356	43.73
868.526	39.67
868.696	40.53
868.866	42.27
869.036	45.4
869.206	48.47
869.376	47.61
869.545	46.7
869.715	46.21
869.885	43.98
870.055	43.52
870.224	44.14
870.394	49.18
870.564	53.37
870.734	53.36
870.903	50.11
871.073	49.44
871.243	49.02
871.412	49.25
871.582	52.67
871.751	52.49
871.921	50.17
872.091	47.71
872.26	43.61
872.43	41.22
872.599	44.13
872.769	43.67
872.938	41.55
873.108	40.92
873.277	40.81
873.446	36.2
873.616	38.96
873.785	40.97
873.955	41.48
874.124	39.27
874.293	42.68
874.463	40.01
874.632	42.31
874.801	41.08
874.971	40.86
875.14	47.03
875.309	45.27
875.478	42.98
875.647	38.32
875.817	39.08
875.986	44.92
876.155	41.92
876.324	41.06
876.493	42.53
876.662	45.79
876.831	44.5
877	42.08
877.17	42.14
877.339	42.51
877.508	47.16
877.677	48.14
877.846	47.59
878.015	47
878.184	45.89
878.352	44.47
878.521	41.66
878.69	41.7
878.859	38.96
879.028	40.83
879.197	41.99
879.366	38.59
879.534	36.72
879.703	34.67
879.872	33.42
880.041	34.14
880.21	32.22
880.378	33.36
880.547	33.93
880.716	34.23
880.884	33.53
881.053	32.8
881.222	34.37
881.39	34.16
881.559	34.76
881.727	34.26
881.896	33.9
882.065	34.25
882.233	33.24
882.402	33.14
882.57	32.53
882.739	32.32
882.907	32.57
883.076	31.55
883.244	31.9
883.412	32.04
883.581	32.84
883.749	33.17
883.918	33.07
884.086	33.18
884.254	33.13
884.423	34.11
884.591	34.83
884.759	34.57
884.927	34.78
885.096	34.13
885.264	34.39
885.432	34.56
885.6	34.32
885.769	33.2
885.937	34.63
886.105	35.59
886.273	35.58
886.441	37.23
886.609	38.15
886.777	38.87
886.945	42.12
887.113	43.07
887.281	42.3
887.449	43.96
887.617	45.83
887.785	46.8
887.953	44.79
888.121	46.9
888.289	43.33
888.457	44.08
888.625	45.51
888.793	49.08
888.961	49.1
889.129	50.47
889.296	50.98
889.464	53.19
889.632	54.19
889.8	59.07
889.967	58.7
890.135	64.38
