Data from 2938480_Reflection_2.txt Node
Date: Wed Jun 17 01:14:38 EDT 2015
User: robert
Spectrometer: USB4E03002
Autoset integration time: false
Trigger mode: 4
Integration Time (sec): 1.000000E-1
Scans to average: 10
Electric dark correction enabled: true
Nonlinearity correction enabled: false
Boxcar width: 5
Stray light correction enabled: false
XAxis mode: Wavelengths
Stop averaging: false
Number of Pixels in Spectrum: 3648
>>>>>Begin Spectral Data<<<<<
177.575	-54.06
177.794	-143.99
178.014	-83.66
178.233	-96.7
178.452	-41.64
178.672	35.06
178.891	108.31
179.11	-83.72
179.33	-150.04
179.549	-74.77
179.768	-53.23
179.987	-65.57
180.207	-101.77
180.426	-13.58
180.645	25.67
180.864	27.44
181.084	59.19
181.303	95.51
181.522	89.79
181.741	107.5
181.96	108.07
182.179	119.66
182.398	160.09
182.618	195.28
182.837	3015.79
183.056	-43533.33
183.275	-137.53
183.494	-39.39
183.713	-9.19
183.932	-5.71
184.151	1.32
184.37	-25.92
184.589	-38.42
184.808	-32.71
185.027	2.89
185.246	-34.56
185.465	-27.46
185.684	-124.3
185.903	1781.45
186.122	-324.48
186.341	-312.44
186.56	686.79
186.779	11637.88
186.998	709.9
187.216	865.03
187.435	880.56
187.654	376.09
187.873	786.58
188.092	694.97
188.311	3484.26
188.53	362.35
188.748	1455.45
188.967	1773.21
189.186	-714.91
189.405	-504.69
189.623	-133.98
189.842	-306.61
190.061	-60.24
190.28	-124.83
190.498	-191.15
190.717	991.84
190.936	-298.22
191.154	-263.53
191.373	-462.94
191.592	3940.13
191.81	6314.13
192.029	670.41
192.248	-2277.99
192.466	-982.13
192.685	-177.95
192.904	-141.46
193.122	-28.13
193.341	6.2
193.559	19.21
193.778	-7.14
193.996	0.59
194.215	-0.32
194.433	1.82
194.652	6.46
194.87	20.29
195.089	30.02
195.307	40.76
195.526	23.84
195.744	-7.63
195.963	0.79
196.181	1.93
196.399	-2.84
196.618	-20.01
196.836	-22.45
197.055	-67.55
197.273	-471.5
197.491	-566.31
197.71	-271.45
197.928	-791.71
198.146	-587.98
198.365	-27397.37
198.583	-3185.76
198.801	5426.23
199.019	-1515.24
199.238	-832.4
199.456	-304.02
199.674	-254.25
199.892	-186.01
200.111	-228.11
200.329	-333.41
200.547	-227.05
200.765	-127.96
200.983	-35.16
201.202	-164.65
201.42	-395.06
201.638	-480.92
201.856	-65.96
202.074	-92.15
202.292	-90.46
202.51	-5.3
202.728	3.55
202.946	-14.18
203.165	-12.15
203.383	-80.5
203.601	-130.96
203.819	-83.51
204.037	-101.37
204.255	-341.69
204.473	-3336.08
204.691	800.24
204.909	253.48
205.127	233.33
205.345	220.2
205.562	254.97
205.78	237.21
205.998	458.94
206.216	595.93
206.434	439.34
206.652	239.06
206.87	301.54
207.088	211.57
207.306	322.52
207.523	260.69
207.741	290.67
207.959	447.68
208.177	592.48
208.395	697.11
208.612	735.04
208.83	13315.09
209.048	-636.02
209.266	-340.64
209.483	-149.98
209.701	-164.98
209.919	-221.89
210.136	-197.06
210.354	3522.4
210.572	-768.64
210.79	472.53
211.007	362.55
211.225	600.42
211.442	592.45
211.66	611.93
211.878	800.3
212.095	2358.78
212.313	-767.32
212.53	-968.05
212.748	-474.6
212.966	-927.64
213.183	-1386.28
213.401	-3628.08
213.618	-1590.5
213.836	-776.07
214.053	-1013.17
214.271	-2309.33
214.488	-591.53
214.705	-468.05
214.923	-308.77
215.14	-372.61
215.358	-309.01
215.575	-213.4
215.793	-101.15
216.01	-134.87
216.227	-338.61
216.445	-289.31
216.662	-96.3
216.879	-96
217.097	-159.47
217.314	-108.13
217.531	-100.37
217.749	-94.32
217.966	-123.52
218.183	-264.04
218.4	-166.2
218.618	-93.6
218.835	-75.47
219.052	-88.18
219.269	-65.9
219.487	-31.15
219.704	-40.45
219.921	-24.24
220.138	-17.56
220.355	-1.21
220.572	-1.78
220.79	-11.98
221.007	0.47
221.224	-0.63
221.441	-1.12
221.658	-4.88
221.875	-22.06
222.092	-15.46
222.309	-21.07
222.526	-6.14
222.743	5.41
222.96	9.79
223.177	15.96
223.394	12.53
223.611	12.84
223.828	11.95
224.045	13.09
224.262	13.28
224.479	5.91
224.696	3.2
224.913	-3.29
225.13	-7.36
225.347	-6.26
225.564	-9.01
225.781	-7.54
225.997	-6
226.214	-5.16
226.431	-1.88
226.648	-1.01
226.865	0.65
227.082	2.15
227.298	1.95
227.515	1.89
227.732	2.32
227.949	2.78
228.165	1.8
228.382	1.6
228.599	0.09
228.816	-1.14
229.032	-0.29
229.249	0.65
229.466	1.02
229.682	2.59
229.899	3.65
230.116	4.38
230.332	6.4
230.549	8.43
230.765	9.68
230.982	14.16
231.199	14.44
231.415	14.4
231.632	12.94
231.848	14.27
232.065	12.64
232.281	9.45
232.498	5.27
232.714	4.13
232.931	1.94
233.147	0.31
233.364	-1.69
233.58	-4.13
233.797	-4.25
234.013	-5.2
234.23	-8.03
234.446	-5.84
234.662	-5.83
234.879	-2.92
235.095	-4.93
235.312	-3.63
235.528	-2.72
235.744	-1.88
235.961	0.03
236.177	-0.71
236.393	2.46
236.61	3.74
236.826	4.67
237.042	7.23
237.258	5.39
237.475	7.55
237.691	7.36
237.907	7.29
238.123	6.43
238.339	7.49
238.556	6.28
238.772	6.37
238.988	4.72
239.204	5.4
239.42	5.43
239.636	6.23
239.853	6.15
240.069	6.6
240.285	6.5
240.501	6.53
240.717	6.8
240.933	7.1
241.149	6.87
241.365	7.44
241.581	6.55
241.797	7.15
242.013	7.49
242.229	8.2
242.445	7.4
242.661	7.4
242.877	7.78
243.093	6.95
243.309	6.96
243.525	6.73
243.741	7.46
243.957	7.78
244.173	7.53
244.388	6.58
244.604	5.86
244.82	6.52
245.036	7.01
245.252	7.18
245.468	7.47
245.683	7.4
245.899	7.53
246.115	6.98
246.331	6.86
246.547	6.99
246.762	7.59
246.978	7.98
247.194	8
247.409	7.37
247.625	6.88
247.841	6.65
248.057	6.44
248.272	5.55
248.488	4.77
248.703	4.69
248.919	4.22
249.135	4.34
249.35	3.12
249.566	2.56
249.782	3.24
249.997	2.95
250.213	3.04
250.428	3.62
250.644	3.15
250.859	3.77
251.075	3.7
251.29	3.69
251.506	3.16
251.721	3.99
251.937	3.97
252.152	3.41
252.368	3.46
252.583	3.38
252.798	3.25
253.014	5.49
253.229	5.69
253.445	5.25
253.66	3.73
253.875	4.59
254.091	3.81
254.306	3.4
254.521	3.95
254.737	3.7
254.952	3.68
255.167	3.7
255.383	3.95
255.598	4.66
255.813	4.36
256.028	5.01
256.244	3.42
256.459	3.72
256.674	4.37
256.889	4.13
257.104	3.94
257.32	4.17
257.535	4.47
257.75	4.37
257.965	4.19
258.18	4.78
258.395	4.8
258.61	5.33
258.826	5.14
259.041	5.33
259.256	5.48
259.471	5.97
259.686	5.88
259.901	5.62
260.116	5.14
260.331	5.36
260.546	5.11
260.761	5.01
260.976	4.78
261.191	4.66
261.406	4.16
261.621	4.29
261.836	3.8
262.05	3.25
262.265	3.46
262.48	3.73
262.695	3.1
262.91	2.73
263.125	2.32
263.34	2.77
263.555	3.5
263.769	3.19
263.984	3.02
264.199	3.63
264.414	3.82
264.629	4.34
264.843	4.92
265.058	5.36
265.273	4.94
265.488	5.72
265.702	5.11
265.917	4.39
266.132	4.54
266.346	4.98
266.561	4.61
266.776	4.92
266.99	4.46
267.205	4.27
267.42	3.91
267.634	4.42
267.849	4.22
268.063	4.48
268.278	4.63
268.492	4.57
268.707	4.11
268.922	4.07
269.136	3.99
269.351	4.19
269.565	4.42
269.78	4.46
269.994	4.42
270.209	4.53
270.423	4.38
270.637	4.6
270.852	4.64
271.066	4.79
271.281	4.98
271.495	5.29
271.709	5.04
271.924	4.66
272.138	4.75
272.353	4.71
272.567	4.6
272.781	4.74
272.996	4.79
273.21	4.53
273.424	3.99
273.638	4.25
273.853	3.55
274.067	3.83
274.281	3.88
274.495	4.07
274.71	4.07
274.924	3.65
275.138	3.65
275.352	3.51
275.566	3.8
275.781	3.52
275.995	2.87
276.209	3.15
276.423	2.85
276.637	3.11
276.851	3.52
277.065	3.51
277.279	3.88
277.493	4.16
277.707	4.58
277.921	3.89
278.135	4.15
278.349	4.23
278.563	4.24
278.777	4.2
278.991	4.29
279.205	3.05
279.419	2.69
279.633	2.96
279.847	2.72
280.061	2.55
280.275	3.35
280.489	3.36
280.703	3.69
280.917	4.01
281.131	3.91
281.344	3.54
281.558	4.21
281.772	4.68
281.986	4.53
282.2	4.4
282.414	4.26
282.627	4.37
282.841	4.87
283.055	4.72
283.269	4.63
283.482	5.07
283.696	4.97
283.91	4.9
284.123	4.98
284.337	4.77
284.551	4.76
284.764	4.66
284.978	4.29
285.192	3.85
285.405	3.53
285.619	2.96
285.833	2.81
286.046	3.26
286.26	3.5
286.473	3.55
286.687	3.82
286.9	3.86
287.114	4.23
287.327	4.17
287.541	4.74
287.754	5.06
287.968	5.14
288.181	5
288.395	4.97
288.608	4.67
288.822	4.78
289.035	4.56
289.248	4.73
289.462	4.41
289.675	4.79
289.889	4.54
290.102	4.82
290.315	5.24
290.529	4.88
290.742	4.45
290.955	4.73
291.169	4.43
291.382	4.47
291.595	4.46
291.808	4.56
292.022	4.37
292.235	4.36
292.448	4.4
292.661	3.95
292.875	4.54
293.088	4.86
293.301	4.6
293.514	4.43
293.727	4.67
293.94	4.78
294.153	4.99
294.367	5.11
294.58	5.31
294.793	5.24
295.006	5.46
295.219	5.29
295.432	5.41
295.645	5.6
295.858	5.55
296.071	5.42
296.284	5.08
296.497	5.01
296.71	4.72
296.923	4.72
297.136	4.36
297.349	4.31
297.562	4.16
297.775	3.62
297.988	3.74
298.201	3.62
298.414	3.65
298.626	3.87
298.839	3.68
299.052	3.47
299.265	3.06
299.478	3.77
299.691	4.18
299.903	4.54
300.116	4.52
300.329	4.01
300.542	4.68
300.755	4.75
300.967	4.85
301.18	5.19
301.393	5.97
301.605	6.15
301.818	5.57
302.031	5.55
302.243	5.34
302.456	5.74
302.669	5.74
302.881	5.06
303.094	5.5
303.307	5.33
303.519	4.94
303.732	4.64
303.944	4.29
304.157	4.36
304.37	3.93
304.582	3.92
304.795	4.12
305.007	4.22
305.22	4.58
305.432	3.89
305.645	4.15
305.857	4.44
306.069	4.47
306.282	4.96
306.494	5.14
306.707	5.2
306.919	5.48
307.132	5.22
307.344	4.71
307.556	4.67
307.769	4.72
307.981	4.6
308.193	4.42
308.406	4.39
308.618	4.1
308.83	4.06
309.043	4.07
309.255	3.99
309.467	3.97
309.679	4.3
309.892	4.33
310.104	4.11
310.316	4.13
310.528	4.2
310.74	4.46
310.953	4.42
311.165	4.45
311.377	4.39
311.589	4.13
311.801	4.14
312.013	4.14
312.225	4.06
312.437	4.32
312.649	4.24
312.862	4.38
313.074	4.2
313.286	4.6
313.498	4.48
313.71	4.24
313.922	4.83
314.134	5.05
314.346	5.48
314.558	5.47
314.77	5.86
314.982	5.69
315.193	5.64
315.405	5.36
315.617	5.39
315.829	5.51
316.041	5.64
316.253	5.2
316.465	5.14
316.677	4.88
316.888	4.84
317.1	4.04
317.312	4.32
317.524	4.53
317.736	4.63
317.947	4.95
318.159	5.13
318.371	5.25
318.583	5.47
318.794	5.22
319.006	5.38
319.218	5.09
319.43	5.29
319.641	5.27
319.853	5.03
320.064	5.04
320.276	4.5
320.488	4.28
320.699	4.73
320.911	4.68
321.123	4.71
321.334	4.57
321.546	4.57
321.757	4.59
321.969	4.27
322.18	4.32
322.392	4.34
322.603	4.11
322.815	4.26
323.026	4.37
323.238	4.61
323.449	5.32
323.661	5.27
323.872	5.51
324.083	5.87
324.295	6.47
324.506	6.45
324.718	6.34
324.929	6.71
325.14	6.38
325.352	6.2
325.563	6.05
325.774	5.63
325.986	5.88
326.197	6.33
326.408	6.03
326.62	5.78
326.831	5.87
327.042	6.2
327.253	6.26
327.464	6.63
327.676	7
327.887	7.01
328.098	6.84
328.309	6.68
328.52	6.95
328.732	7.12
328.943	7.16
329.154	6.95
329.365	6.95
329.576	7.01
329.787	6.95
329.998	6.85
330.209	6.54
330.42	6.75
330.631	6.52
330.842	5.86
331.053	6.01
331.264	5.52
331.475	5.41
331.686	5.45
331.897	4.64
332.108	4.85
332.319	4.98
332.53	5.45
332.741	5.39
332.952	5.38
333.163	5.33
333.374	5.14
333.585	5.65
333.795	6.02
334.006	5.84
334.217	6.33
334.428	6.33
334.639	6.01
334.849	5.65
335.06	5.87
335.271	6.37
335.482	6.44
335.692	6.43
335.903	6.36
336.114	6.6
336.325	6.65
336.535	7.05
336.746	6.92
336.957	6.87
337.167	7.07
337.378	6.88
337.589	6.99
337.799	7.22
338.01	7.41
338.22	7.32
338.431	7.12
338.642	6.9
338.852	6.56
339.063	6.93
339.273	7.2
339.484	7.19
339.694	7.17
339.905	6.52
340.115	6.46
340.326	6.55
340.536	6.62
340.746	6.5
340.957	6.45
341.167	6.54
341.378	6.2
341.588	5.84
341.799	5.5
342.009	5.29
342.219	5.47
342.43	5.56
342.64	5.51
342.85	5.36
343.061	5.09
343.271	5.36
343.481	5.14
343.691	5.23
343.902	5.66
344.112	5.89
344.322	5.92
344.532	5.77
344.743	5.87
344.953	5.7
345.163	5.67
345.373	5.93
345.583	5.81
345.793	5.81
346.004	6.01
346.214	5.64
346.424	5.56
346.634	5.79
346.844	6.27
347.054	6.09
347.264	5.82
347.474	5.56
347.684	5.7
347.894	6.15
348.104	6.48
348.314	6.1
348.524	5.76
348.734	6.06
348.944	5.98
349.154	5.64
349.364	5.76
349.574	6.34
349.784	6.92
349.994	6.73
350.204	6.4
350.413	6.14
350.623	6.54
350.833	6.78
351.043	6.35
351.253	6.24
351.463	6.35
351.672	6.13
351.882	5.92
352.092	5.8
352.302	6.18
352.511	5.98
352.721	6.18
352.931	5.94
353.141	6.01
353.35	5.99
353.56	5.98
353.77	6.06
353.979	6.19
354.189	6.18
354.399	6.45
354.608	5.69
354.818	5.89
355.027	5.81
355.237	5.65
355.447	5.55
355.656	5.8
355.866	5.62
356.075	5.52
356.285	5.34
356.494	5.35
356.704	4.99
356.913	5.61
357.123	5.53
357.332	5.51
357.542	5.59
357.751	5.44
357.96	5.35
358.17	5.73
358.379	5.81
358.589	5.88
358.798	5.88
359.007	5.77
359.217	5.29
359.426	5.17
359.635	5.26
359.845	5.07
360.054	5.41
360.263	5.35
360.472	5.18
360.682	5.11
360.891	4.91
361.1	4.98
361.309	5.07
361.519	5.59
361.728	5.74
361.937	5.63
362.146	5.89
362.355	5.67
362.564	5.87
362.774	5.99
362.983	6.11
363.192	6.25
363.401	6.15
363.61	6.05
363.819	5.55
364.028	5.38
364.237	5.29
364.446	5.05
364.655	5.05
364.864	5.01
365.073	4.94
365.282	4.91
365.491	5.02
365.7	4.81
365.909	5.1
366.118	5.43
366.327	5.58
366.536	5.55
366.745	5.52
366.954	5.65
367.162	5.47
367.371	5.43
367.58	5.26
367.789	5.29
367.998	5.53
368.207	5.43
368.415	5.26
368.624	5.1
368.833	5.46
369.042	5.59
369.25	5.45
369.459	5.85
369.668	5.7
369.877	5.76
370.085	5.48
370.294	5.38
370.503	5.16
370.711	5.03
370.92	5.16
371.129	5.17
371.337	5.17
371.546	5.31
371.754	5.1
371.963	5.44
372.171	5.45
372.38	5.41
372.589	5.48
372.797	5.57
373.006	5.76
373.214	5.57
373.423	5.24
373.631	5.23
373.84	4.98
374.048	4.89
374.256	4.62
374.465	4.63
374.673	4.93
374.882	4.9
375.09	4.82
375.298	4.75
375.507	4.91
375.715	4.89
375.923	4.9
376.132	4.85
376.34	4.71
376.548	4.94
376.757	4.78
376.965	4.76
377.173	4.66
377.381	4.65
377.59	4.63
377.798	4.48
378.006	4.53
378.214	4.72
378.423	4.9
378.631	5.11
378.839	4.92
379.047	5.13
379.255	4.72
379.463	4.64
379.671	4.96
379.879	5.08
380.088	5.08
380.296	5.15
380.504	4.81
380.712	4.73
380.92	4.61
381.128	4.3
381.336	4.14
381.544	4.3
381.752	4.45
381.96	4
382.168	4.14
382.376	4.33
382.584	4.38
382.791	4.59
382.999	4.69
383.207	4.72
383.415	5.03
383.623	4.96
383.831	5.11
384.039	5.02
384.247	5.37
384.454	5.12
384.662	5.01
384.87	4.71
385.078	4.73
385.285	4.63
385.493	4.62
385.701	4.7
385.909	4.76
386.116	4.66
386.324	4.86
386.532	4.59
386.739	4.57
386.947	4.67
387.155	4.86
387.362	4.74
387.57	4.69
387.778	4.54
387.985	4.37
388.193	4.33
388.4	4.28
388.608	4.11
388.816	4.12
389.023	4.17
389.231	4.14
389.438	3.98
389.646	3.93
389.853	4.28
390.061	4.21
390.268	4.26
390.475	4.35
390.683	4.38
390.89	4.28
391.098	4.3
391.305	4.33
391.512	4.24
391.72	4.61
391.927	4.76
392.135	4.53
392.342	4.57
392.549	4.57
392.756	4.42
392.964	4.55
393.171	4.63
393.378	4.65
393.586	4.58
393.793	4.54
394	4.16
394.207	4.11
394.414	4.17
394.622	4.38
394.829	4.24
395.036	4.34
395.243	4.24
395.45	4.36
395.657	4.44
395.864	4.32
396.072	4.46
396.279	4.71
396.486	4.62
396.693	4.63
396.9	4.52
397.107	4.71
397.314	4.63
397.521	4.75
397.728	4.76
397.935	4.64
398.142	4.79
398.349	4.65
398.556	4.45
398.763	4.42
398.97	4.3
399.177	4.26
399.383	4.2
399.59	4.2
399.797	4.19
400.004	4.01
400.211	4.12
400.418	4.19
400.625	4.33
400.831	4.39
401.038	4.62
401.245	4.73
401.452	4.54
401.658	4.54
401.865	4.74
402.072	4.59
402.279	4.66
402.485	4.71
402.692	4.58
402.899	4.58
403.105	4.68
403.312	4.46
403.519	4.41
403.725	4.56
403.932	4.67
404.138	4.6
404.345	4.63
404.552	4.61
404.758	4.56
404.965	4.6
405.171	4.52
405.378	4.44
405.584	4.42
405.791	4.46
405.997	4.51
406.204	4.47
406.41	4.27
406.617	4.28
406.823	4.15
407.029	4.23
407.236	4.28
407.442	4.2
407.649	4.28
407.855	4.27
408.061	4.31
408.268	4.25
408.474	4.36
408.68	4.45
408.887	4.52
409.093	4.69
409.299	4.51
409.505	4.38
409.712	4.48
409.918	4.49
410.124	4.53
410.33	4.38
410.537	4.49
410.743	4.36
410.949	4.52
411.155	4.56
411.361	4.57
411.567	4.37
411.773	4.57
411.98	4.6
412.186	4.4
412.392	4.46
412.598	4.32
412.804	4.26
413.01	4.16
413.216	4.08
413.422	4.1
413.628	4.14
413.834	4.36
414.04	4.33
414.246	4.33
414.452	4.45
414.658	4.5
414.864	4.59
415.07	4.63
415.275	4.65
415.481	4.58
415.687	4.5
415.893	4.47
416.099	4.48
416.305	4.4
416.511	4.47
416.716	4.45
416.922	4.4
417.128	4.4
417.334	4.35
417.539	4.31
417.745	4.32
417.951	4.29
418.157	4.23
418.362	4.23
418.568	4.31
418.774	4.31
418.979	4.28
419.185	4.36
419.391	4.38
419.596	4.39
419.802	4.46
420.008	4.55
420.213	4.62
420.419	4.68
420.624	4.69
420.83	4.61
421.035	4.59
421.241	4.66
421.446	4.55
421.652	4.62
421.857	4.58
422.063	4.57
422.268	4.52
422.474	4.51
422.679	4.4
422.885	4.42
423.09	4.42
423.295	4.35
423.501	4.28
423.706	4.34
423.911	4.21
424.117	4.25
424.322	4.25
424.527	4.21
424.733	4.11
424.938	4.21
425.143	4.22
425.349	4.11
425.554	4.03
425.759	4.05
425.964	3.91
426.169	4.01
426.375	3.95
426.58	3.81
426.785	3.73
426.99	3.89
427.195	3.72
427.4	3.63
427.605	3.78
427.811	3.92
428.016	3.84
428.221	3.98
428.426	3.92
428.631	4.07
428.836	4.27
429.041	4.26
429.246	4.16
429.451	4.3
429.656	4.22
429.861	4.28
430.066	4.27
430.271	4.39
430.476	4.39
430.681	4.38
430.886	4.28
431.09	4.16
431.295	4.22
431.5	4.19
431.705	4.19
431.91	4.29
432.115	4.2
432.32	4.26
432.524	4.29
432.729	4.14
432.934	4.11
433.139	4.07
433.343	4.14
433.548	4.16
433.753	4.2
433.958	4.24
434.162	4.31
434.367	4.38
434.572	4.39
434.776	4.23
434.981	4.39
435.186	4.36
435.39	4.3
435.595	4.25
435.799	4.38
436.004	4.36
436.209	4.32
436.413	4.2
436.618	4.2
436.822	4.27
437.027	4.26
437.231	4.18
437.436	4.25
437.64	4.32
437.845	4.22
438.049	4.16
438.253	4.13
438.458	4.16
438.662	4.13
438.867	4.12
439.071	4.07
439.275	4.15
439.48	4.16
439.684	4.16
439.888	4.1
440.093	4.16
440.297	4.13
440.501	4.18
440.706	4.16
440.91	4.23
441.114	4.24
441.318	4.21
441.523	4.15
441.727	4.21
441.931	4.24
442.135	4.26
442.339	4.24
442.543	4.23
442.748	4.21
442.952	4.24
443.156	4.27
443.36	4.16
443.564	4.15
443.768	4.22
443.972	4.22
444.176	4.2
444.38	4.28
444.584	4.33
444.788	4.23
444.992	4.23
445.196	4.24
445.4	4.19
445.604	4.21
445.808	4.23
446.012	4.26
446.216	4.22
446.42	4.24
446.624	4.19
446.828	4.2
447.032	4.26
447.235	4.25
447.439	4.12
447.643	4.08
447.847	4.14
448.051	4.04
448.254	3.9
448.458	3.84
448.662	3.8
448.866	3.83
449.069	3.82
449.273	3.79
449.477	3.82
449.681	3.97
449.884	3.93
450.088	3.82
450.292	3.85
450.495	3.91
450.699	4
450.902	3.92
451.106	3.86
451.31	3.77
451.513	3.76
451.717	3.77
451.92	3.64
452.124	3.69
452.327	3.79
452.531	3.8
452.734	3.83
452.938	3.9
453.141	4.01
453.345	4
453.548	4.08
453.752	4.24
453.955	4.2
454.158	4.21
454.362	4.19
454.565	4.13
454.769	4.07
454.972	3.99
455.175	3.89
455.379	3.85
455.582	3.81
455.785	3.79
455.988	3.61
456.192	3.62
456.395	3.71
456.598	3.73
456.801	3.79
457.005	3.87
457.208	3.91
457.411	3.95
457.614	3.95
457.817	3.99
458.021	4.05
458.224	4.13
458.427	4.14
458.63	4.15
458.833	4.18
459.036	4.12
459.239	4.16
459.442	4.16
459.645	4.19
459.848	4.25
460.051	4.24
460.254	4.2
460.457	4.17
460.66	4.2
460.863	4.16
461.066	4.16
461.269	4.18
461.472	4.11
461.675	4.2
461.878	4.13
462.081	4.05
462.284	4.06
462.486	4
462.689	3.98
462.892	3.96
463.095	3.83
463.298	3.92
463.5	4.01
463.703	3.98
463.906	3.86
464.109	3.85
464.311	3.8
464.514	3.85
464.717	3.8
464.92	3.88
465.122	3.89
465.325	4.01
465.528	3.92
465.73	3.84
465.933	3.86
466.135	3.93
466.338	3.89
466.541	4
466.743	4
466.946	4.06
467.148	3.97
467.351	3.92
467.553	3.86
467.756	3.93
467.958	4.01
468.161	4.09
468.363	3.95
468.566	4.05
468.768	4.03
468.971	3.91
469.173	3.93
469.375	3.97
469.578	3.94
469.78	4.08
469.983	4.05
470.185	4.06
470.387	4.02
470.59	4.13
470.792	4.04
470.994	3.98
471.196	4.1
471.399	4.03
471.601	4.08
471.803	4.14
472.005	4.17
472.208	4.21
472.41	4.19
472.612	4.26
472.814	4.22
473.016	4.26
473.218	4.36
473.421	4.34
473.623	4.39
473.825	4.31
474.027	4.31
474.229	4.24
474.431	4.13
474.633	3.99
474.835	3.93
475.037	4.04
475.239	3.98
475.441	3.93
475.643	3.91
475.845	4.01
476.047	4.12
476.249	4.16
476.451	4.13
476.653	4.24
476.855	4.42
477.057	4.38
477.258	4.38
477.46	4.37
477.662	4.35
477.864	4.33
478.066	4.27
478.268	4.26
478.469	4.23
478.671	4.21
478.873	4.2
479.075	4.06
479.276	4.16
479.478	4.07
479.68	4.08
479.882	4.1
480.083	4.15
480.285	4.22
480.487	4.18
480.688	4.15
480.89	4.17
481.091	4.16
481.293	4.2
481.495	4.16
481.696	4.2
481.898	4.21
482.099	4.23
482.301	4.26
482.502	4.23
482.704	4.23
482.905	4.22
483.107	4.23
483.308	4.22
483.51	4.22
483.711	4.22
483.913	4.22
484.114	4.22
484.315	4.2
484.517	4.16
484.718	4.11
484.92	4.13
485.121	4.16
485.322	4.13
485.524	4.14
485.725	4.16
485.926	4.14
486.127	4.14
486.329	4.16
486.53	4.16
486.731	4.14
486.932	4.19
487.134	4.17
487.335	4.17
487.536	4.21
487.737	4.21
487.938	4.21
488.139	4.29
488.341	4.28
488.542	4.3
488.743	4.32
488.944	4.37
489.145	4.38
489.346	4.41
489.547	4.44
489.748	4.44
489.949	4.43
490.15	4.44
490.351	4.42
490.552	4.4
490.753	4.37
490.954	4.37
491.155	4.35
491.356	4.36
491.557	4.37
491.758	4.31
491.959	4.27
492.159	4.27
492.36	4.2
492.561	4.17
492.762	4.2
492.963	4.23
493.164	4.24
493.364	4.19
493.565	4.13
493.766	4.07
493.967	4.06
494.167	4.11
494.368	4.1
494.569	4.13
494.769	4.1
494.97	4.06
495.171	4.15
495.371	4.11
495.572	4.13
495.773	4.15
495.973	4.15
496.174	4.27
496.375	4.25
496.575	4.25
496.776	4.25
496.976	4.25
497.177	4.31
497.377	4.25
497.578	4.26
497.778	4.3
497.979	4.32
498.179	4.36
498.38	4.32
498.58	4.33
498.78	4.41
498.981	4.44
499.181	4.49
499.382	4.56
499.582	4.53
499.782	4.53
499.983	4.55
500.183	4.58
500.383	4.65
500.584	4.6
500.784	4.55
500.984	4.56
501.184	4.63
501.385	4.61
501.585	4.58
501.785	4.55
501.985	4.58
502.185	4.6
502.386	4.64
502.586	4.61
502.786	4.65
502.986	4.71
503.186	4.69
503.386	4.6
503.586	4.7
503.786	4.68
503.987	4.66
504.187	4.7
504.387	4.72
504.587	4.67
504.787	4.68
504.987	4.65
505.187	4.64
505.387	4.7
505.587	4.81
505.786	4.74
505.986	4.83
506.186	4.92
506.386	4.88
506.586	4.81
506.786	4.84
506.986	4.82
507.186	4.96
507.386	5.02
507.585	5.07
507.785	5.06
507.985	5.16
508.185	5.06
508.384	5.12
508.584	5.15
508.784	5.26
508.984	5.24
509.183	5.25
509.383	5.17
509.583	5.22
509.782	5.16
509.982	5.14
510.182	5.12
510.381	5.24
510.581	5.23
510.781	5.23
510.98	5.23
511.18	5.24
511.379	5.34
511.579	5.42
511.778	5.34
511.978	5.31
512.177	5.33
512.377	5.3
512.576	5.31
512.776	5.32
512.975	5.34
513.175	5.37
513.374	5.47
513.573	5.47
513.773	5.37
513.972	5.5
514.172	5.51
514.371	5.52
514.57	5.61
514.77	5.52
514.969	5.51
515.168	5.58
515.367	5.54
515.567	5.56
515.766	5.55
515.965	5.69
516.164	5.75
516.364	5.76
516.563	5.86
516.762	5.88
516.961	5.95
517.16	6.01
517.359	6.06
517.559	6.07
517.758	6.1
517.957	6.11
518.156	6.1
518.355	6.04
518.554	6.11
518.753	6.08
518.952	6.05
519.151	6.03
519.35	6.01
519.549	6
519.748	6.08
519.947	6.04
520.146	6.02
520.345	6.02
520.544	6.05
520.743	6.05
520.942	6.12
521.141	6.19
521.339	6.24
521.538	6.17
521.737	6.17
521.936	6.14
522.135	6.19
522.333	6.16
522.532	6.24
522.731	6.31
522.93	6.37
523.129	6.38
523.327	6.41
523.526	6.52
523.725	6.68
523.923	6.68
524.122	6.7
524.321	6.68
524.519	6.71
524.718	6.72
524.917	6.69
525.115	6.71
525.314	6.74
525.512	6.73
525.711	6.67
525.909	6.67
526.108	6.77
526.306	6.81
526.505	6.86
526.703	6.9
526.902	6.93
527.1	6.98
527.299	6.94
527.497	6.94
527.696	6.97
527.894	6.96
528.092	6.97
528.291	6.94
528.489	6.91
528.688	6.93
528.886	6.96
529.084	6.94
529.283	6.92
529.481	6.96
529.679	6.98
529.877	6.99
530.076	7.05
530.274	7.07
530.472	7.06
530.67	7.15
530.869	7.18
531.067	7.16
531.265	7.22
531.463	7.25
531.661	7.28
531.859	7.26
532.057	7.31
532.255	7.34
532.454	7.34
532.652	7.36
532.85	7.35
533.048	7.33
533.246	7.36
533.444	7.36
533.642	7.36
533.84	7.4
534.038	7.47
534.236	7.48
534.434	7.53
534.632	7.61
534.83	7.66
535.027	7.68
535.225	7.76
535.423	7.84
535.621	7.88
535.819	7.88
536.017	7.9
536.215	7.91
536.412	7.9
536.61	7.87
536.808	7.85
537.006	7.83
537.203	7.83
537.401	7.81
537.599	7.77
537.797	7.77
537.994	7.82
538.192	7.87
538.39	7.9
538.587	7.92
538.785	8.02
538.983	8.13
539.18	8.23
539.378	8.3
539.575	8.37
539.773	8.46
539.97	8.51
540.168	8.53
540.366	8.53
540.563	8.52
540.761	8.55
540.958	8.59
541.155	8.54
541.353	8.55
541.55	8.57
541.748	8.61
541.945	8.58
542.143	8.52
542.34	8.53
542.537	8.55
542.735	8.68
542.932	8.7
543.129	8.69
543.327	8.82
543.524	8.84
543.721	8.89
543.919	8.85
544.116	8.87
544.313	8.97
544.51	9.06
544.708	9.08
544.905	9.06
545.102	9.14
545.299	9.15
545.496	9.12
545.693	9.13
545.891	9.1
546.088	9.09
546.285	9.07
546.482	9.11
546.679	9.1
546.876	9.03
547.073	9.07
547.27	9.09
547.467	9.14
547.664	9.08
547.861	9.12
548.058	9.13
548.255	9.24
548.452	9.4
548.649	9.45
548.846	9.53
549.043	9.72
549.24	9.78
549.437	9.86
549.633	10.01
549.83	10.14
550.027	10.23
550.224	10.36
550.421	10.44
550.618	10.4
550.814	10.5
551.011	10.55
551.208	10.57
551.405	10.61
551.601	10.53
551.798	10.4
551.995	10.42
552.191	10.47
552.388	10.44
552.585	10.34
552.781	10.35
552.978	10.33
553.175	10.31
553.371	10.33
553.568	10.36
553.764	10.47
553.961	10.57
554.157	10.54
554.354	10.6
554.55	10.73
554.747	10.88
554.943	10.96
555.14	11.01
555.336	11.07
555.533	11.06
555.729	10.97
555.926	10.83
556.122	10.86
556.318	11.03
556.515	10.97
556.711	11.02
556.907	11.06
557.104	11.01
557.3	10.98
557.496	10.95
557.693	11.11
557.889	11.26
558.085	11.48
558.281	11.53
558.478	11.57
558.674	11.69
558.87	11.77
559.066	11.77
559.262	11.97
559.459	12.06
559.655	12.21
559.851	12.23
560.047	12.26
560.243	12.23
560.439	12.28
560.635	12.34
560.831	12.23
561.027	12.11
561.223	12.19
561.419	12.23
561.615	12.3
561.811	12.3
562.007	12.28
562.203	12.28
562.399	12.44
562.595	12.39
562.791	12.42
562.987	12.52
563.183	12.58
563.379	12.66
563.575	12.58
563.771	12.62
563.966	12.74
564.162	12.94
564.358	12.96
564.554	13.06
564.75	13.23
564.945	13.29
565.141	13.41
565.337	13.55
565.533	13.62
565.728	13.7
565.924	13.7
566.12	13.77
566.315	13.73
566.511	13.9
566.707	13.84
566.902	13.81
567.098	13.83
567.293	13.8
567.489	13.82
567.684	13.88
567.88	13.93
568.076	14.01
568.271	14.06
568.467	14.12
568.662	14.18
568.858	14.29
569.053	14.3
569.248	14.35
569.444	14.45
569.639	14.52
569.835	14.45
570.03	14.57
570.225	14.66
570.421	14.68
570.616	14.7
570.812	14.68
571.007	14.69
571.202	14.82
571.397	14.87
571.593	14.9
571.788	14.96
571.983	15.02
572.178	15.07
572.374	15.09
572.569	15.11
572.764	15.15
572.959	15.22
573.154	15.23
573.35	15.29
573.545	15.34
573.74	15.34
573.935	15.45
574.13	15.55
574.325	15.43
574.52	15.47
574.715	15.51
574.91	15.62
575.105	15.64
575.3	15.72
575.495	15.58
575.69	15.59
575.885	15.64
576.08	15.65
576.275	15.59
576.47	15.72
576.665	15.68
576.86	15.69
577.055	15.62
577.25	15.65
577.444	15.71
577.639	15.85
577.834	15.75
578.029	15.69
578.224	15.64
578.418	15.66
578.613	15.64
578.808	15.73
579.003	15.74
579.197	15.81
579.392	15.82
579.587	15.93
579.781	15.94
579.976	16.17
580.171	16.42
580.365	16.47
580.56	16.59
580.755	16.64
580.949	16.68
581.144	16.67
581.338	16.64
581.533	16.69
581.727	16.61
581.922	16.69
582.116	16.54
582.311	16.53
582.505	16.52
582.7	16.56
582.894	16.66
583.089	16.62
583.283	16.69
583.478	16.77
583.672	16.78
583.866	16.87
584.061	16.89
584.255	17.08
584.449	17.11
584.644	17.01
584.838	17.05
585.032	17.09
585.226	17.16
585.421	17.16
585.615	17.29
585.809	17.34
586.003	17.36
586.198	17.47
586.392	17.32
586.586	17.33
586.78	17.47
586.974	17.4
587.168	17.34
587.363	17.38
587.557	17.49
587.751	17.49
587.945	17.53
588.139	17.46
588.333	17.46
588.527	17.67
588.721	17.78
588.915	17.94
589.109	17.97
589.303	18.19
589.497	18.19
589.691	18.08
589.885	18.18
590.079	18.12
590.273	18.22
590.466	18.19
590.66	18.08
590.854	17.93
591.048	17.82
591.242	18
591.436	17.88
591.629	17.79
591.823	18.01
592.017	17.95
592.211	18.07
592.404	18.18
592.598	18.26
592.792	18.32
592.986	18.4
593.179	18.55
593.373	18.57
593.567	18.55
593.76	18.79
593.954	18.77
594.147	18.84
594.341	18.87
594.535	18.84
594.728	18.91
594.922	18.87
595.115	18.92
595.309	18.82
595.502	18.74
595.696	18.79
595.889	18.84
596.083	18.8
596.276	18.76
596.47	18.69
596.663	18.73
596.856	18.7
597.05	18.72
597.243	18.66
597.437	18.68
597.63	18.74
597.823	18.71
598.017	18.57
598.21	18.46
598.403	18.52
598.596	18.57
598.79	18.5
598.983	18.53
599.176	18.55
599.369	18.47
599.563	18.57
599.756	18.66
599.949	18.67
600.142	18.72
600.335	18.92
600.528	18.79
600.722	18.75
600.915	18.82
601.108	18.83
601.301	18.92
601.494	19.14
601.687	19.1
601.88	19.09
602.073	19.21
602.266	19.24
602.459	19.23
602.652	19.43
602.845	19.5
603.038	19.47
603.231	19.57
603.424	19.51
603.617	19.4
603.809	19.39
604.002	19.37
604.195	19.43
604.388	19.42
604.581	19.43
604.774	19.34
604.966	19.34
605.159	19.38
605.352	19.38
605.545	19.41
605.737	19.48
605.93	19.53
606.123	19.65
606.316	19.56
606.508	19.64
606.701	19.77
606.894	19.65
607.086	19.64
607.279	19.55
607.471	19.38
607.664	19.34
607.857	19.46
608.049	19.39
608.242	19.26
608.434	19.29
608.627	19.3
608.819	19.2
609.012	19.27
609.204	19.22
609.397	19.28
609.589	19.42
609.782	19.51
609.974	19.56
610.166	19.57
610.359	19.5
610.551	19.5
610.743	19.41
610.936	19.52
611.128	19.52
611.32	19.77
611.513	19.89
611.705	19.9
611.897	20.06
612.09	19.96
612.282	20.04
612.474	20.25
612.666	20.08
612.858	20.15
613.051	20.14
613.243	20.3
613.435	20.05
613.627	20.16
613.819	20.09
614.011	20.17
614.203	20.03
614.395	20.12
614.588	20.06
614.78	20.26
614.972	20.32
615.164	20.25
615.356	20.16
615.548	20.3
615.74	20.04
615.932	19.96
616.124	19.98
616.315	20.15
616.507	19.92
616.699	20.05
616.891	19.99
617.083	20.01
617.275	20
617.467	20
617.659	20.09
617.85	20.31
618.042	20.17
618.234	20.1
618.426	20.07
618.618	20.13
618.809	20.05
619.001	20.08
619.193	20.04
619.384	20.24
619.576	20.24
619.768	20.05
619.959	19.99
620.151	20.27
620.343	20.1
620.534	20.07
620.726	20.42
620.917	20.39
621.109	20.43
621.301	20.48
621.492	20.38
621.684	20.56
621.875	20.68
622.067	20.7
622.258	20.65
622.45	20.74
622.641	20.7
622.832	20.56
623.024	20.7
623.215	20.63
623.407	20.8
623.598	20.85
623.789	20.87
623.981	20.98
624.172	20.96
624.363	21.03
624.555	21.06
624.746	21.3
624.937	21.28
625.129	21.21
625.32	21.26
625.511	21.02
625.702	20.99
625.893	20.93
626.085	20.76
626.276	20.84
626.467	20.79
626.658	20.97
626.849	20.74
627.04	20.77
627.231	20.8
627.422	20.84
627.614	20.9
627.805	20.95
627.996	21.06
628.187	21.1
628.378	20.95
628.569	20.96
628.76	20.8
628.951	20.87
629.142	20.7
629.332	20.62
629.523	20.82
629.714	20.91
629.905	20.79
630.096	20.73
630.287	20.74
630.478	20.84
630.669	21
630.859	20.99
631.05	21.07
631.241	21.35
631.432	21.42
631.623	21.03
631.813	21.07
632.004	21.08
632.195	21
632.385	21.08
632.576	21.1
632.767	21.06
632.957	21.06
633.148	21.08
633.339	20.99
633.529	21.02
633.72	21.33
633.91	21.34
634.101	21.38
634.292	21.44
634.482	21.39
634.673	21.36
634.863	21.21
635.054	21.21
635.244	21.32
635.435	21.3
635.625	21.41
635.815	21.29
636.006	21.09
636.196	21.08
636.387	21.29
636.577	21.43
636.767	21.41
636.958	21.6
637.148	21.56
637.338	21.45
637.529	21.3
637.719	21.26
637.909	21.51
638.099	21.71
638.29	21.63
638.48	21.33
638.67	21.19
638.86	21.22
639.05	21.17
639.241	21.22
639.431	21.23
639.621	21.37
639.811	21.31
640.001	21.04
640.191	21.04
640.381	21.2
640.571	21.38
640.761	21.35
640.951	21.34
641.141	21.28
641.331	21.25
641.521	21.21
641.711	21.06
641.901	20.91
642.091	21.02
642.281	21.09
642.471	20.94
642.661	20.89
642.851	20.89
643.041	20.87
643.231	21
643.42	21.21
643.61	21.26
643.8	21.33
643.99	21.6
644.18	21.51
644.369	21.46
644.559	21.66
644.749	21.59
644.939	21.67
645.128	21.71
645.318	21.67
645.508	21.54
645.697	21.35
645.887	21.56
646.076	21.44
646.266	21.49
646.456	21.47
646.645	21.51
646.835	21.59
647.024	21.54
647.214	21.7
647.403	21.72
647.593	21.51
647.782	21.71
647.972	21.65
648.161	21.68
648.351	21.61
648.54	21.6
648.73	21.6
648.919	21.57
649.108	21.63
649.298	21.71
649.487	21.85
649.677	22
649.866	22.16
650.055	22.33
650.244	22.31
650.434	22.43
650.623	22.45
650.812	22.29
651.002	22.34
651.191	22.4
651.38	22.13
651.569	22.19
651.758	22.26
651.947	22.03
652.137	21.89
652.326	22.01
652.515	21.98
652.704	22.04
652.893	22.1
653.082	22.16
653.271	22.03
653.46	22.13
653.649	21.9
653.838	21.96
654.027	22.15
654.216	22.05
654.405	21.99
654.594	22.1
654.783	22.04
654.972	22.14
655.161	22.21
655.35	22.35
655.539	22.45
655.728	22.63
655.916	22.56
656.105	22.4
656.294	22.48
656.483	22.41
656.672	22.36
656.86	22.4
657.049	22.44
657.238	22.33
657.427	22.44
657.615	22.32
657.804	22.33
657.993	22.36
658.181	22.42
658.37	22.58
658.559	22.6
658.747	22.5
658.936	22.41
659.125	21.98
659.313	21.88
659.502	21.8
659.69	21.68
659.879	21.53
660.067	21.49
660.256	21.51
660.444	21.3
660.633	21.35
660.821	21.58
661.01	21.62
661.198	22.07
661.387	22.07
661.575	22
661.763	22
661.952	22.01
662.14	22.09
662.328	22.25
662.517	22.24
662.705	22.18
662.893	21.91
663.082	22.19
663.27	22.31
663.458	22.42
663.646	22.36
663.834	22.84
664.023	23.05
664.211	22.89
664.399	22.54
664.587	22.68
664.775	22.91
664.963	23.13
665.152	22.63
665.34	22.78
665.528	22.86
665.716	23.1
665.904	22.67
666.092	22.74
666.28	22.75
666.468	22.86
666.656	22.76
666.844	22.51
667.032	22.47
667.22	22.72
667.408	22.52
667.596	22.35
667.784	22.1
667.971	22.26
668.159	22.16
668.347	22.17
668.535	22.21
668.723	22.07
668.911	22.28
669.098	22.32
669.286	22.39
669.474	22.27
669.662	22.45
669.849	22.61
670.037	22.49
670.225	22.15
670.413	22.38
670.6	22.37
670.788	22.79
670.976	22.43
671.163	22.38
671.351	22.04
671.538	22.11
671.726	22.32
671.913	22.38
672.101	22.53
672.289	22.79
672.476	22.73
672.664	23.08
672.851	22.81
673.039	22.84
673.226	22.75
673.413	22.87
673.601	22.68
673.788	22.67
673.976	22.66
674.163	22.6
674.35	22.79
674.538	22.86
674.725	22.45
674.912	22.61
675.1	22.87
675.287	22.93
675.474	23.13
675.662	23.21
675.849	22.84
676.036	22.61
676.223	23.11
676.411	22.88
676.598	22.66
676.785	22.74
676.972	22.81
677.159	22.85
677.346	22.91
677.533	23.04
677.721	23.07
677.908	23.36
678.095	23.6
678.282	23.32
678.469	23.46
678.656	23.61
678.843	23.54
679.03	23.37
679.217	23.1
679.404	23.03
679.591	22.79
679.778	23
679.964	22.99
680.151	22.99
680.338	22.81
680.525	22.72
680.712	22.55
680.899	22.75
681.086	22.67
681.272	22.98
681.459	23.07
681.646	23.25
681.833	23.06
682.02	22.89
682.206	22.79
682.393	22.71
682.58	22.95
682.766	22.76
682.953	22.67
683.14	22.79
683.326	22.85
683.513	22.85
683.7	22.7
683.886	22.9
684.073	23.1
684.259	22.96
684.446	22.97
684.632	22.78
684.819	23.09
685.005	23.22
685.192	23.31
685.378	23
685.565	22.93
685.751	22.99
685.938	23.01
686.124	22.86
686.31	22.97
686.497	23.3
686.683	23.38
686.87	23.2
687.056	23.08
687.242	22.89
687.429	23.1
687.615	22.91
687.801	23.06
687.987	23.04
688.174	23.02
688.36	22.97
688.546	22.86
688.732	22.87
688.918	22.99
689.105	22.94
689.291	22.97
689.477	22.91
689.663	23.35
689.849	23.47
690.035	23.51
690.221	23.57
690.407	23.82
690.593	23.57
690.779	23.43
690.965	23.52
691.151	23.63
691.337	23.68
691.523	23.64
691.709	23.54
691.895	23.21
692.081	22.88
692.267	22.73
692.453	22.51
692.639	22.64
692.825	22.74
693.011	22.92
693.196	22.93
693.382	22.88
693.568	23.03
693.754	22.68
693.94	22.79
694.125	22.84
694.311	22.83
694.497	23.15
694.682	23.23
694.868	23.39
695.054	23.26
695.239	22.89
695.425	23.17
695.611	23.09
695.796	23.51
695.982	23.55
696.168	23.71
696.353	23.86
696.539	23.68
696.724	23.77
696.91	23.48
697.095	23.43
697.281	23.8
697.466	23.69
697.652	23.62
697.837	23.54
698.023	23.41
698.208	23.44
698.393	23.29
698.579	23.41
698.764	23.32
698.949	23.36
699.135	23.36
699.32	23.26
699.505	23.19
699.691	23.17
699.876	23.17
700.061	23.29
700.246	23.25
700.432	23.36
700.617	22.98
700.802	23.07
700.987	23.11
701.172	22.86
701.358	22.75
701.543	22.9
701.728	23.27
701.913	23.38
702.098	23.13
702.283	23.08
702.468	23.4
702.653	23.64
702.838	23.58
703.023	23.91
703.208	24.22
703.393	24.42
703.578	24.6
703.763	24.16
703.948	24.04
704.133	24.26
704.318	24.05
704.503	23.68
704.688	23.67
704.873	23.45
705.057	23.08
705.242	23.2
705.427	23.09
705.612	23.15
705.797	23.27
705.981	23.35
706.166	23.6
706.351	23.86
706.536	24
706.72	24.02
706.905	24.33
707.09	24.31
707.274	24.37
707.459	24.2
707.644	23.51
707.828	23.94
708.013	23.42
708.197	23.14
708.382	22.95
708.567	22.9
708.751	22.88
708.936	22.84
709.12	22.76
709.305	22.55
709.489	22.86
709.673	23.31
709.858	22.97
710.042	23.09
710.227	23.14
710.411	23.61
710.596	23.62
710.78	23.45
710.964	23.58
711.149	23.55
711.333	23.75
711.517	23.5
711.702	23.38
711.886	23.42
712.07	23.77
712.254	23.71
712.438	23.72
712.623	23.88
712.807	24.33
712.991	24.14
713.175	24.51
713.359	24.72
713.544	24.72
713.728	24.83
713.912	24.7
714.096	24.61
714.28	24.66
714.464	24.41
714.648	24.16
714.832	24.03
715.016	23.91
715.2	23.62
715.384	23.49
715.568	23.25
715.752	23.15
715.936	23.32
716.12	23.2
716.304	23.41
716.488	23.3
716.671	23.41
716.855	23.27
717.039	23.69
717.223	23.92
717.407	23.67
717.59	23.97
717.774	23.93
717.958	23.77
718.142	23.76
718.325	24
718.509	24.16
718.693	24.06
718.877	23.8
719.06	23.52
719.244	22.81
719.428	22.79
719.611	22.65
719.795	22.88
719.978	23.34
720.162	23.14
720.345	23.03
720.529	23.18
720.713	23.28
720.896	23.23
721.08	23.28
721.263	23.98
721.446	23.54
721.63	24.05
721.813	23.97
721.997	23.58
722.18	23.9
722.364	23.6
722.547	23.4
722.73	23.57
722.914	23.47
723.097	23.09
723.28	23.2
723.464	23.59
723.647	23.87
723.83	23.51
724.013	23.37
724.197	23.59
724.38	23.39
724.563	23.16
724.746	22.98
724.929	23.23
725.112	23.19
725.296	22.84
725.479	22.78
725.662	22.27
725.845	22.4
726.028	22.71
726.211	22.41
726.394	22.79
726.577	23.18
726.76	23.29
726.943	23.32
727.126	23.73
727.309	23.86
727.492	24.09
727.675	24.16
727.858	24.36
728.041	23.97
728.224	23.95
728.407	23.77
728.589	24.25
728.772	24.5
728.955	24.74
729.138	24.94
729.321	24.66
729.503	24.62
729.686	24.67
729.869	24.69
730.052	24.64
730.234	24.66
730.417	24.88
730.6	24.44
730.782	24.2
730.965	24.15
731.148	23.63
731.33	24.19
731.513	24.4
731.695	24.38
731.878	24.37
732.061	24.5
732.243	24.54
732.426	24.23
732.608	23.97
732.791	24.16
732.973	24.3
733.156	24.71
733.338	24.39
733.52	24.68
733.703	24.59
733.885	24.2
734.068	24.35
734.25	24.33
734.432	24.06
734.615	24.2
734.797	24.08
734.979	23.95
735.162	23.68
735.344	23.66
735.526	23.75
735.708	23.74
735.891	24.05
736.073	24.45
736.255	24.16
736.437	24.51
736.619	24.57
736.802	24.22
736.984	24.31
737.166	24.65
737.348	24.5
737.53	23.99
737.712	23.56
737.894	23.57
738.076	22.56
738.258	23.12
738.44	22.83
738.622	23.21
738.804	23.41
738.986	22.95
739.168	22.77
739.35	22.74
739.532	22.45
739.714	22.45
739.896	22.55
740.078	23.02
740.259	22.68
740.441	23.18
740.623	22.81
740.805	22.88
740.987	23.39
741.168	23.41
741.35	23.89
741.532	24.4
741.714	24.39
741.895	24.51
742.077	24.66
742.259	25.26
742.44	25.33
742.622	25.28
742.804	25.28
742.985	24.54
743.167	24.09
743.348	24.47
743.53	23.23
743.711	23.03
743.893	22.59
744.075	22.24
744.256	21.3
744.438	21.13
744.619	21.01
744.8	21.11
744.982	21.34
745.163	21.83
745.345	20.68
745.526	20.93
745.707	21.44
745.889	22.11
746.07	22.18
746.252	23.1
746.433	23.69
746.614	23.74
746.795	23.52
746.977	23.54
747.158	23.15
747.339	23.7
747.52	24.63
747.702	24.53
747.883	24.56
748.064	24.96
748.245	24.32
748.426	24.33
748.607	24.46
748.788	24.39
748.97	24.7
749.151	24.97
749.332	24.66
749.513	24.34
749.694	24.49
749.875	23.96
750.056	24.07
750.237	23.79
750.418	22.79
750.599	22.36
750.78	22.64
750.96	23.34
751.141	23.2
751.322	23.53
751.503	23.46
751.684	23.44
751.865	23.52
752.046	23.09
752.226	23.54
752.407	23.08
752.588	23.27
752.769	23.29
752.949	22.28
753.13	22.13
753.311	21.85
753.492	22.36
753.672	22.24
753.853	22.53
754.034	22.8
754.214	22.8
754.395	23.48
754.575	23.34
754.756	23.05
754.937	23.61
755.117	23.91
755.298	24.29
755.478	22.87
755.659	22.84
755.839	22.43
756.02	22.45
756.2	22.74
756.381	23.02
756.561	22.72
756.741	22.59
756.922	22.43
757.102	22.33
757.283	21.87
757.463	22.51
757.643	22.89
757.823	23.01
758.004	23.18
758.184	23.14
758.364	22.78
758.545	22.65
758.725	23.03
758.905	23.69
759.085	23.99
759.265	24.51
759.446	24.87
759.626	24.66
759.806	24.07
759.986	23.94
760.166	23.27
760.346	23.56
760.526	24.08
760.706	24.52
760.886	23.87
761.066	23.49
761.246	23.26
761.426	23
761.606	23.28
761.786	23.58
761.966	23.4
762.146	23.77
762.326	23.87
762.506	23.81
762.686	23.25
762.866	23.56
763.046	23.96
763.225	23.95
763.405	24.26
763.585	24.08
763.765	24.53
763.945	24.63
764.124	24.65
764.304	24.44
764.484	24.91
764.664	24.97
764.843	24.79
765.023	24.66
765.203	24.81
765.382	24.69
765.562	24.92
765.741	24.2
765.921	24.31
766.101	24.14
766.28	24.49
766.46	24.33
766.639	24.59
766.819	24.08
766.998	24.06
767.178	24.02
767.357	24.4
767.537	24.41
767.716	24.4
767.896	24.19
768.075	24.08
768.254	23.4
768.434	23.19
768.613	23.09
768.792	23.8
768.972	23.48
769.151	23.14
769.33	22.48
769.51	22.22
769.689	22.59
769.868	22.98
770.047	22.69
770.226	22.62
770.406	21.89
770.585	21.48
770.764	20.77
770.943	20.5
771.122	20.89
771.301	21.1
771.48	20.31
771.66	20.9
771.839	20.42
772.018	20.8
772.197	21.21
772.376	22.05
772.555	22.48
772.734	22.74
772.913	23.06
773.092	23.16
773.271	22.89
773.449	24.39
773.628	24.28
773.807	23.85
773.986	24.16
774.165	24.24
774.344	24.07
774.523	24.42
774.701	24.32
774.88	25
775.059	25.03
775.238	24.98
775.417	24.29
775.595	24.75
775.774	25.56
775.953	25.43
776.131	25.2
776.31	24.56
776.489	24.58
776.667	24.98
776.846	24.16
777.025	23.48
777.203	23.47
777.382	23.03
777.56	22.54
777.739	22.58
777.917	22.17
778.096	22.52
778.274	22.84
778.453	21.6
778.631	20.7
778.81	20.6
778.988	20.67
779.166	21.3
779.345	21.63
779.523	20.83
779.702	20.48
779.88	21.62
780.058	20.6
780.237	20.3
780.415	21.81
780.593	21.92
780.771	23.07
780.95	24.22
781.128	24.58
781.306	25.21
781.484	25.22
781.662	25.02
781.841	23.97
782.019	24.83
782.197	24.89
782.375	23.83
782.553	24.52
782.731	24.26
782.909	24.49
783.087	23.74
783.265	23.05
783.443	23.86
783.621	24.82
783.799	25.13
783.977	24.52
784.155	24.84
784.333	25.66
784.511	26.02
784.689	25.1
784.867	23.27
785.045	23.03
785.223	23.22
785.4	22.94
785.578	21.79
785.756	22.43
785.934	22.26
786.112	21.03
786.289	19.33
786.467	19.12
786.645	19.6
786.823	20.35
787	19.95
787.178	19.76
787.356	19.73
787.533	19.73
787.711	19.46
787.889	19.77
788.066	20.78
788.244	21.92
788.421	21.75
788.599	22.1
788.776	22.66
788.954	22.21
789.131	23.05
789.309	22.81
789.486	24.11
789.664	23.8
789.841	24.43
790.019	24.28
790.196	24
790.373	23.68
790.551	23.57
790.728	23.36
790.906	24.49
791.083	25.12
791.26	25.33
791.437	23.99
791.615	24.02
791.792	24.03
791.969	24.38
792.146	23.88
792.324	25.42
792.501	25.29
792.678	24.63
792.855	24.71
793.032	23.69
793.209	23.6
793.387	22.84
793.564	23.26
793.741	22.96
793.918	23.56
794.095	24.09
794.272	22.63
794.449	22.41
794.626	22.46
794.803	22.06
794.98	21
795.157	21.34
795.334	22.52
795.511	21.91
795.688	22.46
795.864	21.69
796.041	21.69
796.218	21.13
796.395	20.75
796.572	20.33
796.749	20.2
796.925	20.26
797.102	20.19
797.279	20.03
797.456	20.84
797.632	21
797.809	20.75
797.986	20.06
798.162	20.86
798.339	20.59
798.516	21.12
798.692	21.48
798.869	21.66
799.046	22.52
799.222	22.97
799.399	21.64
799.575	20.97
799.752	21.58
799.928	22.81
800.105	22.7
800.281	22.5
800.458	22.47
800.634	21.34
800.811	21.64
800.987	20.42
801.163	19.59
801.34	20.47
801.516	20.52
801.692	20.99
801.869	20.21
802.045	21.76
802.221	22.86
802.398	22.07
802.574	23.22
802.75	22.88
802.926	22.71
803.103	21.46
803.279	21.65
803.455	21.84
803.631	20.87
803.807	21.74
803.983	20.54
804.16	20.32
804.336	21.07
804.512	20.49
804.688	21.06
804.864	20.91
805.04	22.91
805.216	22.88
805.392	22.46
805.568	22.04
805.744	21.83
805.92	21.06
806.096	21.07
806.272	21.51
806.448	22.43
806.623	22.41
806.799	22.74
806.975	22.03
807.151	21.93
807.327	20.38
807.503	21.48
807.678	21.95
807.854	21.78
808.03	21.68
808.206	22.21
808.381	21.43
808.557	20.89
808.733	21
808.908	21.97
809.084	22.07
809.26	24.12
809.435	23.83
809.611	22.69
809.787	23.86
809.962	23.77
810.138	22.79
810.313	23.39
810.489	24.13
810.664	24.11
810.84	22.76
811.015	22.32
811.191	21.47
811.366	20.33
811.542	20.51
811.717	19.29
811.892	18.9
812.068	19.39
812.243	18.07
812.419	17.93
812.594	18.04
812.769	18.02
812.944	17.48
813.12	18.43
813.295	19.62
813.47	20.42
813.645	20.45
813.821	20.14
813.996	20.2
814.171	21.53
814.346	21.89
814.521	22.29
814.697	22.95
814.872	23.98
815.047	22.3
815.222	21.11
815.397	20.45
815.572	21.04
815.747	21.85
815.922	22.25
816.097	22.57
816.272	21.7
816.447	22.08
816.622	21.85
816.797	22.2
816.972	22.95
817.147	24.5
817.322	24.11
817.496	23.62
817.671	23.72
817.846	23.1
818.021	23.94
818.196	24.38
818.371	23.2
818.545	23.79
818.72	22.81
818.895	22.33
819.069	20.96
819.244	21.47
819.419	21.61
819.594	21.67
819.768	22.21
819.943	21.41
820.117	21.17
820.292	21.76
820.467	21.81
820.641	23.07
820.816	23.51
820.99	23.8
821.165	23.71
821.339	24.07
821.514	24.03
821.688	24
821.863	24.11
822.037	24.36
822.212	24.22
822.386	24.17
822.56	23.57
822.735	23.81
822.909	23.79
823.084	24.03
823.258	23.78
823.432	23.82
823.606	23.51
823.781	23.2
823.955	22.96
824.129	23.15
824.303	23.15
824.478	23.29
824.652	23.1
824.826	23.09
825	22.86
825.174	22.84
825.348	22.82
825.523	23.18
825.697	23.21
825.871	23.4
826.045	23.37
826.219	22.89
826.393	22.97
826.567	22.66
826.741	22.78
826.915	22.8
827.089	22.82
827.263	22.76
827.437	23.16
827.611	23.13
827.784	23.2
827.958	23.42
828.132	23.68
828.306	24.09
828.48	24.11
828.654	24.16
828.827	24.44
829.001	25.09
829.175	24.94
829.349	23.76
829.522	24.34
829.696	23.69
829.87	22.72
830.044	23.08
830.217	22.7
830.391	23.04
830.565	23.17
830.738	23.22
830.912	23.04
831.085	22.64
831.259	22.96
831.432	22.3
831.606	23.07
831.779	22.32
831.953	21.28
832.126	20.85
832.3	20.22
832.473	20.04
832.647	18.95
832.82	18.77
832.994	19.8
833.167	20.05
833.34	21.45
833.514	21.04
833.687	21.48
833.86	21.49
834.034	22.26
834.207	22.47
834.38	22.34
834.553	22.41
834.727	22.79
834.9	22.84
835.073	22.2
835.246	20.18
835.419	20.57
835.593	21.62
835.766	22.32
835.939	20.81
836.112	20.59
836.285	20.88
836.458	22.22
836.631	22
836.804	21.89
836.977	22.76
837.15	22.48
837.323	21.09
837.496	18.57
837.669	16.69
837.842	18.39
838.015	19.04
838.188	17.49
838.361	16.78
838.533	17.25
838.706	15.63
838.879	15.94
839.052	18.81
839.225	19.39
839.398	23.41
839.57	27.52
839.743	26.05
839.916	25.56
840.088	27.13
840.261	26.06
840.434	24.41
840.607	26
840.779	28.16
840.952	27.72
841.124	27.72
841.297	26.27
841.47	24.46
841.642	25.14
841.815	24.13
841.987	23.92
842.16	22.51
842.332	23.77
842.505	23.25
842.677	20.28
842.85	19.36
843.022	19.82
843.194	19.7
843.367	18.49
843.539	15.75
843.712	15.19
843.884	15.89
844.056	16.65
844.229	15.87
844.401	16.44
844.573	13.17
844.745	13.84
844.918	16.03
845.09	13.36
845.262	12
845.434	14.72
845.606	18.95
845.779	17.6
845.951	19.51
846.123	17.71
846.295	14.92
846.467	16.73
846.639	15.69
846.811	15.77
846.983	15.67
847.155	19.68
847.327	20.61
847.499	21.6
847.671	22.33
847.843	21.73
848.015	22.22
848.187	23.59
848.359	22.06
848.531	23.08
848.703	20.27
848.875	21.55
849.047	21.47
849.218	21.76
849.39	17.86
849.562	18.5
849.734	17.67
849.905	15.7
850.077	15.5
850.249	20.07
850.421	17.63
850.592	15.04
850.764	16.22
850.936	12.65
851.107	6.94
851.279	7.42
851.451	5.43
851.622	1.3
851.794	3.69
851.965	6.17
852.137	3.75
852.308	6.63
852.48	10.34
852.651	11.48
852.823	14.11
852.994	17.71
853.166	19.01
853.337	23.43
853.509	25.98
853.68	26.48
853.851	24.27
854.023	22.52
854.194	19.86
854.365	19.94
854.537	16.28
854.708	16.61
854.879	17.92
855.05	18.12
855.222	13.47
855.393	12.36
855.564	13.93
855.735	15.06
855.906	17.89
856.078	20.09
856.249	21.81
856.42	22.42
856.591	19.66
856.762	19.39
856.933	16.68
857.104	16.65
857.275	15.76
857.446	11.31
857.617	9.18
857.788	8.93
857.959	14.08
858.13	12.29
858.301	16.3
858.472	16.26
858.643	16.23
858.814	19.07
858.985	16.55
859.155	24.12
859.326	25.1
859.497	29
859.668	29.75
859.839	24.67
860.009	24.19
860.18	19.58
860.351	20.13
860.522	17.55
860.692	13.79
860.863	19.14
861.034	16.35
861.204	15.97
861.375	14.23
861.546	13.68
861.716	13.07
861.887	14.9
862.057	16.94
862.228	16.72
862.398	17.36
862.569	19.68
862.739	20.32
862.91	19.76
863.08	20.77
863.251	17.63
863.421	18.82
863.592	18.88
863.762	18.42
863.932	19.94
864.103	16.92
864.273	15.92
864.443	13.13
864.614	10.16
864.784	8.25
864.954	7.2
865.125	9.38
865.295	7.87
865.465	7.6
865.635	8.42
865.805	-0.59
865.976	3.19
866.146	9.74
866.316	8.99
866.486	7.98
866.656	9.92
866.826	13.28
866.996	11.64
867.166	12.67
867.336	16.99
867.506	12.28
867.676	15.87
867.846	17.02
868.016	14.39
868.186	17.3
868.356	18.41
868.526	15.51
868.696	10.98
868.866	11.64
869.036	6.43
869.206	2.96
869.376	3.67
869.545	8.16
869.715	4.99
869.885	0.38
870.055	-1.01
870.224	-0.2
870.394	-3.76
870.564	-3.59
870.734	-0.14
870.903	6.97
871.073	7.81
871.243	7.05
871.412	5.81
871.582	8.68
871.751	10.03
871.921	12.34
872.091	10.7
872.26	15.25
872.43	18.28
872.599	16.54
872.769	16.01
872.938	14.21
873.108	12.73
873.277	11.48
873.446	13.19
873.616	15.95
873.785	14.87
873.955	15.88
874.124	17.54
874.293	15.07
874.463	19.21
874.632	17.45
874.801	16.92
874.971	25.75
875.14	25.62
875.309	22.57
875.478	25.33
875.647	26.34
875.817	26.9
875.986	21.47
876.155	23.13
876.324	19.96
876.493	21.35
876.662	21.09
876.831	17.18
877	17.9
877.17	18.61
877.339	16.07
877.508	14.6
877.677	13.04
877.846	17.25
878.015	15.84
878.184	21.25
878.352	18.51
878.521	20.32
878.69	22.26
878.859	21.24
879.028	22.05
879.197	23.47
879.366	22.39
879.534	22.9
879.703	24.76
879.872	24.37
880.041	20.34
880.21	22.83
880.378	22.42
880.547	22.02
880.716	21.24
880.884	20.54
881.053	20.3
881.222	20.9
881.39	21.3
881.559	20.88
881.727	21.7
881.896	21.96
882.065	22.24
882.233	23
882.402	23.3
882.57	24.51
882.739	25.3
882.907	24.99
883.076	25.36
883.244	25.37
883.412	25.15
883.581	25.05
883.749	25.22
883.918	24.66
884.086	23.52
884.254	22.48
884.423	21.26
884.591	21.03
884.759	20.53
884.927	20.27
885.096	19.55
885.264	19.41
885.432	18.14
885.6	18.82
885.769	18.82
885.937	20.69
886.105	22.19
886.273	22.37
886.441	21.96
886.609	22.25
886.777	22.17
886.945	23.97
887.113	24.25
887.281	25.17
887.449	22.73
887.617	21.92
887.785	19.05
887.953	16.72
888.121	18.39
888.289	17.99
888.457	20.9
888.625	22.93
888.793	19.84
888.961	19.93
889.129	21.08
889.296	20.46
889.464	20.43
889.632	21.8
889.8	24.66
889.967	23.75
890.135	22.5
