Data from 2938533_Reflection_3.txt Node
Date: Tue Jun 16 00:03:08 EDT 2015
User: robert
Spectrometer: USB4E03002
Autoset integration time: false
Trigger mode: 4
Integration Time (sec): 1.000000E-1
Scans to average: 10
Electric dark correction enabled: true
Nonlinearity correction enabled: false
Boxcar width: 6
Stray light correction enabled: false
XAxis mode: Wavelengths
Stop averaging: false
Number of Pixels in Spectrum: 3648
>>>>>Begin Spectral Data<<<<<
177.575	-151.33
177.794	-55.36
178.014	13.52
178.233	-23.46
178.452	-61.72
178.672	0.85
178.891	-142.86
179.11	26.85
179.33	-44.94
179.549	-32.71
179.768	-33.28
179.987	-39.68
180.207	-78.2
180.426	-97.38
180.645	-25.27
180.864	-1.39
181.084	-30.16
181.303	-121.87
181.522	-114.67
181.741	-142.24
181.96	-82.58
182.179	-11.61
182.398	65.63
182.618	127.34
182.837	351.85
183.056	-3628.57
183.275	95.19
183.494	321.25
183.713	128.24
183.932	45.37
184.151	115.57
184.37	-4.57
184.589	58.14
184.808	114.52
185.027	110.13
185.246	96.91
185.465	100.31
185.684	123.7
185.903	135.36
186.122	124.16
186.341	109.91
186.56	138.78
186.779	161.98
186.998	208.06
187.216	215.97
187.435	234.02
187.654	205.1
187.873	154.68
188.092	284.7
188.311	182.78
188.53	185.54
188.748	188.89
188.967	183.54
189.186	325.45
189.405	195.51
189.623	255
189.842	159.2
190.061	185.1
190.28	113.78
190.498	137.27
190.717	155.09
190.936	126.09
191.154	129.63
191.373	134.49
191.592	206.18
191.81	289.9
192.029	237.61
192.248	289.39
192.466	-1685
192.685	-687.18
192.904	229.17
193.122	576.36
193.341	269.92
193.559	476.74
193.778	325.64
193.996	872.58
194.215	203.76
194.433	130.42
194.652	204.6
194.87	168.82
195.089	239.59
195.307	155.95
195.526	219.23
195.744	481.76
195.963	294.27
196.181	295.06
196.399	231.33
196.618	316.67
196.836	330.47
197.055	449.09
197.273	1051.32
197.491	586.89
197.71	692.86
197.928	612.9
198.146	1016
198.365	-692.39
198.583	-456.9
198.801	-273.5
199.019	-152.5
199.238	-150.55
199.456	-261.61
199.674	-490.7
199.892	-368.02
200.111	-2025.81
200.329	1035.42
200.547	400
200.765	441.9
200.983	304.35
201.202	247.26
201.42	175.73
201.638	189.21
201.856	121.05
202.074	114.72
202.292	155.07
202.51	188.15
202.728	297.69
202.946	599.09
203.165	359.02
203.383	598.39
203.601	384.1
203.819	3683.33
204.037	442.24
204.255	723.47
204.473	284.29
204.691	-1445
204.909	-637.93
205.127	-126.32
205.345	-512.36
205.562	-468.25
205.78	-54.82
205.998	-43.77
206.216	-53.07
206.434	0.56
206.652	-40.9
206.87	-27.06
207.088	15.66
207.306	29.1
207.523	38.79
207.741	64.29
207.959	116.08
208.177	82.42
208.395	61.16
208.612	52.4
208.83	39.39
209.048	28.65
209.266	41.15
209.483	40.93
209.701	51.7
209.919	52.49
210.136	52.69
210.354	58.24
210.572	59.2
210.79	29.38
211.007	39.56
211.225	59.74
211.442	102.08
211.66	85.05
211.878	-78.85
212.095	-40.95
212.313	-27.09
212.53	-50.73
212.748	-54.46
212.966	-54.89
213.183	-93.35
213.401	-83.11
213.618	-49.4
213.836	-53.4
214.053	-50.43
214.271	-76.1
214.488	-93.61
214.705	52.44
214.923	21.45
215.14	19.83
215.358	41.62
215.575	48.8
215.793	64.71
216.01	65.42
216.227	55.66
216.445	39.24
216.662	37.67
216.879	29.22
217.097	27.91
217.314	31.03
217.531	40.84
217.749	50.14
217.966	30.38
218.183	18.99
218.4	9.55
218.618	2.76
218.835	-7.41
219.052	13.52
219.269	13.65
219.487	8.54
219.704	6.77
219.921	-5.17
220.138	-16.27
220.355	-20.57
220.572	-12.29
220.79	-17.05
221.007	-9.27
221.224	-11.73
221.441	-14.76
221.658	-5.82
221.875	-6.36
222.092	2.89
222.309	4.61
222.526	13.82
222.743	28.18
222.96	38.12
223.177	36.37
223.394	37.4
223.611	38.77
223.828	29.55
224.045	31.82
224.262	29.62
224.479	25.18
224.696	23.74
224.913	19.99
225.13	20.82
225.347	15.93
225.564	13.37
225.781	11.91
225.997	12.13
226.214	9.49
226.431	11.92
226.648	12.14
226.865	10.51
227.082	11.22
227.298	11.29
227.515	10.88
227.732	11.36
227.949	10.57
228.165	11.75
228.382	11.01
228.599	11.33
228.816	11.05
229.032	12.55
229.249	11.07
229.466	10.58
229.682	13.16
229.899	12.13
230.116	12.31
230.332	11.24
230.549	11.31
230.765	12.23
230.982	12.77
231.199	12.91
231.415	13.24
231.632	11.12
231.848	10.74
232.065	12.85
232.281	13.77
232.498	11.09
232.714	12.04
232.931	12.98
233.147	13.46
233.364	11.62
233.58	11.28
233.797	10.36
234.013	9.57
234.23	7.73
234.446	10.11
234.662	10.07
234.879	9.16
235.095	8.68
235.312	8.92
235.528	8.88
235.744	6.53
235.961	6.21
236.177	8.08
236.393	10.52
236.61	10.58
236.826	13.95
237.042	11.16
237.258	10.79
237.475	10.87
237.691	10.95
237.907	12.14
238.123	12.91
238.339	12.29
238.556	13.78
238.772	15.07
238.988	13.8
239.204	12.21
239.42	12.09
239.636	10.81
239.853	12.54
240.069	13.01
240.285	13.12
240.501	12.36
240.717	11.4
240.933	10.95
241.149	11.66
241.365	11.62
241.581	10.94
241.797	11.06
242.013	10.9
242.229	10.87
242.445	10.68
242.661	10.26
242.877	9.38
243.093	9
243.309	9.43
243.525	10.09
243.741	10.2
243.957	9.08
244.173	8.62
244.388	8.91
244.604	8.84
244.82	8.6
245.036	8.2
245.252	8.43
245.468	8.46
245.683	8.57
245.899	8.11
246.115	7.95
246.331	8.01
246.547	7.64
246.762	8.11
246.978	8.21
247.194	8.12
247.409	8.14
247.625	7.82
247.841	8.19
248.057	8.47
248.272	8.65
248.488	8.47
248.703	8.68
248.919	8.44
249.135	8.54
249.35	8
249.566	7.71
249.782	8.2
249.997	7.6
250.213	7.14
250.428	7.87
250.644	8.08
250.859	7.56
251.075	7.62
251.29	7.41
251.506	7.82
251.721	8.15
251.937	7.24
252.152	7.79
252.368	8.03
252.583	7.31
252.798	7.24
253.014	8.53
253.229	8
253.445	6.79
253.66	6.73
253.875	7.32
254.091	7.7
254.306	8.26
254.521	8.08
254.737	8.29
254.952	8.99
255.167	8.2
255.383	7.73
255.598	7.51
255.813	7.5
256.028	6.95
256.244	7.07
256.459	6.95
256.674	6.84
256.889	6.94
257.104	7.01
257.32	6.95
257.535	6.64
257.75	6.21
257.965	6.34
258.18	6.58
258.395	6.67
258.61	6.3
258.826	6.79
259.041	6.94
259.256	6.79
259.471	6.95
259.686	7.01
259.901	6.9
260.116	6.98
260.331	7.52
260.546	7.35
260.761	7.5
260.976	7.52
261.191	7.59
261.406	7.72
261.621	7.59
261.836	7.12
262.05	7.29
262.265	6.61
262.48	5.71
262.695	5.39
262.91	5.54
263.125	5.45
263.34	6.27
263.555	6
263.769	5.81
263.984	6.92
264.199	7.04
264.414	7.2
264.629	7.8
264.843	8.01
265.058	8.07
265.273	8.77
265.488	8.45
265.702	8.56
265.917	8.76
266.132	8.76
266.346	8.49
266.561	8.39
266.776	7.76
266.99	7.56
267.205	7.55
267.42	7.5
267.634	7.45
267.849	7.44
268.063	7.68
268.278	8.07
268.492	7.99
268.707	7.81
268.922	7.41
269.136	7.65
269.351	7.63
269.565	7.01
269.78	7.11
269.994	7.39
270.209	7.13
270.423	6.91
270.637	6.55
270.852	6.05
271.066	6
271.281	6.07
271.495	6.11
271.709	6.12
271.924	6.47
272.138	6.75
272.353	7.39
272.567	7.22
272.781	6.55
272.996	6.67
273.21	6.78
273.424	7.54
273.638	7.6
273.853	7.96
274.067	7.67
274.281	7.24
274.495	7.99
274.71	7.48
274.924	7.14
275.138	7.13
275.352	7.26
275.566	7.28
275.781	7.61
275.995	8.11
276.209	7.38
276.423	7.3
276.637	6.83
276.851	6.52
277.065	6.54
277.279	6.35
277.493	6.21
277.707	5.99
277.921	5.7
278.135	5.93
278.349	6.19
278.563	6.03
278.777	6.07
278.991	5.97
279.205	6.38
279.419	6.34
279.633	6.77
279.847	7.73
280.061	7.39
280.275	8.04
280.489	7.9
280.703	7.93
280.917	8.01
281.131	7.84
281.344	7.46
281.558	7.21
281.772	7.35
281.986	6.82
282.2	6.7
282.414	6.78
282.627	6.3
282.841	6.28
283.055	6.05
283.269	6.56
283.482	6.62
283.696	6.33
283.91	6.39
284.123	6.7
284.337	6.97
284.551	7.19
284.764	7.75
284.978	8.04
285.192	8.05
285.405	7.82
285.619	7.72
285.833	7.34
286.046	7.04
286.26	7.27
286.473	7.4
286.687	7.57
286.9	7.48
287.114	6.8
287.327	6.58
287.541	6.45
287.754	6.55
287.968	6.17
288.181	6.66
288.395	6.87
288.608	6.63
288.822	6.63
289.035	6.82
289.248	6.86
289.462	6.95
289.675	7.44
289.889	7.63
290.102	7.8
290.315	7.65
290.529	7.36
290.742	7.59
290.955	7.5
291.169	8.05
291.382	8.37
291.595	8.97
291.808	8.49
292.022	8.83
292.235	8.93
292.448	8.35
292.661	8.61
292.875	8.84
293.088	9.21
293.301	9.29
293.514	9.2
293.727	8.89
293.94	8.63
294.153	9.2
294.367	8.69
294.58	8.74
294.793	8.45
295.006	8.3
295.219	8.48
295.432	8.47
295.645	8.3
295.858	8.04
296.071	8.04
296.284	8.25
296.497	8.15
296.71	8.18
296.923	7.98
297.136	8.07
297.349	8.08
297.562	8.31
297.775	8.36
297.988	8.21
298.201	8.14
298.414	8.28
298.626	8.59
298.839	8.62
299.052	8.47
299.265	8.76
299.478	8.8
299.691	8.74
299.903	8.95
300.116	9.7
300.329	9.97
300.542	9.92
300.755	10.01
300.967	10.15
301.18	10.34
301.393	10.41
301.605	10.62
301.818	10.78
302.031	10.53
302.243	10.13
302.456	10
302.669	10.4
302.881	10.23
303.094	10.07
303.307	10.46
303.519	10.87
303.732	10.7
303.944	10.69
304.157	10.58
304.37	10.61
304.582	10.73
304.795	10.81
305.007	11.03
305.22	11.31
305.432	11.12
305.645	10.68
305.857	10.87
306.069	10.69
306.282	10.55
306.494	11.07
306.707	10.57
306.919	10.58
307.132	10.07
307.344	10.13
307.556	10.63
307.769	10.63
307.981	10.57
308.193	10.46
308.406	10.6
308.618	10.25
308.83	10.3
309.043	10.45
309.255	10.09
309.467	10.51
309.679	10.8
309.892	11.04
310.104	10.79
310.316	10.56
310.528	10.8
310.74	10.58
310.953	10.68
311.165	10.65
311.377	10.83
311.589	10.88
311.801	11.05
312.013	11.42
312.225	11.16
312.437	10.96
312.649	10.75
312.862	10.85
313.074	11.4
313.286	11.04
313.498	11.29
313.71	11.06
313.922	11.37
314.134	11.39
314.346	11.53
314.558	11.17
314.77	10.78
314.982	11.34
315.193	11.66
315.405	12.13
315.617	12.65
315.829	12
316.041	12.66
316.253	13.06
316.465	13.34
316.677	13.48
316.888	13.64
317.1	13.23
317.312	13.53
317.524	13.72
317.736	13.89
317.947	13.45
318.159	13.13
318.371	12.86
318.583	12.94
318.794	12.88
319.006	12.57
319.218	12.66
319.43	12.06
319.641	11.97
319.853	12.55
320.064	12.01
320.276	11.97
320.488	11.77
320.699	11.97
320.911	12.46
321.123	12.47
321.334	13.06
321.546	12.99
321.757	13.34
321.969	13.56
322.18	13.51
322.392	13.96
322.603	13.6
322.815	13.81
323.026	14.12
323.238	13.89
323.449	14.14
323.661	14.54
323.872	14.22
324.083	13.64
324.295	13.34
324.506	13.35
324.718	13.39
324.929	14.13
325.14	13.86
325.352	14.06
325.563	14.53
325.774	14.39
325.986	14.57
326.197	14.75
326.408	14.42
326.62	14.8
326.831	14.93
327.042	15.26
327.253	15.15
327.464	15.02
327.676	14.93
327.887	14.97
328.098	15.16
328.309	15.28
328.52	15.85
328.732	16.05
328.943	15.81
329.154	16.1
329.365	16.32
329.576	16.77
329.787	17.48
329.998	17.94
330.209	17.87
330.42	17.6
330.631	17.4
330.842	17.7
331.053	17.65
331.264	17.43
331.475	17.65
331.686	17.95
331.897	18.2
332.108	18.38
332.319	18.66
332.53	18.49
332.741	18.2
332.952	18.56
333.163	19.03
333.374	19.47
333.585	19.1
333.795	19.15
334.006	19.25
334.217	19.17
334.428	18.8
334.639	18.78
334.849	18.93
335.06	18.85
335.271	18.81
335.482	19.01
335.692	19.14
335.903	18.83
336.114	18.94
336.325	18.81
336.535	18.86
336.746	19.02
336.957	19.04
337.167	18.82
337.378	18.57
337.589	18.65
337.799	18.35
338.01	18.31
338.22	18.37
338.431	18.33
338.642	18.15
338.852	17.93
339.063	18.31
339.273	18.3
339.484	18.37
339.694	18.26
339.905	18.39
340.115	18.57
340.326	18.33
340.536	18.56
340.746	18.53
340.957	18.2
341.167	17.92
341.378	18.16
341.588	18.62
341.799	18.49
342.009	17.95
342.219	17.6
342.43	17.36
342.64	17.44
342.85	17.43
343.061	17.57
343.271	17.53
343.481	17.38
343.691	17.68
343.902	17.68
344.112	17.84
344.322	17.43
344.532	17.45
344.743	17.79
344.953	17.61
345.163	17.96
345.373	18.29
345.583	18.46
345.793	18.2
346.004	18.33
346.214	18.26
346.424	17.93
346.634	18.01
346.844	17.9
347.054	18.05
347.264	17.93
347.474	17.76
347.684	18.03
347.894	17.99
348.104	17.93
348.314	17.73
348.524	17.51
348.734	17.28
348.944	17.54
349.154	17.63
349.364	17.78
349.574	17.54
349.784	17.42
349.994	17.55
350.204	17.51
350.413	17.37
350.623	17.27
350.833	17.04
351.043	16.72
351.253	17.18
351.463	17.3
351.672	17.31
351.882	17.44
352.092	17.19
352.302	17.34
352.511	17.22
352.721	16.94
352.931	17.05
353.141	17.31
353.35	17.13
353.56	17.04
353.77	17.32
353.979	17.21
354.189	17.18
354.399	17.19
354.608	17.25
354.818	17.32
355.027	16.99
355.237	17.09
355.447	17.23
355.656	17.35
355.866	17.21
356.075	17.37
356.285	17.47
356.494	17.14
356.704	17.09
356.913	16.84
357.123	16.72
357.332	16.62
357.542	16.67
357.751	16.64
357.96	16.6
358.17	16.55
358.379	16.5
358.589	16.23
358.798	15.91
359.007	16.02
359.217	16.01
359.426	15.8
359.635	15.88
359.845	15.79
360.054	15.79
360.263	15.64
360.472	15.97
360.682	15.74
360.891	15.52
361.1	15.51
361.309	15.54
361.519	15.35
361.728	15.26
361.937	15.25
362.146	15.31
362.355	15.43
362.564	15.42
362.774	15.1
362.983	15.23
363.192	14.99
363.401	15.14
363.61	15.32
363.819	15.06
364.028	15.18
364.237	15.6
364.446	15.53
364.655	15.64
364.864	15.54
365.073	15.46
365.282	15.2
365.491	15.37
365.7	15.17
365.909	15.13
366.118	14.95
366.327	14.81
366.536	14.68
366.745	14.85
366.954	14.75
367.162	14.47
367.371	14.48
367.58	14.65
367.789	14.41
367.998	14.7
368.207	14.66
368.415	14.44
368.624	14.38
368.833	14.67
369.042	14.81
369.25	15.07
369.459	14.79
369.668	14.66
369.877	14.86
370.085	14.78
370.294	14.75
370.503	14.69
370.711	14.49
370.92	14.33
371.129	14.48
371.337	14.28
371.546	13.99
371.754	13.84
371.963	13.75
372.171	13.76
372.38	13.95
372.589	13.73
372.797	13.81
373.006	13.68
373.214	13.58
373.423	13.41
373.631	13.35
373.84	13.21
374.048	13.27
374.256	13.34
374.465	13.18
374.673	13.14
374.882	13.15
375.09	12.97
375.298	13.16
375.507	12.96
375.715	12.68
375.923	12.74
376.132	12.73
376.34	12.86
376.548	12.9
376.757	13.01
376.965	12.85
377.173	12.87
377.381	12.72
377.59	12.6
377.798	12.49
378.006	12.25
378.214	12.03
378.423	12.28
378.631	12.17
378.839	12.23
379.047	11.99
379.255	11.87
379.463	11.64
379.671	11.53
379.879	11.71
380.088	11.54
380.296	11.49
380.504	11.4
380.712	11.27
380.92	11.47
381.128	11.15
381.336	11.12
381.544	11.01
381.752	10.91
381.96	10.87
382.168	10.92
382.376	11.05
382.584	10.9
382.791	10.78
382.999	10.84
383.207	10.96
383.415	10.96
383.623	10.74
383.831	10.78
384.039	10.76
384.247	10.92
384.454	11.08
384.662	11.05
384.87	10.94
385.078	10.76
385.285	10.8
385.493	11.04
385.701	10.83
385.909	10.58
386.116	10.62
386.324	10.75
386.532	10.76
386.739	10.72
386.947	10.46
387.155	10.41
387.362	10.4
387.57	10.45
387.778	10.63
387.985	10.43
388.193	10.43
388.4	10.53
388.608	10.53
388.816	10.65
389.023	10.59
389.231	10.55
389.438	10.6
389.646	10.56
389.853	10.46
390.061	10.41
390.268	10.4
390.475	10.4
390.683	10.25
390.89	10.09
391.098	10.21
391.305	10.23
391.512	10.05
391.72	10
391.927	9.97
392.135	9.76
392.342	9.72
392.549	9.75
392.756	9.76
392.964	9.56
393.171	9.32
393.378	9.52
393.586	9.54
393.793	9.26
394	9.15
394.207	9.13
394.414	9.1
394.622	8.97
394.829	9
395.036	8.91
395.243	8.83
395.45	8.91
395.657	9.04
395.864	8.95
396.072	8.83
396.279	8.84
396.486	8.83
396.693	8.81
396.9	8.79
397.107	8.69
397.314	8.83
397.521	8.96
397.728	8.91
397.935	8.89
398.142	8.61
398.349	8.58
398.556	8.73
398.763	8.88
398.97	8.88
399.177	8.86
399.383	8.88
399.59	8.91
399.797	8.79
400.004	8.63
400.211	8.54
400.418	8.6
400.625	8.54
400.831	8.54
401.038	8.46
401.245	8.25
401.452	8.13
401.658	8.14
401.865	8.02
402.072	7.89
402.279	7.92
402.485	7.9
402.692	8
402.899	8
403.105	8.14
403.312	8.22
403.519	8.21
403.725	8.23
403.932	8.26
404.138	8.26
404.345	8.11
404.552	8.31
404.758	8.38
404.965	8.08
405.171	8.18
405.378	8.08
405.584	7.97
405.791	7.9
405.997	7.87
406.204	7.87
406.41	7.63
406.617	7.7
406.823	7.68
407.029	7.66
407.236	7.32
407.442	7.26
407.649	7.38
407.855	7.28
408.061	7.16
408.268	7.17
408.474	7.05
408.68	7.11
408.887	7.11
409.093	7.3
409.299	7.23
409.505	7.12
409.712	7.11
409.918	7.38
410.124	7.49
410.33	7.49
410.537	7.56
410.743	7.57
410.949	7.63
411.155	7.68
411.361	7.53
411.567	7.61
411.773	7.62
411.98	7.68
412.186	7.74
412.392	7.82
412.598	7.57
412.804	7.43
413.01	7.53
413.216	7.43
413.422	7.55
413.628	7.45
413.834	7.38
414.04	7.4
414.246	7.4
414.452	7.25
414.658	7.16
414.864	7.2
415.07	7.12
415.275	7.05
415.481	7.14
415.687	7.07
415.893	7.2
416.099	7.16
416.305	7.2
416.511	7.19
416.716	7.13
416.922	7.02
417.128	7.05
417.334	7.03
417.539	6.91
417.745	6.9
417.951	7
418.157	6.9
418.362	6.82
418.568	6.67
418.774	6.57
418.979	6.58
419.185	6.49
419.391	6.49
419.596	6.54
419.802	6.6
420.008	6.6
420.213	6.6
420.419	6.55
420.624	6.52
420.83	6.54
421.035	6.5
421.241	6.47
421.446	6.51
421.652	6.43
421.857	6.44
422.063	6.44
422.268	6.37
422.474	6.25
422.679	6.2
422.885	6.21
423.09	6.18
423.295	6.18
423.501	6.19
423.706	6.26
423.911	6.35
424.117	6.36
424.322	6.35
424.527	6.33
424.733	6.27
424.938	6.26
425.143	6.3
425.349	6.3
425.554	6.23
425.759	6.28
425.964	6.29
426.169	6.26
426.375	6.2
426.58	6.14
426.785	6.08
426.99	6.08
427.195	6.07
427.4	6.07
427.605	5.98
427.811	6.02
428.016	6.04
428.221	6.04
428.426	6.04
428.631	6.08
428.836	6.06
429.041	6.1
429.246	6.05
429.451	6.06
429.656	6.12
429.861	6.23
430.066	6.2
430.271	6.26
430.476	6.31
430.681	6.4
430.886	6.46
431.09	6.45
431.295	6.37
431.5	6.32
431.705	6.35
431.91	6.43
432.115	6.44
432.32	6.49
432.524	6.44
432.729	6.51
432.934	6.5
433.139	6.34
433.343	6.27
433.548	6.15
433.753	6.14
433.958	6.09
434.162	6.18
434.367	6.11
434.572	6.04
434.776	5.97
434.981	5.89
435.186	5.83
435.39	5.73
435.595	5.72
435.799	5.81
436.004	5.78
436.209	5.76
436.413	5.75
436.618	5.8
436.822	5.76
437.027	5.81
437.231	5.77
437.436	5.79
437.64	5.78
437.845	5.74
438.049	5.8
438.253	5.73
438.458	5.68
438.662	5.71
438.867	5.73
439.071	5.67
439.275	5.61
439.48	5.65
439.684	5.61
439.888	5.72
440.093	5.8
440.297	5.82
440.501	5.83
440.706	5.81
440.91	5.9
441.114	5.91
441.318	5.93
441.523	5.94
441.727	5.97
441.931	6.02
442.135	5.89
442.339	5.92
442.543	5.81
442.748	5.72
442.952	5.71
443.156	5.81
443.36	5.89
443.564	5.81
443.768	5.83
443.972	5.8
444.176	5.83
444.38	5.83
444.584	5.79
444.788	5.88
444.992	5.82
445.196	5.84
445.4	5.8
445.604	5.75
445.808	5.72
446.012	5.62
446.216	5.63
446.42	5.65
446.624	5.67
446.828	5.62
447.032	5.65
447.235	5.67
447.439	5.59
447.643	5.64
447.847	5.62
448.051	5.7
448.254	5.74
448.458	5.84
448.662	5.87
448.866	5.95
449.069	5.9
449.273	5.93
449.477	6.05
449.681	6.05
449.884	5.99
450.088	6.09
450.292	6.01
450.495	6.05
450.699	5.97
450.902	5.84
451.106	5.7
451.31	5.72
451.513	5.68
451.717	5.73
451.92	5.7
452.124	5.71
452.327	5.68
452.531	5.75
452.734	5.71
452.938	5.66
453.141	5.66
453.345	5.66
453.548	5.72
453.752	5.75
453.955	5.75
454.158	5.73
454.362	5.69
454.565	5.73
454.769	5.59
454.972	5.52
455.175	5.51
455.379	5.52
455.582	5.59
455.785	5.52
455.988	5.52
456.192	5.55
456.395	5.48
456.598	5.4
456.801	5.43
457.005	5.43
457.208	5.38
457.411	5.37
457.614	5.36
457.817	5.32
458.021	5.29
458.224	5.29
458.427	5.33
458.63	5.33
458.833	5.4
459.036	5.44
459.239	5.43
459.442	5.46
459.645	5.45
459.848	5.45
460.051	5.46
460.254	5.52
460.457	5.58
460.66	5.62
460.863	5.63
461.066	5.62
461.269	5.63
461.472	5.49
461.675	5.56
461.878	5.61
462.081	5.54
462.284	5.52
462.486	5.46
462.689	5.46
462.892	5.54
463.095	5.48
463.298	5.37
463.5	5.41
463.703	5.43
463.906	5.43
464.109	5.5
464.311	5.45
464.514	5.52
464.717	5.5
464.92	5.56
465.122	5.56
465.325	5.62
465.528	5.6
465.73	5.67
465.933	5.75
466.135	5.76
466.338	5.76
466.541	5.79
466.743	5.77
466.946	5.83
467.148	5.83
467.351	5.91
467.553	5.82
467.756	5.86
467.958	5.93
468.161	5.94
468.363	5.82
468.566	5.83
468.768	5.77
468.971	5.83
469.173	5.91
469.375	5.91
469.578	5.89
469.78	5.95
469.983	5.89
470.185	5.97
470.387	6.07
470.59	6.03
470.792	6.07
470.994	6.21
471.196	6.23
471.399	6.31
471.601	6.24
471.803	6.15
472.005	6.18
472.208	6.18
472.41	6.1
472.612	6.14
472.814	6.12
473.016	6.11
473.218	6.02
473.421	5.95
473.623	5.98
473.825	5.86
474.027	5.76
474.229	5.79
474.431	5.85
474.633	5.9
474.835	5.92
475.037	5.93
475.239	5.95
475.441	5.9
475.643	5.81
475.845	5.86
476.047	5.92
476.249	5.81
476.451	5.84
476.653	5.85
476.855	5.81
477.057	5.82
477.258	5.75
477.46	5.7
477.662	5.68
477.864	5.68
478.066	5.7
478.268	5.78
478.469	5.8
478.671	5.71
478.873	5.74
479.075	5.75
479.276	5.75
479.478	5.71
479.68	5.62
479.882	5.6
480.083	5.57
480.285	5.54
480.487	5.47
480.688	5.46
480.89	5.45
481.091	5.41
481.293	5.38
481.495	5.38
481.696	5.39
481.898	5.41
482.099	5.43
482.301	5.44
482.502	5.46
482.704	5.47
482.905	5.5
483.107	5.54
483.308	5.52
483.51	5.52
483.711	5.53
483.913	5.58
484.114	5.6
484.315	5.59
484.517	5.57
484.718	5.6
484.92	5.58
485.121	5.58
485.322	5.55
485.524	5.53
485.725	5.5
485.926	5.51
486.127	5.51
486.329	5.53
486.53	5.51
486.731	5.5
486.932	5.5
487.134	5.51
487.335	5.51
487.536	5.55
487.737	5.52
487.938	5.58
488.139	5.62
488.341	5.63
488.542	5.64
488.743	5.61
488.944	5.64
489.145	5.63
489.346	5.64
489.547	5.65
489.748	5.69
489.949	5.67
490.15	5.67
490.351	5.7
490.552	5.67
490.753	5.68
490.954	5.71
491.155	5.71
491.356	5.77
491.557	5.79
491.758	5.83
491.959	5.88
492.159	5.94
492.36	5.97
492.561	6.03
492.762	5.99
492.963	6.05
493.164	6.1
493.364	6.08
493.565	6.07
493.766	6.08
493.967	6.11
494.167	6.13
494.368	6.14
494.569	6.09
494.769	6.09
494.97	6.1
495.171	6.04
495.371	6.11
495.572	6.14
495.773	6.25
495.973	6.25
496.174	6.29
496.375	6.33
496.575	6.38
496.776	6.32
496.976	6.35
497.177	6.51
497.377	6.51
497.578	6.55
497.778	6.65
497.979	6.69
498.179	6.74
498.38	6.75
498.58	6.83
498.78	6.85
498.981	6.98
499.181	6.93
499.382	7.03
499.582	7.08
499.782	7
499.983	7.09
500.183	7.08
500.383	7.16
500.584	7.26
500.784	7.33
500.984	7.28
501.184	7.28
501.385	7.32
501.585	7.22
501.785	7.32
501.985	7.19
502.185	7.19
502.386	7.26
502.586	7.32
502.786	7.39
502.986	7.41
503.186	7.39
503.386	7.31
503.586	7.37
503.786	7.42
503.987	7.46
504.187	7.57
504.387	7.62
504.587	7.8
504.787	7.87
504.987	7.9
505.187	7.9
505.387	7.95
505.587	8.08
505.786	8.12
505.986	8.2
506.186	8.29
506.386	8.39
506.586	8.41
506.786	8.52
506.986	8.56
507.186	8.65
507.386	8.66
507.585	8.74
507.785	8.84
507.985	8.93
508.185	8.88
508.384	8.96
508.584	9.05
508.784	9.08
508.984	9.09
509.183	9.17
509.383	9.21
509.583	9.27
509.782	9.31
509.982	9.42
510.182	9.44
510.381	9.44
510.581	9.45
510.781	9.54
510.98	9.56
511.18	9.58
511.379	9.58
511.579	9.67
511.778	9.76
511.978	9.73
512.177	9.73
512.377	9.76
512.576	9.72
512.776	9.91
512.975	10.02
513.175	10.15
513.374	10.22
513.573	10.39
513.773	10.49
513.972	10.67
514.172	10.71
514.371	10.79
514.57	10.94
514.77	11.04
514.969	11.15
515.168	11.29
515.367	11.3
515.567	11.38
515.766	11.4
515.965	11.47
516.164	11.45
516.364	11.56
516.563	11.54
516.762	11.65
516.961	11.73
517.16	11.75
517.359	11.86
517.559	11.88
517.758	11.97
517.957	12.01
518.156	12.1
518.355	12.14
518.554	12.18
518.753	12.28
518.952	12.34
519.151	12.46
519.35	12.5
519.549	12.58
519.748	12.73
519.947	12.76
520.146	12.88
520.345	12.95
520.544	12.97
520.743	13.02
520.942	13.19
521.141	13.3
521.339	13.41
521.538	13.44
521.737	13.53
521.936	13.65
522.135	13.74
522.333	13.78
522.532	13.91
522.731	14.04
522.93	14.1
523.129	14.23
523.327	14.27
523.526	14.29
523.725	14.43
523.923	14.46
524.122	14.53
524.321	14.54
524.519	14.58
524.718	14.64
524.917	14.76
525.115	14.83
525.314	14.87
525.512	14.95
525.711	15.03
525.909	15.09
526.108	15.19
526.306	15.2
526.505	15.27
526.703	15.31
526.902	15.36
527.1	15.39
527.299	15.42
527.497	15.41
527.696	15.45
527.894	15.5
528.092	15.57
528.291	15.59
528.489	15.69
528.688	15.72
528.886	15.78
529.084	15.85
529.283	15.97
529.481	16.05
529.679	16.17
529.877	16.3
530.076	16.44
530.274	16.56
530.472	16.67
530.67	16.74
530.869	16.81
531.067	16.83
531.265	16.86
531.463	16.88
531.661	16.92
531.859	16.94
532.057	17.03
532.255	17
532.454	17.02
532.652	17.03
532.85	17.03
533.048	17.06
533.246	17.1
533.444	17.17
533.642	17.15
533.84	17.29
534.038	17.43
534.236	17.51
534.434	17.62
534.632	17.63
534.83	17.82
535.027	17.84
535.225	17.95
535.423	17.95
535.621	17.96
535.819	17.99
536.017	18.08
536.215	18.25
536.412	18.26
536.61	18.34
536.808	18.38
537.006	18.41
537.203	18.49
537.401	18.48
537.599	18.59
537.797	18.7
537.994	18.89
538.192	18.99
538.39	19.03
538.587	19.01
538.785	19.03
538.983	19.08
539.18	19.06
539.378	19.08
539.575	19.07
539.773	19.12
539.97	19.14
540.168	19.15
540.366	19.13
540.563	19.1
540.761	19.15
540.958	19.14
541.155	19.19
541.353	19.2
541.55	19.14
541.748	19.17
541.945	19.18
542.143	19.25
542.34	19.29
542.537	19.34
542.735	19.4
542.932	19.44
543.129	19.52
543.327	19.55
543.524	19.65
543.721	19.72
543.919	19.79
544.116	19.97
544.313	20.04
544.51	20.1
544.708	20.18
544.905	20.2
545.102	20.21
545.299	20.28
545.496	20.34
545.693	20.34
545.891	20.33
546.088	20.34
546.285	20.33
546.482	20.41
546.679	20.33
546.876	20.32
547.073	20.3
547.27	20.29
547.467	20.34
547.664	20.44
547.861	20.48
548.058	20.57
548.255	20.66
548.452	20.81
548.649	20.91
548.846	21.05
549.043	21.08
549.24	21.27
549.437	21.31
549.633	21.38
549.83	21.45
550.027	21.6
550.224	21.54
550.421	21.5
550.618	21.53
550.814	21.62
551.011	21.62
551.208	21.69
551.405	21.71
551.601	21.75
551.798	21.82
551.995	21.94
552.191	21.98
552.388	21.97
552.585	21.83
552.781	22.01
552.978	22.07
553.175	22.11
553.371	22.08
553.568	22.13
553.764	22.11
553.961	22.19
554.157	22.2
554.354	22.17
554.55	22.2
554.747	22.25
554.943	22.37
555.14	22.53
555.336	22.49
555.533	22.62
555.729	22.53
555.926	22.57
556.122	22.67
556.318	22.66
556.515	22.69
556.711	22.79
556.907	22.83
557.104	22.87
557.3	22.89
557.496	22.99
557.693	22.96
557.889	23.05
558.085	22.99
558.281	23.11
558.478	23.21
558.674	23.2
558.87	23.43
559.066	23.38
559.262	23.4
559.459	23.46
559.655	23.55
559.851	23.66
560.047	23.7
560.243	23.83
560.439	23.84
560.635	23.98
560.831	24.04
561.027	24.11
561.223	24.18
561.419	24.15
561.615	24.37
561.811	24.48
562.007	24.47
562.203	24.5
562.399	24.48
562.595	24.56
562.791	24.6
562.987	24.68
563.183	24.69
563.379	24.75
563.575	24.82
563.771	24.83
563.966	24.84
564.162	24.78
564.358	24.8
564.554	24.96
564.75	25.03
564.945	25.09
565.141	24.98
565.337	25.01
565.533	25.1
565.728	25.2
565.924	25.23
566.12	25.23
566.315	25.34
566.511	25.47
566.707	25.54
566.902	25.56
567.098	25.52
567.293	25.58
567.489	25.63
567.684	25.8
567.88	25.88
568.076	25.83
568.271	25.76
568.467	25.87
568.662	25.95
568.858	25.95
569.053	25.97
569.248	26.04
569.444	26.03
569.639	26.2
569.835	26.16
570.03	26.24
570.225	26.31
570.421	26.36
570.616	26.4
570.812	26.57
571.007	26.54
571.202	26.59
571.397	26.61
571.593	26.62
571.788	26.68
571.983	26.85
572.178	26.83
572.374	26.85
572.569	26.99
572.764	27.01
572.959	27.09
573.154	27.17
573.35	27.12
573.545	27.13
573.74	27.23
573.935	27.22
574.13	27.21
574.325	27.22
574.52	27.13
574.715	27.19
574.91	27.27
575.105	27.18
575.3	27.28
575.495	27.25
575.69	27.23
575.885	27.29
576.08	27.33
576.275	27.33
576.47	27.51
576.665	27.69
576.86	27.74
577.055	27.83
577.25	27.97
577.444	28.04
577.639	28.05
577.834	28
578.029	28.07
578.224	28.29
578.418	28.41
578.613	28.51
578.808	28.56
579.003	28.58
579.197	28.59
579.392	28.58
579.587	28.71
579.781	28.61
579.976	28.68
580.171	28.78
580.365	28.96
580.56	29.1
580.755	29.1
580.949	29.24
581.144	29.26
581.338	29.26
581.533	29.3
581.727	29.3
581.922	29.47
582.116	29.46
582.311	29.53
582.505	29.47
582.7	29.42
582.894	29.32
583.089	29.27
583.283	29.4
583.478	29.28
583.672	29.29
583.866	29.23
584.061	29.24
584.255	29.24
584.449	29.31
584.644	29.18
584.838	29.31
585.032	29.3
585.226	29.48
585.421	29.58
585.615	29.61
585.809	29.61
586.003	29.65
586.198	29.79
586.392	29.92
586.586	29.97
586.78	30.09
586.974	30.05
587.168	30.19
587.363	30.16
587.557	30.37
587.751	30.41
587.945	30.3
588.139	30.4
588.333	30.37
588.527	30.39
588.721	30.39
588.915	30.51
589.109	30.51
589.303	30.53
589.497	30.58
589.691	30.65
589.885	30.63
590.079	30.69
590.273	30.73
590.466	30.84
590.66	30.82
590.854	30.96
591.048	30.98
591.242	30.98
591.436	30.97
591.629	30.96
591.823	30.95
592.017	30.9
592.211	31.01
592.404	31.01
592.598	30.98
592.792	30.97
592.986	31.03
593.179	31.13
593.373	31.04
593.567	31.17
593.76	31.37
593.954	31.4
594.147	31.46
594.341	31.5
594.535	31.65
594.728	31.64
594.922	31.81
595.115	31.88
595.309	31.88
595.502	32
595.696	31.95
595.889	31.99
596.083	31.91
596.276	31.75
596.47	31.7
596.663	31.67
596.856	31.76
597.05	31.78
597.243	31.78
597.437	31.7
597.63	31.73
597.823	31.86
598.017	31.75
598.21	31.83
598.403	31.92
598.596	32.05
598.79	32.2
598.983	32.29
599.176	32.37
599.369	32.38
599.563	32.39
599.756	32.4
599.949	32.48
600.142	32.53
600.335	32.53
600.528	32.53
600.722	32.61
600.915	32.47
601.108	32.47
601.301	32.4
601.494	32.5
601.687	32.59
601.88	32.65
602.073	32.61
602.266	32.71
602.459	32.71
602.652	32.7
602.845	32.73
603.038	32.82
603.231	32.67
603.424	32.73
603.617	32.72
603.809	32.72
604.002	32.76
604.195	32.72
604.388	32.64
604.581	32.71
604.774	32.71
604.966	32.65
605.159	32.73
605.352	32.69
605.545	32.58
605.737	32.63
605.93	32.67
606.123	32.79
606.316	33.03
606.508	32.97
606.701	33.03
606.894	33.09
607.086	32.95
607.279	32.96
607.471	33.12
607.664	33.08
607.857	33.09
608.049	33.14
608.242	33.25
608.434	33.35
608.627	33.33
608.819	33.22
609.012	33.34
609.204	33.31
609.397	33.3
609.589	33.43
609.782	33.36
609.974	33.31
610.166	33.42
610.359	33.48
610.551	33.53
610.743	33.51
610.936	33.38
611.128	33.37
611.32	33.36
611.513	33.07
611.705	33.07
611.897	33.06
612.09	33.1
612.282	33.11
612.474	33.13
612.666	33
612.858	33.12
613.051	33.23
613.243	33.34
613.435	33.44
613.627	33.5
613.819	33.79
614.011	34
614.203	34.18
614.395	34.17
614.588	34.16
614.78	34.38
614.972	34.41
615.164	34.44
615.356	34.35
615.548	34.32
615.74	34.2
615.932	34.18
616.124	34.25
616.315	34.01
616.507	34.05
616.699	33.99
616.891	33.97
617.083	34.01
617.275	33.8
617.467	33.86
617.659	34.08
617.85	34
618.042	34.07
618.234	34.16
618.426	34.25
618.618	34.24
618.809	34.24
619.001	34.34
619.193	34.39
619.384	34.41
619.576	34.45
619.768	34.67
619.959	34.64
620.151	34.41
620.343	34.43
620.534	34.43
620.726	34.47
620.917	34.46
621.109	34.39
621.301	34.41
621.492	34.26
621.684	34.23
621.875	34.29
622.067	34.2
622.258	34.17
622.45	34.28
622.641	34.41
622.832	34.46
623.024	34.37
623.215	34.44
623.407	34.46
623.598	34.58
623.789	34.72
623.981	34.9
624.172	34.95
624.363	35.07
624.555	35.08
624.746	35.1
624.937	34.86
625.129	34.74
625.32	34.68
625.511	34.77
625.702	34.61
625.893	34.69
626.085	34.59
626.276	34.6
626.467	34.51
626.658	34.51
626.849	34.49
627.04	34.68
627.231	34.66
627.422	34.82
627.614	35.03
627.805	35.14
627.996	35.12
628.187	35.31
628.378	35.26
628.569	35.41
628.76	35.41
628.951	35.59
629.142	35.61
629.332	35.68
629.523	35.56
629.714	35.61
629.905	35.8
630.096	35.85
630.287	35.93
630.478	36.07
630.669	36.16
630.859	36.16
631.05	36.11
631.241	36.02
631.432	35.86
631.623	35.82
631.813	35.74
632.004	35.71
632.195	35.68
632.385	35.65
632.576	35.56
632.767	35.49
632.957	35.47
633.148	35.27
633.339	35.3
633.529	35.21
633.72	35.22
633.91	35.28
634.101	35.36
634.292	35.46
634.482	35.51
634.673	35.7
634.863	35.59
635.054	35.59
635.244	35.66
635.435	35.57
635.625	35.6
635.815	35.77
636.006	35.95
636.196	35.98
636.387	36.16
636.577	36.18
636.767	36.16
636.958	36.36
637.148	36.15
637.338	36.19
637.529	36.17
637.719	36.04
637.909	36.01
638.099	36.14
638.29	35.84
638.48	35.68
638.67	35.96
638.86	35.9
639.05	35.93
639.241	35.89
639.431	35.69
639.621	35.82
639.811	35.83
640.001	35.84
640.191	36.02
640.381	35.94
640.571	35.97
640.761	36
640.951	36.23
641.141	35.97
641.331	35.86
641.521	35.81
641.711	35.75
641.901	36.02
642.091	35.98
642.281	35.91
642.471	35.98
642.661	35.94
642.851	36.11
643.041	36.17
643.231	36.26
643.42	36.29
643.61	36.37
643.8	36.54
643.99	36.42
644.18	36.51
644.369	36.31
644.559	36.35
644.749	36.4
644.939	36.31
645.128	36.52
645.318	36.52
645.508	36.52
645.697	36.62
645.887	36.52
646.076	36.58
646.266	36.65
646.456	36.79
646.645	36.77
646.835	36.87
647.024	36.76
647.214	36.77
647.403	36.95
647.593	36.94
647.782	36.84
647.972	36.81
648.161	36.91
648.351	36.9
648.54	36.97
648.73	36.86
648.919	36.86
649.108	36.66
649.298	36.69
649.487	36.79
649.677	36.91
649.866	36.75
650.055	36.64
650.244	37
650.434	37
650.623	36.94
650.812	36.92
651.002	36.81
651.191	36.7
651.38	36.75
651.569	36.96
651.758	37.04
651.947	36.94
652.137	36.96
652.326	37.05
652.515	37.34
652.704	37.21
652.893	37.2
653.082	37.19
653.271	37.41
653.46	37.29
653.649	37.33
653.838	37.61
654.027	37.52
654.216	37.45
654.405	37.58
654.594	37.56
654.783	37.7
654.972	37.49
655.161	37.23
655.35	37.18
655.539	37.4
655.728	37.1
655.916	37.33
656.105	37.28
656.294	37.25
656.483	37.48
656.672	37.49
656.86	37.42
657.049	37.35
657.238	37.38
657.427	37.43
657.615	37.64
657.804	37.77
657.993	37.59
658.181	37.7
658.37	37.59
658.559	37.7
658.747	37.65
658.936	37.52
659.125	37.46
659.313	37.54
659.502	37.57
659.69	37.26
659.879	37.21
660.067	37.27
660.256	37.2
660.444	37.17
660.633	37.19
660.821	37.23
661.01	37.21
661.198	37.2
661.387	37.54
661.575	37.71
661.763	37.83
661.952	37.97
662.14	38.43
662.328	38.53
662.517	38.36
662.705	38.56
662.893	38.71
663.082	38.74
663.27	38.86
663.458	38.99
663.646	38.84
663.834	38.78
664.023	38.73
664.211	38.63
664.399	38.58
664.587	38.4
664.775	38.27
664.963	38.5
665.152	38.32
665.34	38.27
665.528	38.3
665.716	38.18
665.904	38.03
666.092	37.91
666.28	37.76
666.468	37.9
666.656	38.06
666.844	38.09
667.032	37.84
667.22	37.84
667.408	37.83
667.596	37.84
667.784	37.9
667.971	38.1
668.159	38.22
668.347	38.41
668.535	38.66
668.723	38.41
668.911	38.3
669.098	38.19
669.286	38.07
669.474	38.32
669.662	38.37
669.849	38.4
670.037	38.43
670.225	38.27
670.413	38.07
670.6	37.96
670.788	37.9
670.976	37.93
671.163	38.25
671.351	38.13
671.538	38.24
671.726	38.43
671.913	38.47
672.101	38.58
672.289	38.46
672.476	38.49
672.664	38.73
672.851	38.87
673.039	38.76
673.226	38.69
673.413	38.52
673.601	38.52
673.788	38.74
673.976	38.36
674.163	38.49
674.35	38.43
674.538	38.23
674.725	38.26
674.912	38.07
675.1	38.21
675.287	38.05
675.474	38.37
675.662	38.39
675.849	38.59
676.036	38.6
676.223	38.51
676.411	38.47
676.598	38.63
676.785	38.53
676.972	38.62
677.159	38.69
677.346	38.92
677.533	38.81
677.721	38.77
677.908	38.7
678.095	38.88
678.282	38.94
678.469	39.2
678.656	39.2
678.843	39.33
679.03	38.86
679.217	38.95
679.404	39.02
679.591	38.95
679.778	38.89
679.964	38.9
680.151	38.97
680.338	38.95
680.525	38.86
680.712	38.71
680.899	38.42
681.086	38.5
681.272	38.63
681.459	38.73
681.646	38.76
681.833	38.77
682.02	38.76
682.206	38.92
682.393	38.8
682.58	38.76
682.766	39.01
682.953	38.94
683.14	38.89
683.326	39.22
683.513	39.11
683.7	39.19
683.886	39.3
684.073	39.49
684.259	39.35
684.446	39.58
684.632	39.63
684.819	39.73
685.005	40.01
685.192	39.72
685.378	39.72
685.565	39.93
685.751	39.69
685.938	39.9
686.124	39.68
686.31	39.67
686.497	39.67
686.683	39.9
686.87	39.51
687.056	39.43
687.242	39.6
687.429	39.28
687.615	39.46
687.801	39.56
687.987	39.31
688.174	39.25
688.36	38.88
688.546	39.07
688.732	39.07
688.918	39.05
689.105	38.89
689.291	38.93
689.477	38.97
689.663	39.18
689.849	39.33
690.035	39.47
690.221	39.37
690.407	39.52
690.593	39.5
690.779	39.85
690.965	39.99
691.151	39.91
691.337	39.89
691.523	39.75
691.709	39.92
691.895	39.83
692.081	39.32
692.267	39.44
692.453	39.18
692.639	39.19
692.825	39.19
693.011	39.51
693.196	39.45
693.382	39.36
693.568	39.51
693.754	39.22
693.94	39.53
694.125	39.57
694.311	39.69
694.497	39.9
694.682	39.73
694.868	39.88
695.054	39.88
695.239	39.92
695.425	39.79
695.611	39.75
695.796	39.83
695.982	39.79
696.168	39.97
696.353	39.98
696.539	40.12
696.724	39.94
696.91	40
697.095	40.02
697.281	39.72
697.466	39.7
697.652	39.65
697.837	39.57
698.023	39.54
698.208	39.33
698.393	39.44
698.579	39.44
698.764	39.42
698.949	39.21
699.135	39.35
699.32	38.99
699.505	38.92
699.691	39.02
699.876	38.76
700.061	38.62
700.246	38.62
700.432	38.58
700.617	38.64
700.802	38.39
700.987	38.55
701.172	38.58
701.358	38.71
701.543	38.34
701.728	38.66
701.913	38.97
702.098	39.26
702.283	39.59
702.468	39.65
702.653	39.79
702.838	40.09
703.023	39.89
703.208	39.94
703.393	39.71
703.578	39.41
703.763	39.47
703.948	40.09
704.133	40.26
704.318	40.03
704.503	40.01
704.688	39.88
704.873	40.16
705.057	40.3
705.242	40.25
705.427	40.6
705.612	40.79
705.797	40.87
705.981	41.08
706.166	40.59
706.351	40.48
706.536	40.33
706.72	40.2
706.905	40.58
707.09	40.59
707.274	40.49
707.459	40.26
707.644	39.95
707.828	40.06
708.013	40
708.197	39.85
708.382	39.6
708.567	39.84
708.751	39.76
708.936	39.51
709.12	39.29
709.305	38.82
709.489	39.16
709.673	39.15
709.858	38.79
710.042	39.05
710.227	38.96
710.411	39.01
710.596	39.02
710.78	39.32
710.964	39.15
711.149	39.25
711.333	39.72
711.517	40.09
711.702	40.12
711.886	39.96
712.07	39.83
712.254	40.14
712.438	39.99
712.623	39.96
712.807	40.06
712.991	40.1
713.175	40.06
713.359	40.56
713.544	40.18
713.728	39.85
713.912	39.84
714.096	39.86
714.28	40.17
714.464	40.57
714.648	40.37
714.832	40.35
715.016	40.18
715.2	39.81
715.384	39.83
715.568	39.87
715.752	39.56
715.936	39.66
716.12	39.77
716.304	39.38
716.488	39.54
716.671	39.63
716.855	39.56
717.039	39.89
717.223	39.8
717.407	40.12
717.59	40.26
717.774	39.97
717.958	40.01
718.142	40.38
718.325	40.35
718.509	40.16
718.693	40.66
718.877	40.56
719.06	40.16
719.244	39.97
719.428	40.11
719.611	40.44
719.795	40.67
719.978	40.95
720.162	41.49
720.345	41.54
720.529	41.17
720.713	41.51
720.896	41.66
721.08	41.57
721.263	41.36
721.446	41.26
721.63	41.04
721.813	40.44
721.997	40.13
722.18	39.87
722.364	39.83
722.547	39.68
722.73	39.77
722.914	40.09
723.097	40.21
723.28	40.19
723.464	39.88
723.647	40.36
723.83	40.3
724.013	40.36
724.197	40.72
724.38	40.66
724.563	40.49
724.746	40.86
724.929	40.93
725.112	40.42
725.296	40.19
725.479	40.02
725.662	39.77
725.845	40.1
726.028	39.72
726.211	39.81
726.394	40.15
726.577	40.24
726.76	40.51
726.943	40.26
727.126	40.1
727.309	40.27
727.492	40.37
727.675	40.57
727.858	40.49
728.041	40.97
728.224	41.02
728.407	40.92
728.589	40.92
728.772	41.13
728.955	40.97
729.138	41.41
729.321	42.07
729.503	41.68
729.686	41.42
729.869	41.34
730.052	41.01
730.234	40.78
730.417	40.58
730.6	40.51
730.782	40.72
730.965	40.76
731.148	40.09
731.33	40.56
731.513	40.1
731.695	39.65
731.878	39.53
732.061	39.53
732.243	39.78
732.426	40.29
732.608	40.58
732.791	40.53
732.973	40.35
733.156	39.9
733.338	39.98
733.52	40.04
733.703	39.35
733.885	39.31
734.068	39.45
734.25	39.7
734.432	39.72
734.615	39.81
734.797	39.21
734.979	38.91
735.162	39.02
735.344	39.77
735.526	40.06
735.708	39.69
735.891	39.93
736.073	40.22
736.255	40.15
736.437	40.06
736.619	40.3
736.802	40.26
736.984	39.98
737.166	40.4
737.348	40.41
737.53	40.29
737.712	39.71
737.894	40.4
738.076	40.4
738.258	39.94
738.44	40.14
738.622	40.66
738.804	40.43
738.986	40.22
739.168	40.39
739.35	40.58
739.532	40.39
739.714	40.49
739.896	40.73
740.078	40.89
740.259	40.42
740.441	40.64
740.623	41.6
740.805	41.76
740.987	42.04
741.168	42.32
741.35	42.3
741.532	42.01
741.714	42.22
741.895	42.12
742.077	42.29
742.259	42.56
742.44	42.6
742.622	42.98
742.804	42.82
742.985	42.33
743.167	42.13
743.348	41.22
743.53	41.36
743.711	41.37
743.893	42.07
744.075	41.25
744.256	41.25
744.438	41.14
744.619	40.87
744.8	40.41
744.982	39.72
745.163	40.13
745.345	40.03
745.526	40.16
745.707	40.18
745.889	39.77
746.07	40.07
746.252	39.33
746.433	39.94
746.614	40.4
746.795	40.73
746.977	40.7
747.158	40.95
747.339	41.49
747.52	41.3
747.702	41.59
747.883	41.06
748.064	41.02
748.245	41
748.426	40.52
748.607	40.92
748.788	41.33
748.97	41.13
749.151	41.14
749.332	40.68
749.513	40.89
749.694	39.78
749.875	40.06
750.056	39.67
750.237	40.01
750.418	39.89
750.599	39.87
750.78	39.84
750.96	39.25
751.141	39.03
751.322	39.53
751.503	39.58
751.684	40.1
751.865	39.09
752.046	39.45
752.226	39.17
752.407	39.33
752.588	39.16
752.769	39.89
752.949	40.57
753.13	40.91
753.311	41.16
753.492	40.64
753.672	40.55
753.853	40.76
754.034	40.75
754.214	41.19
754.395	41.54
754.575	41.88
754.756	42.36
754.937	42.94
755.117	42.84
755.298	42.29
755.478	42.14
755.659	41.52
755.839	41.77
756.02	40.8
756.2	39.91
756.381	40.06
756.561	40.43
756.741	41.21
756.922	40.69
757.102	40.39
757.283	39.98
757.463	39.63
757.643	40.11
757.823	40.27
758.004	40.77
758.184	40.94
758.364	40.61
758.545	41.33
758.725	41.35
758.905	41.88
759.085	41.27
759.265	41.76
759.446	41.23
759.626	41.07
759.806	41.07
759.986	41.03
760.166	40.63
760.346	41.24
760.526	41.04
760.706	41.58
760.886	41.1
761.066	40.92
761.246	40.29
761.426	40.09
761.606	39.99
761.786	40.4
761.966	40.2
762.146	40.74
762.326	40.48
762.506	40.87
762.686	40.47
762.866	40.29
763.046	40.25
763.225	40.28
763.405	40.19
763.585	40.46
763.765	40.74
763.945	41.02
764.124	40.84
764.304	41.18
764.484	40.7
764.664	40.75
764.843	40.84
765.023	40.82
765.203	41.19
765.382	41.68
765.562	41.77
765.741	41.63
765.921	41.16
766.101	41.68
766.28	41.21
766.46	41.46
766.639	41.43
766.819	41.51
766.998	41.52
767.178	41.12
767.357	41.3
767.537	41.19
767.716	40.74
767.896	40.86
768.075	41.11
768.254	41.37
768.434	40.94
768.613	40.73
768.792	41.03
768.972	40.61
769.151	40.14
769.33	40.07
769.51	40.39
769.689	39.95
769.868	39.72
770.047	39.57
770.226	39.67
770.406	40.25
770.585	40.3
770.764	40.01
770.943	40.08
771.122	39.3
771.301	39.49
771.48	39.57
771.66	39.26
771.839	38.98
772.018	39.13
772.197	39.18
772.376	39.66
772.555	39.08
772.734	38.55
772.913	38.88
773.092	38.25
773.271	38.38
773.449	39.22
773.628	39.21
773.807	39.01
773.986	39.41
774.165	40.27
774.344	40.59
774.523	40.92
774.701	40.29
774.88	40.25
775.059	39.91
775.238	39.2
775.417	39.91
775.595	39.8
775.774	38.94
775.953	38.72
776.131	39.05
776.31	39.02
776.489	38.29
776.667	37.73
776.846	37.43
777.025	37.23
777.203	37.17
777.382	36.99
777.56	36.81
777.739	35.92
777.917	37.17
778.096	36.93
778.274	37.33
778.453	38.26
778.631	37.64
778.81	37.34
778.988	38.01
779.166	37.76
779.345	37.89
779.523	38.93
779.702	40.02
779.88	40.16
780.058	40.48
780.237	38.96
780.415	40.03
780.593	40.26
780.771	39.44
780.95	40
781.128	40.74
781.306	40.16
781.484	40.25
781.662	40.31
781.841	38.65
782.019	38.13
782.197	38.42
782.375	38.23
782.553	38
782.731	38.14
782.909	37.84
783.087	38.18
783.265	38.51
783.443	37.88
783.621	39.19
783.799	39.53
783.977	39.23
784.155	40.52
784.333	40.44
784.511	39.62
784.689	40.66
784.867	41.64
785.045	41.42
785.223	41.75
785.4	41.72
785.578	41.99
785.756	41.45
785.934	40.16
786.112	39.76
786.289	40.92
786.467	40.6
786.645	40.14
786.823	41.09
787	40.67
787.178	40.53
787.356	40.13
787.533	40.06
787.711	40.3
787.889	40.31
788.066	40.56
788.244	40.6
788.421	41.26
788.599	40.6
788.776	40.65
788.954	41.13
789.131	40.79
789.309	40.28
789.486	39.63
789.664	40.21
789.841	39.82
790.019	39.56
790.196	39.02
790.373	39.53
790.551	39.97
790.728	40.04
790.906	40.13
791.083	40.63
791.26	40
791.437	40.96
791.615	41.56
791.792	42.16
791.969	41.67
792.146	42.21
792.324	42.51
792.501	43.36
792.678	43.84
792.855	43.15
793.032	42.68
793.209	43.37
793.387	42.79
793.564	43.03
793.741	42.03
793.918	42
794.095	41.95
794.272	42.46
794.449	41.59
794.626	40.61
794.803	40.19
794.98	38.8
795.157	39.99
795.334	40.16
795.511	40.28
795.688	40.27
795.864	40.71
796.041	40.9
796.218	40.88
796.395	40.81
796.572	40.82
796.749	40.5
796.925	41.51
797.102	41.66
797.279	42.67
797.456	43.55
797.632	43.58
797.809	42.81
797.986	42.99
798.162	42.48
798.339	42.93
798.516	42.79
798.692	42.79
798.869	42.2
799.046	43.01
799.222	42.5
799.399	42.44
799.575	42.18
799.752	40.86
799.928	40.21
800.105	40.86
800.281	41.47
800.458	41.9
800.634	42.21
800.811	42.08
800.987	42.72
801.163	42.84
801.34	42.18
801.516	42.79
801.692	41.4
801.869	42.02
802.045	41.41
802.221	42.25
802.398	41.14
802.574	40.36
802.75	40.47
802.926	40.66
803.103	41.14
803.279	40.28
803.455	39.72
803.631	40.68
803.807	40.81
803.983	42.89
804.16	41.73
804.336	41.5
804.512	41.91
804.688	42.91
804.864	43.86
805.04	43.39
805.216	41.83
805.392	41.89
805.568	41.96
805.744	42.73
805.92	42.76
806.096	41.91
806.272	40.88
806.448	41.95
806.623	42
806.799	41.28
806.975	41.26
807.151	40.24
807.327	39.75
807.503	40.66
807.678	41.46
807.854	41.5
808.03	40.42
808.206	40.44
808.381	41.67
808.557	41.8
808.733	40.7
808.908	40.86
809.084	40.58
809.26	40.65
809.435	40.49
809.611	41.24
809.787	41.17
809.962	40.39
810.138	40.81
810.313	41.09
810.489	41.02
810.664	39.66
810.84	38.87
811.015	39.56
811.191	39.64
811.366	39.77
811.542	39.08
811.717	39.98
811.892	40.8
812.068	39.95
812.243	39.72
812.419	38.66
812.594	38.15
812.769	38.08
812.944	37.73
813.12	39.1
813.295	38.15
813.47	38.64
813.645	38.68
813.821	38.71
813.996	38.5
814.171	37.9
814.346	38.85
814.521	38.12
814.697	39.44
814.872	40
815.047	40.03
815.222	42.04
815.397	41.44
815.572	41.27
815.747	40.65
815.922	40.94
816.097	42.66
816.272	42.78
816.447	42.46
816.622	42.17
816.797	42.02
816.972	41.14
817.147	41.48
817.322	40.94
817.496	40.19
817.671	40.96
817.846	41.85
818.021	41.95
818.196	41.68
818.371	39.11
818.545	38.64
818.72	39.12
818.895	38.79
819.069	39.84
819.244	40.45
819.419	40.52
819.594	40.78
819.768	40.72
819.943	39.95
820.117	40.17
820.292	40
820.467	39.85
820.641	40.49
820.816	40.67
820.99	40.55
821.165	40.81
821.339	40.63
821.514	40.37
821.688	40.42
821.863	40.17
822.037	39.86
822.212	39.74
822.386	39.72
822.56	39.86
822.735	40.02
822.909	39.88
823.084	39.75
823.258	39.63
823.432	39.38
823.606	39.35
823.781	39.31
823.955	39.31
824.129	39.48
824.303	39.91
824.478	40.49
824.652	40.52
824.826	40.56
825	40.37
825.174	40.47
825.348	40.58
825.523	41.03
825.697	41.13
825.871	40.85
826.045	41.11
826.219	41.17
826.393	41.37
826.567	41.53
826.741	41.19
826.915	41.17
827.089	41.21
827.263	41.14
827.437	41.21
827.611	41.31
827.784	41.35
827.958	41.63
828.132	42.23
828.306	42.08
828.48	41.97
828.654	42.1
828.827	41.45
829.001	41.49
829.175	41.61
829.349	41.54
829.522	41.81
829.696	42.49
829.87	42.13
830.044	41.84
830.217	41.84
830.391	41.38
830.565	41.9
830.738	41.78
830.912	41.01
831.085	41.28
831.259	41.15
831.432	41.32
831.606	41.67
831.779	41.6
831.953	40.78
832.126	41.94
832.3	42.12
832.473	42.2
832.647	41.83
832.82	41.64
832.994	42.01
833.167	42.43
833.34	42.88
833.514	42.77
833.687	42.25
833.86	42.96
834.034	43.3
834.207	43.11
834.38	42.45
834.553	41.86
834.727	40.9
834.9	41.03
835.073	41.34
835.246	40.95
835.419	40.54
835.593	40.61
835.766	41.55
835.939	41.3
836.112	39.89
836.285	39.87
836.458	40.05
836.631	40.27
836.804	40.24
836.977	42.4
837.15	42.76
837.323	41.85
837.496	40.91
837.669	40.86
837.842	40.96
838.015	38.71
838.188	39.09
838.361	39.58
838.533	37.95
838.706	38.63
838.879	37.83
839.052	39.53
839.225	38.36
839.398	38.47
839.57	39.26
839.743	39.98
839.916	41.85
840.088	39.88
840.261	42.17
840.434	41.85
840.607	40.67
840.779	42.18
840.952	41.03
841.124	41.43
841.297	40.29
841.47	41.22
841.642	42.41
841.815	43.75
841.987	45.13
842.16	43.54
842.332	44.89
842.505	43.48
842.677	45.73
842.85	48.16
843.022	49.55
843.194	51.13
843.367	53.11
843.539	53.88
843.712	50.74
843.884	49.64
844.056	47.45
844.229	47.26
844.401	46.35
844.573	46.18
844.745	46.36
844.918	41.84
845.09	42.96
845.262	41.17
845.434	40.8
845.606	39.4
845.779	40.74
845.951	43.49
846.123	42.2
846.295	44.24
846.467	44.99
846.639	45.05
846.811	43.73
846.983	44.37
847.155	46.07
847.327	41.08
847.499	38.79
847.671	38.24
847.843	40.72
848.015	38.27
848.187	40.75
848.359	40.54
848.531	40.28
848.703	40.53
848.875	40.03
849.047	42.31
849.218	38.58
849.39	41.41
849.562	47.1
849.734	48.24
849.905	48.37
850.077	43.47
850.249	42.23
850.421	41.87
850.592	44.98
850.764	46.72
850.936	41.94
851.107	44.77
851.279	42.06
851.451	41.95
851.622	41.4
851.794	38.29
851.965	38.2
852.137	40.17
852.308	42.58
852.48	45.33
852.651	44.17
852.823	42.63
852.994	40.2
853.166	44.87
853.337	42.89
853.509	46.69
853.68	47.32
853.851	50.03
854.023	49.13
854.194	48.89
854.365	48.49
854.537	50.54
854.708	51.29
854.879	50.51
855.05	49.21
855.222	51.19
855.393	50.32
855.564	53.16
855.735	50.71
855.906	51.96
856.078	48.95
856.249	52.92
856.42	54.98
856.591	53.81
856.762	50.6
856.933	51.52
857.104	53.37
857.275	55.77
857.446	54.48
857.617	56.29
857.788	51.6
857.959	56.08
858.13	55.75
858.301	59.04
858.472	54.75
858.643	54.71
858.814	54.68
858.985	52.76
859.155	49.77
859.326	47.02
859.497	45.11
859.668	43.76
859.839	41.95
860.009	43.88
860.18	40.36
860.351	40.37
860.522	38.15
860.692	37.64
860.863	35.84
861.034	37.72
861.204	41.27
861.375	40.33
861.546	44.16
861.716	46.09
861.887	48.96
862.057	47.86
862.228	51.35
862.398	50.8
862.569	51.5
862.739	53.5
862.91	51.83
863.08	53.57
863.251	49.61
863.421	48.18
863.592	48.66
863.762	45.47
863.932	42.73
864.103	42.02
864.273	46.11
864.443	42.47
864.614	40.8
864.784	36.6
864.954	30.88
865.125	37.62
865.295	40.77
865.465	46.35
865.635	47.99
865.805	49.8
865.976	49.18
866.146	48.74
866.316	45.57
866.486	45.33
866.656	41.29
866.826	42.29
866.996	46.75
867.166	50.39
867.336	49.96
867.506	49.12
867.676	52.19
867.846	45.23
868.016	44.65
868.186	44.51
868.356	46.3
868.526	51.52
868.696	49.7
868.866	49.23
869.036	53.22
869.206	49.27
869.376	49.72
869.545	47.45
869.715	44.23
869.885	39.33
870.055	44.23
870.224	42.39
870.394	44.63
870.564	44.3
870.734	40.96
870.903	42.18
871.073	49.58
871.243	49.59
871.412	54.93
871.582	54.59
871.751	55.62
871.921	56.57
872.091	56.82
872.26	56.92
872.43	58.29
872.599	58.63
872.769	57.96
872.938	55.42
873.108	52.86
873.277	48.26
873.446	44.46
873.616	44.72
873.785	40.97
873.955	41.66
874.124	44.46
874.293	44.7
874.463	45.55
874.632	48.51
874.801	46.41
874.971	47.97
875.14	52.2
875.309	52.24
875.478	52.9
875.647	52.23
875.817	50.97
875.986	52.61
876.155	51.54
876.324	48.88
876.493	44.21
876.662	41.78
876.831	39.15
877	41.6
877.17	39.85
877.339	38.31
877.508	38.24
877.677	40.5
877.846	44.07
878.015	41.51
878.184	43.79
878.352	44.32
878.521	45.33
878.69	46.88
878.859	47.61
879.028	45.4
879.197	42.74
879.366	44.39
879.534	43.6
879.703	44.5
879.872	41.48
880.041	37.94
880.21	37.99
880.378	37.28
880.547	36.97
880.716	37.32
880.884	37.28
881.053	37.27
881.222	38.38
881.39	39
881.559	38.42
881.727	38.24
881.896	37.67
882.065	38.56
882.233	39.83
882.402	40.37
882.57	39.79
882.739	39.8
882.907	40.25
883.076	40.17
883.244	40.18
883.412	40.02
883.581	39.74
883.749	39.77
883.918	40.09
884.086	40.39
884.254	39.91
884.423	39.81
884.591	39.39
884.759	40.89
884.927	41.36
885.096	40.8
885.264	41.64
885.432	41.7
885.6	41.25
885.769	42.28
885.937	41.74
886.105	42.75
886.273	43.04
886.441	44.43
886.609	43.67
886.777	44.93
886.945	44.84
887.113	45.29
887.281	46.42
887.449	46.14
887.617	44.96
887.785	43.02
887.953	40.83
888.121	42.2
888.289	39.08
888.457	38.42
888.625	35.93
888.793	35.29
888.961	34.44
889.129	31.64
889.296	29.54
889.464	25.37
889.632	23.25
889.8	25.84
889.967	30.53
890.135	29.74
