Data from 2938544_Reflection_1.txt Node
Date: Mon Jun 15 00:28:58 EDT 2015
User: robert
Spectrometer: USB4E03002
Autoset integration time: false
Trigger mode: 4
Integration Time (sec): 1.000000E-1
Scans to average: 10
Electric dark correction enabled: true
Nonlinearity correction enabled: false
Boxcar width: 5
Stray light correction enabled: false
XAxis mode: Wavelengths
Stop averaging: false
Number of Pixels in Spectrum: 3648
>>>>>Begin Spectral Data<<<<<
177.575	51.07
177.794	33.08
178.014	77.59
178.233	585.71
178.452	-773.17
178.672	-89.57
178.891	56.2
179.11	54.58
179.33	48.09
179.549	68.64
179.768	42.56
179.987	64.08
180.207	152.38
180.426	126.95
180.645	8.7
180.864	-57.33
181.084	-122.83
181.303	-74.87
181.522	-57.34
181.741	-77.81
181.96	-118.12
182.179	-155.89
182.398	-99.16
182.618	-97.56
182.837	-95.05
183.056	-72.68
183.275	-62.26
183.494	-52.93
183.713	-86.26
183.932	-75.5
184.151	-92.64
184.37	-63.33
184.589	-25.46
184.808	-5.62
185.027	12.33
185.246	0.63
185.465	14.47
185.684	23.7
185.903	26.42
186.122	41.23
186.341	40.55
186.56	41.34
186.779	38.16
186.998	36.45
187.216	28.15
187.435	31.49
187.654	40.33
187.873	38.97
188.092	31.42
188.311	31.59
188.53	32.06
188.748	44.4
188.967	47.97
189.186	59.31
189.405	59.33
189.623	79.34
189.842	63.75
190.061	68.59
190.28	44.11
190.498	47.05
190.717	42.71
190.936	40.36
191.154	19.39
191.373	17.87
191.592	4.05
191.81	-12.93
192.029	-42.27
192.248	-61.69
192.466	-77.1
192.685	-80.24
192.904	-56.25
193.122	-70.06
193.341	-56.78
193.559	-36.56
193.778	-61.19
193.996	-62.14
194.215	-50.65
194.433	-82
194.652	14.06
194.87	11.98
195.089	16.27
195.307	3.7
195.526	4.3
195.744	2.73
195.963	-1.45
196.181	-18.91
196.399	-29.95
196.618	-84.09
196.836	-32.71
197.055	-86.51
197.273	-121.3
197.491	-306.7
197.71	-77.78
197.928	-33.43
198.146	-41.74
198.365	-60.53
198.583	37.68
198.801	13.09
199.019	26.03
199.238	42.52
199.456	21.98
199.674	20.75
199.892	8.16
200.111	-8.94
200.329	-20.29
200.547	5.49
200.765	-6.55
200.983	-10.27
201.202	0.97
201.42	0.67
201.638	-11.17
201.856	-0.77
202.074	-2.49
202.292	14.62
202.51	21.44
202.728	23.3
202.946	9.69
203.165	20.24
203.383	8.96
203.601	18.73
203.819	9.33
204.037	5.04
204.255	13.32
204.473	11
204.691	-1.37
204.909	-4.85
205.127	-27.12
205.345	-33.33
205.562	-39.18
205.78	-23.78
205.998	-28.93
206.216	-15.25
206.434	7.03
206.652	-12.13
206.87	-27.93
207.088	-17.11
207.306	3.69
207.523	14.77
207.741	18.16
207.959	17.26
208.177	21.86
208.395	35.26
208.612	41.97
208.83	29.71
209.048	31.03
209.266	43.52
209.483	36.94
209.701	15.9
209.919	11.59
210.136	9.98
210.354	6.4
210.572	0.34
210.79	-6.31
211.007	-20.84
211.225	-33.33
211.442	-14.66
211.66	-25.57
211.878	-14.28
212.095	-83.8
212.313	-54.86
212.53	-44.71
212.748	-20.85
212.966	-17.25
213.183	-21.07
213.401	-21.55
213.618	-9.41
213.836	-14.44
214.053	-35.2
214.271	-46.51
214.488	22.66
214.705	8.61
214.923	2.51
215.14	-0.33
215.358	-12.42
215.575	3.4
215.793	5.63
216.01	11.04
216.227	-6.03
216.445	17.2
216.662	28.15
216.879	14.23
217.097	18.21
217.314	16.65
217.531	15.93
217.749	17.58
217.966	15.14
218.183	18.18
218.4	7.47
218.618	11.86
218.835	2.32
219.052	4.44
219.269	2.81
219.487	9.64
219.704	7.13
219.921	4.01
220.138	17.37
220.355	11.99
220.572	12.37
220.79	12.48
221.007	16.5
221.224	16.77
221.441	9.08
221.658	8.06
221.875	2.23
222.092	-1.16
222.309	-2.79
222.526	-4.27
222.743	-2.96
222.96	-4.55
223.177	1.98
223.394	0
223.611	-2.37
223.828	-7.74
224.045	-2.48
224.262	-1.25
224.479	4.71
224.696	4.06
224.913	-1.83
225.13	0.71
225.347	4.52
225.564	4.69
225.781	4.01
225.997	4.79
226.214	8.38
226.431	7.55
226.648	9
226.865	8.27
227.082	8.22
227.298	8.91
227.515	8.28
227.732	7.13
227.949	7.43
228.165	8.41
228.382	9.43
228.599	10.06
228.816	11.03
229.032	9.22
229.249	9.6
229.466	9.75
229.682	9.31
229.899	9.83
230.116	9.45
230.332	8.03
230.549	6.81
230.765	7.59
230.982	6.28
231.199	3.44
231.415	4.86
231.632	4.87
231.848	4.23
232.065	6.79
232.281	6.69
232.498	7.62
232.714	7.99
232.931	7.96
233.147	5.51
233.364	5.42
233.58	7.26
233.797	7.59
234.013	6.31
234.23	7.65
234.446	7.12
234.662	7
234.879	7.56
235.095	7.12
235.312	10.19
235.528	9.41
235.744	9.54
235.961	8.52
236.177	9.25
236.393	8.85
236.61	8.49
236.826	5.79
237.042	5.03
237.258	4.14
237.475	3.71
237.691	1.9
237.907	3.73
238.123	3.58
238.339	3.86
238.556	3.05
238.772	4.35
238.988	4.57
239.204	6
239.42	5.65
239.636	5.6
239.853	6.19
240.069	5.8
240.285	5.88
240.501	6.77
240.717	6.51
240.933	6.93
241.149	7.27
241.365	6.89
241.581	6.73
241.797	6.53
242.013	6.43
242.229	6.64
242.445	7.24
242.661	7.83
242.877	7.06
243.093	7.42
243.309	7.64
243.525	6.66
243.741	7.05
243.957	7.12
244.173	7.84
244.388	7.99
244.604	8.07
244.82	7.97
245.036	7.33
245.252	7.24
245.468	7.35
245.683	7.4
245.899	7.66
246.115	7.98
246.331	8
246.547	8.24
246.762	8.29
246.978	7.96
247.194	7.86
247.409	8.07
247.625	8.72
247.841	8.7
248.057	8.21
248.272	8.33
248.488	8.11
248.703	8.5
248.919	7.77
249.135	7.35
249.35	7.63
249.566	7.59
249.782	7.48
249.997	6.47
250.213	6.65
250.428	6.6
250.644	6.28
250.859	5.97
251.075	4.95
251.29	5.18
251.506	4.83
251.721	5.5
251.937	5.27
252.152	6.25
252.368	6.62
252.583	5.97
252.798	5.32
253.014	5.18
253.229	4.48
253.445	5.85
253.66	5.57
253.875	7.47
254.091	5.88
254.306	6.67
254.521	5.07
254.737	5.97
254.952	6.8
255.167	7.67
255.383	8.69
255.598	8.76
255.813	7.89
256.028	7.52
256.244	6.51
256.459	6.71
256.674	6.41
256.889	6.65
257.104	5.78
257.32	5.66
257.535	5.86
257.75	5.32
257.965	5.33
258.18	5.47
258.395	5.45
258.61	5.5
258.826	5.63
259.041	5.36
259.256	5.44
259.471	5.71
259.686	5.62
259.901	5.25
260.116	5.37
260.331	5.74
260.546	5.39
260.761	5.44
260.976	5.36
261.191	4.79
261.406	4.91
261.621	5.05
261.836	4.68
262.05	5.08
262.265	4.84
262.48	4.25
262.695	4.09
262.91	4.77
263.125	4.53
263.34	4.56
263.555	4.44
263.769	4.68
263.984	3.92
264.199	3.39
264.414	3
264.629	3.05
264.843	3.86
265.058	3.52
265.273	3.28
265.488	3.13
265.702	3.61
265.917	4.16
266.132	4.4
266.346	3.83
266.561	4.14
266.776	4.04
266.99	3.78
267.205	3.04
267.42	3.05
267.634	2.86
267.849	3.08
268.063	2.9
268.278	2.78
268.492	2.95
268.707	3.63
268.922	4.17
269.136	4.25
269.351	4.66
269.565	4.93
269.78	5.22
269.994	5.32
270.209	5.59
270.423	5.08
270.637	4.92
270.852	4.66
271.066	4.92
271.281	4.81
271.495	4.5
271.709	4.63
271.924	4.6
272.138	4.45
272.353	4.33
272.567	4.27
272.781	4.92
272.996	4.98
273.21	4.42
273.424	3.88
273.638	3.39
273.853	4.01
274.067	3.67
274.281	4.15
274.495	3.53
274.71	3.26
274.924	3.02
275.138	3.18
275.352	3.37
275.566	3.54
275.781	3.6
275.995	3.74
276.209	3.52
276.423	3.78
276.637	3.29
276.851	3.64
277.065	4.25
277.279	4.18
277.493	3.3
277.707	3.5
277.921	3.93
278.135	4.43
278.349	4.42
278.563	3.91
278.777	4.06
278.991	4.51
279.205	4.19
279.419	3.79
279.633	4.57
279.847	5.03
280.061	4.8
280.275	4.51
280.489	3.88
280.703	3.53
280.917	4.13
281.131	3.97
281.344	3.54
281.558	4.21
281.772	4.78
281.986	4.34
282.2	4.01
282.414	4.03
282.627	4.04
282.841	4.53
283.055	4.56
283.269	4.66
283.482	5.29
283.696	5.62
283.91	5.3
284.123	4.81
284.337	4.48
284.551	4.64
284.764	4.56
284.978	4.93
285.192	4.96
285.405	5.06
285.619	4.97
285.833	4.46
286.046	4.14
286.26	4.07
286.473	4.15
286.687	4.45
286.9	4.45
287.114	4.67
287.327	4.35
287.541	4.03
287.754	4.51
287.968	4.38
288.181	4.27
288.395	4.57
288.608	4.43
288.822	4.47
289.035	4.27
289.248	3.8
289.462	3.73
289.675	4.1
289.889	4.41
290.102	4.35
290.315	4.41
290.529	4.9
290.742	4.42
290.955	4.6
291.169	4.76
291.382	4.93
291.595	6.06
291.808	6.03
292.022	5.61
292.235	5.19
292.448	5.25
292.661	5.1
292.875	4.37
293.088	4.34
293.301	4.57
293.514	4.56
293.727	4.82
293.94	4.62
294.153	4.58
294.367	4.62
294.58	4.79
294.793	4.81
295.006	5.12
295.219	5.48
295.432	5.84
295.645	5.87
295.858	5.89
296.071	5.83
296.284	5.69
296.497	5.86
296.71	5.96
296.923	6.25
297.136	6.14
297.349	6.07
297.562	6
297.775	5.8
297.988	5.87
298.201	5.93
298.414	6.25
298.626	6.3
298.839	6.09
299.052	6.19
299.265	5.8
299.478	5.96
299.691	5.87
299.903	6.09
300.116	6.15
300.329	5.58
300.542	5.42
300.755	5
300.967	4.87
301.18	4.59
301.393	4.27
301.605	4.57
301.818	4.45
302.031	4.29
302.243	3.99
302.456	3.8
302.669	4.52
302.881	4.52
303.094	4.74
303.307	4.67
303.519	4.72
303.732	4.76
303.944	4.6
304.157	4.6
304.37	4.74
304.582	4.87
304.795	5.39
305.007	5.24
305.22	5.3
305.432	5.58
305.645	5.95
305.857	6.47
306.069	6.97
306.282	6.97
306.494	6.93
306.707	7.39
306.919	7.27
307.132	7.01
307.344	6.87
307.556	6.83
307.769	6.34
307.981	6.28
308.193	6.47
308.406	5.94
308.618	5.84
308.83	5.89
309.043	5.54
309.255	5.65
309.467	5.44
309.679	5.23
309.892	5.4
310.104	5.57
310.316	5.54
310.528	5.04
310.74	5.49
310.953	5.56
311.165	5.54
311.377	5.7
311.589	5.83
311.801	6.1
312.013	6.4
312.225	6.14
312.437	6.23
312.649	6.21
312.862	6.52
313.074	5.81
313.286	5.98
313.498	6.3
313.71	5.94
313.922	5.77
314.134	5.92
314.346	5.84
314.558	5.67
314.77	5.53
314.982	5.62
315.193	5.5
315.405	6.02
315.617	5.78
315.829	5.43
316.041	5.62
316.253	5.64
316.465	5.56
316.677	5.6
316.888	5.84
317.1	6.18
317.312	6.31
317.524	6.48
317.736	6.56
317.947	6.82
318.159	6.58
318.371	6.65
318.583	6.72
318.794	6.94
319.006	7.22
319.218	7.7
319.43	7.89
319.641	7.76
319.853	7.77
320.064	7.57
320.276	7.42
320.488	7.99
320.699	7.56
320.911	7.45
321.123	7.57
321.334	6.92
321.546	7.09
321.757	6.17
321.969	5.91
322.18	6.29
322.392	7.02
322.603	7.21
322.815	7.3
323.026	7.87
323.238	8.01
323.449	7.68
323.661	8.03
323.872	7.59
324.083	8.17
324.295	8.03
324.506	7.63
324.718	7.13
324.929	7.05
325.14	6.43
325.352	6.31
325.563	6.63
325.774	6.66
325.986	6.68
326.197	6.26
326.408	6.05
326.62	6.21
326.831	6.09
327.042	6.24
327.253	6.59
327.464	6.84
327.676	6.78
327.887	6.39
328.098	6.56
328.309	6.52
328.52	7.36
328.732	7.12
328.943	6.98
329.154	7.25
329.365	7.44
329.576	7.15
329.787	7.2
329.998	6.99
330.209	7.26
330.42	6.94
330.631	6.86
330.842	6.65
331.053	7.12
331.264	7.51
331.475	7.33
331.686	6.73
331.897	6.49
332.108	6.67
332.319	6.94
332.53	6.86
332.741	7.28
332.952	7.28
333.163	7.01
333.374	6.9
333.585	6.86
333.795	6.95
334.006	7.28
334.217	7.14
334.428	7.02
334.639	6.98
334.849	6.98
335.06	6.65
335.271	6.47
335.482	6.56
335.692	6.61
335.903	6.38
336.114	6.38
336.325	6.5
336.535	6.55
336.746	6.75
336.957	6.55
337.167	6.34
337.378	6.14
337.589	6.39
337.799	6.15
338.01	5.91
338.22	6.01
338.431	6.25
338.642	5.53
338.852	5.83
339.063	5.64
339.273	5.79
339.484	5.7
339.694	5.98
339.905	5.55
340.115	5.99
340.326	6.03
340.536	6.23
340.746	6.11
340.957	6.6
341.167	6.36
341.378	6.5
341.588	6.3
341.799	6.48
342.009	6.35
342.219	6.35
342.43	6.08
342.64	5.89
342.85	5.45
343.061	5.5
343.271	6.01
343.481	6.29
343.691	6.29
343.902	6.5
344.112	6.46
344.322	6.2
344.532	6.51
344.743	6.65
344.953	7.03
345.163	7.19
345.373	7.26
345.583	6.98
345.793	7.09
346.004	7.24
346.214	7.16
346.424	7.23
346.634	7.31
346.844	7.63
347.054	7.73
347.264	7.52
347.474	7.79
347.684	7.14
347.894	6.93
348.104	6.5
348.314	6.13
348.524	6.09
348.734	6.24
348.944	6.36
349.154	5.75
349.364	5.63
349.574	5.41
349.784	4.97
349.994	5.31
350.204	5.13
350.413	5.36
350.623	5.26
350.833	5.3
351.043	5.09
351.253	5.15
351.463	5.48
351.672	5.49
351.882	5.69
352.092	5.85
352.302	5.89
352.511	5.98
352.721	5.82
352.931	5.87
353.141	5.7
353.35	5.69
353.56	5.78
353.77	5.54
353.979	5.72
354.189	5.84
354.399	5.9
354.608	6.04
354.818	6.12
355.027	6.13
355.237	6.32
355.447	6.4
355.656	6.31
355.866	5.93
356.075	6.14
356.285	5.99
356.494	5.78
356.704	5.51
356.913	5.16
357.123	5.17
357.332	5.29
357.542	5.34
357.751	5.47
357.96	5.35
358.17	5.75
358.379	5.61
358.589	5.45
358.798	5.49
359.007	5.61
359.217	6.07
359.426	5.84
359.635	5.7
359.845	5.45
360.054	5.15
360.263	5.53
360.472	5.33
360.682	5.42
360.891	5.54
361.1	5.56
361.309	5.67
361.519	5.4
361.728	5.41
361.937	5.62
362.146	5.64
362.355	5.83
362.564	5.64
362.774	5.7
362.983	5.65
363.192	5.56
363.401	5.5
363.61	5.64
363.819	5.74
364.028	5.74
364.237	5.44
364.446	5.52
364.655	5.39
364.864	5.22
365.073	5.48
365.282	5.66
365.491	5.53
365.7	5.88
365.909	5.56
366.118	5.34
366.327	5.31
366.536	5.24
366.745	5.12
366.954	5.23
367.162	5.06
367.371	4.94
367.58	4.7
367.789	4.77
367.998	4.38
368.207	4.6
368.415	4.61
368.624	4.57
368.833	4.54
369.042	4.73
369.25	4.72
369.459	4.73
369.668	4.4
369.877	4.34
370.085	4.1
370.294	4.05
370.503	3.81
370.711	3.75
370.92	3.89
371.129	4.07
371.337	3.73
371.546	3.56
371.754	3.62
371.963	3.87
372.171	3.98
372.38	4.19
372.589	4.47
372.797	4.42
373.006	4.44
373.214	4.5
373.423	4.55
373.631	4.72
373.84	4.94
374.048	5.12
374.256	4.92
374.465	4.91
374.673	4.75
374.882	4.52
375.09	4.78
375.298	4.7
375.507	4.68
375.715	4.65
375.923	4.77
376.132	4.49
376.34	4.38
376.548	4.51
376.757	4.49
376.965	4.67
377.173	4.68
377.381	4.48
377.59	4.5
377.798	4.68
378.006	4.61
378.214	4.42
378.423	4.46
378.631	4.49
378.839	4.47
379.047	4.38
379.255	4.35
379.463	4.41
379.671	4.46
379.879	4.49
380.088	4.2
380.296	4.16
380.504	4.16
380.712	4.43
380.92	4.51
381.128	4.48
381.336	4.51
381.544	4.28
381.752	4.26
381.96	4.38
382.168	4.68
382.376	4.89
382.584	4.82
382.791	4.64
382.999	4.49
383.207	4.29
383.415	4.17
383.623	4.27
383.831	4.32
384.039	4.24
384.247	4.14
384.454	3.93
384.662	3.49
384.87	3.58
385.078	3.49
385.285	3.58
385.493	3.69
385.701	3.87
385.909	3.82
386.116	4.05
386.324	3.95
386.532	3.96
386.739	3.81
386.947	3.97
387.155	4.03
387.362	4.3
387.57	4.17
387.778	4
387.985	3.84
388.193	3.62
388.4	3.3
388.608	3.38
388.816	3.53
389.023	3.48
389.231	3.57
389.438	3.4
389.646	3.52
389.853	3.45
390.061	3.49
390.268	3.59
390.475	3.7
390.683	3.88
390.89	3.82
391.098	3.61
391.305	3.64
391.512	3.58
391.72	3.59
391.927	3.44
392.135	3.47
392.342	3.59
392.549	3.43
392.756	3.44
392.964	3.47
393.171	3.58
393.378	3.62
393.586	3.56
393.793	3.54
394	3.48
394.207	3.4
394.414	3.25
394.622	3.11
394.829	3.26
395.036	3.07
395.243	3.1
395.45	3.07
395.657	2.94
395.864	3.02
396.072	3.1
396.279	3.14
396.486	3.36
396.693	3.63
396.9	3.45
397.107	3.4
397.314	3.4
397.521	3.17
397.728	3.26
397.935	3.37
398.142	3.29
398.349	3.2
398.556	3.14
398.763	2.94
398.97	2.71
399.177	2.88
399.383	2.81
399.59	2.97
399.797	2.96
400.004	2.81
400.211	2.77
400.418	2.77
400.625	2.84
400.831	2.81
401.038	2.93
401.245	2.92
401.452	3.06
401.658	3.15
401.865	3.07
402.072	3.17
402.279	3.11
402.485	3.11
402.692	3.02
402.899	2.88
403.105	3.02
403.312	2.82
403.519	2.92
403.725	2.75
403.932	2.81
404.138	2.75
404.345	2.6
404.552	2.66
404.758	2.71
404.965	2.72
405.171	2.75
405.378	2.66
405.584	2.84
405.791	2.84
405.997	2.83
406.204	2.7
406.41	2.86
406.617	3.04
406.823	3
407.029	2.99
407.236	3.16
407.442	3.2
407.649	3.24
407.855	3.17
408.061	3.09
408.268	2.97
408.474	3
408.68	2.82
408.887	2.81
409.093	2.76
409.299	2.62
409.505	2.49
409.712	2.48
409.918	2.46
410.124	2.46
410.33	2.45
410.537	2.55
410.743	2.3
410.949	2.3
411.155	2.34
411.361	2.39
411.567	2.38
411.773	2.49
411.98	2.54
412.186	2.4
412.392	2.4
412.598	2.28
412.804	2.29
413.01	2.48
413.216	2.64
413.422	2.37
413.628	2.37
413.834	2.4
414.04	2.63
414.246	2.51
414.452	2.53
414.658	2.47
414.864	2.59
415.07	2.58
415.275	2.43
415.481	2.29
415.687	2.41
415.893	2.44
416.099	2.34
416.305	2.1
416.511	2.19
416.716	2.21
416.922	2.26
417.128	2.28
417.334	2.26
417.539	2.43
417.745	2.59
417.951	2.53
418.157	2.47
418.362	2.54
418.568	2.58
418.774	2.5
418.979	2.53
419.185	2.55
419.391	2.45
419.596	2.52
419.802	2.49
420.008	2.38
420.213	2.51
420.419	2.53
420.624	2.61
420.83	2.53
421.035	2.56
421.241	2.54
421.446	2.49
421.652	2.54
421.857	2.49
422.063	2.46
422.268	2.48
422.474	2.38
422.679	2.35
422.885	2.25
423.09	2.31
423.295	2.31
423.501	2.33
423.706	2.35
423.911	2.45
424.117	2.47
424.322	2.47
424.527	2.43
424.733	2.47
424.938	2.5
425.143	2.49
425.349	2.51
425.554	2.48
425.759	2.49
425.964	2.46
426.169	2.27
426.375	2.24
426.58	2.25
426.785	2.29
426.99	2.15
427.195	2.17
427.4	2.23
427.605	2.03
427.811	1.99
428.016	1.97
428.221	2.01
428.426	2.03
428.631	2.09
428.836	2.1
429.041	2.09
429.246	2.28
429.451	2.12
429.656	2.07
429.861	2.17
430.066	2.29
430.271	2.13
430.476	2.07
430.681	2.17
430.886	2.16
431.09	2.18
431.295	2.21
431.5	2.19
431.705	2.28
431.91	2.33
432.115	2.31
432.32	2.22
432.524	2.31
432.729	2.44
432.934	2.34
433.139	2.26
433.343	2.2
433.548	2.07
433.753	2.06
433.958	2.1
434.162	1.96
434.367	2.06
434.572	2.15
434.776	2.09
434.981	2.1
435.186	2.13
435.39	2.07
435.595	2.09
435.799	2.05
436.004	2.03
436.209	1.96
436.413	2.01
436.618	1.97
436.822	1.85
437.027	1.81
437.231	1.74
437.436	1.76
437.64	1.82
437.845	1.84
438.049	1.88
438.253	1.85
438.458	1.9
438.662	1.92
438.867	1.91
439.071	1.98
439.275	2.02
439.48	2.08
439.684	2.09
439.888	2.07
440.093	1.97
440.297	2.01
440.501	2.11
440.706	2.1
440.91	2.08
441.114	2.07
441.318	2.06
441.523	2.11
441.727	1.97
441.931	1.89
442.135	1.89
442.339	1.97
442.543	1.97
442.748	1.85
442.952	1.72
443.156	1.74
443.36	1.73
443.564	1.7
443.768	1.69
443.972	1.76
444.176	1.78
444.38	1.83
444.584	1.8
444.788	1.82
444.992	1.76
445.196	1.85
445.4	1.89
445.604	1.94
445.808	2.02
446.012	2.07
446.216	2.06
446.42	2.09
446.624	2.02
446.828	1.98
447.032	1.94
447.235	1.94
447.439	1.98
447.643	1.9
447.847	1.81
448.051	1.72
448.254	1.67
448.458	1.55
448.662	1.57
448.866	1.61
449.069	1.77
449.273	1.81
449.477	1.93
449.681	1.99
449.884	2.01
450.088	2.09
450.292	2.1
450.495	2.11
450.699	2.18
450.902	2.12
451.106	2.12
451.31	2.11
451.513	2.05
451.717	2.13
451.92	2.01
452.124	2.09
452.327	2.13
452.531	2.09
452.734	2.07
452.938	2.05
453.141	2.06
453.345	2.01
453.548	1.93
453.752	1.96
453.955	1.84
454.158	1.87
454.362	1.78
454.565	1.6
454.769	1.62
454.972	1.63
455.175	1.66
455.379	1.74
455.582	1.81
455.785	1.78
455.988	1.83
456.192	1.71
456.395	1.7
456.598	1.77
456.801	1.88
457.005	1.83
457.208	1.89
457.411	1.93
457.614	1.9
457.817	1.85
458.021	1.89
458.224	1.84
458.427	1.96
458.63	2.06
458.833	1.96
459.036	1.94
459.239	1.95
459.442	1.85
459.645	1.83
459.848	1.76
460.051	1.79
460.254	1.8
460.457	1.9
460.66	1.83
460.863	1.69
461.066	1.72
461.269	1.76
461.472	1.8
461.675	1.82
461.878	1.81
462.081	1.79
462.284	1.83
462.486	1.74
462.689	1.68
462.892	1.69
463.095	1.63
463.298	1.72
463.5	1.62
463.703	1.51
463.906	1.58
464.109	1.69
464.311	1.79
464.514	1.67
464.717	1.68
464.92	1.61
465.122	1.59
465.325	1.7
465.528	1.71
465.73	1.83
465.933	1.87
466.135	1.9
466.338	1.78
466.541	1.67
466.743	1.74
466.946	1.75
467.148	1.84
467.351	1.9
467.553	1.89
467.756	1.82
467.958	1.72
468.161	1.78
468.363	1.79
468.566	1.8
468.768	1.9
468.971	1.8
469.173	1.77
469.375	1.73
469.578	1.73
469.78	1.71
469.983	1.73
470.185	1.77
470.387	1.78
470.59	1.68
470.792	1.6
470.994	1.6
471.196	1.72
471.399	1.8
471.601	1.77
471.803	1.78
472.005	1.78
472.208	1.78
472.41	1.74
472.612	1.79
472.814	1.88
473.016	1.96
473.218	1.98
473.421	2.09
473.623	2.05
473.825	2.05
474.027	1.98
474.229	1.96
474.431	2.04
474.633	1.99
474.835	1.99
475.037	2.03
475.239	1.92
475.441	1.88
475.643	1.8
475.845	1.73
476.047	1.68
476.249	1.74
476.451	1.67
476.653	1.63
476.855	1.77
477.057	1.75
477.258	1.7
477.46	1.8
477.662	1.86
477.864	1.83
478.066	1.86
478.268	1.85
478.469	1.91
478.671	1.97
478.873	1.92
479.075	1.84
479.276	1.84
479.478	1.83
479.68	1.83
479.882	1.83
480.083	1.8
480.285	1.8
480.487	1.76
480.688	1.71
480.89	1.65
481.091	1.71
481.293	1.72
481.495	1.68
481.696	1.68
481.898	1.69
482.099	1.66
482.301	1.68
482.502	1.67
482.704	1.71
482.905	1.7
483.107	1.71
483.308	1.68
483.51	1.67
483.711	1.69
483.913	1.7
484.114	1.71
484.315	1.72
484.517	1.73
484.718	1.75
484.92	1.75
485.121	1.76
485.322	1.78
485.524	1.81
485.725	1.82
485.926	1.78
486.127	1.78
486.329	1.78
486.53	1.77
486.731	1.78
486.932	1.79
487.134	1.76
487.335	1.75
487.536	1.75
487.737	1.77
487.938	1.79
488.139	1.83
488.341	1.82
488.542	1.78
488.743	1.79
488.944	1.73
489.145	1.75
489.346	1.78
489.547	1.79
489.748	1.79
489.949	1.82
490.15	1.78
490.351	1.77
490.552	1.76
490.753	1.79
490.954	1.87
491.155	1.95
491.356	1.96
491.557	1.95
491.758	1.98
491.959	1.99
492.159	1.97
492.36	2.01
492.561	2.05
492.762	2.1
492.963	2.05
493.164	1.93
493.364	1.84
493.565	1.81
493.766	1.89
493.967	1.91
494.167	1.88
494.368	1.87
494.569	1.88
494.769	1.89
494.97	1.84
495.171	1.92
495.371	1.96
495.572	1.97
495.773	1.96
495.973	1.87
496.174	1.89
496.375	1.89
496.575	1.93
496.776	1.97
496.976	2.04
497.177	2.07
497.377	2.09
497.578	2.08
497.778	2.18
497.979	2.24
498.179	2.35
498.38	2.32
498.58	2.38
498.78	2.45
498.981	2.34
499.181	2.28
499.382	2.33
499.582	2.31
499.782	2.37
499.983	2.33
500.183	2.36
500.383	2.26
500.584	2.23
500.784	2.24
500.984	2.12
501.184	2.28
501.385	2.27
501.585	2.33
501.785	2.31
501.985	2.36
502.185	2.27
502.386	2.23
502.586	2.24
502.786	2.33
502.986	2.27
503.186	2.28
503.386	2.23
503.586	2.29
503.786	2.19
503.987	2.19
504.187	2.1
504.387	2.15
504.587	2.22
504.787	2.23
504.987	2.19
505.187	2.23
505.387	2.29
505.587	2.29
505.786	2.33
505.986	2.36
506.186	2.43
506.386	2.5
506.586	2.54
506.786	2.5
506.986	2.57
507.186	2.57
507.386	2.59
507.585	2.57
507.785	2.5
507.985	2.42
508.185	2.51
508.384	2.51
508.584	2.51
508.784	2.49
508.984	2.48
509.183	2.44
509.383	2.5
509.583	2.54
509.782	2.61
509.982	2.75
510.182	2.88
510.381	2.88
510.581	2.92
510.781	2.9
510.98	2.94
511.18	2.99
511.379	3.12
511.579	3.13
511.778	3.11
511.978	3.09
512.177	3.15
512.377	3.07
512.576	3.07
512.776	3
512.975	2.96
513.175	2.97
513.374	3.02
513.573	2.93
513.773	3
513.972	3.07
514.172	3.17
514.371	3.05
514.57	3.12
514.77	3.15
514.969	3.21
515.168	3.33
515.367	3.33
515.567	3.29
515.766	3.37
515.965	3.37
516.164	3.32
516.364	3.3
516.563	3.34
516.762	3.36
516.961	3.38
517.16	3.4
517.359	3.43
517.559	3.52
517.758	3.57
517.957	3.6
518.156	3.6
518.355	3.68
518.554	3.69
518.753	3.78
518.952	3.78
519.151	3.79
519.35	3.84
519.549	3.84
519.748	3.83
519.947	3.9
520.146	3.97
520.345	3.99
520.544	3.97
520.743	3.96
520.942	3.98
521.141	4.01
521.339	4.02
521.538	4.04
521.737	4.1
521.936	4.1
522.135	4.07
522.333	4.01
522.532	4.03
522.731	4.04
522.93	4.07
523.129	4.03
523.327	4.07
523.526	4.16
523.725	4.2
523.923	4.18
524.122	4.24
524.321	4.27
524.519	4.28
524.718	4.34
524.917	4.41
525.115	4.42
525.314	4.47
525.512	4.49
525.711	4.47
525.909	4.51
526.108	4.51
526.306	4.52
526.505	4.55
526.703	4.57
526.902	4.61
527.1	4.65
527.299	4.67
527.497	4.69
527.696	4.7
527.894	4.74
528.092	4.75
528.291	4.79
528.489	4.84
528.688	4.85
528.886	4.88
529.084	4.89
529.283	4.87
529.481	4.93
529.679	4.95
529.877	5
530.076	4.98
530.274	5.04
530.472	5.1
530.67	5.11
530.869	5.13
531.067	5.14
531.265	5.17
531.463	5.22
531.661	5.24
531.859	5.29
532.057	5.3
532.255	5.34
532.454	5.34
532.652	5.27
532.85	5.29
533.048	5.33
533.246	5.37
533.444	5.39
533.642	5.38
533.84	5.41
534.038	5.39
534.236	5.41
534.434	5.42
534.632	5.42
534.83	5.53
535.027	5.56
535.225	5.61
535.423	5.59
535.621	5.56
535.819	5.63
536.017	5.58
536.215	5.62
536.412	5.64
536.61	5.72
536.808	5.71
537.006	5.72
537.203	5.71
537.401	5.68
537.599	5.76
537.797	5.8
537.994	5.8
538.192	5.88
538.39	5.9
538.587	5.9
538.785	5.95
538.983	5.99
539.18	6.02
539.378	6.03
539.575	6.08
539.773	6.09
539.97	6.15
540.168	6.17
540.366	6.19
540.563	6.17
540.761	6.19
540.958	6.17
541.155	6.18
541.353	6.18
541.55	6.15
541.748	6.19
541.945	6.23
542.143	6.21
542.34	6.25
542.537	6.28
542.735	6.33
542.932	6.39
543.129	6.42
543.327	6.47
543.524	6.52
543.721	6.64
543.919	6.61
544.116	6.6
544.313	6.67
544.51	6.66
544.708	6.6
544.905	6.61
545.102	6.7
545.299	6.69
545.496	6.72
545.693	6.73
545.891	6.76
546.088	6.81
546.285	6.83
546.482	6.88
546.679	6.92
546.876	7.02
547.073	7.06
547.27	7.1
547.467	7.07
547.664	7.2
547.861	7.28
548.058	7.34
548.255	7.44
548.452	7.52
548.649	7.49
548.846	7.5
549.043	7.54
549.24	7.6
549.437	7.59
549.633	7.66
549.83	7.55
550.027	7.54
550.224	7.44
550.421	7.43
550.618	7.3
550.814	7.34
551.011	7.3
551.208	7.27
551.405	7.31
551.601	7.35
551.798	7.39
551.995	7.45
552.191	7.5
552.388	7.59
552.585	7.62
552.781	7.9
552.978	7.87
553.175	8.02
553.371	8.14
553.568	8.17
553.764	8.15
553.961	8.12
554.157	8.21
554.354	8.26
554.55	8.19
554.747	8.14
554.943	8.12
555.14	8.25
555.336	8.17
555.533	8.12
555.729	8.19
555.926	8.23
556.122	8.31
556.318	8.36
556.515	8.42
556.711	8.56
556.907	8.6
557.104	8.49
557.3	8.33
557.496	8.54
557.693	8.56
557.889	8.52
558.085	8.36
558.281	8.3
558.478	8.28
558.674	8.37
558.87	8.4
559.066	8.49
559.262	8.54
559.459	8.69
559.655	8.64
559.851	8.61
560.047	8.65
560.243	8.9
560.439	9.08
560.635	9.11
560.831	8.98
561.027	9.06
561.223	9.02
561.419	9.09
561.615	9.18
561.811	9.16
562.007	9.25
562.203	9.28
562.399	9.35
562.595	9.29
562.791	9.26
562.987	9.36
563.183	9.39
563.379	9.46
563.575	9.53
563.771	9.6
563.966	9.66
564.162	9.74
564.358	9.71
564.554	9.65
564.75	9.67
564.945	9.8
565.141	9.75
565.337	9.73
565.533	9.71
565.728	9.69
565.924	9.65
566.12	9.68
566.315	9.66
566.511	9.75
566.707	9.77
566.902	9.89
567.098	9.73
567.293	9.85
567.489	9.9
567.684	9.91
567.88	9.81
568.076	9.81
568.271	9.88
568.467	9.94
568.662	10.05
568.858	10.08
569.053	10.06
569.248	10.26
569.444	10.27
569.639	10.34
569.835	10.44
570.03	10.55
570.225	10.61
570.421	10.64
570.616	10.64
570.812	10.58
571.007	10.64
571.202	10.67
571.397	10.62
571.593	10.65
571.788	10.59
571.983	10.56
572.178	10.6
572.374	10.64
572.569	10.64
572.764	10.75
572.959	10.82
573.154	10.82
573.35	10.94
573.545	11.08
573.74	11.11
573.935	11.21
574.13	11.31
574.325	11.33
574.52	11.33
574.715	11.3
574.91	11.27
575.105	11.31
575.3	11.39
575.495	11.39
575.69	11.29
575.885	11.25
576.08	11.16
576.275	11.11
576.47	11.26
576.665	11.21
576.86	11.2
577.055	11.23
577.25	11.22
577.444	11.2
577.639	11.2
577.834	11.25
578.029	11.29
578.224	11.49
578.418	11.56
578.613	11.45
578.808	11.6
579.003	11.62
579.197	11.74
579.392	11.77
579.587	11.89
579.781	11.74
579.976	11.75
580.171	11.64
580.365	11.5
580.56	11.53
580.755	11.53
580.949	11.42
581.144	11.54
581.338	11.53
581.533	11.46
581.727	11.34
581.922	11.5
582.116	11.55
582.311	11.7
582.505	11.77
582.7	11.79
582.894	11.74
583.089	11.68
583.283	11.69
583.478	11.66
583.672	11.74
583.866	11.89
584.061	11.93
584.255	11.93
584.449	12.01
584.644	12.06
584.838	12.01
585.032	12.21
585.226	12.35
585.421	12.28
585.615	12.22
585.809	12.19
586.003	12.13
586.198	12
586.392	12.09
586.586	12.17
586.78	12.08
586.974	12.14
587.168	12.08
587.363	12
587.557	12.05
587.751	12.03
587.945	12.11
588.139	12.18
588.333	12.24
588.527	12.16
588.721	12.13
588.915	12.24
589.109	12.11
589.303	11.99
589.497	12.06
589.691	12.1
589.885	12.18
590.079	12.35
590.273	12.31
590.466	12.32
590.66	12.36
590.854	12.37
591.048	12.37
591.242	12.61
591.436	12.8
591.629	12.79
591.823	12.71
592.017	12.74
592.211	12.62
592.404	12.74
592.598	12.87
592.792	12.86
592.986	12.82
593.179	12.86
593.373	12.84
593.567	12.96
593.76	13.01
593.954	13.12
594.147	13.16
594.341	13.08
594.535	13.01
594.728	13.01
594.922	13.08
595.115	13.07
595.309	12.98
595.502	12.93
595.696	12.89
595.889	12.89
596.083	12.91
596.276	12.84
596.47	12.87
596.663	12.84
596.856	12.86
597.05	12.8
597.243	12.94
597.437	13.03
597.63	13.1
597.823	13.23
598.017	13.4
598.21	13.32
598.403	13.42
598.596	13.52
598.79	13.52
598.983	13.54
599.176	13.6
599.369	13.42
599.563	13.37
599.756	13.34
599.949	13.06
600.142	12.86
600.335	12.92
600.528	13
600.722	12.88
600.915	12.85
601.108	12.65
601.301	12.72
601.494	12.83
601.687	12.91
601.88	12.83
602.073	12.84
602.266	12.71
602.459	12.8
602.652	12.71
602.845	12.81
603.038	12.88
603.231	13.06
603.424	13.02
603.617	13.1
603.809	13.14
604.002	13.2
604.195	13.47
604.388	13.54
604.581	13.5
604.774	13.57
604.966	13.6
605.159	13.69
605.352	13.67
605.545	13.78
605.737	13.57
605.93	13.53
606.123	13.62
606.316	13.37
606.508	13.56
606.701	13.63
606.894	13.64
607.086	13.5
607.279	13.51
607.471	13.43
607.664	13.4
607.857	13.57
608.049	13.58
608.242	13.52
608.434	13.67
608.627	13.73
608.819	13.73
609.012	13.73
609.204	13.89
609.397	13.98
609.589	14.04
609.782	14.13
609.974	14.16
610.166	14.09
610.359	14.25
610.551	14.17
610.743	14.09
610.936	13.89
611.128	14.09
611.32	13.88
611.513	13.87
611.705	13.98
611.897	13.84
612.09	13.87
612.282	14.07
612.474	13.98
612.666	14.1
612.858	14.17
613.051	14.23
613.243	14.15
613.435	14.5
613.627	14.45
613.819	14.22
614.011	14.28
614.203	14.14
614.395	14.02
614.588	14.03
614.78	13.88
614.972	13.95
615.164	14.22
615.356	14.28
615.548	14.05
615.74	14.11
615.932	14.36
616.124	14.23
616.315	14.3
616.507	14.49
616.699	14.52
616.891	14.53
617.083	14.42
617.275	14.21
617.467	14.02
617.659	14.2
617.85	14.1
618.042	13.91
618.234	14.13
618.426	14.25
618.618	14.02
618.809	14.23
619.001	14.37
619.193	14.6
619.384	14.8
619.576	14.82
619.768	14.79
619.959	14.8
620.151	14.93
620.343	14.93
620.534	14.86
620.726	14.94
620.917	14.92
621.109	14.9
621.301	14.7
621.492	14.65
621.684	14.7
621.875	14.7
622.067	14.68
622.258	14.69
622.45	14.52
622.641	14.61
622.832	14.59
623.024	14.36
623.215	14.43
623.407	14.45
623.598	14.43
623.789	14.5
623.981	14.54
624.172	14.6
624.363	14.65
624.555	14.64
624.746	14.59
624.937	14.84
625.129	14.9
625.32	14.89
625.511	14.86
625.702	14.75
625.893	14.75
626.085	14.63
626.276	14.58
626.467	14.62
626.658	14.68
626.849	14.61
627.04	14.47
627.231	14.48
627.422	14.37
627.614	14.51
627.805	14.68
627.996	14.57
628.187	14.69
628.378	14.7
628.569	14.64
628.76	14.66
628.951	14.62
629.142	14.67
629.332	14.56
629.523	14.66
629.714	14.64
629.905	14.48
630.096	14.5
630.287	14.43
630.478	14.49
630.669	14.44
630.859	14.4
631.05	14.51
631.241	14.56
631.432	14.66
631.623	14.62
631.813	14.58
632.004	14.58
632.195	14.56
632.385	14.51
632.576	14.42
632.767	14.56
632.957	14.6
633.148	14.57
633.339	14.41
633.529	14.36
633.72	14.29
633.91	14.23
634.101	14.28
634.292	14.3
634.482	14.31
634.673	14.46
634.863	14.34
635.054	14.2
635.244	14.15
635.435	14.19
635.625	14.29
635.815	14.29
636.006	14.18
636.196	14.27
636.387	14.13
636.577	14.26
636.767	14.18
636.958	14.11
637.148	14.34
637.338	14.39
637.529	14.38
637.719	14.35
637.909	14.45
638.099	14.61
638.29	14.63
638.48	14.8
638.67	14.68
638.86	14.88
639.05	15.12
639.241	14.97
639.431	15.16
639.621	15.12
639.811	15.15
640.001	15.22
640.191	15.14
640.381	15.08
640.571	15.2
640.761	15.32
640.951	15.07
641.141	14.93
641.331	15.18
641.521	15.29
641.711	15.34
641.901	15.38
642.091	15.32
642.281	15.38
642.471	15.45
642.661	15.37
642.851	15.45
643.041	15.59
643.231	15.49
643.42	15.39
643.61	15.13
643.8	15.02
643.99	14.96
644.18	14.91
644.369	14.84
644.559	14.89
644.749	14.72
644.939	14.63
645.128	14.65
645.318	14.84
645.508	14.84
645.697	14.88
645.887	14.97
646.076	14.91
646.266	15.18
646.456	15.19
646.645	15.13
646.835	15.33
647.024	15.09
647.214	14.97
647.403	15.1
647.593	15.09
647.782	14.84
647.972	14.83
648.161	14.76
648.351	14.65
648.54	14.76
648.73	14.88
648.919	14.91
649.108	15.15
649.298	15.18
649.487	15.08
649.677	15.07
649.866	15.45
650.055	15.45
650.244	15.55
650.434	15.41
650.623	15.51
650.812	15.17
651.002	15.25
651.191	15.16
651.38	15.17
651.569	14.96
651.758	15.1
651.947	14.99
652.137	15.21
652.326	15.09
652.515	15.25
652.704	15.25
652.893	15.45
653.082	15.3
653.271	15.53
653.46	15.68
653.649	15.84
653.838	15.81
654.027	15.74
654.216	15.58
654.405	15.68
654.594	15.61
654.783	15.46
654.972	15.55
655.161	15.58
655.35	15.31
655.539	15.34
655.728	15.44
655.916	15.47
656.105	15.45
656.294	15.55
656.483	15.65
656.672	15.65
656.86	15.64
657.049	15.47
657.238	15.65
657.427	15.87
657.615	15.88
657.804	15.84
657.993	15.8
658.181	15.95
658.37	16.02
658.559	16.02
658.747	15.95
658.936	15.94
659.125	16.08
659.313	15.89
659.502	15.95
659.69	16.01
659.879	15.99
660.067	16.07
660.256	16.04
660.444	15.96
660.633	16.15
660.821	16.2
661.01	16.2
661.198	16.31
661.387	16.38
661.575	16.26
661.763	15.99
661.952	15.96
662.14	15.9
662.328	15.87
662.517	15.66
662.705	15.62
662.893	15.73
663.082	15.83
663.27	15.65
663.458	15.84
663.646	15.99
663.834	16.27
664.023	16.38
664.211	16.31
664.399	16.53
664.587	16.72
664.775	16.66
664.963	16.69
665.152	16.81
665.34	16.92
665.528	16.85
665.716	16.6
665.904	16.53
666.092	16.59
666.28	16.74
666.468	16.59
666.656	16.8
666.844	16.71
667.032	16.72
667.22	16.57
667.408	16.5
667.596	16.41
667.784	16.45
667.971	16.45
668.159	16.45
668.347	16.4
668.535	16.4
668.723	16.09
668.911	16.13
669.098	16.18
669.286	16.2
669.474	15.97
669.662	16.05
669.849	16.03
670.037	15.79
670.225	15.77
670.413	15.63
670.6	15.54
670.788	15.64
670.976	15.46
671.163	15.35
671.351	15.29
671.538	15.64
671.726	15.37
671.913	15.51
672.101	15.6
672.289	15.39
672.476	15.56
672.664	15.85
672.851	15.7
673.039	15.76
673.226	15.72
673.413	16.02
673.601	15.88
673.788	16.31
673.976	16.19
674.163	16.62
674.35	16.77
674.538	16.75
674.725	16.38
674.912	16.6
675.1	16.72
675.287	16.82
675.474	16.72
675.662	16.92
675.849	16.65
676.036	16.62
676.223	16.48
676.411	16.32
676.598	16.17
676.785	16.47
676.972	16.31
677.159	16.58
677.346	16.38
677.533	16.38
677.721	16.38
677.908	16.38
678.095	16.4
678.282	16.14
678.469	16.05
678.656	16.18
678.843	15.83
679.03	16.08
679.217	15.79
679.404	15.88
679.591	15.77
679.778	15.85
679.964	15.87
680.151	15.9
680.338	16.06
680.525	16.23
680.712	16.2
680.899	16.62
681.086	16.49
681.272	16.57
681.459	16.58
681.646	16.85
681.833	16.68
682.02	16.81
682.206	17.02
682.393	16.91
682.58	16.89
682.766	16.63
682.953	16.6
683.14	16.88
683.326	16.82
683.513	17.04
683.7	16.96
683.886	16.88
684.073	16.91
684.259	16.96
684.446	16.82
684.632	17.09
684.819	17.39
685.005	17.02
685.192	16.46
685.378	16.66
685.565	16.32
685.751	16.25
685.938	16.49
686.124	16.42
686.31	16.07
686.497	16.21
686.683	16.14
686.87	16.18
687.056	16.21
687.242	16.66
687.429	16.53
687.615	16.73
687.801	16.82
687.987	16.82
688.174	16.84
688.36	16.89
688.546	16.79
688.732	16.7
688.918	16.9
689.105	17.11
689.291	17.22
689.477	17.41
689.663	17.27
689.849	17.22
690.035	17.05
690.221	17.42
690.407	17.43
690.593	17.53
690.779	17.47
690.965	17.18
691.151	17.44
691.337	17.12
691.523	16.91
691.709	17
691.895	17.03
692.081	17.3
692.267	16.75
692.453	16.9
692.639	17.1
692.825	17.26
693.011	17.1
693.196	16.95
693.382	16.81
693.568	16.86
693.754	16.95
693.94	17.24
694.125	17.16
694.311	17.43
694.497	17.5
694.682	17.3
694.868	17.08
695.054	17.34
695.239	17.38
695.425	17.72
695.611	17.76
695.796	17.64
695.982	17.25
696.168	17.47
696.353	17.08
696.539	17.13
696.724	17.31
696.91	17.61
697.095	17.61
697.281	17.32
697.466	17.12
697.652	17.1
697.837	17.22
698.023	17.25
698.208	16.98
698.393	17.24
698.579	17.21
698.764	17.36
698.949	17.19
699.135	17.09
699.32	17.33
699.505	17.25
699.691	17.25
699.876	17.07
700.061	17.25
700.246	17.44
700.432	17.46
700.617	17.39
700.802	17.05
700.987	17.05
701.172	16.89
701.358	16.87
701.543	17.16
701.728	17.22
701.913	17.43
702.098	17.12
702.283	16.79
702.468	16.83
702.653	16.89
702.838	16.92
703.023	17.15
703.208	17.27
703.393	17.38
703.578	17.35
703.763	17.14
703.948	16.9
704.133	16.89
704.318	17.27
704.503	16.93
704.688	16.99
704.873	16.92
705.057	16.87
705.242	16.84
705.427	16.4
705.612	16.35
705.797	16.59
705.981	16.75
706.166	16.91
706.351	17.08
706.536	17.57
706.72	17.19
706.905	17.09
707.09	16.96
707.274	17.26
707.459	17.45
707.644	17.37
707.828	17.25
708.013	17.19
708.197	16.96
708.382	17.07
708.567	16.81
708.751	17.17
708.936	17.1
709.12	16.99
709.305	16.75
709.489	16.58
709.673	16.62
709.858	16.63
710.042	16.58
710.227	16.77
710.411	16.54
710.596	16.63
710.78	16.53
710.964	17.01
711.149	17.06
711.333	17.09
711.517	17.2
711.702	17.1
711.886	17.1
712.07	17.28
712.254	17.51
712.438	17.22
712.623	17.27
712.807	17.32
712.991	17.07
713.175	17.25
713.359	17.46
713.544	17.57
713.728	17.77
713.912	17.85
714.096	17.78
714.28	17.61
714.464	17.75
714.648	17.57
714.832	17.39
715.016	17.36
715.2	17.23
715.384	17.33
715.568	17.42
715.752	17.68
715.936	17.7
716.12	17.87
716.304	17.87
716.488	17.76
716.671	18.06
716.855	18.22
717.039	18.2
717.223	18.18
717.407	18.13
717.59	18.25
717.774	17.75
717.958	17.55
718.142	17.3
718.325	17.18
718.509	17.96
718.693	17.95
718.877	17.7
719.06	17.87
719.244	18.03
719.428	17.9
719.611	17.53
719.795	17.84
719.978	18.01
720.162	17.89
720.345	18.23
720.529	18.11
720.713	17.8
720.896	17.94
721.08	17.86
721.263	17.58
721.446	17.58
721.63	17.55
721.813	17.4
721.997	17.44
722.18	17.79
722.364	17.62
722.547	17.32
722.73	17.22
722.914	16.89
723.097	17.66
723.28	17.93
723.464	17.95
723.647	17.87
723.83	18.16
724.013	17.83
724.197	17.85
724.38	17.73
724.563	17.65
724.746	17.77
724.929	17.71
725.112	16.96
725.296	16.95
725.479	16.91
725.662	17.24
725.845	16.99
726.028	17.02
726.211	16.96
726.394	16.69
726.577	16.44
726.76	16.74
726.943	16.89
727.126	16.9
727.309	17.17
727.492	17.37
727.675	17.07
727.858	17.19
728.041	17.38
728.224	17.28
728.407	17.67
728.589	17.8
728.772	17.61
728.955	18.19
729.138	18.14
729.321	17.49
729.503	17.59
729.686	17.55
729.869	17.61
730.052	17.79
730.234	17.74
730.417	18.04
730.6	17.96
730.782	18.16
730.965	18.06
731.148	18.7
731.33	18.72
731.513	18.81
731.695	19.18
731.878	19.01
732.061	18.42
732.243	18.41
732.426	18.05
732.608	17.84
732.791	17.9
732.973	17.62
733.156	17.24
733.338	17.45
733.52	16.8
733.703	16.59
733.885	16.42
734.068	17.37
734.25	17.49
734.432	17.48
734.615	17.59
734.797	17.67
734.979	17.88
735.162	17.82
735.344	17.55
735.526	17.84
735.708	17.59
735.891	18.03
736.073	17.14
736.255	17.36
736.437	17.04
736.619	17.05
736.802	16.58
736.984	16.1
737.166	16.56
737.348	16.88
737.53	15.97
737.712	16.43
737.894	16.26
738.076	16.68
738.258	16.68
738.44	17.56
738.622	17.94
738.804	18.32
738.986	18.81
739.168	18.13
739.35	18.16
739.532	19.22
739.714	19.47
739.896	19.65
740.078	19.85
740.259	20.2
740.441	20.06
740.623	20.42
740.805	20.31
740.987	20.13
741.168	20.56
741.35	20.95
741.532	20.46
741.714	19.93
741.895	19.96
742.077	20.3
742.259	19.66
742.44	19.5
742.622	19.46
742.804	19.33
742.985	19.32
743.167	18.94
743.348	18.73
743.53	18.82
743.711	19.53
743.893	19.34
744.075	19.05
744.256	18.77
744.438	18.68
744.619	18.47
744.8	18.24
744.982	19.02
745.163	19.5
745.345	19.72
745.526	19.96
745.707	19.36
745.889	18.41
746.07	18.52
746.252	18.53
746.433	18.82
746.614	18.63
746.795	18.48
746.977	17.48
747.158	17.08
747.339	17.01
747.52	17.49
747.702	17.7
747.883	18.87
748.064	18.5
748.245	18.57
748.426	17.99
748.607	17.88
748.788	17.46
748.97	17.7
749.151	17.78
749.332	17.13
749.513	17.02
749.694	17.06
749.875	16.7
750.056	16.56
750.237	17
750.418	17.2
750.599	16.88
750.78	17.52
750.96	18.01
751.141	18.48
751.322	18.84
751.503	18.18
751.684	18.34
751.865	18.31
752.046	18.34
752.226	18.21
752.407	18.2
752.588	18.4
752.769	18.63
752.949	18.41
753.13	18.36
753.311	17.49
753.492	17.95
753.672	17.61
753.853	18.12
754.034	18.31
754.214	18.03
754.395	18.64
754.575	18.89
754.756	18.55
754.937	18.37
755.117	17.62
755.298	18.83
755.478	19.42
755.659	19.2
755.839	18.57
756.02	18.85
756.2	18.76
756.381	18.54
756.561	18.69
756.741	18.94
756.922	18.38
757.102	19.1
757.283	18.47
757.463	18.3
757.643	18.62
757.823	19.55
758.004	19.32
758.184	19.61
758.364	19.61
758.545	19.67
758.725	19.91
758.905	20.57
759.085	20.87
759.265	21.3
759.446	20.7
759.626	20.31
759.806	19.81
759.986	19.8
760.166	19.96
760.346	19.8
760.526	19.92
760.706	19.63
760.886	20.03
761.066	19.65
761.246	19.25
761.426	19.07
761.606	19.4
761.786	18.99
761.966	18.84
762.146	18.98
762.326	18.78
762.506	18.79
762.686	19.15
762.866	19.21
763.046	19.18
763.225	19.38
763.405	19.37
763.585	19.4
763.765	19.7
763.945	19.92
764.124	19.74
764.304	20.01
764.484	19.7
764.664	19.49
764.843	18.99
765.023	18.88
765.203	19.11
765.382	19.36
765.562	18.88
765.741	19.09
765.921	19.22
766.101	18.92
766.28	18.39
766.46	18.23
766.639	18.59
766.819	18.98
766.998	18.95
767.178	18.93
767.357	19.24
767.537	19.98
767.716	19.85
767.896	19.29
768.075	19.14
768.254	19.58
768.434	19.88
768.613	19.46
768.792	20.33
768.972	19.84
769.151	20.15
769.33	19.44
769.51	18.14
769.689	18.42
769.868	18.73
770.047	19.15
770.226	19.12
770.406	19.02
770.585	19.49
770.764	17.58
770.943	18.04
771.122	17.77
771.301	18.89
771.48	20.01
771.66	20
771.839	20.02
772.018	19.93
772.197	19.98
772.376	20.3
772.555	20.03
772.734	20.08
772.913	20.71
773.092	20.22
773.271	19.32
773.449	20.34
773.628	20.98
773.807	21.19
773.986	20.9
774.165	20.19
774.344	19.66
774.523	19.35
774.701	20.12
774.88	19.21
775.059	19.4
775.238	19.55
775.417	17.51
775.595	15.85
775.774	16.34
775.953	17.15
776.131	17.61
776.31	17.94
776.489	16.74
776.667	16.52
776.846	16.61
777.025	16.85
777.203	16.34
777.382	16.98
777.56	17.72
777.739	16.4
777.917	16.38
778.096	16.91
778.274	16.46
778.453	17.96
778.631	18.35
778.81	18.65
778.988	19.05
779.166	19.25
779.345	18.91
779.523	18.66
779.702	20.07
779.88	20.18
780.058	19.52
780.237	20.2
780.415	20.35
780.593	19.4
780.771	20.72
780.95	20.04
781.128	21.32
781.306	22.15
781.484	22.45
781.662	22.12
781.841	22.37
782.019	23.04
782.197	22.9
782.375	23.1
782.553	23.36
782.731	21.88
782.909	22.93
783.087	22.74
783.265	21.52
783.443	21.85
783.621	21.74
783.799	20.82
783.977	20.37
784.155	19.94
784.333	19.69
784.511	20.21
784.689	20.45
784.867	19.85
785.045	18.38
785.223	18.82
785.4	18.66
785.578	18.51
785.756	18.61
785.934	18.78
786.112	19.11
786.289	18.19
786.467	18.66
786.645	18.19
786.823	17.48
787	18.26
787.178	18.91
787.356	19.07
787.533	18.6
787.711	18.65
787.889	17.59
788.066	17.91
788.244	18.52
788.421	17.51
788.599	17.43
788.776	17.62
788.954	17.32
789.131	17.39
789.309	16.95
789.486	17.36
789.664	18.42
789.841	20.05
790.019	20.16
790.196	20.06
790.373	20.95
790.551	21.7
790.728	21.65
790.906	21.79
791.083	20.53
791.26	19.38
791.437	19.59
791.615	18.8
791.792	17.7
791.969	16.99
792.146	16.88
792.324	16.51
792.501	16.53
792.678	16.25
792.855	16.2
793.032	18.11
793.209	18.9
793.387	18
793.564	18.17
793.741	18.36
793.918	18.99
794.095	19.65
794.272	20.75
794.449	20.14
794.626	20.81
794.803	21.7
794.98	21.42
795.157	21.68
795.334	21.42
795.511	21.72
795.688	20.85
795.864	20.86
796.041	20.2
796.218	18.49
796.395	18.59
796.572	17.81
796.749	17.18
796.925	18.3
797.102	17.3
797.279	17.68
797.456	17.03
797.632	18.39
797.809	18.43
797.986	19.12
798.162	20.57
798.339	20.95
798.516	20.85
798.692	21.44
798.869	20.53
799.046	20.82
799.222	20.73
799.399	21.7
799.575	22.12
799.752	21.75
799.928	21.81
800.105	20.76
800.281	21.26
800.458	21.52
800.634	20.87
800.811	19.71
800.987	20.86
801.163	21.57
801.34	20.61
801.516	20.07
801.692	20.76
801.869	20.1
802.045	19.65
802.221	18.52
802.398	18.85
802.574	19.28
802.75	20
802.926	19.51
803.103	19.6
803.279	19.56
803.455	19.47
803.631	18.79
803.807	18.22
803.983	18.43
804.16	17.77
804.336	18.58
804.512	17.23
804.688	17.46
804.864	18.32
805.04	17.24
805.216	17.82
805.392	17.81
805.568	18.41
805.744	18.2
805.92	19.22
806.096	20.1
806.272	20.42
806.448	21.88
806.623	21.75
806.799	20.41
806.975	22.09
807.151	21.91
807.327	21.42
807.503	20.74
807.678	21.55
807.854	21.1
808.03	21.16
808.206	20.47
808.381	19.65
808.557	20.46
808.733	20.4
808.908	20.49
809.084	19.48
809.26	19.9
809.435	20.11
809.611	20.98
809.787	20.33
809.962	20.6
810.138	19.99
810.313	20.89
810.489	20.85
810.664	21.28
810.84	20.3
811.015	20.69
811.191	21.01
811.366	20.98
811.542	20.42
811.717	20.58
811.892	20.39
812.068	21.54
812.243	20.29
812.419	19.73
812.594	19.39
812.769	18.48
812.944	19.43
813.12	19.8
813.295	19.14
813.47	19.34
813.645	19.65
813.821	19.47
813.996	18.11
814.171	19.23
814.346	18.04
814.521	19.33
814.697	20.88
814.872	20.62
815.047	19.74
815.222	19.7
815.397	19.04
815.572	17.75
815.747	18.01
815.922	17.74
816.097	17.67
816.272	18.36
816.447	17.41
816.622	17.29
816.797	17.24
816.972	17.9
817.147	17.82
817.322	17.88
817.496	19.9
817.671	20.94
817.846	21.94
818.021	22.21
818.196	21.9
818.371	21.9
818.545	22.07
818.72	20.87
818.895	20.82
819.069	20.93
819.244	20.73
819.419	20.88
819.594	18.99
819.768	18.89
819.943	18.68
820.117	19.33
820.292	19.15
820.467	18.97
820.641	19.65
820.816	19.57
820.99	19.5
821.165	20.04
821.339	20.06
821.514	20.42
821.688	20.31
821.863	20.21
822.037	20.16
822.212	20.38
822.386	20.43
822.56	20.29
822.735	20.21
822.909	20.33
823.084	20
823.258	19.98
823.432	19.82
823.606	19.81
823.781	19.8
823.955	19.83
824.129	19.84
824.303	19.96
824.478	19.83
824.652	20.23
824.826	20.29
825	20.45
825.174	19.85
825.348	20.59
825.523	20.8
825.697	21.17
825.871	20.79
826.045	20.97
826.219	20.92
826.393	21.24
826.567	20.94
826.741	21.09
826.915	21.27
827.089	21.46
827.263	21.05
827.437	21.17
827.611	21.25
827.784	21.98
827.958	22.04
828.132	21.98
828.306	21.96
828.48	22.01
828.654	22.32
828.827	22.23
829.001	22.48
829.175	22.73
829.349	21.48
829.522	20.69
829.696	19.52
829.87	18.53
830.044	18
830.217	17.67
830.391	18.19
830.565	17.43
830.738	17.13
830.912	17.75
831.085	16.85
831.259	18.21
831.432	17.56
831.606	17.41
831.779	18.54
831.953	18.92
832.126	19.34
832.3	19.01
832.473	19.54
832.647	19.37
832.82	19.2
832.994	19.66
833.167	19.92
833.34	21.56
833.514	21.77
833.687	22.19
833.86	22.03
834.034	21.82
834.207	21.78
834.38	21.61
834.553	22.06
834.727	22.78
834.9	22.95
835.073	23.58
835.246	22.54
835.419	23.16
835.593	21.87
835.766	21.61
835.939	22.07
836.112	23.23
836.285	23.28
836.458	23.89
836.631	23.86
836.804	24.21
836.977	23.14
837.15	23.94
837.323	23.22
837.496	24.22
837.669	24.75
837.842	24.25
838.015	23.01
838.188	24.25
838.361	24.01
838.533	23.95
838.706	22.91
838.879	22.48
839.052	23.25
839.225	22.5
839.398	22.76
839.57	23.04
839.743	22.89
839.916	22.2
840.088	21.6
840.261	20.16
840.434	20.32
840.607	20.66
840.779	21.2
840.952	19.04
841.124	20.1
841.297	19.62
841.47	18.55
841.642	19.63
841.815	18.47
841.987	17.93
842.16	20.11
842.332	18.29
842.505	19.87
842.677	20.22
842.85	22.37
843.022	21.99
843.194	20.44
843.367	22.55
843.539	22.04
843.712	22.83
843.884	22.94
844.056	22.21
844.229	22.59
844.401	18.79
844.573	19.11
844.745	17.59
844.918	18.48
845.09	18.26
845.262	18.23
845.434	16.79
845.606	17.27
845.779	17.46
845.951	15.62
846.123	14.92
846.295	16.84
846.467	18.61
846.639	18.47
846.811	18.59
846.983	21.57
847.155	19.96
847.327	23.14
847.499	25.53
847.671	22.87
847.843	22.98
848.015	24.35
848.187	26.37
848.359	22.33
848.531	21.68
848.703	22.04
848.875	18.27
849.047	18.17
849.218	13.4
849.39	14.3
849.562	15.9
849.734	17
849.905	13.38
850.077	11.98
850.249	16.08
850.421	15.9
850.592	11.33
850.764	14.93
850.936	14.2
851.107	14.9
851.279	11.41
851.451	8.78
851.622	7.82
851.794	10.61
851.965	12.16
852.137	10.77
852.308	12.07
852.48	15.4
852.651	12.27
852.823	14.27
852.994	16.88
853.166	19.1
853.337	19.53
853.509	16.68
853.68	14.4
853.851	11.37
854.023	11.54
854.194	9.52
854.365	9.19
854.537	14.61
854.708	17.14
854.879	15.12
855.05	14.05
855.222	15.61
855.393	17.12
855.564	19.65
855.735	23.49
855.906	20.93
856.078	24.4
856.249	24.13
856.42	20.08
856.591	16.19
856.762	17.06
856.933	19.13
857.104	15.77
857.275	18.61
857.446	16.76
857.617	10.21
857.788	11.66
857.959	11.18
858.13	13.92
858.301	16.53
858.472	18.05
858.643	19.77
858.814	18.27
858.985	21.56
859.155	19.56
859.326	19.46
859.497	21
859.668	21.3
859.839	16.62
860.009	18.64
860.18	14.14
860.351	9.82
860.522	9.63
860.692	7.56
860.863	7.29
861.034	9.4
861.204	10.3
861.375	15.63
861.546	15.43
861.716	18.35
861.887	16.16
862.057	19.25
862.228	23.01
862.398	21.77
862.569	20.42
862.739	20.82
862.91	19.59
863.08	23.05
863.251	19.9
863.421	16.14
863.592	16.55
863.762	13.42
863.932	13.8
864.103	15.68
864.273	17.92
864.443	19.22
864.614	18.76
864.784	15.81
864.954	15.89
865.125	18.88
865.295	22.65
865.465	21.52
865.635	24.24
865.805	21.3
865.976	22.35
866.146	21.54
866.316	27.01
866.486	31.12
866.656	30.94
866.826	27.61
866.996	23.64
867.166	27.76
867.336	28.9
867.506	24.65
867.676	27.15
867.846	26.28
868.016	25.45
868.186	25.45
868.356	25.28
868.526	26.44
868.696	26.9
868.866	27.66
869.036	23
869.206	18.78
869.376	21.64
869.545	19.82
869.715	17.62
869.885	14.94
870.055	13.77
870.224	9.08
870.394	6.89
870.564	6.57
870.734	9.38
870.903	7.47
871.073	10.91
871.243	11.57
871.412	14.8
871.582	13.6
871.751	18.38
871.921	15.04
872.091	19.52
872.26	23.7
872.43	24.39
872.599	19.56
872.769	23.3
872.938	23.75
873.108	25.82
873.277	25.28
873.446	28.32
873.616	25.14
873.785	25.25
873.955	23.48
874.124	22.26
874.293	22.1
874.463	27.35
874.632	22.56
874.801	23.76
874.971	22.54
875.14	23.22
875.309	21.83
875.478	21.73
875.647	24.07
875.817	22.17
875.986	21.24
876.155	24.05
876.324	24.05
876.493	28.37
876.662	26.99
876.831	26.12
877	24.88
877.17	25.45
877.339	27.01
877.508	28.29
877.677	28.4
877.846	28.09
878.015	25.85
878.184	22.33
878.352	18.74
878.521	18.4
878.69	18.33
878.859	18.73
879.028	21.32
879.197	20.87
879.366	19.34
879.534	22.26
879.703	23.45
879.872	24
880.041	23.17
880.21	23.03
880.378	23.25
880.547	24.35
880.716	24.68
880.884	23.67
881.053	24.31
881.222	23.63
881.39	22.27
881.559	22.1
881.727	22.74
881.896	22.24
882.065	22.76
882.233	23.12
882.402	22.32
882.57	22.29
882.739	22.26
882.907	21.5
883.076	21.85
883.244	22.98
883.412	23.92
883.581	23.51
883.749	24.54
883.918	24.9
884.086	24.19
884.254	24.33
884.423	23.51
884.591	23.67
884.759	24.07
884.927	23.28
885.096	22.23
885.264	21.12
885.432	19.41
885.6	18.67
885.769	17.43
885.937	18.07
886.105	19.14
886.273	20.68
886.441	19.41
886.609	19.72
886.777	20.44
886.945	20.61
887.113	19.86
887.281	22.11
887.449	22.38
887.617	24.08
887.785	23.28
887.953	23.04
888.121	22.63
888.289	22.02
888.457	22.6
888.625	23.76
888.793	24.08
888.961	23.65
889.129	22.28
889.296	23.14
889.464	22.05
889.632	23.08
889.8	21.71
889.967	20.58
890.135	23.19
