Data from 2938485_Reflection_1.txt Node
Date: Wed Jun 17 01:00:01 EDT 2015
User: robert
Spectrometer: USB4E03002
Autoset integration time: false
Trigger mode: 4
Integration Time (sec): 1.000000E-1
Scans to average: 10
Electric dark correction enabled: true
Nonlinearity correction enabled: false
Boxcar width: 5
Stray light correction enabled: false
XAxis mode: Wavelengths
Stop averaging: false
Number of Pixels in Spectrum: 3648
>>>>>Begin Spectral Data<<<<<
177.575	139.49
177.794	161.77
178.014	111.5
178.233	124.99
178.452	273.69
178.672	216.16
178.891	51.54
179.11	205.77
179.33	381.96
179.549	958.85
179.768	-196.94
179.987	-43.1
180.207	6395.38
180.426	376.92
180.645	946.15
180.864	-71.83
181.084	-76.08
181.303	68.88
181.522	602.1
181.741	-33.23
181.96	-9.73
182.179	-75.99
182.398	89.03
182.618	-64.81
182.837	-71.05
183.056	0.67
183.275	-23.01
183.494	-23.52
183.713	162.31
183.932	13.18
184.151	-1.16
184.37	-17.65
184.589	-278.46
184.808	-193.89
185.027	-386.3
185.246	-207.51
185.465	-75.91
185.684	-136.72
185.903	-183.98
186.122	-419.5
186.341	-114.38
186.56	-140.24
186.779	229.83
186.998	91.66
187.216	228.73
187.435	189.16
187.654	189.65
187.873	554.97
188.092	321.45
188.311	510.26
188.53	291.03
188.748	739.16
188.967	2711.19
189.186	356.84
189.405	186.97
189.623	35.97
189.842	200.25
190.061	339.38
190.28	282.44
190.498	-385.81
190.717	-444.46
190.936	-37.01
191.154	-75.67
191.373	-38.16
191.592	-93.13
191.81	-63.59
192.029	-120.86
192.248	-293.73
192.466	-372.4
192.685	-46.66
192.904	-213.36
193.122	-249.81
193.341	548.16
193.559	1088.69
193.778	376.73
193.996	-1227.18
194.215	-571.82
194.433	-262.41
194.652	-189.97
194.87	-165.57
195.089	-691.14
195.307	-363.23
195.526	-371.19
195.744	-223.83
195.963	-438.46
196.181	-847.32
196.399	1164.89
196.618	-1792.52
196.836	-443.36
197.055	-281.79
197.273	-224.99
197.491	2519
197.71	-380.9
197.928	-1083.47
198.146	-930.58
198.365	-695.74
198.583	-127.61
198.801	-189.48
199.019	-294.11
199.238	-1635.5
199.456	-313.36
199.674	-27.64
199.892	84.14
200.111	154.96
200.329	88.1
200.547	81.85
200.765	93.79
200.983	127.4
201.202	191.65
201.42	222.19
201.638	187.34
201.856	304.87
202.074	225.57
202.292	50.17
202.51	-59.38
202.728	-11.1
202.946	-544.51
203.165	22.83
203.383	-85.53
203.601	-138.19
203.819	-37.35
204.037	-101.58
204.255	-34.87
204.473	-75.62
204.691	9.74
204.909	24.74
205.127	23.04
205.345	92.12
205.562	293.79
205.78	147.2
205.998	162.38
206.216	109.96
206.434	253.85
206.652	80.47
206.87	82.31
207.088	222.85
207.306	395.27
207.523	77.71
207.741	221.08
207.959	233.2
208.177	243.49
208.395	783.81
208.612	300.25
208.83	-832.79
209.048	991.58
209.266	468.36
209.483	-29.28
209.701	34.12
209.919	105.06
210.136	49.41
210.354	51.12
210.572	62.51
210.79	172.15
211.007	190.99
211.225	114.91
211.442	181.4
211.66	229.84
211.878	83.63
212.095	-1175.36
212.313	-3637.41
212.53	4763.94
212.748	-1391.17
212.966	-1154.33
213.183	-450.81
213.401	-227.15
213.618	-261.36
213.836	-204.18
214.053	-243.4
214.271	-685.88
214.488	-21.48
214.705	6.26
214.923	15.75
215.14	35.49
215.358	28.53
215.575	25.61
215.793	42.76
216.01	22.81
216.227	29.91
216.445	24.76
216.662	38.33
216.879	37.64
217.097	37.18
217.314	30.39
217.531	23.58
217.749	17.99
217.966	11.26
218.183	7.24
218.4	11.95
218.618	13.26
218.835	15.47
219.052	4.91
219.269	-9.9
219.487	-10.92
219.704	-7.51
219.921	-18.46
220.138	-11.32
220.355	-2.26
220.572	6.56
220.79	3.84
221.007	1.66
221.224	-3.59
221.441	-4.23
221.658	1.4
221.875	-6.09
222.092	-6.68
222.309	-1.62
222.526	-2.66
222.743	-4.35
222.96	-2.23
223.177	-11.53
223.394	-13.25
223.611	-5.64
223.828	-0.17
224.045	3.81
224.262	10.6
224.479	10.94
224.696	13.53
224.913	11.53
225.13	14.52
225.347	17.02
225.564	19.76
225.781	20.94
225.997	22.24
226.214	21.37
226.431	18.38
226.648	17.14
226.865	18.34
227.082	17.18
227.298	17.08
227.515	15.88
227.732	14.6
227.949	14.09
228.165	14.73
228.382	13.47
228.599	13.19
228.816	13.24
229.032	13.16
229.249	10.73
229.466	10.75
229.682	10.13
229.899	9.27
230.116	8.47
230.332	7.55
230.549	4.52
230.765	3.16
230.982	1.04
231.199	3.38
231.415	4.38
231.632	7.86
231.848	9.05
232.065	9.63
232.281	10.7
232.498	12.91
232.714	11.16
232.931	11.98
233.147	10.77
233.364	12
233.58	11.03
233.797	9.8
234.013	7.15
234.23	4.63
234.446	5.22
234.662	5.01
234.879	1.65
235.095	4.22
235.312	4.61
235.528	5.15
235.744	6.94
235.961	7.22
236.177	6.83
236.393	7.2
236.61	7.92
236.826	8.63
237.042	9.66
237.258	10.32
237.475	12.48
237.691	10.43
237.907	11.16
238.123	10.24
238.339	10.4
238.556	11.04
238.772	13.42
238.988	13.88
239.204	12.58
239.42	12.26
239.636	13.41
239.853	11.04
240.069	11.51
240.285	11.18
240.501	11.59
240.717	11.46
240.933	10.65
241.149	9.34
241.365	9.07
241.581	8.92
241.797	8.24
242.013	7.96
242.229	9.57
242.445	10.32
242.661	11.23
242.877	9.89
243.093	9.09
243.309	10.12
243.525	10.7
243.741	11.45
243.957	11.09
244.173	11.14
244.388	10.58
244.604	9.55
244.82	9.43
245.036	8.87
245.252	9.32
245.468	9.93
245.683	9.51
245.899	9.4
246.115	8.81
246.331	9.17
246.547	9.58
246.762	9.62
246.978	10.43
247.194	10.39
247.409	10.04
247.625	9.76
247.841	9.39
248.057	9.41
248.272	8.78
248.488	9.15
248.703	9.02
248.919	8.05
249.135	8.11
249.35	6.6
249.566	5.5
249.782	5.88
249.997	6.19
250.213	6.26
250.428	6.74
250.644	7.59
250.859	7.8
251.075	8.64
251.29	8.71
251.506	8.31
251.721	8.41
251.937	8.92
252.152	9.2
252.368	9.85
252.583	9.81
252.798	11.03
253.014	10.09
253.229	10.23
253.445	9.54
253.66	9.85
253.875	10.32
254.091	10.13
254.306	10.39
254.521	11.09
254.737	11.16
254.952	10.88
255.167	9.98
255.383	10.31
255.598	10.34
255.813	10.14
256.028	9.59
256.244	9.26
256.459	9.42
256.674	9.3
256.889	9.06
257.104	8.32
257.32	8.58
257.535	8.33
257.75	8.35
257.965	7.66
258.18	7.57
258.395	7.78
258.61	8.12
258.826	8.05
259.041	7.97
259.256	7.79
259.471	7.73
259.686	7.18
259.901	6.75
260.116	6.21
260.331	6.46
260.546	6.41
260.761	5.69
260.976	5.39
261.191	4.87
261.406	4.9
261.621	5.02
261.836	4.8
262.05	5.87
262.265	5.89
262.48	6.17
262.695	6.33
262.91	6.92
263.125	7.91
263.34	7.29
263.555	7.1
263.769	7.3
263.984	7.37
264.199	7.43
264.414	6.63
264.629	6.91
264.843	6.65
265.058	6.78
265.273	6.08
265.488	5.82
265.702	6.02
265.917	5.97
266.132	5.94
266.346	5.77
266.561	6.07
266.776	5.96
266.99	6.19
267.205	5.99
267.42	5.22
267.634	4.94
267.849	5.3
268.063	5.27
268.278	5.64
268.492	5
268.707	4.99
268.922	4.97
269.136	5.23
269.351	5.05
269.565	5.9
269.78	5.99
269.994	6.52
270.209	6.42
270.423	5.97
270.637	6.24
270.852	6.41
271.066	6.28
271.281	6.13
271.495	6.24
271.709	6.32
271.924	6.2
272.138	6.6
272.353	6.25
272.567	5.78
272.781	6.23
272.996	5.92
273.21	6.23
273.424	5.97
273.638	5.8
273.853	5.34
274.067	5.62
274.281	5.79
274.495	5.75
274.71	5.75
274.924	6
275.138	6.08
275.352	6.21
275.566	5.88
275.781	6.3
275.995	6.85
276.209	7.27
276.423	6.86
276.637	6.69
276.851	6.83
277.065	6.91
277.279	7.06
277.493	6.83
277.707	7.05
277.921	6.79
278.135	6.78
278.349	6.19
278.563	6.12
278.777	6.16
278.991	6.16
279.205	5.76
279.419	6.05
279.633	6.08
279.847	5.59
280.061	6.02
280.275	6.47
280.489	6.72
280.703	7.21
280.917	7.46
281.131	7.21
281.344	7.24
281.558	7.59
281.772	7.36
281.986	7.42
282.2	7.67
282.414	7.31
282.627	7.23
282.841	6.98
283.055	6.99
283.269	6.47
283.482	6.51
283.696	5.94
283.91	5.57
284.123	5.9
284.337	5.94
284.551	6.13
284.764	6.02
284.978	5.89
285.192	5.59
285.405	5.55
285.619	5.72
285.833	5.98
286.046	6.27
286.26	6.57
286.473	6.12
286.687	5.47
286.9	5.72
287.114	5.34
287.327	5.24
287.541	5.59
287.754	5.06
287.968	5.59
288.181	5.4
288.395	5.73
288.608	5.61
288.822	5.63
289.035	5.88
289.248	5.51
289.462	5.67
289.675	5.79
289.889	5.87
290.102	6.48
290.315	6.31
290.529	6.05
290.742	6.46
290.955	6.96
291.169	7.36
291.382	7.82
291.595	8.19
291.808	7.79
292.022	7.83
292.235	7.89
292.448	7.51
292.661	6.81
292.875	6.86
293.088	6.3
293.301	5.88
293.514	5.71
293.727	5.64
293.94	5.71
294.153	6.21
294.367	6.14
294.58	5.71
294.793	5.65
295.006	5.75
295.219	6.17
295.432	6.27
295.645	6.41
295.858	6.4
296.071	6.33
296.284	6.07
296.497	6.05
296.71	6.02
296.923	6.1
297.136	6.16
297.349	6.51
297.562	6.34
297.775	6.06
297.988	6.05
298.201	5.53
298.414	5.46
298.626	5.56
298.839	5.08
299.052	5.45
299.265	6.05
299.478	5.98
299.691	6.07
299.903	5.74
300.116	6.31
300.329	6.32
300.542	6.84
300.755	7.07
300.967	7.01
301.18	7.32
301.393	6.87
301.605	6.87
301.818	6.63
302.031	6.65
302.243	7.19
302.456	6.97
302.669	6.66
302.881	6.73
303.094	6.35
303.307	5.93
303.519	5.5
303.732	5.59
303.944	4.87
304.157	5.32
304.37	4.71
304.582	4.54
304.795	4.36
305.007	4.2
305.22	3.78
305.432	3.9
305.645	4.5
305.857	4.83
306.069	4.3
306.282	5.42
306.494	5.8
306.707	6.29
306.919	5.87
307.132	5.59
307.344	5.79
307.556	6.12
307.769	5.81
307.981	5.2
308.193	5.77
308.406	6.36
308.618	5.89
308.83	5.94
309.043	5.76
309.255	6.4
309.467	6.78
309.679	6.7
309.892	6.69
310.104	6.96
310.316	7.54
310.528	7.61
310.74	7.7
310.953	7.75
311.165	7.6
311.377	7.57
311.589	6.95
311.801	6.63
312.013	6.87
312.225	6.97
312.437	7.19
312.649	7.67
312.862	7.43
313.074	7.31
313.286	7.4
313.498	6.94
313.71	6.97
313.922	7.43
314.134	7.38
314.346	7.58
314.558	7.01
314.77	6.36
314.982	5.21
315.193	5.21
315.405	5.2
315.617	4.56
315.829	4.35
316.041	4.51
316.253	3.85
316.465	4.23
316.677	4.54
316.888	5.39
317.1	6
317.312	6.23
317.524	6.06
317.736	6.13
317.947	5.91
318.159	6.11
318.371	5.98
318.583	6.43
318.794	5.84
319.006	5.26
319.218	5.14
319.43	5.26
319.641	5.43
319.853	5.79
320.064	5.86
320.276	6.47
320.488	6.48
320.699	6.36
320.911	6.21
321.123	6.94
321.334	7.09
321.546	6.92
321.757	6.66
321.969	6.2
322.18	5.8
322.392	5.41
322.603	5.27
322.815	5.74
323.026	6.2
323.238	6.7
323.449	6.26
323.661	6.11
323.872	5.82
324.083	6.07
324.295	6.62
324.506	7.08
324.718	7.53
324.929	7.71
325.14	7.35
325.352	6.98
325.563	7.01
325.774	7.19
325.986	7.08
326.197	7.85
326.408	7.35
326.62	7.28
326.831	6.52
327.042	6.19
327.253	6.32
327.464	6.67
327.676	6.47
327.887	5.76
328.098	6.12
328.309	6.7
328.52	6.15
328.732	6.52
328.943	7.08
329.154	7.62
329.365	7.63
329.576	7.73
329.787	7.55
329.998	7.99
330.209	8.37
330.42	8.22
330.631	7.7
330.842	8.09
331.053	7.64
331.264	6.97
331.475	6.57
331.686	6.53
331.897	6
332.108	5.85
332.319	5.64
332.53	5.65
332.741	5.01
332.952	5.05
333.163	4.81
333.374	5.24
333.585	5.47
333.795	5.41
334.006	5.4
334.217	5.62
334.428	5.72
334.639	5.84
334.849	5.58
335.06	6.28
335.271	6.31
335.482	6.03
335.692	6.05
335.903	5.93
336.114	6.21
336.325	6.66
336.535	6.88
336.746	6.89
336.957	6.78
337.167	7.13
337.378	6.8
337.589	6.71
337.799	6.56
338.01	6.49
338.22	6.37
338.431	6.21
338.642	5.22
338.852	5.01
339.063	4.82
339.273	4.94
339.484	4.87
339.694	5.19
339.905	5.04
340.115	5.04
340.326	4.92
340.536	4.93
340.746	4.65
340.957	5.15
341.167	5.17
341.378	5.27
341.588	5.14
341.799	4.84
342.009	4.8
342.219	4.87
342.43	4.76
342.64	4.9
342.85	5.2
343.061	5.52
343.271	5.31
343.481	5.67
343.691	5.23
343.902	5.25
344.112	5.51
344.322	5.32
344.532	5.63
344.743	5.91
344.953	6.04
345.163	6.06
345.373	6.36
345.583	6.49
345.793	6.39
346.004	6.98
346.214	7.02
346.424	6.8
346.634	6.79
346.844	6.43
347.054	6.66
347.264	6.58
347.474	6.17
347.684	6.13
347.894	6.12
348.104	5.96
348.314	6.09
348.524	6.1
348.734	6.64
348.944	6.65
349.154	6.73
349.364	6.75
349.574	6.51
349.784	6.64
349.994	6.29
350.204	6.71
350.413	6.57
350.623	6.41
350.833	6.62
351.043	6.41
351.253	6.45
351.463	6.11
351.672	5.98
351.882	6.2
352.092	6.29
352.302	6.34
352.511	6.22
352.721	6.13
352.931	5.94
353.141	5.75
353.35	5.78
353.56	5.59
353.77	5.86
353.979	5.6
354.189	5.5
354.399	5.62
354.608	5.74
354.818	5.68
355.027	5.62
355.237	5.63
355.447	5.46
355.656	5.18
355.866	5.21
356.075	5.14
356.285	5.33
356.494	5.37
356.704	5.19
356.913	5.17
357.123	4.93
357.332	5.21
357.542	5.44
357.751	5.66
357.96	5.73
358.17	5.63
358.379	5.8
358.589	5.98
358.798	5.93
359.007	5.89
359.217	5.91
359.426	5.98
359.635	5.7
359.845	5.67
360.054	5.54
360.263	5.47
360.472	5.61
360.682	5.47
360.891	5.26
361.1	5.31
361.309	5.28
361.519	5.03
361.728	5.14
361.937	5.07
362.146	4.85
362.355	4.85
362.564	4.82
362.774	4.86
362.983	4.92
363.192	4.83
363.401	4.78
363.61	4.78
363.819	5.16
364.028	4.96
364.237	5.49
364.446	5.59
364.655	5.46
364.864	5.53
365.073	5.31
365.282	5.58
365.491	5.45
365.7	5.54
365.909	5.43
366.118	5.21
366.327	5.08
366.536	4.88
366.745	4.88
366.954	4.86
367.162	5.07
367.371	5.05
367.58	4.94
367.789	4.81
367.998	4.6
368.207	4.49
368.415	4.55
368.624	4.67
368.833	4.37
369.042	4.16
369.25	4.13
369.459	3.87
369.668	3.77
369.877	3.62
370.085	3.84
370.294	3.88
370.503	4.21
370.711	4.06
370.92	4.09
371.129	4.04
371.337	4.05
371.546	4.05
371.754	4.02
371.963	4.13
372.171	4.23
372.38	4.47
372.589	4.64
372.797	4.63
373.006	4.58
373.214	4.57
373.423	4.63
373.631	4.79
373.84	4.9
374.048	5
374.256	5.18
374.465	4.97
374.673	4.61
374.882	4.5
375.09	4.36
375.298	4.34
375.507	4.32
375.715	4.13
375.923	4.17
376.132	4.28
376.34	4.5
376.548	4.39
376.757	4.46
376.965	4.67
377.173	4.64
377.381	4.73
377.59	4.85
377.798	4.88
378.006	5.17
378.214	4.94
378.423	4.97
378.631	4.77
378.839	4.73
379.047	4.95
379.255	4.86
379.463	4.95
379.671	4.98
379.879	4.81
380.088	4.88
380.296	4.75
380.504	4.88
380.712	4.78
380.92	4.7
381.128	4.81
381.336	4.43
381.544	4.55
381.752	4.33
381.96	4.29
382.168	4.51
382.376	4.63
382.584	4.68
382.791	4.74
382.999	4.61
383.207	4.39
383.415	4.34
383.623	4.43
383.831	4.2
384.039	4.37
384.247	4.34
384.454	4.16
384.662	4.05
384.87	4.26
385.078	4.15
385.285	4.34
385.493	4.6
385.701	4.61
385.909	4.69
386.116	4.86
386.324	4.66
386.532	4.51
386.739	4.6
386.947	4.75
387.155	4.51
387.362	4.64
387.57	4.59
387.778	4.44
387.985	4.55
388.193	4.42
388.4	4.5
388.608	4.4
388.816	4.49
389.023	4.54
389.231	4.29
389.438	4.43
389.646	4.33
389.853	4.49
390.061	4.58
390.268	4.62
390.475	4.68
390.683	4.53
390.89	4.56
391.098	4.64
391.305	4.57
391.512	4.62
391.72	4.61
391.927	4.56
392.135	4.35
392.342	4.21
392.549	3.93
392.756	3.97
392.964	4.1
393.171	4.15
393.378	4.12
393.586	4.06
393.793	4.03
394	3.9
394.207	3.95
394.414	4.03
394.622	4.11
394.829	4.23
395.036	4.22
395.243	4.1
395.45	4.27
395.657	4.37
395.864	4.49
396.072	4.39
396.279	4.51
396.486	4.41
396.693	4.19
396.9	4.3
397.107	4.33
397.314	4.16
397.521	4.34
397.728	4.29
397.935	4.15
398.142	4.21
398.349	4.5
398.556	4.29
398.763	4.31
398.97	4.54
399.177	4.42
399.383	4.47
399.59	4.59
399.797	4.44
400.004	4.26
400.211	4.09
400.418	4.05
400.625	3.72
400.831	4
401.038	4
401.245	3.77
401.452	3.82
401.658	3.85
401.865	3.97
402.072	3.97
402.279	3.96
402.485	4.02
402.692	3.99
402.899	4.2
403.105	4.05
403.312	4.08
403.519	4.25
403.725	4.33
403.932	4.02
404.138	3.96
404.345	3.98
404.552	3.88
404.758	3.89
404.965	3.88
405.171	3.92
405.378	3.92
405.584	4.01
405.791	3.88
405.997	3.64
406.204	3.82
406.41	3.71
406.617	3.66
406.823	3.77
407.029	3.91
407.236	3.9
407.442	3.88
407.649	3.89
407.855	3.87
408.061	3.89
408.268	4
408.474	3.99
408.68	4.16
408.887	4.07
409.093	4.13
409.299	4.25
409.505	4.33
409.712	4.16
409.918	4.09
410.124	4.1
410.33	4.1
410.537	4.13
410.743	4.23
410.949	3.99
411.155	4.19
411.361	4.28
411.567	4.08
411.773	4.08
411.98	4.16
412.186	4.25
412.392	4.21
412.598	4.34
412.804	4.22
413.01	4.11
413.216	4.35
413.422	4.29
413.628	4.19
413.834	4.21
414.04	4.28
414.246	4.23
414.452	4.19
414.658	4.19
414.864	4.15
415.07	4.31
415.275	4.4
415.481	4.32
415.687	4.19
415.893	4.19
416.099	4.1
416.305	3.94
416.511	3.97
416.716	3.96
416.922	3.85
417.128	3.84
417.334	3.77
417.539	3.68
417.745	3.66
417.951	3.75
418.157	3.79
418.362	3.78
418.568	3.74
418.774	3.76
418.979	3.83
419.185	3.89
419.391	3.87
419.596	3.85
419.802	3.86
420.008	3.86
420.213	4.48
420.419	4.46
420.624	4.54
420.83	4.6
421.035	4.63
421.241	4.64
421.446	4.59
421.652	4.59
421.857	4.61
422.063	4.65
422.268	4.57
422.474	3.92
422.679	3.91
422.885	3.84
423.09	3.78
423.295	3.82
423.501	3.78
423.706	3.89
423.911	3.91
424.117	3.92
424.322	3.87
424.527	3.92
424.733	3.9
424.938	3.85
425.143	3.89
425.349	3.88
425.554	3.74
425.759	3.66
425.964	3.65
426.169	3.7
426.375	3.67
426.58	3.68
426.785	3.77
426.99	3.78
427.195	3.79
427.4	3.74
427.605	3.82
427.811	3.92
428.016	3.92
428.221	3.83
428.426	3.8
428.631	3.89
428.836	3.82
429.041	3.84
429.246	3.9
429.451	3.95
429.656	3.95
429.861	4.06
430.066	4.03
430.271	4.07
430.476	4.12
430.681	4.06
430.886	4.01
431.09	4.02
431.295	3.98
431.5	4.03
431.705	4.01
431.91	4.05
432.115	4
432.32	3.93
432.524	3.91
432.729	3.89
432.934	3.89
433.139	3.91
433.343	3.95
433.548	3.96
433.753	3.99
433.958	4
434.162	3.96
434.367	4
434.572	4.07
434.776	4.02
434.981	3.94
435.186	3.86
435.39	3.76
435.595	3.63
435.799	3.61
436.004	3.61
436.209	3.67
436.413	3.76
436.618	3.72
436.822	3.71
437.027	3.73
437.231	3.74
437.436	3.84
437.64	4.03
437.845	4.18
438.049	4.22
438.253	4.14
438.458	4.09
438.662	4.08
438.867	4.01
439.071	4.08
439.275	4.08
439.48	4.14
439.684	4.2
439.888	4.09
440.093	4.02
440.297	3.94
440.501	3.92
440.706	3.97
440.91	4
441.114	4.07
441.318	4.06
441.523	4.09
441.727	4.05
441.931	4
442.135	4.02
442.339	4.04
442.543	4.07
442.748	4.09
442.952	4.04
443.156	4.04
443.36	4.08
443.564	3.92
443.768	3.94
443.972	3.91
444.176	3.91
444.38	3.91
444.584	3.91
444.788	3.95
444.992	3.96
445.196	4.01
445.4	3.97
445.604	3.91
445.808	4.03
446.012	4.05
446.216	4.07
446.42	4.02
446.624	4.01
446.828	4.05
447.032	3.99
447.235	3.98
447.439	3.95
447.643	3.91
447.847	3.93
448.051	3.95
448.254	3.91
448.458	3.91
448.662	3.92
448.866	3.9
449.069	3.88
449.273	3.9
449.477	4.03
449.681	3.98
449.884	4.01
450.088	4.05
450.292	4.1
450.495	4.19
450.699	4.14
450.902	4.14
451.106	4.06
451.31	4.04
451.513	4.05
451.717	4.02
451.92	4.02
452.124	3.97
452.327	3.86
452.531	3.7
452.734	3.6
452.938	3.69
453.141	3.66
453.345	3.81
453.548	3.86
453.752	3.86
453.955	3.85
454.158	3.89
454.362	3.94
454.565	4.05
454.769	4
454.972	3.99
455.175	3.91
455.379	3.89
455.582	3.86
455.785	3.83
455.988	3.85
456.192	3.78
456.395	3.76
456.598	3.73
456.801	3.71
457.005	3.78
457.208	3.76
457.411	3.85
457.614	3.87
457.817	3.83
458.021	3.89
458.224	3.85
458.427	3.88
458.63	3.89
458.833	3.85
459.036	3.85
459.239	3.92
459.442	3.94
459.645	3.92
459.848	3.97
460.051	4.03
460.254	3.93
460.457	3.94
460.66	3.91
460.863	3.79
461.066	3.76
461.269	3.76
461.472	3.68
461.675	3.66
461.878	3.65
462.081	3.58
462.284	3.54
462.486	3.7
462.689	3.7
462.892	3.76
463.095	3.82
463.298	3.88
463.5	3.85
463.703	3.92
463.906	3.84
464.109	3.84
464.311	3.84
464.514	3.9
464.717	3.8
464.92	3.71
465.122	3.62
465.325	3.81
465.528	3.86
465.73	3.92
465.933	3.88
466.135	3.97
466.338	3.93
466.541	3.93
466.743	3.81
466.946	3.92
467.148	3.99
467.351	4.05
467.553	3.93
467.756	3.98
467.958	3.98
468.161	3.96
468.363	4.01
468.566	4.11
468.768	4.13
468.971	4.17
469.173	4.12
469.375	4.08
469.578	3.98
469.78	3.91
469.983	3.93
470.185	3.8
470.387	3.8
470.59	3.75
470.792	3.7
470.994	3.68
471.196	3.77
471.399	3.79
471.601	3.9
471.803	4.03
472.005	4.06
472.208	4.06
472.41	4.12
472.612	4.12
472.814	4.15
473.016	4.07
473.218	4.11
473.421	4.09
473.623	4.07
473.825	4.04
474.027	4.04
474.229	4.08
474.431	3.96
474.633	4.05
474.835	4.03
475.037	4.02
475.239	4.09
475.441	3.97
475.643	3.95
475.845	4
476.047	4.05
476.249	4.01
476.451	4.04
476.653	4.08
476.855	4.03
477.057	4.07
477.258	4.1
477.46	4.05
477.662	4.04
477.864	3.98
478.066	3.92
478.268	3.83
478.469	3.82
478.671	3.83
478.873	3.85
479.075	3.9
479.276	3.9
479.478	3.93
479.68	3.97
479.882	4.06
480.083	4.06
480.285	4.05
480.487	4.02
480.688	4.02
480.89	4
481.091	3.96
481.293	3.92
481.495	3.91
481.696	3.9
481.898	3.92
482.099	3.92
482.301	3.94
482.502	3.94
482.704	4
482.905	4.03
483.107	4.01
483.308	4.02
483.51	4.04
483.711	4.06
483.913	4.08
484.114	4.03
484.315	4.06
484.517	4.05
484.718	4.07
484.92	4.03
485.121	4.03
485.322	4.04
485.524	4.06
485.725	4.04
485.926	4
486.127	3.96
486.329	4
486.53	4
486.731	4
486.932	3.98
487.134	3.96
487.335	3.95
487.536	3.97
487.737	4
487.938	4.01
488.139	4.01
488.341	4.08
488.542	4.1
488.743	4.11
488.944	4.12
489.145	4.15
489.346	4.12
489.547	4.09
489.748	4.08
489.949	4.06
490.15	4.07
490.351	4.08
490.552	4.07
490.753	4.06
490.954	4.01
491.155	4.07
491.356	4.08
491.557	4.16
491.758	4.19
491.959	4.23
492.159	4.24
492.36	4.24
492.561	4.21
492.762	4.18
492.963	4.13
493.164	4.15
493.364	4.16
493.565	4.18
493.766	4.2
493.967	4.18
494.167	4.07
494.368	4.13
494.569	4.1
494.769	4.14
494.97	4.18
495.171	4.27
495.371	4.26
495.572	4.21
495.773	4.19
495.973	4.13
496.174	4.15
496.375	4.18
496.575	4.1
496.776	4.13
496.976	4.14
497.177	4.12
497.377	4.12
497.578	4.18
497.778	4.23
497.979	4.27
498.179	4.3
498.38	4.32
498.58	4.35
498.78	4.35
498.981	4.37
499.181	4.43
499.382	4.39
499.582	4.34
499.782	4.26
499.983	4.21
500.183	4.07
500.383	4.04
500.584	4
500.784	4.02
500.984	4.05
501.184	4.04
501.385	4.1
501.585	4.25
501.785	4.33
501.985	4.34
502.185	4.25
502.386	4.39
502.586	4.51
502.786	4.66
502.986	4.66
503.186	4.65
503.386	4.75
503.586	4.74
503.786	4.66
503.987	4.62
504.187	4.69
504.387	4.77
504.587	4.77
504.787	4.69
504.987	4.65
505.187	4.64
505.387	4.69
505.587	4.66
505.786	4.54
505.986	4.65
506.186	4.65
506.386	4.64
506.586	4.61
506.786	4.62
506.986	4.61
507.186	4.61
507.386	4.66
507.585	4.64
507.785	4.56
507.985	4.62
508.185	4.63
508.384	4.7
508.584	4.65
508.784	4.67
508.984	4.66
509.183	4.71
509.383	4.8
509.583	4.77
509.782	4.77
509.982	4.85
510.182	4.84
510.381	4.75
510.581	4.7
510.781	4.8
510.98	4.83
511.18	4.85
511.379	4.82
511.579	4.65
511.778	4.7
511.978	4.77
512.177	4.77
512.377	4.79
512.576	4.83
512.776	4.85
512.975	4.86
513.175	4.9
513.374	4.86
513.573	4.9
513.773	5.01
513.972	5
514.172	5.04
514.371	5.04
514.57	5.07
514.77	5.09
514.969	5.16
515.168	5.12
515.367	5.03
515.567	5.08
515.766	5.1
515.965	5.07
516.164	5.1
516.364	5.02
516.563	5.09
516.762	5.12
516.961	5.17
517.16	5.13
517.359	5.17
517.559	5.25
517.758	5.28
517.957	5.26
518.156	5.31
518.355	5.31
518.554	5.39
518.753	5.39
518.952	5.41
519.151	5.39
519.35	5.45
519.549	5.48
519.748	5.47
519.947	5.56
520.146	5.56
520.345	5.59
520.544	5.68
520.743	5.65
520.942	5.6
521.141	5.59
521.339	5.63
521.538	5.64
521.737	5.71
521.936	5.74
522.135	5.67
522.333	5.76
522.532	5.72
522.731	5.77
522.93	5.82
523.129	5.87
523.327	5.82
523.526	5.87
523.725	5.88
523.923	5.76
524.122	5.83
524.321	5.81
524.519	5.82
524.718	5.82
524.917	5.75
525.115	5.78
525.314	5.8
525.512	5.85
525.711	5.78
525.909	5.8
526.108	5.89
526.306	5.9
526.505	5.93
526.703	5.92
526.902	6
527.1	6.03
527.299	6.04
527.497	6.09
527.696	6.1
527.894	6.14
528.092	6.13
528.291	6.12
528.489	6.11
528.688	6.15
528.886	6.21
529.084	6.18
529.283	6.21
529.481	6.21
529.679	6.15
529.877	6.18
530.076	6.23
530.274	6.27
530.472	6.27
530.67	6.28
530.869	6.28
531.067	6.33
531.265	6.35
531.463	6.35
531.661	6.35
531.859	6.36
532.057	6.37
532.255	6.36
532.454	6.42
532.652	6.52
532.85	6.57
533.048	6.54
533.246	6.5
533.444	6.52
533.642	6.53
533.84	6.55
534.038	6.6
534.236	6.61
534.434	6.63
534.632	6.62
534.83	6.55
535.027	6.56
535.225	6.63
535.423	6.67
535.621	6.7
535.819	6.71
536.017	6.75
536.215	6.78
536.412	6.84
536.61	6.86
536.808	6.91
537.006	7
537.203	6.96
537.401	7
537.599	7.06
537.797	7.09
537.994	7.12
538.192	7.22
538.39	7.16
538.587	7.19
538.785	7.19
538.983	7.18
539.18	7.17
539.378	7.23
539.575	7.26
539.773	7.23
539.97	7.21
540.168	7.23
540.366	7.22
540.563	7.26
540.761	7.28
540.958	7.32
541.155	7.36
541.353	7.41
541.55	7.41
541.748	7.46
541.945	7.55
542.143	7.55
542.34	7.61
542.537	7.65
542.735	7.71
542.932	7.7
543.129	7.76
543.327	7.76
543.524	7.73
543.721	7.76
543.919	7.78
544.116	7.73
544.313	7.83
544.51	7.82
544.708	7.81
544.905	7.85
545.102	7.87
545.299	7.82
545.496	7.83
545.693	7.9
545.891	7.92
546.088	7.9
546.285	7.95
546.482	7.99
546.679	8.04
546.876	8.06
547.073	8.07
547.27	8.1
547.467	8.18
547.664	8.19
547.861	8.16
548.058	8.21
548.255	8.19
548.452	8.16
548.649	8.2
548.846	8.32
549.043	8.38
549.24	8.48
549.437	8.57
549.633	8.62
549.83	8.72
550.027	8.72
550.224	8.89
550.421	9
550.618	9.11
550.814	9.13
551.011	9.11
551.208	9.16
551.405	9.16
551.601	9.17
551.798	9.13
551.995	9.19
552.191	9.34
552.388	9.25
552.585	9.27
552.781	9.34
552.978	9.33
553.175	9.33
553.371	9.4
553.568	9.44
553.764	9.51
553.961	9.62
554.157	9.57
554.354	9.57
554.55	9.73
554.747	9.85
554.943	9.81
555.14	9.88
555.336	9.79
555.533	9.76
555.729	9.72
555.926	9.8
556.122	9.89
556.318	9.9
556.515	9.89
556.711	9.87
556.907	9.86
557.104	9.91
557.3	9.95
557.496	10.16
557.693	10.22
557.889	10.25
558.085	10.08
558.281	10.05
558.478	10.26
558.674	10.4
558.87	10.41
559.066	10.42
559.262	10.37
559.459	10.38
559.655	10.39
559.851	10.37
560.047	10.48
560.243	10.74
560.439	10.73
560.635	10.61
560.831	10.61
561.027	10.7
561.223	10.75
561.419	10.96
561.615	11.03
561.811	11.07
562.007	11.07
562.203	11.06
562.399	11.09
562.595	11.14
562.791	11.3
562.987	11.3
563.183	11.28
563.379	11.27
563.575	11.27
563.771	11.25
563.966	11.33
564.162	11.59
564.358	11.67
564.554	11.69
564.75	11.65
564.945	11.61
565.141	11.62
565.337	11.71
565.533	11.78
565.728	11.76
565.924	11.76
566.12	11.75
566.315	11.67
566.511	11.71
566.707	11.74
566.902	11.79
567.098	11.96
567.293	12.2
567.489	12.25
567.684	12.34
567.88	12.4
568.076	12.5
568.271	12.59
568.467	12.69
568.662	12.72
568.858	12.68
569.053	12.79
569.248	12.68
569.444	12.6
569.639	12.57
569.835	12.58
570.03	12.8
570.225	12.83
570.421	12.76
570.616	12.73
570.812	12.73
571.007	12.87
571.202	12.88
571.397	12.96
571.593	12.93
571.788	13.03
571.983	13.03
572.178	12.96
572.374	13.07
572.569	13.22
572.764	13.27
572.959	13.39
573.154	13.35
573.35	13.46
573.545	13.55
573.74	13.68
573.935	13.63
574.13	13.7
574.325	13.73
574.52	13.64
574.715	13.59
574.91	13.61
575.105	13.59
575.3	13.54
575.495	13.51
575.69	13.46
575.885	13.48
576.08	13.49
576.275	13.44
576.47	13.46
576.665	13.55
576.86	13.64
577.055	13.63
577.25	13.64
577.444	13.69
577.639	13.74
577.834	13.82
578.029	13.81
578.224	13.91
578.418	14.07
578.613	14.01
578.808	14.21
579.003	14.21
579.197	14.37
579.392	14.4
579.587	14.55
579.781	14.63
579.976	14.63
580.171	14.69
580.365	14.64
580.56	14.56
580.755	14.56
580.949	14.36
581.144	14.43
581.338	14.49
581.533	14.55
581.727	14.57
581.922	14.44
582.116	14.54
582.311	14.56
582.505	14.59
582.7	14.65
582.894	14.76
583.089	14.85
583.283	14.84
583.478	14.84
583.672	14.87
583.866	14.86
584.061	15
584.255	15
584.449	15.09
584.644	15.22
584.838	15.34
585.032	15.28
585.226	15.25
585.421	15.2
585.615	15.21
585.809	15.3
586.003	15.37
586.198	15.47
586.392	15.4
586.586	15.29
586.78	15.39
586.974	15.38
587.168	15.48
587.363	15.56
587.557	15.51
587.751	15.46
587.945	15.56
588.139	15.54
588.333	15.53
588.527	15.61
588.721	15.71
588.915	15.51
589.109	15.44
589.303	15.38
589.497	15.37
589.691	15.57
589.885	15.69
590.079	15.55
590.273	15.58
590.466	15.57
590.66	15.62
590.854	15.54
591.048	15.66
591.242	15.79
591.436	15.83
591.629	15.91
591.823	15.85
592.017	15.77
592.211	15.91
592.404	16.03
592.598	16.13
592.792	16.07
592.986	16.22
593.179	16.22
593.373	16.13
593.567	16.31
593.76	16.32
593.954	16.45
594.147	16.53
594.341	16.48
594.535	16.49
594.728	16.43
594.922	16.43
595.115	16.42
595.309	16.51
595.502	16.63
595.696	16.49
595.889	16.59
596.083	16.56
596.276	16.59
596.47	16.55
596.663	16.52
596.856	16.5
597.05	16.64
597.243	16.56
597.437	16.55
597.63	16.55
597.823	16.7
598.017	16.56
598.21	16.71
598.403	16.8
598.596	16.89
598.79	16.97
598.983	17.05
599.176	16.96
599.369	17.01
599.563	17.03
599.756	17.1
599.949	17.09
600.142	17.24
600.335	17.18
600.528	17.16
600.722	17.1
600.915	17.11
601.108	17.17
601.301	17.32
601.494	17.45
601.687	17.48
601.88	17.47
602.073	17.42
602.266	17.44
602.459	17.36
602.652	17.32
602.845	17.39
603.038	17.31
603.231	17.28
603.424	17.2
603.617	17.31
603.809	17.27
604.002	17.23
604.195	17.32
604.388	17.27
604.581	17.32
604.774	17.33
604.966	17.35
605.159	17.43
605.352	17.59
605.545	17.62
605.737	17.51
605.93	17.61
606.123	17.71
606.316	17.58
606.508	17.66
606.701	17.78
606.894	17.84
607.086	17.89
607.279	18.06
607.471	18.03
607.664	17.98
607.857	18.02
608.049	17.99
608.242	17.97
608.434	18.15
608.627	18.13
608.819	18.01
609.012	18.09
609.204	18.08
609.397	17.89
609.589	17.81
609.782	17.94
609.974	17.76
610.166	17.68
610.359	17.69
610.551	17.7
610.743	17.71
610.936	17.74
611.128	17.71
611.32	17.67
611.513	17.83
611.705	17.9
611.897	17.85
612.09	18.11
612.282	18.41
612.474	18.28
612.666	18.19
612.858	18.34
613.051	18.29
613.243	18.32
613.435	18.43
613.627	18.26
613.819	18.21
614.011	18.14
614.203	17.97
614.395	17.71
614.588	17.9
614.78	17.96
614.972	17.88
615.164	18.03
615.356	17.96
615.548	17.81
615.74	18.11
615.932	18.31
616.124	18.27
616.315	18.54
616.507	18.64
616.699	18.63
616.891	18.7
617.083	18.69
617.275	18.64
617.467	18.64
617.659	18.98
617.85	18.74
618.042	18.65
618.234	18.88
618.426	18.74
618.618	18.77
618.809	18.84
619.001	18.79
619.193	18.64
619.384	18.71
619.576	18.64
619.768	18.54
619.959	18.63
620.151	18.44
620.343	18.42
620.534	18.3
620.726	18.43
620.917	18.41
621.109	18.23
621.301	18.35
621.492	18.32
621.684	18.52
621.875	18.47
622.067	18.42
622.258	18.49
622.45	18.39
622.641	18.43
622.832	18.48
623.024	18.4
623.215	18.55
623.407	18.65
623.598	18.53
623.789	18.35
623.981	18.41
624.172	18.49
624.363	18.65
624.555	18.72
624.746	18.91
624.937	18.73
625.129	18.89
625.32	18.85
625.511	19.06
625.702	19.12
625.893	19.15
626.085	19.08
626.276	19
626.467	18.92
626.658	19
626.849	18.98
627.04	18.98
627.231	18.91
627.422	18.99
627.614	18.75
627.805	18.81
627.996	18.88
628.187	19
628.378	19.11
628.569	19.36
628.76	19.32
628.951	19.27
629.142	19.3
629.332	19.32
629.523	19.3
629.714	19.44
629.905	19.4
630.096	19.48
630.287	19.43
630.478	19.52
630.669	19.33
630.859	19.4
631.05	19.25
631.241	19.37
631.432	19.25
631.623	19.18
631.813	19.14
632.004	19.32
632.195	19.21
632.385	19.12
632.576	18.98
632.767	18.88
632.957	18.87
633.148	18.99
633.339	18.98
633.529	19.1
633.72	19.26
633.91	19.27
634.101	19.3
634.292	19.22
634.482	19.35
634.673	19.44
634.863	19.61
635.054	19.54
635.244	19.64
635.435	19.85
635.625	19.74
635.815	19.63
636.006	19.55
636.196	19.42
636.387	19.67
636.577	19.51
636.767	19.74
636.958	19.93
637.148	20.09
637.338	20.19
637.529	20.11
637.719	20.31
637.909	20.3
638.099	20.48
638.29	20.48
638.48	20.36
638.67	20.63
638.86	20.44
639.05	20.14
639.241	20.11
639.431	20.11
639.621	20.18
639.811	20.27
640.001	20.42
640.191	20.2
640.381	20.21
640.571	20.51
640.761	20.55
640.951	20.55
641.141	20.54
641.331	20.31
641.521	20.13
641.711	20
641.901	19.58
642.091	19.39
642.281	19.57
642.471	19.6
642.661	19.33
642.851	19.14
643.041	19.12
643.231	19.51
643.42	19.84
643.61	19.8
643.8	19.7
643.99	19.9
644.18	19.97
644.369	20.04
644.559	19.97
644.749	19.94
644.939	20.12
645.128	20.11
645.318	20.01
645.508	19.61
645.697	19.95
645.887	20.02
646.076	20.02
646.266	20.27
646.456	20.14
646.645	20.32
646.835	20.4
647.024	20.47
647.214	20.58
647.403	20.45
647.593	20.76
647.782	20.62
647.972	20.65
648.161	20.73
648.351	20.8
648.54	20.84
648.73	20.69
648.919	20.67
649.108	20.48
649.298	20.37
649.487	20.28
649.677	20.26
649.866	20.11
650.055	20.14
650.244	20.06
650.434	19.88
650.623	19.95
650.812	20.12
651.002	20.15
651.191	20.24
651.38	20.33
651.569	20.3
651.758	20.25
651.947	20.43
652.137	20.3
652.326	20.46
652.515	20.3
652.704	20.21
652.893	20.07
653.082	19.91
653.271	19.85
653.46	19.78
653.649	19.82
653.838	19.83
654.027	19.86
654.216	20.03
654.405	20.19
654.594	20.35
654.783	20.35
654.972	20.43
655.161	20.55
655.35	20.57
655.539	20.67
655.728	20.89
655.916	20.89
656.105	20.9
656.294	21.05
656.483	20.75
656.672	20.82
656.86	20.87
657.049	21.03
657.238	21.14
657.427	21.06
657.615	20.92
657.804	20.87
657.993	20.97
658.181	20.85
658.37	20.71
658.559	20.79
658.747	20.92
658.936	20.91
659.125	20.82
659.313	20.99
659.502	21.14
659.69	21.21
659.879	21.27
660.067	21.18
660.256	21.34
660.444	21.34
660.633	21.38
660.821	21.28
661.01	21.47
661.198	21.63
661.387	21.43
661.575	21.36
661.763	21.33
661.952	21.03
662.14	21.24
662.328	21.03
662.517	20.96
662.705	21.01
662.893	20.95
663.082	20.95
663.27	20.79
663.458	20.84
663.646	20.83
663.834	20.7
664.023	21.19
664.211	21.16
664.399	21.19
664.587	21.2
664.775	21.26
664.963	21.32
665.152	21.15
665.34	21.04
665.528	21.07
665.716	21.19
665.904	21.58
666.092	21.23
666.28	21.14
666.468	21.36
666.656	21.64
666.844	21.57
667.032	21.3
667.22	21.55
667.408	21.76
667.596	21.66
667.784	21.5
667.971	21.51
668.159	21.6
668.347	21.52
668.535	21.45
668.723	21.23
668.911	21.23
669.098	21.36
669.286	21.25
669.474	21.21
669.662	21.22
669.849	21.04
670.037	21.01
670.225	21.01
670.413	21.29
670.6	21.27
670.788	21.29
670.976	21.33
671.163	21.52
671.351	21.5
671.538	21.63
671.726	21.49
671.913	21.99
672.101	21.72
672.289	21.77
672.476	21.56
672.664	21.64
672.851	21.62
673.039	21.59
673.226	21.63
673.413	21.58
673.601	21.28
673.788	21.5
673.976	21.32
674.163	21.64
674.35	21.38
674.538	21.41
674.725	21.46
674.912	21.64
675.1	21.87
675.287	21.84
675.474	21.99
675.662	22.13
675.849	22.26
676.036	22
676.223	21.98
676.411	22.25
676.598	22.65
676.785	22.33
676.972	22.18
677.159	22.02
677.346	21.96
677.533	21.73
677.721	21.61
677.908	21.59
678.095	21.83
678.282	21.7
678.469	21.63
678.656	21.23
678.843	21.48
679.03	21.55
679.217	21.4
679.404	21.28
679.591	21.39
679.778	21.49
679.964	21.44
680.151	21.52
680.338	21.67
680.525	21.74
680.712	21.92
680.899	22
681.086	22.19
681.272	22.29
681.459	22.58
681.646	22.63
681.833	22.67
682.02	22.53
682.206	22.48
682.393	22.34
682.58	22.41
682.766	22.49
682.953	22.39
683.14	22.26
683.326	22.53
683.513	22.27
683.7	22.31
683.886	22.52
684.073	22.63
684.259	22.56
684.446	22.49
684.632	22.72
684.819	22.65
685.005	22.55
685.192	22.49
685.378	22.27
685.565	22.37
685.751	22.23
685.938	22.12
686.124	22.4
686.31	22.62
686.497	22.77
686.683	22.53
686.87	22.4
687.056	22.55
687.242	22.56
687.429	22.42
687.615	22.42
687.801	22.64
687.987	22.36
688.174	22.17
688.36	22.09
688.546	22.27
688.732	22.1
688.918	21.97
689.105	22.04
689.291	22.12
689.477	22.6
689.663	22.55
689.849	22.48
690.035	22.43
690.221	22.44
690.407	22.51
690.593	22.18
690.779	22.18
690.965	22.72
691.151	22.63
691.337	22.69
691.523	22.36
691.709	22.53
691.895	22.49
692.081	22.86
692.267	22.61
692.453	22.35
692.639	22.25
692.825	22.65
693.011	22.35
693.196	22.31
693.382	22.15
693.568	21.99
693.754	21.88
693.94	21.74
694.125	21.48
694.311	21.75
694.497	22.11
694.682	22.59
694.868	22.06
695.054	22.05
695.239	22.03
695.425	22.44
695.611	22.64
695.796	22.86
695.982	22.85
696.168	23.34
696.353	23.58
696.539	23.45
696.724	23.27
696.91	23.34
697.095	23.42
697.281	23.45
697.466	23.22
697.652	23.28
697.837	23.02
698.023	23.11
698.208	22.98
698.393	22.8
698.579	22.81
698.764	22.83
698.949	22.82
699.135	22.81
699.32	22.63
699.505	22.54
699.691	22.42
699.876	22.75
700.061	22.71
700.246	22.77
700.432	22.72
700.617	22.7
700.802	22.77
700.987	23.06
701.172	23.19
701.358	23.51
701.543	23.84
701.728	23.59
701.913	23.66
702.098	23.8
702.283	23.42
702.468	23.44
702.653	23.22
702.838	23.37
703.023	23.56
703.208	23.12
703.393	23.1
703.578	22.94
703.763	23.24
703.948	22.56
704.133	22.47
704.318	22.91
704.503	22.38
704.688	22.79
704.873	22.57
705.057	22.51
705.242	22.79
705.427	22.52
705.612	22.31
705.797	22.33
705.981	23.03
706.166	22.85
706.351	22.72
706.536	23.15
706.72	23.02
706.905	23
707.09	22.83
707.274	22.49
707.459	22.43
707.644	22.71
707.828	22.82
708.013	22.38
708.197	22.68
708.382	22.71
708.567	22.76
708.751	22.46
708.936	22.72
709.12	22.69
709.305	23.08
709.489	23.61
709.673	23.46
709.858	23.7
710.042	23.99
710.227	23.77
710.411	24.02
710.596	24.2
710.78	24.31
710.964	24.37
711.149	24.51
711.333	24.34
711.517	23.8
711.702	23.94
711.886	23.69
712.07	23.51
712.254	23.87
712.438	23.53
712.623	23.33
712.807	22.99
712.991	22.93
713.175	22.76
713.359	22.8
713.544	22.93
713.728	23.11
713.912	23.13
714.096	23.21
714.28	23.25
714.464	23.18
714.648	23.59
714.832	24.01
715.016	23.67
715.2	24.02
715.384	23.9
715.568	24.01
715.752	23.74
715.936	23.6
716.12	23.83
716.304	23.46
716.488	23.41
716.671	23.02
716.855	22.76
717.039	23
717.223	22.64
717.407	22.69
717.59	23.02
717.774	23.21
717.958	23.49
718.142	23.35
718.325	23.44
718.509	23.38
718.693	23.2
718.877	23.56
719.06	23.42
719.244	23.36
719.428	23.86
719.611	23.58
719.795	23.52
719.978	23.21
720.162	23.14
720.345	22.97
720.529	23.13
720.713	23.41
720.896	23.46
721.08	23.25
721.263	23.55
721.446	23.21
721.63	23.24
721.813	23.27
721.997	23.51
722.18	23.71
722.364	23.67
722.547	23.77
722.73	23.88
722.914	23.83
723.097	24.35
723.28	23.95
723.464	23.98
723.647	23.97
723.83	23.95
724.013	24.1
724.197	23.71
724.38	23.87
724.563	23.69
724.746	23.48
724.929	23.69
725.112	23.13
725.296	23.75
725.479	23.74
725.662	24.01
725.845	23.86
726.028	23.59
726.211	23.67
726.394	23.78
726.577	23.82
726.76	23.87
726.943	23.58
727.126	23.66
727.309	23.39
727.492	23.45
727.675	23.35
727.858	23.05
728.041	23.16
728.224	23.51
728.407	23.56
728.589	23.51
728.772	23.52
728.955	23.34
729.138	23.88
729.321	23.77
729.503	23.83
729.686	23.64
729.869	23.91
730.052	23.69
730.234	23.58
730.417	23.44
730.6	23.44
730.782	23.62
730.965	23.46
731.148	23.3
731.33	23.13
731.513	22.98
731.695	23.37
731.878	23.68
732.061	23.57
732.243	23.54
732.426	23.89
732.608	23.64
732.791	23.26
732.973	23.95
733.156	23.64
733.338	23.72
733.52	23.69
733.703	23.81
733.885	23.64
734.068	23.45
734.25	23.03
734.432	22.5
734.615	22.75
734.797	22.78
734.979	22.01
735.162	22.19
735.344	21.99
735.526	21.75
735.708	21.41
735.891	21.37
736.073	21.78
736.255	22.29
736.437	22.51
736.619	22.71
736.802	22.68
736.984	23.64
737.166	23.53
737.348	23.97
737.53	24.29
737.712	23.89
737.894	23.9
738.076	24.16
738.258	23.95
738.44	24.02
738.622	23.96
738.804	23.85
738.986	22.91
739.168	22.93
739.35	22.77
739.532	22.56
739.714	22.81
739.896	22.82
740.078	22.53
740.259	22.53
740.441	22.09
740.623	22.39
740.805	22.74
740.987	23.23
741.168	23.56
741.35	23.52
741.532	23.71
741.714	23.57
741.895	23.69
742.077	23.83
742.259	23.54
742.44	23.89
742.622	23.71
742.804	23.58
742.985	23.62
743.167	22.99
743.348	22.99
743.53	23.01
743.711	23.07
743.893	23.03
744.075	22.74
744.256	23.1
744.438	23.2
744.619	22.77
744.8	22.78
744.982	22.91
745.163	23.63
745.345	23.49
745.526	23.39
745.707	23.52
745.889	23.28
746.07	23.27
746.252	23.25
746.433	23.06
746.614	23.34
746.795	23.11
746.977	22.21
747.158	22.05
747.339	22.33
747.52	22.6
747.702	22.38
747.883	22.14
748.064	22.81
748.245	23.06
748.426	22.55
748.607	22.09
748.788	23
748.97	23.6
749.151	23.42
749.332	23.8
749.513	23.17
749.694	23.51
749.875	23.68
750.056	22.79
750.237	22.5
750.418	22.42
750.599	23.01
750.78	22.36
750.96	23.02
751.141	22.33
751.322	22.52
751.503	22.8
751.684	22.76
751.865	22.49
752.046	23.87
752.226	24.31
752.407	25.47
752.588	25.82
752.769	26.06
752.949	25.8
753.13	26.86
753.311	25.72
753.492	25.83
753.672	25.6
753.853	26.1
754.034	25.33
754.214	24.87
754.395	24.54
754.575	24.13
754.756	24
754.937	23.3
755.117	23.4
755.298	24.78
755.478	24.63
755.659	24.33
755.839	23.68
756.02	23.64
756.2	23.55
756.381	23.55
756.561	23.39
756.741	23.75
756.922	24.2
757.102	23.45
757.283	23.32
757.463	24.04
757.643	24.62
757.823	25.09
758.004	24.78
758.184	25.1
758.364	24.73
758.545	25
758.725	24.71
758.905	24.23
759.085	24.82
759.265	24.75
759.446	23.99
759.626	23.71
759.806	23.76
759.986	24.02
760.166	23.84
760.346	24.32
760.526	24.27
760.706	24.11
760.886	24.55
761.066	24.38
761.246	24
761.426	24.1
761.606	23.84
761.786	23.92
761.966	24.04
762.146	23.83
762.326	24.06
762.506	24.29
762.686	25.01
762.866	24.91
763.046	24.91
763.225	24.8
763.405	24.87
763.585	25.16
763.765	25.16
763.945	25.23
764.124	25.6
764.304	25.03
764.484	24.5
764.664	24.08
764.843	24.18
765.023	24.43
765.203	24.71
765.382	25.01
765.562	24.73
765.741	24.62
765.921	24.65
766.101	24.38
766.28	24.6
766.46	25.08
766.639	24.58
766.819	24.33
766.998	23.38
767.178	23.43
767.357	23.15
767.537	23.28
767.716	23.18
767.896	23.36
768.075	22.99
768.254	22.71
768.434	22.81
768.613	23.09
768.792	23.45
768.972	24.24
769.151	23.73
769.33	23.98
769.51	23.92
769.689	23.99
769.868	23.71
770.047	24.6
770.226	24.93
770.406	24.41
770.585	24.44
770.764	24.15
770.943	23.47
771.122	23.64
771.301	23.52
771.48	23.59
771.66	24.3
771.839	24.91
772.018	24.49
772.197	24.94
772.376	25.3
772.555	24.96
772.734	25.19
772.913	25.37
773.092	25.36
773.271	25.05
773.449	25.61
773.628	24.7
773.807	24.04
773.986	24.31
774.165	24.06
774.344	24.11
774.523	23.48
774.701	24.11
774.88	23.97
775.059	24.66
775.238	24.9
775.417	24.82
775.595	25.06
775.774	24.45
775.953	24.26
776.131	23.7
776.31	23.88
776.489	23.92
776.667	23.31
776.846	22.98
777.025	22.65
777.203	23.01
777.382	22.79
777.56	22.15
777.739	22.8
777.917	23.19
778.096	23.86
778.274	23.09
778.453	24.22
778.631	23.55
778.81	24.33
778.988	24.85
779.166	24.38
779.345	24.6
779.523	25.65
779.702	26.25
779.88	25.77
780.058	26.5
780.237	26.17
780.415	26.5
780.593	27.18
780.771	26.71
780.95	25.81
781.128	25.29
781.306	24.97
781.484	24.69
781.662	23.9
781.841	24.11
782.019	23.06
782.197	24.32
782.375	23.72
782.553	23.74
782.731	23.79
782.909	24.33
783.087	25.67
783.265	26.11
783.443	25.99
783.621	25.61
783.799	25.25
783.977	25.16
784.155	24.06
784.333	23.48
784.511	23.08
784.689	23.16
784.867	23.14
785.045	22.44
785.223	21.92
785.4	22.29
785.578	22.79
785.756	23.13
785.934	22.15
786.112	22.24
786.289	23.12
786.467	23.25
786.645	23.67
786.823	23.64
787	23.2
787.178	24.37
787.356	23.74
787.533	23.19
787.711	23.06
787.889	24.13
788.066	25.19
788.244	25.01
788.421	24.11
788.599	24.01
788.776	23.02
788.954	22.67
789.131	20.82
789.309	20.75
789.486	20.82
789.664	21.13
789.841	20.8
790.019	19.59
790.196	19.68
790.373	20.08
790.551	19.9
790.728	20.89
790.906	21.49
791.083	22.82
791.26	23.08
791.437	22.83
791.615	22.27
791.792	22.9
791.969	23.27
792.146	23.09
792.324	24.24
792.501	24.67
792.678	25.02
792.855	25.41
793.032	24.81
793.209	24.64
793.387	25.78
793.564	25.74
793.741	25.15
793.918	25.12
794.095	25.4
794.272	25.16
794.449	25.5
794.626	25.12
794.803	24.28
794.98	25.08
795.157	25.23
795.334	24.27
795.511	24.48
795.688	24.65
795.864	25.52
796.041	25.57
796.218	24.79
796.395	23.34
796.572	23.32
796.749	23.96
796.925	23.83
797.102	24.13
797.279	24.05
797.456	23.32
797.632	23.17
797.809	22.67
797.986	22.38
798.162	22.29
798.339	23.85
798.516	23.82
798.692	23.03
798.869	22.5
799.046	22.14
799.222	23.35
799.399	23.3
799.575	22.39
799.752	21.47
799.928	21.64
800.105	22.57
800.281	22.05
800.458	22.48
800.634	23.64
800.811	23.48
800.987	23.46
801.163	22.68
801.34	24.44
801.516	26.12
801.692	26.87
801.869	27.06
802.045	26.7
802.221	27.49
802.398	27.09
802.574	26.01
802.75	25.67
802.926	25.61
803.103	25.87
803.279	25.25
803.455	25.15
803.631	24.15
803.807	23.93
803.983	24.42
804.16	23.66
804.336	23.61
804.512	24.14
804.688	24.07
804.864	24.77
805.04	23.55
805.216	22.33
805.392	22.28
805.568	23.58
805.744	23.2
805.92	22.71
806.096	22.42
806.272	22.8
806.448	23
806.623	23.09
806.799	22.52
806.975	22.96
807.151	24.41
807.327	24.15
807.503	22.74
807.678	22.27
807.854	21.3
808.03	21.38
808.206	21.44
808.381	21.47
808.557	21.3
808.733	21.76
808.908	22.61
809.084	21.51
809.26	20.97
809.435	21.36
809.611	22.3
809.787	23.17
809.962	23.41
810.138	21.68
810.313	21.73
810.489	21.83
810.664	22.52
810.84	22.56
811.015	23.68
811.191	23.48
811.366	24.66
811.542	24.97
811.717	25.7
811.892	26.72
812.068	27.47
812.243	27.57
812.419	28.5
812.594	27.17
812.769	26.32
812.944	25.13
813.12	26.57
813.295	25.99
813.47	25.84
813.645	25.71
813.821	24.43
813.996	24.35
814.171	22.48
814.346	22.29
814.521	22.47
814.697	24.29
814.872	25.8
815.047	24.53
815.222	25.87
815.397	27.03
815.572	27.59
815.747	28.14
815.922	29.12
816.097	30.46
816.272	29.84
816.447	30.1
816.622	29.71
816.797	29.41
816.972	30.02
817.147	29.17
817.322	27.2
817.496	27.16
817.671	25.95
817.846	24.66
818.021	24.38
818.196	23.97
818.371	23.97
818.545	22.89
818.72	21.79
818.895	22.17
819.069	22.33
819.244	23.14
819.419	22.07
819.594	23.5
819.768	23.99
819.943	23.79
820.117	23.95
820.292	23.93
820.467	24.6
820.641	25.39
820.816	24.69
820.99	24.61
821.165	24.66
821.339	24.62
821.514	24.18
821.688	24.35
821.863	24.34
822.037	24.5
822.212	24.61
822.386	24.41
822.56	24.32
822.735	24.3
822.909	24.23
823.084	24.16
823.258	24.35
823.432	24.47
823.606	24.11
823.781	24.54
823.955	24.39
824.129	24.44
824.303	24.58
824.478	24.14
824.652	24.14
824.826	23.78
825	23.6
825.174	23.77
825.348	23.75
825.523	23.96
825.697	23.63
825.871	23.67
826.045	23.31
826.219	23.22
826.393	23.62
826.567	24.1
826.741	24.9
826.915	24.82
827.089	24.62
827.263	24.37
827.437	24.46
827.611	24.59
827.784	24.65
827.958	25.05
828.132	25.23
828.306	25.29
828.48	24.68
828.654	24.6
828.827	25.19
829.001	25.13
829.175	25.37
829.349	24.87
829.522	24.32
829.696	23.72
829.87	23.42
830.044	23.19
830.217	23.61
830.391	24.76
830.565	23.86
830.738	23.84
830.912	23.62
831.085	23.76
831.259	25.85
831.432	26.03
831.606	26.8
831.779	26.15
831.953	26.61
832.126	26.08
832.3	25.56
832.473	25.9
832.647	24.48
832.82	24.42
832.994	24.37
833.167	23.43
833.34	23.46
833.514	23.42
833.687	23.65
833.86	23.04
834.034	22.98
834.207	23.06
834.38	23.28
834.553	23.45
834.727	23.18
834.9	23.63
835.073	24.52
835.246	24.81
835.419	25.15
835.593	25.95
835.766	26.05
835.939	26.64
836.112	27.11
836.285	26.75
836.458	26.09
836.631	26.61
836.804	26.24
836.977	25.11
837.15	24.93
837.323	25.4
837.496	22.92
837.669	23.39
837.842	20.68
838.015	20.08
838.188	19.85
838.361	22.89
838.533	22.39
838.706	22.1
838.879	21.56
839.052	22.64
839.225	20.25
839.398	20.93
839.57	20.71
839.743	21.74
839.916	22.09
840.088	22.08
840.261	21.81
840.434	22.82
840.607	22.31
840.779	22.89
840.952	21.85
841.124	23.63
841.297	23.57
841.47	22.56
841.642	23.57
841.815	23.28
841.987	23.01
842.16	24.46
842.332	24.42
842.505	25.2
842.677	25.63
842.85	25.6
843.022	23.73
843.194	25.74
843.367	27.96
843.539	25.66
843.712	26.14
843.884	23.95
844.056	23.55
844.229	23.36
844.401	22.07
844.573	19.59
844.745	20.01
844.918	22.71
845.09	22.6
845.262	20.59
845.434	24.32
845.606	25.54
845.779	28.69
845.951	24.82
846.123	24.86
846.295	26.19
846.467	26.35
846.639	29.2
846.811	27.69
846.983	29.94
847.155	29.45
847.327	30.65
847.499	27.72
847.671	29.23
847.843	28.21
848.015	27.34
848.187	25.62
848.359	27.77
848.531	19.96
848.703	21.66
848.875	15.65
849.047	17.28
849.218	14.72
849.39	16.51
849.562	17.07
849.734	14.2
849.905	18.26
850.077	23.11
850.249	24.02
850.421	27.85
850.592	23.7
850.764	24.86
850.936	26.94
851.107	27.27
851.279	25.63
851.451	25.85
851.622	29.12
851.794	26.42
851.965	22.67
852.137	21.52
852.308	19.71
852.48	24.45
852.651	25.08
852.823	21.9
852.994	17.46
853.166	17.89
853.337	14.85
853.509	16.27
853.68	16.45
853.851	19.9
854.023	17.02
854.194	20.25
854.365	21.35
854.537	23.92
854.708	27.52
854.879	32.23
855.05	30.61
855.222	31.02
855.393	31.49
855.564	30.28
855.735	30.75
855.906	31.11
856.078	32.05
856.249	27.84
856.42	22.47
856.591	15.91
856.762	18.04
856.933	19.59
857.104	19.87
857.275	18.92
857.446	18.5
857.617	19.2
857.788	23.46
857.959	20.09
858.13	24.69
858.301	27.43
858.472	27.77
858.643	25.56
858.814	26.85
858.985	29.31
859.155	26.85
859.326	27.75
859.497	24.03
859.668	22.87
859.839	26.1
860.009	23.17
860.18	21.35
860.351	25.18
860.522	24.86
860.692	24.26
860.863	20.36
861.034	26.78
861.204	28.78
861.375	28.15
861.546	26.95
861.716	23.74
861.887	28.12
862.057	31.99
862.228	34.6
862.398	32.12
862.569	29.41
862.739	31.15
862.91	29.56
863.08	26.36
863.251	30.67
863.421	30.99
863.592	28.13
863.762	26.44
863.932	23.8
864.103	22.55
864.273	24.81
864.443	27.27
864.614	25.83
864.784	25.04
864.954	23.96
865.125	17.96
865.295	19.41
865.465	23.8
865.635	21.27
865.805	21.91
865.976	19.97
866.146	18.37
866.316	16.91
866.486	18.29
866.656	19.05
866.826	18.01
866.996	22.17
867.166	21.84
867.336	18.52
867.506	15.92
867.676	11.89
867.846	12.9
868.016	17.16
868.186	19.02
868.356	16.32
868.526	18.69
868.696	20.3
868.866	20.58
869.036	21.07
869.206	22.65
869.376	26.14
869.545	33.08
869.715	33.54
869.885	30.37
870.055	28.78
870.224	32.79
870.394	26.99
870.564	29.15
870.734	27.3
870.903	27.86
871.073	27.81
871.243	26.91
871.412	26.91
871.582	29.13
871.751	23.04
871.921	26.51
872.091	22.5
872.26	28.93
872.43	28.27
872.599	25.49
872.769	23.84
872.938	26.78
873.108	23.45
873.277	18.08
873.446	15.41
873.616	22.58
873.785	20.69
873.955	24.91
874.124	20.21
874.293	19.24
874.463	23.44
874.632	20.34
874.801	22.54
874.971	24.6
875.14	25.98
875.309	26.33
875.478	22.59
875.647	18.6
875.817	15.17
875.986	19.26
876.155	17.61
876.324	18.47
876.493	20.33
876.662	14.22
876.831	14.43
877	16.21
877.17	17.31
877.339	20.02
877.508	21.74
877.677	23.78
877.846	21.21
878.015	21.64
878.184	20.05
878.352	20.55
878.521	19.44
878.69	18.56
878.859	18.74
879.028	15.97
879.197	14.4
879.366	14.25
879.534	12.45
879.703	14.41
879.872	17.51
880.041	19.65
880.21	21.42
880.378	22.77
880.547	24.79
880.716	24.06
880.884	24.31
881.053	24.65
881.222	25.1
881.39	25.12
881.559	24.84
881.727	23.16
881.896	22.54
882.065	22.42
882.233	22.46
882.402	22.75
882.57	23.87
882.739	24.39
882.907	24.51
883.076	24.46
883.244	24.95
883.412	24.66
883.581	25.24
883.749	25.8
883.918	24.65
884.086	24.5
884.254	23.01
884.423	22.09
884.591	22
884.759	21.94
884.927	22.31
885.096	21.56
885.264	21.64
885.432	22.36
885.6	21.15
885.769	22
885.937	22.11
886.105	23.67
886.273	21.7
886.441	20.94
886.609	19.96
886.777	18.25
886.945	18.14
887.113	18.43
887.281	13.95
887.449	13.91
887.617	13.14
887.785	13.16
887.953	10.76
888.121	11.64
888.289	12.25
888.457	15.58
888.625	15.94
888.793	15.26
888.961	17.09
889.129	21.09
889.296	23.89
889.464	25.14
889.632	25.63
889.8	28.5
889.967	32.17
890.135	30.86
