Data from 2938526_Reflection_2.txt Node
Date: Tue Jun 16 22:03:48 EDT 2015
User: robert
Spectrometer: USB4E03002
Autoset integration time: false
Trigger mode: 4
Integration Time (sec): 1.000000E-1
Scans to average: 10
Electric dark correction enabled: true
Nonlinearity correction enabled: false
Boxcar width: 5
Stray light correction enabled: false
XAxis mode: Wavelengths
Stop averaging: false
Number of Pixels in Spectrum: 3648
>>>>>Begin Spectral Data<<<<<
177.575	-116.93
177.794	-83.59
178.014	9.52
178.233	23.06
178.452	45.21
178.672	55.49
178.891	101.75
179.11	1284.3
179.33	2909.04
179.549	547.91
179.768	273.55
179.987	369.47
180.207	440.31
180.426	104.54
180.645	66.45
180.864	42.75
181.084	38.38
181.303	32.21
181.522	44.25
181.741	39.19
181.96	45.69
182.179	33.16
182.398	41.7
182.618	14.95
182.837	8.59
183.056	4.92
183.275	10.18
183.494	15.59
183.713	18.97
183.932	1.73
184.151	3.34
184.37	0.01
184.589	0.55
184.808	-9.11
185.027	18.6
185.246	30.89
185.465	38.82
185.684	47.35
185.903	50.77
186.122	55.75
186.341	63.71
186.56	89.69
186.779	141.43
186.998	144.05
187.216	176.88
187.435	227.16
187.654	253.12
187.873	351.84
188.092	413.23
188.311	-294.01
188.53	-150.94
188.748	-290.88
188.967	-5932.29
189.186	264.73
189.405	124.48
189.623	65.03
189.842	62.47
190.061	50.59
190.28	44.69
190.498	47.21
190.717	56.71
190.936	54.22
191.154	46.16
191.373	47.25
191.592	41.37
191.81	41.03
192.029	42.48
192.248	58.46
192.466	65.01
192.685	67.33
192.904	46.8
193.122	48.54
193.341	67.56
193.559	59.67
193.778	50.84
193.996	66.01
194.215	71.63
194.433	81.26
194.652	62.86
194.87	71.49
195.089	84.14
195.307	102.6
195.526	110.31
195.744	94.46
195.963	122.87
196.181	115.69
196.399	114.82
196.618	119.87
196.836	99.02
197.055	94.88
197.273	94.87
197.491	84.68
197.71	73.79
197.928	62.13
198.146	75.2
198.365	69.2
198.583	76.09
198.801	81.68
199.019	76.16
199.238	101.58
199.456	97.08
199.674	73.38
199.892	66.19
200.111	57.88
200.329	60.67
200.547	21.7
200.765	-3.32
200.983	4.35
201.202	-3.04
201.42	-1.35
201.638	-2.72
201.856	0.89
202.074	4.48
202.292	-30.91
202.51	-14.37
202.728	-18.08
202.946	4.77
203.165	6.04
203.383	-3.63
203.601	10.25
203.819	-13.5
204.037	-10.76
204.255	-6.21
204.473	27.21
204.691	44.17
204.909	46.41
205.127	51.3
205.345	59.34
205.562	53.17
205.78	37.86
205.998	33.67
206.216	44.43
206.434	47.03
206.652	45.31
206.87	35.84
207.088	45.15
207.306	52.66
207.523	57.59
207.741	52.28
207.959	71.73
208.177	70.15
208.395	68.84
208.612	68.8
208.83	69.54
209.048	67.43
209.266	57.07
209.483	38.39
209.701	23.79
209.919	24.36
210.136	32.55
210.354	10.08
210.572	16.09
210.79	21.97
211.007	19.82
211.225	19.54
211.442	24.31
211.66	27.64
211.878	45.26
212.095	67.21
212.313	59.38
212.53	65.02
212.748	69.08
212.966	65.56
213.183	67.45
213.401	75.08
213.618	67.82
213.836	67.12
214.053	69.78
214.271	71.75
214.488	61.26
214.705	62.34
214.923	49.68
215.14	44.34
215.358	39.4
215.575	28.11
215.793	25.46
216.01	27.89
216.227	43.11
216.445	47.04
216.662	41.61
216.879	47.18
217.097	48.06
217.314	49.84
217.531	52.81
217.749	56.53
217.966	56.43
218.183	56.02
218.4	48.38
218.618	42.9
218.835	41.96
219.052	39.9
219.269	40.12
219.487	36.5
219.704	38.91
219.921	30.21
220.138	29.73
220.355	23.79
220.572	29.68
220.79	30.49
221.007	30.76
221.224	26.3
221.441	22.51
221.658	15.29
221.875	14
222.092	9.71
222.309	16.98
222.526	11.1
222.743	16.44
222.96	13.91
223.177	21.92
223.394	20.38
223.611	22.96
223.828	27.4
224.045	24.77
224.262	30.18
224.479	28.28
224.696	27.33
224.913	28.47
225.13	25.83
225.347	25.42
225.564	19.6
225.781	16.37
225.997	15.21
226.214	13.42
226.431	14.17
226.648	11.6
226.865	12.63
227.082	11.2
227.298	10.89
227.515	11.15
227.732	11.05
227.949	11.43
228.165	11.75
228.382	11.33
228.599	12.42
228.816	11.91
229.032	12.48
229.249	9.66
229.466	9.87
229.682	10.18
229.899	10.4
230.116	8.97
230.332	9.85
230.549	9.27
230.765	8.86
230.982	8.89
231.199	10.38
231.415	10.84
231.632	12.33
231.848	12.39
232.065	11.28
232.281	11.81
232.498	13.11
232.714	11.58
232.931	11.92
233.147	12.26
233.364	9.29
233.58	8.6
233.797	9
234.013	11.07
234.23	12.19
234.446	12.44
234.662	13.14
234.879	11.82
235.095	12.6
235.312	13.84
235.528	15.93
235.744	16.77
235.961	16.68
236.177	14.89
236.393	14.33
236.61	13.82
236.826	13.45
237.042	13.96
237.258	16.08
237.475	16.62
237.691	16.12
237.907	14.36
238.123	16.13
238.339	15.69
238.556	14.72
238.772	14.86
238.988	15.15
239.204	14.56
239.42	13.37
239.636	11.95
239.853	11.29
240.069	10.64
240.285	10.26
240.501	9.18
240.717	9.27
240.933	9.2
241.149	8.94
241.365	8.86
241.581	9.51
241.797	9.44
242.013	9.81
242.229	9.97
242.445	10.78
242.661	10.09
242.877	10.64
243.093	10.52
243.309	11.44
243.525	11.05
243.741	10.54
243.957	10.62
244.173	10.37
244.388	10.61
244.604	10.5
244.82	10.04
245.036	10.71
245.252	10.68
245.468	10.59
245.683	10.27
245.899	10.36
246.115	10.77
246.331	10.49
246.547	10.51
246.762	10.82
246.978	11.36
247.194	11.54
247.409	11.84
247.625	12.18
247.841	12.36
248.057	12.48
248.272	12.87
248.488	12.5
248.703	12.35
248.919	12.24
249.135	11.17
249.35	9.94
249.566	9.61
249.782	9.63
249.997	8.59
250.213	8.56
250.428	8.58
250.644	8.18
250.859	8.64
251.075	8.9
251.29	8.44
251.506	8.29
251.721	8.38
251.937	9.06
252.152	8.31
252.368	8.3
252.583	8.08
252.798	9.16
253.014	9.78
253.229	8.78
253.445	8.99
253.66	9.62
253.875	9.87
254.091	10.15
254.306	8.82
254.521	9.45
254.737	8.9
254.952	8.56
255.167	8.03
255.383	8.06
255.598	7.46
255.813	6.63
256.028	6.87
256.244	6.95
256.459	6.68
256.674	6.69
256.889	6.3
257.104	6.89
257.32	7.52
257.535	6.92
257.75	6.89
257.965	7.1
258.18	7.56
258.395	7.56
258.61	7.39
258.826	7.8
259.041	7.88
259.256	8.29
259.471	8.17
259.686	8.13
259.901	7.98
260.116	7.8
260.331	7.82
260.546	7.74
260.761	7.8
260.976	8.33
261.191	8.06
261.406	8.56
261.621	8.01
261.836	8.1
262.05	7.8
262.265	8.76
262.48	9.74
262.695	10.21
262.91	9.68
263.125	9.8
263.34	9.37
263.555	9.05
263.769	9.09
263.984	9.41
264.199	9.19
264.414	9.02
264.629	9.54
264.843	9.14
265.058	9
265.273	9.11
265.488	9.1
265.702	9.19
265.917	9.74
266.132	9.3
266.346	9.31
266.561	9.64
266.776	9.25
266.99	8.12
267.205	8.07
267.42	8.29
267.634	8.02
267.849	7.92
268.063	7.72
268.278	6.76
268.492	6.75
268.707	6.73
268.922	6.7
269.136	6.79
269.351	7.27
269.565	6.55
269.78	6.24
269.994	6.14
270.209	5.98
270.423	6.1
270.637	6.42
270.852	6.1
271.066	6.11
271.281	6.16
271.495	6.43
271.709	6.73
271.924	6.69
272.138	6.94
272.353	7.72
272.567	7.84
272.781	7.72
272.996	7.74
273.21	7.99
273.424	7.8
273.638	7.46
273.853	7.48
274.067	7.09
274.281	7.62
274.495	7.46
274.71	6.89
274.924	6.88
275.138	6.82
275.352	6.39
275.566	6.74
275.781	7.2
275.995	7.36
276.209	7.82
276.423	7.62
276.637	8.05
276.851	7.73
277.065	7.72
277.279	7.57
277.493	8.33
277.707	8.77
277.921	8.35
278.135	7.36
278.349	7.52
278.563	6.59
278.777	6.88
278.991	6.5
279.205	6.39
279.419	6.1
279.633	6.15
279.847	5.72
280.061	5.64
280.275	5.89
280.489	6.45
280.703	6.19
280.917	6.54
281.131	6.27
281.344	6.57
281.558	6.73
281.772	7.25
281.986	7.4
282.2	7.32
282.414	7.07
282.627	6.94
282.841	7.12
283.055	7.33
283.269	7.3
283.482	7.05
283.696	6.68
283.91	6.92
284.123	6.4
284.337	6.48
284.551	6.52
284.764	6.84
284.978	6.9
285.192	6.61
285.405	6.67
285.619	6.79
285.833	7.54
286.046	7.49
286.26	7.18
286.473	7.37
286.687	7.65
286.9	7.45
287.114	7.19
287.327	7.65
287.541	7.6
287.754	7.55
287.968	7.47
288.181	7.02
288.395	7.29
288.608	7.81
288.822	8.01
289.035	7.43
289.248	7.37
289.462	7.76
289.675	7.4
289.889	7.71
290.102	7.63
290.315	7.75
290.529	7.9
290.742	7.48
290.955	7.22
291.169	7.04
291.382	7.83
291.595	8.33
291.808	8.23
292.022	8.77
292.235	8.62
292.448	8.95
292.661	8.83
292.875	9
293.088	9.32
293.301	9.36
293.514	9.56
293.727	9.14
293.94	9.18
294.153	8.86
294.367	8.36
294.58	8.23
294.793	8.15
295.006	8.31
295.219	8.6
295.432	8.77
295.645	8.61
295.858	8.5
296.071	8.49
296.284	8.4
296.497	8.68
296.71	8.74
296.923	8.88
297.136	8.78
297.349	8.78
297.562	8.54
297.775	8.6
297.988	8.41
298.201	8.84
298.414	9.02
298.626	8.93
298.839	8.77
299.052	8.68
299.265	9
299.478	9.2
299.691	9.25
299.903	9.12
300.116	9.02
300.329	9.83
300.542	9.79
300.755	9.96
300.967	9.79
301.18	10.06
301.393	10.47
301.605	9.89
301.818	9.96
302.031	10.22
302.243	10.22
302.456	10.12
302.669	9.74
302.881	9.87
303.094	9.78
303.307	9.76
303.519	9.78
303.732	9.71
303.944	9.75
304.157	10.1
304.37	9.68
304.582	9.99
304.795	9.94
305.007	9.9
305.22	9.34
305.432	9.79
305.645	10.11
305.857	10.37
306.069	10.71
306.282	10.81
306.494	10.25
306.707	10.39
306.919	10.21
307.132	10.47
307.344	10.78
307.556	10.99
307.769	10.91
307.981	10.77
308.193	10.82
308.406	10.28
308.618	10.53
308.83	10.48
309.043	10.38
309.255	10.34
309.467	10.37
309.679	10.31
309.892	10.43
310.104	10.14
310.316	10.87
310.528	10.66
310.74	10.95
310.953	10.76
311.165	10.89
311.377	10.8
311.589	10.56
311.801	10.37
312.013	10.24
312.225	10.11
312.437	10.36
312.649	10.03
312.862	9.98
313.074	9.96
313.286	10.2
313.498	10.1
313.71	10.39
313.922	11.02
314.134	11.1
314.346	11.16
314.558	11.42
314.77	11.35
314.982	11.19
315.193	10.95
315.405	11.14
315.617	11.21
315.829	11.37
316.041	11.32
316.253	11.2
316.465	12.01
316.677	12.12
316.888	11.91
317.1	11.74
317.312	12.09
317.524	12.81
317.736	12.67
317.947	13.31
318.159	13.19
318.371	13.02
318.583	13.36
318.794	12.76
319.006	12.85
319.218	12.56
319.43	12.06
319.641	11.53
319.853	10.9
320.064	10.86
320.276	10.42
320.488	10.68
320.699	11.13
320.911	10.68
321.123	10.43
321.334	10.49
321.546	10.87
321.757	11.13
321.969	11.55
322.18	12.07
322.392	12.39
322.603	12.15
322.815	12.33
323.026	11.97
323.238	11.97
323.449	12.08
323.661	11.89
323.872	12.32
324.083	12.55
324.295	11.95
324.506	11.34
324.718	11
324.929	10.9
325.14	10.87
325.352	11.12
325.563	11.02
325.774	10.88
325.986	10.99
326.197	10.68
326.408	10.6
326.62	11.15
326.831	11.64
327.042	11.65
327.253	11.78
327.464	11.61
327.676	11.3
327.887	11.33
328.098	11.54
328.309	11.69
328.52	11.78
328.732	12.11
328.943	11.66
329.154	11.41
329.365	11.74
329.576	11.61
329.787	11.61
329.998	11.64
330.209	11.89
330.42	11.89
330.631	11.5
330.842	11.57
331.053	11.05
331.264	11.34
331.475	11.33
331.686	11.23
331.897	11.09
332.108	11.06
332.319	11.16
332.53	10.57
332.741	10.52
332.952	10.55
333.163	10.05
333.374	10.27
333.585	10.11
333.795	9.92
334.006	10.04
334.217	9.93
334.428	9.74
334.639	10.11
334.849	10.46
335.06	10.31
335.271	10.53
335.482	10.67
335.692	10.54
335.903	10.25
336.114	10.59
336.325	10.01
336.535	10.73
336.746	11.06
336.957	10.73
337.167	10.99
337.378	10.89
337.589	10.63
337.799	10.54
338.01	10.84
338.22	11.07
338.431	11.26
338.642	11.51
338.852	11.21
339.063	10.95
339.273	10.78
339.484	10.45
339.694	10.45
339.905	10.45
340.115	10.3
340.326	10.01
340.536	9.96
340.746	9.55
340.957	9.66
341.167	9.31
341.378	9.28
341.588	9.28
341.799	9.2
342.009	9.29
342.219	9.32
342.43	9.55
342.64	9.72
342.85	9.83
343.061	9.6
343.271	9.64
343.481	9.33
343.691	9.34
343.902	9.56
344.112	9.7
344.322	9.61
344.532	9.73
344.743	9.76
344.953	9.38
345.163	9.16
345.373	9.35
345.583	9.07
345.793	9.26
346.004	9.34
346.214	8.94
346.424	8.99
346.634	8.99
346.844	8.75
347.054	8.59
347.264	8.82
347.474	8.87
347.684	8.82
347.894	8.72
348.104	9.08
348.314	9.04
348.524	9.28
348.734	8.87
348.944	9.02
349.154	9.14
349.364	8.95
349.574	8.84
349.784	8.58
349.994	8.57
350.204	8.23
350.413	8.06
350.623	8.22
350.833	8.34
351.043	8.49
351.253	8.22
351.463	7.94
351.672	8.26
351.882	8.12
352.092	8.23
352.302	7.97
352.511	8.58
352.721	8.67
352.931	8.73
353.141	8.41
353.35	8.67
353.56	8.69
353.77	8.76
353.979	8.72
354.189	8.81
354.399	9.11
354.608	9.35
354.818	9.24
355.027	9.29
355.237	9.02
355.447	8.97
355.656	8.64
355.866	8.75
356.075	8.78
356.285	8.54
356.494	8.53
356.704	8.41
356.913	8.57
357.123	8.37
357.332	8.19
357.542	8.22
357.751	8.43
357.96	8.49
358.17	8.55
358.379	8.53
358.589	8.85
358.798	8.85
359.007	8.52
359.217	8.26
359.426	8.32
359.635	8.55
359.845	8.43
360.054	8.29
360.263	8.3
360.472	8.14
360.682	8.1
360.891	7.79
361.1	7.75
361.309	7.9
361.519	7.98
361.728	7.9
361.937	7.74
362.146	7.87
362.355	7.89
362.564	7.85
362.774	7.66
362.983	7.72
363.192	7.68
363.401	7.86
363.61	7.92
363.819	7.88
364.028	7.99
364.237	7.47
364.446	7.12
364.655	7.1
364.864	7.15
365.073	7.37
365.282	7.36
365.491	7.51
365.7	7.5
365.909	7.36
366.118	7.12
366.327	7.1
366.536	7.42
366.745	7.67
366.954	7.46
367.162	7.54
367.371	7.6
367.58	7.69
367.789	7.38
367.998	7.34
368.207	7.28
368.415	7.38
368.624	7.12
368.833	7.08
369.042	6.97
369.25	7.32
369.459	7.13
369.668	7
369.877	6.79
370.085	7.06
370.294	7.04
370.503	6.94
370.711	6.94
370.92	6.94
371.129	7.01
371.337	6.94
371.546	6.61
371.754	6.76
371.963	6.63
372.171	6.55
372.38	6.26
372.589	6.24
372.797	6.28
373.006	6.3
373.214	6.52
373.423	6.45
373.631	6.68
373.84	6.9
374.048	6.69
374.256	6.69
374.465	6.91
374.673	7.15
374.882	6.93
375.09	7.03
375.298	7.09
375.507	7.03
375.715	7.31
375.923	7.43
376.132	7.38
376.34	7.4
376.548	7.54
376.757	7.41
376.965	7.41
377.173	7.39
377.381	7.49
377.59	7.49
377.798	7.42
378.006	7.35
378.214	7.08
378.423	6.85
378.631	6.91
378.839	6.97
379.047	7.04
379.255	6.98
379.463	7.14
379.671	6.7
379.879	6.75
380.088	6.71
380.296	6.42
380.504	6.58
380.712	6.69
380.92	6.58
381.128	6.55
381.336	6.52
381.544	6.42
381.752	6.2
381.96	6.34
382.168	6.18
382.376	6.21
382.584	6.36
382.791	6.15
382.999	6.17
383.207	6.18
383.415	5.99
383.623	5.96
383.831	6.07
384.039	6.14
384.247	6.2
384.454	6.29
384.662	6.22
384.87	6.07
385.078	6.23
385.285	6.23
385.493	6.12
385.701	6.07
385.909	5.89
386.116	5.7
386.324	5.74
386.532	5.96
386.739	5.96
386.947	6
387.155	6.07
387.362	5.92
387.57	5.83
387.778	5.89
387.985	5.81
388.193	5.89
388.4	5.76
388.608	5.74
388.816	5.43
389.023	5.47
389.231	5.49
389.438	5.5
389.646	5.54
389.853	5.69
390.061	5.44
390.268	5.63
390.475	5.78
390.683	5.86
390.89	5.78
391.098	5.93
391.305	6.09
391.512	6.11
391.72	5.99
391.927	5.78
392.135	5.58
392.342	5.69
392.549	5.73
392.756	5.36
392.964	5.33
393.171	5.48
393.378	5.44
393.586	5.18
393.793	5.06
394	5.13
394.207	5.41
394.414	5.4
394.622	5.48
394.829	5.35
395.036	5.57
395.243	5.74
395.45	5.55
395.657	5.48
395.864	5.55
396.072	5.57
396.279	5.63
396.486	5.41
396.693	5.5
396.9	5.65
397.107	5.59
397.314	5.51
397.521	5.6
397.728	5.61
397.935	5.81
398.142	5.84
398.349	5.79
398.556	5.66
398.763	5.82
398.97	5.72
399.177	5.55
399.383	5.56
399.59	5.41
399.797	5.33
400.004	5.27
400.211	5.05
400.418	4.96
400.625	5.08
400.831	5.11
401.038	4.9
401.245	5.04
401.452	5.07
401.658	5.07
401.865	5.14
402.072	5.05
402.279	5.11
402.485	5.05
402.692	5.13
402.899	4.99
403.105	4.96
403.312	5.08
403.519	5
403.725	5.01
403.932	5
404.138	5.13
404.345	5.14
404.552	5.17
404.758	5.23
404.965	5.04
405.171	5.08
405.378	5.21
405.584	5.21
405.791	5.16
405.997	5.24
406.204	5.4
406.41	5.52
406.617	5.43
406.823	5.37
407.029	5.43
407.236	5.6
407.442	5.75
407.649	5.72
407.855	5.68
408.061	5.92
408.268	5.7
408.474	5.63
408.68	5.58
408.887	5.66
409.093	5.78
409.299	5.68
409.505	5.58
409.712	5.51
409.918	5.57
410.124	5.65
410.33	5.57
410.537	5.57
410.743	5.51
410.949	5.36
411.155	5.33
411.361	5.17
411.567	5.25
411.773	5.16
411.98	5.24
412.186	5.02
412.392	5.01
412.598	4.88
412.804	4.99
413.01	4.88
413.216	4.9
413.422	4.91
413.628	5.01
413.834	4.83
414.04	4.92
414.246	4.82
414.452	4.83
414.658	4.88
414.864	4.84
415.07	4.83
415.275	5.03
415.481	4.97
415.687	5.04
415.893	5.08
416.099	5.14
416.305	5.18
416.511	5.13
416.716	5.15
416.922	5.09
417.128	5.2
417.334	5.19
417.539	5.01
417.745	5.06
417.951	5.01
418.157	4.94
418.362	4.99
418.568	4.87
418.774	4.9
418.979	4.93
419.185	4.86
419.391	4.77
419.596	4.75
419.802	4.75
420.008	4.67
420.213	4.63
420.419	4.66
420.624	4.56
420.83	4.56
421.035	4.56
421.241	4.53
421.446	4.55
421.652	4.65
421.857	4.64
422.063	4.76
422.268	4.82
422.474	4.8
422.679	4.81
422.885	4.81
423.09	4.8
423.295	4.78
423.501	4.76
423.706	4.78
423.911	4.62
424.117	4.61
424.322	4.56
424.527	4.56
424.733	4.55
424.938	4.47
425.143	4.54
425.349	4.62
425.554	4.65
425.759	4.65
425.964	4.55
426.169	4.66
426.375	4.56
426.58	4.54
426.785	4.52
426.99	4.59
427.195	4.64
427.4	4.73
427.605	4.76
427.811	4.65
428.016	4.72
428.221	4.77
428.426	4.75
428.631	4.91
428.836	4.88
429.041	4.89
429.246	4.82
429.451	4.69
429.656	4.55
429.861	4.45
430.066	4.56
430.271	4.49
430.476	4.58
430.681	4.63
430.886	4.59
431.09	4.65
431.295	4.54
431.5	4.55
431.705	4.62
431.91	4.66
432.115	4.7
432.32	4.66
432.524	4.63
432.729	4.55
432.934	4.5
433.139	4.51
433.343	4.49
433.548	4.56
433.753	4.59
433.958	4.57
434.162	4.58
434.367	4.58
434.572	4.55
434.776	4.5
434.981	4.56
435.186	4.48
435.39	4.38
435.595	4.37
435.799	4.34
436.004	4.38
436.209	4.32
436.413	4.17
436.618	4.22
436.822	4.23
437.027	4.28
437.231	4.16
437.436	4.17
437.64	4.21
437.845	4.23
438.049	4.24
438.253	4.19
438.458	4.31
438.662	4.39
438.867	4.43
439.071	4.41
439.275	4.39
439.48	4.5
439.684	4.51
439.888	4.59
440.093	4.59
440.297	4.5
440.501	4.54
440.706	4.46
440.91	4.5
441.114	4.38
441.318	4.4
441.523	4.43
441.727	4.39
441.931	4.48
442.135	4.32
442.339	4.19
442.543	4.36
442.748	4.21
442.952	4.22
443.156	4.2
443.36	4.2
443.564	4.18
443.768	4.18
443.972	4.11
444.176	4.11
444.38	4.23
444.584	4.23
444.788	4.23
444.992	4.32
445.196	4.32
445.4	4.28
445.604	4.31
445.808	4.32
446.012	4.26
446.216	4.25
446.42	4.26
446.624	4.18
446.828	4.32
447.032	4.27
447.235	4.26
447.439	4.26
447.643	4.27
447.847	4.23
448.051	4.27
448.254	4.35
448.458	4.36
448.662	4.34
448.866	4.36
449.069	4.28
449.273	4.31
449.477	4.29
449.681	4.31
449.884	4.39
450.088	4.36
450.292	4.34
450.495	4.39
450.699	4.52
450.902	4.44
451.106	4.44
451.31	4.38
451.513	4.42
451.717	4.43
451.92	4.44
452.124	4.39
452.327	4.45
452.531	4.51
452.734	4.57
452.938	4.56
453.141	4.62
453.345	4.6
453.548	4.58
453.752	4.47
453.955	4.48
454.158	4.42
454.362	4.39
454.565	4.44
454.769	4.33
454.972	4.18
455.175	4.17
455.379	4.2
455.582	4.23
455.785	4.35
455.988	4.37
456.192	4.37
456.395	4.32
456.598	4.34
456.801	4.26
457.005	4.29
457.208	4.3
457.411	4.25
457.614	4.07
457.817	4.11
458.021	4.11
458.224	4.08
458.427	3.98
458.63	4.03
458.833	4.03
459.036	3.99
459.239	3.99
459.442	4
459.645	3.97
459.848	4
460.051	4.02
460.254	3.97
460.457	4.05
460.66	4.15
460.863	4.12
461.066	4.19
461.269	4.24
461.472	4.25
461.675	4.25
461.878	4.32
462.081	4.34
462.284	4.27
462.486	4.24
462.689	4.19
462.892	4.16
463.095	4.21
463.298	4.07
463.5	4.22
463.703	4.25
463.906	4.36
464.109	4.39
464.311	4.47
464.514	4.49
464.717	4.49
464.92	4.5
465.122	4.51
465.325	4.4
465.528	4.49
465.73	4.3
465.933	4.19
466.135	4.15
466.338	4.06
466.541	4.06
466.743	4.04
466.946	4.08
467.148	4.07
467.351	4.07
467.553	4.15
467.756	4.2
467.958	4.2
468.161	4.29
468.363	4.13
468.566	4.11
468.768	4.17
468.971	4.1
469.173	4.13
469.375	4.05
469.578	4.02
469.78	4.04
469.983	3.88
470.185	3.88
470.387	3.78
470.59	3.85
470.792	3.89
470.994	3.76
471.196	3.78
471.399	3.75
471.601	3.79
471.803	3.77
472.005	3.81
472.208	3.87
472.41	3.83
472.612	3.85
472.814	3.82
473.016	3.85
473.218	4.06
473.421	4.03
473.623	4.02
473.825	4.1
474.027	4.13
474.229	4.07
474.431	4.13
474.633	4.18
474.835	4.23
475.037	4.24
475.239	4.18
475.441	4
475.643	4.03
475.845	4.08
476.047	4.09
476.249	4.07
476.451	4.06
476.653	4.12
476.855	4.13
477.057	4.08
477.258	4.1
477.46	4.13
477.662	4.11
477.864	4.13
478.066	4.09
478.268	4.01
478.469	4.06
478.671	4.16
478.873	4.09
479.075	4.09
479.276	4.1
479.478	4.08
479.68	4.09
479.882	4.11
480.083	4.13
480.285	4.16
480.487	4.15
480.688	4.17
480.89	4.11
481.091	4.06
481.293	4.03
481.495	4
481.696	4.01
481.898	3.97
482.099	3.96
482.301	3.93
482.502	3.9
482.704	3.94
482.905	3.9
483.107	3.91
483.308	3.91
483.51	3.91
483.711	3.89
483.913	3.89
484.114	3.91
484.315	3.91
484.517	3.94
484.718	3.96
484.92	3.92
485.121	3.93
485.322	3.9
485.524	3.89
485.725	3.89
485.926	3.88
486.127	3.9
486.329	3.89
486.53	3.89
486.731	3.89
486.932	3.87
487.134	3.85
487.335	3.82
487.536	3.82
487.737	3.83
487.938	3.83
488.139	3.86
488.341	3.83
488.542	3.83
488.743	3.83
488.944	3.83
489.145	3.84
489.346	3.84
489.547	3.86
489.748	3.88
489.949	3.92
490.15	3.89
490.351	3.87
490.552	3.88
490.753	3.88
490.954	3.89
491.155	3.86
491.356	3.85
491.557	3.9
491.758	3.96
491.959	3.94
492.159	3.89
492.36	3.92
492.561	3.99
492.762	4.04
492.963	4.07
493.164	4.05
493.364	4.04
493.565	4.01
493.766	4.06
493.967	3.97
494.167	4.02
494.368	4.1
494.569	4.13
494.769	4.07
494.97	4.03
495.171	4.02
495.371	4.03
495.572	4.09
495.773	4.12
495.973	4.08
496.174	4.06
496.375	4
496.575	3.98
496.776	4.01
496.976	4.06
497.177	4.06
497.377	4.09
497.578	4.21
497.778	4.2
497.979	4.21
498.179	4.21
498.38	4.3
498.58	4.41
498.78	4.42
498.981	4.39
499.181	4.32
499.382	4.32
499.582	4.3
499.782	4.21
499.983	4.15
500.183	4.18
500.383	4.18
500.584	4.04
500.784	3.91
500.984	3.94
501.184	3.92
501.385	4.01
501.585	4.04
501.785	3.94
501.985	3.95
502.185	4.02
502.386	3.98
502.586	3.95
502.786	4.02
502.986	4.14
503.186	4.14
503.386	4.09
503.586	4.07
503.786	4.01
503.987	4.17
504.187	4.14
504.387	4.13
504.587	4.17
504.787	4.25
504.987	4.31
505.187	4.22
505.387	4.2
505.587	4.3
505.786	4.35
505.986	4.39
506.186	4.35
506.386	4.41
506.586	4.47
506.786	4.46
506.986	4.42
507.186	4.39
507.386	4.47
507.585	4.46
507.785	4.43
507.985	4.42
508.185	4.46
508.384	4.45
508.584	4.4
508.784	4.41
508.984	4.43
509.183	4.43
509.383	4.42
509.583	4.34
509.782	4.28
509.982	4.28
510.182	4.28
510.381	4.18
510.581	4.21
510.781	4.29
510.98	4.28
511.18	4.27
511.379	4.29
511.579	4.23
511.778	4.31
511.978	4.36
512.177	4.34
512.377	4.34
512.576	4.44
512.776	4.44
512.975	4.35
513.175	4.3
513.374	4.26
513.573	4.28
513.773	4.34
513.972	4.29
514.172	4.33
514.371	4.41
514.57	4.34
514.77	4.34
514.969	4.35
515.168	4.4
515.367	4.47
515.567	4.52
515.766	4.5
515.965	4.52
516.164	4.57
516.364	4.54
516.563	4.49
516.762	4.54
516.961	4.5
517.16	4.46
517.359	4.44
517.559	4.47
517.758	4.46
517.957	4.42
518.156	4.46
518.355	4.45
518.554	4.44
518.753	4.44
518.952	4.46
519.151	4.48
519.35	4.53
519.549	4.53
519.748	4.47
519.947	4.52
520.146	4.61
520.345	4.55
520.544	4.54
520.743	4.63
520.942	4.62
521.141	4.59
521.339	4.64
521.538	4.52
521.737	4.58
521.936	4.56
522.135	4.53
522.333	4.54
522.532	4.48
522.731	4.47
522.93	4.47
523.129	4.56
523.327	4.6
523.526	4.52
523.725	4.66
523.923	4.65
524.122	4.72
524.321	4.7
524.519	4.64
524.718	4.69
524.917	4.77
525.115	4.76
525.314	4.73
525.512	4.73
525.711	4.77
525.909	4.76
526.108	4.73
526.306	4.76
526.505	4.78
526.703	4.81
526.902	4.8
527.1	4.78
527.299	4.78
527.497	4.78
527.696	4.77
527.894	4.8
528.092	4.8
528.291	4.78
528.489	4.73
528.688	4.73
528.886	4.76
529.084	4.79
529.283	4.81
529.481	4.83
529.679	4.8
529.877	4.83
530.076	4.78
530.274	4.8
530.472	4.84
530.67	4.86
530.869	4.85
531.067	4.88
531.265	4.86
531.463	4.88
531.661	4.9
531.859	4.92
532.057	4.94
532.255	4.96
532.454	4.97
532.652	5.02
532.85	5.06
533.048	5.1
533.246	5.06
533.444	5.06
533.642	5.06
533.84	5.02
534.038	5.03
534.236	5.03
534.434	5.03
534.632	4.98
534.83	4.99
535.027	5
535.225	5.03
535.423	5.1
535.621	5.16
535.819	5.12
536.017	5.12
536.215	5.12
536.412	5.11
536.61	5.11
536.808	5.14
537.006	5.13
537.203	5.17
537.401	5.19
537.599	5.19
537.797	5.17
537.994	5.24
538.192	5.31
538.39	5.43
538.587	5.52
538.785	5.6
538.983	5.63
539.18	5.66
539.378	5.62
539.575	5.63
539.773	5.62
539.97	5.64
540.168	5.62
540.366	5.65
540.563	5.62
540.761	5.61
540.958	5.59
541.155	5.61
541.353	5.62
541.55	5.62
541.748	5.59
541.945	5.68
542.143	5.66
542.34	5.69
542.537	5.68
542.735	5.65
542.932	5.62
543.129	5.65
543.327	5.64
543.524	5.74
543.721	5.75
543.919	5.77
544.116	5.67
544.313	5.83
544.51	5.84
544.708	5.86
544.905	5.96
545.102	6.07
545.299	6.11
545.496	6.09
545.693	5.97
545.891	5.98
546.088	6.08
546.285	6.19
546.482	6.09
546.679	6.15
546.876	6.26
547.073	6.19
547.27	6.21
547.467	6.16
547.664	6.24
547.861	6.38
548.058	6.48
548.255	6.47
548.452	6.45
548.649	6.57
548.846	6.57
549.043	6.55
549.24	6.65
549.437	6.64
549.633	6.73
549.83	6.74
550.027	6.75
550.224	6.73
550.421	6.7
550.618	6.74
550.814	6.69
551.011	6.77
551.208	6.76
551.405	6.86
551.601	6.86
551.798	6.9
551.995	6.84
552.191	6.87
552.388	6.91
552.585	6.94
552.781	6.93
552.978	6.82
553.175	6.85
553.371	6.84
553.568	6.73
553.764	6.79
553.961	6.87
554.157	6.95
554.354	6.93
554.55	6.9
554.747	6.92
554.943	6.92
555.14	7.09
555.336	7.11
555.533	7.09
555.729	7.22
555.926	7.23
556.122	7.22
556.318	7.32
556.515	7.44
556.711	7.5
556.907	7.58
557.104	7.68
557.3	7.79
557.496	7.76
557.693	7.86
557.889	7.83
558.085	7.92
558.281	7.92
558.478	7.89
558.674	7.94
558.87	7.88
559.066	7.89
559.262	7.93
559.459	7.84
559.655	7.88
559.851	7.91
560.047	7.89
560.243	7.9
560.439	7.97
560.635	8.04
560.831	7.92
561.027	8.06
561.223	8.08
561.419	8.14
561.615	8.17
561.811	8.23
562.007	8.25
562.203	8.38
562.399	8.28
562.595	8.33
562.791	8.42
562.987	8.62
563.183	8.65
563.379	8.71
563.575	8.67
563.771	8.79
563.966	8.9
564.162	8.91
564.358	8.95
564.554	9.09
564.75	9.07
564.945	9.03
565.141	8.99
565.337	9.11
565.533	9.07
565.728	9.06
565.924	9.05
566.12	9.01
566.315	9.03
566.511	8.96
566.707	8.97
566.902	9.01
567.098	9.07
567.293	9.09
567.489	9.08
567.684	9.13
567.88	9.15
568.076	9.08
568.271	9.22
568.467	9.28
568.662	9.33
568.858	9.46
569.053	9.48
569.248	9.46
569.444	9.53
569.639	9.53
569.835	9.48
570.03	9.63
570.225	9.76
570.421	9.83
570.616	9.96
570.812	10.06
571.007	10.01
571.202	10.06
571.397	10.11
571.593	9.99
571.788	10.05
571.983	10.17
572.178	10.04
572.374	10.05
572.569	9.97
572.764	9.91
572.959	9.82
573.154	9.82
573.35	9.77
573.545	9.81
573.74	9.91
573.935	9.98
574.13	10.09
574.325	10.15
574.52	10.26
574.715	10.26
574.91	10.31
575.105	10.38
575.3	10.37
575.495	10.46
575.69	10.41
575.885	10.49
576.08	10.5
576.275	10.35
576.47	10.35
576.665	10.29
576.86	10.34
577.055	10.33
577.25	10.44
577.444	10.47
577.639	10.51
577.834	10.54
578.029	10.4
578.224	10.41
578.418	10.5
578.613	10.61
578.808	10.67
579.003	10.6
579.197	10.61
579.392	10.55
579.587	10.6
579.781	10.56
579.976	10.52
580.171	10.67
580.365	10.62
580.56	10.71
580.755	10.72
580.949	10.66
581.144	10.74
581.338	10.73
581.533	10.68
581.727	10.78
581.922	10.78
582.116	11.05
582.311	10.99
582.505	11.1
582.7	11.02
582.894	11.13
583.089	11.09
583.283	10.96
583.478	10.99
583.672	11.11
583.866	11.05
584.061	10.96
584.255	10.83
584.449	11.02
584.644	10.95
584.838	11.02
585.032	11.03
585.226	11.06
585.421	11.18
585.615	11.3
585.809	11.25
586.003	11.29
586.198	11.55
586.392	11.56
586.586	11.47
586.78	11.4
586.974	11.46
587.168	11.48
587.363	11.46
587.557	11.43
587.751	11.3
587.945	11.38
588.139	11.35
588.333	11.23
588.527	11.18
588.721	11.19
588.915	11.31
589.109	11.28
589.303	11.22
589.497	11.13
589.691	11.08
589.885	11.12
590.079	11.12
590.273	11.1
590.466	11.04
590.66	11.04
590.854	11.09
591.048	10.98
591.242	11.08
591.436	11.05
591.629	11.31
591.823	11.5
592.017	11.53
592.211	11.51
592.404	11.55
592.598	11.74
592.792	11.9
592.986	11.95
593.179	11.99
593.373	11.91
593.567	11.96
593.76	11.8
593.954	11.93
594.147	11.94
594.341	12.02
594.535	12.09
594.728	11.97
594.922	11.9
595.115	11.84
595.309	11.86
595.502	11.86
595.696	11.94
595.889	12.07
596.083	11.84
596.276	11.8
596.47	11.74
596.663	11.68
596.856	11.68
597.05	11.66
597.243	11.69
597.437	11.58
597.63	11.54
597.823	11.46
598.017	11.39
598.21	11.66
598.403	11.67
598.596	11.73
598.79	11.77
598.983	11.67
599.176	11.69
599.369	11.69
599.563	11.82
599.756	11.79
599.949	11.86
600.142	11.97
600.335	11.81
600.528	11.9
600.722	12.02
600.915	12.07
601.108	12.19
601.301	12.21
601.494	12.2
601.687	12.12
601.88	12.07
602.073	11.99
602.266	11.9
602.459	11.89
602.652	11.81
602.845	11.77
603.038	11.61
603.231	11.76
603.424	11.8
603.617	11.78
603.809	11.85
604.002	11.89
604.195	12.01
604.388	12.11
604.581	12.2
604.774	12.3
604.966	12.17
605.159	12.21
605.352	12.14
605.545	12.09
605.737	12.16
605.93	12.04
606.123	12.14
606.316	12.04
606.508	12.03
606.701	12.01
606.894	11.95
607.086	11.94
607.279	11.94
607.471	11.82
607.664	11.84
607.857	11.81
608.049	12.03
608.242	12.04
608.434	12.1
608.627	12.01
608.819	11.87
609.012	11.87
609.204	11.98
609.397	12.1
609.589	12.25
609.782	12.3
609.974	12.41
610.166	12.31
610.359	12.23
610.551	12.16
610.743	12.29
610.936	12.39
611.128	12.42
611.32	12.27
611.513	12.28
611.705	12.23
611.897	11.98
612.09	11.93
612.282	11.89
612.474	11.8
612.666	11.99
612.858	11.94
613.051	11.95
613.243	11.83
613.435	12.12
613.627	12.02
613.819	11.84
614.011	12.31
614.203	12.17
614.395	12.27
614.588	12.23
614.78	12.04
614.972	12.1
615.164	12.06
615.356	12.03
615.548	11.92
615.74	12.05
615.932	12.01
616.124	11.8
616.315	11.95
616.507	11.92
616.699	12.17
616.891	12.3
617.083	12.31
617.275	12.51
617.467	12.4
617.659	12.49
617.85	12.66
618.042	12.78
618.234	12.66
618.426	12.73
618.618	12.85
618.809	12.74
619.001	12.57
619.193	12.51
619.384	12.23
619.576	12.36
619.768	12.41
619.959	12.11
620.151	12.39
620.343	12.51
620.534	12.52
620.726	12.39
620.917	12.57
621.109	12.37
621.301	12.29
621.492	12.36
621.684	12.51
621.875	12.39
622.067	12.35
622.258	12.07
622.45	12.08
622.641	11.95
622.832	11.92
623.024	11.82
623.215	12.08
623.407	12.17
623.598	12.22
623.789	12.12
623.981	12.13
624.172	12.25
624.363	12.22
624.555	12.24
624.746	12.2
624.937	12.16
625.129	12.18
625.32	12.17
625.511	12.12
625.702	12.21
625.893	12.17
626.085	12.14
626.276	12.24
626.467	12.45
626.658	12.29
626.849	12.26
627.04	12.21
627.231	12.19
627.422	12.17
627.614	12.32
627.805	12.13
627.996	12.27
628.187	12.36
628.378	12.25
628.569	12.15
628.76	12.41
628.951	12.47
629.142	12.46
629.332	12.35
629.523	12.28
629.714	12.28
629.905	12.51
630.096	12.44
630.287	12.65
630.478	12.55
630.669	12.52
630.859	12.31
631.05	12.33
631.241	12.45
631.432	12.43
631.623	12.47
631.813	12.36
632.004	12.25
632.195	12.25
632.385	11.86
632.576	11.95
632.767	11.93
632.957	12.2
633.148	12.12
633.339	11.97
633.529	12.16
633.72	12.14
633.91	12.21
634.101	12.15
634.292	12.2
634.482	12.21
634.673	12.2
634.863	12.25
635.054	12.08
635.244	12.16
635.435	12.3
635.625	12.07
635.815	12.28
636.006	12.23
636.196	12.48
636.387	12.43
636.577	12.42
636.767	12.49
636.958	12.49
637.148	12.53
637.338	12.39
637.529	12.55
637.719	12.9
637.909	12.76
638.099	12.65
638.29	12.5
638.48	12.67
638.67	12.73
638.86	12.84
639.05	12.8
639.241	12.78
639.431	12.84
639.621	12.74
639.811	12.54
640.001	12.52
640.191	12.53
640.381	12.33
640.571	12.15
640.761	12.37
640.951	12.17
641.141	12.13
641.331	12.02
641.521	12.1
641.711	12.16
641.901	12.33
642.091	12.44
642.281	12.35
642.471	12.42
642.661	12.5
642.851	12.31
643.041	12.25
643.231	12.17
643.42	12.29
643.61	12.26
643.8	12.28
643.99	12.2
644.18	11.76
644.369	12
644.559	12.15
644.749	12.37
644.939	12.48
645.128	12.45
645.318	12.58
645.508	12.5
645.697	12.48
645.887	12.34
646.076	12.06
646.266	12.45
646.456	12.32
646.645	12.2
646.835	11.8
647.024	11.68
647.214	11.78
647.403	11.89
647.593	11.91
647.782	11.86
647.972	12.01
648.161	12.09
648.351	12.03
648.54	12.01
648.73	12.13
648.919	12.28
649.108	12.56
649.298	12.51
649.487	12.38
649.677	12.43
649.866	12.57
650.055	12.43
650.244	12.46
650.434	12.57
650.623	12.62
650.812	12.56
651.002	12.39
651.191	12.24
651.38	12.31
651.569	12.23
651.758	12.1
651.947	12.36
652.137	12.35
652.326	12.53
652.515	12.59
652.704	12.68
652.893	12.7
653.082	13
653.271	13.21
653.46	13.29
653.649	13.4
653.838	13.52
654.027	13.33
654.216	13.3
654.405	13.35
654.594	13.2
654.783	12.97
654.972	13.04
655.161	12.9
655.35	12.53
655.539	12.75
655.728	12.88
655.916	12.71
656.105	12.51
656.294	12.82
656.483	12.55
656.672	12.42
656.86	12.55
657.049	12.41
657.238	12.38
657.427	12.47
657.615	12.2
657.804	12.08
657.993	12.16
658.181	12.31
658.37	12.22
658.559	12.19
658.747	12.24
658.936	12.49
659.125	12.6
659.313	12.56
659.502	12.65
659.69	12.73
659.879	12.68
660.067	12.82
660.256	12.73
660.444	12.61
660.633	12.78
660.821	12.85
661.01	12.49
661.198	12.49
661.387	12.58
661.575	12.56
661.763	12.68
661.952	12.78
662.14	12.75
662.328	12.73
662.517	12.85
662.705	13.03
662.893	13.05
663.082	13.14
663.27	13.04
663.458	13.18
663.646	12.92
663.834	12.87
664.023	12.97
664.211	12.82
664.399	12.96
664.587	12.8
664.775	12.33
664.963	12.32
665.152	12.46
665.34	12.59
665.528	12.47
665.716	12.7
665.904	12.61
666.092	12.57
666.28	12.49
666.468	12.42
666.656	12.47
666.844	12.72
667.032	12.58
667.22	12.66
667.408	12.77
667.596	12.98
667.784	12.7
667.971	12.71
668.159	12.65
668.347	12.88
668.535	12.7
668.723	12.75
668.911	12.72
669.098	12.94
669.286	12.91
669.474	12.59
669.662	12.28
669.849	12.67
670.037	12.53
670.225	12.55
670.413	12.49
670.6	12.7
670.788	12.61
670.976	12.8
671.163	12.86
671.351	12.85
671.538	13.19
671.726	13.31
671.913	13.1
672.101	13.29
672.289	13.39
672.476	13.36
672.664	13.33
672.851	13.74
673.039	13.61
673.226	13.3
673.413	13.27
673.601	13.08
673.788	12.87
673.976	13.01
674.163	12.82
674.35	12.75
674.538	12.75
674.725	12.61
674.912	12.2
675.1	12.37
675.287	12.5
675.474	12.11
675.662	12.4
675.849	12.63
676.036	12.7
676.223	12.8
676.411	12.68
676.598	12.61
676.785	12.8
676.972	13.07
677.159	12.83
677.346	12.76
677.533	12.99
677.721	12.79
677.908	12.86
678.095	12.79
678.282	12.84
678.469	13.13
678.656	13.16
678.843	13.05
679.03	12.8
679.217	13.16
679.404	13.26
679.591	13.08
679.778	13.1
679.964	13.09
680.151	13.07
680.338	13.06
680.525	12.76
680.712	12.75
680.899	12.91
681.086	12.94
681.272	12.77
681.459	12.63
681.646	12.88
681.833	12.73
682.02	12.52
682.206	12.57
682.393	12.66
682.58	12.7
682.766	12.69
682.953	12.47
683.14	12.62
683.326	12.78
683.513	13.04
683.7	13.28
683.886	13.32
684.073	13.49
684.259	13.6
684.446	13.59
684.632	13.68
684.819	13.62
685.005	13.9
685.192	14.19
685.378	13.84
685.565	13.79
685.751	13.49
685.938	13.67
686.124	13.64
686.31	13.49
686.497	13.25
686.683	13.39
686.87	13.37
687.056	13.12
687.242	12.86
687.429	12.98
687.615	12.91
687.801	12.63
687.987	12.59
688.174	12.81
688.36	12.93
688.546	13.07
688.732	12.78
688.918	12.91
689.105	12.8
689.291	12.76
689.477	12.79
689.663	12.94
689.849	13.21
690.035	13.14
690.221	13.11
690.407	12.95
690.593	12.8
690.779	13.05
690.965	13.1
691.151	13.44
691.337	13.7
691.523	13.51
691.709	13.47
691.895	13.94
692.081	13.88
692.267	13.81
692.453	13.61
692.639	13.48
692.825	13.32
693.011	13.15
693.196	13.16
693.382	12.82
693.568	12.91
693.754	13.06
693.94	12.62
694.125	12.93
694.311	12.66
694.497	12.71
694.682	12.96
694.868	13.25
695.054	13.45
695.239	13.47
695.425	13.33
695.611	13.46
695.796	13.26
695.982	13.18
696.168	12.86
696.353	12.85
696.539	13.04
696.724	13.17
696.91	12.84
697.095	12.88
697.281	12.66
697.466	12.67
697.652	12.45
697.837	12.51
698.023	12.51
698.208	12.54
698.393	12.6
698.579	12.6
698.764	12.57
698.949	12.75
699.135	12.6
699.32	12.63
699.505	12.69
699.691	12.96
699.876	12.84
700.061	13.14
700.246	13.22
700.432	13.35
700.617	13.49
700.802	13.31
700.987	13.13
701.172	13.24
701.358	13.57
701.543	13.97
701.728	14.07
701.913	14.4
702.098	14.26
702.283	14.3
702.468	14.16
702.653	14.02
702.838	14.21
703.023	14.3
703.208	14.13
703.393	13.95
703.578	13.53
703.763	13.25
703.948	13.1
704.133	13.3
704.318	13.27
704.503	13.53
704.688	13.48
704.873	13.1
705.057	13.37
705.242	13.5
705.427	13.49
705.612	13.63
705.797	13.67
705.981	13.45
706.166	13.02
706.351	12.87
706.536	12.61
706.72	12.56
706.905	12.73
707.09	12.26
707.274	12.21
707.459	11.94
707.644	11.91
707.828	12.09
708.013	11.93
708.197	11.81
708.382	12.12
708.567	12
708.751	12.01
708.936	12.05
709.12	12.5
709.305	12.61
709.489	12.86
709.673	12.54
709.858	12.57
710.042	13.02
710.227	13.37
710.411	13.58
710.596	13.78
710.78	13.92
710.964	14.12
711.149	14.26
711.333	14.15
711.517	14.31
711.702	14.77
711.886	14.74
712.07	14.51
712.254	14.32
712.438	14.12
712.623	14.19
712.807	13.9
712.991	14.02
713.175	13.81
713.359	13.72
713.544	13.45
713.728	13.47
713.912	13.2
714.096	13.08
714.28	13.04
714.464	13.06
714.648	12.78
714.832	12.95
715.016	12.89
715.2	12.84
715.384	12.85
715.568	13.13
715.752	13.08
715.936	12.9
716.12	12.58
716.304	12.67
716.488	12.38
716.671	12.99
716.855	13.12
717.039	12.84
717.223	12.67
717.407	12.48
717.59	11.98
717.774	11.78
717.958	12.29
718.142	12.46
718.325	12.54
718.509	12.9
718.693	12.11
718.877	11.92
719.06	11.54
719.244	11.79
719.428	12.3
719.611	12.3
719.795	12.72
719.978	12.91
720.162	13.28
720.345	13.17
720.529	13.05
720.713	13.26
720.896	13.24
721.08	13.9
721.263	13.71
721.446	13.53
721.63	13.93
721.813	13.06
721.997	12.27
722.18	12.55
722.364	12.65
722.547	12.46
722.73	12.51
722.914	12.86
723.097	12.82
723.28	12.93
723.464	12.87
723.647	13.12
723.83	13.44
724.013	13.93
724.197	13.74
724.38	13.81
724.563	13.88
724.746	13.78
724.929	13.58
725.112	13.86
725.296	13.68
725.479	13.83
725.662	13.25
725.845	13.64
726.028	13.34
726.211	13.07
726.394	12.86
726.577	12.94
726.76	12.99
726.943	12.77
727.126	12.91
727.309	12.72
727.492	12.79
727.675	13.11
727.858	13
728.041	13.24
728.224	13.31
728.407	13.55
728.589	13.68
728.772	14.02
728.955	13.98
729.138	13.79
729.321	14.27
729.503	14.34
729.686	14.08
729.869	14.36
730.052	14.33
730.234	14.78
730.417	14.45
730.6	14.41
730.782	14.36
730.965	14.52
731.148	14.37
731.33	14.07
731.513	14.04
731.695	14.25
731.878	14.11
732.061	13.96
732.243	13.99
732.426	13.95
732.608	13.9
732.791	13.99
732.973	14.2
733.156	13.89
733.338	14.08
733.52	13.88
733.703	13.59
733.885	13.37
734.068	13.7
734.25	13.67
734.432	13.69
734.615	13.66
734.797	13.74
734.979	13.4
735.162	13.8
735.344	14.2
735.526	14.41
735.708	14.92
735.891	15.31
736.073	15.31
736.255	14.95
736.437	15.22
736.619	15.22
736.802	14.98
736.984	15.35
737.166	15.23
737.348	14.54
737.53	14.76
737.712	14.3
737.894	14.61
738.076	14.48
738.258	14.7
738.44	14.37
738.622	14.39
738.804	14.06
738.986	13.84
739.168	13.61
739.35	13.96
739.532	13.6
739.714	14.15
739.896	13.09
740.078	13.04
740.259	12.95
740.441	13.99
740.623	13.99
740.805	14.17
740.987	14.46
741.168	14.64
741.35	15.03
741.532	14.95
741.714	14.84
741.895	15.09
742.077	15.58
742.259	15.3
742.44	14.54
742.622	14.43
742.804	14.66
742.985	14.43
743.167	14.23
743.348	14.09
743.53	14.17
743.711	14.01
743.893	14.06
744.075	13.31
744.256	13.73
744.438	14.08
744.619	14.47
744.8	14.34
744.982	14.78
745.163	14.92
745.345	14.45
745.526	14.66
745.707	14.1
745.889	13.87
746.07	13.91
746.252	13.67
746.433	13.95
746.614	13.33
746.795	13.89
746.977	13.51
747.158	13.79
747.339	14.05
747.52	13.93
747.702	14.2
747.883	14.12
748.064	14.27
748.245	14.28
748.426	13.21
748.607	14.16
748.788	13.35
748.97	13.23
749.151	12.84
749.332	13.23
749.513	13.38
749.694	13.83
749.875	14.96
750.056	15.18
750.237	14.75
750.418	14.66
750.599	13.97
750.78	13.11
750.96	12.67
751.141	12.92
751.322	12.02
751.503	11.76
751.684	11.48
751.865	11.14
752.046	10.88
752.226	11.46
752.407	11.95
752.588	11.76
752.769	13.35
752.949	13.84
753.13	13.91
753.311	14.64
753.492	14.61
753.672	14.31
753.853	13.97
754.034	14.26
754.214	14.14
754.395	14
754.575	14.31
754.756	14.03
754.937	14.49
755.117	14.47
755.298	13.82
755.478	14.44
755.659	14.47
755.839	13.95
756.02	13.79
756.2	14.02
756.381	14.23
756.561	14.09
756.741	14.09
756.922	13.78
757.102	13.65
757.283	13.65
757.463	13.23
757.643	13.7
757.823	14.81
758.004	14.6
758.184	14.11
758.364	14.34
758.545	14.33
758.725	14.2
758.905	14.55
759.085	14.36
759.265	14.15
759.446	13.56
759.626	13.7
759.806	12.61
759.986	12.6
760.166	12.81
760.346	12.24
760.526	12.28
760.706	12.22
760.886	11.45
761.066	12.01
761.246	12.16
761.426	12.71
761.606	12.14
761.786	13.27
761.966	13.76
762.146	13.86
762.326	14.42
762.506	14.01
762.686	14.03
762.866	13.94
763.046	13.37
763.225	13.63
763.405	13.55
763.585	13.84
763.765	13.18
763.945	12.55
764.124	12.54
764.304	12.46
764.484	13.33
764.664	13.38
764.843	13.78
765.023	14.21
765.203	14.08
765.382	14.13
765.562	14.2
765.741	14.84
765.921	15.22
766.101	15.54
766.28	15.16
766.46	14.35
766.639	13.87
766.819	13.48
766.998	13.52
767.178	13.55
767.357	13.45
767.537	13.11
767.716	12.54
767.896	12.22
768.075	11.27
768.254	10.85
768.434	11.16
768.613	11.79
768.792	12.03
768.972	11.9
769.151	11.81
769.33	12.06
769.51	13
769.689	13.33
769.868	13.44
770.047	13.87
770.226	14.34
770.406	15.23
770.585	15.53
770.764	15.67
770.943	16.3
771.122	16.89
771.301	16.73
771.48	16.47
771.66	15.38
771.839	16.11
772.018	16.27
772.197	15.58
772.376	15.02
772.555	13.96
772.734	13.78
772.913	12.72
773.092	12.11
773.271	12.19
773.449	11.52
773.628	11.89
773.807	12.11
773.986	11.94
774.165	13.36
774.344	13.1
774.523	13.46
774.701	13.21
774.88	13.91
775.059	13.94
775.238	14.22
775.417	14.59
775.595	16.01
775.774	15.18
775.953	15.72
776.131	14.57
776.31	14.65
776.489	14.21
776.667	15.24
776.846	14.66
777.025	15.69
777.203	14.38
777.382	14.15
777.56	13.49
777.739	13.54
777.917	13.45
778.096	14.46
778.274	14.2
778.453	14.52
778.631	13.72
778.81	14.4
778.988	13.69
779.166	14.4
779.345	14.7
779.523	15.45
779.702	15.48
779.88	15.25
780.058	15.22
780.237	15.74
780.415	15.72
780.593	15.52
780.771	15.47
780.95	15.6
781.128	16.6
781.306	16.78
781.484	15.89
781.662	16.09
781.841	16.67
782.019	15.73
782.197	14.67
782.375	15.18
782.553	15.44
782.731	15.8
782.909	15.62
783.087	14.85
783.265	14.97
783.443	14.99
783.621	14.92
783.799	14.69
783.977	14.89
784.155	15.67
784.333	16.24
784.511	16.08
784.689	15.5
784.867	15.81
785.045	15.15
785.223	15.03
785.4	15.19
785.578	15.5
785.756	15.44
785.934	16.1
786.112	16.18
786.289	15.4
786.467	15.94
786.645	15.63
786.823	15.58
787	16.41
787.178	15.79
787.356	15.12
787.533	14.82
787.711	14.51
787.889	14.63
788.066	13.85
788.244	13.88
788.421	14.43
788.599	14.43
788.776	14.57
788.954	14.74
789.131	14.58
789.309	15.28
789.486	15.44
789.664	15.89
789.841	16.18
790.019	16.61
790.196	16.97
790.373	16.68
790.551	16.91
790.728	16.63
790.906	16.12
791.083	17.57
791.26	18.05
791.437	18.15
791.615	18.98
791.792	18.04
791.969	18
792.146	18.16
792.324	17.38
792.501	18.49
792.678	18.26
792.855	18.96
793.032	17.69
793.209	16.98
793.387	17.34
793.564	16.11
793.741	16.83
793.918	17.43
794.095	16.95
794.272	17.02
794.449	15.75
794.626	16.42
794.803	16.08
794.98	15.82
795.157	15.77
795.334	15.08
795.511	14.39
795.688	13.73
795.864	13.21
796.041	14.15
796.218	14.77
796.395	15.73
796.572	14.76
796.749	15.08
796.925	14.6
797.102	14.14
797.279	14.12
797.456	14.4
797.632	13.92
797.809	14.42
797.986	13.87
798.162	13.23
798.339	12.42
798.516	12.92
798.692	11.66
798.869	13.16
799.046	13.51
799.222	13.67
799.399	14.54
799.575	15.9
799.752	15.36
799.928	15.42
800.105	15.68
800.281	16.6
800.458	16.4
800.634	17.91
800.811	17.47
800.987	15.94
801.163	16.21
801.34	16.58
801.516	16.09
801.692	16.66
801.869	16.62
802.045	16.16
802.221	14.82
802.398	15.04
802.574	13.75
802.75	12.89
802.926	13.88
803.103	14.82
803.279	13.63
803.455	12.78
803.631	13.27
803.807	13.29
803.983	13.95
804.16	12.59
804.336	11.96
804.512	12.09
804.688	13.73
804.864	14.46
805.04	14.2
805.216	14.65
805.392	14.93
805.568	15.2
805.744	16.29
805.92	15.9
806.096	18.12
806.272	19.22
806.448	20.5
806.623	19.47
806.799	19.82
806.975	18.89
807.151	18.57
807.327	19.12
807.503	17.82
807.678	16.92
807.854	17.02
808.03	16.03
808.206	15.85
808.381	15.65
808.557	14.37
808.733	12.59
808.908	12.94
809.084	12.67
809.26	10.76
809.435	11.85
809.611	11.26
809.787	10.79
809.962	12.27
810.138	11.85
810.313	11
810.489	13.22
810.664	13.87
810.84	13.1
811.015	13.4
811.191	16.69
811.366	15.06
811.542	15.52
811.717	16.68
811.892	15.96
812.068	16.77
812.243	15.8
812.419	13.73
812.594	15.25
812.769	16.08
812.944	15.92
813.12	15.29
813.295	15.51
813.47	15.71
813.645	15.27
813.821	15.42
813.996	15.21
814.171	16.62
814.346	17.49
814.521	17
814.697	18.05
814.872	17.92
815.047	17.38
815.222	18.7
815.397	17.13
815.572	16.47
815.747	15.37
815.922	14.5
816.097	13.41
816.272	15.65
816.447	15.03
816.622	13.52
816.797	14.2
816.972	13.06
817.147	11.66
817.322	12.2
817.496	12.54
817.671	12.93
817.846	12.52
818.021	13.59
818.196	12.26
818.371	11.48
818.545	11.09
818.72	10.96
818.895	11.5
819.069	12.37
819.244	12.58
819.419	13.47
819.594	13.57
819.768	13.24
819.943	13.12
820.117	13.12
820.292	13.62
820.467	14.19
820.641	14.38
820.816	14.28
820.99	13.94
821.165	14.03
821.339	13.73
821.514	14
821.688	14.28
821.863	14.04
822.037	14.1
822.212	14.19
822.386	14.22
822.56	14.44
822.735	14.26
822.909	14.31
823.084	14.3
823.258	14.18
823.432	14.28
823.606	14.23
823.781	14.38
823.955	14.35
824.129	14.71
824.303	14.94
824.478	14.49
824.652	14.9
824.826	15.15
825	15.26
825.174	15.57
825.348	15.19
825.523	15.58
825.697	15.55
825.871	15.35
826.045	14.53
826.219	13.87
826.393	13.85
826.567	14.09
826.741	13.96
826.915	13.71
827.089	13.74
827.263	13.96
827.437	13.3
827.611	13.2
827.784	13.71
827.958	14.41
828.132	14.54
828.306	14.44
828.48	14.1
828.654	14.58
828.827	14.71
829.001	14.4
829.175	14.37
829.349	15.27
829.522	16.52
829.696	17.07
829.87	16.63
830.044	17.5
830.217	17.85
830.391	17.55
830.565	17.47
830.738	17.36
830.912	18.35
831.085	17.74
831.259	17.68
831.432	15.64
831.606	14.81
831.779	14.72
831.953	14.16
832.126	13.98
832.3	15.09
832.473	14.68
832.647	15.21
832.82	14.99
832.994	15.54
833.167	16.3
833.34	16.78
833.514	16.66
833.687	16.91
833.86	16.76
834.034	16.83
834.207	16.01
834.38	16.04
834.553	15.47
834.727	15.21
834.9	15.65
835.073	15.35
835.246	16.39
835.419	16.77
835.593	16.2
835.766	15.71
835.939	16.02
836.112	16.28
836.285	16.44
836.458	17.64
836.631	17.31
836.804	17.31
836.977	16.77
837.15	16.08
837.323	14.78
837.496	15.37
837.669	15.61
837.842	15.12
838.015	16.5
838.188	15.4
838.361	14.94
838.533	15.3
838.706	14.35
838.879	13.76
839.052	12.92
839.225	14.85
839.398	14.96
839.57	15.15
839.743	16.6
839.916	15.55
840.088	18.03
840.261	18.54
840.434	18.58
840.607	18.72
840.779	19.72
840.952	18.84
841.124	16.99
841.297	17.91
841.47	18.12
841.642	18.43
841.815	18.38
841.987	17.89
842.16	16.79
842.332	17.76
842.505	16.3
842.677	14.62
842.85	16.08
843.022	17.49
843.194	16.18
843.367	16.79
843.539	13.57
843.712	11.71
843.884	11.4
844.056	12.63
844.229	13.01
844.401	12.96
844.573	12.98
844.745	10.65
844.918	11.17
845.09	9.45
845.262	9.88
845.434	12.41
845.606	14.32
845.779	11.67
845.951	10.94
846.123	9.19
846.295	13.35
846.467	14.12
846.639	18.3
846.811	16.37
846.983	18.65
847.155	18.36
847.327	19.63
847.499	21.69
847.671	24.95
847.843	22.97
848.015	25.22
848.187	25.07
848.359	25.31
848.531	23.66
848.703	27.79
848.875	28.64
849.047	25.3
849.218	23.88
849.39	24.91
849.562	21.86
849.734	22.99
849.905	20.12
850.077	16.35
850.249	13.68
850.421	13.5
850.592	5.54
850.764	3.65
850.936	6.65
851.107	4.45
851.279	-0.75
851.451	1.01
851.622	3.69
851.794	1.26
851.965	5.84
852.137	8.97
852.308	8.1
852.48	15.66
852.651	17.24
852.823	18.59
852.994	19.72
853.166	22.21
853.337	18.78
853.509	17.78
853.68	22.47
853.851	18.81
854.023	22.23
854.194	21.69
854.365	16.72
854.537	16.11
854.708	14.54
854.879	15.17
855.05	17.49
855.222	20.32
855.393	20.93
855.564	20.67
855.735	22.03
855.906	17.3
856.078	15.69
856.249	17.13
856.42	16.48
856.591	15.02
856.762	18.22
856.933	16.89
857.104	15.1
857.275	12.45
857.446	11.82
857.617	13.71
857.788	16.81
857.959	20.67
858.13	25.53
858.301	26.98
858.472	25.71
858.643	23.26
858.814	21.8
858.985	27.48
859.155	30.29
859.326	32.92
859.497	29.91
859.668	30.02
859.839	28.34
860.009	26.5
860.18	26.85
860.351	28
860.522	26.87
860.692	27.29
860.863	21.14
861.034	21.99
861.204	20.22
861.375	22.11
861.546	21.44
861.716	20.13
861.887	15.66
862.057	14.21
862.228	14.07
862.398	15.36
862.569	15.44
862.739	20.52
862.91	17.27
863.08	20.02
863.251	20.71
863.421	17.46
863.592	20.86
863.762	26.09
863.932	26.61
864.103	26.32
864.273	27.73
864.443	29.53
864.614	29.5
864.784	31.24
864.954	27.87
865.125	27.12
865.295	30.18
865.465	27.69
865.635	24.33
865.805	28.89
865.976	29.31
866.146	27.31
866.316	26.59
866.486	24.36
866.656	25.81
866.826	24.46
866.996	21.86
867.166	22.96
867.336	21.64
867.506	21.45
867.676	15.44
867.846	19.2
868.016	20.11
868.186	17.5
868.356	17.1
868.526	15.39
868.696	16.21
868.866	21.9
869.036	17.05
869.206	19.76
869.376	16.02
869.545	16.08
869.715	14.98
869.885	12.98
870.055	14.89
870.224	15.97
870.394	15.4
870.564	21.92
870.734	19.34
870.903	22.51
871.073	20.83
871.243	25.61
871.412	24.57
871.582	25.64
871.751	23.61
871.921	21.19
872.091	22.23
872.26	20.89
872.43	16.49
872.599	15.03
872.769	17.53
872.938	18.98
873.108	18.77
873.277	19.22
873.446	13.73
873.616	14.86
873.785	19.44
873.955	15.28
874.124	17.51
874.293	22.68
874.463	25.31
874.632	22.6
874.801	21.6
874.971	15.31
875.14	19.3
875.309	20.4
875.478	21.71
875.647	18.51
875.817	18.72
875.986	17.89
876.155	14.23
876.324	13.79
876.493	15.96
876.662	18.56
876.831	22.86
877	23.69
877.17	27.21
877.339	28.19
877.508	30.19
877.677	31.19
877.846	32.36
878.015	31.39
878.184	27.14
878.352	25.74
878.521	24.45
878.69	22.13
878.859	20.42
879.028	18.39
879.197	19.28
879.366	16.7
879.534	17.12
879.703	16.23
879.872	15.87
880.041	17.46
880.21	16.03
880.378	15
880.547	15.09
880.716	15.64
880.884	15.88
881.053	15.21
881.222	15.91
881.39	15.68
881.559	15.35
881.727	14.8
881.896	14.01
882.065	14.51
882.233	14.73
882.402	15.59
882.57	15.3
882.739	15.05
882.907	15.55
883.076	15.14
883.244	15.34
883.412	14.88
883.581	15.65
883.749	16.43
883.918	17.04
884.086	17.98
884.254	17.76
884.423	17.97
884.591	17.56
884.759	16.96
884.927	16.94
885.096	16.1
885.264	16.71
885.432	17.07
885.6	17.38
885.769	17.02
885.937	15.42
886.105	16.55
886.273	15.77
886.441	18.14
886.609	18.55
886.777	19.97
886.945	23.06
887.113	25.24
887.281	24.58
887.449	24.16
887.617	24.28
887.785	27.31
887.953	25.76
888.121	27.2
888.289	23.54
888.457	25.01
888.625	27.32
888.793	27.42
888.961	27.14
889.129	26.56
889.296	26.18
889.464	26
889.632	23.77
889.8	25.21
889.967	24.58
890.135	32.27
