Data from 2938493_Reflection_3.txt Node
Date: Wed Jun 17 00:41:55 EDT 2015
User: robert
Spectrometer: USB4E03002
Autoset integration time: false
Trigger mode: 4
Integration Time (sec): 1.000000E-1
Scans to average: 10
Electric dark correction enabled: true
Nonlinearity correction enabled: false
Boxcar width: 5
Stray light correction enabled: false
XAxis mode: Wavelengths
Stop averaging: false
Number of Pixels in Spectrum: 3648
>>>>>Begin Spectral Data<<<<<
177.575	85.37
177.794	192.99
178.014	-78.38
178.233	7.2
178.452	-44.55
178.672	525.2
178.891	93.34
179.11	-211.11
179.33	-18.29
179.549	6273.68
179.768	30.53
179.987	30.01
180.207	97.82
180.426	120.9
180.645	103.86
180.864	160.36
181.084	95.41
181.303	83.81
181.522	45.08
181.741	36.15
181.96	98.17
182.179	212.64
182.398	459.7
182.618	115.24
182.837	79.41
183.056	45.13
183.275	65.06
183.494	114.88
183.713	70.44
183.932	-12815.79
184.151	-944.17
184.37	67.33
184.589	25.67
184.808	53.03
185.027	68.9
185.246	150.97
185.465	-99.15
185.684	57.6
185.903	-24.55
186.122	8.02
186.341	194.17
186.56	180.44
186.779	123.01
186.998	54.95
187.216	58.02
187.435	-37.84
187.654	-70.91
187.873	23.56
188.092	36.19
188.311	24.47
188.53	48.56
188.748	51.25
188.967	43.71
189.186	58.22
189.405	69.68
189.623	62.65
189.842	63.31
190.061	56.81
190.28	-51.66
190.498	57.69
190.717	53.13
190.936	28.44
191.154	33.98
191.373	56.18
191.592	72
191.81	259.88
192.029	938.8
192.248	-597.9
192.466	2291.54
192.685	300.31
192.904	528.25
193.122	420.93
193.341	450.22
193.559	648.3
193.778	310.5
193.996	164.27
194.215	136.4
194.433	126.87
194.652	135.2
194.87	154.16
195.089	150.67
195.307	67.8
195.526	64.11
195.744	7.59
195.963	17.66
196.181	1.44
196.399	-7.02
196.618	-38.26
196.836	-133.76
197.055	-107.98
197.273	-35.97
197.491	-68.97
197.71	-40.96
197.928	-124.24
198.146	-33.65
198.365	-17.36
198.583	-41.24
198.801	-26.08
199.019	11.55
199.238	38.74
199.456	45.32
199.674	59.54
199.892	197.76
200.111	1350.45
200.329	646.46
200.547	435.34
200.765	276.64
200.983	895.12
201.202	348.18
201.42	-290.44
201.638	10041.3
201.856	-1343.93
202.074	175.73
202.292	127.12
202.51	121.29
202.728	238.16
202.946	-413.96
203.165	-946.37
203.383	617.03
203.601	283.4
203.819	157.54
204.037	112.43
204.255	124.92
204.473	148.07
204.691	122.52
204.909	141.44
205.127	128.02
205.345	92.24
205.562	70.34
205.78	53.04
205.998	34.64
206.216	43.17
206.434	-350.78
206.652	333.48
206.87	-356.16
207.088	-299.18
207.306	-237.29
207.523	-750.93
207.741	3923.49
207.959	393.46
208.177	608.4
208.395	2567.76
208.612	-694.14
208.83	-183.78
209.048	-51.87
209.266	-115.67
209.483	1177.97
209.701	267.13
209.919	-152.11
210.136	-180.5
210.354	-210.58
210.572	-210.05
210.79	-71.59
211.007	-174.39
211.225	-116.93
211.442	-5276.09
211.66	302.13
211.878	1740.43
212.095	-241.94
212.313	536.45
212.53	242.55
212.748	92.12
212.966	94.07
213.183	410.27
213.401	150
213.618	80.42
213.836	85.65
214.053	343.86
214.271	247.29
214.488	12.38
214.705	4.65
214.923	-176.24
215.14	124.73
215.358	67.72
215.575	37.95
215.793	-20.33
216.01	272.12
216.227	265.12
216.445	180.73
216.662	115.05
216.879	232.26
217.097	115.09
217.314	120.47
217.531	96.01
217.749	124.61
217.966	181.75
218.183	107.35
218.4	80.43
218.618	52.32
218.835	68.36
219.052	76.65
219.269	44.58
219.487	56.3
219.704	66.82
219.921	68.16
220.138	69.97
220.355	64.47
220.572	72.16
220.79	58.66
221.007	69.83
221.224	75.29
221.441	58.17
221.658	58.15
221.875	64.35
222.092	50.54
222.309	40.31
222.526	41.05
222.743	39.67
222.96	36.84
223.177	51.43
223.394	46.95
223.611	40.15
223.828	40.29
224.045	33.37
224.262	30.99
224.479	25.95
224.696	30.42
224.913	25.1
225.13	29.07
225.347	22.53
225.564	20.27
225.781	16.44
225.997	14.95
226.214	15.42
226.431	15.15
226.648	14.33
226.865	14.09
227.082	12.4
227.298	9.55
227.515	8.81
227.732	10.84
227.949	10.57
228.165	10.81
228.382	10.64
228.599	9.13
228.816	9.4
229.032	10.09
229.249	8.78
229.466	8.37
229.682	9.65
229.899	8.6
230.116	9.12
230.332	6.44
230.549	7.47
230.765	8.71
230.982	7.29
231.199	8.26
231.415	7.6
231.632	10.69
231.848	9.16
232.065	9.03
232.281	10.87
232.498	9.17
232.714	12.37
232.931	12.19
233.147	11.52
233.364	15.27
233.58	10.67
233.797	11.78
234.013	10.74
234.23	9.76
234.446	11.43
234.662	10.14
234.879	11.83
235.095	11.78
235.312	10.92
235.528	11.36
235.744	7.89
235.961	11.91
236.177	9.69
236.393	9.76
236.61	11.49
236.826	11.36
237.042	11.82
237.258	10.1
237.475	8.78
237.691	12.9
237.907	12.97
238.123	15.02
238.339	14.38
238.556	15.02
238.772	16.73
238.988	16.93
239.204	16.82
239.42	16.92
239.636	16.99
239.853	16.09
240.069	13.49
240.285	12.62
240.501	12.2
240.717	11.43
240.933	11.05
241.149	9.46
241.365	9.15
241.581	9.32
241.797	9.17
242.013	8.17
242.229	8.45
242.445	9.32
242.661	8.69
242.877	9.75
243.093	10.43
243.309	10.6
243.525	11.33
243.741	11.75
243.957	10.85
244.173	11.26
244.388	11.9
244.604	12.35
244.82	12.23
245.036	13.22
245.252	12.73
245.468	12.77
245.683	12.76
245.899	12.45
246.115	12.15
246.331	12.45
246.547	11.78
246.762	11.88
246.978	11.43
247.194	11.53
247.409	11.41
247.625	10.98
247.841	10.93
248.057	10.4
248.272	10.93
248.488	10.92
248.703	9.93
248.919	10.75
249.135	10.37
249.35	10.16
249.566	9.95
249.782	9.85
249.997	11.02
250.213	10.93
250.428	10.93
250.644	11.06
250.859	12.06
251.075	12.73
251.29	12.98
251.506	13.21
251.721	14.21
251.937	14.07
252.152	13.77
252.368	13.08
252.583	13.83
252.798	14.02
253.014	13.61
253.229	13.28
253.445	13.91
253.66	13.59
253.875	12.78
254.091	11.69
254.306	11.18
254.521	11.13
254.737	10.95
254.952	9.95
255.167	9.81
255.383	8.7
255.598	8.01
255.813	7.77
256.028	7.51
256.244	7.97
256.459	7.73
256.674	7.98
256.889	8.06
257.104	7.67
257.32	7.35
257.535	7.65
257.75	8.46
257.965	8.32
258.18	8.34
258.395	8.37
258.61	8.46
258.826	8.4
259.041	8.37
259.256	8.17
259.471	8.15
259.686	8.66
259.901	8.57
260.116	7.59
260.331	8.11
260.546	7.95
260.761	7.44
260.976	6.73
261.191	7.06
261.406	6.93
261.621	7.57
261.836	8.32
262.05	8.88
262.265	9.08
262.48	10.67
262.695	10.08
262.91	11.03
263.125	11.9
263.34	12.5
263.555	12.43
263.769	12.49
263.984	11.86
264.199	11.83
264.414	10.04
264.629	8.79
264.843	7.85
265.058	8.36
265.273	7.22
265.488	6.78
265.702	6.34
265.917	5.81
266.132	6.05
266.346	6.22
266.561	6
266.776	6.1
266.99	6.99
267.205	7.15
267.42	6.71
267.634	7.13
267.849	7.33
268.063	7.31
268.278	7.33
268.492	7.74
268.707	6.86
268.922	6.93
269.136	7.52
269.351	7.7
269.565	7.78
269.78	8.08
269.994	7.85
270.209	7.99
270.423	8.04
270.637	8.43
270.852	8.4
271.066	8.75
271.281	8.35
271.495	8.2
271.709	7.53
271.924	7.72
272.138	7.53
272.353	7.91
272.567	7.8
272.781	8.32
272.996	7.94
273.21	7.67
273.424	8.17
273.638	8.64
273.853	8.96
274.067	9.61
274.281	10.3
274.495	10.11
274.71	9.86
274.924	9.75
275.138	8.92
275.352	9.45
275.566	9.18
275.781	9.42
275.995	9.06
276.209	9.17
276.423	8.91
276.637	8.13
276.851	8.45
277.065	8.51
277.279	8.77
277.493	9.46
277.707	9.93
277.921	9.59
278.135	9.15
278.349	8.73
278.563	8.73
278.777	8.9
278.991	9.2
279.205	8.63
279.419	8.8
279.633	8.92
279.847	8.79
280.061	7.8
280.275	8.47
280.489	7.93
280.703	9.23
280.917	9.13
281.131	9.49
281.344	9.08
281.558	9.22
281.772	8.79
281.986	8.43
282.2	8.11
282.414	8.59
282.627	8.46
282.841	9.03
283.055	8.12
283.269	7.67
283.482	6.94
283.696	6.85
283.91	7.23
284.123	7.67
284.337	7.16
284.551	7.49
284.764	7.13
284.978	6.8
285.192	6.44
285.405	6.79
285.619	6.84
285.833	6.67
286.046	7.15
286.26	7.02
286.473	6.75
286.687	7.45
286.9	7.14
287.114	7.7
287.327	7.28
287.541	7.42
287.754	6.97
287.968	6.85
288.181	7.29
288.395	7.31
288.608	6.97
288.822	7.11
289.035	6.88
289.248	6.67
289.462	6.16
289.675	6.28
289.889	6.52
290.102	6.59
290.315	6.83
290.529	7.18
290.742	6.94
290.955	7.45
291.169	7.07
291.382	7.19
291.595	7.77
291.808	8.26
292.022	8.16
292.235	7.35
292.448	7.57
292.661	7.35
292.875	6.57
293.088	6.56
293.301	6.41
293.514	6.18
293.727	6.39
293.94	6.44
294.153	6.2
294.367	6.61
294.58	7.01
294.793	6.95
295.006	6.84
295.219	7.27
295.432	7.48
295.645	7.11
295.858	7.57
296.071	7.2
296.284	6.75
296.497	6.51
296.71	6.84
296.923	7.04
297.136	6.96
297.349	7.52
297.562	7.53
297.775	7.11
297.988	7.29
298.201	7.5
298.414	7.53
298.626	7.95
298.839	8.29
299.052	7.73
299.265	7.72
299.478	7.73
299.691	7.27
299.903	6.96
300.116	6.95
300.329	7.08
300.542	6.32
300.755	6.56
300.967	6.16
301.18	6.52
301.393	6.74
301.605	6.82
301.818	7.1
302.031	7.2
302.243	7.66
302.456	7.13
302.669	7.19
302.881	7.43
303.094	7.85
303.307	8.08
303.519	7.87
303.732	7.98
303.944	7.71
304.157	6.85
304.37	7.22
304.582	7.16
304.795	7.66
305.007	8.17
305.22	7.96
305.432	7.64
305.645	7.76
305.857	7.64
306.069	7.43
306.282	6.93
306.494	7.85
306.707	7.13
306.919	7.05
307.132	7.1
307.344	7.09
307.556	7.28
307.769	7.21
307.981	7.45
308.193	7.65
308.406	8.06
308.618	8.31
308.83	8.19
309.043	8.26
309.255	8.15
309.467	8.35
309.679	7.89
309.892	8.09
310.104	8.18
310.316	7.89
310.528	7.77
310.74	7.33
310.953	7.2
311.165	6.95
311.377	6.96
311.589	6.58
311.801	6.28
312.013	6.05
312.225	5.47
312.437	5.16
312.649	4.94
312.862	4.67
313.074	4.75
313.286	4.47
313.498	4.53
313.71	4.53
313.922	4.83
314.134	5
314.346	4.8
314.558	4.8
314.77	5.42
314.982	5.75
315.193	6.07
315.405	5.45
315.617	5.92
315.829	5.49
316.041	5.47
316.253	5.61
316.465	5.79
316.677	6.11
316.888	6.59
317.1	6.25
317.312	6.48
317.524	6.27
317.736	7.46
317.947	7.68
318.159	8.32
318.371	8.13
318.583	8.88
318.794	8.34
319.006	8.44
319.218	9.05
319.43	8.78
319.641	7.9
319.853	7.67
320.064	7.18
320.276	7.46
320.488	6.77
320.699	6.9
320.911	6.21
321.123	6.41
321.334	6.14
321.546	5.03
321.757	4.56
321.969	5.08
322.18	5.26
322.392	5.15
322.603	4.79
322.815	5.06
323.026	5.53
323.238	5.39
323.449	5.45
323.661	5.49
323.872	6.17
324.083	6.89
324.295	6.39
324.506	6.19
324.718	6.37
324.929	6.07
325.14	6.06
325.352	5.75
325.563	5.96
325.774	6.19
325.986	6.46
326.197	6.37
326.408	5.67
326.62	6.24
326.831	6.52
327.042	6.62
327.253	6.29
327.464	6.62
327.676	6.3
327.887	6.06
328.098	5.89
328.309	5.79
328.52	5.5
328.732	6.12
328.943	6.15
329.154	5.88
329.365	5.23
329.576	5.11
329.787	4.52
329.998	5.18
330.209	5.05
330.42	5.72
330.631	6.04
330.842	5.9
331.053	6.17
331.264	6.02
331.475	6.48
331.686	6.87
331.897	7.45
332.108	7.61
332.319	7.3
332.53	7.55
332.741	6.75
332.952	6.39
333.163	6.7
333.374	6.25
333.585	6.21
333.795	5.75
334.006	5.6
334.217	5.19
334.428	5.25
334.639	5.49
334.849	5.75
335.06	6.06
335.271	6.06
335.482	5.67
335.692	5.59
335.903	5.43
336.114	5.5
336.325	5.66
336.535	6.07
336.746	6.25
336.957	6.32
337.167	6.37
337.378	6.04
337.589	5.98
337.799	6.18
338.01	6.49
338.22	6.64
338.431	6.33
338.642	6.66
338.852	6.63
339.063	6.22
339.273	5.47
339.484	5.06
339.694	5.28
339.905	5.48
340.115	5.66
340.326	5.14
340.536	5.42
340.746	5.61
340.957	5.06
341.167	5.04
341.378	5.17
341.588	5.66
341.799	5.74
342.009	5.81
342.219	5.68
342.43	5.39
342.64	5.62
342.85	5.67
343.061	5.85
343.271	5.92
343.481	6.31
343.691	6.14
343.902	6.17
344.112	6.14
344.322	6.11
344.532	6.23
344.743	6.68
344.953	6.65
345.163	6.35
345.373	6.08
345.583	6
345.793	5.45
346.004	5.83
346.214	5.74
346.424	5.95
346.634	6.47
346.844	6.39
347.054	6.42
347.264	6.12
347.474	6.01
347.684	6.1
347.894	6.64
348.104	6.45
348.314	6.39
348.524	6.31
348.734	6.27
348.944	5.44
349.154	5.19
349.364	4.85
349.574	5.18
349.784	5.27
349.994	4.89
350.204	4.61
350.413	5.02
350.623	5.29
350.833	5.68
351.043	5.36
351.253	5.74
351.463	5.96
351.672	5.32
351.882	5.73
352.092	5.69
352.302	6.25
352.511	5.91
352.721	5.92
352.931	5.76
353.141	5.68
353.35	5.87
353.56	5.61
353.77	5.26
353.979	5.82
354.189	5.31
354.399	5.2
354.608	5.11
354.818	5.29
355.027	5.31
355.237	4.94
355.447	4.77
355.656	4.45
355.866	4.44
356.075	4.75
356.285	4.64
356.494	4.68
356.704	4.97
356.913	4.94
357.123	4.81
357.332	4.88
357.542	4.81
357.751	4.89
357.96	4.95
358.17	5.03
358.379	4.89
358.589	4.74
358.798	4.8
359.007	4.5
359.217	4.51
359.426	4.64
359.635	4.5
359.845	4.82
360.054	4.71
360.263	4.99
360.472	5.02
360.682	5.01
360.891	5.01
361.1	5.08
361.309	5.1
361.519	4.91
361.728	4.84
361.937	4.77
362.146	4.52
362.355	4.3
362.564	4.07
362.774	3.94
362.983	3.87
363.192	4.25
363.401	4.09
363.61	4.33
363.819	4.59
364.028	4.51
364.237	4.49
364.446	4.59
364.655	4.71
364.864	4.65
365.073	4.6
365.282	4.54
365.491	4.35
365.7	4.52
365.909	4.15
366.118	4
366.327	3.98
366.536	3.69
366.745	3.79
366.954	4.1
367.162	4.08
367.371	4.19
367.58	4.48
367.789	4.29
367.998	4.07
368.207	4.26
368.415	4.27
368.624	4.43
368.833	4.71
369.042	4.57
369.25	4.38
369.459	4.54
369.668	4.69
369.877	4.46
370.085	4.55
370.294	4.59
370.503	4.71
370.711	4.6
370.92	4.67
371.129	4.74
371.337	4.65
371.546	4.59
371.754	4.45
371.963	4.07
372.171	4.05
372.38	4.16
372.589	4.14
372.797	4.13
373.006	4.29
373.214	4.1
373.423	4.14
373.631	4.11
373.84	4.05
374.048	4.25
374.256	4.37
374.465	4.52
374.673	4.23
374.882	4.27
375.09	3.89
375.298	3.73
375.507	3.69
375.715	3.8
375.923	4
376.132	4.07
376.34	4.03
376.548	3.95
376.757	3.96
376.965	4.02
377.173	3.84
377.381	4.09
377.59	4.03
377.798	3.98
378.006	3.87
378.214	3.66
378.423	3.59
378.631	3.39
378.839	3.46
379.047	3.46
379.255	3.39
379.463	3.51
379.671	3.45
379.879	3.28
380.088	3.13
380.296	3.05
380.504	3.04
380.712	2.99
380.92	3.08
381.128	3.24
381.336	3.24
381.544	3.17
381.752	3.24
381.96	3.04
382.168	3.27
382.376	3.46
382.584	3.47
382.791	3.64
382.999	3.6
383.207	3.5
383.415	3.37
383.623	3.29
383.831	3.34
384.039	3.27
384.247	3.38
384.454	3.51
384.662	3.72
384.87	3.55
385.078	3.41
385.285	3.43
385.493	3.52
385.701	3.46
385.909	3.47
386.116	3.39
386.324	3.51
386.532	3.48
386.739	3.53
386.947	3.62
387.155	3.77
387.362	3.67
387.57	3.71
387.778	3.62
387.985	3.74
388.193	3.63
388.4	3.7
388.608	3.43
388.816	3.49
389.023	3.48
389.231	3.16
389.438	3.09
389.646	3.21
389.853	3.17
390.061	3.3
390.268	3.15
390.475	3.1
390.683	3.23
390.89	3.33
391.098	3.45
391.305	3.31
391.512	3.33
391.72	3.22
391.927	3.14
392.135	3.2
392.342	2.92
392.549	3.02
392.756	3.23
392.964	3.08
393.171	3.23
393.378	3.14
393.586	3.04
393.793	2.9
394	3.09
394.207	3.22
394.414	3.16
394.622	3.35
394.829	3.12
395.036	2.89
395.243	2.92
395.45	2.7
395.657	2.64
395.864	2.72
396.072	2.77
396.279	2.7
396.486	2.66
396.693	2.68
396.9	2.81
397.107	2.94
397.314	2.91
397.521	2.97
397.728	3.02
397.935	3.15
398.142	3.24
398.349	3.44
398.556	3.41
398.763	3.52
398.97	3.59
399.177	3.56
399.383	3.74
399.59	3.92
399.797	3.94
400.004	3.99
400.211	3.93
400.418	3.99
400.625	4.06
400.831	4.1
401.038	3.95
401.245	4
401.452	4.06
401.658	3.92
401.865	3.84
402.072	3.67
402.279	3.52
402.485	3.44
402.692	3.34
402.899	3.22
403.105	3.12
403.312	3.05
403.519	2.93
403.725	2.58
403.932	2.69
404.138	2.86
404.345	2.91
404.552	2.99
404.758	2.8
404.965	2.8
405.171	2.63
405.378	2.67
405.584	2.56
405.791	2.56
405.997	2.61
406.204	2.38
406.41	2.16
406.617	2.09
406.823	2.03
407.029	2.29
407.236	2.31
407.442	2.53
407.649	2.44
407.855	2.66
408.061	2.55
408.268	2.62
408.474	2.78
408.68	2.66
408.887	2.8
409.093	2.77
409.299	2.8
409.505	2.84
409.712	2.77
409.918	2.82
410.124	2.74
410.33	2.9
410.537	2.9
410.743	2.84
410.949	2.85
411.155	2.71
411.361	2.79
411.567	2.68
411.773	2.65
411.98	2.61
412.186	2.59
412.392	2.45
412.598	2.46
412.804	2.43
413.01	2.45
413.216	2.42
413.422	2.6
413.628	2.4
413.834	2.4
414.04	2.24
414.246	2.2
414.452	2.37
414.658	2.44
414.864	2.3
415.07	2.27
415.275	2.11
415.481	2.1
415.687	2.11
415.893	2.18
416.099	2.04
416.305	2.06
416.511	2.12
416.716	1.93
416.922	1.88
417.128	1.98
417.334	2.06
417.539	2.14
417.745	2.18
417.951	2.12
418.157	2.18
418.362	2.29
418.568	2.32
418.774	2.29
418.979	2.37
419.185	2.36
419.391	2.28
419.596	2.21
419.802	2.21
420.008	2.22
420.213	1.63
420.419	1.6
420.624	1.52
420.83	1.5
421.035	1.52
421.241	1.56
421.446	1.62
421.652	1.6
421.857	1.62
422.063	1.66
422.268	1.69
422.474	2.26
422.679	2.23
422.885	2.26
423.09	2.32
423.295	2.21
423.501	2.2
423.706	2.23
423.911	2.28
424.117	2.22
424.322	2.17
424.527	2.05
424.733	2.05
424.938	2.08
425.143	2.07
425.349	2.05
425.554	2.1
425.759	2.02
425.964	1.99
426.169	1.9
426.375	2.02
426.58	2.04
426.785	2.23
426.99	2.31
427.195	2.34
427.4	2.27
427.605	2.2
427.811	2.18
428.016	2.21
428.221	2.22
428.426	2.37
428.631	2.25
428.836	2.21
429.041	2.15
429.246	2.18
429.451	2.03
429.656	2.03
429.861	2.05
430.066	2.11
430.271	2.16
430.476	2.11
430.681	1.98
430.886	2.01
431.09	1.99
431.295	2.07
431.5	2
431.705	2.04
431.91	2.15
432.115	2.11
432.32	2.08
432.524	2.06
432.729	2.03
432.934	1.98
433.139	2.04
433.343	2.08
433.548	1.92
433.753	1.84
433.958	2.01
434.162	1.92
434.367	1.88
434.572	1.8
434.776	1.75
434.981	1.8
435.186	1.88
435.39	1.86
435.595	1.93
435.799	2
436.004	2.08
436.209	1.99
436.413	2
436.618	2.02
436.822	2.07
437.027	2.09
437.231	1.93
437.436	1.99
437.64	1.98
437.845	1.84
438.049	1.84
438.253	1.76
438.458	1.75
438.662	1.81
438.867	1.87
439.071	1.86
439.275	1.81
439.48	1.9
439.684	1.92
439.888	1.89
440.093	1.88
440.297	2
440.501	2.05
440.706	2
440.91	1.95
441.114	1.9
441.318	1.91
441.523	1.9
441.727	1.99
441.931	1.96
442.135	1.97
442.339	2.04
442.543	1.96
442.748	1.95
442.952	1.92
443.156	1.89
443.36	1.88
443.564	1.91
443.768	1.86
443.972	1.76
444.176	1.84
444.38	1.92
444.584	1.93
444.788	1.99
444.992	1.98
445.196	2.03
445.4	2.1
445.604	2.16
445.808	2.17
446.012	2.16
446.216	2.18
446.42	2.03
446.624	1.96
446.828	2
447.032	1.9
447.235	1.84
447.439	1.89
447.643	1.84
447.847	1.88
448.051	1.81
448.254	1.94
448.458	1.98
448.662	1.96
448.866	1.96
449.069	1.92
449.273	1.88
449.477	1.91
449.681	1.77
449.884	1.78
450.088	1.63
450.292	1.71
450.495	1.66
450.699	1.58
450.902	1.75
451.106	1.66
451.31	1.62
451.513	1.65
451.717	1.75
451.92	1.84
452.124	1.84
452.327	1.82
452.531	1.77
452.734	1.85
452.938	1.95
453.141	1.84
453.345	1.95
453.548	1.86
453.752	1.83
453.955	1.81
454.158	1.82
454.362	1.77
454.565	1.76
454.769	1.83
454.972	1.86
455.175	1.75
455.379	1.87
455.582	1.89
455.785	1.85
455.988	1.88
456.192	1.82
456.395	1.8
456.598	1.88
456.801	1.95
457.005	1.79
457.208	1.65
457.411	1.73
457.614	1.66
457.817	1.62
458.021	1.76
458.224	1.77
458.427	1.75
458.63	1.73
458.833	1.66
459.036	1.61
459.239	1.64
459.442	1.71
459.645	1.72
459.848	1.71
460.051	1.77
460.254	1.66
460.457	1.63
460.66	1.68
460.863	1.7
461.066	1.76
461.269	1.72
461.472	1.76
461.675	1.7
461.878	1.7
462.081	1.71
462.284	1.64
462.486	1.64
462.689	1.6
462.892	1.65
463.095	1.73
463.298	1.74
463.5	1.71
463.703	1.73
463.906	1.73
464.109	1.66
464.311	1.57
464.514	1.46
464.717	1.46
464.92	1.46
465.122	1.35
465.325	1.42
465.528	1.39
465.73	1.45
465.933	1.44
466.135	1.42
466.338	1.43
466.541	1.52
466.743	1.7
466.946	1.71
467.148	1.73
467.351	1.79
467.553	1.7
467.756	1.66
467.958	1.7
468.161	1.67
468.363	1.71
468.566	1.66
468.768	1.63
468.971	1.54
469.173	1.52
469.375	1.55
469.578	1.58
469.78	1.55
469.983	1.57
470.185	1.48
470.387	1.5
470.59	1.58
470.792	1.67
470.994	1.74
471.196	1.75
471.399	1.78
471.601	1.74
471.803	1.74
472.005	1.65
472.208	1.62
472.41	1.74
472.612	1.77
472.814	1.73
473.016	1.78
473.218	1.7
473.421	1.74
473.623	1.7
473.825	1.64
474.027	1.69
474.229	1.69
474.431	1.66
474.633	1.65
474.835	1.63
475.037	1.58
475.239	1.51
475.441	1.59
475.643	1.52
475.845	1.55
476.047	1.55
476.249	1.45
476.451	1.52
476.653	1.55
476.855	1.46
477.057	1.46
477.258	1.51
477.46	1.56
477.662	1.62
477.864	1.69
478.066	1.68
478.268	1.71
478.469	1.78
478.671	1.71
478.873	1.77
479.075	1.83
479.276	1.82
479.478	1.81
479.68	1.78
479.882	1.71
480.083	1.72
480.285	1.68
480.487	1.72
480.688	1.69
480.89	1.73
481.091	1.74
481.293	1.73
481.495	1.74
481.696	1.71
481.898	1.67
482.099	1.65
482.301	1.67
482.502	1.69
482.704	1.7
482.905	1.67
483.107	1.68
483.308	1.68
483.51	1.68
483.711	1.66
483.913	1.67
484.114	1.72
484.315	1.75
484.517	1.74
484.718	1.75
484.92	1.75
485.121	1.78
485.322	1.78
485.524	1.77
485.725	1.78
485.926	1.81
486.127	1.81
486.329	1.77
486.53	1.76
486.731	1.73
486.932	1.72
487.134	1.69
487.335	1.68
487.536	1.69
487.737	1.7
487.938	1.7
488.139	1.66
488.341	1.66
488.542	1.66
488.743	1.67
488.944	1.67
489.145	1.69
489.346	1.7
489.547	1.69
489.748	1.67
489.949	1.61
490.15	1.59
490.351	1.62
490.552	1.62
490.753	1.65
490.954	1.64
491.155	1.65
491.356	1.64
491.557	1.65
491.758	1.66
491.959	1.71
492.159	1.75
492.36	1.81
492.561	1.81
492.762	1.82
492.963	1.74
493.164	1.73
493.364	1.71
493.565	1.74
493.766	1.73
493.967	1.69
494.167	1.63
494.368	1.67
494.569	1.61
494.769	1.62
494.97	1.63
495.171	1.71
495.371	1.76
495.572	1.83
495.773	1.77
495.973	1.79
496.174	1.82
496.375	1.81
496.575	1.73
496.776	1.7
496.976	1.64
497.177	1.62
497.377	1.6
497.578	1.55
497.778	1.45
497.979	1.41
498.179	1.39
498.38	1.37
498.58	1.33
498.78	1.34
498.981	1.34
499.181	1.41
499.382	1.47
499.582	1.45
499.782	1.47
499.983	1.59
500.183	1.67
500.383	1.7
500.584	1.77
500.784	1.78
500.984	1.77
501.184	1.81
501.385	1.84
501.585	1.78
501.785	1.8
501.985	1.78
502.185	1.76
502.386	1.79
502.586	1.74
502.786	1.8
502.986	1.86
503.186	1.84
503.386	1.92
503.586	1.89
503.786	1.89
503.987	1.93
504.187	1.9
504.387	1.9
504.587	1.88
504.787	1.91
504.987	1.75
505.187	1.69
505.387	1.76
505.587	1.7
505.786	1.73
505.986	1.71
506.186	1.71
506.386	1.67
506.586	1.66
506.786	1.65
506.986	1.71
507.186	1.82
507.386	1.79
507.585	1.8
507.785	1.83
507.985	1.81
508.185	1.82
508.384	1.85
508.584	1.89
508.784	1.87
508.984	1.95
509.183	1.92
509.383	1.94
509.583	1.99
509.782	1.99
509.982	1.94
510.182	1.97
510.381	1.94
510.581	1.92
510.781	1.95
510.98	1.97
511.18	1.89
511.379	1.94
511.579	1.83
511.778	1.84
511.978	1.86
512.177	1.85
512.377	1.88
512.576	1.99
512.776	2.01
512.975	2.01
513.175	2.04
513.374	2.02
513.573	2.06
513.773	2.2
513.972	2.28
514.172	2.34
514.371	2.51
514.57	2.47
514.77	2.43
514.969	2.46
515.168	2.45
515.367	2.45
515.567	2.54
515.766	2.45
515.965	2.42
516.164	2.4
516.364	2.4
516.563	2.35
516.762	2.35
516.961	2.34
517.16	2.36
517.359	2.41
517.559	2.39
517.758	2.41
517.957	2.44
518.156	2.45
518.355	2.43
518.554	2.46
518.753	2.44
518.952	2.41
519.151	2.42
519.35	2.4
519.549	2.4
519.748	2.41
519.947	2.4
520.146	2.45
520.345	2.49
520.544	2.46
520.743	2.45
520.942	2.42
521.141	2.54
521.339	2.5
521.538	2.52
521.737	2.53
521.936	2.55
522.135	2.54
522.333	2.54
522.532	2.49
522.731	2.55
522.93	2.46
523.129	2.54
523.327	2.46
523.526	2.49
523.725	2.49
523.923	2.46
524.122	2.48
524.321	2.47
524.519	2.46
524.718	2.45
524.917	2.44
525.115	2.47
525.314	2.47
525.512	2.44
525.711	2.48
525.909	2.47
526.108	2.51
526.306	2.48
526.505	2.51
526.703	2.53
526.902	2.58
527.1	2.62
527.299	2.63
527.497	2.63
527.696	2.67
527.894	2.69
528.092	2.72
528.291	2.72
528.489	2.77
528.688	2.76
528.886	2.79
529.084	2.81
529.283	2.77
529.481	2.81
529.679	2.83
529.877	2.92
530.076	2.9
530.274	2.92
530.472	2.93
530.67	2.93
530.869	2.96
531.067	2.94
531.265	2.96
531.463	3.02
531.661	3.02
531.859	2.99
532.057	2.96
532.255	3
532.454	3
532.652	3.01
532.85	3.05
533.048	3.06
533.246	3.08
533.444	3.09
533.642	3.13
533.84	3.09
534.038	3.11
534.236	3.12
534.434	3.11
534.632	3.17
534.83	3.18
535.027	3.12
535.225	3.13
535.423	3.16
535.621	3.14
535.819	3.1
536.017	3.22
536.215	3.26
536.412	3.27
536.61	3.22
536.808	3.2
537.006	3.2
537.203	3.25
537.401	3.3
537.599	3.27
537.797	3.24
537.994	3.3
538.192	3.3
538.39	3.36
538.587	3.38
538.785	3.48
538.983	3.51
539.18	3.54
539.378	3.55
539.575	3.58
539.773	3.58
539.97	3.61
540.168	3.64
540.366	3.63
540.563	3.68
540.761	3.72
540.958	3.76
541.155	3.79
541.353	3.82
541.55	3.91
541.748	3.9
541.945	3.94
542.143	3.99
542.34	4.03
542.537	4.03
542.735	4.03
542.932	4.05
543.129	4.02
543.327	4.06
543.524	4.04
543.721	3.99
543.919	4.07
544.116	4.11
544.313	4.18
544.51	4.2
544.708	4.29
544.905	4.27
545.102	4.3
545.299	4.31
545.496	4.25
545.693	4.29
545.891	4.33
546.088	4.3
546.285	4.43
546.482	4.36
546.679	4.38
546.876	4.45
547.073	4.48
547.27	4.46
547.467	4.5
547.664	4.6
547.861	4.67
548.058	4.73
548.255	4.84
548.452	4.65
548.649	4.77
548.846	4.77
549.043	4.71
549.24	4.92
549.437	4.96
549.633	4.99
549.83	5.03
550.027	5.1
550.224	5.13
550.421	5.16
550.618	5.27
550.814	5.24
551.011	5.16
551.208	5.13
551.405	5
551.601	5.03
551.798	5.08
551.995	5.07
552.191	5.09
552.388	5.07
552.585	5.13
552.781	5.2
552.978	5.22
553.175	5.37
553.371	5.49
553.568	5.55
553.764	5.67
553.961	5.72
554.157	5.76
554.354	5.74
554.55	5.86
554.747	5.9
554.943	5.89
555.14	5.94
555.336	5.98
555.533	6.04
555.729	6.04
555.926	6.05
556.122	6.09
556.318	6.12
556.515	6.24
556.711	6.23
556.907	6.2
557.104	6.24
557.3	6.31
557.496	6.26
557.693	6.32
557.889	6.39
558.085	6.39
558.281	6.41
558.478	6.48
558.674	6.5
558.87	6.55
559.066	6.62
559.262	6.71
559.459	6.72
559.655	6.84
559.851	6.83
560.047	6.89
560.243	6.9
560.439	6.94
560.635	6.99
560.831	7.01
561.027	7.12
561.223	7.2
561.419	7.18
561.615	7.25
561.811	7.22
562.007	7.22
562.203	7.24
562.399	7.38
562.595	7.46
562.791	7.43
562.987	7.51
563.183	7.49
563.379	7.44
563.575	7.54
563.771	7.68
563.966	7.75
564.162	7.81
564.358	7.89
564.554	7.84
564.75	7.87
564.945	8
565.141	7.95
565.337	7.95
565.533	7.93
565.728	7.92
565.924	7.95
566.12	8.06
566.315	8.15
566.511	8.08
566.707	8.18
566.902	8.21
567.098	8.22
567.293	8.31
567.489	8.33
567.684	8.52
567.88	8.6
568.076	8.55
568.271	8.51
568.467	8.54
568.662	8.66
568.858	8.65
569.053	8.56
569.248	8.61
569.444	8.68
569.639	8.67
569.835	8.69
570.03	8.7
570.225	8.8
570.421	8.79
570.616	8.8
570.812	8.87
571.007	8.93
571.202	9.15
571.397	9.23
571.593	9.23
571.788	9.32
571.983	9.35
572.178	9.41
572.374	9.47
572.569	9.54
572.764	9.69
572.959	9.72
573.154	9.74
573.35	9.78
573.545	9.84
573.74	9.86
573.935	9.95
574.13	9.93
574.325	9.99
574.52	9.96
574.715	9.92
574.91	9.95
575.105	9.87
575.3	9.91
575.495	9.87
575.69	9.84
575.885	9.91
576.08	9.99
576.275	10.12
576.47	10.08
576.665	10.19
576.86	10.4
577.055	10.37
577.25	10.64
577.444	10.58
577.639	10.65
577.834	10.7
578.029	10.71
578.224	10.62
578.418	10.52
578.613	10.65
578.808	10.66
579.003	10.66
579.197	10.63
579.392	10.54
579.587	10.69
579.781	10.79
579.976	10.79
580.171	10.94
580.365	11.06
580.56	11.2
580.755	11.23
580.949	11.19
581.144	11.26
581.338	11.32
581.533	11.41
581.727	11.48
581.922	11.39
582.116	11.4
582.311	11.34
582.505	11.39
582.7	11.34
582.894	11.3
583.089	11.34
583.283	11.28
583.478	11.3
583.672	11.29
583.866	11.33
584.061	11.41
584.255	11.41
584.449	11.31
584.644	11.29
584.838	11.41
585.032	11.47
585.226	11.5
585.421	11.48
585.615	11.46
585.809	11.54
586.003	11.49
586.198	11.56
586.392	11.66
586.586	11.75
586.78	11.78
586.974	11.95
587.168	11.92
587.363	11.97
587.557	12.13
587.751	12.2
587.945	12.15
588.139	12.1
588.333	12
588.527	12.18
588.721	12.3
588.915	12.41
589.109	12.26
589.303	12.29
589.497	12.26
589.691	12.2
589.885	12.19
590.079	12.2
590.273	12.3
590.466	12.44
590.66	12.25
590.854	12.18
591.048	12.05
591.242	12.05
591.436	12.02
591.629	12.13
591.823	12.12
592.017	12.14
592.211	12.26
592.404	12.23
592.598	12.25
592.792	12.34
592.986	12.29
593.179	12.48
593.373	12.49
593.567	12.63
593.76	12.69
593.954	12.87
594.147	12.91
594.341	12.86
594.535	13.11
594.728	13.08
594.922	13.01
595.115	13.13
595.309	12.98
595.502	13.06
595.696	13.09
595.889	13.08
596.083	12.86
596.276	12.93
596.47	12.95
596.663	12.78
596.856	12.76
597.05	12.86
597.243	12.76
597.437	12.85
597.63	12.81
597.823	12.72
598.017	12.72
598.21	12.92
598.403	12.97
598.596	12.95
598.79	13.04
598.983	13.02
599.176	12.96
599.369	13.04
599.563	13.02
599.756	13.08
599.949	13.07
600.142	13.15
600.335	13.21
600.528	13.16
600.722	13.16
600.915	13.04
601.108	13.19
601.301	13.25
601.494	13.35
601.687	13.25
601.88	13.27
602.073	13.32
602.266	13.26
602.459	13.19
602.652	13.19
602.845	13.25
603.038	13.35
603.231	13.35
603.424	13.28
603.617	13.22
603.809	13.39
604.002	13.33
604.195	13.34
604.388	13.41
604.581	13.4
604.774	13.43
604.966	13.42
605.159	13.45
605.352	13.39
605.545	13.52
605.737	13.59
605.93	13.47
606.123	13.49
606.316	13.53
606.508	13.45
606.701	13.54
606.894	13.62
607.086	13.64
607.279	13.7
607.471	13.64
607.664	13.57
607.857	13.65
608.049	13.86
608.242	13.9
608.434	13.93
608.627	13.92
608.819	13.85
609.012	13.87
609.204	13.87
609.397	13.78
609.589	13.89
609.782	13.93
609.974	13.96
610.166	13.92
610.359	13.97
610.551	13.85
610.743	13.92
610.936	14.1
611.128	14.05
611.32	14.1
611.513	14.15
611.705	14.08
611.897	14.04
612.09	14.12
612.282	14.13
612.474	14.03
612.666	14.28
612.858	14.33
613.051	14.25
613.243	14.1
613.435	14.25
613.627	14.3
613.819	14.53
614.011	14.64
614.203	14.37
614.395	14.17
614.588	14.27
614.78	14.17
614.972	14.21
615.164	14.17
615.356	14.31
615.548	14.05
615.74	13.97
615.932	13.85
616.124	13.92
616.315	14.13
616.507	14.18
616.699	14.17
616.891	14.13
617.083	14.09
617.275	14.2
617.467	14.16
617.659	14.36
617.85	14.64
618.042	14.49
618.234	14.39
618.426	14.26
618.618	14.4
618.809	14.23
619.001	14.45
619.193	14.44
619.384	14.33
619.576	14.54
619.768	14.49
619.959	14.27
620.151	14.5
620.343	14.65
620.534	14.62
620.726	14.35
620.917	14.45
621.109	14.34
621.301	14.53
621.492	14.49
621.684	14.37
621.875	14.34
622.067	14.35
622.258	14.2
622.45	14.06
622.641	14.29
622.832	14.37
623.024	14.42
623.215	14.34
623.407	14.23
623.598	14.3
623.789	14.32
623.981	14.52
624.172	14.55
624.363	14.56
624.555	14.61
624.746	14.46
624.937	14.56
625.129	14.63
625.32	14.49
625.511	14.45
625.702	14.42
625.893	14.34
626.085	14.19
626.276	14.11
626.467	14.22
626.658	14.28
626.849	14.38
627.04	14.45
627.231	14.52
627.422	14.81
627.614	14.79
627.805	14.8
627.996	14.86
628.187	14.9
628.378	14.96
628.569	15.05
628.76	15.01
628.951	15.09
629.142	15.04
629.332	14.95
629.523	15.09
629.714	15.17
629.905	15.25
630.096	15.26
630.287	15.36
630.478	15.46
630.669	15.19
630.859	15.23
631.05	15.12
631.241	15.19
631.432	15.37
631.623	15.27
631.813	15.37
632.004	15.4
632.195	15.45
632.385	15.23
632.576	15.2
632.767	15.29
632.957	15.16
633.148	15.19
633.339	15.19
633.529	15.16
633.72	15.04
633.91	14.92
634.101	14.95
634.292	15.03
634.482	15.37
634.673	15.36
634.863	15.27
635.054	15.38
635.244	15.38
635.435	15.38
635.625	15.31
635.815	15.46
636.006	15.3
636.196	15.39
636.387	15.28
636.577	15.15
636.767	15.22
636.958	15.43
637.148	15.45
637.338	15.38
637.529	15.34
637.719	15.26
637.909	15.28
638.099	15.47
638.29	15.48
638.48	15.64
638.67	15.59
638.86	15.68
639.05	15.52
639.241	15.41
639.431	15.53
639.621	15.78
639.811	15.75
640.001	15.56
640.191	15.55
640.381	15.56
640.571	15.57
640.761	15.58
640.951	15.28
641.141	15.28
641.331	15.32
641.521	15.32
641.711	14.92
641.901	15.13
642.091	15.25
642.281	15.42
642.471	15.1
642.661	14.95
642.851	14.91
643.041	15.03
643.231	15.12
643.42	15.14
643.61	14.91
643.8	15.06
643.99	14.92
644.18	14.73
644.369	14.53
644.559	14.81
644.749	14.77
644.939	14.5
645.128	14.6
645.318	14.62
645.508	14.88
645.697	14.95
645.887	14.96
646.076	14.92
646.266	15.09
646.456	15.26
646.645	15.06
646.835	15.26
647.024	15.51
647.214	15.51
647.403	15.53
647.593	15.35
647.782	15.52
647.972	15.58
648.161	15.67
648.351	15.68
648.54	15.72
648.73	15.96
648.919	15.92
649.108	15.95
649.298	15.91
649.487	15.84
649.677	15.91
649.866	15.84
650.055	15.83
650.244	15.83
650.434	15.94
650.623	15.93
650.812	15.98
651.002	16.1
651.191	16.19
651.38	16.31
651.569	16.57
651.758	16.58
651.947	16.5
652.137	16.45
652.326	16.5
652.515	16.7
652.704	16.69
652.893	16.35
653.082	16.2
653.271	16.19
653.46	16.21
653.649	16.04
653.838	16.14
654.027	16.47
654.216	16.54
654.405	16.47
654.594	16.14
654.783	16.25
654.972	16.57
655.161	16.58
655.35	16.56
655.539	16.81
655.728	16.75
655.916	16.71
656.105	16.45
656.294	16.28
656.483	16.37
656.672	16.41
656.86	16.33
657.049	16.34
657.238	16.34
657.427	16.39
657.615	16.24
657.804	16.25
657.993	16.24
658.181	16.21
658.37	16.38
658.559	16.34
658.747	16.39
658.936	16.22
659.125	16.33
659.313	16.42
659.502	16.37
659.69	16.35
659.879	16.58
660.067	16.59
660.256	16.75
660.444	16.77
660.633	16.9
660.821	16.88
661.01	16.8
661.198	16.42
661.387	16.28
661.575	16.31
661.763	16.28
661.952	16.22
662.14	15.99
662.328	15.75
662.517	15.78
662.705	15.62
662.893	15.47
663.082	15.95
663.27	16.04
663.458	16.02
663.646	15.85
663.834	15.92
664.023	15.85
664.211	16
664.399	16.4
664.587	16.38
664.775	16.21
664.963	16.74
665.152	16.69
665.34	16.91
665.528	17.05
665.716	17.18
665.904	16.94
666.092	16.89
666.28	17.12
666.468	16.96
666.656	17.22
666.844	17.42
667.032	17.01
667.22	17.01
667.408	16.76
667.596	16.56
667.784	16.61
667.971	16.76
668.159	16.69
668.347	16.55
668.535	16.47
668.723	16.14
668.911	16.16
669.098	16.13
669.286	16.18
669.474	16.13
669.662	16.28
669.849	16.21
670.037	16.18
670.225	16.19
670.413	16.21
670.6	16.48
670.788	16.56
670.976	16.68
671.163	16.81
671.351	16.69
671.538	16.95
671.726	17.35
671.913	17.5
672.101	17.64
672.289	17.98
672.476	17.62
672.664	17.31
672.851	17.16
673.039	17.3
673.226	17.48
673.413	17.47
673.601	17.75
673.788	17.49
673.976	17.33
674.163	17.39
674.35	17.34
674.538	17.65
674.725	17.77
674.912	18.14
675.1	17.92
675.287	17.78
675.474	17.7
675.662	17.47
675.849	17.43
676.036	17.56
676.223	17.69
676.411	17.6
676.598	17.6
676.785	17.77
676.972	17.57
677.159	17.4
677.346	17.44
677.533	17.68
677.721	17.7
677.908	17.58
678.095	17.42
678.282	17.3
678.469	17.05
678.656	17.3
678.843	17.15
679.03	17
679.217	17.21
679.404	17.34
679.591	17.18
679.778	17
679.964	17.05
680.151	17.14
680.338	17.12
680.525	17.45
680.712	17.25
680.899	17.54
681.086	17.74
681.272	17.68
681.459	17.48
681.646	17.44
681.833	17.71
682.02	17.94
682.206	17.77
682.393	17.77
682.58	17.66
682.766	17.51
682.953	17.5
683.14	17.77
683.326	17.79
683.513	17.69
683.7	17.75
683.886	17.64
684.073	17.63
684.259	17.99
684.446	18.02
684.632	17.92
684.819	18
685.005	17.78
685.192	17.62
685.378	17.59
685.565	17.66
685.751	17.37
685.938	17.3
686.124	17.07
686.31	16.79
686.497	16.6
686.683	16.57
686.87	16.67
687.056	16.81
687.242	16.97
687.429	17.19
687.615	17.31
687.801	17.48
687.987	17.72
688.174	17.8
688.36	17.85
688.546	17.87
688.732	17.99
688.918	17.97
689.105	17.56
689.291	17.38
689.477	17.17
689.663	17.17
689.849	17.52
690.035	17.28
690.221	17.25
690.407	17.32
690.593	17.48
690.779	17.46
690.965	17.57
691.151	17.91
691.337	17.58
691.523	17.67
691.709	17.81
691.895	17.66
692.081	17.67
692.267	17.74
692.453	17.7
692.639	17.6
692.825	17.8
693.011	17.64
693.196	17.52
693.382	17.72
693.568	17.59
693.754	17.6
693.94	17.72
694.125	17.6
694.311	17.86
694.497	17.95
694.682	18.28
694.868	18.03
695.054	18.18
695.239	18.3
695.425	18.34
695.611	18.24
695.796	18.29
695.982	18.34
696.168	18.39
696.353	18.37
696.539	18.56
696.724	18.36
696.91	18.58
697.095	18.72
697.281	18.87
697.466	18.81
697.652	18.83
697.837	18.5
698.023	18.49
698.208	18.53
698.393	18.29
698.579	18.4
698.764	18.4
698.949	18.33
699.135	18.22
699.32	17.93
699.505	17.89
699.691	17.97
699.876	18.24
700.061	18.02
700.246	18.13
700.432	18.45
700.617	18.02
700.802	18.16
700.987	18.09
701.172	18.12
701.358	18.6
701.543	18.84
701.728	18.84
701.913	18.85
702.098	18.99
702.283	18.7
702.468	18.63
702.653	18.95
702.838	18.7
703.023	18.61
703.208	18.61
703.393	18.22
703.578	18.08
703.763	18.08
703.948	17.89
704.133	17.9
704.318	18.34
704.503	17.8
704.688	17.64
704.873	17.81
705.057	17.85
705.242	18.06
705.427	18.46
705.612	18.65
705.797	18.69
705.981	18.6
706.166	18.64
706.351	18.61
706.536	19.07
706.72	19
706.905	18.9
707.09	18.81
707.274	18.43
707.459	17.86
707.644	17.7
707.828	17.48
708.013	17.95
708.197	17.95
708.382	17.75
708.567	17.24
708.751	17.15
708.936	17.26
709.12	17.39
709.305	17.67
709.489	18.14
709.673	18.07
709.858	18.49
710.042	18.36
710.227	18.31
710.411	18.38
710.596	19.02
710.78	19.1
710.964	18.91
711.149	19
711.333	18.6
711.517	18.54
711.702	18.64
711.886	18.62
712.07	18.45
712.254	18.63
712.438	18.73
712.623	18.39
712.807	18.54
712.991	19.12
713.175	19.05
713.359	19.18
713.544	18.98
713.728	18.79
713.912	18.38
714.096	18.4
714.28	18.35
714.464	18.3
714.648	18.3
714.832	18.29
715.016	17.77
715.2	17.61
715.384	17.84
715.568	17.84
715.752	18.1
715.936	18.25
716.12	18.22
716.304	18
716.488	18.03
716.671	18.04
716.855	17.97
717.039	17.9
717.223	18.02
717.407	17.84
717.59	17.86
717.774	17.73
717.958	18.06
718.142	18.23
718.325	18.27
718.509	18.17
718.693	18.09
718.877	18.23
719.06	18.37
719.244	18.72
719.428	18.85
719.611	19.12
719.795	18.97
719.978	19.2
720.162	19.22
720.345	19.52
720.529	19.84
720.713	20.02
720.896	20.14
721.08	19.86
721.263	19.6
721.446	19.83
721.63	19.58
721.813	19.76
721.997	19.12
722.18	19.09
722.364	18.96
722.547	18.71
722.73	18.93
722.914	18.86
723.097	19.2
723.28	18.93
723.464	18.8
723.647	19.05
723.83	18.96
724.013	19.48
724.197	19.21
724.38	19.06
724.563	18.91
724.746	18.51
724.929	18.64
725.112	18.83
725.296	19.12
725.479	19.51
725.662	19.59
725.845	19.89
726.028	19.24
726.211	19.21
726.394	19.68
726.577	19.94
726.76	20.28
726.943	19.63
727.126	19.37
727.309	19.5
727.492	19.2
727.675	19.1
727.858	19.19
728.041	19.32
728.224	19.57
728.407	19.15
728.589	18.96
728.772	18.8
728.955	18.77
729.138	19.07
729.321	19.35
729.503	19.37
729.686	19.23
729.869	19
730.052	19.18
730.234	19.11
730.417	19.21
730.6	19.59
730.782	19.74
730.965	19.9
731.148	19.69
731.33	19.22
731.513	19.22
731.695	19.08
731.878	19.27
732.061	19.03
732.243	18.73
732.426	18.8
732.608	18.35
732.791	18.29
732.973	18.91
733.156	18.79
733.338	18.75
733.52	18.52
733.703	18.69
733.885	18.58
734.068	18.69
734.25	18.84
734.432	18.76
734.615	19.05
734.797	18.66
734.979	18.23
735.162	18.57
735.344	18.62
735.526	18.46
735.708	18.24
735.891	18
736.073	18.16
736.255	18.54
736.437	18.35
736.619	18.12
736.802	18.46
736.984	18.54
737.166	18.27
737.348	18.17
737.53	18.51
737.712	18.22
737.894	18.48
738.076	18.68
738.258	18.61
738.44	18.88
738.622	19.22
738.804	19
738.986	19.13
739.168	19.21
739.35	19.83
739.532	20.03
739.714	20.5
739.896	20.7
740.078	20.59
740.259	20.54
740.441	20.4
740.623	20.16
740.805	20.67
740.987	20.17
741.168	20.37
741.35	19.09
741.532	18.6
741.714	18.5
741.895	18.44
742.077	18.58
742.259	18.73
742.44	18.87
742.622	18.96
742.804	19.06
742.985	18.93
743.167	18.76
743.348	19.44
743.53	19.83
743.711	19.79
743.893	19.36
744.075	18.74
744.256	18.66
744.438	18.35
744.619	18.1
744.8	17.28
744.982	17.85
745.163	17.36
745.345	17.75
745.526	17.77
745.707	17.32
745.889	17.74
746.07	18.18
746.252	18.19
746.433	18.37
746.614	18.99
746.795	19.29
746.977	19.13
747.158	19.35
747.339	19.02
747.52	19.43
747.702	20.12
747.883	20.12
748.064	20.07
748.245	20
748.426	20.07
748.607	19.51
748.788	19.73
748.97	19.61
749.151	20.29
749.332	19.93
749.513	19.05
749.694	19.09
749.875	19.23
750.056	19.1
750.237	19.23
750.418	18.81
750.599	19.23
750.78	19.49
750.96	19.34
751.141	19.09
751.322	20.03
751.503	19.94
751.684	20.13
751.865	19.87
752.046	20.13
752.226	20.5
752.407	21.02
752.588	20.42
752.769	19.96
752.949	19.91
753.13	19.81
753.311	18.69
753.492	19.13
753.672	18.84
753.853	18.92
754.034	18.15
754.214	17.94
754.395	17.71
754.575	18.46
754.756	18.98
754.937	20.22
755.117	20.45
755.298	20.98
755.478	20.7
755.659	20.97
755.839	21.22
756.02	21.91
756.2	21.9
756.381	21.86
756.561	21.11
756.741	20.9
756.922	19.85
757.102	20.17
757.283	20.45
757.463	21.08
757.643	20.85
757.823	20.82
758.004	20.67
758.184	20.28
758.364	20.37
758.545	20.6
758.725	20.41
758.905	20.2
759.085	20.05
759.265	19.55
759.446	18.86
759.626	19.18
759.806	18.72
759.986	19.38
760.166	19.54
760.346	19.55
760.526	20.13
760.706	20.35
760.886	20.6
761.066	20.29
761.246	21.14
761.426	21.58
761.606	21.14
761.786	20.78
761.966	20.75
762.146	21.23
762.326	21.37
762.506	21
762.686	20.99
762.866	20.96
763.046	21.15
763.225	20.88
763.405	20.5
763.585	20.29
763.765	20.41
763.945	20.47
764.124	19.97
764.304	19.85
764.484	20
764.664	20.35
764.843	20.38
765.023	20.08
765.203	20.22
765.382	20.78
765.562	21.79
765.741	21.9
765.921	21.49
766.101	21.54
766.28	22.1
766.46	22.16
766.639	22.03
766.819	22.26
766.998	22.4
767.178	22.16
767.357	21.98
767.537	20.59
767.716	21.01
767.896	20.84
768.075	21.28
768.254	20.84
768.434	20.39
768.613	19.95
768.792	19.66
768.972	19.96
769.151	20.67
769.33	19.76
769.51	20.59
769.689	20.76
769.868	21.36
770.047	21.23
770.226	21.24
770.406	21.26
770.585	21.14
770.764	21.1
770.943	20.32
771.122	20.03
771.301	20.48
771.48	20.55
771.66	20.4
771.839	19.97
772.018	20.54
772.197	20.87
772.376	21.55
772.555	21.27
772.734	21.97
772.913	22.59
773.092	22.51
773.271	23.09
773.449	22.72
773.628	23.34
773.807	23.55
773.986	22.98
774.165	23.38
774.344	23.5
774.523	24.21
774.701	23.69
774.88	24.18
775.059	24.3
775.238	23.63
775.417	24.02
775.595	23.74
775.774	23.72
775.953	24.36
776.131	23.62
776.31	23.11
776.489	22.78
776.667	22.77
776.846	21.75
777.025	21.56
777.203	23
777.382	22.37
777.56	21.22
777.739	21.03
777.917	19.48
778.096	19.88
778.274	19.29
778.453	19.8
778.631	20.13
778.81	20.74
778.988	19.77
779.166	18.85
779.345	19.43
779.523	19.88
779.702	20.16
779.88	21.46
780.058	20.36
780.237	21.39
780.415	20.83
780.593	20.79
780.771	20.37
780.95	21.23
781.128	20.6
781.306	19.64
781.484	19.74
781.662	19.59
781.841	19.87
782.019	20.41
782.197	19.54
782.375	19.38
782.553	18.52
782.731	18.3
782.909	18.54
783.087	19.81
783.265	21.29
783.443	21.57
783.621	20.97
783.799	20.76
783.977	20.97
784.155	21.61
784.333	22.25
784.511	22.51
784.689	24.11
784.867	24.17
785.045	23.51
785.223	22.9
785.4	22.45
785.578	23.09
785.756	22.06
785.934	21.85
786.112	21.6
786.289	20.52
786.467	20.94
786.645	19.95
786.823	18.93
787	18.82
787.178	18.12
787.356	18.39
787.533	17.69
787.711	18.13
787.889	18.92
788.066	19.06
788.244	18.96
788.421	19.09
788.599	18.9
788.776	19.48
788.954	19.61
789.131	20.79
789.309	20.63
789.486	21.91
789.664	22.07
789.841	21.36
790.019	21.93
790.196	22.25
790.373	22.37
790.551	23.22
790.728	23.6
790.906	23.15
791.083	23.92
791.26	24.74
791.437	23.89
791.615	23.48
791.792	23.19
791.969	21.59
792.146	22.56
792.324	22.47
792.501	22.41
792.678	22.32
792.855	22.73
793.032	21.1
793.209	20.19
793.387	20.13
793.564	20.09
793.741	20.35
793.918	21.76
794.095	22.97
794.272	22.27
794.449	21.79
794.626	20.09
794.803	19.9
794.98	20.61
795.157	22.1
795.334	22.44
795.511	23.12
795.688	23.62
795.864	22.54
796.041	22.34
796.218	23.22
796.395	23.41
796.572	24.58
796.749	24.58
796.925	24.51
797.102	23.8
797.279	23.4
797.456	23
797.632	22.36
797.809	23.12
797.986	21.81
798.162	22.58
798.339	22.58
798.516	22.38
798.692	22.79
798.869	22.24
799.046	22.14
799.222	23.81
799.399	24
799.575	23.59
799.752	23.88
799.928	23.61
800.105	23.09
800.281	22.85
800.458	23.25
800.634	23.08
800.811	24.02
800.987	24.66
801.163	23.93
801.34	24.16
801.516	24.88
801.692	24.36
801.869	24.97
802.045	25.45
802.221	24.89
802.398	25.2
802.574	24.9
802.75	24.05
802.926	22.72
803.103	22.4
803.279	21.71
803.455	21.51
803.631	22.64
803.807	23.18
803.983	22.55
804.16	23.38
804.336	23.25
804.512	23.23
804.688	24.06
804.864	24.84
805.04	23.71
805.216	23.53
805.392	24.26
805.568	24.05
805.744	23.75
805.92	23.46
806.096	23.21
806.272	23.86
806.448	23.94
806.623	23.37
806.799	23.54
806.975	23.96
807.151	25.38
807.327	24.48
807.503	23.18
807.678	23.68
807.854	24.49
808.03	25
808.206	23.45
808.381	23.87
808.557	23.48
808.733	22.49
808.908	22.73
809.084	23.41
809.26	24.31
809.435	24.52
809.611	23.23
809.787	21.69
809.962	21.6
810.138	22.98
810.313	23.02
810.489	24.36
810.664	25.48
810.84	25.4
811.015	24.43
811.191	23.86
811.366	24.91
811.542	25.69
811.717	25.92
811.892	25.47
812.068	24.41
812.243	23.98
812.419	23
812.594	22.84
812.769	23.2
812.944	21.57
813.12	22.14
813.295	22.89
813.47	23.3
813.645	24.23
813.821	23.68
813.996	24.37
814.171	24.61
814.346	23.91
814.521	23.92
814.697	23.92
814.872	25.42
815.047	24.65
815.222	23.12
815.397	23.17
815.572	23.3
815.747	23.2
815.922	22.88
816.097	23.03
816.272	24.64
816.447	23.99
816.622	24.1
816.797	22.09
816.972	21.53
817.147	21.92
817.322	21.69
817.496	21.24
817.671	22.15
817.846	22.37
818.021	22
818.196	21.29
818.371	20.4
818.545	20.23
818.72	21.41
818.895	22.38
819.069	22.4
819.244	23.28
819.419	23.8
819.594	22.77
819.768	22.51
819.943	23.02
820.117	22.29
820.292	23.51
820.467	23.07
820.641	23.15
820.816	23.03
820.99	22.94
821.165	22.34
821.339	21.91
821.514	21.95
821.688	21.69
821.863	21.55
822.037	21.76
822.212	21.25
822.386	21.3
822.56	21.34
822.735	21.36
822.909	21.18
823.084	21.1
823.258	20.85
823.432	21.09
823.606	21.54
823.781	21.74
823.955	21.72
824.129	22.25
824.303	22.48
824.478	22.77
824.652	22.64
824.826	22.94
825	22.7
825.174	23.33
825.348	23.25
825.523	22.96
825.697	22.77
825.871	23.21
826.045	23.07
826.219	22.88
826.393	22.8
826.567	22.81
826.741	22.63
826.915	23.42
827.089	23.47
827.263	23.14
827.437	23.43
827.611	23.22
827.784	22.79
827.958	22.36
828.132	22.67
828.306	22.23
828.48	21.99
828.654	22.37
828.827	22.13
829.001	21.65
829.175	22.47
829.349	21.48
829.522	21.53
829.696	21.24
829.87	21.17
830.044	21.33
830.217	21.48
830.391	21.45
830.565	21.01
830.738	20.95
830.912	21.93
831.085	21.84
831.259	22.06
831.432	22.52
831.606	22.34
831.779	23.01
831.953	21.99
832.126	22.03
832.3	21.96
832.473	21.56
832.647	21.21
832.82	21.02
832.994	19.85
833.167	20.72
833.34	20.45
833.514	20.52
833.687	20.06
833.86	20.45
834.034	19.81
834.207	20.83
834.38	21.58
834.553	21.99
834.727	21.51
834.9	22.8
835.073	22.76
835.246	22.01
835.419	21.92
835.593	23.11
835.766	23.49
835.939	25.31
836.112	25.39
836.285	23.91
836.458	22.68
836.631	23.4
836.804	21.69
836.977	22.16
837.15	23.47
837.323	25.41
837.496	24.31
837.669	22.53
837.842	21.44
838.015	19.11
838.188	21.18
838.361	22.88
838.533	23.08
838.706	24.06
838.879	21.85
839.052	23.47
839.225	22.34
839.398	22.37
839.57	25.55
839.743	23.68
839.916	25.04
840.088	22.92
840.261	24.02
840.434	23.14
840.607	24.09
840.779	25.18
840.952	26.22
841.124	25.45
841.297	27.74
841.47	26.23
841.642	28.09
841.815	27.37
841.987	30.3
842.16	27.61
842.332	28.97
842.505	28
842.677	27.66
842.85	26.32
843.022	25.81
843.194	23.61
843.367	24.27
843.539	23.51
843.712	26.36
843.884	23.76
844.056	22.78
844.229	24.41
844.401	26.26
844.573	27.31
844.745	24.67
844.918	27.72
845.09	25.46
845.262	21.47
845.434	22.15
845.606	20.24
845.779	21.14
845.951	23.82
846.123	19.41
846.295	18.55
846.467	19.49
846.639	22.27
846.811	24.25
846.983	24.65
847.155	28.1
847.327	31.46
847.499	31.13
847.671	34.39
847.843	35.67
848.015	34.89
848.187	35.22
848.359	35.49
848.531	33.3
848.703	31.36
848.875	29.39
849.047	26.19
849.218	25.74
849.39	24.79
849.562	22.64
849.734	22.06
849.905	27.05
850.077	25.11
850.249	21.77
850.421	23.32
850.592	26.35
850.764	29.72
850.936	29.87
851.107	26.6
851.279	25.79
851.451	24.2
851.622	19.72
851.794	15.86
851.965	19.49
852.137	21.29
852.308	24
852.48	21.39
852.651	21.74
852.823	24.54
852.994	25.39
853.166	24.43
853.337	28.04
853.509	34.73
853.68	32.58
853.851	30.48
854.023	30.83
854.194	27.08
854.365	26.8
854.537	26.89
854.708	29.24
854.879	25.12
855.05	27.63
855.222	22.89
855.393	18.82
855.564	26.04
855.735	25.91
855.906	22.58
856.078	22.54
856.249	22.5
856.42	25.21
856.591	25.3
856.762	27.89
856.933	24.95
857.104	30.14
857.275	30.17
857.446	26.08
857.617	24.41
857.788	29.49
857.959	32.05
858.13	31.62
858.301	29.01
858.472	25.82
858.643	28.06
858.814	28.69
858.985	25.42
859.155	27.48
859.326	31.53
859.497	34.29
859.668	30.65
859.839	29.87
860.009	25.76
860.18	25.59
860.351	28.4
860.522	27.88
860.692	31.58
860.863	32.09
861.034	29.03
861.204	26.58
861.375	27.11
861.546	29.85
861.716	31.94
861.887	37.05
862.057	36.88
862.228	38.25
862.398	37.31
862.569	39.22
862.739	39.71
862.91	41.52
863.08	39.03
863.251	38.28
863.421	37.77
863.592	35.33
863.762	34.39
863.932	32.87
864.103	32.48
864.273	33.79
864.443	28.54
864.614	26.04
864.784	26.2
864.954	28.29
865.125	29.58
865.295	29.52
865.465	28.46
865.635	31.44
865.805	39.75
865.976	35.48
866.146	34.69
866.316	37.45
866.486	35.27
866.656	36.56
866.826	40.8
866.996	42.64
867.166	37.79
867.336	38.78
867.506	35.49
867.676	29
867.846	30.9
868.016	28.15
868.186	25.19
868.356	26.73
868.526	22.56
868.696	16.86
868.866	19.88
869.036	16.39
869.206	18.04
869.376	18.15
869.545	18.04
869.715	13.58
869.885	16.09
870.055	20.52
870.224	18.78
870.394	26.73
870.564	32.89
870.734	33.61
870.903	38.21
871.073	34.94
871.243	35.31
871.412	38.86
871.582	42.28
871.751	40.23
871.921	34.4
872.091	37.81
872.26	34.22
872.43	29.71
872.599	26.65
872.769	29.81
872.938	32.69
873.108	30.04
873.277	26.97
873.446	29.85
873.616	31.42
873.785	32.17
873.955	31.47
874.124	30.53
874.293	30.33
874.463	31.88
874.632	28.75
874.801	28.8
874.971	27.68
875.14	28.83
875.309	28.86
875.478	25.92
875.647	27.7
875.817	29.61
875.986	31.86
876.155	30.33
876.324	30.96
876.493	26.55
876.662	25.65
876.831	28.86
877	28.46
877.17	25.04
877.339	24.53
877.508	24.91
877.677	27.41
877.846	25.76
878.015	26.12
878.184	20.9
878.352	24.3
878.521	24.45
878.69	25.21
878.859	24.38
879.028	24.54
879.197	23.96
879.366	24.6
879.534	20.69
879.703	19.52
879.872	17.93
880.041	20.78
880.21	21.4
880.378	20.24
880.547	20.07
880.716	21.12
880.884	21.42
881.053	23.62
881.222	23.09
881.39	23.63
881.559	23.1
881.727	24.54
881.896	24.35
882.065	24.71
882.233	25.22
882.402	24.98
882.57	25.04
882.739	25.85
882.907	25.75
883.076	25.73
883.244	25.99
883.412	27.18
883.581	27.06
883.749	26.33
883.918	26.06
884.086	26.45
884.254	26.21
884.423	25.83
884.591	24.27
884.759	22.49
884.927	23.22
885.096	21.16
885.264	21.01
885.432	19.79
885.6	21.88
885.769	21.61
885.937	20.34
886.105	20.34
886.273	21.37
886.441	21.99
886.609	24.2
886.777	21.92
886.945	25.49
887.113	22.48
887.281	25.31
887.449	22.58
887.617	25.1
887.785	27.11
887.953	28.23
888.121	28.61
888.289	30.14
888.457	28.75
888.625	28.71
888.793	28.96
888.961	28.64
889.129	28.61
889.296	25.4
889.464	21.71
889.632	20.9
889.8	21.23
889.967	14.54
890.135	14.4
