Data from 2938482_Reflection_3.txt Node
Date: Wed Jun 17 01:08:33 EDT 2015
User: robert
Spectrometer: USB4E03002
Autoset integration time: false
Trigger mode: 4
Integration Time (sec): 1.000000E-1
Scans to average: 10
Electric dark correction enabled: true
Nonlinearity correction enabled: false
Boxcar width: 5
Stray light correction enabled: false
XAxis mode: Wavelengths
Stop averaging: false
Number of Pixels in Spectrum: 3648
>>>>>Begin Spectral Data<<<<<
177.575	-1434.07
177.794	325.14
178.014	-123.94
178.233	116.86
178.452	-912.2
178.672	-1060.34
178.891	286.38
179.11	123.67
179.33	134.27
179.549	202.7
179.768	147.85
179.987	439.8
180.207	57.63
180.426	9.19
180.645	-45.22
180.864	85.65
181.084	88.6
181.303	1804.23
181.522	307.36
181.741	435.96
181.96	338.65
182.179	215.3
182.398	425.01
182.618	-1375.47
182.837	-153.46
183.056	-195.06
183.275	-317.2
183.494	-258.58
183.713	1092.23
183.932	1399.35
184.151	-142.59
184.37	-37.85
184.589	-10.07
184.808	-15.18
185.027	-27.87
185.246	-76.46
185.465	-20.03
185.684	-5.61
185.903	6.77
186.122	35.86
186.341	31.23
186.56	33.37
186.779	43.87
186.998	21.12
187.216	-36.69
187.435	-6.13
187.654	-9.43
187.873	-117.53
188.092	-118.76
188.311	-55.57
188.53	-54.69
188.748	-15.51
188.967	-166.16
189.186	2165
189.405	47.94
189.623	87.94
189.842	136.99
190.061	755.17
190.28	291.97
190.498	201.79
190.717	166.51
190.936	126.1
191.154	96.1
191.373	84.48
191.592	53.08
191.81	60.81
192.029	60.18
192.248	62.61
192.466	58.15
192.685	99.13
192.904	99.14
193.122	87.86
193.341	310.73
193.559	294.09
193.778	261.8
193.996	331.94
194.215	464.65
194.433	-328.65
194.652	-1319.12
194.87	214.27
195.089	50.14
195.307	41.79
195.526	79.4
195.744	67.11
195.963	40.86
196.181	25.63
196.399	-1.3
196.618	-27.39
196.836	-15.39
197.055	-272.35
197.273	-414.45
197.491	731.42
197.71	134.67
197.928	228.72
198.146	194.2
198.365	220.99
198.583	106.42
198.801	118.61
199.019	190.12
199.238	228.09
199.456	-49.02
199.674	39.32
199.892	-118.87
200.111	-61.95
200.329	26.21
200.547	27.69
200.765	50.38
200.983	21.5
201.202	23.2
201.42	2.64
201.638	28.89
201.856	27.9
202.074	25.36
202.292	48.87
202.51	47.81
202.728	26.54
202.946	18.65
203.165	13.21
203.383	27.8
203.601	22.33
203.819	34.78
204.037	13.87
204.255	2.4
204.473	-7.61
204.691	-36.66
204.909	-38.79
205.127	-21.58
205.345	-16.17
205.562	-4.95
205.78	11.92
205.998	19.34
206.216	8.32
206.434	45.87
206.652	45.96
206.87	44.85
207.088	52.69
207.306	18.69
207.523	-8.93
207.741	13.03
207.959	27.71
208.177	-66.82
208.395	-93.93
208.612	96.05
208.83	-550.72
209.048	-3719.05
209.266	653.9
209.483	-19.61
209.701	141.13
209.919	509.01
210.136	-182.34
210.354	-16.72
210.572	68.35
210.79	58.18
211.007	56.74
211.225	60.94
211.442	48.87
211.66	37.74
211.878	20.13
212.095	13.77
212.313	5.07
212.53	12.84
212.748	10.57
212.966	4.12
213.183	-42.65
213.401	-43.2
213.618	-78.27
213.836	-97.53
214.053	-42.38
214.271	-11.32
214.488	3.41
214.705	21.23
214.923	28.14
215.14	8.22
215.358	2.83
215.575	15.95
215.793	6.54
216.01	3.73
216.227	14.18
216.445	10.46
216.662	-10.27
216.879	-5.35
217.097	-36.65
217.314	-24.78
217.531	4.11
217.749	1.18
217.966	10.63
218.183	7.65
218.4	7.26
218.618	7.67
218.835	3.23
219.052	14.33
219.269	5.62
219.487	18.82
219.704	13.81
219.921	-0.52
220.138	8.48
220.355	4.32
220.572	-2.22
220.79	-4.79
221.007	2.66
221.224	-10.22
221.441	-7.56
221.658	-0.23
221.875	-3.16
222.092	-2.51
222.309	5.71
222.526	4.19
222.743	2.59
222.96	11.77
223.177	19.17
223.394	12.85
223.611	19.59
223.828	11.92
224.045	14.22
224.262	16.95
224.479	12.82
224.696	9.19
224.913	3.75
225.13	3.82
225.347	0.97
225.564	-0.5
225.781	-2.28
225.997	0.31
226.214	3.22
226.431	3.48
226.648	0.96
226.865	2.54
227.082	3.26
227.298	5.33
227.515	4.53
227.732	5.06
227.949	4.93
228.165	6.87
228.382	5.89
228.599	5.69
228.816	5.77
229.032	6.41
229.249	6.33
229.466	7.62
229.682	6.21
229.899	6.37
230.116	7.3
230.332	8.88
230.549	7.32
230.765	6.82
230.982	7.69
231.199	5.82
231.415	7.32
231.632	7.43
231.848	6.15
232.065	6.59
232.281	8.63
232.498	8.27
232.714	8.59
232.931	10.57
233.147	9.64
233.364	8.82
233.58	10.22
233.797	11.76
234.013	11.66
234.23	9.68
234.446	11.91
234.662	12.99
234.879	12.77
235.095	11.22
235.312	9
235.528	11.19
235.744	10.79
235.961	8.44
236.177	6.75
236.393	6.48
236.61	8.15
236.826	5.62
237.042	3.2
237.258	2.85
237.475	4.76
237.691	4.8
237.907	4.24
238.123	3.84
238.339	4.87
238.556	5.45
238.772	4.66
238.988	5.5
239.204	6.3
239.42	6.4
239.636	6.96
239.853	5.75
240.069	6.92
240.285	7.75
240.501	8.05
240.717	8.61
240.933	7.83
241.149	8.23
241.365	8.05
241.581	8.21
241.797	8
242.013	7.79
242.229	8.51
242.445	8.58
242.661	7.16
242.877	6.19
243.093	5.64
243.309	7.41
243.525	7.06
243.741	6.83
243.957	6.81
244.173	7.25
244.388	7.61
244.604	6.83
244.82	7.07
245.036	7.74
245.252	8.18
245.468	8.29
245.683	7.68
245.899	7.72
246.115	7.78
246.331	7.55
246.547	7.11
246.762	6.76
246.978	7.32
247.194	6.89
247.409	6.37
247.625	6.31
247.841	6.4
248.057	6.07
248.272	6.24
248.488	6.19
248.703	6
248.919	6.13
249.135	6.38
249.35	5.38
249.566	4.95
249.782	5.14
249.997	4.58
250.213	3.67
250.428	3.6
250.644	3.18
250.859	2.85
251.075	3.61
251.29	3.37
251.506	3.92
251.721	5.23
251.937	5.55
252.152	5.59
252.368	7.28
252.583	7.53
252.798	8.6
253.014	8.52
253.229	9.28
253.445	9
253.66	8.77
253.875	7.57
254.091	5.6
254.306	4.72
254.521	4.77
254.737	2.76
254.952	2.11
255.167	1.24
255.383	1.8
255.598	1.24
255.813	1.08
256.028	1.58
256.244	2.27
256.459	3.52
256.674	3.94
256.889	4.4
257.104	5.36
257.32	5.94
257.535	5.94
257.75	5.84
257.965	5.78
258.18	5.87
258.395	5.77
258.61	5.47
258.826	5.14
259.041	5.24
259.256	5.09
259.471	4.78
259.686	4.58
259.901	4.63
260.116	4.66
260.331	4.84
260.546	4.87
260.761	5.48
260.976	5.79
261.191	5.9
261.406	5.66
261.621	5.62
261.836	5.6
262.05	5.78
262.265	5.99
262.48	6.09
262.695	6.59
262.91	6.51
263.125	5.51
263.34	5.13
263.555	5.03
263.769	5.41
263.984	5.47
264.199	5.08
264.414	4.81
264.629	4.52
264.843	4.29
265.058	3.54
265.273	3.57
265.488	4.12
265.702	4.16
265.917	3.88
266.132	4.1
266.346	4.01
266.561	4.34
266.776	4.31
266.99	4.48
267.205	4.74
267.42	5.42
267.634	5.5
267.849	5.92
268.063	6.5
268.278	6.57
268.492	6.14
268.707	6.41
268.922	6.46
269.136	6.77
269.351	6.35
269.565	6.57
269.78	5.75
269.994	5.58
270.209	5.31
270.423	5.13
270.637	5.04
270.852	4.67
271.066	4.51
271.281	4.37
271.495	4.37
271.709	4.58
271.924	4.08
272.138	4.32
272.353	4.49
272.567	4.43
272.781	4.49
272.996	4.69
273.21	5.27
273.424	4.64
273.638	4.3
273.853	4.12
274.067	4.07
274.281	4.1
274.495	3.8
274.71	4.06
274.924	3.83
275.138	3.75
275.352	3.42
275.566	3.59
275.781	3.99
275.995	4.54
276.209	4.46
276.423	4.51
276.637	4.79
276.851	4.99
277.065	4.65
277.279	4.95
277.493	4.48
277.707	4.5
277.921	3.9
278.135	4.27
278.349	3.84
278.563	4.08
278.777	3.89
278.991	3.98
279.205	3.79
279.419	3.66
279.633	2.96
279.847	3.22
280.061	3.69
280.275	3.82
280.489	3.9
280.703	4.03
280.917	3.78
281.131	4.38
281.344	4.33
281.558	4.5
281.772	4.14
281.986	4.46
282.2	4.2
282.414	4.37
282.627	4.37
282.841	4.24
283.055	4.5
283.269	4.58
283.482	4.1
283.696	3.72
283.91	4
284.123	4.35
284.337	4.91
284.551	5.21
284.764	4.77
284.978	5.12
285.192	4.89
285.405	4.69
285.619	4.6
285.833	4.55
286.046	5.02
286.26	4.77
286.473	4.75
286.687	3.99
286.9	3.73
287.114	3.91
287.327	3.59
287.541	3.62
287.754	3.57
287.968	3.51
288.181	3.64
288.395	3.16
288.608	3.04
288.822	3.25
289.035	3.84
289.248	4.09
289.462	4.26
289.675	4.35
289.889	4.72
290.102	4.74
290.315	5.11
290.529	5.19
290.742	5.35
290.955	5.39
291.169	5.37
291.382	5.02
291.595	5
291.808	5.01
292.022	4.99
292.235	4.8
292.448	4.92
292.661	4.54
292.875	4.15
293.088	3.88
293.301	3.99
293.514	3.93
293.727	4.29
293.94	4.25
294.153	4.25
294.367	4.41
294.58	4.52
294.793	4.61
295.006	4.57
295.219	5.04
295.432	5.58
295.645	5.64
295.858	5.79
296.071	5.73
296.284	5.66
296.497	5.6
296.71	5.37
296.923	5.13
297.136	5.16
297.349	5.36
297.562	4.98
297.775	4.69
297.988	4.65
298.201	4.4
298.414	3.79
298.626	3.75
298.839	3.72
299.052	3.57
299.265	3.78
299.478	3.51
299.691	3.42
299.903	4.09
300.116	3.69
300.329	3.38
300.542	2.98
300.755	3.41
300.967	3.71
301.18	3.23
301.393	3.07
301.605	2.91
301.818	2.9
302.031	2.71
302.243	2.28
302.456	2.76
302.669	2.7
302.881	3.23
303.094	3.04
303.307	3.07
303.519	3.38
303.732	3.74
303.944	3.35
304.157	3.47
304.37	3.05
304.582	3.24
304.795	2.72
305.007	3.01
305.22	2.73
305.432	2.75
305.645	2.24
305.857	2.12
306.069	2.52
306.282	2.87
306.494	3.1
306.707	3.89
306.919	3.4
307.132	3.81
307.344	3.99
307.556	3.85
307.769	4.14
307.981	4.1
308.193	4.17
308.406	4.29
308.618	4.27
308.83	4.11
309.043	3.92
309.255	4.33
309.467	4.14
309.679	3.99
309.892	4.05
310.104	3.91
310.316	4.03
310.528	4.07
310.74	4.07
310.953	4.21
311.165	4.43
311.377	4.36
311.589	3.75
311.801	3.76
312.013	3.82
312.225	4.04
312.437	4.42
312.649	4.71
312.862	4.97
313.074	4.45
313.286	4.32
313.498	4.01
313.71	4.2
313.922	4.93
314.134	5.24
314.346	5.21
314.558	4.75
314.77	4.24
314.982	3.87
315.193	3.44
315.405	3.7
315.617	3.54
315.829	3.63
316.041	3.6
316.253	3.41
316.465	3.15
316.677	3.36
316.888	3.65
317.1	3.99
317.312	4.54
317.524	4.63
317.736	3.86
317.947	4.15
318.159	4.07
318.371	4.44
318.583	4.54
318.794	4.76
319.006	4.96
319.218	4.78
319.43	5.05
319.641	4.65
319.853	4.7
320.064	5.28
320.276	4.97
320.488	5.21
320.699	4.86
320.911	4.75
321.123	4.59
321.334	4.17
321.546	4.19
321.757	3.91
321.969	3.84
322.18	4.07
322.392	3.96
322.603	4.64
322.815	4.86
323.026	5.15
323.238	5.24
323.449	5.5
323.661	5.28
323.872	4.95
324.083	4.74
324.295	4.87
324.506	5.24
324.718	5.52
324.929	5.38
325.14	4.87
325.352	4.64
325.563	4.46
325.774	4.11
325.986	3.99
326.197	4.56
326.408	4.75
326.62	5.05
326.831	4.82
327.042	4.45
327.253	4.11
327.464	4.45
327.676	5
327.887	5.1
328.098	5.2
328.309	5.46
328.52	5.67
328.732	5.94
328.943	5.91
329.154	5.81
329.365	5.97
329.576	6.17
329.787	6.07
329.998	5.4
330.209	5.26
330.42	5.53
330.631	5.41
330.842	5.12
331.053	4.89
331.264	4.68
331.475	4.51
331.686	4.47
331.897	4.57
332.108	4.42
332.319	4.74
332.53	4.63
332.741	4.6
332.952	4.78
333.163	4.79
333.374	4.51
333.585	4.45
333.795	3.95
334.006	3.8
334.217	3.98
334.428	3.96
334.639	3.89
334.849	3.76
335.06	3.82
335.271	4.09
335.482	4.52
335.692	4.72
335.903	4.53
336.114	5
336.325	5.22
336.535	4.92
336.746	5.18
336.957	5.29
337.167	5.57
337.378	5.41
337.589	5.3
337.799	4.93
338.01	5.35
338.22	5.28
338.431	5.41
338.642	5.31
338.852	5.22
339.063	5.24
339.273	5.19
339.484	5.41
339.694	5.18
339.905	4.95
340.115	5.13
340.326	4.45
340.536	4.62
340.746	4.47
340.957	4.08
341.167	4.13
341.378	4.08
341.588	3.62
341.799	3.55
342.009	4.15
342.219	4.36
342.43	3.78
342.64	4.11
342.85	3.7
343.061	3.96
343.271	4.25
343.481	4.11
343.691	4.02
343.902	4.11
344.112	4
344.322	3.51
344.532	3.45
344.743	3.69
344.953	3.37
345.163	3.55
345.373	3.27
345.583	3.12
345.793	3
346.004	2.81
346.214	2.81
346.424	2.91
346.634	2.7
346.844	2.77
347.054	2.7
347.264	2.77
347.474	2.62
347.684	2.51
347.894	3.08
348.104	3.32
348.314	3.26
348.524	3.32
348.734	3.34
348.944	3.65
349.154	3.18
349.364	3.31
349.574	3.44
349.784	3.61
349.994	3.92
350.204	3.8
350.413	3.77
350.623	3.72
350.833	3.57
351.043	3.49
351.253	3.06
351.463	3.39
351.672	3.61
351.882	3.31
352.092	3.9
352.302	4.09
352.511	3.52
352.721	3.34
352.931	3.47
353.141	3.49
353.35	3.57
353.56	4.21
353.77	4.33
353.979	4.25
354.189	4.39
354.399	4
354.608	3.7
354.818	3.96
355.027	3.82
355.237	3.93
355.447	4
355.656	3.84
355.866	3.66
356.075	3.6
356.285	3.59
356.494	3.51
356.704	3.66
356.913	3.78
357.123	3.58
357.332	3.84
357.542	3.83
357.751	3.79
357.96	3.71
358.17	3.78
358.379	3.95
358.589	3.82
358.798	3.86
359.007	3.8
359.217	3.76
359.426	4.17
359.635	4.3
359.845	4.26
360.054	4.33
360.263	4.38
360.472	4.21
360.682	3.88
360.891	3.73
361.1	3.87
361.309	3.8
361.519	3.71
361.728	3.65
361.937	3.52
362.146	3.41
362.355	3.37
362.564	3.49
362.774	3.23
362.983	3.36
363.192	3.42
363.401	3.27
363.61	3.04
363.819	2.82
364.028	2.62
364.237	2.44
364.446	2.57
364.655	2.39
364.864	2.29
365.073	2.6
365.282	2.78
365.491	2.7
365.7	2.56
365.909	2.93
366.118	3.02
366.327	2.98
366.536	2.99
366.745	3.01
366.954	2.89
367.162	2.63
367.371	2.19
367.58	1.73
367.789	1.74
367.998	2.01
368.207	1.76
368.415	1.99
368.624	2.03
368.833	1.95
369.042	1.79
369.25	2.26
369.459	2.6
369.668	2.76
369.877	3.11
370.085	3.2
370.294	3.17
370.503	2.93
370.711	2.95
370.92	3.2
371.129	3.5
371.337	3.74
371.546	3.55
371.754	3.3
371.963	3.45
372.171	3.29
372.38	3.25
372.589	3.19
372.797	3.61
373.006	3.71
373.214	3.31
373.423	3.21
373.631	3.16
373.84	3.28
374.048	3.1
374.256	3.02
374.465	3.02
374.673	3.2
374.882	3.02
375.09	3.07
375.298	2.97
375.507	3.21
375.715	3.29
375.923	3.25
376.132	3.14
376.34	3.38
376.548	3.61
376.757	3.66
376.965	3.41
377.173	3.4
377.381	3.11
377.59	2.83
377.798	2.7
378.006	2.5
378.214	2.44
378.423	2.35
378.631	2.43
378.839	2.31
379.047	2.33
379.255	2.58
379.463	2.4
379.671	2.27
379.879	2.36
380.088	2.56
380.296	2.77
380.504	2.74
380.712	2.75
380.92	2.52
381.128	2.28
381.336	2.3
381.544	2.08
381.752	2.27
381.96	2.44
382.168	2.46
382.376	2.37
382.584	2.23
382.791	2.11
382.999	1.94
383.207	2.21
383.415	2.39
383.623	2.26
383.831	2.33
384.039	2.27
384.247	2.36
384.454	2.37
384.662	2.32
384.87	2.56
385.078	2.77
385.285	2.97
385.493	2.69
385.701	2.67
385.909	2.56
386.116	2.63
386.324	2.71
386.532	2.66
386.739	2.81
386.947	2.71
387.155	2.31
387.362	2.22
387.57	2.25
387.778	2.26
387.985	2.32
388.193	2.66
388.4	2.81
388.608	2.84
388.816	2.81
389.023	2.86
389.231	2.87
389.438	2.97
389.646	2.97
389.853	2.99
390.061	3.08
390.268	3.19
390.475	3.12
390.683	2.94
390.89	2.89
391.098	3.02
391.305	2.79
391.512	2.96
391.72	2.82
391.927	2.7
392.135	2.5
392.342	2.46
392.549	2.31
392.756	2.14
392.964	2.06
393.171	1.96
393.378	2.04
393.586	1.94
393.793	1.77
394	1.9
394.207	1.87
394.414	2.01
394.622	1.97
394.829	1.92
395.036	2.01
395.243	2.05
395.45	2.14
395.657	1.85
395.864	1.77
396.072	1.62
396.279	1.63
396.486	1.72
396.693	1.8
396.9	1.91
397.107	2
397.314	1.96
397.521	2.08
397.728	2.18
397.935	2.37
398.142	2.53
398.349	2.84
398.556	2.99
398.763	3.05
398.97	3.08
399.177	2.93
399.383	3.07
399.59	3.01
399.797	2.89
400.004	2.83
400.211	2.71
400.418	2.75
400.625	2.71
400.831	2.69
401.038	2.68
401.245	2.39
401.452	2.54
401.658	2.4
401.865	2.42
402.072	2.39
402.279	2.54
402.485	2.54
402.692	2.45
402.899	2.4
403.105	2.34
403.312	2.26
403.519	2.47
403.725	2.51
403.932	2.35
404.138	2.47
404.345	2.5
404.552	2.34
404.758	2.25
404.965	2.34
405.171	2.28
405.378	2.29
405.584	2.28
405.791	2.25
405.997	2.01
406.204	2.15
406.41	2.07
406.617	2.31
406.823	2.3
407.029	2.3
407.236	2.31
407.442	2.3
407.649	2.26
407.855	2.38
408.061	2.3
408.268	2.36
408.474	2.22
408.68	2.1
408.887	1.91
409.093	1.9
409.299	2.12
409.505	2.11
409.712	2.11
409.918	2.01
410.124	1.95
410.33	1.99
410.537	1.97
410.743	2.1
410.949	2.09
411.155	2.04
411.361	2.07
411.567	1.88
411.773	1.74
411.98	1.55
412.186	1.66
412.392	1.6
412.598	1.48
412.804	1.55
413.01	1.55
413.216	1.67
413.422	1.62
413.628	1.47
413.834	1.49
414.04	1.48
414.246	1.67
414.452	1.79
414.658	1.83
414.864	1.89
415.07	1.93
415.275	2
415.481	2.06
415.687	2.05
415.893	2.25
416.099	2.26
416.305	2.4
416.511	2.34
416.716	2.2
416.922	2.21
417.128	2.18
417.334	2.17
417.539	2.02
417.745	1.92
417.951	2.04
418.157	2
418.362	2
418.568	1.92
418.774	1.88
418.979	1.89
419.185	1.81
419.391	1.91
419.596	1.84
419.802	1.96
420.008	1.97
420.213	2.52
420.419	2.42
420.624	2.33
420.83	2.4
421.035	2.45
421.241	2.46
421.446	2.54
421.652	2.43
421.857	2.45
422.063	2.38
422.268	2.33
422.474	1.68
422.679	1.71
422.885	1.71
423.09	1.62
423.295	1.65
423.501	1.7
423.706	1.72
423.911	1.8
424.117	1.78
424.322	1.82
424.527	1.9
424.733	2.01
424.938	1.94
425.143	1.97
425.349	2.04
425.554	2.03
425.759	1.88
425.964	1.83
426.169	1.74
426.375	1.88
426.58	1.78
426.785	1.77
426.99	1.74
427.195	1.82
427.4	1.93
427.605	1.96
427.811	2.12
428.016	2.29
428.221	2.27
428.426	2.35
428.631	2.29
428.836	2.38
429.041	2.27
429.246	2.22
429.451	2.28
429.656	2.25
429.861	2.21
430.066	2.13
430.271	2.02
430.476	2
430.681	2.09
430.886	2.06
431.09	2.09
431.295	2.2
431.5	2.27
431.705	2.26
431.91	2.2
432.115	2.23
432.32	2.17
432.524	2.08
432.729	2.14
432.934	1.99
433.139	1.91
433.343	1.83
433.548	1.8
433.753	1.76
433.958	1.75
434.162	1.86
434.367	1.76
434.572	1.68
434.776	1.79
434.981	1.66
435.186	1.64
435.39	1.65
435.595	1.71
435.799	1.78
436.004	1.72
436.209	1.8
436.413	1.74
436.618	1.88
436.822	1.9
437.027	2.01
437.231	2.08
437.436	2.14
437.64	2.14
437.845	2.07
438.049	2.04
438.253	2.15
438.458	2.03
438.662	2.02
438.867	1.99
439.071	2.01
439.275	1.96
439.48	2.02
439.684	1.95
439.888	1.99
440.093	2.06
440.297	1.96
440.501	1.91
440.706	1.98
440.91	2.01
441.114	1.99
441.318	1.98
441.523	1.97
441.727	1.86
441.931	1.94
442.135	1.93
442.339	1.9
442.543	1.91
442.748	1.83
442.952	1.82
443.156	1.83
443.36	1.79
443.564	1.82
443.768	1.79
443.972	1.78
444.176	1.72
444.38	1.74
444.584	1.69
444.788	1.79
444.992	1.74
445.196	1.72
445.4	1.73
445.604	1.73
445.808	1.75
446.012	1.77
446.216	1.82
446.42	1.79
446.624	1.71
446.828	1.75
447.032	1.74
447.235	1.82
447.439	1.84
447.643	1.76
447.847	1.64
448.051	1.56
448.254	1.53
448.458	1.45
448.662	1.57
448.866	1.61
449.069	1.66
449.273	1.69
449.477	1.69
449.681	1.59
449.884	1.63
450.088	1.75
450.292	1.87
450.495	1.88
450.699	1.89
450.902	1.87
451.106	1.92
451.31	1.87
451.513	1.78
451.717	1.79
451.92	1.82
452.124	1.9
452.327	1.97
452.531	1.8
452.734	1.75
452.938	1.79
453.141	1.71
453.345	1.71
453.548	1.71
453.752	1.69
453.955	1.62
454.158	1.65
454.362	1.61
454.565	1.52
454.769	1.63
454.972	1.67
455.175	1.67
455.379	1.76
455.582	1.84
455.785	1.81
455.988	1.81
456.192	1.82
456.395	1.82
456.598	1.76
456.801	1.75
457.005	1.75
457.208	1.79
457.411	1.8
457.614	1.78
457.817	1.77
458.021	1.77
458.224	1.82
458.427	1.77
458.63	1.79
458.833	1.8
459.036	1.89
459.239	1.84
459.442	1.77
459.645	1.75
459.848	1.72
460.051	1.6
460.254	1.62
460.457	1.58
460.66	1.64
460.863	1.6
461.066	1.69
461.269	1.67
461.472	1.68
461.675	1.73
461.878	1.65
462.081	1.69
462.284	1.78
462.486	1.71
462.689	1.61
462.892	1.56
463.095	1.55
463.298	1.46
463.5	1.35
463.703	1.38
463.906	1.33
464.109	1.41
464.311	1.45
464.514	1.47
464.717	1.43
464.92	1.5
465.122	1.45
465.325	1.6
465.528	1.66
465.73	1.61
465.933	1.56
466.135	1.6
466.338	1.61
466.541	1.48
466.743	1.36
466.946	1.42
467.148	1.45
467.351	1.57
467.553	1.49
467.756	1.33
467.958	1.42
468.161	1.55
468.363	1.57
468.566	1.45
468.768	1.58
468.971	1.57
469.173	1.61
469.375	1.71
469.578	1.79
469.78	1.83
469.983	1.96
470.185	1.96
470.387	1.99
470.59	1.96
470.792	1.98
470.994	1.93
471.196	2.08
471.399	2.11
471.601	2.03
471.803	1.93
472.005	1.87
472.208	1.86
472.41	1.83
472.612	1.83
472.814	1.87
473.016	1.93
473.218	1.98
473.421	1.89
473.623	1.87
473.825	1.86
474.027	1.87
474.229	1.86
474.431	1.81
474.633	1.9
474.835	1.87
475.037	1.94
475.239	2.05
475.441	2.11
475.643	2.23
475.845	2.2
476.047	2.11
476.249	2.13
476.451	2.09
476.653	2.14
476.855	2.03
477.057	1.96
477.258	1.92
477.46	1.91
477.662	1.86
477.864	1.81
478.066	1.82
478.268	1.97
478.469	1.94
478.671	1.95
478.873	2.01
479.075	2.07
479.276	2.16
479.478	2.14
479.68	2.1
479.882	2.13
480.083	2.12
480.285	2.09
480.487	2.04
480.688	1.97
480.89	1.96
481.091	1.93
481.293	1.89
481.495	1.83
481.696	1.83
481.898	1.84
482.099	1.8
482.301	1.77
482.502	1.74
482.704	1.75
482.905	1.8
483.107	1.79
483.308	1.8
483.51	1.81
483.711	1.85
483.913	1.87
484.114	1.88
484.315	1.86
484.517	1.9
484.718	1.92
484.92	1.89
485.121	1.87
485.322	1.88
485.524	1.85
485.725	1.87
485.926	1.8
486.127	1.78
486.329	1.73
486.53	1.78
486.731	1.81
486.932	1.83
487.134	1.85
487.335	1.87
487.536	1.88
487.737	1.9
487.938	1.89
488.139	1.92
488.341	1.94
488.542	1.95
488.743	1.94
488.944	1.91
489.145	1.88
489.346	1.85
489.547	1.83
489.748	1.82
489.949	1.8
490.15	1.8
490.351	1.82
490.552	1.8
490.753	1.78
490.954	1.81
491.155	1.79
491.356	1.79
491.557	1.85
491.758	1.8
491.959	1.83
492.159	1.86
492.36	1.87
492.561	1.85
492.762	1.85
492.963	1.92
493.164	1.82
493.364	1.87
493.565	1.94
493.766	1.85
493.967	1.91
494.167	1.83
494.368	1.81
494.569	1.76
494.769	1.75
494.97	1.84
495.171	1.88
495.371	1.94
495.572	1.89
495.773	1.89
495.973	1.92
496.174	1.92
496.375	2.01
496.575	2
496.776	2.03
496.976	2.04
497.177	1.96
497.377	1.9
497.578	1.86
497.778	1.93
497.979	1.85
498.179	1.87
498.38	1.84
498.58	1.78
498.78	1.78
498.981	1.8
499.181	1.83
499.382	1.85
499.582	1.85
499.782	1.83
499.983	1.65
500.183	1.74
500.383	1.7
500.584	1.72
500.784	1.74
500.984	1.74
501.184	1.75
501.385	1.71
501.585	1.73
501.785	1.82
501.985	1.99
502.185	2.07
502.386	2.01
502.586	1.98
502.786	2.01
502.986	2.04
503.186	2.01
503.386	1.99
503.586	1.93
503.786	1.94
503.987	1.86
504.187	1.8
504.387	1.8
504.587	1.88
504.787	1.98
504.987	1.93
505.187	1.91
505.387	1.9
505.587	1.95
505.786	1.93
505.986	1.93
506.186	1.98
506.386	1.9
506.586	1.91
506.786	1.9
506.986	1.84
507.186	1.97
507.386	1.99
507.585	2.06
507.785	2.04
507.985	2.09
508.185	2.06
508.384	2.04
508.584	2.09
508.784	2.11
508.984	2.13
509.183	2.14
509.383	2.07
509.583	2.09
509.782	2.04
509.982	2.04
510.182	2.09
510.381	2.17
510.581	2.2
510.781	2.23
510.98	2.25
511.18	2.23
511.379	2.2
511.579	2.25
511.778	2.22
511.978	2.29
512.177	2.33
512.377	2.29
512.576	2.27
512.776	2.16
512.975	2.12
513.175	2.09
513.374	2.12
513.573	2.09
513.773	2.06
513.972	2.13
514.172	2.07
514.371	2.09
514.57	2.09
514.77	2.05
514.969	2.09
515.168	2.15
515.367	2.13
515.567	2.03
515.766	2.15
515.965	2.12
516.164	2.03
516.364	2.08
516.563	2.02
516.762	2.04
516.961	2.08
517.16	2.11
517.359	2.12
517.559	2.23
517.758	2.31
517.957	2.26
518.156	2.28
518.355	2.33
518.554	2.34
518.753	2.39
518.952	2.37
519.151	2.3
519.35	2.34
519.549	2.3
519.748	2.25
519.947	2.21
520.146	2.28
520.345	2.26
520.544	2.23
520.743	2.25
520.942	2.21
521.141	2.17
521.339	2.22
521.538	2.23
521.737	2.32
521.936	2.3
522.135	2.29
522.333	2.29
522.532	2.34
522.731	2.38
522.93	2.41
523.129	2.48
523.327	2.48
523.526	2.46
523.725	2.48
523.923	2.42
524.122	2.44
524.321	2.42
524.519	2.44
524.718	2.44
524.917	2.46
525.115	2.48
525.314	2.47
525.512	2.53
525.711	2.59
525.909	2.56
526.108	2.56
526.306	2.59
526.505	2.63
526.703	2.61
526.902	2.62
527.1	2.62
527.299	2.59
527.497	2.57
527.696	2.6
527.894	2.61
528.092	2.64
528.291	2.69
528.489	2.66
528.688	2.65
528.886	2.67
529.084	2.66
529.283	2.67
529.481	2.65
529.679	2.68
529.877	2.68
530.076	2.64
530.274	2.6
530.472	2.59
530.67	2.65
530.869	2.71
531.067	2.72
531.265	2.72
531.463	2.75
531.661	2.83
531.859	2.87
532.057	2.83
532.255	2.86
532.454	2.9
532.652	2.88
532.85	2.93
533.048	2.91
533.246	2.92
533.444	2.96
533.642	2.96
533.84	2.93
534.038	2.93
534.236	2.99
534.434	3
534.632	3.04
534.83	3.06
535.027	3.02
535.225	3.01
535.423	2.98
535.621	2.98
535.819	2.99
536.017	3.04
536.215	3.07
536.412	3.03
536.61	3.02
536.808	2.99
537.006	3
537.203	2.97
537.401	3.06
537.599	3.13
537.797	3.24
537.994	3.3
538.192	3.26
538.39	3.31
538.587	3.41
538.785	3.46
538.983	3.5
539.18	3.53
539.378	3.58
539.575	3.59
539.773	3.62
539.97	3.61
540.168	3.63
540.366	3.66
540.563	3.63
540.761	3.62
540.958	3.65
541.155	3.65
541.353	3.65
541.55	3.61
541.748	3.6
541.945	3.58
542.143	3.58
542.34	3.55
542.537	3.51
542.735	3.56
542.932	3.54
543.129	3.56
543.327	3.64
543.524	3.69
543.721	3.76
543.919	3.78
544.116	3.88
544.313	3.86
544.51	3.89
544.708	3.95
544.905	3.9
545.102	3.99
545.299	4.03
545.496	3.99
545.693	3.95
545.891	3.99
546.088	4.02
546.285	3.92
546.482	3.99
546.679	4.08
546.876	4.17
547.073	4.25
547.27	4.23
547.467	4.22
547.664	4.33
547.861	4.45
548.058	4.47
548.255	4.52
548.452	4.59
548.649	4.61
548.846	4.54
549.043	4.6
549.24	4.69
549.437	4.62
549.633	4.65
549.83	4.63
550.027	4.62
550.224	4.7
550.421	4.74
550.618	4.87
550.814	4.86
551.011	4.93
551.208	4.92
551.405	5
551.601	5.16
551.798	5.21
551.995	5.21
552.191	5.31
552.388	5.36
552.585	5.4
552.781	5.37
552.978	5.51
553.175	5.48
553.371	5.59
553.568	5.61
553.764	5.57
553.961	5.61
554.157	5.69
554.354	5.58
554.55	5.64
554.747	5.68
554.943	5.63
555.14	5.58
555.336	5.68
555.533	5.61
555.729	5.67
555.926	5.74
556.122	5.8
556.318	5.82
556.515	6.02
556.711	5.94
556.907	6.07
557.104	6.16
557.3	6.34
557.496	6.46
557.693	6.53
557.889	6.58
558.085	6.67
558.281	6.83
558.478	6.88
558.674	6.89
558.87	7.09
559.066	7.02
559.262	7.19
559.459	7.09
559.655	7.1
559.851	7.17
560.047	7.2
560.243	7.34
560.439	7.29
560.635	7.38
560.831	7.54
561.027	7.64
561.223	7.74
561.419	7.81
561.615	7.88
561.811	7.98
562.007	8.01
562.203	8.01
562.399	7.98
562.595	7.95
562.791	8.03
562.987	7.93
563.183	7.85
563.379	7.82
563.575	7.91
563.771	8.03
563.966	8.09
564.162	8.13
564.358	8.17
564.554	8.28
564.75	8.38
564.945	8.35
565.141	8.39
565.337	8.42
565.533	8.62
565.728	8.65
565.924	8.68
566.12	8.71
566.315	8.75
566.511	8.89
566.707	8.9
566.902	8.93
567.098	9.1
567.293	9.27
567.489	9.35
567.684	9.39
567.88	9.43
568.076	9.46
568.271	9.56
568.467	9.71
568.662	9.74
568.858	9.79
569.053	9.89
569.248	9.99
569.444	9.95
569.639	10
569.835	9.98
570.03	9.98
570.225	10.05
570.421	10.05
570.616	10.1
570.812	10.21
571.007	10.32
571.202	10.48
571.397	10.32
571.593	10.41
571.788	10.44
571.983	10.46
572.178	10.47
572.374	10.5
572.569	10.51
572.764	10.46
572.959	10.45
573.154	10.46
573.35	10.37
573.545	10.53
573.74	10.5
573.935	10.62
574.13	10.66
574.325	10.81
574.52	10.91
574.715	10.96
574.91	11.09
575.105	11.1
575.3	11.1
575.495	11.21
575.69	11.29
575.885	11.36
576.08	11.27
576.275	11.31
576.47	11.31
576.665	11.31
576.86	11.33
577.055	11.39
577.25	11.57
577.444	11.55
577.639	11.55
577.834	11.56
578.029	11.71
578.224	11.9
578.418	12.06
578.613	12.11
578.808	12.09
579.003	12.15
579.197	12.09
579.392	12.02
579.587	12.21
579.781	12.2
579.976	12.21
580.171	12.31
580.365	12.36
580.56	12.42
580.755	12.44
580.949	12.52
581.144	12.58
581.338	12.67
581.533	12.78
581.727	12.77
581.922	12.89
582.116	13.08
582.311	13.03
582.505	13.07
582.7	13
582.894	12.99
583.089	12.89
583.283	12.93
583.478	13.04
583.672	12.9
583.866	12.87
584.061	12.77
584.255	12.73
584.449	12.87
584.644	12.96
584.838	13.06
585.032	13.16
585.226	13.39
585.421	13.41
585.615	13.45
585.809	13.52
586.003	13.73
586.198	13.82
586.392	13.83
586.586	13.69
586.78	13.54
586.974	13.6
587.168	13.74
587.363	13.72
587.557	13.8
587.751	13.75
587.945	13.84
588.139	13.7
588.333	13.81
588.527	13.72
588.721	13.8
588.915	13.99
589.109	13.87
589.303	13.85
589.497	13.88
589.691	13.82
589.885	13.89
590.079	13.89
590.273	13.84
590.466	13.82
590.66	13.96
590.854	13.95
591.048	13.91
591.242	13.92
591.436	13.96
591.629	14.03
591.823	14.1
592.017	13.87
592.211	14.06
592.404	14.32
592.598	14.3
592.792	14.27
592.986	14.39
593.179	14.34
593.373	14.46
593.567	14.45
593.76	14.46
593.954	14.57
594.147	14.77
594.341	14.61
594.535	14.58
594.728	14.61
594.922	14.61
595.115	14.59
595.309	14.63
595.502	14.59
595.696	14.56
595.889	14.66
596.083	14.59
596.276	14.69
596.47	14.69
596.663	14.65
596.856	14.72
597.05	14.81
597.243	14.68
597.437	14.73
597.63	14.73
597.823	14.71
598.017	14.65
598.21	14.77
598.403	14.6
598.596	14.63
598.79	14.59
598.983	14.57
599.176	14.59
599.369	14.77
599.563	14.81
599.756	14.85
599.949	15.08
600.142	15.14
600.335	15.09
600.528	15.21
600.722	15.27
600.915	15.34
601.108	15.46
601.301	15.54
601.494	15.69
601.687	15.73
601.88	15.74
602.073	15.62
602.266	15.65
602.459	15.68
602.652	15.59
602.845	15.61
603.038	15.59
603.231	15.49
603.424	15.47
603.617	15.34
603.809	15.24
604.002	15.3
604.195	15.35
604.388	15.34
604.581	15.3
604.774	15.37
604.966	15.44
605.159	15.55
605.352	15.59
605.545	15.55
605.737	15.77
605.93	15.74
606.123	15.88
606.316	15.91
606.508	15.79
606.701	15.88
606.894	15.91
607.086	15.86
607.279	15.74
607.471	15.75
607.664	15.8
607.857	15.67
608.049	15.85
608.242	15.86
608.434	15.87
608.627	16.06
608.819	15.97
609.012	16.03
609.204	16.1
609.397	16.24
609.589	16.4
609.782	16.28
609.974	16.29
610.166	16.27
610.359	16.16
610.551	16.16
610.743	16.17
610.936	16.14
611.128	16.05
611.32	15.89
611.513	15.83
611.705	15.89
611.897	15.98
612.09	16
612.282	16
612.474	16.07
612.666	15.91
612.858	15.58
613.051	15.71
613.243	15.77
613.435	15.83
613.627	15.88
613.819	15.78
614.011	15.93
614.203	15.99
614.395	15.92
614.588	15.94
614.78	16.08
614.972	16.19
615.164	16.1
615.356	16.26
615.548	16.42
615.74	16.24
615.932	16.04
616.124	16.02
616.315	16.08
616.507	16.1
616.699	15.95
616.891	15.86
617.083	16.01
617.275	16.15
617.467	16.19
617.659	16.22
617.85	16.31
618.042	16.49
618.234	16.48
618.426	16.41
618.618	16.39
618.809	16.43
619.001	16.67
619.193	16.55
619.384	16.44
619.576	16.35
619.768	16.22
619.959	16.27
620.151	16.43
620.343	16.29
620.534	16.32
620.726	16.35
620.917	16.5
621.109	16.44
621.301	16.51
621.492	16.56
621.684	16.47
621.875	16.6
622.067	16.55
622.258	16.28
622.45	16.29
622.641	16.29
622.832	16.26
623.024	16.16
623.215	16.14
623.407	16.1
623.598	16.14
623.789	16.16
623.981	16.14
624.172	16.27
624.363	16.28
624.555	16.41
624.746	16.42
624.937	16.47
625.129	16.51
625.32	16.5
625.511	16.59
625.702	16.51
625.893	16.55
626.085	16.62
626.276	16.56
626.467	16.56
626.658	16.6
626.849	16.65
627.04	16.83
627.231	16.87
627.422	16.81
627.614	16.85
627.805	17.12
627.996	17.07
628.187	17.07
628.378	17
628.569	17.02
628.76	16.9
628.951	16.89
629.142	16.79
629.332	16.62
629.523	16.7
629.714	16.91
629.905	16.92
630.096	16.98
630.287	16.91
630.478	16.89
630.669	16.9
630.859	17.14
631.05	17.08
631.241	17.15
631.432	17.29
631.623	17.36
631.813	17.1
632.004	16.9
632.195	16.95
632.385	17.03
632.576	16.96
632.767	16.95
632.957	16.92
633.148	16.97
633.339	16.89
633.529	16.9
633.72	16.91
633.91	16.84
634.101	17.02
634.292	16.96
634.482	16.84
634.673	17.02
634.863	17.2
635.054	17.08
635.244	17.06
635.435	17.11
635.625	17.15
635.815	17.23
636.006	17.35
636.196	17.25
636.387	17.36
636.577	17.31
636.767	17.38
636.958	17.47
637.148	17.52
637.338	17.48
637.529	17.43
637.719	17.56
637.909	17.48
638.099	17.54
638.29	17.52
638.48	17.39
638.67	17.55
638.86	17.63
639.05	17.46
639.241	17.4
639.431	17.5
639.621	17.49
639.811	17.36
640.001	17.36
640.191	17.28
640.381	17.29
640.571	17.42
640.761	17.43
640.951	17.36
641.141	17.21
641.331	17.31
641.521	17.22
641.711	17.08
641.901	17.03
642.091	16.79
642.281	16.78
642.471	16.64
642.661	16.49
642.851	16.52
643.041	16.3
643.231	16.47
643.42	16.49
643.61	16.74
643.8	16.96
643.99	17.09
644.18	17.39
644.369	17.5
644.559	17.7
644.749	17.74
644.939	17.77
645.128	17.86
645.318	17.71
645.508	17.63
645.697	17.6
645.887	17.51
646.076	17.48
646.266	17.44
646.456	17.29
646.645	16.99
646.835	16.91
647.024	16.73
647.214	16.65
647.403	16.71
647.593	16.54
647.782	16.39
647.972	16.53
648.161	16.6
648.351	16.64
648.54	16.74
648.73	17.09
648.919	16.88
649.108	16.89
649.298	17.17
649.487	17.26
649.677	17.43
649.866	17.45
650.055	17.1
650.244	17.11
650.434	16.86
650.623	16.85
650.812	16.68
651.002	16.98
651.191	17.13
651.38	17.07
651.569	17.06
651.758	17.17
651.947	17.24
652.137	17.21
652.326	17.11
652.515	17.31
652.704	17.42
652.893	17.53
653.082	17.51
653.271	17.46
653.46	17.27
653.649	17.39
653.838	17.14
654.027	17.11
654.216	17.47
654.405	17.35
654.594	17.34
654.783	17.1
654.972	16.73
655.161	16.84
655.35	16.76
655.539	16.86
655.728	16.74
655.916	16.99
656.105	17.15
656.294	17.09
656.483	17.25
656.672	17.31
656.86	17.54
657.049	17.84
657.238	17.69
657.427	17.85
657.615	17.9
657.804	17.98
657.993	17.83
658.181	17.71
658.37	17.83
658.559	17.75
658.747	17.92
658.936	17.96
659.125	18.28
659.313	18.46
659.502	18.3
659.69	18.23
659.879	18.13
660.067	18.26
660.256	18.21
660.444	18.04
660.633	18.12
660.821	17.93
661.01	17.92
661.198	17.52
661.387	17.54
661.575	17.83
661.763	17.85
661.952	17.8
662.14	17.78
662.328	17.86
662.517	17.89
662.705	17.77
662.893	17.72
663.082	17.3
663.27	17.41
663.458	17.16
663.646	17.12
663.834	17.33
664.023	17.41
664.211	17.39
664.399	17.42
664.587	17.47
664.775	17.53
664.963	17.37
665.152	17.52
665.34	17.38
665.528	17.52
665.716	17.27
665.904	17.02
666.092	17.05
666.28	16.97
666.468	16.93
666.656	16.81
666.844	17.01
667.032	17.04
667.22	17.02
667.408	17.08
667.596	17.08
667.784	17.33
667.971	17.31
668.159	17.42
668.347	17.38
668.535	17.55
668.723	17.72
668.911	17.63
669.098	17.61
669.286	17.65
669.474	17.5
669.662	17.66
669.849	17.57
670.037	17.85
670.225	17.77
670.413	18.04
670.6	17.72
670.788	17.67
670.976	17.7
671.163	17.76
671.351	18.05
671.538	18.15
671.726	18.05
671.913	17.89
672.101	17.85
672.289	17.69
672.476	17.8
672.664	17.81
672.851	18.08
673.039	17.88
673.226	18.15
673.413	17.86
673.601	17.66
673.788	17.68
673.976	17.76
674.163	17.73
674.35	18.11
674.538	18.17
674.725	18.25
674.912	17.75
675.1	17.95
675.287	17.93
675.474	18.22
675.662	18.64
675.849	18.55
676.036	18.43
676.223	18.28
676.411	18.28
676.598	18.13
676.785	18.02
676.972	18.24
677.159	18.26
677.346	18.27
677.533	18.09
677.721	18.09
677.908	18.13
678.095	18.28
678.282	18.36
678.469	18.42
678.656	18.21
678.843	18.39
679.03	18.56
679.217	18.54
679.404	18.71
679.591	18.72
679.778	18.59
679.964	18.55
680.151	18.5
680.338	18.44
680.525	18.11
680.712	18.31
680.899	18.53
681.086	18.31
681.272	18.31
681.459	18.05
681.646	18.09
681.833	18.13
682.02	18.02
682.206	18.01
682.393	18.33
682.58	18.44
682.766	18.43
682.953	18.36
683.14	18.59
683.326	18.6
683.513	18.64
683.7	18.79
683.886	18.91
684.073	19.06
684.259	19.15
684.446	18.77
684.632	19.07
684.819	18.88
685.005	18.67
685.192	18.5
685.378	18.61
685.565	18.5
685.751	18.13
685.938	17.86
686.124	18.02
686.31	18.37
686.497	18.29
686.683	18.23
686.87	18.48
687.056	18.52
687.242	18.65
687.429	18.38
687.615	18.51
687.801	18.3
687.987	18.37
688.174	18.36
688.36	18.27
688.546	18.46
688.732	18.29
688.918	18.04
689.105	17.89
689.291	17.75
689.477	17.95
689.663	18
689.849	18.55
690.035	18.86
690.221	18.85
690.407	18.82
690.593	19.03
690.779	18.86
690.965	18.94
691.151	19.01
691.337	19.39
691.523	19.4
691.709	19.19
691.895	19.02
692.081	18.98
692.267	18.92
692.453	18.42
692.639	18.41
692.825	18.5
693.011	18.83
693.196	18.93
693.382	18.4
693.568	18.3
693.754	18.4
693.94	18.57
694.125	18.39
694.311	18.41
694.497	18.54
694.682	18.64
694.868	18.75
695.054	19.15
695.239	19.35
695.425	19.47
695.611	19.64
695.796	20.01
695.982	19.96
696.168	19.99
696.353	20
696.539	20.07
696.724	19.83
696.91	19.71
697.095	19.21
697.281	19.21
697.466	19.3
697.652	19.22
697.837	19.04
698.023	19.12
698.208	19.33
698.393	19.23
698.579	19.01
698.764	19.03
698.949	19.1
699.135	19.22
699.32	19.22
699.505	19.19
699.691	19.29
699.876	19.1
700.061	18.88
700.246	18.41
700.432	18.67
700.617	19.11
700.802	19.32
700.987	19.18
701.172	18.86
701.358	18.62
701.543	18.95
701.728	18.93
701.913	19.34
702.098	19.33
702.283	19.55
702.468	19.18
702.653	19.19
702.838	19.03
703.023	19.42
703.208	19.52
703.393	19.49
703.578	19.19
703.763	18.7
703.948	18.86
704.133	18.95
704.318	18.87
704.503	19.15
704.688	18.83
704.873	19.32
705.057	19.01
705.242	19.18
705.427	19.22
705.612	19.48
705.797	19.86
705.981	19.54
706.166	19.65
706.351	19.63
706.536	19.63
706.72	19.55
706.905	18.85
707.09	19.21
707.274	19.41
707.459	19.44
707.644	18.78
707.828	18.53
708.013	18.31
708.197	18.43
708.382	18.53
708.567	18.55
708.751	18.9
708.936	19.14
709.12	18.91
709.305	18.57
709.489	18.47
709.673	18.88
709.858	18.99
710.042	19.03
710.227	18.69
710.411	18.85
710.596	18.8
710.78	18.93
710.964	18.52
711.149	18.27
711.333	18.35
711.517	18.56
711.702	18.51
711.886	18.55
712.07	18.58
712.254	18.52
712.438	18.36
712.623	18.25
712.807	18.1
712.991	18.39
713.175	18.73
713.359	18.77
713.544	18.57
713.728	18.98
713.912	19.06
714.096	19
714.28	19.07
714.464	19.1
714.648	19.15
714.832	19.19
715.016	19.32
715.2	19.19
715.384	19.4
715.568	19.49
715.752	19.16
715.936	19.18
716.12	19.33
716.304	19.34
716.488	19.06
716.671	19.1
716.855	18.7
717.039	18.46
717.223	18.35
717.407	17.8
717.59	17.47
717.774	17.28
717.958	17.28
718.142	17.19
718.325	17.26
718.509	17.38
718.693	17.65
718.877	17.86
719.06	17.95
719.244	18.28
719.428	18.23
719.611	18.8
719.795	18.63
719.978	18.64
720.162	18.65
720.345	18.7
720.529	19.09
720.713	18.86
720.896	19.08
721.08	18.79
721.263	18.78
721.446	19.35
721.63	19.25
721.813	19.23
721.997	19.43
722.18	19.74
722.364	19.49
722.547	19.39
722.73	19.64
722.914	19.39
723.097	20.06
723.28	19.75
723.464	19.46
723.647	19.6
723.83	19.56
724.013	18.92
724.197	18.77
724.38	19.2
724.563	19.25
724.746	19.1
724.929	19.2
725.112	18.98
725.296	18.54
725.479	18.39
725.662	18.4
725.845	18.66
726.028	19.34
726.211	19.32
726.394	19.38
726.577	19.16
726.76	19.28
726.943	19.59
727.126	19.35
727.309	20.17
727.492	20.6
727.675	20.28
727.858	20.09
728.041	19.89
728.224	19.79
728.407	19.36
728.589	19.36
728.772	18.94
728.955	18.75
729.138	18.89
729.321	17.89
729.503	18.41
729.686	18.79
729.869	19.07
730.052	19.04
730.234	19.12
730.417	19.42
730.6	19.54
730.782	19.74
730.965	19.59
731.148	19.62
731.33	20.49
731.513	20.41
731.695	19.93
731.878	19.85
732.061	19.68
732.243	19.45
732.426	19.08
732.608	19.23
732.791	19.31
732.973	19.57
733.156	19.74
733.338	19.69
733.52	19.17
733.703	18.98
733.885	19.05
734.068	19.01
734.25	19.34
734.432	19.7
734.615	19.59
734.797	19.41
734.979	19.19
735.162	19.26
735.344	18.98
735.526	18.92
735.708	19.35
735.891	19.44
736.073	19.33
736.255	19.02
736.437	19.31
736.619	19.5
736.802	19.59
736.984	19.56
737.166	19.02
737.348	19.26
737.53	19.15
737.712	19.47
737.894	19.15
738.076	18.92
738.258	19.12
738.44	18.65
738.622	18.87
738.804	19.53
738.986	19.65
739.168	20.12
739.35	19.64
739.532	19.55
739.714	18.95
739.896	19.45
740.078	19.87
740.259	19.87
740.441	19.27
740.623	18.9
740.805	18.16
740.987	17.99
741.168	17.51
741.35	17.63
741.532	17.5
741.714	17.83
741.895	18.2
742.077	18.49
742.259	18.4
742.44	19.77
742.622	19.69
742.804	19.42
742.985	19.03
743.167	19.13
743.348	19.65
743.53	19.88
743.711	20.24
743.893	20.04
744.075	20.3
744.256	20.33
744.438	19.97
744.619	19.96
744.8	20.3
744.982	21.17
745.163	20.71
745.345	20.43
745.526	20.5
745.707	20
745.889	19.74
746.07	19.43
746.252	19.31
746.433	19.61
746.614	19.51
746.795	18.98
746.977	18.75
747.158	19.66
747.339	19.66
747.52	19.73
747.702	20.55
747.883	19.84
748.064	20.42
748.245	20.69
748.426	19.8
748.607	20.04
748.788	20.89
748.97	20.59
749.151	19.97
749.332	20.32
749.513	20.04
749.694	19.83
749.875	19.78
750.056	19.31
750.237	19.09
750.418	19.41
750.599	19.79
750.78	19.36
750.96	19.46
751.141	19.85
751.322	19.71
751.503	19.94
751.684	20.07
751.865	20.58
752.046	20.53
752.226	20.09
752.407	20.71
752.588	20.55
752.769	21.34
752.949	21.72
753.13	22.39
753.311	22.92
753.492	23.02
753.672	22.37
753.853	21.75
754.034	21.44
754.214	21.24
754.395	20.34
754.575	19.83
754.756	19.28
754.937	19.35
755.117	18.68
755.298	18.13
755.478	17.56
755.659	17.79
755.839	18.61
756.02	18.63
756.2	19.58
756.381	19.49
756.561	19.17
756.741	19.24
756.922	19.23
757.102	18.99
757.283	19.07
757.463	19.05
757.643	19.57
757.823	18.97
758.004	19.41
758.184	18.54
758.364	19.26
758.545	19.65
758.725	19.43
758.905	18.68
759.085	18.95
759.265	19.05
759.446	19.71
759.626	19.06
759.806	18.45
759.986	18.18
760.166	19.62
760.346	19.74
760.526	20.13
760.706	20.34
760.886	20.38
761.066	20.86
761.246	20.51
761.426	20.81
761.606	21.1
761.786	21.58
761.966	21.31
762.146	20.64
762.326	20.96
762.506	20.62
762.686	20.4
762.866	20.61
763.046	20.18
763.225	20.2
763.405	19.96
763.585	19.87
763.765	20.35
763.945	20.48
764.124	20.72
764.304	20.43
764.484	20.75
764.664	21.04
764.843	21.26
765.023	21.09
765.203	21.15
765.382	21.03
765.562	21.02
765.741	20.31
765.921	20.79
766.101	20.06
766.28	19.78
766.46	19.5
766.639	19.41
766.819	19.47
766.998	19.85
767.178	20.01
767.357	20.3
767.537	20.23
767.716	20.65
767.896	19.71
768.075	20.38
768.254	20.54
768.434	20.93
768.613	20.8
768.792	19.98
768.972	19.62
769.151	19.58
769.33	19.41
769.51	19.88
769.689	19.31
769.868	18.82
770.047	19.39
770.226	20.13
770.406	19.09
770.585	18.67
770.764	19.2
770.943	18.65
771.122	18.26
771.301	18.59
771.48	18.21
771.66	18.61
771.839	19.6
772.018	19.22
772.197	18.54
772.376	19.16
772.555	20.63
772.734	20.62
772.913	21.39
773.092	22.24
773.271	21.27
773.449	21.26
773.628	21.27
773.807	21.65
773.986	21.49
774.165	21.46
774.344	21.3
774.523	19.84
774.701	19.74
774.88	20.51
775.059	18.94
775.238	18.87
775.417	18.5
775.595	18.55
775.774	18.52
775.953	18.31
776.131	18.17
776.31	18.14
776.489	18.1
776.667	17.88
776.846	17.24
777.025	17.45
777.203	18.12
777.382	18.59
777.56	19.31
777.739	19.29
777.917	18.11
778.096	18.26
778.274	18.7
778.453	18.74
778.631	19.26
778.81	19.01
778.988	19.62
779.166	19.43
779.345	18.95
779.523	18.68
779.702	18.11
779.88	19.97
780.058	19.31
780.237	19.12
780.415	18.63
780.593	18.99
780.771	19.33
780.95	19.98
781.128	19.78
781.306	19.84
781.484	20.02
781.662	20.14
781.841	18.87
782.019	19.24
782.197	19
782.375	20.58
782.553	19.92
782.731	20.03
782.909	19.54
783.087	19.64
783.265	19.43
783.443	19.82
783.621	19.44
783.799	19.07
783.977	19.54
784.155	20.09
784.333	19.9
784.511	20.21
784.689	19.95
784.867	20.52
785.045	20.96
785.223	22.09
785.4	20.83
785.578	21.14
785.756	22.6
785.934	21.63
786.112	20.78
786.289	19.87
786.467	20.16
786.645	19.83
786.823	19.13
787	19.21
787.178	18.29
787.356	18.6
787.533	18.94
787.711	17.76
787.889	17.86
788.066	18.57
788.244	19.13
788.421	18.87
788.599	19.47
788.776	19.8
788.954	20.12
789.131	20.47
789.309	20.47
789.486	21.08
789.664	22.27
789.841	22.25
790.019	22.21
790.196	21.93
790.373	21.98
790.551	21.89
790.728	21.83
790.906	21.16
791.083	21.13
791.26	21.57
791.437	20.71
791.615	19.72
791.792	20.64
791.969	20.31
792.146	20.24
792.324	19.44
792.501	18.61
792.678	18
792.855	18.06
793.032	18.07
793.209	18.61
793.387	18.43
793.564	18.64
793.741	18.36
793.918	18.01
794.095	17.81
794.272	18.35
794.449	18.89
794.626	18.86
794.803	18.95
794.98	18.9
795.157	17.81
795.334	18.04
795.511	18.34
795.688	18.12
795.864	19.21
796.041	19.81
796.218	20.27
796.395	20.22
796.572	20.25
796.749	19.68
796.925	19.88
797.102	19.17
797.279	19.68
797.456	20.18
797.632	20.74
797.809	20.53
797.986	20.23
798.162	19.74
798.339	19.83
798.516	19.95
798.692	19.78
798.869	19.02
799.046	19.05
799.222	17.4
799.399	18.25
799.575	17.37
799.752	18.48
799.928	18.22
800.105	18.09
800.281	18.13
800.458	18.38
800.634	19.46
800.811	19.98
800.987	21.07
801.163	21.49
801.34	20.09
801.516	20.86
801.692	18.61
801.869	18.99
802.045	19.22
802.221	19.44
802.398	19.41
802.574	19.55
802.75	19.13
802.926	19.27
803.103	19.37
803.279	19.84
803.455	19.49
803.631	20.6
803.807	20.2
803.983	21.31
804.16	20.51
804.336	20.43
804.512	19.29
804.688	20.15
804.864	18.84
805.04	18.34
805.216	18.27
805.392	18.96
805.568	18.85
805.744	18.1
805.92	16.66
806.096	17.9
806.272	17.91
806.448	17.98
806.623	17.87
806.799	19.94
806.975	21.69
807.151	22.35
807.327	21.28
807.503	20.28
807.678	21.4
807.854	22.53
808.03	22.01
808.206	21.93
808.381	22.73
808.557	22.28
808.733	21.65
808.908	21.26
809.084	19.18
809.26	20.43
809.435	20.8
809.611	20.47
809.787	19.21
809.962	19.24
810.138	19.48
810.313	18.48
810.489	18.8
810.664	18.88
810.84	18.41
811.015	20.3
811.191	20.76
811.366	21.46
811.542	22.09
811.717	22.15
811.892	22.62
812.068	22.82
812.243	23.89
812.419	25.18
812.594	24.42
812.769	23.45
812.944	22.79
813.12	21.69
813.295	21.97
813.47	23.08
813.645	23.13
813.821	21.77
813.996	20.26
814.171	18.64
814.346	17.29
814.521	17.73
814.697	19.22
814.872	19.08
815.047	18.09
815.222	17.01
815.397	14.67
815.572	16.07
815.747	16.58
815.922	17.83
816.097	18.59
816.272	18.13
816.447	17.67
816.622	17.66
816.797	18.4
816.972	20.45
817.147	21.88
817.322	22.01
817.496	21.48
817.671	21.52
817.846	20.84
818.021	21.54
818.196	21.75
818.371	22.63
818.545	22.06
818.72	20.84
818.895	18.87
819.069	17.64
819.244	18.79
819.419	19.27
819.594	19.44
819.768	20.05
819.943	20.31
820.117	20.02
820.292	19.9
820.467	20.56
820.641	20.73
820.816	21.31
820.99	21.5
821.165	21.35
821.339	21.06
821.514	20.82
821.688	20.83
821.863	20.72
822.037	20.86
822.212	20.88
822.386	20.67
822.56	20.99
822.735	20.98
822.909	20.94
823.084	20.95
823.258	20.97
823.432	21.17
823.606	21.29
823.781	21.18
823.955	21.19
824.129	21.13
824.303	21.34
824.478	20.93
824.652	21.03
824.826	21.33
825	21.15
825.174	21.14
825.348	21.06
825.523	20.79
825.697	20.83
825.871	21.24
826.045	21.19
826.219	21.43
826.393	22.13
826.567	21.77
826.741	21.35
826.915	21.38
827.089	21.14
827.263	21.49
827.437	22.07
827.611	22.64
827.784	22.38
827.958	22.64
828.132	22.25
828.306	21.11
828.48	21.11
828.654	21.44
828.827	21.79
829.001	21.92
829.175	21.5
829.349	20.96
829.522	20.66
829.696	20.94
829.87	21.11
830.044	20.98
830.217	22.01
830.391	22.94
830.565	22.51
830.738	22.1
830.912	23.14
831.085	23.34
831.259	23.66
831.432	23.31
831.606	22.56
831.779	22.54
831.953	22.61
832.126	22.44
832.3	22.06
832.473	22.32
832.647	22.26
832.82	21.21
832.994	21.07
833.167	20.23
833.34	19.84
833.514	19.8
833.687	19.35
833.86	19.14
834.034	19
834.207	18.43
834.38	18.16
834.553	17.86
834.727	18.31
834.9	18.94
835.073	18.36
835.246	18.39
835.419	19.29
835.593	19.44
835.766	19.58
835.939	19.23
836.112	19.52
836.285	18.94
836.458	18.98
836.631	19.01
836.804	18.51
836.977	19.52
837.15	19.27
837.323	17.65
837.496	19.12
837.669	20.57
837.842	20.77
838.015	20.32
838.188	20.66
838.361	21.55
838.533	20.88
838.706	20.35
838.879	20.79
839.052	19.92
839.225	19.08
839.398	17.67
839.57	15.95
839.743	16.24
839.916	17.14
840.088	18.06
840.261	17.27
840.434	18.06
840.607	17.83
840.779	17.58
840.952	18.98
841.124	20.03
841.297	19.33
841.47	18.53
841.642	18.89
841.815	17.53
841.987	17.37
842.16	17.02
842.332	15.97
842.505	15.59
842.677	16.58
842.85	16.49
843.022	15.79
843.194	17.61
843.367	18.33
843.539	18.38
843.712	21.02
843.884	22.16
844.056	24.24
844.229	25.64
844.401	26.27
844.573	27
844.745	24.07
844.918	23.74
845.09	23.71
845.262	22.91
845.434	23.28
845.606	19.24
845.779	15.48
845.951	14.8
846.123	11.59
846.295	13.44
846.467	11.35
846.639	15.25
846.811	16.7
846.983	19.45
847.155	19.54
847.327	17.78
847.499	18.55
847.671	19.91
847.843	19.9
848.015	22.21
848.187	21.68
848.359	20.58
848.531	25.98
848.703	23.35
848.875	17.98
849.047	19.17
849.218	21.43
849.39	24.08
849.562	25.24
849.734	22.37
849.905	23.9
850.077	23.83
850.249	24.16
850.421	19.29
850.592	21.56
850.764	23.26
850.936	22.27
851.107	20.59
851.279	21.68
851.451	21.55
851.622	23.64
851.794	23.11
851.965	20.98
852.137	22.04
852.308	21.53
852.48	25.91
852.651	21.62
852.823	22.7
852.994	21.91
853.166	17.41
853.337	19.52
853.509	17.16
853.68	14.82
853.851	17.72
854.023	20.3
854.194	16.65
854.365	12.67
854.537	15.7
854.708	16.07
854.879	17.67
855.05	19.46
855.222	16.31
855.393	14.79
855.564	14.27
855.735	6.96
855.906	4.68
856.078	6.8
856.249	7.49
856.42	4.87
856.591	4.53
856.762	5.71
856.933	8.24
857.104	5.81
857.275	10.93
857.446	13.02
857.617	20.14
857.788	21.79
857.959	22.36
858.13	22.58
858.301	23.08
858.472	21.07
858.643	21.38
858.814	17.71
858.985	21.5
859.155	19.57
859.326	17.94
859.497	17.1
859.668	13.87
859.839	18.39
860.009	18.22
860.18	21
860.351	22.8
860.522	19.07
860.692	18.68
860.863	17.4
861.034	16.58
861.204	15.14
861.375	12.36
861.546	16.06
861.716	11.26
861.887	8.57
862.057	7.05
862.228	6.99
862.398	5.47
862.569	9.96
862.739	12.88
862.91	13.65
863.08	21.62
863.251	23.65
863.421	21.4
863.592	24.71
863.762	27.28
863.932	30.21
864.103	31.1
864.273	33.69
864.443	34.19
864.614	34.62
864.784	32.23
864.954	24.68
865.125	26.22
865.295	25.44
865.465	22.11
865.635	18.12
865.805	15.27
865.976	15.25
866.146	16.58
866.316	14.57
866.486	13.35
866.656	17.55
866.826	17.72
866.996	10.83
867.166	14.31
867.336	15.33
867.506	15.73
867.676	16.59
867.846	18.05
868.016	16.42
868.186	14.48
868.356	13.15
868.526	14.59
868.696	18.47
868.866	23.19
869.036	23.43
869.206	25.15
869.376	25.16
869.545	21.91
869.715	20.32
869.885	22.86
870.055	27.29
870.224	29.43
870.394	27.48
870.564	25.04
870.734	24.8
870.903	26.75
871.073	24.85
871.243	24.46
871.412	30.77
871.582	30.96
871.751	29.16
871.921	25.96
872.091	20.89
872.26	23.72
872.43	20.85
872.599	17.51
872.769	12.48
872.938	13.84
873.108	14.75
873.277	11.05
873.446	11.51
873.616	12.97
873.785	9.4
873.955	9.55
874.124	8.83
874.293	7.78
874.463	11.07
874.632	12.34
874.801	12.62
874.971	13.19
875.14	15.54
875.309	13.99
875.478	15.53
875.647	20.22
875.817	19.83
875.986	19.39
876.155	24.07
876.324	14.54
876.493	14.28
876.662	11.06
876.831	12.86
877	10.55
877.17	11.27
877.339	8.67
877.508	7.2
877.677	6.26
877.846	8.88
878.015	6.55
878.184	11.09
878.352	11.25
878.521	13.71
878.69	11.17
878.859	13.24
879.028	13.44
879.197	17.96
879.366	20.59
879.534	23.45
879.703	21.04
879.872	22
880.041	20.63
880.21	22.11
880.378	21.36
880.547	22.63
880.716	23.61
880.884	22.75
881.053	20.9
881.222	19.85
881.39	19.76
881.559	21.6
881.727	22.43
881.896	23.52
882.065	22.54
882.233	22.8
882.402	22.8
882.57	21.73
882.739	21.68
882.907	22.08
883.076	23.18
883.244	22.82
883.412	21.64
883.581	20.77
883.749	20.83
883.918	21.69
884.086	21.51
884.254	22.44
884.423	22.14
884.591	21.64
884.759	21.62
884.927	20.98
885.096	22.55
885.264	22.45
885.432	22.99
885.6	23.11
885.769	22.74
885.937	21.84
886.105	18.68
886.273	19.82
886.441	21.6
886.609	20.63
886.777	19.18
886.945	15.76
887.113	14.8
887.281	15.41
887.449	13.34
887.617	12.44
887.785	14.45
887.953	14.5
888.121	13.56
888.289	12.52
888.457	11.77
888.625	10.72
888.793	14.73
888.961	16.66
889.129	15.13
889.296	13.42
889.464	11.98
889.632	10.16
889.8	11.23
889.967	11.82
890.135	14.63
