Data from 2938441_Reflection_2.txt Node
Date: Fri Jun 19 18:21:54 EDT 2015
User: robert
Spectrometer: USB4E03002
Autoset integration time: false
Trigger mode: 4
Integration Time (sec): 1.000000E-1
Scans to average: 10
Electric dark correction enabled: true
Nonlinearity correction enabled: false
Boxcar width: 5
Stray light correction enabled: false
XAxis mode: Wavelengths
Stop averaging: false
Number of Pixels in Spectrum: 3648
>>>>>Begin Spectral Data<<<<<
177.575	140.01
177.794	112.65
178.014	45
178.233	29.71
178.452	18.87
178.672	28.89
178.891	-93.64
179.11	112.54
179.33	104.88
179.549	90.8
179.768	106.83
179.987	127.78
180.207	143.35
180.426	94.92
180.645	84.24
180.864	68.87
181.084	74.95
181.303	84.32
181.522	90.11
181.741	82.41
181.96	70.35
182.179	55.45
182.398	54.45
182.618	50.06
182.837	44.2
183.056	53.16
183.275	57.08
183.494	49.04
183.713	39.45
183.932	18.62
184.151	22.38
184.37	34.71
184.589	47.38
184.808	47.57
185.027	28.07
185.246	32.95
185.465	22.21
185.684	20.7
185.903	25.91
186.122	33.04
186.341	45.84
186.56	52.99
186.779	29.56
186.998	24.92
187.216	17.47
187.435	30.78
187.654	53.19
187.873	46.86
188.092	46.29
188.311	47.63
188.53	53.8
188.748	60.44
188.967	57.59
189.186	82.22
189.405	74.99
189.623	96.57
189.842	102.66
190.061	85.37
190.28	91.62
190.498	113.58
190.717	188.17
190.936	160.2
191.154	174.62
191.373	150.02
191.592	159.25
191.81	166.66
192.029	143.01
192.248	176.53
192.466	211.01
192.685	219.46
192.904	172.21
193.122	126.88
193.341	163.96
193.559	136.02
193.778	226.11
193.996	246.66
194.215	239.33
194.433	186.09
194.652	117.88
194.87	119.68
195.089	121.43
195.307	108.88
195.526	76.02
195.744	58.51
195.963	56.97
196.181	44.9
196.399	35.37
196.618	40.59
196.836	59.06
197.055	83.16
197.273	93.97
197.491	93.7
197.71	101.54
197.928	113.37
198.146	100.36
198.365	91.5
198.583	92.76
198.801	78.84
199.019	97.66
199.238	78.44
199.456	52.58
199.674	45.66
199.892	34.15
200.111	27.14
200.329	26.34
200.547	27.04
200.765	19.68
200.983	23.44
201.202	48.51
201.42	34.55
201.638	33
201.856	44.77
202.074	36.3
202.292	35.56
202.51	43.15
202.728	48.7
202.946	59.01
203.165	42.64
203.383	33.88
203.601	23.25
203.819	36.71
204.037	30.98
204.255	15.7
204.473	19.95
204.691	12.71
204.909	14.17
205.127	22.26
205.345	23.48
205.562	30.46
205.78	29.2
205.998	22.63
206.216	23.67
206.434	30.93
206.652	38.59
206.87	51.7
207.088	55.32
207.306	67.44
207.523	61.32
207.741	38.14
207.959	32.19
208.177	29.17
208.395	40.33
208.612	35.29
208.83	41.02
209.048	33.96
209.266	16.5
209.483	19.51
209.701	11.31
209.919	17.27
210.136	25.69
210.354	33.2
210.572	42.49
210.79	42.02
211.007	31.9
211.225	20.49
211.442	20.23
211.66	32.68
211.878	35.63
212.095	34.08
212.313	28.23
212.53	31.48
212.748	24.27
212.966	19.11
213.183	23.24
213.401	30.86
213.618	37.6
213.836	51.55
214.053	47.97
214.271	58.81
214.488	47.65
214.705	49.69
214.923	60.19
215.14	60.88
215.358	49.75
215.575	56.91
215.793	59.4
216.01	64.34
216.227	47.87
216.445	52.32
216.662	44.08
216.879	57.39
217.097	51.48
217.314	42.09
217.531	39.18
217.749	43.16
217.966	31.99
218.183	26.69
218.4	28.44
218.618	28.23
218.835	28.6
219.052	21.25
219.269	11.69
219.487	9.94
219.704	12.93
219.921	20.49
220.138	22.99
220.355	31.93
220.572	30.78
220.79	33.52
221.007	39.74
221.224	35.48
221.441	45.99
221.658	56.01
221.875	54.16
222.092	54.86
222.309	48.67
222.526	46.24
222.743	42.42
222.96	35.23
223.177	28.26
223.394	27.4
223.611	24.87
223.828	23.59
224.045	17.64
224.262	16.2
224.479	18.15
224.696	23.49
224.913	22.4
225.13	20.06
225.347	20.59
225.564	22.9
225.781	23.16
225.997	24.09
226.214	22.47
226.431	23.19
226.648	22.59
226.865	20.68
227.082	17.6
227.298	16.03
227.515	17.66
227.732	19.25
227.949	17.81
228.165	17.13
228.382	16.95
228.599	18.01
228.816	17.41
229.032	16.67
229.249	16.06
229.466	16.36
229.682	17.73
229.899	16.56
230.116	16.46
230.332	17.93
230.549	17.6
230.765	17.96
230.982	12.79
231.199	8.89
231.415	9.95
231.632	9.2
231.848	9.86
232.065	10.13
232.281	6.87
232.498	4.78
232.714	6.22
232.931	7.1
233.147	7.49
233.364	11.23
233.58	14.24
233.797	16.35
234.013	16.89
234.23	15.64
234.446	14.46
234.662	14.5
234.879	17.71
235.095	14.65
235.312	13.85
235.528	10.66
235.744	7.06
235.961	3.52
236.177	1.88
236.393	3.58
236.61	6.85
236.826	9.43
237.042	10.59
237.258	11.61
237.475	12.43
237.691	13.07
237.907	16.65
238.123	20.26
238.339	22.77
238.556	24.16
238.772	24.5
238.988	22.74
239.204	21.58
239.42	20.3
239.636	18.26
239.853	18.69
240.069	18.59
240.285	17.46
240.501	15.75
240.717	14.81
240.933	13.35
241.149	12.91
241.365	13.02
241.581	12.8
241.797	13.54
242.013	14.28
242.229	14.48
242.445	15.13
242.661	15.69
242.877	16.77
243.093	18.01
243.309	18.68
243.525	18.91
243.741	18.96
243.957	18.41
244.173	17.76
244.388	17.06
244.604	16.2
244.82	14.97
245.036	14.63
245.252	14.68
245.468	14.29
245.683	13.43
245.899	12.57
246.115	12.03
246.331	11.71
246.547	12.08
246.762	11.71
246.978	11.75
247.194	11.76
247.409	11.49
247.625	11.21
247.841	10.34
248.057	10.93
248.272	11.43
248.488	12.5
248.703	13.7
248.919	13.16
249.135	13.05
249.35	13.22
249.566	13.55
249.782	14.15
249.997	13.43
250.213	13.84
250.428	14.25
250.644	13.44
250.859	13.4
251.075	12.28
251.29	11.6
251.506	12.65
251.721	12.83
251.937	12.78
252.152	12.68
252.368	12.56
252.583	14.08
252.798	13.19
253.014	13.85
253.229	12.57
253.445	12.84
253.66	13.48
253.875	12.93
254.091	10.53
254.306	11.53
254.521	10.53
254.737	10.47
254.952	9.82
255.167	9.43
255.383	10.32
255.598	9.96
255.813	10.76
256.028	11.44
256.244	10.97
256.459	11.18
256.674	9.61
256.889	10.02
257.104	10.39
257.32	9.47
257.535	9.95
257.75	9.5
257.965	10
258.18	9.66
258.395	9.42
258.61	9.07
258.826	9.03
259.041	9.22
259.256	9.07
259.471	9.09
259.686	9.84
259.901	9.69
260.116	9.91
260.331	9.36
260.546	9.61
260.761	9.76
260.976	10.36
261.191	11.21
261.406	11.78
261.621	11.66
261.836	10.69
262.05	8.94
262.265	9.38
262.48	9.09
262.695	9.79
262.91	11.08
263.125	10
263.34	9.29
263.555	9.18
263.769	8.96
263.984	9.24
264.199	9.38
264.414	10.3
264.629	10.49
264.843	11.5
265.058	11.49
265.273	10.1
265.488	11.08
265.702	11.14
265.917	10.59
266.132	10.94
266.346	10.53
266.561	11.53
266.776	10.92
266.99	10.45
267.205	9.75
267.42	9.74
267.634	9.84
267.849	8.79
268.063	9.44
268.278	9.61
268.492	8.78
268.707	9.15
268.922	9.12
269.136	9.87
269.351	10.05
269.565	9.97
269.78	9.3
269.994	9.57
270.209	9.86
270.423	9.47
270.637	10.02
270.852	10.78
271.066	11.3
271.281	11.29
271.495	11.01
271.709	11.02
271.924	11.02
272.138	11.06
272.353	10.6
272.567	11.33
272.781	11.75
272.996	11.17
273.21	10.49
273.424	9.42
273.638	9.93
273.853	10.99
274.067	11.53
274.281	11.15
274.495	11.62
274.71	11.76
274.924	11.86
275.138	11.14
275.352	11.63
275.566	12.01
275.781	13.15
275.995	12.5
276.209	12.18
276.423	11.88
276.637	11.53
276.851	10.97
277.065	10.94
277.279	10.81
277.493	10.69
277.707	10.88
277.921	11.17
278.135	10.93
278.349	10.95
278.563	10.24
278.777	10.14
278.991	11.29
279.205	11.93
279.419	12.04
279.633	11.53
279.847	11.43
280.061	10.9
280.275	10.76
280.489	10.94
280.703	10.46
280.917	10.22
281.131	10.03
281.344	9.83
281.558	9.19
281.772	9.29
281.986	9.65
282.2	10.48
282.414	10.16
282.627	9.86
282.841	9.21
283.055	9.15
283.269	9.38
283.482	8.87
283.696	8.99
283.91	9.46
284.123	9.79
284.337	9.36
284.551	8.69
284.764	9.15
284.978	9.14
285.192	9.26
285.405	9.33
285.619	9.19
285.833	9.82
286.046	9.27
286.26	9.44
286.473	9.37
286.687	9.53
286.9	10.2
287.114	11.04
287.327	11.55
287.541	11.54
287.754	11.7
287.968	11.94
288.181	12.3
288.395	12.53
288.608	12.38
288.822	12.52
289.035	12.69
289.248	12.48
289.462	12.01
289.675	11.96
289.889	12.54
290.102	12.65
290.315	12.45
290.529	11.99
290.742	12.29
290.955	12.27
291.169	11.81
291.382	11.91
291.595	12.2
291.808	11.16
292.022	11.21
292.235	10.52
292.448	10.88
292.661	11.61
292.875	11.07
293.088	10.74
293.301	12
293.514	12.41
293.727	12.14
293.94	12
294.153	12.61
294.367	12.68
294.58	12.62
294.793	12.18
295.006	11.96
295.219	12.46
295.432	12.6
295.645	11.49
295.858	11.28
296.071	11.18
296.284	11.36
296.497	10.47
296.71	10.34
296.923	10.86
297.136	11.59
297.349	11.37
297.562	11.76
297.775	11.53
297.988	11.97
298.201	11.72
298.414	11.71
298.626	10.81
298.839	11.52
299.052	11.89
299.265	10.93
299.478	9.5
299.691	10.46
299.903	10.13
300.116	10.66
300.329	10.47
300.542	11.44
300.755	11.51
300.967	12.35
301.18	12.58
301.393	12.42
301.605	13.44
301.818	13.51
302.031	12.75
302.243	12.73
302.456	12.87
302.669	13.65
302.881	13.15
303.094	13.46
303.307	13.8
303.519	13.88
303.732	13.74
303.944	13.44
304.157	14.34
304.37	14.78
304.582	14.91
304.795	14.03
305.007	13.26
305.22	13.32
305.432	12.35
305.645	12.25
305.857	12.52
306.069	12.41
306.282	12
306.494	12.18
306.707	11.29
306.919	10.86
307.132	12.08
307.344	12.78
307.556	12.79
307.769	13.19
307.981	12.96
308.193	12.75
308.406	13.16
308.618	13.22
308.83	12.67
309.043	13.58
309.255	13.93
309.467	13.2
309.679	12.65
309.892	12.48
310.104	12.97
310.316	13.3
310.528	13.77
310.74	13.69
310.953	13.69
311.165	13.89
311.377	13.36
311.589	13.48
311.801	13.7
312.013	13.69
312.225	13.62
312.437	13.58
312.649	12.78
312.862	12.24
313.074	12.22
313.286	12.71
313.498	12.92
313.71	12.74
313.922	12.11
314.134	11.52
314.346	11.99
314.558	12.35
314.77	11.8
314.982	13.03
315.193	13.52
315.405	13.13
315.617	12.68
315.829	12.55
316.041	13.09
316.253	13.39
316.465	15.04
316.677	15.74
316.888	15.77
317.1	16.34
317.312	15.41
317.524	14.86
317.736	14.84
317.947	15.29
318.159	15.46
318.371	16.04
318.583	16.31
318.794	15.59
319.006	14.02
319.218	14.21
319.43	14.77
319.641	14.81
319.853	15.2
320.064	15.26
320.276	15.24
320.488	14.8
320.699	13.6
320.911	13.19
321.123	13.02
321.334	13.75
321.546	14.22
321.757	13.49
321.969	13.38
322.18	12.88
322.392	13.13
322.603	13.42
322.815	13.89
323.026	14.84
323.238	14.31
323.449	14.3
323.661	14
323.872	12.9
324.083	12.88
324.295	13.07
324.506	13.6
324.718	13.58
324.929	13.43
325.14	14.14
325.352	14.37
325.563	15.02
325.774	14.93
325.986	15.29
326.197	15.89
326.408	16.96
326.62	16.56
326.831	16.67
327.042	16.77
327.253	17.09
327.464	15.93
327.676	14.93
327.887	15.28
328.098	15.69
328.309	15.44
328.52	14.6
328.732	14.73
328.943	14.95
329.154	14.71
329.365	14.18
329.576	13.73
329.787	14.09
329.998	14.49
330.209	14.06
330.42	13.44
330.631	13.65
330.842	14.43
331.053	13.75
331.264	14.8
331.475	14.79
331.686	15.13
331.897	15.67
332.108	15.25
332.319	15.08
332.53	15.23
332.741	15.37
332.952	15.02
333.163	13.93
333.374	13.06
333.585	12.14
333.795	12.28
334.006	12.39
334.217	11.99
334.428	12.24
334.639	12.3
334.849	12.49
335.06	12.5
335.271	13.08
335.482	13.86
335.692	14.26
335.903	14.22
336.114	14.1
336.325	13.69
336.535	13.75
336.746	13.73
336.957	13.68
337.167	13.73
337.378	13.75
337.589	13.3
337.799	13.58
338.01	13.86
338.22	13.83
338.431	13.82
338.642	13.88
338.852	13.53
339.063	13.46
339.273	13.95
339.484	13.65
339.694	14.03
339.905	14.54
340.115	14.79
340.326	14.76
340.536	15.11
340.746	15.62
340.957	15.83
341.167	16.53
341.378	16.35
341.588	16.19
341.799	16.28
342.009	16.09
342.219	15.88
342.43	15.15
342.64	15.2
342.85	15.41
343.061	15.54
343.271	15.86
343.481	15.32
343.691	15.46
343.902	15.36
344.112	14.9
344.322	14.79
344.532	14.52
344.743	15.14
344.953	14.8
345.163	14.59
345.373	13.55
345.583	12.65
345.793	12.49
346.004	13.15
346.214	12.82
346.424	13.54
346.634	13.29
346.844	12.78
347.054	12.48
347.264	12.38
347.474	12.48
347.684	12.76
347.894	13.02
348.104	13.09
348.314	12.3
348.524	12.48
348.734	12.17
348.944	12.03
349.154	12.74
349.364	12.48
349.574	12.72
349.784	12.67
349.994	12.59
350.204	12.66
350.413	12.8
350.623	12.9
350.833	12.93
351.043	12.93
351.253	13.34
351.463	13.21
351.672	13.37
351.882	12.75
352.092	12.59
352.302	13.2
352.511	13.42
352.721	12.83
352.931	12.92
353.141	12.75
353.35	12.5
353.56	12.52
353.77	12.33
353.979	12.62
354.189	12.77
354.399	12.58
354.608	12.19
354.818	11.68
355.027	12.11
355.237	12.54
355.447	12.44
355.656	12.66
355.866	12.79
356.075	12.74
356.285	12.59
356.494	12.71
356.704	12.13
356.913	11.56
357.123	12.13
357.332	12
357.542	11.29
357.751	11.27
357.96	11.32
358.17	10.97
358.379	11.16
358.589	10.73
358.798	10.74
359.007	11.51
359.217	11.85
359.426	11.92
359.635	11.57
359.845	11.8
360.054	11.94
360.263	11.45
360.472	11.21
360.682	11.2
360.891	11.49
361.1	11.64
361.309	11.26
361.519	11.35
361.728	11.15
361.937	11.34
362.146	11.16
362.355	11.03
362.564	10.84
362.774	11.16
362.983	10.88
363.192	10.49
363.401	10.39
363.61	10.37
363.819	10.53
364.028	10.41
364.237	10.54
364.446	10.58
364.655	10.69
364.864	11.01
365.073	10.98
365.282	10.7
365.491	11.1
365.7	10.97
365.909	11.11
366.118	10.99
366.327	10.89
366.536	10.87
366.745	11.19
366.954	11.23
367.162	11.37
367.371	11.36
367.58	11.9
367.789	11.9
367.998	12.1
368.207	12.36
368.415	12.13
368.624	12.38
368.833	12.45
369.042	12.23
369.25	12.06
369.459	12.07
369.668	11.9
369.877	11.4
370.085	11.34
370.294	11
370.503	10.45
370.711	10.48
370.92	10.21
371.129	9.96
371.337	9.85
371.546	9.78
371.754	9.68
371.963	10.09
372.171	10.66
372.38	10.87
372.589	11.09
372.797	11.31
373.006	11.24
373.214	11.37
373.423	11.4
373.631	11.14
373.84	10.89
374.048	10.97
374.256	10.12
374.465	9.88
374.673	9.41
374.882	9.36
375.09	9.55
375.298	9.57
375.507	9.34
375.715	9.06
375.923	9.19
376.132	9.33
376.34	9
376.548	9.12
376.757	9.42
376.965	9.61
377.173	9.53
377.381	9.31
377.59	9.25
377.798	9.49
378.006	9.55
378.214	9.34
378.423	9.52
378.631	9.72
378.839	9.95
379.047	9.34
379.255	9.07
379.463	9.1
379.671	9.01
379.879	8.8
380.088	8.26
380.296	8.33
380.504	8.57
380.712	8.16
380.92	8.32
381.128	8.1
381.336	8.13
381.544	7.94
381.752	7.79
381.96	7.96
382.168	7.95
382.376	8.18
382.584	8
382.791	8.1
382.999	8.31
383.207	8.12
383.415	8.3
383.623	8.38
383.831	8.51
384.039	8.42
384.247	8.31
384.454	8.08
384.662	7.82
384.87	7.72
385.078	7.21
385.285	6.98
385.493	6.86
385.701	6.49
385.909	6.29
386.116	6.34
386.324	6.25
386.532	6.01
386.739	6.27
386.947	6.35
387.155	6.56
387.362	6.64
387.57	6.71
387.778	6.55
387.985	6.58
388.193	6.73
388.4	6.77
388.608	6.71
388.816	6.88
389.023	6.72
389.231	6.53
389.438	6.3
389.646	6.24
389.853	5.96
390.061	6
390.268	6.14
390.475	5.95
390.683	5.64
390.89	5.66
391.098	5.49
391.305	5.31
391.512	5.39
391.72	5.34
391.927	5.28
392.135	5.48
392.342	5.31
392.549	5.17
392.756	5.21
392.964	5.25
393.171	5.33
393.378	5.23
393.586	5.42
393.793	5.53
394	5.73
394.207	5.78
394.414	5.72
394.622	5.78
394.829	5.82
395.036	5.72
395.243	5.69
395.45	5.45
395.657	5.36
395.864	5.23
396.072	5.07
396.279	4.81
396.486	4.59
396.693	4.51
396.9	4.59
397.107	4.55
397.314	4.46
397.521	4.41
397.728	4.58
397.935	4.68
398.142	4.73
398.349	4.66
398.556	4.81
398.763	5.04
398.97	5.08
399.177	5.07
399.383	5.11
399.59	5.16
399.797	5.12
400.004	4.77
400.211	4.98
400.418	5.17
400.625	5.29
400.831	5.37
401.038	5.44
401.245	5.28
401.452	5.19
401.658	5.09
401.865	5.13
402.072	5.36
402.279	5.58
402.485	5.41
402.692	5.24
402.899	5.15
403.105	4.96
403.312	4.9
403.519	4.95
403.725	4.88
403.932	4.97
404.138	4.98
404.345	4.84
404.552	4.71
404.758	4.73
404.965	4.77
405.171	4.66
405.378	4.63
405.584	4.72
405.791	4.68
405.997	4.77
406.204	4.66
406.41	4.67
406.617	4.71
406.823	4.91
407.029	4.74
407.236	4.57
407.442	4.78
407.649	4.82
407.855	4.6
408.061	4.73
408.268	4.8
408.474	4.85
408.68	4.68
408.887	4.69
409.093	4.64
409.299	4.83
409.505	4.86
409.712	4.78
409.918	4.84
410.124	5.05
410.33	4.85
410.537	4.76
410.743	4.91
410.949	4.99
411.155	4.92
411.361	4.72
411.567	4.64
411.773	4.66
411.98	4.56
412.186	4.67
412.392	4.5
412.598	4.77
412.804	4.84
413.01	4.78
413.216	4.81
413.422	4.96
413.628	5
413.834	5.03
414.04	4.9
414.246	5.12
414.452	4.99
414.658	4.99
414.864	4.79
415.07	4.66
415.275	4.66
415.481	4.65
415.687	4.49
415.893	4.65
416.099	4.66
416.305	4.79
416.511	4.68
416.716	4.63
416.922	4.52
417.128	4.65
417.334	4.69
417.539	4.62
417.745	4.6
417.951	4.57
418.157	4.46
418.362	4.36
418.568	4.31
418.774	4.28
418.979	4.27
419.185	4.38
419.391	4.34
419.596	4.31
419.802	4.42
420.008	4.4
420.213	3.81
420.419	3.9
420.624	3.93
420.83	3.9
421.035	3.88
421.241	3.84
421.446	3.69
421.652	3.67
421.857	3.66
422.063	3.51
422.268	3.51
422.474	4.14
422.679	4.11
422.885	4.17
423.09	4.15
423.295	4.22
423.501	4.26
423.706	4.38
423.911	4.38
424.117	4.36
424.322	4.35
424.527	4.37
424.733	4.33
424.938	4.28
425.143	4.23
425.349	4.28
425.554	4.36
425.759	4.47
425.964	4.53
426.169	4.55
426.375	4.63
426.58	4.77
426.785	4.77
426.99	4.88
427.195	4.89
427.4	4.82
427.605	4.84
427.811	4.66
428.016	4.5
428.221	4.37
428.426	4.33
428.631	4.34
428.836	4.28
429.041	4.3
429.246	4.3
429.451	4.34
429.656	4.45
429.861	4.48
430.066	4.56
430.271	4.62
430.476	4.69
430.681	4.65
430.886	4.65
431.09	4.65
431.295	4.67
431.5	4.59
431.705	4.55
431.91	4.62
432.115	4.6
432.32	4.56
432.524	4.47
432.729	4.47
432.934	4.48
433.139	4.39
433.343	4.32
433.548	4.24
433.753	4.3
433.958	4.3
434.162	4.16
434.367	4.14
434.572	4.14
434.776	4.18
434.981	4.09
435.186	4.17
435.39	4.26
435.595	4.39
435.799	4.5
436.004	4.47
436.209	4.52
436.413	4.54
436.618	4.42
436.822	4.47
437.027	4.47
437.231	4.46
437.436	4.5
437.64	4.51
437.845	4.42
438.049	4.33
438.253	4.26
438.458	4.26
438.662	4.19
438.867	4.3
439.071	4.24
439.275	4.29
439.48	4.37
439.684	4.33
439.888	4.27
440.093	4.31
440.297	4.32
440.501	4.37
440.706	4.28
440.91	4.3
441.114	4.23
441.318	4.2
441.523	4.15
441.727	4.07
441.931	4
442.135	4.13
442.339	4.12
442.543	4.17
442.748	4.18
442.952	4.31
443.156	4.32
443.36	4.36
443.564	4.4
443.768	4.43
443.972	4.48
444.176	4.5
444.38	4.37
444.584	4.37
444.788	4.36
444.992	4.3
445.196	4.24
445.4	4.24
445.604	4.2
445.808	4.21
446.012	4.23
446.216	4.13
446.42	4.14
446.624	4.19
446.828	4.2
447.032	4.15
447.235	4.19
447.439	4.21
447.643	4.28
447.847	4.33
448.051	4.41
448.254	4.31
448.458	4.41
448.662	4.38
448.866	4.38
449.069	4.25
449.273	4.33
449.477	4.29
449.681	4.3
449.884	4.19
450.088	4.22
450.292	4.12
450.495	4.19
450.699	4.14
450.902	4.17
451.106	4.09
451.31	4.15
451.513	4.12
451.717	4.12
451.92	4.16
452.124	4.19
452.327	4.15
452.531	4.17
452.734	4.27
452.938	4.4
453.141	4.32
453.345	4.28
453.548	4.37
453.752	4.46
453.955	4.5
454.158	4.56
454.362	4.65
454.565	4.71
454.769	4.65
454.972	4.54
455.175	4.42
455.379	4.5
455.582	4.53
455.785	4.39
455.988	4.25
456.192	4.26
456.395	4.11
456.598	4.09
456.801	4
457.005	3.99
457.208	3.94
457.411	3.93
457.614	3.87
457.817	3.96
458.021	4
458.224	4.02
458.427	4.03
458.63	4.04
458.833	4
459.036	4.02
459.239	4.11
459.442	4.21
459.645	4.27
459.848	4.3
460.051	4.32
460.254	4.37
460.457	4.48
460.66	4.42
460.863	4.45
461.066	4.49
461.269	4.56
461.472	4.47
461.675	4.39
461.878	4.39
462.081	4.41
462.284	4.35
462.486	4.31
462.689	4.29
462.892	4.33
463.095	4.34
463.298	4.28
463.5	4.22
463.703	4.27
463.906	4.26
464.109	4.27
464.311	4.3
464.514	4.29
464.717	4.35
464.92	4.29
465.122	4.38
465.325	4.32
465.528	4.38
465.73	4.36
465.933	4.23
466.135	4.23
466.338	4.26
466.541	4.22
466.743	4.2
466.946	4.12
467.148	4.07
467.351	4.01
467.553	4.07
467.756	4.08
467.958	4.02
468.161	4.14
468.363	4.19
468.566	4.05
468.768	4.11
468.971	4.2
469.173	4.2
469.375	4.21
469.578	4.23
469.78	4.2
469.983	4.23
470.185	4.27
470.387	4.2
470.59	4.16
470.792	4.17
470.994	4.07
471.196	4.09
471.399	4.11
471.601	4.13
471.803	3.97
472.005	3.99
472.208	3.99
472.41	4.03
472.612	4.06
472.814	3.98
473.016	4.12
473.218	4.17
473.421	4.14
473.623	4.22
473.825	4.3
474.027	4.45
474.229	4.46
474.431	4.5
474.633	4.49
474.835	4.58
475.037	4.58
475.239	4.57
475.441	4.54
475.643	4.47
475.845	4.36
476.047	4.19
476.249	4.2
476.451	4.24
476.653	4.23
476.855	4.18
477.057	4.18
477.258	4.23
477.46	4.26
477.662	4.26
477.864	4.3
478.066	4.3
478.268	4.43
478.469	4.42
478.671	4.38
478.873	4.3
479.075	4.3
479.276	4.26
479.478	4.28
479.68	4.24
479.882	4.2
480.083	4.16
480.285	4.15
480.487	4.07
480.688	4
480.89	3.99
481.091	3.94
481.293	3.97
481.495	3.96
481.696	3.95
481.898	3.94
482.099	3.95
482.301	3.94
482.502	3.98
482.704	3.97
482.905	3.99
483.107	4
483.308	4.05
483.51	4.03
483.711	4.04
483.913	4.03
484.114	4.01
484.315	4.02
484.517	4.06
484.718	4.06
484.92	4.06
485.121	4.05
485.322	4.04
485.524	4.05
485.725	4.07
485.926	4.1
486.127	4.09
486.329	4.11
486.53	4.12
486.731	4.1
486.932	4.11
487.134	4.13
487.335	4.15
487.536	4.17
487.737	4.14
487.938	4.1
488.139	4.05
488.341	4.09
488.542	4.13
488.743	4.11
488.944	4.12
489.145	4.11
489.346	4.11
489.547	4.11
489.748	4.1
489.949	4.1
490.15	4.14
490.351	4.17
490.552	4.17
490.753	4.12
490.954	4.14
491.155	4.15
491.356	4.16
491.557	4.2
491.758	4.2
491.959	4.24
492.159	4.28
492.36	4.33
492.561	4.35
492.762	4.38
492.963	4.45
493.164	4.51
493.364	4.5
493.565	4.53
493.766	4.48
493.967	4.56
494.167	4.53
494.368	4.54
494.569	4.44
494.769	4.37
494.97	4.34
495.171	4.25
495.371	4.26
495.572	4.31
495.773	4.26
495.973	4.35
496.174	4.27
496.375	4.29
496.575	4.27
496.776	4.33
496.976	4.36
497.177	4.39
497.377	4.52
497.578	4.49
497.778	4.48
497.979	4.47
498.179	4.45
498.38	4.47
498.58	4.43
498.78	4.47
498.981	4.48
499.181	4.57
499.382	4.66
499.582	4.56
499.782	4.55
499.983	4.6
500.183	4.68
500.383	4.65
500.584	4.71
500.784	4.68
500.984	4.67
501.184	4.63
501.385	4.59
501.585	4.53
501.785	4.56
501.985	4.57
502.185	4.54
502.386	4.49
502.586	4.57
502.786	4.65
502.986	4.72
503.186	4.69
503.386	4.72
503.586	4.75
503.786	4.8
503.987	4.8
504.187	4.79
504.387	4.82
504.587	4.89
504.787	4.89
504.987	4.85
505.187	4.85
505.387	5.01
505.587	5
505.786	4.99
505.986	4.98
506.186	5.12
506.386	5.21
506.586	5.13
506.786	5.1
506.986	5.1
507.186	5.14
507.386	5.09
507.585	5.04
507.785	5.05
507.985	5.05
508.185	5.08
508.384	5.03
508.584	5.04
508.784	5.16
508.984	5.28
509.183	5.25
509.383	5.21
509.583	5.23
509.782	5.19
509.982	5.19
510.182	5.29
510.381	5.3
510.581	5.28
510.781	5.28
510.98	5.28
511.18	5.22
511.379	5.21
511.579	5.28
511.778	5.37
511.978	5.42
512.177	5.47
512.377	5.48
512.576	5.53
512.776	5.62
512.975	5.6
513.175	5.61
513.374	5.6
513.573	5.71
513.773	5.68
513.972	5.74
514.172	5.72
514.371	5.73
514.57	5.68
514.77	5.64
514.969	5.57
515.168	5.59
515.367	5.58
515.567	5.7
515.766	5.62
515.965	5.62
516.164	5.55
516.364	5.6
516.563	5.59
516.762	5.59
516.961	5.59
517.16	5.54
517.359	5.61
517.559	5.57
517.758	5.53
517.957	5.64
518.156	5.61
518.355	5.66
518.554	5.62
518.753	5.65
518.952	5.68
519.151	5.73
519.35	5.79
519.549	5.73
519.748	5.81
519.947	5.79
520.146	5.68
520.345	5.73
520.544	5.77
520.743	5.81
520.942	5.89
521.141	5.8
521.339	5.86
521.538	5.93
521.737	6.02
521.936	6.05
522.135	6.02
522.333	6.03
522.532	6.1
522.731	6.06
522.93	6.1
523.129	6.15
523.327	6.23
523.526	6.2
523.725	6.17
523.923	6.11
524.122	6.11
524.321	6.16
524.519	6.24
524.718	6.21
524.917	6.24
525.115	6.2
525.314	6.15
525.512	6.13
525.711	6.16
525.909	6.19
526.108	6.24
526.306	6.24
526.505	6.24
526.703	6.22
526.902	6.21
527.1	6.21
527.299	6.23
527.497	6.23
527.696	6.28
527.894	6.3
528.092	6.27
528.291	6.26
528.489	6.26
528.688	6.26
528.886	6.28
529.084	6.3
529.283	6.3
529.481	6.34
529.679	6.39
529.877	6.38
530.076	6.35
530.274	6.42
530.472	6.45
530.67	6.52
530.869	6.6
531.067	6.63
531.265	6.66
531.463	6.68
531.661	6.68
531.859	6.7
532.057	6.76
532.255	6.79
532.454	6.79
532.652	6.82
532.85	6.84
533.048	6.83
533.246	6.83
533.444	6.86
533.642	6.89
533.84	6.88
534.038	6.88
534.236	6.85
534.434	6.88
534.632	6.85
534.83	6.86
535.027	6.85
535.225	6.84
535.423	6.88
535.621	6.86
535.819	6.95
536.017	7
536.215	7.01
536.412	7.05
536.61	7.08
536.808	7.17
537.006	7.16
537.203	7.21
537.401	7.26
537.599	7.24
537.797	7.35
537.994	7.28
538.192	7.26
538.39	7.26
538.587	7.31
538.785	7.41
538.983	7.42
539.18	7.44
539.378	7.48
539.575	7.51
539.773	7.54
539.97	7.5
540.168	7.55
540.366	7.63
540.563	7.64
540.761	7.62
540.958	7.6
541.155	7.61
541.353	7.65
541.55	7.68
541.748	7.72
541.945	7.76
542.143	7.84
542.34	7.86
542.537	7.86
542.735	7.91
542.932	7.98
543.129	7.99
543.327	8.07
543.524	8.06
543.721	8.1
543.919	8.11
544.116	8.09
544.313	8.07
544.51	8.1
544.708	8.16
544.905	8.22
545.102	8.29
545.299	8.4
545.496	8.37
545.693	8.39
545.891	8.44
546.088	8.48
546.285	8.54
546.482	8.65
546.679	8.7
546.876	8.71
547.073	8.78
547.27	8.75
547.467	8.71
547.664	8.77
547.861	8.85
548.058	8.86
548.255	8.92
548.452	8.92
548.649	8.97
548.846	8.92
549.043	9.01
549.24	8.99
549.437	9.02
549.633	9.03
549.83	9.03
550.027	9.04
550.224	9.06
550.421	9.03
550.618	9.09
550.814	9.08
551.011	9.16
551.208	9.2
551.405	9.21
551.601	9.25
551.798	9.35
551.995	9.5
552.191	9.62
552.388	9.58
552.585	9.6
552.781	9.7
552.978	9.75
553.175	9.84
553.371	9.81
553.568	10.03
553.764	10.07
553.961	10.12
554.157	10.04
554.354	10.11
554.55	10.25
554.747	10.34
554.943	10.41
555.14	10.52
555.336	10.53
555.533	10.66
555.729	10.58
555.926	10.63
556.122	10.73
556.318	10.88
556.515	10.84
556.711	10.88
556.907	10.95
557.104	10.98
557.3	10.97
557.496	11.05
557.693	11.02
557.889	11.15
558.085	11.21
558.281	11.23
558.478	11.21
558.674	11.39
558.87	11.39
559.066	11.41
559.262	11.56
559.459	11.66
559.655	11.81
559.851	11.89
560.047	11.89
560.243	11.83
560.439	11.88
560.635	11.97
560.831	11.95
561.027	12.03
561.223	12.09
561.419	11.92
561.615	11.88
561.811	11.8
562.007	11.9
562.203	12
562.399	12.12
562.595	12.07
562.791	12.23
562.987	12.31
563.183	12.32
563.379	12.36
563.575	12.47
563.771	12.62
563.966	12.7
564.162	12.66
564.358	12.64
564.554	12.73
564.75	12.85
564.945	12.82
565.141	12.89
565.337	13.04
565.533	13.11
565.728	13.19
565.924	13.2
566.12	13.3
566.315	13.33
566.511	13.34
566.707	13.33
566.902	13.45
567.098	13.51
567.293	13.54
567.489	13.52
567.684	13.55
567.88	13.61
568.076	13.65
568.271	13.6
568.467	13.69
568.662	13.86
568.858	13.96
569.053	13.98
569.248	13.99
569.444	14
569.639	14.01
569.835	14.08
570.03	14.13
570.225	14.16
570.421	14.16
570.616	14.19
570.812	14.13
571.007	14.11
571.202	14.16
571.397	14.21
571.593	14.22
571.788	14.26
571.983	14.33
572.178	14.35
572.374	14.45
572.569	14.64
572.764	14.63
572.959	14.74
573.154	14.81
573.35	14.83
573.545	14.93
573.74	15.01
573.935	15.1
574.13	15.12
574.325	15.05
574.52	15
574.715	14.94
574.91	15.02
575.105	14.98
575.3	15.04
575.495	15.04
575.69	14.99
575.885	14.95
576.08	14.96
576.275	14.99
576.47	15.11
576.665	15.19
576.86	15.14
577.055	15.28
577.25	15.31
577.444	15.25
577.639	15.27
577.834	15.3
578.029	15.43
578.224	15.48
578.418	15.45
578.613	15.56
578.808	15.63
579.003	15.76
579.197	15.78
579.392	15.82
579.587	15.9
579.781	15.92
579.976	15.94
580.171	15.88
580.365	15.78
580.56	15.91
580.755	15.95
580.949	15.84
581.144	15.88
581.338	15.92
581.533	15.8
581.727	15.98
581.922	16.03
582.116	15.94
582.311	16.11
582.505	16.21
582.7	16.08
582.894	15.94
583.089	16
583.283	15.98
583.478	15.9
583.672	16.14
583.866	15.98
584.061	16.02
584.255	16.2
584.449	16.21
584.644	16.23
584.838	16.44
585.032	16.62
585.226	16.68
585.421	16.83
585.615	16.86
585.809	16.8
586.003	16.77
586.198	16.72
586.392	16.78
586.586	16.8
586.78	16.82
586.974	16.76
587.168	16.82
587.363	16.73
587.557	16.71
587.751	16.81
587.945	16.82
588.139	16.98
588.333	17.04
588.527	17.07
588.721	16.9
588.915	16.92
589.109	17.02
589.303	16.95
589.497	17.09
589.691	17.02
589.885	16.92
590.079	17.05
590.273	17.08
590.466	17.14
590.66	17.05
590.854	17.1
591.048	17.1
591.242	17.02
591.436	16.99
591.629	17.02
591.823	17.16
592.017	17.34
592.211	17.34
592.404	17.27
592.598	17.3
592.792	17.37
592.986	17.54
593.179	17.57
593.373	17.57
593.567	17.7
593.76	17.74
593.954	17.78
594.147	17.75
594.341	17.72
594.535	17.71
594.728	17.74
594.922	17.74
595.115	17.73
595.309	17.74
595.502	17.82
595.696	17.8
595.889	17.91
596.083	17.88
596.276	17.81
596.47	17.89
596.663	18.01
596.856	17.98
597.05	17.95
597.243	18.13
597.437	18.16
597.63	18.11
597.823	18.14
598.017	17.92
598.21	17.82
598.403	18
598.596	17.84
598.79	17.75
598.983	17.78
599.176	17.93
599.369	17.72
599.563	17.77
599.756	17.97
599.949	17.97
600.142	17.91
600.335	17.93
600.528	17.81
600.722	18.05
600.915	18.19
601.108	18.22
601.301	18.26
601.494	18.17
601.687	18.28
601.88	18.23
602.073	18.05
602.266	18.22
602.459	18.28
602.652	18.38
602.845	18.36
603.038	18.33
603.231	18.25
603.424	18.25
603.617	18.24
603.809	18.14
604.002	18.16
604.195	18.31
604.388	18.33
604.581	18.37
604.774	18.28
604.966	18.27
605.159	18.3
605.352	18.49
605.545	18.39
605.737	18.6
605.93	18.65
606.123	18.69
606.316	18.72
606.508	18.58
606.701	18.61
606.894	18.62
607.086	18.73
607.279	18.8
607.471	18.71
607.664	18.79
607.857	18.72
608.049	18.87
608.242	18.84
608.434	18.95
608.627	19.05
608.819	19.06
609.012	19.04
609.204	19.04
609.397	18.97
609.589	19.02
609.782	19.06
609.974	19.09
610.166	18.94
610.359	18.97
610.551	18.84
610.743	18.76
610.936	18.77
611.128	18.84
611.32	18.74
611.513	18.71
611.705	18.7
611.897	18.63
612.09	18.73
612.282	18.78
612.474	18.58
612.666	18.61
612.858	18.76
613.051	18.74
613.243	18.8
613.435	18.69
613.627	18.73
613.819	18.59
614.011	18.63
614.203	18.53
614.395	18.48
614.588	18.61
614.78	18.59
614.972	18.51
615.164	18.44
615.356	18.4
615.548	18.56
615.74	18.55
615.932	18.63
616.124	18.65
616.315	18.54
616.507	18.69
616.699	18.64
616.891	18.59
617.083	18.67
617.275	18.67
617.467	18.6
617.659	18.69
617.85	18.62
618.042	18.81
618.234	18.76
618.426	18.64
618.618	18.54
618.809	18.67
619.001	18.82
619.193	18.88
619.384	18.78
619.576	18.92
619.768	18.72
619.959	18.8
620.151	18.66
620.343	18.77
620.534	19.08
620.726	19
620.917	18.95
621.109	19.04
621.301	18.99
621.492	19.15
621.684	19.16
621.875	19.31
622.067	19.35
622.258	19.36
622.45	19.35
622.641	19.42
622.832	19.61
623.024	19.66
623.215	19.57
623.407	19.54
623.598	19.62
623.789	19.55
623.981	19.49
624.172	19.41
624.363	19.36
624.555	19.28
624.746	19.17
624.937	19.06
625.129	18.9
625.32	19.01
625.511	19.05
625.702	19.03
625.893	19.12
626.085	19.12
626.276	19.17
626.467	19.25
626.658	19.36
626.849	19.34
627.04	19.38
627.231	19.47
627.422	19.24
627.614	19.35
627.805	19.41
627.996	19.34
628.187	19.27
628.378	19.27
628.569	19.29
628.76	19.24
628.951	19.28
629.142	19.2
629.332	19.19
629.523	19.44
629.714	19.18
629.905	19.03
630.096	19
630.287	19.22
630.478	19.28
630.669	19.16
630.859	19.19
631.05	19.09
631.241	19.14
631.432	19.26
631.623	19.12
631.813	19.29
632.004	19.51
632.195	19.66
632.385	19.42
632.576	19.57
632.767	19.71
632.957	19.61
633.148	19.73
633.339	19.7
633.529	19.74
633.72	19.65
633.91	19.62
634.101	19.54
634.292	19.42
634.482	19.54
634.673	19.54
634.863	19.44
635.054	19.51
635.244	19.58
635.435	19.79
635.625	19.82
635.815	20.02
636.006	19.85
636.196	19.85
636.387	19.87
636.577	19.77
636.767	19.73
636.958	19.95
637.148	20.09
637.338	20.02
637.529	19.78
637.719	19.81
637.909	19.77
638.099	20.08
638.29	19.99
638.48	19.85
638.67	19.86
638.86	19.88
639.05	19.8
639.241	19.72
639.431	19.84
639.621	20.13
639.811	20.12
640.001	19.92
640.191	19.79
640.381	19.75
640.571	19.83
640.761	19.78
640.951	19.79
641.141	19.76
641.331	19.63
641.521	19.59
641.711	19.51
641.901	19.42
642.091	19.6
642.281	19.62
642.471	19.7
642.661	19.78
642.851	19.94
643.041	19.64
643.231	19.6
643.42	19.5
643.61	19.51
643.8	19.47
643.99	19.54
644.18	19.6
644.369	19.43
644.559	19.52
644.749	19.58
644.939	19.65
645.128	19.7
645.318	19.78
645.508	20.03
645.697	19.95
645.887	19.97
646.076	19.73
646.266	19.55
646.456	19.75
646.645	19.66
646.835	19.62
647.024	19.58
647.214	19.68
647.403	19.65
647.593	19.55
647.782	19.69
647.972	19.55
648.161	19.77
648.351	19.96
648.54	20.02
648.73	20.1
648.919	20.11
649.108	19.91
649.298	19.85
649.487	19.69
649.677	19.73
649.866	19.66
650.055	19.83
650.244	19.79
650.434	19.9
650.623	19.98
650.812	20.02
651.002	20.09
651.191	20.32
651.38	20.61
651.569	20.85
651.758	20.96
651.947	21.1
652.137	20.83
652.326	20.92
652.515	20.9
652.704	20.79
652.893	20.76
653.082	20.75
653.271	20.68
653.46	20.51
653.649	20.35
653.838	20.19
654.027	20.13
654.216	20.35
654.405	20.27
654.594	20.16
654.783	20.21
654.972	20.26
655.161	20.44
655.35	20.59
655.539	20.67
655.728	20.8
655.916	21.11
656.105	21.05
656.294	21.09
656.483	21.25
656.672	21.09
656.86	21.1
657.049	21.07
657.238	20.91
657.427	20.9
657.615	20.71
657.804	20.75
657.993	20.48
658.181	20.37
658.37	20.32
658.559	20.12
658.747	20.27
658.936	20.21
659.125	20.22
659.313	20.26
659.502	20.18
659.69	20.36
659.879	20.36
660.067	20.53
660.256	20.68
660.444	20.7
660.633	20.89
660.821	20.89
661.01	21.02
661.198	20.86
661.387	20.77
661.575	20.78
661.763	20.78
661.952	20.63
662.14	20.48
662.328	20.46
662.517	20.65
662.705	20.46
662.893	20.38
663.082	20.18
663.27	20.37
663.458	20.43
663.646	20.69
663.834	20.55
664.023	20.44
664.211	20.52
664.399	20.49
664.587	20.41
664.775	20.59
664.963	20.48
665.152	20.71
665.34	20.76
665.528	20.72
665.716	20.31
665.904	20.33
666.092	20.42
666.28	20.4
666.468	20.56
666.656	20.27
666.844	20.13
667.032	20.4
667.22	19.97
667.408	19.76
667.596	19.85
667.784	20.2
667.971	20.11
668.159	20.23
668.347	20.14
668.535	19.98
668.723	20.17
668.911	20.27
669.098	20.11
669.286	20.49
669.474	20.59
669.662	20.32
669.849	20.31
670.037	20.57
670.225	20.57
670.413	20.59
670.6	20.43
670.788	20.73
670.976	20.85
671.163	21.09
671.351	20.94
671.538	21.01
671.726	21.14
671.913	21.05
672.101	20.78
672.289	20.5
672.476	20.73
672.664	21.02
672.851	20.62
673.039	20.54
673.226	20.53
673.413	20.22
673.601	20.28
673.788	20.38
673.976	20.48
674.163	20.67
674.35	20.72
674.538	20.71
674.725	20.71
674.912	20.95
675.1	20.98
675.287	21.05
675.474	21.52
675.662	21.4
675.849	21.5
676.036	21.19
676.223	21.34
676.411	21.67
676.598	21.42
676.785	21.27
676.972	21.28
677.159	21.12
677.346	20.82
677.533	20.48
677.721	20.47
677.908	20.45
678.095	20.61
678.282	20.44
678.469	20.23
678.656	20.24
678.843	20.27
679.03	20.23
679.217	20.25
679.404	20.24
679.591	20.62
679.778	20.63
679.964	20.53
680.151	20.42
680.338	20.47
680.525	20.6
680.712	20.59
680.899	20.47
681.086	20.57
681.272	20.5
681.459	20.55
681.646	20.36
681.833	20.53
682.02	20.53
682.206	20.3
682.393	20.41
682.58	20.41
682.766	20.54
682.953	20.65
683.14	20.61
683.326	20.95
683.513	21.05
683.7	21.3
683.886	21.29
684.073	21.67
684.259	21.99
684.446	21.85
684.632	21.74
684.819	21.84
685.005	22.09
685.192	22.16
685.378	21.81
685.565	21.7
685.751	21.24
685.938	21.31
686.124	21.07
686.31	21.36
686.497	21.44
686.683	21.55
686.87	21.7
687.056	21.53
687.242	21.2
687.429	21.47
687.615	21.65
687.801	21.85
687.987	21.6
688.174	21.51
688.36	21.21
688.546	21.15
688.732	21.27
688.918	20.85
689.105	20.79
689.291	20.95
689.477	20.99
689.663	20.84
689.849	21.01
690.035	21.01
690.221	20.93
690.407	21.36
690.593	21.36
690.779	21.25
690.965	21.4
691.151	21.6
691.337	21.53
691.523	21.33
691.709	21.39
691.895	20.87
692.081	20.78
692.267	20.8
692.453	20.46
692.639	20.35
692.825	20.13
693.011	19.92
693.196	20.06
693.382	20.13
693.568	20.17
693.754	20.24
693.94	20.37
694.125	20.63
694.311	21
694.497	20.77
694.682	21.27
694.868	21.47
695.054	21.61
695.239	21.48
695.425	21.41
695.611	21.22
695.796	21.25
695.982	21.42
696.168	21.08
696.353	21.08
696.539	21.17
696.724	20.84
696.91	20.55
697.095	20.52
697.281	20.52
697.466	20.54
697.652	20.75
697.837	20.77
698.023	20.6
698.208	20.84
698.393	20.69
698.579	21.02
698.764	20.97
698.949	21.3
699.135	21.4
699.32	21.37
699.505	21.27
699.691	21.23
699.876	21.29
700.061	21.61
700.246	21.5
700.432	21.43
700.617	20.92
700.802	21.06
700.987	20.88
701.172	21
701.358	20.7
701.543	20.96
701.728	20.6
701.913	20.57
702.098	20.53
702.283	20.6
702.468	20.34
702.653	20.52
702.838	20.41
703.023	20.43
703.208	20.41
703.393	20.48
703.578	20.5
703.763	20.72
703.948	20.73
704.133	21.05
704.318	21.03
704.503	21.36
704.688	21.5
704.873	21.85
705.057	22.12
705.242	22.3
705.427	22.41
705.612	22.22
705.797	22.07
705.981	21.92
706.166	21.68
706.351	21.8
706.536	21.74
706.72	21.74
706.905	21.5
707.09	21.16
707.274	20.45
707.459	20.65
707.644	20.68
707.828	21.02
708.013	20.94
708.197	20.71
708.382	20.8
708.567	20.54
708.751	20.4
708.936	20.2
709.12	20.56
709.305	20.94
709.489	20.56
709.673	20.65
709.858	20.7
710.042	20.86
710.227	21.17
710.411	20.8
710.596	21.2
710.78	21.29
710.964	21.38
711.149	21.21
711.333	21.14
711.517	21.39
711.702	21.34
711.886	21.12
712.07	21.1
712.254	20.94
712.438	21.22
712.623	21.31
712.807	21.02
712.991	21.08
713.175	20.84
713.359	20.71
713.544	20.99
713.728	21.16
713.912	21.17
714.096	21.1
714.28	21.19
714.464	21.63
714.648	21.28
714.832	21.32
715.016	21.7
715.2	22.11
715.384	22.49
715.568	22.28
715.752	22.1
715.936	22.16
716.12	21.97
716.304	22.08
716.488	21.45
716.671	21.51
716.855	21.82
717.039	21.32
717.223	20.62
717.407	20.35
717.59	20.66
717.774	20.73
717.958	20.54
718.142	21.08
718.325	20.63
718.509	20.85
718.693	21.04
718.877	20.83
719.06	21.37
719.244	21.91
719.428	22.02
719.611	21.78
719.795	21.55
719.978	22.02
720.162	21.72
720.345	22.31
720.529	22.45
720.713	22.45
720.896	22.29
721.08	21.58
721.263	21.49
721.446	22.05
721.63	22.15
721.813	22.27
721.997	22.15
722.18	22.1
722.364	21.77
722.547	21.68
722.73	21.69
722.914	22
723.097	22.29
723.28	22.63
723.464	22.09
723.647	21.78
723.83	21.79
724.013	22.18
724.197	22.3
724.38	22.2
724.563	22.21
724.746	22.26
724.929	22.34
725.112	22.47
725.296	22.27
725.479	22.51
725.662	22.66
725.845	23
726.028	22.34
726.211	22.09
726.394	22.34
726.577	21.95
726.76	21.83
726.943	21.62
727.126	21.49
727.309	21.21
727.492	21.1
727.675	20.5
727.858	20.03
728.041	20.15
728.224	20.45
728.407	20.38
728.589	20.96
728.772	20.88
728.955	21.19
729.138	21.05
729.321	20.91
729.503	21.22
729.686	21.71
729.869	22.2
730.052	22.46
730.234	22.04
730.417	21.97
730.6	21.64
730.782	22.29
730.965	22.16
731.148	22.34
731.33	22.6
731.513	22.16
731.695	22.22
731.878	22.27
732.061	22.21
732.243	22.65
732.426	22.26
732.608	22.42
732.791	22.03
732.973	21.75
733.156	21.81
733.338	21.94
733.52	22.11
733.703	21.95
733.885	21.84
734.068	21.85
734.25	21.91
734.432	22.33
734.615	22.11
734.797	22.36
734.979	23.09
735.162	23.01
735.344	22.45
735.526	22.45
735.708	22.8
735.891	22.78
736.073	22.12
736.255	21.92
736.437	22.27
736.619	21.86
736.802	21.41
736.984	21.32
737.166	21.14
737.348	21.98
737.53	21.44
737.712	20.83
737.894	20.59
738.076	21.3
738.258	21.02
738.44	20.72
738.622	21.65
738.804	21.77
738.986	21.13
739.168	21.31
739.35	21.08
739.532	21.3
739.714	21.32
739.896	20.9
740.078	20.82
740.259	20.83
740.441	20.45
740.623	19.83
740.805	20.14
740.987	20.45
741.168	19.93
741.35	19.81
741.532	20.22
741.714	20.17
741.895	20.86
742.077	21.12
742.259	20.8
742.44	21.57
742.622	21.88
742.804	21.71
742.985	21.47
743.167	21.63
743.348	22.11
743.53	21.96
743.711	22.81
743.893	22.56
744.075	22.11
744.256	21.92
744.438	21.68
744.619	21.45
744.8	20.97
744.982	21.23
745.163	21.38
745.345	21.15
745.526	21.21
745.707	20.8
745.889	21.09
746.07	21.49
746.252	23.08
746.433	22.93
746.614	23.5
746.795	23.71
746.977	24.13
747.158	24.51
747.339	24.55
747.52	24.5
747.702	24.46
747.883	24.23
748.064	23.58
748.245	22.35
748.426	22.65
748.607	22.85
748.788	22.39
748.97	21.56
749.151	21.57
749.332	21.15
749.513	20.92
749.694	20.79
749.875	21.23
750.056	21.45
750.237	22.24
750.418	21.82
750.599	20.68
750.78	21.71
750.96	22.36
751.141	22.12
751.322	21.78
751.503	22.08
751.684	21.85
751.865	21.42
752.046	21.56
752.226	21.15
752.407	21.29
752.588	21.78
752.769	21.32
752.949	20.61
753.13	20.5
753.311	20.86
753.492	20.65
753.672	21.42
753.853	21.18
754.034	21.05
754.214	21.43
754.395	21.23
754.575	20.85
754.756	20.69
754.937	21.32
755.117	21.45
755.298	21.65
755.478	21.88
755.659	20.82
755.839	21.27
756.02	21.63
756.2	21.58
756.381	22.32
756.561	22.49
756.741	22.8
756.922	22.73
757.102	22.79
757.283	22.98
757.463	22.98
757.643	24.21
757.823	24.3
758.004	23.69
758.184	24.03
758.364	23.47
758.545	23.73
758.725	23.91
758.905	24.12
759.085	23.74
759.265	23.42
759.446	23.14
759.626	23.08
759.806	23.02
759.986	23.62
760.166	22.57
760.346	22.56
760.526	22.24
760.706	22.39
760.886	21.9
761.066	22.34
761.246	22.88
761.426	23.6
761.606	23.03
761.786	22.71
761.966	22.9
762.146	23
762.326	23.22
762.506	23.69
762.686	23.15
762.866	23.05
763.046	22.77
763.225	22.73
763.405	22.56
763.585	22.74
763.765	22.66
763.945	22.63
764.124	22.83
764.304	22.38
764.484	22.01
764.664	22.12
764.843	22.48
765.023	22.75
765.203	22.26
765.382	21.86
765.562	21.27
765.741	21.65
765.921	21.3
766.101	21.36
766.28	20.92
766.46	20.8
766.639	21.33
766.819	21.39
766.998	21.33
767.178	21.99
767.357	22.12
767.537	22.52
767.716	22.3
767.896	22.81
768.075	22.33
768.254	23.23
768.434	23.22
768.613	22.85
768.792	22.44
768.972	22.35
769.151	21.91
769.33	22.44
769.51	22.51
769.689	22.61
769.868	21.77
770.047	22.74
770.226	22.71
770.406	22.09
770.585	22.35
770.764	22.39
770.943	22.32
771.122	21.86
771.301	21.4
771.48	21.56
771.66	21.66
771.839	22.2
772.018	21.79
772.197	21.83
772.376	22.17
772.555	21.95
772.734	22.19
772.913	22.77
773.092	23.59
773.271	23.69
773.449	23.11
773.628	23.36
773.807	23.32
773.986	23.47
774.165	23.65
774.344	23.74
774.523	23.82
774.701	24.07
774.88	23.64
775.059	23.09
775.238	23.35
775.417	23.56
775.595	23.67
775.774	23.51
775.953	24.18
776.131	24.02
776.31	23.82
776.489	23.88
776.667	23.6
776.846	23.74
777.025	23.42
777.203	23.07
777.382	23.73
777.56	22.82
777.739	22.53
777.917	20.71
778.096	20.29
778.274	20.73
778.453	20.37
778.631	19.86
778.81	20.1
778.988	20.77
779.166	21.38
779.345	21.4
779.523	21.74
779.702	21.68
779.88	22.94
780.058	23.12
780.237	22.24
780.415	22.55
780.593	23.22
780.771	22.36
780.95	22.15
781.128	22.11
781.306	21.75
781.484	21.7
781.662	23.12
781.841	23.11
782.019	22.84
782.197	24.07
782.375	23.83
782.553	23.52
782.731	23.96
782.909	23.54
783.087	22.73
783.265	22.35
783.443	22.1
783.621	20.91
783.799	19.96
783.977	20.88
784.155	20.51
784.333	20.57
784.511	20.74
784.689	21.02
784.867	21.32
785.045	21.59
785.223	21.63
785.4	22.01
785.578	21.4
785.756	22.81
785.934	21.49
786.112	21.74
786.289	21.37
786.467	20.7
786.645	20.12
786.823	19.87
787	20.37
787.178	20.38
787.356	20.73
787.533	21.15
787.711	20.51
787.889	21.24
788.066	21.65
788.244	22.03
788.421	22.55
788.599	23
788.776	23.16
788.954	22.8
789.131	22.99
789.309	22.55
789.486	23.09
789.664	22.85
789.841	23.61
790.019	23.33
790.196	22.74
790.373	23.01
790.551	22.33
790.728	22.4
790.906	21.5
791.083	21.29
791.26	21.12
791.437	20.31
791.615	21.38
791.792	20.63
791.969	19.81
792.146	20.14
792.324	19.66
792.501	20.73
792.678	21.32
792.855	22.81
793.032	23.03
793.209	24.18
793.387	24.94
793.564	24.15
793.741	24.68
793.918	25.32
794.095	25.82
794.272	26.12
794.449	25.88
794.626	26.01
794.803	25.43
794.98	25.24
795.157	24.9
795.334	25.4
795.511	25.2
795.688	24.93
795.864	24.75
796.041	24.17
796.218	23.59
796.395	22.74
796.572	22.71
796.749	22.97
796.925	23.49
797.102	23.48
797.279	22.22
797.456	22.94
797.632	22.55
797.809	22.74
797.986	23.75
798.162	24.2
798.339	24.87
798.516	24.68
798.692	24.16
798.869	24.46
799.046	24.12
799.222	24.28
799.399	24.55
799.575	25.03
799.752	24.52
799.928	23.86
800.105	23.51
800.281	23.47
800.458	22.66
800.634	23.4
800.811	21.85
800.987	20.92
801.163	21.48
801.34	20.33
801.516	20.01
801.692	20.55
801.869	19.99
802.045	21.65
802.221	21.62
802.398	20.86
802.574	20.57
802.75	22.1
802.926	22.69
803.103	21.85
803.279	22.44
803.455	22.45
803.631	22.77
803.807	23.76
803.983	23.38
804.16	24.1
804.336	25.4
804.512	26.25
804.688	25.59
804.864	26.36
805.04	27.51
805.216	27.46
805.392	27.48
805.568	26.61
805.744	25.54
805.92	24.27
806.096	23.06
806.272	23.02
806.448	22.53
806.623	22.59
806.799	21.86
806.975	20.8
807.151	20.25
807.327	20.54
807.503	20.55
807.678	20.95
807.854	21.56
808.03	22.76
808.206	21.16
808.381	20.64
808.557	21.32
808.733	21.45
808.908	21.68
809.084	21.43
809.26	21.05
809.435	21.24
809.611	21.94
809.787	21.49
809.962	19.64
810.138	20.58
810.313	21.18
810.489	20.26
810.664	20.12
810.84	20.78
811.015	21.54
811.191	21.63
811.366	22.52
811.542	22.32
811.717	22.24
811.892	23.67
812.068	24.1
812.243	23.12
812.419	22.9
812.594	21.35
812.769	21.17
812.944	20.74
813.12	20.7
813.295	19.81
813.47	18.8
813.645	17.89
813.821	17.45
813.996	17.78
814.171	17.62
814.346	17.68
814.521	20.24
814.697	19.23
814.872	18.63
815.047	18.68
815.222	19.5
815.397	19.78
815.572	20.64
815.747	21.06
815.922	20.64
816.097	20.91
816.272	20.29
816.447	20.36
816.622	20.34
816.797	21.51
816.972	22.25
817.147	22.41
817.322	22.52
817.496	23.75
817.671	22.47
817.846	23.62
818.021	23.95
818.196	24.99
818.371	23.65
818.545	24.32
818.72	24.46
818.895	24.33
819.069	23.43
819.244	24.16
819.419	23.63
819.594	24.85
819.768	24.7
819.943	24.43
820.117	23.57
820.292	24.21
820.467	23.98
820.641	24.14
820.816	23.34
820.99	23.3
821.165	23.32
821.339	23
821.514	22.63
821.688	22.36
821.863	22.21
822.037	22.14
822.212	22.03
822.386	22.08
822.56	21.79
822.735	22.11
822.909	22.46
823.084	22.12
823.258	22.22
823.432	22.13
823.606	22.23
823.781	22.49
823.955	22.83
824.129	22.8
824.303	22.66
824.478	22.63
824.652	22.14
824.826	21.68
825	21.96
825.174	21.93
825.348	22.44
825.523	22.47
825.697	22.31
825.871	22.26
826.045	22.64
826.219	22.7
826.393	22.68
826.567	23.05
826.741	23.13
826.915	23.12
827.089	23.69
827.263	23.38
827.437	23.3
827.611	23.39
827.784	23.26
827.958	22.86
828.132	23.16
828.306	23.61
828.48	23.44
828.654	22.68
828.827	22.62
829.001	21
829.175	21.02
829.349	21.46
829.522	20.78
829.696	21.51
829.87	21.15
830.044	20.83
830.217	20.2
830.391	19.52
830.565	21.1
830.738	20.65
830.912	22.02
831.085	22.6
831.259	22.08
831.432	23.68
831.606	23.47
831.779	23.5
831.953	24.09
832.126	24.42
832.3	25.42
832.473	24.61
832.647	24.68
832.82	25.09
832.994	24.26
833.167	24.42
833.34	23.8
833.514	23.54
833.687	23.59
833.86	22.98
834.034	22.88
834.207	21.89
834.38	22.03
834.553	21.99
834.727	21.45
834.9	21.18
835.073	21.31
835.246	21.52
835.419	20.85
835.593	20.58
835.766	21.28
835.939	21.61
836.112	22.73
836.285	23.41
836.458	23.69
836.631	23.84
836.804	23.87
836.977	22.89
837.15	23.1
837.323	23.96
837.496	24.45
837.669	23.71
837.842	24.29
838.015	24.99
838.188	23.25
838.361	22.75
838.533	23.82
838.706	24.88
838.879	24.29
839.052	25.12
839.225	25.03
839.398	25.93
839.57	27.08
839.743	25.08
839.916	25.4
840.088	27.5
840.261	27.26
840.434	26.83
840.607	26.34
840.779	28.54
840.952	26.52
841.124	25.94
841.297	25.62
841.47	24.65
841.642	26.05
841.815	25.59
841.987	23.29
842.16	24.99
842.332	24.24
842.505	26.03
842.677	22.59
842.85	23.29
843.022	24.88
843.194	23.33
843.367	23.75
843.539	23.55
843.712	23.98
843.884	24.67
844.056	25.62
844.229	25.35
844.401	23.2
844.573	24.82
844.745	22.03
844.918	20.35
845.09	22.52
845.262	21.16
845.434	22.34
845.606	20.73
845.779	21.08
845.951	19.36
846.123	19.22
846.295	19.61
846.467	21.28
846.639	24.51
846.811	25.87
846.983	25.16
847.155	27.56
847.327	28.44
847.499	29.67
847.671	30.29
847.843	29.26
848.015	28.67
848.187	29.22
848.359	26.25
848.531	27.96
848.703	28.46
848.875	30.25
849.047	29.04
849.218	28.15
849.39	28.1
849.562	28.39
849.734	27.35
849.905	30.29
850.077	30.06
850.249	28.32
850.421	27.52
850.592	27.71
850.764	25.14
850.936	24.51
851.107	23.88
851.279	22.93
851.451	22.76
851.622	25.32
851.794	23.47
851.965	25.49
852.137	30.94
852.308	27.48
852.48	27.99
852.651	30.8
852.823	31.65
852.994	30.29
853.166	30.95
853.337	29.07
853.509	27.96
853.68	26.87
853.851	25.14
854.023	25.28
854.194	24.33
854.365	25.71
854.537	21.01
854.708	21.68
854.879	23.67
855.05	24.83
855.222	24.28
855.393	24.37
855.564	26.3
855.735	26.61
855.906	26.23
856.078	30.31
856.249	29.51
856.42	33.57
856.591	30.16
856.762	29.13
856.933	27.49
857.104	26.62
857.275	27.91
857.446	26.45
857.617	25.74
857.788	26.45
857.959	23.43
858.13	20.07
858.301	18.95
858.472	20.31
858.643	21.15
858.814	20.01
858.985	25.83
859.155	25.3
859.326	28.66
859.497	27.28
859.668	23.22
859.839	25.77
860.009	26.55
860.18	24.56
860.351	27.04
860.522	22.61
860.692	22.3
860.863	20.29
861.034	23.15
861.204	18.06
861.375	19.01
861.546	23.21
861.716	20.92
861.887	21.39
862.057	23.74
862.228	20.54
862.398	24.34
862.569	23.2
862.739	22.83
862.91	20.8
863.08	22.76
863.251	23.49
863.421	20.77
863.592	26.2
863.762	27.95
863.932	27.61
864.103	30.66
864.273	32.56
864.443	35.67
864.614	38.06
864.784	35.69
864.954	33.85
865.125	32.01
865.295	32.76
865.465	28.64
865.635	27.07
865.805	24.84
865.976	25.42
866.146	23.17
866.316	22.97
866.486	16.9
866.656	18.13
866.826	20.66
866.996	22.95
867.166	21.63
867.336	23.63
867.506	26.56
867.676	25.41
867.846	24.32
868.016	23.74
868.186	24.72
868.356	27.64
868.526	28.75
868.696	24.18
868.866	19.59
869.036	22.03
869.206	20.88
869.376	19.5
869.545	22.69
869.715	23.6
869.885	22.66
870.055	19.68
870.224	21.22
870.394	20.57
870.564	21.71
870.734	28.95
870.903	26.52
871.073	28.08
871.243	26.36
871.412	25.34
871.582	21.89
871.751	24.37
871.921	21.57
872.091	21.52
872.26	20.21
872.43	22.27
872.599	17.04
872.769	19.26
872.938	21.32
873.108	20
873.277	20.42
873.446	22.48
873.616	22.22
873.785	24.55
873.955	19.9
874.124	19.37
874.293	20.09
874.463	23.28
874.632	23.25
874.801	19.48
874.971	22.53
875.14	22.62
875.309	21.86
875.478	19.46
875.647	20.77
875.817	24.58
875.986	25.27
876.155	23.68
876.324	22.84
876.493	23.46
876.662	25.45
876.831	25.57
877	25.72
877.17	26.27
877.339	32.8
877.508	30.8
877.677	31.8
877.846	30.86
878.015	30.63
878.184	28.57
878.352	27.29
878.521	27.17
878.69	27.73
878.859	29.02
879.028	28.05
879.197	23.95
879.366	24.83
879.534	25.43
879.703	26
879.872	26.49
880.041	26.08
880.21	24.53
880.378	24.48
880.547	22.6
880.716	23.24
880.884	23.08
881.053	23.08
881.222	22.36
881.39	21.09
881.559	21.12
881.727	20.92
881.896	21.04
882.065	21.94
882.233	21.72
882.402	22.12
882.57	21.19
882.739	21.68
882.907	22.57
883.076	23.2
883.244	24.08
883.412	23.46
883.581	24.18
883.749	25.18
883.918	24.92
884.086	24.34
884.254	25.27
884.423	25.07
884.591	24.84
884.759	24.26
884.927	23.6
885.096	23.56
885.264	24.8
885.432	23.39
885.6	21.52
885.769	21.15
885.937	22.35
886.105	20.47
886.273	20.47
886.441	21.65
886.609	20.89
886.777	21.91
886.945	22.39
887.113	21.76
887.281	20.75
887.449	21.64
887.617	21.13
887.785	18.38
887.953	19.31
888.121	20.48
888.289	18.04
888.457	18.67
888.625	18.26
888.793	14.42
888.961	14.64
889.129	18.75
889.296	20.14
889.464	20.85
889.632	25.94
889.8	25.43
889.967	24.82
890.135	24.66
