Data from 2938476_Reflection_2.txt Node
Date: Wed Jun 17 13:16:33 EDT 2015
User: robert
Spectrometer: USB4E03002
Autoset integration time: false
Trigger mode: 4
Integration Time (sec): 1.000000E-1
Scans to average: 10
Electric dark correction enabled: true
Nonlinearity correction enabled: false
Boxcar width: 5
Stray light correction enabled: false
XAxis mode: Wavelengths
Stop averaging: false
Number of Pixels in Spectrum: 3648
>>>>>Begin Spectral Data<<<<<
177.575	289.22
177.794	61.47
178.014	52.45
178.233	91.29
178.452	116.43
178.672	169.95
178.891	69.86
179.11	-180.94
179.33	-150.8
179.549	-372.71
179.768	-347
179.987	-196.99
180.207	-87.31
180.426	-275.06
180.645	-402.52
180.864	-94.3
181.084	-57.48
181.303	-37.59
181.522	6.45
181.741	-15.22
181.96	2.48
182.179	41.57
182.398	331.94
182.618	-225.74
182.837	-234.11
183.056	24.56
183.275	20.97
183.494	15.48
183.713	18.51
183.932	23.66
184.151	-1.59
184.37	26.06
184.589	81.71
184.808	133.97
185.027	147.92
185.246	129.72
185.465	92.18
185.684	166.16
185.903	1127.54
186.122	155.22
186.341	122.15
186.56	120.32
186.779	116.09
186.998	77.15
187.216	13.21
187.435	30.85
187.654	42.83
187.873	81.51
188.092	207.59
188.311	287.96
188.53	-226.9
188.748	-139.69
188.967	-157.9
189.186	-365.89
189.405	-308.54
189.623	-300.54
189.842	-97.28
190.061	-128.11
190.28	-186.99
190.498	-285.33
190.717	-601.18
190.936	-1230.2
191.154	1022.8
191.373	-5213.33
191.592	-2088.42
191.81	592.73
192.029	515.93
192.248	268.06
192.466	242.67
192.685	196.73
192.904	354.43
193.122	1047.84
193.341	1428.32
193.559	-136.09
193.778	-155.24
193.996	-72.7
194.215	14.39
194.433	29.51
194.652	54.35
194.87	49.83
195.089	68.66
195.307	174.68
195.526	163.7
195.744	135.98
195.963	108.19
196.181	151.17
196.399	133.06
196.618	132.11
196.836	119
197.055	155.42
197.273	177.94
197.491	256.53
197.71	294.56
197.928	216.42
198.146	163.55
198.365	161.83
198.583	126.05
198.801	132.29
199.019	155.86
199.238	134.44
199.456	110.66
199.674	112.68
199.892	67.54
200.111	85.07
200.329	130.01
200.547	164.75
200.765	167.76
200.983	139.23
201.202	93.88
201.42	83.94
201.638	172.11
201.856	167.83
202.074	134.72
202.292	212.82
202.51	179.04
202.728	74.48
202.946	71.73
203.165	74.99
203.383	86.31
203.601	100.44
203.819	88.15
204.037	67.53
204.255	73.18
204.473	77.08
204.691	95.11
204.909	89.13
205.127	95.76
205.345	137.01
205.562	173.19
205.78	163.88
205.998	298.1
206.216	266.84
206.434	783.21
206.652	161.98
206.87	207.93
207.088	112.62
207.306	93.72
207.523	83.28
207.741	85.61
207.959	78.54
208.177	72.43
208.395	50.39
208.612	45.35
208.83	28.76
209.048	4.37
209.266	22.3
209.483	19.18
209.701	-8.04
209.919	-70.38
210.136	-132.24
210.354	-62.52
210.572	-242.21
210.79	-152.74
211.007	-59.49
211.225	-310.76
211.442	-11.35
211.66	-11.6
211.878	12.22
212.095	16.63
212.313	44.56
212.53	49.58
212.748	53.07
212.966	45.84
213.183	63.59
213.401	50.46
213.618	55.28
213.836	48.01
214.053	52.86
214.271	65.3
214.488	41.51
214.705	47.13
214.923	39.56
215.14	46.09
215.358	48.26
215.575	48.85
215.793	55.28
216.01	57.2
216.227	56.86
216.445	53.6
216.662	44.22
216.879	55.96
217.097	40.43
217.314	46.69
217.531	41.62
217.749	43.38
217.966	28.27
218.183	26.93
218.4	17.53
218.618	23.57
218.835	27.05
219.052	22.56
219.269	27.38
219.487	42.61
219.704	38.18
219.921	35.06
220.138	34.8
220.355	46.57
220.572	44.11
220.79	42.4
221.007	40.07
221.224	32.22
221.441	42.16
221.658	42.71
221.875	41.46
222.092	33.68
222.309	34.15
222.526	35.56
222.743	29.09
222.96	34.76
223.177	29.07
223.394	30.97
223.611	31.38
223.828	28.3
224.045	26.35
224.262	20.4
224.479	17.25
224.696	19.13
224.913	15.2
225.13	12.27
225.347	8.77
225.564	12.67
225.781	11.38
225.997	11.21
226.214	12.07
226.431	8.7
226.648	10.79
226.865	11.86
227.082	11.56
227.298	12.25
227.515	11.37
227.732	11.42
227.949	10.7
228.165	11.09
228.382	11.72
228.599	10.7
228.816	12.54
229.032	12.6
229.249	14.29
229.466	13.9
229.682	15.16
229.899	14.81
230.116	15.92
230.332	18.47
230.549	17.33
230.765	18.24
230.982	20.52
231.199	18.82
231.415	17.31
231.632	14.34
231.848	15.29
232.065	14.29
232.281	16.28
232.498	16.46
232.714	13.94
232.931	14.94
233.147	14.56
233.364	14.28
233.58	13.22
233.797	13.84
234.013	16.49
234.23	15.25
234.446	15.89
234.662	15.48
234.879	15.21
235.095	16.05
235.312	17.09
235.528	14.43
235.744	14.41
235.961	15.31
236.177	14.18
236.393	12.78
236.61	15.44
236.826	13.25
237.042	12.47
237.258	13.89
237.475	13.64
237.691	12.88
237.907	14.06
238.123	13.77
238.339	14.86
238.556	14.43
238.772	13.57
238.988	13.3
239.204	14
239.42	14.4
239.636	13.84
239.853	13.01
240.069	11.7
240.285	12
240.501	11.21
240.717	10.57
240.933	10.58
241.149	10.85
241.365	10.07
241.581	9.8
241.797	9.97
242.013	8.92
242.229	8.67
242.445	9.42
242.661	8.78
242.877	9.11
243.093	9.12
243.309	10.22
243.525	10.47
243.741	10.76
243.957	9.99
244.173	9.69
244.388	10.67
244.604	10.97
244.82	10.95
245.036	10.99
245.252	10.74
245.468	10.87
245.683	10.31
245.899	10.01
246.115	10.31
246.331	10.99
246.547	10.71
246.762	10.61
246.978	10.81
247.194	10.81
247.409	10.9
247.625	11.16
247.841	10.9
248.057	10.94
248.272	11
248.488	10.14
248.703	9.09
248.919	9.49
249.135	8.92
249.35	9.97
249.566	9.73
249.782	9.45
249.997	10.06
250.213	9.98
250.428	10.61
250.644	10.64
250.859	10.97
251.075	11.29
251.29	11.56
251.506	11.28
251.721	10.22
251.937	10.29
252.152	11.08
252.368	10.19
252.583	10.78
252.798	10.65
253.014	11.05
253.229	10.96
253.445	10.52
253.66	9.42
253.875	9.28
254.091	8.93
254.306	9.13
254.521	8.64
254.737	8.91
254.952	9.49
255.167	8.76
255.383	8.53
255.598	8.29
255.813	8.9
256.028	9.65
256.244	10.42
256.459	10.38
256.674	10.11
256.889	9.51
257.104	9.03
257.32	8.67
257.535	8.62
257.75	8.27
257.965	8.15
258.18	8.21
258.395	8.17
258.61	8.12
258.826	8.33
259.041	8.56
259.256	8.83
259.471	9.21
259.686	9.23
259.901	8.95
260.116	9.48
260.331	9.75
260.546	9.54
260.761	9.36
260.976	9.01
261.191	8.37
261.406	7.76
261.621	6.59
261.836	6.07
262.05	5.37
262.265	5.75
262.48	5.06
262.695	5.39
262.91	5.67
263.125	6.22
263.34	7.04
263.555	7.08
263.769	7.82
263.984	9.26
264.199	9.03
264.414	9.26
264.629	9.56
264.843	9.76
265.058	8.95
265.273	8.67
265.488	8.32
265.702	7.44
265.917	7.52
266.132	7.43
266.346	7.28
266.561	7.29
266.776	7.26
266.99	7.08
267.205	7.02
267.42	7.19
267.634	7.84
267.849	8.03
268.063	8.35
268.278	8.57
268.492	8.25
268.707	7.74
268.922	7.79
269.136	7.86
269.351	7.39
269.565	7.68
269.78	8.32
269.994	7.31
270.209	7.25
270.423	7
270.637	6.94
270.852	7.01
271.066	7.06
271.281	7.18
271.495	7.19
271.709	7.57
271.924	7.29
272.138	7.03
272.353	7.33
272.567	7.06
272.781	7.57
272.996	7.47
273.21	7.92
273.424	8.17
273.638	8.35
273.853	8.13
274.067	8.47
274.281	8.41
274.495	8.31
274.71	8.59
274.924	8.85
275.138	8.53
275.352	8.49
275.566	7.98
275.781	7.96
275.995	7.93
276.209	8.3
276.423	7.75
276.637	7.88
276.851	7.8
277.065	7.86
277.279	7.39
277.493	7.2
277.707	7.26
277.921	7.69
278.135	7.54
278.349	7.62
278.563	7.18
278.777	7.7
278.991	7.33
279.205	7.56
279.419	7.57
279.633	7.97
279.847	8.41
280.061	8.37
280.275	8.34
280.489	8.08
280.703	8.47
280.917	8.58
281.131	8.36
281.344	8.56
281.558	8.14
281.772	7.59
281.986	7.3
282.2	7.16
282.414	7.4
282.627	7.38
282.841	7.48
283.055	6.98
283.269	7.31
283.482	7.01
283.696	6.96
283.91	7.04
284.123	7.72
284.337	8.03
284.551	8.17
284.764	8.14
284.978	8.2
285.192	8.41
285.405	8.33
285.619	8.15
285.833	8.54
286.046	8.52
286.26	8.76
286.473	8.15
286.687	8.05
286.9	7.67
287.114	7.87
287.327	7.63
287.541	7.72
287.754	8.48
287.968	8.39
288.181	8.41
288.395	8.3
288.608	7.86
288.822	8.16
289.035	8.22
289.248	8.37
289.462	7.98
289.675	8.06
289.889	8.45
290.102	7.86
290.315	7.83
290.529	7.72
290.742	8.4
290.955	8.71
291.169	8.73
291.382	8.96
291.595	9.32
291.808	9.78
292.022	9.8
292.235	9.57
292.448	9.58
292.661	9.68
292.875	9.7
293.088	9.19
293.301	9.18
293.514	8.81
293.727	9.02
293.94	8.73
294.153	8.42
294.367	8.37
294.58	8.45
294.793	8.67
295.006	8.76
295.219	8.95
295.432	8.9
295.645	8.77
295.858	9
296.071	8.9
296.284	8.96
296.497	8.73
296.71	8.73
296.923	8.54
297.136	8.19
297.349	7.95
297.562	8.07
297.775	8.54
297.988	8.95
298.201	8.94
298.414	8.93
298.626	9.03
298.839	9.97
299.052	10.02
299.265	10.12
299.478	10.4
299.691	10.45
299.903	10.47
300.116	10.04
300.329	10.26
300.542	10.53
300.755	10.31
300.967	10.2
301.18	9.39
301.393	9.31
301.605	9.07
301.818	8.86
302.031	8.97
302.243	8.48
302.456	8.58
302.669	7.94
302.881	7.61
303.094	7.68
303.307	8.13
303.519	8.08
303.732	8.25
303.944	8.01
304.157	8.03
304.37	7.87
304.582	8
304.795	8.19
305.007	8.53
305.22	8.71
305.432	9.11
305.645	8.77
305.857	8.7
306.069	9.07
306.282	9.73
306.494	9.91
306.707	10.02
306.919	9.48
307.132	9.14
307.344	9.05
307.556	9.37
307.769	8.83
307.981	9.39
308.193	10.1
308.406	9.93
308.618	9.72
308.83	9.98
309.043	9.94
309.255	10.35
309.467	10.63
309.679	10.65
309.892	10.67
310.104	10.97
310.316	10.57
310.528	10.14
310.74	9.95
310.953	9.92
311.165	9.2
311.377	8.9
311.589	9.13
311.801	8.97
312.013	9.25
312.225	9.33
312.437	9.3
312.649	9.3
312.862	9.34
313.074	9.94
313.286	10.31
313.498	10.7
313.71	11.03
313.922	10.85
314.134	11.05
314.346	10.85
314.558	10.65
314.77	10.57
314.982	10.25
315.193	10.39
315.405	9.92
315.617	9.48
315.829	9.51
316.041	10.09
316.253	10.35
316.465	10.25
316.677	10.11
316.888	9.93
317.1	9.82
317.312	10.14
317.524	10.7
317.736	10.45
317.947	10.9
318.159	10.95
318.371	11.06
318.583	11.01
318.794	11.02
319.006	11.31
319.218	10.97
319.43	11.3
319.641	11.62
319.853	11.93
320.064	12.26
320.276	12.16
320.488	12.09
320.699	11.98
320.911	11.96
321.123	11.88
321.334	11.6
321.546	12.06
321.757	11.94
321.969	12.15
322.18	11.67
322.392	11.53
322.603	11.54
322.815	11.33
323.026	11.71
323.238	11.31
323.449	10.95
323.661	11.24
323.872	11.13
324.083	11.03
324.295	10.64
324.506	10.44
324.718	10.61
324.929	10.19
325.14	10.64
325.352	10.08
325.563	10.24
325.774	10.6
325.986	10.49
326.197	10.9
326.408	11.02
326.62	11.03
326.831	10.96
327.042	10.91
327.253	11.16
327.464	11.39
327.676	11.56
327.887	11.46
328.098	11.6
328.309	11.94
328.52	11.8
328.732	11.94
328.943	12.1
329.154	12.32
329.365	12.17
329.576	12.35
329.787	12.16
329.998	12.51
330.209	12.77
330.42	13.03
330.631	12.31
330.842	12.31
331.053	12.32
331.264	11.75
331.475	11.94
331.686	12.07
331.897	11.98
332.108	11.82
332.319	11.44
332.53	11.8
332.741	11.43
332.952	11.6
333.163	11.63
333.374	11.48
333.585	11.93
333.795	11.82
334.006	11.64
334.217	11.52
334.428	11.69
334.639	12.25
334.849	11.47
335.06	11.59
335.271	12.09
335.482	11.85
335.692	11.94
335.903	11.92
336.114	11.73
336.325	12.01
336.535	11.91
336.746	12.02
336.957	12.02
337.167	12.38
337.378	12.58
337.589	12.26
337.799	12.27
338.01	12.36
338.22	12.83
338.431	13.08
338.642	13.25
338.852	13.18
339.063	12.92
339.273	12.52
339.484	12.52
339.694	12.08
339.905	12.16
340.115	12.26
340.326	12.08
340.536	11.56
340.746	11.39
340.957	11.31
341.167	11.49
341.378	11.56
341.588	11.57
341.799	11.67
342.009	11.71
342.219	11.82
342.43	12.24
342.64	12
342.85	11.82
343.061	12.05
343.271	12.01
343.481	12.07
343.691	11.94
343.902	11.68
344.112	11.8
344.322	12.09
344.532	11.9
344.743	11.3
344.953	11.5
345.163	11.35
345.373	10.77
345.583	10.49
345.793	9.99
346.004	10.44
346.214	10.51
346.424	10.17
346.634	10.42
346.844	10.44
347.054	10.58
347.264	10.26
347.474	10.52
347.684	10.62
347.894	10.59
348.104	10.79
348.314	10.43
348.524	10.61
348.734	10.67
348.944	10.59
349.154	10.72
349.364	11.05
349.574	11.39
349.784	11.33
349.994	11.9
350.204	11.93
350.413	12.4
350.623	12.2
350.833	11.84
351.043	11.7
351.253	11.19
351.463	11.37
351.672	10.93
351.882	11.13
352.092	11.25
352.302	10.76
352.511	10.85
352.721	10.77
352.931	10.7
353.141	10.81
353.35	11.03
353.56	11.2
353.77	10.84
353.979	10.73
354.189	10.4
354.399	10.46
354.608	10.26
354.818	9.87
355.027	9.93
355.237	10.06
355.447	9.9
355.656	10.01
355.866	9.75
356.075	9.74
356.285	9.92
356.494	9.9
356.704	9.92
356.913	10.31
357.123	10.8
357.332	10.77
357.542	10.84
357.751	11
357.96	10.63
358.17	10.75
358.379	10.84
358.589	10.53
358.798	10.46
359.007	10.65
359.217	10.45
359.426	10.29
359.635	10.23
359.845	10.26
360.054	10.16
360.263	10.14
360.472	10.14
360.682	10.13
360.891	10.45
361.1	10.45
361.309	10.11
361.519	10.23
361.728	10.16
361.937	10.02
362.146	10.07
362.355	10.24
362.564	10.24
362.774	10.31
362.983	10.31
363.192	9.79
363.401	9.78
363.61	9.88
363.819	10.02
364.028	10.28
364.237	10.24
364.446	10.01
364.655	9.9
364.864	9.93
365.073	9.68
365.282	9.48
365.491	9.71
365.7	9.86
365.909	9.82
366.118	9.71
366.327	9.43
366.536	9.29
366.745	9.47
366.954	9.11
367.162	9.43
367.371	9.32
367.58	9.27
367.789	9.36
367.998	9.29
368.207	9.05
368.415	8.79
368.624	8.97
368.833	8.94
369.042	8.87
369.25	9.12
369.459	8.95
369.668	9.16
369.877	9.14
370.085	9.1
370.294	8.99
370.503	9.06
370.711	9.23
370.92	8.97
371.129	9
371.337	8.66
371.546	8.3
371.754	8.06
371.963	8.21
372.171	8.29
372.38	8.1
372.589	8.24
372.797	8.36
373.006	7.99
373.214	8.2
373.423	8.08
373.631	8.36
373.84	8.59
374.048	8.79
374.256	8.61
374.465	8.25
374.673	8.38
374.882	8.19
375.09	7.9
375.298	7.99
375.507	7.76
375.715	7.94
375.923	7.85
376.132	7.92
376.34	7.96
376.548	7.86
376.757	8.19
376.965	7.95
377.173	7.99
377.381	8.03
377.59	8.31
377.798	8.56
378.006	8.63
378.214	8.48
378.423	8.32
378.631	7.89
378.839	8.02
379.047	7.9
379.255	8
379.463	8.11
379.671	8.29
379.879	8.01
380.088	8.01
380.296	7.99
380.504	7.89
380.712	8.07
380.92	8.19
381.128	8.24
381.336	8.23
381.544	8.11
381.752	7.66
381.96	7.55
382.168	7.54
382.376	7.29
382.584	7.05
382.791	7.22
382.999	7.1
383.207	7.25
383.415	7.04
383.623	6.96
383.831	6.98
384.039	7.47
384.247	7.48
384.454	7.44
384.662	7.28
384.87	7.27
385.078	7.25
385.285	7.23
385.493	7.37
385.701	7.52
385.909	7.43
386.116	7.53
386.324	7.34
386.532	7.11
386.739	7.25
386.947	7.47
387.155	7.58
387.362	7.36
387.57	7.22
387.778	6.83
387.985	6.63
388.193	6.98
388.4	6.88
388.608	6.79
388.816	6.79
389.023	6.61
389.231	6.51
389.438	6.32
389.646	6.46
389.853	6.51
390.061	6.6
390.268	6.7
390.475	6.49
390.683	6.53
390.89	6.52
391.098	6.54
391.305	6.47
391.512	6.36
391.72	6.34
391.927	6.33
392.135	6.24
392.342	6.2
392.549	6.26
392.756	6.16
392.964	6.2
393.171	6.2
393.378	6.11
393.586	6.08
393.793	6.1
394	6.2
394.207	6.36
394.414	6.39
394.622	6.23
394.829	6
395.036	5.9
395.243	5.78
395.45	5.68
395.657	5.81
395.864	5.9
396.072	5.95
396.279	6.04
396.486	5.54
396.693	5.6
396.9	5.66
397.107	5.59
397.314	5.86
397.521	6.08
397.728	6.03
397.935	6.28
398.142	6.17
398.349	6.21
398.556	5.96
398.763	6.27
398.97	5.95
399.177	6.11
399.383	6.15
399.59	5.87
399.797	5.66
400.004	5.78
400.211	5.47
400.418	5.54
400.625	5.47
400.831	5.45
401.038	5.34
401.245	5.61
401.452	5.58
401.658	5.66
401.865	5.75
402.072	5.69
402.279	5.68
402.485	5.55
402.692	5.59
402.899	5.62
403.105	5.72
403.312	5.82
403.519	5.93
403.725	5.78
403.932	5.83
404.138	5.87
404.345	5.89
404.552	5.9
404.758	6.08
404.965	6.09
405.171	6.02
405.378	5.88
405.584	5.84
405.791	5.71
405.997	5.78
406.204	5.83
406.41	5.74
406.617	5.76
406.823	5.77
407.029	5.61
407.236	5.6
407.442	5.67
407.649	5.81
407.855	5.77
408.061	5.79
408.268	5.75
408.474	5.55
408.68	5.71
408.887	5.63
409.093	5.74
409.299	5.82
409.505	5.73
409.712	5.73
409.918	5.65
410.124	5.62
410.33	5.62
410.537	5.7
410.743	5.84
410.949	5.59
411.155	5.66
411.361	5.49
411.567	5.45
411.773	5.56
411.98	5.45
412.186	5.5
412.392	5.56
412.598	5.47
412.804	5.41
413.01	5.23
413.216	5.33
413.422	5.33
413.628	5.3
413.834	5.38
414.04	5.14
414.246	5.18
414.452	5.06
414.658	5.11
414.864	5.12
415.07	5.1
415.275	5.21
415.481	5.19
415.687	5.13
415.893	5.2
416.099	5.13
416.305	5.24
416.511	5.22
416.716	5.33
416.922	5.31
417.128	5.34
417.334	5.34
417.539	5.35
417.745	5.29
417.951	5.35
418.157	5.28
418.362	5.28
418.568	5.33
418.774	5.31
418.979	5.31
419.185	5.26
419.391	5.25
419.596	5.29
419.802	5.21
420.008	5.29
420.213	5.26
420.419	5.24
420.624	5.23
420.83	5.12
421.035	5.1
421.241	5
421.446	4.99
421.652	5.02
421.857	5.04
422.063	5.04
422.268	4.94
422.474	4.9
422.679	4.89
422.885	4.85
423.09	4.86
423.295	4.91
423.501	5.01
423.706	5.06
423.911	5.05
424.117	5.01
424.322	5.07
424.527	5.1
424.733	5.09
424.938	5.23
425.143	5.25
425.349	5.3
425.554	5.29
425.759	5.28
425.964	5.16
426.169	5.08
426.375	5.07
426.58	4.95
426.785	4.98
426.99	5.01
427.195	4.88
427.4	4.83
427.605	4.82
427.811	4.75
428.016	4.71
428.221	4.83
428.426	4.81
428.631	4.69
428.836	4.72
429.041	4.73
429.246	4.72
429.451	4.7
429.656	4.9
429.861	4.95
430.066	5.02
430.271	4.99
430.476	4.82
430.681	4.87
430.886	5
431.09	4.98
431.295	4.91
431.5	4.84
431.705	4.85
431.91	4.72
432.115	4.68
432.32	4.67
432.524	4.71
432.729	4.8
432.934	4.85
433.139	4.77
433.343	4.8
433.548	4.84
433.753	4.92
433.958	4.86
434.162	4.93
434.367	4.98
434.572	4.99
434.776	4.94
434.981	4.95
435.186	5.02
435.39	5.07
435.595	5.06
435.799	5.12
436.004	5.15
436.209	5.19
436.413	5.12
436.618	5.02
436.822	4.93
437.027	4.97
437.231	4.96
437.436	4.81
437.64	4.76
437.845	4.85
438.049	4.74
438.253	4.69
438.458	4.73
438.662	4.8
438.867	4.82
439.071	4.87
439.275	4.8
439.48	4.8
439.684	4.78
439.888	4.84
440.093	4.77
440.297	4.87
440.501	4.88
440.706	4.86
440.91	4.81
441.114	4.9
441.318	4.8
441.523	4.85
441.727	4.96
441.931	4.99
442.135	4.97
442.339	4.93
442.543	4.86
442.748	4.76
442.952	4.73
443.156	4.74
443.36	4.72
443.564	4.86
443.768	4.84
443.972	4.69
444.176	4.69
444.38	4.7
444.584	4.65
444.788	4.63
444.992	4.72
445.196	4.65
445.4	4.65
445.604	4.58
445.808	4.57
446.012	4.5
446.216	4.56
446.42	4.58
446.624	4.58
446.828	4.69
447.032	4.77
447.235	4.79
447.439	4.78
447.643	4.72
447.847	4.71
448.051	4.67
448.254	4.69
448.458	4.64
448.662	4.58
448.866	4.62
449.069	4.53
449.273	4.46
449.477	4.43
449.681	4.54
449.884	4.58
450.088	4.57
450.292	4.53
450.495	4.59
450.699	4.57
450.902	4.52
451.106	4.42
451.31	4.39
451.513	4.42
451.717	4.33
451.92	4.33
452.124	4.36
452.327	4.46
452.531	4.49
452.734	4.45
452.938	4.43
453.141	4.53
453.345	4.49
453.548	4.49
453.752	4.49
453.955	4.5
454.158	4.46
454.362	4.44
454.565	4.35
454.769	4.35
454.972	4.33
455.175	4.44
455.379	4.39
455.582	4.4
455.785	4.33
455.988	4.33
456.192	4.39
456.395	4.45
456.598	4.48
456.801	4.49
457.005	4.53
457.208	4.63
457.411	4.59
457.614	4.58
457.817	4.6
458.021	4.62
458.224	4.63
458.427	4.61
458.63	4.59
458.833	4.56
459.036	4.59
459.239	4.55
459.442	4.49
459.645	4.57
459.848	4.64
460.051	4.77
460.254	4.89
460.457	4.88
460.66	4.88
460.863	4.87
461.066	5
461.269	5.05
461.472	5.03
461.675	5.06
461.878	5.05
462.081	5.02
462.284	4.87
462.486	4.73
462.689	4.76
462.892	4.81
463.095	4.84
463.298	4.68
463.5	4.52
463.703	4.59
463.906	4.59
464.109	4.4
464.311	4.42
464.514	4.38
464.717	4.49
464.92	4.39
465.122	4.37
465.325	4.26
465.528	4.33
465.73	4.52
465.933	4.54
466.135	4.52
466.338	4.57
466.541	4.51
466.743	4.61
466.946	4.45
467.148	4.51
467.351	4.46
467.553	4.58
467.756	4.5
467.958	4.39
468.161	4.4
468.363	4.49
468.566	4.51
468.768	4.54
468.971	4.45
469.173	4.44
469.375	4.46
469.578	4.47
469.78	4.53
469.983	4.58
470.185	4.68
470.387	4.72
470.59	4.66
470.792	4.71
470.994	4.66
471.196	4.8
471.399	4.91
471.601	5.06
471.803	5.11
472.005	5.07
472.208	5.01
472.41	4.93
472.612	4.83
472.814	4.84
473.016	4.76
473.218	4.85
473.421	4.78
473.623	4.8
473.825	4.58
474.027	4.57
474.229	4.57
474.431	4.61
474.633	4.64
474.835	4.64
475.037	4.66
475.239	4.65
475.441	4.59
475.643	4.5
475.845	4.54
476.047	4.61
476.249	4.64
476.451	4.61
476.653	4.67
476.855	4.63
477.057	4.63
477.258	4.67
477.46	4.7
477.662	4.81
477.864	4.89
478.066	4.81
478.268	4.85
478.469	4.85
478.671	4.82
478.873	4.68
479.075	4.65
479.276	4.66
479.478	4.56
479.68	4.58
479.882	4.51
480.083	4.49
480.285	4.57
480.487	4.54
480.688	4.57
480.89	4.58
481.091	4.64
481.293	4.67
481.495	4.68
481.696	4.68
481.898	4.66
482.099	4.67
482.301	4.65
482.502	4.62
482.704	4.62
482.905	4.6
483.107	4.59
483.308	4.55
483.51	4.51
483.711	4.47
483.913	4.45
484.114	4.48
484.315	4.45
484.517	4.45
484.718	4.44
484.92	4.41
485.121	4.39
485.322	4.42
485.524	4.49
485.725	4.55
485.926	4.56
486.127	4.58
486.329	4.58
486.53	4.59
486.731	4.56
486.932	4.53
487.134	4.56
487.335	4.58
487.536	4.53
487.737	4.51
487.938	4.48
488.139	4.49
488.341	4.51
488.542	4.51
488.743	4.55
488.944	4.62
489.145	4.69
489.346	4.69
489.547	4.7
489.748	4.74
489.949	4.71
490.15	4.72
490.351	4.73
490.552	4.66
490.753	4.64
490.954	4.61
491.155	4.58
491.356	4.53
491.557	4.47
491.758	4.46
491.959	4.42
492.159	4.46
492.36	4.46
492.561	4.43
492.762	4.46
492.963	4.49
493.164	4.54
493.364	4.57
493.565	4.64
493.766	4.73
493.967	4.8
494.167	4.83
494.368	4.85
494.569	4.88
494.769	4.94
494.97	5.04
495.171	5
495.371	4.99
495.572	5.01
495.773	5.04
495.973	5.01
496.174	4.96
496.375	5.06
496.575	5.01
496.776	5
496.976	5
497.177	5.02
497.377	5.03
497.578	4.98
497.778	5.06
497.979	5.08
498.179	5.2
498.38	5.22
498.58	5.14
498.78	5.19
498.981	5.21
499.181	5.27
499.382	5.29
499.582	5.34
499.782	5.41
499.983	5.42
500.183	5.34
500.383	5.33
500.584	5.34
500.784	5.44
500.984	5.41
501.184	5.43
501.385	5.49
501.585	5.51
501.785	5.51
501.985	5.53
502.185	5.54
502.386	5.58
502.586	5.56
502.786	5.58
502.986	5.57
503.186	5.69
503.386	5.69
503.586	5.64
503.786	5.54
503.987	5.6
504.187	5.52
504.387	5.45
504.587	5.46
504.787	5.53
504.987	5.56
505.187	5.53
505.387	5.5
505.587	5.59
505.786	5.64
505.986	5.74
506.186	5.66
506.386	5.77
506.586	5.85
506.786	5.84
506.986	5.85
507.186	5.91
507.386	5.98
507.585	5.96
507.785	5.92
507.985	5.93
508.185	6.02
508.384	6.15
508.584	6.19
508.784	6.15
508.984	6.22
509.183	6.29
509.383	6.33
509.583	6.34
509.782	6.41
509.982	6.47
510.182	6.45
510.381	6.4
510.581	6.37
510.781	6.42
510.98	6.5
511.18	6.5
511.379	6.53
511.579	6.5
511.778	6.52
511.978	6.57
512.177	6.58
512.377	6.6
512.576	6.63
512.776	6.65
512.975	6.64
513.175	6.62
513.374	6.62
513.573	6.51
513.773	6.56
513.972	6.71
514.172	6.72
514.371	6.78
514.57	6.87
514.77	6.94
514.969	6.96
515.168	6.99
515.367	7.05
515.567	7.15
515.766	7.32
515.965	7.29
516.164	7.25
516.364	7.3
516.563	7.29
516.762	7.29
516.961	7.25
517.16	7.25
517.359	7.3
517.559	7.32
517.758	7.35
517.957	7.35
518.156	7.43
518.355	7.41
518.554	7.34
518.753	7.37
518.952	7.35
519.151	7.4
519.35	7.52
519.549	7.47
519.748	7.5
519.947	7.49
520.146	7.5
520.345	7.49
520.544	7.46
520.743	7.56
520.942	7.57
521.141	7.59
521.339	7.59
521.538	7.53
521.737	7.7
521.936	7.69
522.135	7.67
522.333	7.7
522.532	7.67
522.731	7.74
522.93	7.75
523.129	7.77
523.327	7.78
523.526	7.82
523.725	7.82
523.923	7.75
524.122	7.76
524.321	7.82
524.519	7.78
524.718	7.85
524.917	7.79
525.115	7.82
525.314	7.85
525.512	7.9
525.711	7.93
525.909	7.95
526.108	7.99
526.306	8.03
526.505	8.03
526.703	8.06
526.902	8.07
527.1	8.13
527.299	8.14
527.497	8.14
527.696	8.14
527.894	8.13
528.092	8.16
528.291	8.18
528.489	8.16
528.688	8.18
528.886	8.21
529.084	8.23
529.283	8.25
529.481	8.27
529.679	8.32
529.877	8.39
530.076	8.45
530.274	8.45
530.472	8.44
530.67	8.51
530.869	8.51
531.067	8.49
531.265	8.54
531.463	8.51
531.661	8.5
531.859	8.48
532.057	8.49
532.255	8.53
532.454	8.53
532.652	8.55
532.85	8.58
533.048	8.62
533.246	8.68
533.444	8.65
533.642	8.73
533.84	8.78
534.038	8.86
534.236	8.88
534.434	8.87
534.632	8.91
534.83	8.97
535.027	8.96
535.225	8.94
535.423	8.97
535.621	8.98
535.819	8.94
536.017	8.92
536.215	8.92
536.412	8.93
536.61	8.92
536.808	8.96
537.006	8.94
537.203	9.01
537.401	9.06
537.599	9.08
537.797	9.09
537.994	9.21
538.192	9.3
538.39	9.37
538.587	9.4
538.785	9.44
538.983	9.48
539.18	9.58
539.378	9.6
539.575	9.63
539.773	9.61
539.97	9.62
540.168	9.59
540.366	9.61
540.563	9.59
540.761	9.62
540.958	9.66
541.155	9.67
541.353	9.63
541.55	9.62
541.748	9.64
541.945	9.7
542.143	9.76
542.34	9.85
542.537	9.87
542.735	9.92
542.932	9.97
543.129	10.01
543.327	10.04
543.524	10.11
543.721	10.14
543.919	10.16
544.116	10.21
544.313	10.25
544.51	10.25
544.708	10.3
544.905	10.33
545.102	10.27
545.299	10.3
545.496	10.3
545.693	10.33
545.891	10.41
546.088	10.44
546.285	10.38
546.482	10.39
546.679	10.51
546.876	10.55
547.073	10.63
547.27	10.73
547.467	10.79
547.664	10.9
547.861	10.98
548.058	11.08
548.255	11.13
548.452	11.25
548.649	11.32
548.846	11.23
549.043	11.24
549.24	11.24
549.437	11.24
549.633	11.24
549.83	11.33
550.027	11.38
550.224	11.39
550.421	11.5
550.618	11.51
550.814	11.43
551.011	11.62
551.208	11.79
551.405	11.8
551.601	11.86
551.798	11.85
551.995	11.86
552.191	11.91
552.388	11.93
552.585	11.97
552.781	12.16
552.978	12.31
553.175	12.28
553.371	12.23
553.568	12.32
553.764	12.37
553.961	12.45
554.157	12.49
554.354	12.52
554.55	12.58
554.747	12.57
554.943	12.54
555.14	12.59
555.336	12.7
555.533	12.8
555.729	12.9
555.926	13.02
556.122	13.12
556.318	13.23
556.515	13.34
556.711	13.43
556.907	13.58
557.104	13.62
557.3	13.67
557.496	13.72
557.693	13.7
557.889	13.67
558.085	13.7
558.281	13.71
558.478	13.63
558.674	13.51
558.87	13.69
559.066	13.68
559.262	13.83
559.459	13.95
559.655	13.96
559.851	14.1
560.047	14.23
560.243	14.21
560.439	14.32
560.635	14.45
560.831	14.54
561.027	14.36
561.223	14.26
561.419	14.23
561.615	14.2
561.811	14.18
562.007	14.22
562.203	14.25
562.399	14.39
562.595	14.48
562.791	14.6
562.987	14.75
563.183	14.96
563.379	15.14
563.575	15.29
563.771	15.42
563.966	15.53
564.162	15.59
564.358	15.72
564.554	15.8
564.75	15.84
564.945	15.84
565.141	15.91
565.337	15.95
565.533	16.09
565.728	16.11
565.924	16.16
566.12	16.17
566.315	16.23
566.511	16.22
566.707	16.21
566.902	16.26
567.098	16.33
567.293	16.44
567.489	16.44
567.684	16.47
567.88	16.59
568.076	16.68
568.271	16.84
568.467	17.06
568.662	17.13
568.858	17.35
569.053	17.43
569.248	17.58
569.444	17.69
569.639	17.84
569.835	17.92
570.03	17.89
570.225	17.92
570.421	17.97
570.616	17.96
570.812	18.05
571.007	18.12
571.202	18.18
571.397	18.19
571.593	18.22
571.788	18.29
571.983	18.35
572.178	18.56
572.374	18.8
572.569	18.88
572.764	18.98
572.959	19.06
573.154	19.14
573.35	19.19
573.545	19.22
573.74	19.33
573.935	19.4
574.13	19.53
574.325	19.63
574.52	19.56
574.715	19.57
574.91	19.62
575.105	19.73
575.3	19.75
575.495	19.84
575.69	20.02
575.885	20.06
576.08	20.12
576.275	20.09
576.47	20
576.665	20.05
576.86	20.21
577.055	20.26
577.25	20.3
577.444	20.26
577.639	20.48
577.834	20.59
578.029	20.63
578.224	20.69
578.418	20.9
578.613	21.16
578.808	21.16
579.003	21.23
579.197	21.37
579.392	21.39
579.587	21.7
579.781	21.65
579.976	21.74
580.171	21.8
580.365	21.87
580.56	21.9
580.755	21.86
580.949	22.07
581.144	22.06
581.338	22.07
581.533	22.17
581.727	22.22
581.922	22.27
582.116	22.26
582.311	22.33
582.505	22.44
582.7	22.47
582.894	22.58
583.089	22.47
583.283	22.6
583.478	22.75
583.672	22.89
583.866	22.88
584.061	22.84
584.255	22.75
584.449	22.73
584.644	22.69
584.838	22.64
585.032	22.54
585.226	22.82
585.421	22.83
585.615	22.87
585.809	23.01
586.003	23.01
586.198	23.26
586.392	23.53
586.586	23.63
586.78	23.66
586.974	23.83
587.168	24.07
587.363	24.01
587.557	24.1
587.751	24.19
587.945	24.21
588.139	24.39
588.333	24.48
588.527	24.4
588.721	24.71
588.915	24.96
589.109	24.97
589.303	25.05
589.497	25.19
589.691	25.3
589.885	25.29
590.079	25.24
590.273	25.23
590.466	25.29
590.66	25.31
590.854	25.14
591.048	25.02
591.242	25.04
591.436	25.06
591.629	25.18
591.823	25.09
592.017	25.18
592.211	25.15
592.404	25.27
592.598	25.13
592.792	25.27
592.986	25.27
593.179	25.45
593.373	25.5
593.567	25.41
593.76	25.47
593.954	25.78
594.147	25.72
594.341	25.9
594.535	25.9
594.728	25.99
594.922	25.97
595.115	26.14
595.309	26.02
595.502	26.05
595.696	26.21
595.889	26.24
596.083	26.14
596.276	26.22
596.47	26.21
596.663	26.37
596.856	26.4
597.05	26.46
597.243	26.47
597.437	26.59
597.63	26.73
597.823	26.82
598.017	26.8
598.21	26.87
598.403	27.06
598.596	27.17
598.79	27.06
598.983	27.16
599.176	27.27
599.369	27.42
599.563	27.47
599.756	27.44
599.949	27.32
600.142	27.26
600.335	27.34
600.528	27.22
600.722	27.25
600.915	27.4
601.108	27.41
601.301	27.5
601.494	27.56
601.687	27.53
601.88	27.64
602.073	27.73
602.266	27.81
602.459	27.82
602.652	28.01
602.845	28.04
603.038	28.05
603.231	28.06
603.424	28.08
603.617	28
603.809	28.08
604.002	28.09
604.195	28.08
604.388	28.18
604.581	28.2
604.774	28.03
604.966	27.95
605.159	27.88
605.352	28.01
605.545	27.96
605.737	27.89
605.93	27.95
606.123	27.99
606.316	28.06
606.508	28.04
606.701	28.05
606.894	28.26
607.086	28.43
607.279	28.52
607.471	28.48
607.664	28.57
607.857	28.67
608.049	28.67
608.242	28.76
608.434	28.74
608.627	28.74
608.819	28.8
609.012	28.7
609.204	28.75
609.397	28.66
609.589	28.66
609.782	28.74
609.974	28.87
610.166	29.02
610.359	28.96
610.551	29.02
610.743	29.07
610.936	29.16
611.128	29.28
611.32	29.31
611.513	29.33
611.705	29.27
611.897	29.42
612.09	29.35
612.282	29.34
612.474	29.37
612.666	29.39
612.858	29.41
613.051	29.42
613.243	29.48
613.435	29.37
613.627	29.46
613.819	29.6
614.011	29.54
614.203	29.58
614.395	29.61
614.588	29.56
614.78	29.6
614.972	29.59
615.164	29.54
615.356	29.56
615.548	29.55
615.74	29.54
615.932	29.54
616.124	29.43
616.315	29.42
616.507	29.4
616.699	29.71
616.891	29.6
617.083	29.79
617.275	29.84
617.467	29.83
617.659	30.03
617.85	30.14
618.042	30.18
618.234	30.19
618.426	30.28
618.618	30.27
618.809	30.15
619.001	30.2
619.193	30.23
619.384	30.32
619.576	30.3
619.768	30.35
619.959	30.61
620.151	30.55
620.343	30.61
620.534	30.57
620.726	30.53
620.917	30.8
621.109	31.15
621.301	30.93
621.492	31.1
621.684	31.19
621.875	31.13
622.067	30.87
622.258	31.06
622.45	30.95
622.641	31.02
622.832	31.18
623.024	30.91
623.215	30.8
623.407	30.97
623.598	30.88
623.789	30.94
623.981	31.14
624.172	31.21
624.363	31.16
624.555	31.42
624.746	31.5
624.937	31.4
625.129	31.46
625.32	31.51
625.511	31.4
625.702	31.33
625.893	31.29
626.085	31.07
626.276	31.25
626.467	31.28
626.658	31.22
626.849	31.08
627.04	31.27
627.231	31.25
627.422	31.35
627.614	31.5
627.805	31.73
627.996	31.78
628.187	31.97
628.378	31.87
628.569	31.96
628.76	31.93
628.951	32.17
629.142	32.02
629.332	32.1
629.523	32.13
629.714	32.23
629.905	32.14
630.096	32.32
630.287	32.28
630.478	32.33
630.669	32.37
630.859	32.6
631.05	32.59
631.241	32.56
631.432	32.7
631.623	32.65
631.813	32.73
632.004	32.75
632.195	32.69
632.385	32.85
632.576	32.8
632.767	32.82
632.957	32.64
633.148	32.75
633.339	33.05
633.529	33.09
633.72	33.06
633.91	33.18
634.101	33.22
634.292	33.2
634.482	33.08
634.673	33.08
634.863	33.21
635.054	33.38
635.244	33.32
635.435	33.19
635.625	32.96
635.815	33.06
636.006	33.08
636.196	32.99
636.387	32.98
636.577	33.14
636.767	33.16
636.958	33.1
637.148	33
637.338	33.2
637.529	33.18
637.719	33.27
637.909	33.32
638.099	33.06
638.29	33.12
638.48	33.19
638.67	33.08
638.86	33.17
639.05	33.1
639.241	33.29
639.431	33.12
639.621	33.47
639.811	33.48
640.001	33.42
640.191	33.54
640.381	33.57
640.571	33.77
640.761	33.81
640.951	33.87
641.141	33.96
641.331	33.88
641.521	33.95
641.711	33.85
641.901	34.05
642.091	34.02
642.281	34.08
642.471	34.26
642.661	34.27
642.851	34.29
643.041	34.35
643.231	34.32
643.42	34.52
643.61	34.57
643.8	34.58
643.99	34.67
644.18	34.72
644.369	34.73
644.559	34.69
644.749	34.67
644.939	34.8
645.128	34.82
645.318	34.88
645.508	34.93
645.697	34.79
645.887	34.84
646.076	34.83
646.266	34.86
646.456	34.92
646.645	34.61
646.835	34.73
647.024	34.65
647.214	34.58
647.403	34.67
647.593	34.35
647.782	34.48
647.972	34.21
648.161	34.25
648.351	34.13
648.54	34.19
648.73	34.49
648.919	34.38
649.108	34.42
649.298	34.7
649.487	34.65
649.677	34.75
649.866	34.81
650.055	34.99
650.244	34.98
650.434	35.13
650.623	35.18
650.812	35.24
651.002	35.25
651.191	35.13
651.38	34.96
651.569	34.86
651.758	35.09
651.947	34.99
652.137	34.97
652.326	34.81
652.515	34.79
652.704	34.64
652.893	34.54
653.082	34.47
653.271	34.75
653.46	34.6
653.649	34.8
653.838	34.71
654.027	34.88
654.216	34.98
654.405	35.14
654.594	35.26
654.783	35.31
654.972	35.24
655.161	35.29
655.35	35.08
655.539	35.32
655.728	35.14
655.916	35.33
656.105	35.19
656.294	35.12
656.483	35.13
656.672	35.12
656.86	35.15
657.049	35.45
657.238	35.53
657.427	35.71
657.615	35.9
657.804	36.11
657.993	35.94
658.181	36.02
658.37	36.18
658.559	36.29
658.747	36.46
658.936	36.52
659.125	36.48
659.313	36.46
659.502	36.36
659.69	36.26
659.879	36.28
660.067	36.37
660.256	36.32
660.444	36.29
660.633	36.23
660.821	36.06
661.01	36.06
661.198	35.84
661.387	36.06
661.575	36
661.763	35.94
661.952	35.87
662.14	35.85
662.328	35.83
662.517	35.97
662.705	36.13
662.893	36.26
663.082	36.4
663.27	36.65
663.458	36.56
663.646	36.69
663.834	36.66
664.023	36.59
664.211	36.53
664.399	36.48
664.587	36.36
664.775	36.07
664.963	35.78
665.152	35.62
665.34	35.66
665.528	35.43
665.716	35.49
665.904	35.6
666.092	35.65
666.28	35.65
666.468	35.64
666.656	35.67
666.844	35.95
667.032	35.99
667.22	36.06
667.408	36.3
667.596	36.38
667.784	36.5
667.971	36.33
668.159	36.58
668.347	36.64
668.535	36.84
668.723	36.83
668.911	36.62
669.098	36.72
669.286	36.84
669.474	36.54
669.662	36.87
669.849	37.07
670.037	37.25
670.225	37.24
670.413	37.59
670.6	37.48
670.788	37.88
670.976	38.05
671.163	38.22
671.351	37.91
671.538	37.93
671.726	37.51
671.913	37.31
672.101	37.38
672.289	37.34
672.476	37.03
672.664	37.24
672.851	36.9
673.039	37.12
673.226	36.92
673.413	36.98
673.601	36.74
673.788	37.2
673.976	37.19
674.163	37.13
674.35	37.03
674.538	37.09
674.725	36.92
674.912	36.89
675.1	36.65
675.287	36.84
675.474	37.11
675.662	37.21
675.849	37.1
676.036	37.22
676.223	37.17
676.411	37.4
676.598	37.36
676.785	37.64
676.972	37.42
677.159	37.42
677.346	37.37
677.533	37.56
677.721	37.85
677.908	37.7
678.095	37.69
678.282	37.67
678.469	37.59
678.656	37.68
678.843	37.43
679.03	37.49
679.217	37.65
679.404	37.79
679.591	37.8
679.778	37.74
679.964	37.96
680.151	37.91
680.338	38.03
680.525	37.81
680.712	37.88
680.899	37.97
681.086	38.13
681.272	38.11
681.459	38.13
681.646	38.05
681.833	38.02
682.02	37.99
682.206	38.09
682.393	37.99
682.58	38.08
682.766	37.85
682.953	37.93
683.14	38
683.326	37.91
683.513	37.92
683.7	37.94
683.886	37.75
684.073	37.68
684.259	37.78
684.446	38.03
684.632	38.02
684.819	38.33
685.005	38.42
685.192	38.37
685.378	38.48
685.565	38.39
685.751	38.35
685.938	38.55
686.124	38.61
686.31	38.6
686.497	38.68
686.683	38.94
686.87	38.55
687.056	38.39
687.242	38.19
687.429	38.19
687.615	38.11
687.801	37.93
687.987	37.99
688.174	37.93
688.36	37.98
688.546	37.86
688.732	37.69
688.918	38.05
689.105	38.23
689.291	38.24
689.477	37.99
689.663	38.15
689.849	38.38
690.035	38.54
690.221	38.73
690.407	38.95
690.593	38.98
690.779	39.06
690.965	39.39
691.151	39.39
691.337	39.73
691.523	40.16
691.709	40.22
691.895	40.24
692.081	40.18
692.267	39.95
692.453	39.51
692.639	39.34
692.825	39.2
693.011	38.95
693.196	38.93
693.382	38.67
693.568	38.43
693.754	38.49
693.94	38.42
694.125	38.44
694.311	38.55
694.497	38.81
694.682	38.72
694.868	38.89
695.054	38.94
695.239	39.05
695.425	39.18
695.611	39.19
695.796	39.22
695.982	39.29
696.168	39.38
696.353	39.35
696.539	39.25
696.724	39.54
696.91	39.62
697.095	39.35
697.281	39.43
697.466	39.5
697.652	39.59
697.837	39.65
698.023	39.55
698.208	39.64
698.393	39.71
698.579	39.79
698.764	39.79
698.949	39.85
699.135	39.92
699.32	39.78
699.505	39.72
699.691	39.42
699.876	39.25
700.061	39.26
700.246	38.92
700.432	38.92
700.617	38.77
700.802	38.39
700.987	38.2
701.172	38.85
701.358	38.89
701.543	38.93
701.728	39.61
701.913	39.37
702.098	39.41
702.283	39.68
702.468	39.98
702.653	39.98
702.838	40.62
703.023	40.88
703.208	40.66
703.393	40.65
703.578	40.64
703.763	40.34
703.948	40.41
704.133	40.63
704.318	40.29
704.503	40.12
704.688	40.18
704.873	39.93
705.057	39.36
705.242	38.95
705.427	39.46
705.612	39.76
705.797	39.76
705.981	39.87
706.166	39.91
706.351	40.03
706.536	39.7
706.72	39.81
706.905	39.43
707.09	39.91
707.274	40.04
707.459	39.21
707.644	38.99
707.828	38.67
708.013	39.07
708.197	38.69
708.382	38.92
708.567	38.65
708.751	38.8
708.936	39.17
709.12	39.08
709.305	39.04
709.489	39.37
709.673	39.6
709.858	39.8
710.042	39.67
710.227	40.08
710.411	40.23
710.596	40.68
710.78	40.37
710.964	40.53
711.149	40.65
711.333	40.31
711.517	40.54
711.702	40.24
711.886	40.61
712.07	40.52
712.254	40.43
712.438	40.27
712.623	40.25
712.807	40.37
712.991	40.41
713.175	40.25
713.359	40.44
713.544	40.29
713.728	40.56
713.912	40.3
714.096	40.39
714.28	40.6
714.464	40.64
714.648	40.62
714.832	40.58
715.016	40.17
715.2	40.24
715.384	40.58
715.568	40.73
715.752	40.7
715.936	40.71
716.12	40.81
716.304	40.52
716.488	40.65
716.671	40.7
716.855	40.58
717.039	41.23
717.223	41.11
717.407	41.03
717.59	40.75
717.774	41.07
717.958	41.19
718.142	41.16
718.325	41.09
718.509	40.92
718.693	41.27
718.877	41.31
719.06	40.88
719.244	41.16
719.428	40.8
719.611	40.84
719.795	40.38
719.978	40.09
720.162	40.15
720.345	40.35
720.529	40.24
720.713	39.77
720.896	40.03
721.08	39.96
721.263	39.97
721.446	40.33
721.63	40.18
721.813	40.28
721.997	40.29
722.18	40.02
722.364	40.09
722.547	40.29
722.73	40.35
722.914	39.92
723.097	39.99
723.28	40.09
723.464	40.26
723.647	40.9
723.83	40.67
724.013	40.82
724.197	41.02
724.38	40.95
724.563	40.86
724.746	40.87
724.929	41.5
725.112	41.91
725.296	41.76
725.479	41.63
725.662	41.33
725.845	41.53
726.028	41.38
726.211	40.93
726.394	40.98
726.577	41.08
726.76	41.38
726.943	41.27
727.126	41.1
727.309	40.95
727.492	40.79
727.675	40.45
727.858	40.68
728.041	41.01
728.224	41.46
728.407	41.41
728.589	41.65
728.772	41.53
728.955	41.61
729.138	41.49
729.321	41.35
729.503	41.15
729.686	41.77
729.869	41.89
730.052	41.73
730.234	41.79
730.417	41.71
730.6	41.3
730.782	40.99
730.965	40.79
731.148	40.56
731.33	40.6
731.513	41.02
731.695	40.43
731.878	40.19
732.061	40.01
732.243	40.09
732.426	39.99
732.608	39.89
732.791	40.32
732.973	39.54
733.156	39.82
733.338	39.9
733.52	39.69
733.703	40.2
733.885	40.21
734.068	40.59
734.25	40.46
734.432	40.11
734.615	40.06
734.797	39.63
734.979	40.49
735.162	40.16
735.344	40.12
735.526	40.16
735.708	39.89
735.891	39.65
736.073	39.14
736.255	38.72
736.437	39.27
736.619	39.43
736.802	39.37
736.984	39.54
737.166	39.94
737.348	40.2
737.53	40.39
737.712	40.06
737.894	39.92
738.076	40.58
738.258	40.75
738.44	40.92
738.622	41.04
738.804	41.23
738.986	41.11
739.168	41.36
739.35	41.3
739.532	41.21
739.714	41.7
739.896	41.7
740.078	41.59
740.259	41.63
740.441	41.71
740.623	41.86
740.805	41.86
740.987	42.28
741.168	41.99
741.35	41.81
741.532	41.88
741.714	41.76
741.895	42.29
742.077	41.8
742.259	41.63
742.44	41.51
742.622	41.06
742.804	40.53
742.985	40.02
743.167	40.12
743.348	40.46
743.53	41.01
743.711	41.06
743.893	40.89
744.075	41.05
744.256	41.15
744.438	41.18
744.619	41.4
744.8	42.06
744.982	41.86
745.163	42.49
745.345	42.17
745.526	41.4
745.707	41.46
745.889	41.51
746.07	41.91
746.252	41.82
746.433	42.14
746.614	41.92
746.795	41.71
746.977	41.91
747.158	41.21
747.339	41.53
747.52	41.73
747.702	41.53
747.883	40.59
748.064	40.22
748.245	39.92
748.426	39.28
748.607	39.59
748.788	39.78
748.97	39.68
749.151	38.92
749.332	38.19
749.513	37.56
749.694	37.81
749.875	38.08
750.056	37.99
750.237	38.27
750.418	38.16
750.599	38.61
750.78	38.8
750.96	39.21
751.141	40.05
751.322	40.56
751.503	40.94
751.684	40.72
751.865	41.36
752.046	41.99
752.226	42.54
752.407	42.74
752.588	41.88
752.769	41.79
752.949	41.6
753.13	41.3
753.311	40.96
753.492	40.73
753.672	40.74
753.853	40.01
754.034	39.54
754.214	39.33
754.395	39.63
754.575	39.52
754.756	39.31
754.937	39.6
755.117	39.91
755.298	40.85
755.478	40.85
755.659	40.87
755.839	41.91
756.02	42.07
756.2	42.42
756.381	42.3
756.561	42.83
756.741	43.5
756.922	42.61
757.102	42.84
757.283	42.69
757.463	43.02
757.643	43.23
757.823	43.06
758.004	42.99
758.184	42.39
758.364	42.7
758.545	42.89
758.725	42.05
758.905	42.61
759.085	42
759.265	41.57
759.446	41.5
759.626	41.41
759.806	41.57
759.986	41.5
760.166	41.4
760.346	41.08
760.526	40.89
760.706	41.1
760.886	40.93
761.066	40.59
761.246	40.89
761.426	41.25
761.606	40.82
761.786	40.53
761.966	40.27
762.146	40.25
762.326	40.14
762.506	40.32
762.686	40.32
762.866	40.75
763.046	41.09
763.225	41.05
763.405	41.04
763.585	41.42
763.765	41.18
763.945	41.33
764.124	41.86
764.304	42.17
764.484	41.74
764.664	42.16
764.843	41.74
765.023	41.94
765.203	41.61
765.382	41.5
765.562	41.44
765.741	41.47
765.921	41.59
766.101	40.98
766.28	40.99
766.46	41.18
766.639	40.8
766.819	40.67
766.998	40.85
767.178	41.27
767.357	41.32
767.537	41.23
767.716	41.23
767.896	41.43
768.075	41.47
768.254	40.83
768.434	41.33
768.613	41.54
768.792	41.82
768.972	41.51
769.151	41.48
769.33	41.29
769.51	41.87
769.689	42.33
769.868	42.48
770.047	43.07
770.226	43.36
770.406	42.84
770.585	42.12
770.764	41.77
770.943	41.44
771.122	41.81
771.301	41.73
771.48	41.44
771.66	41.38
771.839	41.34
772.018	40.45
772.197	40.42
772.376	40.75
772.555	41.58
772.734	41.21
772.913	41.35
773.092	40.78
773.271	41.1
773.449	40.67
773.628	39.94
773.807	39.82
773.986	40.27
774.165	40.66
774.344	40.48
774.523	40.27
774.701	41.05
774.88	41.01
775.059	41.04
775.238	40.33
775.417	40.26
775.595	41.41
775.774	40.83
775.953	40.83
776.131	40.36
776.31	40.54
776.489	40.64
776.667	39.96
776.846	40.25
777.025	41.11
777.203	40.88
777.382	40.92
777.56	40.72
777.739	40.68
777.917	40.76
778.096	41.03
778.274	41.07
778.453	40.27
778.631	40.91
778.81	40.49
778.988	39.42
779.166	40.07
779.345	40.89
779.523	40.51
779.702	40.27
779.88	40.76
780.058	40.42
780.237	40.57
780.415	41.54
780.593	41.35
780.771	41.32
780.95	41.11
781.128	40.63
781.306	40.2
781.484	40.69
781.662	41.82
781.841	41.09
782.019	41.67
782.197	41.04
782.375	40.19
782.553	40.38
782.731	40.58
782.909	40.82
783.087	41.43
783.265	41.37
783.443	39.73
783.621	39.05
783.799	39.11
783.977	39.05
784.155	39.3
784.333	39.7
784.511	39.55
784.689	39.07
784.867	38.71
785.045	38.86
785.223	38.3
785.4	38.62
785.578	38.22
785.756	38.95
785.934	39.25
786.112	39.71
786.289	39.33
786.467	40.01
786.645	40.67
786.823	40.57
787	40.81
787.178	41.32
787.356	42.19
787.533	42.6
787.711	42.1
787.889	41.31
788.066	40.59
788.244	41.15
788.421	41.22
788.599	41.05
788.776	41.95
788.954	41.62
789.131	42.19
789.309	42.41
789.486	42.16
789.664	42.12
789.841	42.23
790.019	43.34
790.196	42.17
790.373	42.17
790.551	42.5
790.728	41.54
790.906	41.25
791.083	40.81
791.26	41.27
791.437	41.05
791.615	40.84
791.792	41.4
791.969	41.27
792.146	42.7
792.324	41.71
792.501	41.68
792.678	42
792.855	41.23
793.032	40.54
793.209	40.73
793.387	41.62
793.564	41.54
793.741	42.21
793.918	40.76
794.095	40.93
794.272	41.7
794.449	41.63
794.626	42.66
794.803	42.34
794.98	42.57
795.157	41.57
795.334	40.58
795.511	40.04
795.688	39.37
795.864	40.66
796.041	39.71
796.218	38.66
796.395	36.7
796.572	36.25
796.749	36.45
796.925	36.3
797.102	36.97
797.279	37.7
797.456	38.43
797.632	38.36
797.809	37.62
797.986	38.5
798.162	39.09
798.339	40.86
798.516	40.45
798.692	41.13
798.869	41.93
799.046	41.46
799.222	41.48
799.399	41.76
799.575	41.71
799.752	42.25
799.928	42.29
800.105	41.79
800.281	42.63
800.458	43.03
800.634	42.92
800.811	42.65
800.987	42.45
801.163	42.18
801.34	41.88
801.516	41.09
801.692	40.39
801.869	39.37
802.045	40.42
802.221	40.29
802.398	40.2
802.574	40.23
802.75	39.72
802.926	40.76
803.103	40.09
803.279	39.92
803.455	40.12
803.631	41.25
803.807	41.89
803.983	41.13
804.16	40.44
804.336	40.63
804.512	40.55
804.688	40.46
804.864	39.73
805.04	40.36
805.216	41.49
805.392	42.15
805.568	41.69
805.744	41.52
805.92	41.22
806.096	40.78
806.272	40.9
806.448	41.04
806.623	40.99
806.799	41.48
806.975	41.56
807.151	40.87
807.327	39.88
807.503	39.83
807.678	40.63
807.854	41.13
808.03	41.14
808.206	41.67
808.381	41.57
808.557	42.32
808.733	41.82
808.908	42.63
809.084	42.69
809.26	44.21
809.435	43.98
809.611	44.3
809.787	44.85
809.962	45.45
810.138	44.72
810.313	45.81
810.489	44.88
810.664	44.74
810.84	45.61
811.015	44.65
811.191	42.69
811.366	42.3
811.542	40.11
811.717	39.36
811.892	39.64
812.068	40.3
812.243	39.04
812.419	38.99
812.594	39.45
812.769	37.47
812.944	38.14
813.12	37.93
813.295	38.89
813.47	40.35
813.645	39.89
813.821	39.21
813.996	39.16
814.171	39.08
814.346	38.77
814.521	37.63
814.697	37.86
814.872	38.34
815.047	40.04
815.222	39.89
815.397	39.14
815.572	39.99
815.747	39.55
815.922	39.68
816.097	40.95
816.272	41.16
816.447	41.78
816.622	41.84
816.797	42.12
816.972	41.73
817.147	40.88
817.322	42.6
817.496	43.48
817.671	44.38
817.846	43.07
818.021	42.36
818.196	43.36
818.371	43.98
818.545	44.48
818.72	44.3
818.895	44.81
819.069	46.31
819.244	44.99
819.419	43.74
819.594	43.34
819.768	44.01
819.943	44.26
820.117	44.09
820.292	43.4
820.467	43.3
820.641	43.05
820.816	42.51
820.99	41.77
821.165	41.58
821.339	41.5
821.514	41.47
821.688	41.18
821.863	40.93
822.037	40.88
822.212	41.14
822.386	41.05
822.56	41.12
822.735	41.38
822.909	41.67
823.084	41.84
823.258	41.92
823.432	41.78
823.606	41.8
823.781	41.9
823.955	41.88
824.129	41.46
824.303	41.43
824.478	41.67
824.652	41.26
824.826	40.74
825	40.93
825.174	40.95
825.348	41.25
825.523	41.63
825.697	41.67
825.871	41.54
826.045	41.92
826.219	41.95
826.393	41.32
826.567	41.7
826.741	41.76
826.915	41.4
827.089	41.57
827.263	42.09
827.437	41.57
827.611	41.22
827.784	41.56
827.958	41.59
828.132	41.37
828.306	41.44
828.48	41.22
828.654	41.26
828.827	41.3
829.001	41.74
829.175	41.54
829.349	41.94
829.522	43.2
829.696	42.95
829.87	42.96
830.044	43.67
830.217	44.05
830.391	44.78
830.565	45.83
830.738	46.36
830.912	45.95
831.085	45.38
831.259	45.28
831.432	44.87
831.606	44.4
831.779	44.41
831.953	43.67
832.126	43.41
832.3	42.36
832.473	42.03
832.647	41.86
832.82	41.41
832.994	41.15
833.167	41.24
833.34	40.81
833.514	41.15
833.687	41.03
833.86	41.43
834.034	41.62
834.207	42.14
834.38	42.14
834.553	42.4
834.727	42.6
834.9	42.11
835.073	42.37
835.246	42.62
835.419	42.65
835.593	43.27
835.766	44.13
835.939	44.09
836.112	43.89
836.285	43.19
836.458	42.41
836.631	42.51
836.804	42.72
836.977	41.65
837.15	41.21
837.323	40.69
837.496	39.24
837.669	37.38
837.842	36.47
838.015	37.23
838.188	37.63
838.361	38.26
838.533	37.13
838.706	37.71
838.879	38.97
839.052	39.95
839.225	41.59
839.398	41.77
839.57	42.78
839.743	44.34
839.916	42.15
840.088	41.33
840.261	42.78
840.434	43.61
840.607	44.04
840.779	43.72
840.952	43
841.124	41.19
841.297	42.4
841.47	39.83
841.642	40.98
841.815	42.32
841.987	42.01
842.16	39.87
842.332	40.36
842.505	40.6
842.677	43.25
842.85	41.41
843.022	42.91
843.194	42.54
843.367	42.4
843.539	39.73
843.712	40.41
843.884	42.53
844.056	45.08
844.229	43
844.401	41.1
844.573	37.75
844.745	39.9
844.918	42.21
845.09	41.38
845.262	43.81
845.434	44.04
845.606	43.33
845.779	41.86
845.951	39.94
846.123	41.38
846.295	41.54
846.467	42.87
846.639	42.07
846.811	38.3
846.983	35.57
847.155	39.43
847.327	43.72
847.499	46.73
847.671	49.29
847.843	47.92
848.015	47.95
848.187	50.19
848.359	50.56
848.531	53.1
848.703	54.45
848.875	55.38
849.047	50.25
849.218	44.45
849.39	43.26
849.562	43.38
849.734	45.44
849.905	44.57
850.077	45.79
850.249	46.54
850.421	46.17
850.592	45.15
850.764	46.96
850.936	47.25
851.107	48.68
851.279	48.29
851.451	48.94
851.622	45.63
851.794	46.64
851.965	44.7
852.137	41.58
852.308	42.18
852.48	45.66
852.651	42.65
852.823	43.79
852.994	45.61
853.166	46.22
853.337	44.66
853.509	46.17
853.68	45.73
853.851	44.55
854.023	47.2
854.194	45.91
854.365	43.86
854.537	46.19
854.708	44.19
854.879	40.07
855.05	38.97
855.222	39.18
855.393	43.83
855.564	45.31
855.735	46.73
855.906	48.25
856.078	51.1
856.249	49.04
856.42	48.62
856.591	52.19
856.762	53.06
856.933	48.1
857.104	49.01
857.275	47.39
857.446	48.36
857.617	47.06
857.788	41.07
857.959	35.72
858.13	36.81
858.301	36.13
858.472	32.27
858.643	33.13
858.814	40.09
858.985	33.33
859.155	35.17
859.326	38.78
859.497	42.63
859.668	44.8
859.839	47.09
860.009	50.54
860.18	50.59
860.351	51.7
860.522	49.1
860.692	48.15
860.863	53.64
861.034	50.87
861.204	47.67
861.375	44.64
861.546	46.69
861.716	48.28
861.887	47.04
862.057	51.25
862.228	51.34
862.398	53.72
862.569	55.72
862.739	57.82
862.91	55.26
863.08	53.54
863.251	56.41
863.421	56.61
863.592	56.8
863.762	53.58
863.932	53.23
864.103	55.6
864.273	56.07
864.443	50.28
864.614	47.56
864.784	47.64
864.954	45.08
865.125	42.52
865.295	46.62
865.465	46.87
865.635	46.56
865.805	45.12
865.976	45.23
866.146	43.55
866.316	42.86
866.486	40
866.656	38.62
866.826	39.38
866.996	41.51
867.166	36.2
867.336	32.59
867.506	34.54
867.676	36.93
867.846	35.62
868.016	34.44
868.186	39.47
868.356	40.44
868.526	37.86
868.696	36.97
868.866	34.82
869.036	34.68
869.206	34.15
869.376	33.33
869.545	30.66
869.715	31.64
869.885	31.75
870.055	28.27
870.224	34.66
870.394	33.71
870.564	36.57
870.734	40.34
870.903	40.69
871.073	42.81
871.243	42.09
871.412	42.66
871.582	39.52
871.751	44.65
871.921	49.09
872.091	46.27
872.26	51.93
872.43	54.41
872.599	51.55
872.769	52.13
872.938	53.6
873.108	56.59
873.277	52.88
873.446	56.53
873.616	51.46
873.785	51.52
873.955	48.83
874.124	48.61
874.293	46.65
874.463	48.04
874.632	50.49
874.801	47.17
874.971	47.66
875.14	47.66
875.309	44.45
875.478	42.6
875.647	39.73
875.817	38.73
875.986	38.57
876.155	38.01
876.324	36.97
876.493	39.84
876.662	42.99
876.831	40.73
877	44.08
877.17	51.87
877.339	52.37
877.508	53.45
877.677	53.62
877.846	55.44
878.015	54.13
878.184	54.33
878.352	52.17
878.521	49.25
878.69	50.92
878.859	48.1
879.028	45.41
879.197	46.38
879.366	43.01
879.534	43.98
879.703	41.47
879.872	42.09
880.041	41.16
880.21	38.5
880.378	38.62
880.547	38.51
880.716	39.09
880.884	38.27
881.053	38.44
881.222	40.42
881.39	41.28
881.559	41.36
881.727	41.44
881.896	41.49
882.065	42.49
882.233	43.31
882.402	43.07
882.57	43.1
882.739	43.02
882.907	43.97
883.076	42.53
883.244	41.92
883.412	42.18
883.581	41.49
883.749	41.56
883.918	41.62
884.086	40.46
884.254	40.45
884.423	41.01
884.591	41.39
884.759	40.63
884.927	40.86
885.096	42.12
885.264	42.6
885.432	44.14
885.6	45.28
885.769	42.84
885.937	43.76
886.105	44.36
886.273	44.19
886.441	44.62
886.609	45.03
886.777	49.05
886.945	47.54
887.113	48.13
887.281	47.88
887.449	47.72
887.617	49.51
887.785	52.97
887.953	53.25
888.121	53.22
888.289	57.02
888.457	55.04
888.625	52.95
888.793	55.35
888.961	54.69
889.129	55.49
889.296	56.28
889.464	60.13
889.632	58.64
889.8	60.48
889.967	60.7
890.135	53.83
