Data from 2938468_Reflection_1.txt Node
Date: Wed Jun 17 13:42:10 EDT 2015
User: robert
Spectrometer: USB4E03002
Autoset integration time: false
Trigger mode: 4
Integration Time (sec): 1.000000E-1
Scans to average: 10
Electric dark correction enabled: true
Nonlinearity correction enabled: false
Boxcar width: 5
Stray light correction enabled: false
XAxis mode: Wavelengths
Stop averaging: false
Number of Pixels in Spectrum: 3648
>>>>>Begin Spectral Data<<<<<
177.575	-1.71
177.794	17
178.014	-11.81
178.233	-12.09
178.452	5.5
178.672	17.99
178.891	-43.36
179.11	60.29
179.33	64.92
179.549	66.98
179.768	52.29
179.987	70.51
180.207	69.79
180.426	111.64
180.645	95.64
180.864	146.69
181.084	201.2
181.303	704.7
181.522	-709.43
181.741	-191.29
181.96	-154.31
182.179	-138.78
182.398	-113.2
182.618	-137.31
182.837	-104.96
183.056	-163.9
183.275	-191.54
183.494	-96.98
183.713	-104.51
183.932	-69.28
184.151	-101.05
184.37	-125.86
184.589	-90.07
184.808	-19.73
185.027	-58.78
185.246	-74.46
185.465	-75.06
185.684	-44.44
185.903	-127.22
186.122	-212.57
186.341	-1393.12
186.56	-1636.88
186.779	-117.41
186.998	-901.34
187.216	242.77
187.435	463.97
187.654	-4216.28
187.873	326.13
188.092	18.33
188.311	118.94
188.53	54.56
188.748	91.6
188.967	366.08
189.186	101.33
189.405	9390.32
189.623	-189
189.842	-30.39
190.061	-8.03
190.28	28.21
190.498	136.95
190.717	389.17
190.936	-206.13
191.154	-418.48
191.373	-141.26
191.592	-54.72
191.81	0.05
192.029	-30.39
192.248	-58.21
192.466	99.47
192.685	511.91
192.904	21.37
193.122	-42.47
193.341	-145.73
193.559	-61.33
193.778	-38.34
193.996	-103.75
194.215	-554.05
194.433	-89.56
194.652	-223.37
194.87	-96.97
195.089	-127.91
195.307	-1129.65
195.526	-480.97
195.744	-307.63
195.963	-146.48
196.181	-59.98
196.399	1.88
196.618	0.78
196.836	-4.52
197.055	70.06
197.273	108.8
197.491	104.51
197.71	4.49
197.928	-128.78
198.146	-133.39
198.365	-114.53
198.583	-3129.6
198.801	176.09
199.019	155.39
199.238	265.13
199.456	246.99
199.674	321.52
199.892	1176
200.111	521.83
200.329	-140.92
200.547	-1049.32
200.765	342.39
200.983	421.63
201.202	-256.89
201.42	-520.64
201.638	-310.79
201.856	-2.75
202.074	-27.98
202.292	-270.56
202.51	-43.11
202.728	25.83
202.946	-27.79
203.165	-1.9
203.383	19.74
203.601	-26.95
203.819	-73.17
204.037	-126.83
204.255	-383.9
204.473	-6056.52
204.691	-231.12
204.909	-893.94
205.127	-732.02
205.345	-1065.66
205.562	-367.81
205.78	-603.83
205.998	1179.62
206.216	1081.28
206.434	658.08
206.652	-114.81
206.87	-130.93
207.088	-228.8
207.306	-172.78
207.523	-90.08
207.741	-43.87
207.959	-11.01
208.177	1.33
208.395	-7.58
208.612	-0.71
208.83	8.15
209.048	-4.71
209.266	23.19
209.483	10.2
209.701	21.67
209.919	50.23
210.136	6.46
210.354	-10.23
210.572	-28.78
210.79	-35.82
211.007	-46.85
211.225	-80.31
211.442	-95.09
211.66	-102.4
211.878	-96.48
212.095	-183.17
212.313	-149.67
212.53	-152.08
212.748	-168.78
212.966	-148.84
213.183	-175.56
213.401	-169.8
213.618	-168.31
213.836	-193.33
214.053	-259.87
214.271	-357.22
214.488	-227.19
214.705	-270.78
214.923	-314.05
215.14	-252.02
215.358	-256.75
215.575	-277.22
215.793	-672.85
216.01	-185.49
216.227	-59.32
216.445	-23.35
216.662	-15.65
216.879	-5.89
217.097	-5.54
217.314	-21.05
217.531	2.06
217.749	23.44
217.966	33.57
218.183	36.46
218.4	32.98
218.618	15.28
218.835	15.58
219.052	6.73
219.269	5.54
219.487	1.93
219.704	22
219.921	5.5
220.138	-0.87
220.355	-10.08
220.572	-15.38
220.79	-4.43
221.007	-1.14
221.224	1.59
221.441	12.48
221.658	16.7
221.875	22.74
222.092	16.95
222.309	17.21
222.526	15.1
222.743	21.14
222.96	27.33
223.177	25.74
223.394	23.3
223.611	18.46
223.828	21.83
224.045	22.69
224.262	20.06
224.479	21.37
224.696	23.57
224.913	23.76
225.13	21.19
225.347	17.64
225.564	16.85
225.781	18.7
225.997	16.44
226.214	14.93
226.431	12.99
226.648	12.19
226.865	11.44
227.082	11.48
227.298	11.72
227.515	11.62
227.732	12.58
227.949	11.13
228.165	9.95
228.382	11.56
228.599	11.24
228.816	11.41
229.032	10.46
229.249	10.13
229.466	8.77
229.682	7.67
229.899	8.3
230.116	3.59
230.332	4.04
230.549	4.21
230.765	2.42
230.982	0.73
231.199	1.85
231.415	2.92
231.632	2.73
231.848	3.65
232.065	2.39
232.281	2.28
232.498	6.03
232.714	7.24
232.931	8.03
233.147	8.13
233.364	8.02
233.58	5.9
233.797	7.3
234.013	7.51
234.23	6.88
234.446	5.83
234.662	4.94
234.879	4.62
235.095	6.36
235.312	3.95
235.528	3.06
235.744	4.57
235.961	7.07
236.177	5.42
236.393	5.21
236.61	5.24
236.826	6.09
237.042	7.33
237.258	7.88
237.475	7.15
237.691	8.1
237.907	7.18
238.123	7.91
238.339	6.85
238.556	7.86
238.772	8.4
238.988	8.98
239.204	9
239.42	8.82
239.636	9.07
239.853	7.96
240.069	7.98
240.285	9.05
240.501	8.19
240.717	8.75
240.933	8.47
241.149	8.63
241.365	8.79
241.581	9.33
241.797	9.07
242.013	8.7
242.229	9.31
242.445	8.61
242.661	7.86
242.877	8.37
243.093	8.21
243.309	7.72
243.525	7.39
243.741	7.56
243.957	7.98
244.173	8.32
244.388	8.24
244.604	8.08
244.82	8.92
245.036	8.85
245.252	9.1
245.468	8.74
245.683	9.59
245.899	8.92
246.115	9.01
246.331	8.61
246.547	8.6
246.762	8.56
246.978	8.7
247.194	8.37
247.409	8.27
247.625	7.8
247.841	8.62
248.057	7.64
248.272	7.99
248.488	7.59
248.703	7.76
248.919	7.48
249.135	7.77
249.35	7.49
249.566	7.88
249.782	7.3
249.997	7.44
250.213	6.21
250.428	6.56
250.644	6.72
250.859	7.22
251.075	6.62
251.29	5.82
251.506	5.6
251.721	5.23
251.937	4.72
252.152	4.72
252.368	4.71
252.583	4.65
252.798	5.15
253.014	4.6
253.229	3.95
253.445	4.19
253.66	5.38
253.875	5.49
254.091	5.87
254.306	6.62
254.521	8.18
254.737	7.19
254.952	7.18
255.167	5.97
255.383	7.48
255.598	7.11
255.813	7.13
256.028	7.55
256.244	7.14
256.459	7.08
256.674	6.56
256.889	5.78
257.104	5.67
257.32	6.13
257.535	5.96
257.75	5.32
257.965	5.47
258.18	5.54
258.395	5.61
258.61	5.95
258.826	5.51
259.041	5.77
259.256	5.68
259.471	5.99
259.686	5.21
259.901	5.6
260.116	6
260.331	6.29
260.546	6.31
260.761	5.76
260.976	5.57
261.191	5.68
261.406	5.25
261.621	5.57
261.836	5.12
262.05	5.96
262.265	5.58
262.48	5.39
262.695	4.53
262.91	4.7
263.125	4.69
263.34	5.03
263.555	5.39
263.769	5.63
263.984	5.5
264.199	6.44
264.414	5.8
264.629	6.31
264.843	6.4
265.058	5.93
265.273	5.84
265.488	5.92
265.702	5.3
265.917	4.87
266.132	4.48
266.346	4.47
266.561	3.93
266.776	4.39
266.99	3.86
267.205	3.61
267.42	4.06
267.634	3.98
267.849	3.97
268.063	3.68
268.278	4.3
268.492	4.85
268.707	5.19
268.922	5
269.136	4.54
269.351	4.4
269.565	4.31
269.78	3.82
269.994	3.69
270.209	4.33
270.423	4.75
270.637	4.87
270.852	4.59
271.066	4.6
271.281	4.89
271.495	5.23
271.709	5.59
271.924	5.84
272.138	6.15
272.353	6.72
272.567	5.77
272.781	5.52
272.996	5.3
273.21	5.57
273.424	5.12
273.638	5.49
273.853	5.74
274.067	5.41
274.281	5.18
274.495	5.46
274.71	5.01
274.924	5.5
275.138	5.45
275.352	5.84
275.566	6.33
275.781	6.75
275.995	5.63
276.209	5.83
276.423	5.98
276.637	5.96
276.851	5.48
277.065	4.68
277.279	4.96
277.493	5.29
277.707	4.8
277.921	4.05
278.135	4.17
278.349	4.76
278.563	4.13
278.777	4.42
278.991	4.05
279.205	4.28
279.419	5.07
279.633	4.67
279.847	5.16
280.061	5.47
280.275	5.6
280.489	5.78
280.703	5.93
280.917	6.43
281.131	5.99
281.344	6.23
281.558	5.98
281.772	5.93
281.986	5.74
282.2	5.21
282.414	4.72
282.627	4.56
282.841	4.2
283.055	4.35
283.269	4.08
283.482	4.34
283.696	4.32
283.91	4.7
284.123	4.73
284.337	4.93
284.551	4.89
284.764	5.15
284.978	5.35
285.192	5.4
285.405	5.36
285.619	5.18
285.833	5.22
286.046	5.75
286.26	5.66
286.473	5.49
286.687	5.6
286.9	5.66
287.114	5.44
287.327	5.38
287.541	5.61
287.754	5.39
287.968	5.48
288.181	5.27
288.395	4.89
288.608	5.28
288.822	5.44
289.035	5.59
289.248	5.85
289.462	6.37
289.675	6.46
289.889	6.65
290.102	6.57
290.315	7.11
290.529	7.25
290.742	7.35
290.955	7.05
291.169	7.03
291.382	6.95
291.595	7.04
291.808	7.29
292.022	7.08
292.235	6.95
292.448	6.73
292.661	6.28
292.875	6.53
293.088	6.96
293.301	7.36
293.514	7.63
293.727	7.17
293.94	6.92
294.153	6.58
294.367	6.88
294.58	6.52
294.793	6.92
295.006	7.46
295.219	7.34
295.432	6.99
295.645	6.96
295.858	6.58
296.071	7.06
296.284	7.29
296.497	7.46
296.71	7.37
296.923	7.63
297.136	7.77
297.349	7.51
297.562	7.49
297.775	7.92
297.988	7.55
298.201	7.89
298.414	7.93
298.626	7.62
298.839	7.55
299.052	7.51
299.265	7.31
299.478	6.89
299.691	6.65
299.903	6.28
300.116	6.01
300.329	6.05
300.542	5.86
300.755	5.87
300.967	6
301.18	6.5
301.393	6.6
301.605	6.81
301.818	6.69
302.031	6.87
302.243	7.12
302.456	7.15
302.669	7.14
302.881	7.62
303.094	7.4
303.307	7.3
303.519	6.46
303.732	6.55
303.944	6.46
304.157	6.79
304.37	6.92
304.582	7.12
304.795	7.09
305.007	7.29
305.22	7.27
305.432	7.14
305.645	7.11
305.857	7.63
306.069	7.68
306.282	7.76
306.494	7.6
306.707	7.44
306.919	7.74
307.132	7.61
307.344	7.85
307.556	7.77
307.769	7.83
307.981	8.26
308.193	7.82
308.406	7.6
308.618	7.7
308.83	7.87
309.043	8.02
309.255	7.77
309.467	7.58
309.679	7.58
309.892	7.4
310.104	7.58
310.316	7.62
310.528	7.89
310.74	7.87
310.953	7.7
311.165	7.67
311.377	7.64
311.589	7.81
311.801	8.34
312.013	8.47
312.225	8.54
312.437	8.45
312.649	8.46
312.862	8.36
313.074	8.07
313.286	8.03
313.498	8.17
313.71	8.02
313.922	7.86
314.134	7.43
314.346	6.91
314.558	6.8
314.77	6.62
314.982	6.18
315.193	6.29
315.405	6.44
315.617	6.67
315.829	6.14
316.041	6.15
316.253	6.4
316.465	7.05
316.677	7.15
316.888	7.39
317.1	7.54
317.312	7.64
317.524	7.63
317.736	7.77
317.947	7.78
318.159	8.27
318.371	8.57
318.583	8.07
318.794	7.6
319.006	7.65
319.218	7.16
319.43	7.53
319.641	8.2
319.853	8.21
320.064	8.7
320.276	8.57
320.488	8.23
320.699	7.57
320.911	8.37
321.123	8.48
321.334	8.71
321.546	9.17
321.757	8.66
321.969	8.05
322.18	8.33
322.392	8.07
322.603	8.95
322.815	8.88
323.026	9.56
323.238	8.88
323.449	8.88
323.661	8.85
323.872	9.05
324.083	9.28
324.295	9.27
324.506	8.97
324.718	8.85
324.929	8.31
325.14	8.91
325.352	8.95
325.563	9.41
325.774	9.41
325.986	9.2
326.197	9.11
326.408	9.03
326.62	8.83
326.831	8.92
327.042	9.15
327.253	9.05
327.464	8.73
327.676	8.47
327.887	8.25
328.098	8.51
328.309	8.58
328.52	8.39
328.732	8.54
328.943	8.77
329.154	8.92
329.365	8.57
329.576	8.43
329.787	8.75
329.998	8.46
330.209	8.77
330.42	8.34
330.631	8.37
330.842	8.37
331.053	8.47
331.264	8.45
331.475	8.51
331.686	8.69
331.897	9.03
332.108	8.55
332.319	8.76
332.53	8.45
332.741	8.53
332.952	8.25
333.163	8.31
333.374	8.4
333.585	8.57
333.795	8.71
334.006	8.92
334.217	8.64
334.428	8.9
334.639	8.54
334.849	8.76
335.06	8.61
335.271	9.01
335.482	9.01
335.692	8.69
335.903	8.49
336.114	8
336.325	7.84
336.535	8.34
336.746	7.91
336.957	8.48
337.167	8.26
337.378	8.16
337.589	8.27
337.799	8.3
338.01	8.68
338.22	9.22
338.431	9.15
338.642	9.27
338.852	8.69
339.063	9.31
339.273	8.88
339.484	8.91
339.694	8.84
339.905	8.69
340.115	8.59
340.326	8.17
340.536	7.69
340.746	7.73
340.957	7.67
341.167	7.75
341.378	7.27
341.588	7.62
341.799	7.48
342.009	7.5
342.219	7.35
342.43	7.28
342.64	7.55
342.85	7.48
343.061	7.5
343.271	7.63
343.481	7.88
343.691	8.3
343.902	8.16
344.112	8.43
344.322	8.53
344.532	8.58
344.743	8.7
344.953	8.4
345.163	8.55
345.373	8.59
345.583	8.1
345.793	7.69
346.004	7.62
346.214	7.57
346.424	7.27
346.634	7.38
346.844	7.53
347.054	7.23
347.264	7.37
347.474	7.37
347.684	7.4
347.894	7.68
348.104	7.89
348.314	7.46
348.524	7.13
348.734	7.56
348.944	7.36
349.154	7.27
349.364	7.54
349.574	7.38
349.784	7.5
349.994	7.66
350.204	7.57
350.413	7.6
350.623	8.01
350.833	8.09
351.043	7.62
351.253	8.12
351.463	7.92
351.672	7.99
351.882	8.04
352.092	7.52
352.302	7.52
352.511	7.37
352.721	7.43
352.931	7.1
353.141	7.29
353.35	7.43
353.56	7.2
353.77	7.12
353.979	6.63
354.189	6.84
354.399	7.26
354.608	7.16
354.818	7.37
355.027	7.46
355.237	7.54
355.447	7.05
355.656	6.95
355.866	6.71
356.075	6.76
356.285	7.27
356.494	7.21
356.704	6.91
356.913	7
357.123	6.73
357.332	6.47
357.542	6.58
357.751	7.03
357.96	7.18
358.17	7.5
358.379	7.66
358.589	7.57
358.798	7.36
359.007	7.33
359.217	7.18
359.426	7.27
359.635	7.41
359.845	7.22
360.054	7.07
360.263	6.87
360.472	6.45
360.682	6.34
360.891	6.08
361.1	6.31
361.309	6.45
361.519	6.44
361.728	6.27
361.937	6.11
362.146	6.28
362.355	6.18
362.564	6.58
362.774	6.9
362.983	6.83
363.192	6.81
363.401	6.76
363.61	6.45
363.819	6.54
364.028	6.73
364.237	6.6
364.446	6.58
364.655	6.78
364.864	6.59
365.073	6.28
365.282	6.32
365.491	6.44
365.7	6.21
365.909	6.48
366.118	6.5
366.327	6.39
366.536	6.67
366.745	6.54
366.954	6.59
367.162	6.18
367.371	6.52
367.58	6.71
367.789	6.83
367.998	7.05
368.207	6.86
368.415	6.69
368.624	6.75
368.833	6.54
369.042	6.6
369.25	6.42
369.459	6.69
369.668	6.54
369.877	6.22
370.085	6.16
370.294	5.88
370.503	6.04
370.711	6.05
370.92	5.79
371.129	5.57
371.337	5.51
371.546	5.27
371.754	5.34
371.963	5.27
372.171	5.58
372.38	5.27
372.589	5.48
372.797	5.55
373.006	5.38
373.214	5.92
373.423	6.02
373.631	5.9
373.84	6.22
374.048	6.42
374.256	6.41
374.465	6.25
374.673	6.51
374.882	6.49
375.09	6.52
375.298	6.68
375.507	6.54
375.715	6.71
375.923	6.65
376.132	6.62
376.34	6.47
376.548	6.62
376.757	6.63
376.965	6.44
377.173	6.31
377.381	6.1
377.59	6.11
377.798	5.95
378.006	5.73
378.214	5.97
378.423	5.8
378.631	5.38
378.839	5.42
379.047	5.39
379.255	5.59
379.463	5.65
379.671	5.86
379.879	5.75
380.088	6.02
380.296	6.06
380.504	5.92
380.712	6.1
380.92	6.3
381.128	5.95
381.336	5.85
381.544	5.79
381.752	5.56
381.96	5.43
382.168	5.33
382.376	4.97
382.584	4.94
382.791	4.93
382.999	4.96
383.207	5.1
383.415	5.3
383.623	5.54
383.831	5.4
384.039	5.49
384.247	5.32
384.454	5.34
384.662	5.45
384.87	5.43
385.078	5.28
385.285	5.08
385.493	4.92
385.701	4.79
385.909	4.56
386.116	4.69
386.324	4.73
386.532	4.71
386.739	4.68
386.947	4.6
387.155	4.75
387.362	4.83
387.57	4.97
387.778	5.01
387.985	4.95
388.193	5
388.4	5.01
388.608	5.29
388.816	5.42
389.023	5.5
389.231	5.44
389.438	5.3
389.646	5.37
389.853	5.18
390.061	5.13
390.268	5.09
390.475	5.18
390.683	5.12
390.89	4.93
391.098	4.91
391.305	5.03
391.512	5.11
391.72	4.84
391.927	4.69
392.135	4.8
392.342	4.72
392.549	4.91
392.756	4.7
392.964	4.8
393.171	4.52
393.378	4.51
393.586	4.61
393.793	4.67
394	4.86
394.207	4.97
394.414	5
394.622	5.04
394.829	4.99
395.036	5.13
395.243	4.91
395.45	4.94
395.657	5.06
395.864	4.8
396.072	4.75
396.279	4.84
396.486	4.89
396.693	4.87
396.9	4.8
397.107	4.67
397.314	4.63
397.521	4.71
397.728	4.87
397.935	4.7
398.142	4.35
398.349	4.32
398.556	4.24
398.763	4.13
398.97	4.06
399.177	4.12
399.383	4.16
399.59	4.15
399.797	4.38
400.004	4.58
400.211	4.43
400.418	4.71
400.625	4.66
400.831	4.72
401.038	4.74
401.245	4.8
401.452	4.89
401.658	5.03
401.865	5.08
402.072	4.92
402.279	4.75
402.485	4.85
402.692	4.8
402.899	4.81
403.105	4.8
403.312	4.91
403.519	4.93
403.725	4.95
403.932	4.87
404.138	4.78
404.345	4.7
404.552	4.56
404.758	4.64
404.965	4.8
405.171	4.85
405.378	4.77
405.584	4.8
405.791	4.72
405.997	4.63
406.204	4.56
406.41	4.75
406.617	4.8
406.823	4.86
407.029	4.69
407.236	4.48
407.442	4.36
407.649	4.52
407.855	4.36
408.061	4.37
408.268	4.25
408.474	4.41
408.68	4.19
408.887	4.28
409.093	4.27
409.299	4.43
409.505	4.53
409.712	4.5
409.918	4.56
410.124	4.57
410.33	4.46
410.537	4.54
410.743	4.5
410.949	4.43
411.155	4.24
411.361	4.19
411.567	4.03
411.773	4.14
411.98	4.26
412.186	4.11
412.392	4.14
412.598	4.28
412.804	4.17
413.01	4.07
413.216	4.08
413.422	4.15
413.628	4.31
413.834	4.37
414.04	4.23
414.246	4.09
414.452	4.14
414.658	4.13
414.864	4.12
415.07	4.39
415.275	4.43
415.481	4.42
415.687	4.47
415.893	4.48
416.099	4.49
416.305	4.57
416.511	4.72
416.716	4.62
416.922	4.67
417.128	4.72
417.334	4.65
417.539	4.54
417.745	4.55
417.951	4.5
418.157	4.52
418.362	4.52
418.568	4.52
418.774	4.52
418.979	4.57
419.185	4.53
419.391	4.54
419.596	4.46
419.802	4.58
420.008	4.55
420.213	4.09
420.419	4.08
420.624	4.13
420.83	4.1
421.035	4.04
421.241	4.17
421.446	4.16
421.652	4.09
421.857	4.13
422.063	4.09
422.268	4.09
422.474	4.51
422.679	4.44
422.885	4.48
423.09	4.46
423.295	4.46
423.501	4.36
423.706	4.4
423.911	4.38
424.117	4.35
424.322	4.33
424.527	4.33
424.733	4.34
424.938	4.34
425.143	4.2
425.349	4.2
425.554	4.24
425.759	4.24
425.964	4.16
426.169	4.15
426.375	4.27
426.58	4.21
426.785	4.2
426.99	4.12
427.195	4.07
427.4	4.05
427.605	4.07
427.811	3.96
428.016	3.76
428.221	3.8
428.426	3.81
428.631	3.62
428.836	3.72
429.041	3.82
429.246	3.81
429.451	3.83
429.656	3.95
429.861	4.02
430.066	4.08
430.271	4.25
430.476	4.32
430.681	4.31
430.886	4.3
431.09	4.35
431.295	4.27
431.5	4.31
431.705	4.3
431.91	4.22
432.115	4.16
432.32	4.08
432.524	3.92
432.729	3.83
432.934	3.71
433.139	3.88
433.343	3.76
433.548	3.77
433.753	3.79
433.958	3.94
434.162	3.92
434.367	3.93
434.572	3.93
434.776	4
434.981	3.95
435.186	4.09
435.39	3.93
435.595	4.03
435.799	4.04
436.004	4.11
436.209	4.02
436.413	4.03
436.618	3.95
436.822	4.07
437.027	4.2
437.231	4.24
437.436	4.18
437.64	4.09
437.845	4.01
438.049	3.97
438.253	3.98
438.458	4.1
438.662	4.09
438.867	4.14
439.071	4.22
439.275	4.1
439.48	4.05
439.684	4.09
439.888	4.17
440.093	4.31
440.297	4.39
440.501	4.32
440.706	4.22
440.91	4.25
441.114	4.2
441.318	4.09
441.523	4.1
441.727	4.25
441.931	4.23
442.135	4.2
442.339	4.09
442.543	3.97
442.748	4.07
442.952	4.03
443.156	4.02
443.36	4.08
443.564	4.08
443.768	4.17
443.972	4.12
444.176	4.18
444.38	4.13
444.584	4.12
444.788	4.21
444.992	4.16
445.196	4.22
445.4	4.24
445.604	4.18
445.808	4.18
446.012	4.11
446.216	4.08
446.42	3.95
446.624	4
446.828	4
447.032	3.95
447.235	3.89
447.439	3.81
447.643	3.69
447.847	3.84
448.051	3.83
448.254	3.88
448.458	3.93
448.662	3.95
448.866	3.91
449.069	3.77
449.273	3.83
449.477	3.94
449.681	3.94
449.884	4.05
450.088	3.86
450.292	3.74
450.495	3.68
450.699	3.7
450.902	3.77
451.106	3.86
451.31	3.85
451.513	3.88
451.717	3.86
451.92	3.94
452.124	3.87
452.327	3.92
452.531	3.99
452.734	4.15
452.938	4.1
453.141	4.09
453.345	4.07
453.548	4.22
453.752	4.2
453.955	4.14
454.158	4.05
454.362	4.07
454.565	4.07
454.769	4.14
454.972	4.05
455.175	4.03
455.379	4.05
455.582	4.04
455.785	3.94
455.988	3.84
456.192	3.8
456.395	3.76
456.598	3.74
456.801	3.75
457.005	3.74
457.208	3.73
457.411	3.77
457.614	3.79
457.817	3.83
458.021	3.88
458.224	3.97
458.427	4.08
458.63	4.17
458.833	4.25
459.036	4.19
459.239	4.17
459.442	4.14
459.645	4.13
459.848	4.18
460.051	4.19
460.254	4.22
460.457	4.17
460.66	4.08
460.863	4.01
461.066	3.9
461.269	3.92
461.472	3.85
461.675	3.7
461.878	3.65
462.081	3.62
462.284	3.56
462.486	3.61
462.689	3.53
462.892	3.59
463.095	3.61
463.298	3.68
463.5	3.74
463.703	3.89
463.906	4
464.109	4.02
464.311	3.99
464.514	3.95
464.717	3.95
464.92	4.09
465.122	4
465.325	4.01
465.528	4.08
465.73	4.11
465.933	4.08
466.135	4.14
466.338	4.07
466.541	4.1
466.743	4.07
466.946	4.08
467.148	4.04
467.351	4.03
467.553	4.03
467.756	3.94
467.958	3.93
468.161	3.81
468.363	3.76
468.566	3.86
468.768	3.88
468.971	3.86
469.173	3.77
469.375	3.74
469.578	3.69
469.78	3.69
469.983	3.69
470.185	3.66
470.387	3.74
470.59	3.73
470.792	3.64
470.994	3.56
471.196	3.61
471.399	3.62
471.601	3.5
471.803	3.62
472.005	3.69
472.208	3.61
472.41	3.58
472.612	3.52
472.814	3.5
473.016	3.59
473.218	3.61
473.421	3.7
473.623	3.75
473.825	3.87
474.027	3.88
474.229	3.83
474.431	3.96
474.633	4.05
474.835	4.11
475.037	4.12
475.239	4.18
475.441	4.16
475.643	4.12
475.845	4.09
476.047	4.1
476.249	4.08
476.451	4.05
476.653	4.04
476.855	3.98
477.057	3.99
477.258	4.07
477.46	3.96
477.662	3.88
477.864	3.88
478.066	3.91
478.268	3.97
478.469	4
478.671	4
478.873	4.02
479.075	4.04
479.276	4
479.478	3.93
479.68	3.92
479.882	4
480.083	4.02
480.285	4.01
480.487	3.94
480.688	3.95
480.89	4.05
481.091	4.05
481.293	4.04
481.495	4.07
481.696	4.08
481.898	4.1
482.099	4.08
482.301	4.05
482.502	4.05
482.704	4.04
482.905	4.03
483.107	3.99
483.308	3.99
483.51	3.98
483.711	3.96
483.913	3.97
484.114	3.98
484.315	3.96
484.517	4.01
484.718	3.98
484.92	3.99
485.121	4
485.322	3.98
485.524	3.96
485.725	4
485.926	4.01
486.127	4
486.329	3.99
486.53	4
486.731	3.93
486.932	3.97
487.134	3.99
487.335	3.98
487.536	3.97
487.737	3.97
487.938	3.93
488.139	3.95
488.341	3.92
488.542	3.94
488.743	3.98
488.944	4.05
489.145	4.01
489.346	3.96
489.547	3.97
489.748	4.03
489.949	4.02
490.15	4
490.351	3.99
490.552	4.05
490.753	4.06
490.954	4.02
491.155	3.97
491.356	3.99
491.557	4.02
491.758	3.99
491.959	3.94
492.159	3.95
492.36	3.96
492.561	3.91
492.762	3.84
492.963	3.8
493.164	3.86
493.364	3.86
493.565	3.84
493.766	3.84
493.967	3.84
494.167	3.91
494.368	3.94
494.569	3.98
494.769	3.98
494.97	3.96
495.171	3.98
495.371	3.95
495.572	4.03
495.773	4.04
495.973	4.03
496.174	4.05
496.375	4.05
496.575	4
496.776	4.01
496.976	4.07
497.177	4.06
497.377	4.05
497.578	4.02
497.778	3.94
497.979	3.92
498.179	3.91
498.38	3.99
498.58	3.95
498.78	3.97
498.981	3.95
499.181	3.92
499.382	4.05
499.582	4.03
499.782	4.04
499.983	4.12
500.183	4.1
500.383	4.14
500.584	4.02
500.784	4.07
500.984	4.12
501.184	4.16
501.385	4.16
501.585	4.09
501.785	4.04
501.985	4.12
502.185	4.03
502.386	4.15
502.586	4.17
502.786	4.29
502.986	4.27
503.186	4.28
503.386	4.27
503.586	4.3
503.786	4.33
503.987	4.35
504.187	4.36
504.387	4.42
504.587	4.41
504.787	4.43
504.987	4.43
505.187	4.45
505.387	4.48
505.587	4.52
505.786	4.66
505.986	4.66
506.186	4.72
506.386	4.82
506.586	4.95
506.786	4.88
506.986	4.85
507.186	4.83
507.386	4.83
507.585	4.79
507.785	4.7
507.985	4.57
508.185	4.58
508.384	4.55
508.584	4.46
508.784	4.37
508.984	4.41
509.183	4.4
509.383	4.38
509.583	4.36
509.782	4.43
509.982	4.58
510.182	4.67
510.381	4.65
510.581	4.64
510.781	4.77
510.98	4.81
511.18	4.86
511.379	4.91
511.579	5
511.778	5.09
511.978	5.08
512.177	5.05
512.377	5.07
512.576	5.11
512.776	5.2
512.975	5.16
513.175	5.15
513.374	5.14
513.573	5.1
513.773	5.08
513.972	5.03
514.172	4.99
514.371	5.04
514.57	5.05
514.77	5.11
514.969	5.21
515.168	5.11
515.367	5.17
515.567	5.22
515.766	5.21
515.965	5.23
516.164	5.32
516.364	5.39
516.563	5.26
516.762	5.23
516.961	5.25
517.16	5.2
517.359	5.23
517.559	5.18
517.758	5.18
517.957	5.17
518.156	5.18
518.355	5.16
518.554	5.16
518.753	5.21
518.952	5.28
519.151	5.25
519.35	5.33
519.549	5.3
519.748	5.3
519.947	5.31
520.146	5.41
520.345	5.46
520.544	5.47
520.743	5.48
520.942	5.53
521.141	5.56
521.339	5.58
521.538	5.54
521.737	5.74
521.936	5.8
522.135	5.84
522.333	5.81
522.532	5.82
522.731	5.86
522.93	5.86
523.129	5.92
523.327	5.86
523.526	5.87
523.725	5.88
523.923	5.84
524.122	5.87
524.321	5.87
524.519	5.94
524.718	5.93
524.917	5.91
525.115	5.94
525.314	5.94
525.512	5.93
525.711	5.93
525.909	5.97
526.108	5.95
526.306	5.98
526.505	6
526.703	5.99
526.902	6
527.1	6.03
527.299	6.03
527.497	6.01
527.696	6.02
527.894	6.03
528.092	6.03
528.291	6.07
528.489	6.09
528.688	6.08
528.886	6.09
529.084	6.13
529.283	6.16
529.481	6.16
529.679	6.22
529.877	6.25
530.076	6.31
530.274	6.32
530.472	6.32
530.67	6.34
530.869	6.41
531.067	6.4
531.265	6.37
531.463	6.38
531.661	6.44
531.859	6.48
532.057	6.51
532.255	6.5
532.454	6.51
532.652	6.54
532.85	6.55
533.048	6.52
533.246	6.59
533.444	6.64
533.642	6.65
533.84	6.61
534.038	6.6
534.236	6.63
534.434	6.65
534.632	6.63
534.83	6.67
535.027	6.64
535.225	6.64
535.423	6.61
535.621	6.61
535.819	6.6
536.017	6.73
536.215	6.7
536.412	6.67
536.61	6.69
536.808	6.77
537.006	6.75
537.203	6.84
537.401	6.9
537.599	6.97
537.797	7.08
537.994	7.06
538.192	7.07
538.39	7.15
538.587	7.25
538.785	7.32
538.983	7.34
539.18	7.39
539.378	7.39
539.575	7.45
539.773	7.38
539.97	7.39
540.168	7.46
540.366	7.46
540.563	7.48
540.761	7.46
540.958	7.43
541.155	7.43
541.353	7.41
541.55	7.41
541.748	7.4
541.945	7.49
542.143	7.44
542.34	7.44
542.537	7.48
542.735	7.45
542.932	7.53
543.129	7.57
543.327	7.58
543.524	7.66
543.721	7.72
543.919	7.76
544.116	7.78
544.313	7.88
544.51	7.91
544.708	7.92
544.905	8.03
545.102	8.06
545.299	8.08
545.496	8.06
545.693	8
545.891	7.97
546.088	7.98
546.285	7.99
546.482	8
546.679	7.98
546.876	8.01
547.073	7.98
547.27	8.01
547.467	8.12
547.664	8.14
547.861	8.23
548.058	8.29
548.255	8.33
548.452	8.43
548.649	8.43
548.846	8.59
549.043	8.61
549.24	8.58
549.437	8.51
549.633	8.5
549.83	8.63
550.027	8.7
550.224	8.74
550.421	8.73
550.618	8.73
550.814	8.78
551.011	8.76
551.208	8.89
551.405	9.05
551.601	9.12
551.798	9.2
551.995	9.24
552.191	9.21
552.388	9.21
552.585	9.29
552.781	9.33
552.978	9.32
553.175	9.37
553.371	9.39
553.568	9.37
553.764	9.49
553.961	9.46
554.157	9.35
554.354	9.45
554.55	9.55
554.747	9.62
554.943	9.62
555.14	9.68
555.336	9.74
555.533	9.63
555.729	9.64
555.926	9.61
556.122	9.68
556.318	9.9
556.515	10.01
556.711	10.13
556.907	10.15
557.104	10.38
557.3	10.49
557.496	10.56
557.693	10.53
557.889	10.69
558.085	10.81
558.281	10.81
558.478	10.82
558.674	10.81
558.87	10.78
559.066	10.79
559.262	10.69
559.459	10.66
559.655	10.59
559.851	10.88
560.047	10.86
560.243	10.92
560.439	11.07
560.635	11.15
560.831	11.27
561.027	11.32
561.223	11.34
561.419	11.36
561.615	11.44
561.811	11.49
562.007	11.53
562.203	11.58
562.399	11.46
562.595	11.52
562.791	11.57
562.987	11.63
563.183	11.74
563.379	11.95
563.575	12.12
563.771	12.25
563.966	12.4
564.162	12.39
564.358	12.51
564.554	12.6
564.75	12.59
564.945	12.61
565.141	12.77
565.337	12.77
565.533	12.8
565.728	12.77
565.924	12.74
566.12	12.81
566.315	12.95
566.511	12.95
566.707	13.04
566.902	13.08
567.098	13.24
567.293	13.19
567.489	13.11
567.684	13.03
567.88	13.08
568.076	13.18
568.271	13.18
568.467	13.1
568.662	13.15
568.858	13.22
569.053	13.36
569.248	13.35
569.444	13.32
569.639	13.56
569.835	13.74
570.03	13.84
570.225	13.81
570.421	13.87
570.616	13.92
570.812	14.01
571.007	14.02
571.202	14.15
571.397	14.22
571.593	14.24
571.788	14.27
571.983	14.24
572.178	14.32
572.374	14.42
572.569	14.5
572.764	14.51
572.959	14.5
573.154	14.63
573.35	14.59
573.545	14.68
573.74	14.82
573.935	14.91
574.13	14.92
574.325	14.93
574.52	15
574.715	15.12
574.91	15.26
575.105	15.34
575.3	15.39
575.495	15.3
575.69	15.31
575.885	15.24
576.08	15.16
576.275	15.34
576.47	15.43
576.665	15.46
576.86	15.38
577.055	15.33
577.25	15.46
577.444	15.5
577.639	15.69
577.834	15.78
578.029	15.94
578.224	16.05
578.418	16.11
578.613	16.01
578.808	16.22
579.003	16.31
579.197	16.52
579.392	16.52
579.587	16.52
579.781	16.53
579.976	16.54
580.171	16.6
580.365	16.77
580.56	16.62
580.755	16.78
580.949	16.69
581.144	16.71
581.338	16.63
581.533	16.62
581.727	16.59
581.922	16.58
582.116	16.57
582.311	16.61
582.505	16.53
582.7	16.63
582.894	16.7
583.089	16.65
583.283	16.53
583.478	16.62
583.672	16.78
583.866	16.72
584.061	16.76
584.255	16.81
584.449	16.87
584.644	16.9
584.838	16.93
585.032	16.99
585.226	17.1
585.421	17.44
585.615	17.47
585.809	17.49
586.003	17.66
586.198	17.75
586.392	17.81
586.586	17.68
586.78	17.75
586.974	17.82
587.168	17.79
587.363	17.89
587.557	17.85
587.751	17.93
587.945	17.92
588.139	17.93
588.333	17.86
588.527	17.86
588.721	18.04
588.915	18.05
589.109	18.12
589.303	18.09
589.497	17.97
589.691	18
589.885	18.05
590.079	18.1
590.273	18.24
590.466	18.36
590.66	18.42
590.854	18.43
591.048	18.41
591.242	18.5
591.436	18.53
591.629	18.57
591.823	18.69
592.017	18.67
592.211	18.6
592.404	18.62
592.598	18.63
592.792	18.66
592.986	18.68
593.179	18.76
593.373	18.78
593.567	18.96
593.76	19.13
593.954	18.92
594.147	19.01
594.341	19.13
594.535	19.2
594.728	19.44
594.922	19.62
595.115	19.72
595.309	19.78
595.502	19.83
595.696	19.9
595.889	19.82
596.083	20.02
596.276	20.02
596.47	20
596.663	19.88
596.856	19.84
597.05	19.71
597.243	19.71
597.437	19.77
597.63	19.75
597.823	19.73
598.017	19.76
598.21	19.72
598.403	19.72
598.596	19.87
598.79	19.99
598.983	19.96
599.176	20.06
599.369	19.92
599.563	20
599.756	19.92
599.949	19.89
600.142	20.03
600.335	20.04
600.528	20.15
600.722	20.21
600.915	20.32
601.108	20.39
601.301	20.56
601.494	20.77
601.687	20.71
601.88	20.91
602.073	21.04
602.266	21.15
602.459	21.28
602.652	21.36
602.845	21.15
603.038	21.06
603.231	21.06
603.424	20.94
603.617	20.96
603.809	20.89
604.002	20.77
604.195	20.61
604.388	20.51
604.581	20.43
604.774	20.25
604.966	20.49
605.159	20.51
605.352	20.39
605.545	20.54
605.737	20.48
605.93	20.64
606.123	20.84
606.316	21.07
606.508	21.18
606.701	21.31
606.894	21.43
607.086	21.37
607.279	21.5
607.471	21.68
607.664	21.64
607.857	21.77
608.049	21.63
608.242	21.45
608.434	21.44
608.627	21.5
608.819	21.41
609.012	21.39
609.204	21.45
609.397	21.55
609.589	21.62
609.782	21.69
609.974	21.56
610.166	21.85
610.359	22.11
610.551	21.95
610.743	21.82
610.936	21.85
611.128	21.85
611.32	21.8
611.513	21.75
611.705	21.56
611.897	21.35
612.09	21.5
612.282	21.38
612.474	21.15
612.666	21.3
612.858	21.47
613.051	21.48
613.243	21.46
613.435	21.28
613.627	21.24
613.819	21.24
614.011	21.73
614.203	21.6
614.395	21.63
614.588	21.71
614.78	21.7
614.972	21.68
615.164	21.72
615.356	21.86
615.548	22.16
615.74	22.1
615.932	22.19
616.124	21.81
616.315	22.13
616.507	22.12
616.699	22.24
616.891	22.27
617.083	22.18
617.275	22.2
617.467	22.23
617.659	22.22
617.85	22.41
618.042	22.54
618.234	22.48
618.426	22.31
618.618	22.3
618.809	22.29
619.001	22.22
619.193	22.4
619.384	22.41
619.576	22.4
619.768	22.46
619.959	22.44
620.151	22.21
620.343	22.51
620.534	22.35
620.726	22.25
620.917	22.2
621.109	22.36
621.301	22.3
621.492	22.32
621.684	22.44
621.875	22.25
622.067	22.08
622.258	22.3
622.45	22.32
622.641	22.39
622.832	22.47
623.024	22.54
623.215	22.67
623.407	22.65
623.598	22.95
623.789	22.84
623.981	22.95
624.172	23.14
624.363	23.09
624.555	23.1
624.746	23.35
624.937	23.56
625.129	23.67
625.32	23.61
625.511	23.65
625.702	23.5
625.893	23.75
626.085	23.72
626.276	23.59
626.467	23.63
626.658	23.51
626.849	23.37
627.04	23.21
627.231	23.08
627.422	23.11
627.614	23.13
627.805	22.98
627.996	22.8
628.187	22.87
628.378	22.95
628.569	23.02
628.76	23.04
628.951	22.98
629.142	23
629.332	23.15
629.523	23.09
629.714	23.08
629.905	23.32
630.096	23.36
630.287	23.39
630.478	23.47
630.669	23.39
630.859	23.53
631.05	23.63
631.241	23.84
631.432	23.68
631.623	23.61
631.813	23.56
632.004	23.27
632.195	23.18
632.385	23.36
632.576	23.36
632.767	23.43
632.957	23.32
633.148	23.16
633.339	23.08
633.529	23.14
633.72	23.23
633.91	23.38
634.101	23.43
634.292	23.62
634.482	23.43
634.673	23.53
634.863	23.5
635.054	23.67
635.244	24.07
635.435	24.04
635.625	24.13
635.815	23.99
636.006	23.89
636.196	23.96
636.387	23.84
636.577	23.92
636.767	24.04
636.958	24.05
637.148	23.85
637.338	23.63
637.529	23.82
637.719	23.83
637.909	24.1
638.099	24.33
638.29	24.44
638.48	24.43
638.67	24.43
638.86	24.28
639.05	24.45
639.241	24.42
639.431	24.47
639.621	24.16
639.811	24.16
640.001	24.15
640.191	23.8
640.381	23.85
640.571	23.95
640.761	24.03
640.951	24.11
641.141	23.85
641.331	24.06
641.521	23.83
641.711	23.88
641.901	23.72
642.091	23.69
642.281	23.81
642.471	23.87
642.661	24.04
642.851	24.02
643.041	24.04
643.231	24.25
643.42	24.33
643.61	24.84
643.8	24.99
643.99	25.11
644.18	25.01
644.369	25.25
644.559	25.29
644.749	25.21
644.939	25.15
645.128	24.93
645.318	24.95
645.508	24.98
645.697	24.97
645.887	24.92
646.076	25.04
646.266	25.3
646.456	25.31
646.645	25.38
646.835	25.21
647.024	25.34
647.214	25.59
647.403	25.4
647.593	25.2
647.782	25.02
647.972	24.89
648.161	24.88
648.351	24.7
648.54	24.67
648.73	24.69
648.919	24.86
649.108	24.63
649.298	24.75
649.487	24.84
649.677	24.96
649.866	24.96
650.055	25.19
650.244	25.24
650.434	25.4
650.623	25.44
650.812	25.3
651.002	25.28
651.191	25.35
651.38	25.2
651.569	25.35
651.758	25.29
651.947	25.28
652.137	25.21
652.326	25.06
652.515	25.41
652.704	25.28
652.893	25.33
653.082	25.46
653.271	25.77
653.46	25.71
653.649	25.65
653.838	25.82
654.027	25.77
654.216	25.79
654.405	26
654.594	25.47
654.783	25.48
654.972	25.57
655.161	25.66
655.35	25.41
655.539	25.44
655.728	25.28
655.916	25.26
656.105	25.57
656.294	25.69
656.483	25.82
656.672	25.86
656.86	25.89
657.049	25.93
657.238	25.78
657.427	26.23
657.615	26.33
657.804	26.36
657.993	26.39
658.181	26.4
658.37	26.35
658.559	26.28
658.747	26.34
658.936	26.54
659.125	26.79
659.313	26.71
659.502	26.41
659.69	26.6
659.879	26.96
660.067	26.94
660.256	27.1
660.444	27.09
660.633	27.14
660.821	27.3
661.01	27.15
661.198	26.98
661.387	27.16
661.575	26.98
661.763	26.7
661.952	26.41
662.14	26.52
662.328	26.2
662.517	26.36
662.705	26.4
662.893	26.22
663.082	26.22
663.27	26.04
663.458	26.06
663.646	26.23
663.834	26.34
664.023	26.34
664.211	26.33
664.399	26.29
664.587	26.11
664.775	25.83
664.963	25.92
665.152	25.82
665.34	26.05
665.528	26.11
665.716	26.21
665.904	26.21
666.092	26.48
666.28	26.41
666.468	26.6
666.656	26.75
666.844	27.05
667.032	27.35
667.22	27.58
667.408	27.2
667.596	27.23
667.784	27.22
667.971	27.32
668.159	27.15
668.347	27.28
668.535	27.22
668.723	27.15
668.911	26.99
669.098	26.87
669.286	26.85
669.474	27.04
669.662	26.9
669.849	26.95
670.037	26.85
670.225	27
670.413	26.9
670.6	26.96
670.788	27.01
670.976	27.1
671.163	27.18
671.351	27.05
671.538	27.28
671.726	27.14
671.913	27.05
672.101	26.95
672.289	26.62
672.476	26.62
672.664	26.71
672.851	26.71
673.039	26.69
673.226	26.48
673.413	26.43
673.601	26.22
673.788	26.22
673.976	26.57
674.163	26.63
674.35	26.94
674.538	26.92
674.725	27.11
674.912	26.96
675.1	27.03
675.287	27.04
675.474	27.22
675.662	27.34
675.849	27.55
676.036	27.31
676.223	27.41
676.411	27.28
676.598	27.43
676.785	27.24
676.972	27.47
677.159	27.77
677.346	27.86
677.533	28.01
677.721	27.87
677.908	27.78
678.095	27.74
678.282	27.66
678.469	28.02
678.656	28.01
678.843	28.14
679.03	28.35
679.217	28.02
679.404	27.95
679.591	28.14
679.778	28.11
679.964	28.36
680.151	28.19
680.338	28.33
680.525	28.01
680.712	27.77
680.899	27.76
681.086	27.58
681.272	27.85
681.459	28.26
681.646	28.23
681.833	28.44
682.02	28.29
682.206	28.93
682.393	28.98
682.58	29.47
682.766	29.5
682.953	29.63
683.14	29.74
683.326	29.97
683.513	29.79
683.7	29.53
683.886	29.53
684.073	29.7
684.259	29.49
684.446	29.56
684.632	29.35
684.819	29.79
685.005	29.47
685.192	29.41
685.378	29.16
685.565	29.01
685.751	28.86
685.938	28.82
686.124	28.71
686.31	28.55
686.497	28.19
686.683	28.09
686.87	28.37
687.056	28.32
687.242	28.36
687.429	28.45
687.615	28.47
687.801	28.68
687.987	28.76
688.174	28.87
688.36	29.26
688.546	29.45
688.732	29.57
688.918	29.03
689.105	29.02
689.291	28.8
689.477	28.78
689.663	29.07
689.849	28.99
690.035	29.02
690.221	29
690.407	28.77
690.593	28.73
690.779	28.56
690.965	28.58
691.151	28.77
691.337	29.02
691.523	29.24
691.709	29.29
691.895	29.4
692.081	29.47
692.267	29.55
692.453	29.46
692.639	29.43
692.825	29.45
693.011	29.52
693.196	29.72
693.382	29.95
693.568	29.51
693.754	29.22
693.94	28.94
694.125	28.74
694.311	28.75
694.497	28.84
694.682	29.19
694.868	29.25
695.054	29.47
695.239	29.54
695.425	29.45
695.611	29.63
695.796	29.73
695.982	30.15
696.168	30.32
696.353	30.17
696.539	30.07
696.724	29.81
696.91	29.86
697.095	29.78
697.281	29.84
697.466	29.64
697.652	29.71
697.837	29.52
698.023	29.41
698.208	29.26
698.393	29.41
698.579	29.6
698.764	29.72
698.949	29.47
699.135	29.53
699.32	29.17
699.505	29.1
699.691	28.86
699.876	28.91
700.061	28.8
700.246	28.92
700.432	28.37
700.617	28.08
700.802	28.14
700.987	28.38
701.172	27.97
701.358	27.85
701.543	28.26
701.728	28.38
701.913	28.67
702.098	28.5
702.283	28.48
702.468	29.02
702.653	28.86
702.838	28.87
703.023	29.19
703.208	29.7
703.393	30.35
703.578	30.23
703.763	30.38
703.948	30.49
704.133	31.28
704.318	31.31
704.503	30.9
704.688	31.13
704.873	31.05
705.057	30.92
705.242	31.08
705.427	30.62
705.612	30.6
705.797	30.38
705.981	30.13
706.166	29.91
706.351	29.91
706.536	30.28
706.72	30.25
706.905	30.5
707.09	30.06
707.274	29.85
707.459	30.11
707.644	30.25
707.828	30.56
708.013	30.51
708.197	30.11
708.382	30
708.567	29.94
708.751	30.25
708.936	30.32
709.12	30.49
709.305	30.24
709.489	30.28
709.673	30.1
709.858	29.9
710.042	30.23
710.227	30.38
710.411	30.64
710.596	30.89
710.78	30.64
710.964	30.62
711.149	30.91
711.333	31.26
711.517	31.36
711.702	31.53
711.886	31.47
712.07	31.28
712.254	31.48
712.438	31.57
712.623	31.69
712.807	31.93
712.991	31.98
713.175	32.06
713.359	32.08
713.544	31.76
713.728	31.64
713.912	31.68
714.096	31.82
714.28	31.69
714.464	31.56
714.648	31.29
714.832	31.09
715.016	30.71
715.2	30.83
715.384	30.73
715.568	31.14
715.752	30.99
715.936	31.17
716.12	30.95
716.304	30.73
716.488	30.44
716.671	30.75
716.855	31.12
717.039	30.86
717.223	30.56
717.407	30.37
717.59	30.33
717.774	30.37
717.958	30.29
718.142	30.23
718.325	30.78
718.509	31.05
718.693	30.69
718.877	30.06
719.06	30.64
719.244	30.29
719.428	30.34
719.611	29.69
719.795	29.91
719.978	29.86
720.162	29.92
720.345	29.46
720.529	29.1
720.713	29.36
720.896	29.71
721.08	29.65
721.263	30.14
721.446	30.16
721.63	30.69
721.813	30.39
721.997	30.69
722.18	30.73
722.364	30.91
722.547	30.96
722.73	30.75
722.914	30.8
723.097	30.9
723.28	30.76
723.464	30.8
723.647	30.26
723.83	30.31
724.013	30.13
724.197	30.29
724.38	30.22
724.563	30.59
724.746	30.64
724.929	30.65
725.112	29.65
725.296	29.67
725.479	30.15
725.662	30.47
725.845	30.62
726.028	30.54
726.211	30.54
726.394	30.24
726.577	29.64
726.76	29.97
726.943	29.56
727.126	30.19
727.309	29.73
727.492	29.47
727.675	29.4
727.858	29.44
728.041	29.51
728.224	29.24
728.407	29.54
728.589	30.02
728.772	29.29
728.955	29.85
729.138	30.21
729.321	30.44
729.503	29.99
729.686	30.29
729.869	30.41
730.052	30.46
730.234	30.82
730.417	30.83
730.6	30.8
730.782	31.13
730.965	31.21
731.148	31.26
731.33	31.35
731.513	31.71
731.695	31.28
731.878	30.91
732.061	30.63
732.243	30.35
732.426	30.6
732.608	30.93
732.791	31.24
732.973	30.89
733.156	30.48
733.338	30.27
733.52	30.37
733.703	30.18
733.885	30.19
734.068	29.87
734.25	29.4
734.432	28.96
734.615	28.5
734.797	28.8
734.979	28.98
735.162	29.02
735.344	29.24
735.526	28.76
735.708	28.98
735.891	29.35
736.073	29.86
736.255	30.23
736.437	30.19
736.619	30.4
736.802	29.86
736.984	29.52
737.166	30.04
737.348	29.96
737.53	30.19
737.712	30.61
737.894	30.11
738.076	29.58
738.258	29.74
738.44	30.08
738.622	30.05
738.804	30.14
738.986	30.57
739.168	30.77
739.35	30.65
739.532	30.74
739.714	30.44
739.896	30.06
740.078	30.75
740.259	31.3
740.441	31.3
740.623	30.79
740.805	31.18
740.987	30.83
741.168	30.43
741.35	30.79
741.532	30.98
741.714	31.1
741.895	32.03
742.077	31.91
742.259	31.43
742.44	31.6
742.622	31.33
742.804	30.84
742.985	30.99
743.167	30.93
743.348	30.89
743.53	30.73
743.711	30.92
743.893	30.61
744.075	30.61
744.256	30.32
744.438	30.07
744.619	31.15
744.8	30.97
744.982	30.62
745.163	29.84
745.345	30.18
745.526	30.13
745.707	30.15
745.889	30.13
746.07	29.8
746.252	30.05
746.433	30.13
746.614	30.07
746.795	29.63
746.977	30.33
747.158	31.1
747.339	30.76
747.52	30.96
747.702	30.39
747.883	30.72
748.064	30.97
748.245	30.72
748.426	30.66
748.607	30.85
748.788	31.57
748.97	30.98
749.151	31.02
749.332	31.46
749.513	31.32
749.694	31.66
749.875	32.03
750.056	32.25
750.237	32.75
750.418	32.38
750.599	32.13
750.78	31.4
750.96	30.95
751.141	31.22
751.322	30.72
751.503	30.23
751.684	30.55
751.865	30.07
752.046	29.51
752.226	28.79
752.407	29.33
752.588	28.56
752.769	28.61
752.949	28.64
753.13	28.39
753.311	27.85
753.492	28.89
753.672	29.54
753.853	29.78
754.034	29.89
754.214	30.22
754.395	29.86
754.575	30.21
754.756	30.22
754.937	30.93
755.117	31.24
755.298	31.95
755.478	30.75
755.659	30.33
755.839	30.58
756.02	30.32
756.2	30.51
756.381	30.42
756.561	30.89
756.741	31.03
756.922	30.64
757.102	29.76
757.283	29.73
757.463	30.98
757.643	29.92
757.823	29.58
758.004	30.39
758.184	30.57
758.364	31.5
758.545	31.23
758.725	31.47
758.905	31.53
759.085	32.7
759.265	32.31
759.446	31.36
759.626	31.44
759.806	31.47
759.986	31.27
760.166	30.51
760.346	29.83
760.526	29.87
760.706	30.34
760.886	30.12
761.066	30.23
761.246	31.16
761.426	31.69
761.606	32.18
761.786	31.72
761.966	31.74
762.146	32.11
762.326	32.37
762.506	32.15
762.686	31.99
762.866	32.33
763.046	31.78
763.225	31.17
763.405	30.71
763.585	30.47
763.765	30.85
763.945	30.6
764.124	30.59
764.304	30.76
764.484	30.74
764.664	30.47
764.843	30.48
765.023	30.45
765.203	31.01
765.382	31.57
765.562	32.15
765.741	31.95
765.921	32.88
766.101	32.67
766.28	32.03
766.46	32.05
766.639	32.54
766.819	32.47
766.998	33.19
767.178	32.99
767.357	32.85
767.537	32.3
767.716	32.02
767.896	31.21
768.075	31.79
768.254	31.94
768.434	33.07
768.613	32.52
768.792	31.97
768.972	31.26
769.151	31.26
769.33	30.81
769.51	30.97
769.689	32.17
769.868	32.31
770.047	32.35
770.226	32.29
770.406	31.43
770.585	31.97
770.764	32.22
770.943	31.96
771.122	31.68
771.301	32.41
771.48	32.17
771.66	31.6
771.839	31.12
772.018	30.37
772.197	30.47
772.376	30.52
772.555	30.22
772.734	31.2
772.913	31.19
773.092	30.8
773.271	30.06
773.449	30.11
773.628	30.24
773.807	30.94
773.986	31.07
774.165	30.94
774.344	31.09
774.523	30.37
774.701	29.75
774.88	30.16
775.059	30.85
775.238	31.31
775.417	31.05
775.595	30.47
775.774	29.79
775.953	30.1
776.131	30.06
776.31	29.88
776.489	30.19
776.667	30.3
776.846	30.54
777.025	29.94
777.203	28.72
777.382	28.74
777.56	28.5
777.739	28.89
777.917	28.66
778.096	28.82
778.274	29.09
778.453	29.73
778.631	30.12
778.81	29.7
778.988	29.42
779.166	30.1
779.345	29.62
779.523	30.08
779.702	29.75
779.88	29.68
780.058	30.12
780.237	29.69
780.415	30.09
780.593	29.7
780.771	30.06
780.95	31.05
781.128	32.43
781.306	33.35
781.484	33.1
781.662	33.77
781.841	34.46
782.019	33.06
782.197	33.02
782.375	32.38
782.553	32.01
782.731	31.24
782.909	31.05
783.087	30.3
783.265	29.94
783.443	30.61
783.621	30.36
783.799	29.82
783.977	31.2
784.155	30.99
784.333	31.51
784.511	31.61
784.689	31.93
784.867	31.54
785.045	31.3
785.223	31.62
785.4	30.94
785.578	30.49
785.756	30.1
785.934	29.02
786.112	29.73
786.289	30.17
786.467	30.49
786.645	30.5
786.823	30.84
787	30.65
787.178	30.59
787.356	30.9
787.533	31.04
787.711	31.85
787.889	32.72
788.066	32.14
788.244	30.41
788.421	30.5
788.599	30.73
788.776	30.23
788.954	30.63
789.131	30.81
789.309	30.48
789.486	30.88
789.664	31.18
789.841	31.06
790.019	30.63
790.196	31.18
790.373	30.67
790.551	30.35
790.728	29.92
790.906	29.89
791.083	30.15
791.26	30.32
791.437	31.3
791.615	31.2
791.792	31.57
791.969	32.07
792.146	32.61
792.324	32.65
792.501	33.24
792.678	34.11
792.855	34.51
793.032	32.53
793.209	32.22
793.387	31.33
793.564	30.73
793.741	29.63
793.918	28.81
794.095	28.87
794.272	29.38
794.449	28.13
794.626	28.23
794.803	27.65
794.98	30.07
795.157	30.17
795.334	29.4
795.511	29.48
795.688	30.35
795.864	31.65
796.041	32.22
796.218	32.32
796.395	33.43
796.572	34.78
796.749	34.3
796.925	33.07
797.102	34.43
797.279	34.14
797.456	34.57
797.632	33.91
797.809	33.92
797.986	33.39
798.162	33.08
798.339	33.14
798.516	32.13
798.692	32.59
798.869	32.77
799.046	31.53
799.222	31.39
799.399	31.04
799.575	32.45
799.752	32.14
799.928	31.83
800.105	32.24
800.281	32.07
800.458	31.8
800.634	31.68
800.811	31.88
800.987	32.03
801.163	32.42
801.34	31.69
801.516	30.34
801.692	30.9
801.869	30.95
802.045	31.69
802.221	31.96
802.398	31.72
802.574	31.66
802.75	31.06
802.926	31.28
803.103	31.89
803.279	32.19
803.455	31.92
803.631	31.47
803.807	31.16
803.983	29.96
804.16	29.39
804.336	28.66
804.512	28.18
804.688	28.45
804.864	28.18
805.04	28.4
805.216	27.43
805.392	28.3
805.568	28.25
805.744	29.46
805.92	30.33
806.096	30.68
806.272	31.67
806.448	32.56
806.623	32.88
806.799	32.9
806.975	33.02
807.151	33.53
807.327	34.76
807.503	34.32
807.678	34.53
807.854	33.63
808.03	34
808.206	33.81
808.381	33.13
808.557	33.01
808.733	32.34
808.908	32.05
809.084	33.3
809.26	32.96
809.435	32.86
809.611	31.4
809.787	30.95
809.962	30.29
810.138	30.94
810.313	32.19
810.489	31.06
810.664	32.66
810.84	31.68
811.015	31.9
811.191	30.14
811.366	32.03
811.542	32.05
811.717	32.44
811.892	33.21
812.068	32.7
812.243	31.06
812.419	32.26
812.594	30.62
812.769	31.7
812.944	31.57
813.12	31.09
813.295	30.12
813.47	29.68
813.645	30.38
813.821	28.02
813.996	28.43
814.171	29.35
814.346	29.34
814.521	30.26
814.697	31.18
814.872	29.08
815.047	30.19
815.222	31.01
815.397	30.45
815.572	30.15
815.747	32.14
815.922	30.7
816.097	29.91
816.272	31.73
816.447	32.72
816.622	31.2
816.797	32.25
816.972	31.59
817.147	31.6
817.322	33.52
817.496	33.39
817.671	32.3
817.846	32.88
818.021	31.95
818.196	29.49
818.371	29.79
818.545	30.09
818.72	31.5
818.895	31.45
819.069	30.49
819.244	29.98
819.419	30.83
819.594	32.25
819.768	32.65
819.943	34.24
820.117	34.87
820.292	34.01
820.467	34.73
820.641	34.57
820.816	35.03
820.99	35
821.165	34.83
821.339	34.75
821.514	34.26
821.688	34.32
821.863	33.99
822.037	33.99
822.212	34.18
822.386	33.92
822.56	33.74
822.735	33.66
822.909	33.91
823.084	33.81
823.258	33.54
823.432	33.37
823.606	33.03
823.781	33.31
823.955	33.43
824.129	33.18
824.303	33.35
824.478	33.35
824.652	32.63
824.826	32.19
825	32.47
825.174	32.5
825.348	32.53
825.523	32.88
825.697	32.26
825.871	31.82
826.045	31.97
826.219	31.8
826.393	32
826.567	32.6
826.741	33.06
826.915	32.72
827.089	33.4
827.263	33.73
827.437	34.01
827.611	34.33
827.784	34.83
827.958	34.8
828.132	34.36
828.306	34.41
828.48	34.49
828.654	34.22
828.827	34.62
829.001	33.81
829.175	34.11
829.349	34.02
829.522	34.15
829.696	33.74
829.87	32.91
830.044	33.39
830.217	32.87
830.391	33.02
830.565	32.07
830.738	32.87
830.912	31.75
831.085	31.2
831.259	30.51
831.432	30.71
831.606	31.61
831.779	32.18
831.953	31.59
832.126	31.12
832.3	30.91
832.473	31.54
832.647	30.7
832.82	31.08
832.994	30.99
833.167	31.64
833.34	31.93
833.514	31.14
833.687	31.5
833.86	31.94
834.034	31.58
834.207	31.53
834.38	31.33
834.553	31.47
834.727	32.57
834.9	32.43
835.073	31.64
835.246	30.45
835.419	31.02
835.593	31.14
835.766	30.56
835.939	31.66
836.112	31.82
836.285	31.32
836.458	31.06
836.631	30.72
836.804	32.07
836.977	32.43
837.15	34.4
837.323	33.73
837.496	32.51
837.669	33.44
837.842	32.54
838.015	31.09
838.188	33.19
838.361	33.29
838.533	33.07
838.706	32.53
838.879	32.3
839.052	31.73
839.225	33.45
839.398	33.62
839.57	33.76
839.743	34.06
839.916	36.1
840.088	34.78
840.261	33.92
840.434	33.13
840.607	32.87
840.779	32.4
840.952	29.49
841.124	26.74
841.297	28.61
841.47	27.99
841.642	28.9
841.815	28.48
841.987	27.98
842.16	29.63
842.332	27.47
842.505	29.66
842.677	29.81
842.85	30.59
843.022	32.65
843.194	31.39
843.367	29.42
843.539	28.57
843.712	26.77
843.884	26.34
844.056	26.51
844.229	27.35
844.401	21.58
844.573	22.42
844.745	26.27
844.918	24.72
845.09	24.46
845.262	30.87
845.434	30.81
845.606	28.21
845.779	28.99
845.951	27.1
846.123	25.66
846.295	25.43
846.467	24.44
846.639	24.79
846.811	22.83
846.983	23.34
847.155	17.16
847.327	16.9
847.499	18.3
847.671	17.12
847.843	17.09
848.015	17.92
848.187	21.22
848.359	22.6
848.531	17.5
848.703	20.35
848.875	20.67
849.047	19.64
849.218	18.26
849.39	18.8
849.562	21.29
849.734	21.7
849.905	24.37
850.077	20.95
850.249	20.88
850.421	24.88
850.592	20.96
850.764	24.1
850.936	30.95
851.107	31.62
851.279	32.17
851.451	33.57
851.622	36.52
851.794	36.31
851.965	38.93
852.137	36.83
852.308	36.17
852.48	39.61
852.651	34.17
852.823	32.91
852.994	28.47
853.166	31.88
853.337	27.87
853.509	24.8
853.68	26.75
853.851	24.4
854.023	22.55
854.194	22.37
854.365	24.97
854.537	25.2
854.708	28.33
854.879	34.34
855.05	32.3
855.222	34.18
855.393	37.03
855.564	35.26
855.735	36.64
855.906	44.03
856.078	43.99
856.249	47.26
856.42	42.28
856.591	38.56
856.762	35.31
856.933	33.79
857.104	31.37
857.275	28.66
857.446	28.5
857.617	29.18
857.788	26.92
857.959	26.88
858.13	24.65
858.301	29.21
858.472	33.05
858.643	33.06
858.814	33.8
858.985	31.52
859.155	32.57
859.326	32.21
859.497	28.07
859.668	26.04
859.839	26.74
860.009	21.44
860.18	20.25
860.351	8.04
860.522	9.91
860.692	11.17
860.863	14.77
861.034	17.6
861.204	15.12
861.375	17.06
861.546	17.34
861.716	12.78
861.887	14.48
862.057	18.57
862.228	29.61
862.398	28.82
862.569	31.51
862.739	34.69
862.91	28.55
863.08	28.48
863.251	28.63
863.421	25.44
863.592	30.58
863.762	27.35
863.932	26.77
864.103	23.84
864.273	23.77
864.443	22.6
864.614	20.12
864.784	24.8
864.954	25.97
865.125	33.27
865.295	34.31
865.465	34.51
865.635	37.47
865.805	39.42
865.976	40.76
866.146	43.75
866.316	39.6
866.486	34.57
866.656	33.64
866.826	30.7
866.996	23.44
867.166	26.23
867.336	27.13
867.506	28.89
867.676	22.27
867.846	22.51
868.016	20.61
868.186	23.78
868.356	29.27
868.526	27.29
868.696	31.69
868.866	30.1
869.036	31.94
869.206	25.82
869.376	23.85
869.545	27.3
869.715	27.94
869.885	24.36
870.055	28.89
870.224	27.62
870.394	26.17
870.564	30.67
870.734	34.75
870.903	28.97
871.073	25.88
871.243	24.88
871.412	22.32
871.582	21.14
871.751	23.77
871.921	19.8
872.091	17.15
872.26	20.93
872.43	12.82
872.599	11.72
872.769	12.78
872.938	18.48
873.108	19.55
873.277	18.9
873.446	18.48
873.616	15.06
873.785	11.48
873.955	15.33
874.124	14.41
874.293	16.31
874.463	12.93
874.632	15.41
874.801	16.53
874.971	20.73
875.14	21.68
875.309	20.7
875.478	21.64
875.647	25.71
875.817	24.55
875.986	23.41
876.155	27.12
876.324	30.51
876.493	32.9
876.662	33.27
876.831	31.25
877	32.66
877.17	36.14
877.339	39.9
877.508	36.69
877.677	38.9
877.846	38.64
878.015	35.2
878.184	32.76
878.352	29.13
878.521	28.45
878.69	30.21
878.859	32.55
879.028	28.85
879.197	25.21
879.366	26.39
879.534	24.61
879.703	25.61
879.872	27.49
880.041	26.78
880.21	28.51
880.378	28
880.547	28.43
880.716	28.7
880.884	29.96
881.053	29.98
881.222	31.27
881.39	31.28
881.559	31.42
881.727	31.11
881.896	32.43
882.065	32.26
882.233	33
882.402	33.17
882.57	32.52
882.739	32.7
882.907	33.45
883.076	33.19
883.244	33.48
883.412	33.34
883.581	33.66
883.749	32.97
883.918	33.4
884.086	32.21
884.254	31.77
884.423	33.62
884.591	33.61
884.759	32.36
884.927	32.82
885.096	32.35
885.264	33.87
885.432	35.24
885.6	35.88
885.769	35.1
885.937	37.05
886.105	36.95
886.273	34.78
886.441	33.89
886.609	35.45
886.777	34.55
886.945	35.28
887.113	34.64
887.281	31.63
887.449	32.07
887.617	30.84
887.785	31.29
887.953	31.37
888.121	25.7
888.289	22.57
888.457	21.12
888.625	17.31
888.793	18.13
888.961	13.99
889.129	14.53
889.296	17.36
889.464	19.88
889.632	16.86
889.8	12.51
889.967	22.98
890.135	29.98
