Data from 2938579_Reflection_3.txt Node
Date: Sun Jun 14 21:21:44 EDT 2015
User: robert
Spectrometer: USB4E03002
Autoset integration time: false
Trigger mode: 4
Integration Time (sec): 1.000000E-1
Scans to average: 10
Electric dark correction enabled: true
Nonlinearity correction enabled: false
Boxcar width: 5
Stray light correction enabled: false
XAxis mode: Wavelengths
Stop averaging: false
Number of Pixels in Spectrum: 3648
>>>>>Begin Spectral Data<<<<<
177.575	160.71
177.794	139.34
178.014	1458.44
178.233	-6228.12
178.452	-355.11
178.672	-414.85
178.891	72.06
179.11	160.72
179.33	148
179.549	228.54
179.768	428.42
179.987	230.26
180.207	265.86
180.426	436.76
180.645	438.32
180.864	245.4
181.084	264.97
181.303	291.9
181.522	199.84
181.741	189.47
181.96	134.17
182.179	117.76
182.398	110.75
182.618	78.72
182.837	62
183.056	55.11
183.275	65.11
183.494	53.32
183.713	65.41
183.932	75.6
184.151	72.22
184.37	88.06
184.589	82.35
184.808	76.78
185.027	70.36
185.246	96.72
185.465	76.06
185.684	82.45
185.903	90.11
186.122	91.77
186.341	120.57
186.56	148.4
186.779	125.94
186.998	130.87
187.216	157.28
187.435	160.26
187.654	164.35
187.873	204.32
188.092	239.68
188.311	184.34
188.53	215.8
188.748	233.46
188.967	433.59
189.186	402.03
189.405	-1313.66
189.623	-29930.56
189.842	-445.15
190.061	-461.06
190.28	-572.9
190.498	-1131.19
190.717	-3301.55
190.936	940.3
191.154	980.25
191.373	347.64
191.592	645.54
191.81	210.22
192.029	264.14
192.248	196.57
192.466	144.89
192.685	128.22
192.904	139.93
193.122	147.1
193.341	163.66
193.559	138.47
193.778	146
193.996	128.95
194.215	149.02
194.433	131.45
194.652	95.04
194.87	105.29
195.089	112.53
195.307	93.82
195.526	78.06
195.744	87.56
195.963	94.2
196.181	108.94
196.399	118.14
196.618	91.82
196.836	88.88
197.055	117.62
197.273	110.87
197.491	103.44
197.71	114.7
197.928	127.3
198.146	102.87
198.365	90.05
198.583	79.49
198.801	82.48
199.019	89.28
199.238	87.88
199.456	69.7
199.674	62.02
199.892	65.96
200.111	66.74
200.329	42.98
200.547	31.47
200.765	44.94
200.983	25.62
201.202	5.61
201.42	24.95
201.638	25.28
201.856	7.86
202.074	22.88
202.292	17.54
202.51	42
202.728	66.18
202.946	98.16
203.165	82.7
203.383	88.34
203.601	91.47
203.819	76.99
204.037	89.72
204.255	124.76
204.473	139.21
204.691	94.06
204.909	74.34
205.127	96.81
205.345	79.88
205.562	79.52
205.78	95.02
205.998	92.05
206.216	89.48
206.434	103.98
206.652	99.23
206.87	88.76
207.088	91.45
207.306	89.25
207.523	78.13
207.741	81.8
207.959	90.67
208.177	70.69
208.395	67.68
208.612	69.75
208.83	46.74
209.048	52.81
209.266	70.47
209.483	77.15
209.701	66.54
209.919	72
210.136	75.21
210.354	86.31
210.572	106.99
210.79	100.54
211.007	101.51
211.225	108.29
211.442	96.91
211.66	79.06
211.878	86.84
212.095	183.49
212.313	166.22
212.53	164.74
212.748	134.08
212.966	127.57
213.183	135.1
213.401	119.16
213.618	135.7
213.836	170.83
214.053	151.47
214.271	129.14
214.488	63.4
214.705	52.66
214.923	47.8
215.14	48.62
215.358	43.58
215.575	33.36
215.793	48.53
216.01	38.13
216.227	26.77
216.445	26.56
216.662	2.42
216.879	5.96
217.097	7.95
217.314	3.4
217.531	35.19
217.749	34.63
217.966	53.73
218.183	43.24
218.4	42.18
218.618	42.76
218.835	46.96
219.052	58.44
219.269	64.03
219.487	62.25
219.704	66.98
219.921	51.22
220.138	49.6
220.355	34.08
220.572	36.95
220.79	39.12
221.007	40.27
221.224	38.82
221.441	36.91
221.658	36.02
221.875	34.07
222.092	31.49
222.309	29.09
222.526	29.16
222.743	37.08
222.96	33.43
223.177	31.95
223.394	31.35
223.611	29.25
223.828	33.04
224.045	30.17
224.262	29.87
224.479	26.64
224.696	27.98
224.913	28.29
225.13	26.22
225.347	24.92
225.564	24.99
225.781	22.35
225.997	22.85
226.214	19.66
226.431	18.62
226.648	17.01
226.865	17.22
227.082	16.38
227.298	15.68
227.515	14.59
227.732	14.53
227.949	13.52
228.165	13.82
228.382	12.85
228.599	13.84
228.816	13.59
229.032	13.45
229.249	13.25
229.466	13.19
229.682	13.39
229.899	13.72
230.116	14.09
230.332	13.38
230.549	14.53
230.765	14.41
230.982	14.32
231.199	14.88
231.415	16.31
231.632	16.85
231.848	16.74
232.065	15.52
232.281	16.93
232.498	17.52
232.714	19.39
232.931	18.62
233.147	18.84
233.364	16.83
233.58	15.85
233.797	18.29
234.013	18.33
234.23	16.74
234.446	18.79
234.662	18.31
234.879	16.93
235.095	15.33
235.312	15.12
235.528	16.36
235.744	16.31
235.961	16.07
236.177	11.86
236.393	12.33
236.61	15.59
236.826	14.6
237.042	13.69
237.258	12.22
237.475	13.16
237.691	12.94
237.907	11.91
238.123	13.77
238.339	14.16
238.556	15.58
238.772	14.85
238.988	12.42
239.204	11.89
239.42	12.77
239.636	13.72
239.853	13.13
240.069	13.1
240.285	12.38
240.501	11.32
240.717	10.76
240.933	10.73
241.149	10.93
241.365	12.15
241.581	12.83
241.797	12.22
242.013	11.48
242.229	12.19
242.445	12.47
242.661	13.28
242.877	14.14
243.093	14.56
243.309	13.71
243.525	13.49
243.741	12.44
243.957	11.23
244.173	10.63
244.388	11.47
244.604	11
244.82	10.65
245.036	9.86
245.252	9.48
245.468	9.7
245.683	9.99
245.899	10.15
246.115	10.03
246.331	10.23
246.547	10.7
246.762	10.25
246.978	10.19
247.194	10.33
247.409	10.68
247.625	11.11
247.841	11.09
248.057	11.25
248.272	11.27
248.488	11.63
248.703	11.46
248.919	11.55
249.135	11.45
249.35	11.77
249.566	11.31
249.782	11.47
249.997	10.89
250.213	10.36
250.428	10.27
250.644	9.94
250.859	9.97
251.075	10.18
251.29	9.8
251.506	10.54
251.721	10.63
251.937	10.44
252.152	10.93
252.368	11.54
252.583	12.55
252.798	12
253.014	12.1
253.229	11.33
253.445	11.61
253.66	12.25
253.875	12.02
254.091	12.27
254.306	12.51
254.521	11.22
254.737	10.69
254.952	10.27
255.167	10.91
255.383	10.75
255.598	10.86
255.813	10.01
256.028	8.92
256.244	7.99
256.459	7.16
256.674	7.59
256.889	7.92
257.104	7.59
257.32	7.45
257.535	7.48
257.75	7.28
257.965	7.29
258.18	7.58
258.395	7.72
258.61	7.98
258.826	7.89
259.041	7.4
259.256	7.28
259.471	7.27
259.686	7.14
259.901	6.89
260.116	6.72
260.331	6.53
260.546	6.57
260.761	6.52
260.976	6.05
261.191	6.35
261.406	7.31
261.621	7.57
261.836	7.82
262.05	7.82
262.265	8.33
262.48	9.11
262.695	9.68
262.91	9.74
263.125	9.63
263.34	10.73
263.555	10.82
263.769	9.85
263.984	9.38
264.199	9.9
264.414	9.86
264.629	9.23
264.843	8.5
265.058	8.41
265.273	7.75
265.488	7.41
265.702	6.43
265.917	6.1
266.132	6.58
266.346	7.17
266.561	6.86
266.776	6.79
266.99	7.27
267.205	7.44
267.42	6.69
267.634	6.91
267.849	6.99
268.063	7.36
268.278	7.91
268.492	7.89
268.707	7.29
268.922	7.31
269.136	7.53
269.351	7.29
269.565	7.42
269.78	7.7
269.994	7.41
270.209	7.57
270.423	7.62
270.637	7.22
270.852	6.75
271.066	7.19
271.281	7.29
271.495	7.14
271.709	7.6
271.924	7.61
272.138	8.04
272.353	8.36
272.567	8.44
272.781	8.72
272.996	8.78
273.21	9.09
273.424	9.09
273.638	8.81
273.853	8.93
274.067	8.84
274.281	9.02
274.495	8.99
274.71	9.08
274.924	8.96
275.138	8.4
275.352	8.5
275.566	9.16
275.781	9.28
275.995	9.75
276.209	9.97
276.423	9.76
276.637	9.42
276.851	9.33
277.065	9.13
277.279	9.32
277.493	9.87
277.707	9.7
277.921	9.33
278.135	8.34
278.349	7.49
278.563	7.46
278.777	7.06
278.991	6.83
279.205	7.07
279.419	7.19
279.633	6.83
279.847	6.5
280.061	6.39
280.275	6.17
280.489	7.12
280.703	7.54
280.917	7.45
281.131	7.22
281.344	7.74
281.558	7.44
281.772	7.2
281.986	7.23
282.2	7.11
282.414	7.11
282.627	6.98
282.841	6.45
283.055	6.69
283.269	6.72
283.482	7.05
283.696	6.69
283.91	6.57
284.123	6.46
284.337	6.42
284.551	6.58
284.764	6.72
284.978	6.94
285.192	6.81
285.405	6.63
285.619	6.6
285.833	6.89
286.046	7.05
286.26	7.2
286.473	7.29
286.687	7.72
286.9	7.82
287.114	7.55
287.327	7.62
287.541	8.01
287.754	7.7
287.968	7.3
288.181	6.62
288.395	6.69
288.608	6.86
288.822	6.74
289.035	6.34
289.248	6.24
289.462	6.59
289.675	6.36
289.889	6.46
290.102	6.51
290.315	6.87
290.529	7.34
290.742	7.04
290.955	6.65
291.169	6.94
291.382	7.1
291.595	7.1
291.808	7.11
292.022	7.29
292.235	6.83
292.448	7.56
292.661	7.45
292.875	7.32
293.088	7.61
293.301	7.97
293.514	7.72
293.727	7.79
293.94	8.06
294.153	7.94
294.367	7.48
294.58	7.58
294.793	7.15
295.006	7.28
295.219	7.05
295.432	7.13
295.645	7.09
295.858	7.26
296.071	7.14
296.284	6.97
296.497	7.23
296.71	7.62
296.923	7.92
297.136	7.86
297.349	8.02
297.562	8.11
297.775	8.2
297.988	8.16
298.201	8.27
298.414	8.26
298.626	8.22
298.839	8.04
299.052	8.12
299.265	7.74
299.478	7.85
299.691	7.7
299.903	8.01
300.116	7.78
300.329	8.17
300.542	7.98
300.755	8.41
300.967	8.8
301.18	8.85
301.393	8.77
301.605	8.69
301.818	9.12
302.031	8.98
302.243	9.16
302.456	9.35
302.669	9.13
302.881	9.55
303.094	9.45
303.307	9.15
303.519	9.11
303.732	9.17
303.944	9.48
304.157	9.35
304.37	9.32
304.582	9.21
304.795	9.25
305.007	9.33
305.22	9.11
305.432	8.88
305.645	9.23
305.857	8.99
306.069	9
306.282	8.76
306.494	8.72
306.707	8.49
306.919	8.19
307.132	8.09
307.344	8.11
307.556	8.35
307.769	8.53
307.981	8.21
308.193	8.21
308.406	8.02
308.618	8.26
308.83	8.07
309.043	8.6
309.255	8.91
309.467	9
309.679	8.94
309.892	9.01
310.104	9
310.316	8.89
310.528	9.05
310.74	9.25
310.953	9.31
311.165	9.01
311.377	8.72
311.589	8.61
311.801	8.68
312.013	8.57
312.225	8.51
312.437	8.57
312.649	9.1
312.862	9.38
313.074	9.81
313.286	9.58
313.498	9.97
313.71	10.37
313.922	10.52
314.134	10.18
314.346	10.33
314.558	10.23
314.77	10.78
314.982	10.86
315.193	10.77
315.405	10.45
315.617	10.36
315.829	10.48
316.041	9.92
316.253	10.09
316.465	10.82
316.677	11.08
316.888	11.43
317.1	11.02
317.312	10.63
317.524	10.39
317.736	10.32
317.947	11.01
318.159	11.19
318.371	12.34
318.583	12.47
318.794	12.36
319.006	12.28
319.218	12.2
319.43	12.14
319.641	12.58
319.853	13.07
320.064	13.17
320.276	12.86
320.488	12.47
320.699	12.17
320.911	12.16
321.123	12.24
321.334	12.33
321.546	12.41
321.757	12.91
321.969	12.84
322.18	12.89
322.392	13.14
322.603	13.52
322.815	13.98
323.026	13.77
323.238	13.75
323.449	13.71
323.661	13.7
323.872	13.8
324.083	13.85
324.295	13.97
324.506	13.76
324.718	13.58
324.929	13.74
325.14	13.89
325.352	14.2
325.563	14.38
325.774	14.51
325.986	14.77
326.197	14.75
326.408	14.82
326.62	14.86
326.831	15.34
327.042	15.59
327.253	15.55
327.464	15.16
327.676	15.14
327.887	15.08
328.098	15.03
328.309	15
328.52	15.5
328.732	15.61
328.943	15.57
329.154	15.63
329.365	15.67
329.576	15.84
329.787	16.74
329.998	17.16
330.209	17.23
330.42	17.54
330.631	17.53
330.842	17.34
331.053	17.23
331.264	17.49
331.475	17.72
331.686	18.23
331.897	18.18
332.108	18.21
332.319	17.94
332.53	18.08
332.741	18.17
332.952	17.99
333.163	17.91
333.374	18.22
333.585	18.2
333.795	18.05
334.006	18.04
334.217	18.11
334.428	18.15
334.639	18.63
334.849	18.69
335.06	18.38
335.271	18.43
335.482	18.63
335.692	18.55
335.903	18.52
336.114	18.41
336.325	18.06
336.535	18.55
336.746	18.21
336.957	17.81
337.167	17.9
337.378	18.26
337.589	18.95
337.799	18.97
338.01	18.83
338.22	18.91
338.431	18.8
338.642	18.97
338.852	18.44
339.063	18.51
339.273	18.35
339.484	18.08
339.694	17.53
339.905	17.43
340.115	17.15
340.326	17.32
340.536	17.69
340.746	17.87
340.957	18.01
341.167	18.1
341.378	18.12
341.588	18.25
341.799	18.32
342.009	18.64
342.219	18.59
342.43	18.4
342.64	18.35
342.85	18.15
343.061	17.97
343.271	17.78
343.481	17.45
343.691	17.34
343.902	17.33
344.112	17.36
344.322	17.05
344.532	16.81
344.743	17.07
344.953	16.88
345.163	16.65
345.373	16.93
345.583	17.04
345.793	17.24
346.004	17.32
346.214	17.31
346.424	17.28
346.634	17.51
346.844	17.37
347.054	17.24
347.264	17.33
347.474	17.43
347.684	17.31
347.894	17.2
348.104	17.51
348.314	17.57
348.524	17.27
348.734	17.28
348.944	17.18
349.154	17.37
349.364	17.39
349.574	17.04
349.784	16.68
349.994	16.89
350.204	16.83
350.413	16.5
350.623	16.43
350.833	16.87
351.043	16.77
351.253	17.03
351.463	16.58
351.672	16.73
351.882	16.99
352.092	17.39
352.302	17.22
352.511	17.41
352.721	17.34
352.931	17.05
353.141	17.34
353.35	17.59
353.56	17.69
353.77	18.1
353.979	18.19
354.189	18.43
354.399	18.18
354.608	17.93
354.818	17.91
355.027	18.2
355.237	18.47
355.447	17.92
355.656	17.69
355.866	17.54
356.075	17.34
356.285	17.08
356.494	16.9
356.704	16.78
356.913	16.88
357.123	16.71
357.332	16.39
357.542	16.2
357.751	16.32
357.96	16.28
358.17	16.04
358.379	16.03
358.589	15.99
358.798	15.93
359.007	16.01
359.217	15.96
359.426	15.95
359.635	16.08
359.845	16.03
360.054	16.03
360.263	16.1
360.472	16.1
360.682	16.16
360.891	16.27
361.1	16.19
361.309	16.19
361.519	16.3
361.728	16.36
361.937	16.21
362.146	16.44
362.355	16.59
362.564	16.59
362.774	16.7
362.983	16.49
363.192	16.38
363.401	16.37
363.61	16.53
363.819	16.44
364.028	16.26
364.237	16.3
364.446	16.17
364.655	15.84
364.864	15.83
365.073	15.92
365.282	16.31
365.491	16.6
365.7	16.45
365.909	16.4
366.118	16.45
366.327	16.46
366.536	16.45
366.745	16.51
366.954	16.67
367.162	16.59
367.371	16.39
367.58	16.21
367.789	15.78
367.998	15.81
368.207	15.91
368.415	15.72
368.624	15.86
368.833	15.9
369.042	15.9
369.25	15.78
369.459	15.81
369.668	15.75
369.877	15.43
370.085	15.44
370.294	15.52
370.503	15.31
370.711	15.49
370.92	15.48
371.129	15.5
371.337	15.47
371.546	15.38
371.754	15.57
371.963	15.39
372.171	15.62
372.38	15.65
372.589	15.64
372.797	15.49
373.006	15.11
373.214	14.85
373.423	14.75
373.631	14.57
373.84	14.38
374.048	14
374.256	14.02
374.465	14.07
374.673	14.15
374.882	14.15
375.09	14.25
375.298	14.5
375.507	14.64
375.715	14.6
375.923	14.55
376.132	14.61
376.34	14.56
376.548	14.75
376.757	14.62
376.965	14.45
377.173	14.53
377.381	14.4
377.59	14.26
377.798	14.09
378.006	14.15
378.214	14.14
378.423	14.18
378.631	14.45
378.839	14.49
379.047	14.55
379.255	14.54
379.463	14.49
379.671	14.69
379.879	14.48
380.088	14.58
380.296	14.6
380.504	14.54
380.712	14.59
380.92	14.33
381.128	14.22
381.336	14.13
381.544	14.19
381.752	13.98
381.96	13.95
382.168	13.87
382.376	13.9
382.584	13.77
382.791	13.88
382.999	13.72
383.207	13.8
383.415	13.94
383.623	13.93
383.831	13.78
384.039	13.78
384.247	13.76
384.454	13.92
384.662	13.68
384.87	13.63
385.078	13.55
385.285	13.65
385.493	13.61
385.701	13.35
385.909	13.49
386.116	13.4
386.324	13.63
386.532	13.73
386.739	13.71
386.947	13.71
387.155	13.78
387.362	13.71
387.57	13.58
387.778	13.51
387.985	13.59
388.193	13.51
388.4	13.43
388.608	13.41
388.816	13.3
389.023	13.2
389.231	13.34
389.438	13.1
389.646	13.11
389.853	13.2
390.061	13.23
390.268	13.23
390.475	13.14
390.683	13.43
390.89	13.25
391.098	13.01
391.305	13.03
391.512	12.96
391.72	13
391.927	13.01
392.135	13.07
392.342	13.07
392.549	12.94
392.756	12.77
392.964	12.8
393.171	12.75
393.378	12.81
393.586	12.75
393.793	12.75
394	12.71
394.207	12.53
394.414	12.36
394.622	12.27
394.829	12.36
395.036	12.34
395.243	12.01
395.45	12.02
395.657	11.93
395.864	11.92
396.072	12.01
396.279	11.97
396.486	12.01
396.693	11.96
396.9	11.87
397.107	11.7
397.314	11.87
397.521	11.93
397.728	11.84
397.935	11.91
398.142	12
398.349	11.71
398.556	11.7
398.763	11.73
398.97	11.79
399.177	11.66
399.383	11.65
399.59	11.48
399.797	11.38
400.004	11.45
400.211	11.41
400.418	11.38
400.625	11.37
400.831	11.27
401.038	11.28
401.245	11.13
401.452	11.13
401.658	11.07
401.865	11.15
402.072	11.2
402.279	11.22
402.485	11.12
402.692	11.1
402.899	11
403.105	11.07
403.312	11.02
403.519	10.99
403.725	10.94
403.932	11.1
404.138	11.08
404.345	11.02
404.552	10.81
404.758	10.85
404.965	10.76
405.171	10.72
405.378	10.64
405.584	10.69
405.791	10.76
405.997	10.92
406.204	10.91
406.41	10.81
406.617	10.89
406.823	10.8
407.029	10.79
407.236	10.66
407.442	10.68
407.649	10.78
407.855	10.72
408.061	10.68
408.268	10.65
408.474	10.41
408.68	10.41
408.887	10.36
409.093	10.55
409.299	10.61
409.505	10.58
409.712	10.7
409.918	10.67
410.124	10.57
410.33	10.4
410.537	10.33
410.743	10.41
410.949	10.41
411.155	10.33
411.361	10.29
411.567	10.29
411.773	10.33
411.98	10.26
412.186	10.17
412.392	10.21
412.598	10.34
412.804	10.26
413.01	10.21
413.216	10.05
413.422	10.12
413.628	9.97
413.834	9.96
414.04	9.97
414.246	9.96
414.452	9.95
414.658	9.98
414.864	9.98
415.07	10.01
415.275	9.96
415.481	10.13
415.687	10.05
415.893	10.07
416.099	9.87
416.305	9.95
416.511	9.9
416.716	9.85
416.922	9.83
417.128	9.77
417.334	9.72
417.539	9.74
417.745	9.56
417.951	9.53
418.157	9.52
418.362	9.58
418.568	9.56
418.774	9.55
418.979	9.55
419.185	9.43
419.391	9.4
419.596	9.38
419.802	9.34
420.008	9.43
420.213	8.83
420.419	8.89
420.624	8.87
420.83	8.75
421.035	8.8
421.241	8.79
421.446	8.82
421.652	8.8
421.857	8.79
422.063	8.76
422.268	8.64
422.474	9.16
422.679	9.01
422.885	8.92
423.09	8.93
423.295	8.8
423.501	8.72
423.706	8.76
423.911	8.76
424.117	8.73
424.322	8.8
424.527	8.89
424.733	8.94
424.938	8.99
425.143	9.13
425.349	9.16
425.554	9.23
425.759	9.33
425.964	9.34
426.169	9.32
426.375	9.34
426.58	9.27
426.785	9.18
426.99	9.24
427.195	9.31
427.4	9.17
427.605	9.14
427.811	9.14
428.016	9.2
428.221	9.21
428.426	9.23
428.631	9.2
428.836	9.16
429.041	9.19
429.246	9.12
429.451	9.06
429.656	9.03
429.861	8.98
430.066	8.97
430.271	8.9
430.476	8.8
430.681	8.87
430.886	8.91
431.09	8.94
431.295	8.87
431.5	8.85
431.705	8.87
431.91	8.87
432.115	8.83
432.32	8.73
432.524	8.69
432.729	8.79
432.934	8.66
433.139	8.71
433.343	8.72
433.548	8.74
433.753	8.76
433.958	8.71
434.162	8.78
434.367	8.83
434.572	8.9
434.776	8.82
434.981	8.7
435.186	8.85
435.39	8.83
435.595	8.81
435.799	8.82
436.004	8.75
436.209	8.69
436.413	8.6
436.618	8.59
436.822	8.57
437.027	8.6
437.231	8.6
437.436	8.57
437.64	8.45
437.845	8.4
438.049	8.41
438.253	8.4
438.458	8.46
438.662	8.46
438.867	8.54
439.071	8.57
439.275	8.56
439.48	8.55
439.684	8.52
439.888	8.55
440.093	8.61
440.297	8.62
440.501	8.64
440.706	8.58
440.91	8.62
441.114	8.48
441.318	8.44
441.523	8.5
441.727	8.37
441.931	8.3
442.135	8.25
442.339	8.18
442.543	8.12
442.748	8.13
442.952	8.26
443.156	8.2
443.36	8.27
443.564	8.26
443.768	8.23
443.972	8.34
444.176	8.39
444.38	8.37
444.584	8.4
444.788	8.39
444.992	8.33
445.196	8.28
445.4	8.23
445.604	8.12
445.808	8.11
446.012	8.09
446.216	8.07
446.42	8.06
446.624	8.03
446.828	8.01
447.032	8
447.235	8.02
447.439	7.96
447.643	8.09
447.847	8.18
448.051	8.27
448.254	8.28
448.458	8.33
448.662	8.37
448.866	8.47
449.069	8.5
449.273	8.51
449.477	8.52
449.681	8.49
449.884	8.37
450.088	8.36
450.292	8.1
450.495	8.09
450.699	8.04
450.902	7.97
451.106	7.88
451.31	7.85
451.513	7.8
451.717	7.86
451.92	7.89
452.124	7.96
452.327	7.97
452.531	8.02
452.734	8.14
452.938	8.11
453.141	8.09
453.345	8.07
453.548	8.05
453.752	8.2
453.955	8.08
454.158	8.05
454.362	7.97
454.565	7.98
454.769	8.14
454.972	8.02
455.175	8.04
455.379	8.07
455.582	8.1
455.785	8.03
455.988	7.93
456.192	7.95
456.395	7.96
456.598	7.92
456.801	8.01
457.005	7.98
457.208	7.95
457.411	7.95
457.614	7.87
457.817	7.84
458.021	7.78
458.224	7.79
458.427	7.84
458.63	7.87
458.833	7.87
459.036	7.76
459.239	7.74
459.442	7.71
459.645	7.72
459.848	7.77
460.051	7.85
460.254	7.98
460.457	7.92
460.66	7.87
460.863	7.95
461.066	8.03
461.269	8.14
461.472	8.12
461.675	8.21
461.878	8.25
462.081	8.3
462.284	8.21
462.486	8.2
462.689	8.28
462.892	8.31
463.095	8.27
463.298	8.31
463.5	8.33
463.703	8.42
463.906	8.43
464.109	8.36
464.311	8.36
464.514	8.41
464.717	8.46
464.92	8.43
465.122	8.41
465.325	8.43
465.528	8.46
465.73	8.47
465.933	8.45
466.135	8.43
466.338	8.37
466.541	8.41
466.743	8.44
466.946	8.44
467.148	8.53
467.351	8.51
467.553	8.45
467.756	8.37
467.958	8.29
468.161	8.25
468.363	8.21
468.566	8.38
468.768	8.4
468.971	8.37
469.173	8.34
469.375	8.26
469.578	8.21
469.78	8.21
469.983	8.19
470.185	8.19
470.387	8.21
470.59	8.29
470.792	8.21
470.994	8.19
471.196	8.21
471.399	8.23
471.601	8.23
471.803	8.32
472.005	8.4
472.208	8.38
472.41	8.48
472.612	8.5
472.814	8.58
473.016	8.6
473.218	8.6
473.421	8.56
473.623	8.54
473.825	8.56
474.027	8.46
474.229	8.36
474.431	8.52
474.633	8.5
474.835	8.45
475.037	8.31
475.239	8.36
475.441	8.3
475.643	8.37
475.845	8.33
476.047	8.26
476.249	8.34
476.451	8.3
476.653	8.24
476.855	8.21
477.057	8.26
477.258	8.35
477.46	8.22
477.662	8.26
477.864	8.21
478.066	8.22
478.268	8.26
478.469	8.29
478.671	8.28
478.873	8.23
479.075	8.23
479.276	8.23
479.478	8.15
479.68	8.17
479.882	8.13
480.083	8.19
480.285	8.25
480.487	8.29
480.688	8.33
480.89	8.39
481.091	8.32
481.293	8.22
481.495	8.17
481.696	8.12
481.898	8.09
482.099	8.08
482.301	8.03
482.502	7.99
482.704	7.94
482.905	7.88
483.107	7.84
483.308	7.87
483.51	7.92
483.711	7.93
483.913	7.98
484.114	8
484.315	8.03
484.517	8.05
484.718	8.06
484.92	8.12
485.121	8.17
485.322	8.18
485.524	8.16
485.725	8.13
485.926	8.11
486.127	8.07
486.329	8.04
486.53	8
486.731	8.02
486.932	8.03
487.134	8.05
487.335	8.02
487.536	8.03
487.737	8.02
487.938	8.01
488.139	8.03
488.341	8.07
488.542	8.13
488.743	8.19
488.944	8.16
489.145	8.17
489.346	8.1
489.547	8.14
489.748	8.17
489.949	8.19
490.15	8.18
490.351	8.19
490.552	8.22
490.753	8.23
490.954	8.22
491.155	8.29
491.356	8.31
491.557	8.36
491.758	8.42
491.959	8.47
492.159	8.51
492.36	8.57
492.561	8.63
492.762	8.65
492.963	8.58
493.164	8.65
493.364	8.63
493.565	8.67
493.766	8.74
493.967	8.74
494.167	8.75
494.368	8.76
494.569	8.89
494.769	8.89
494.97	8.97
495.171	9.05
495.371	9.03
495.572	9.05
495.773	9.07
495.973	9.05
496.174	9.03
496.375	9.06
496.575	9.08
496.776	9.08
496.976	9.15
497.177	9.13
497.377	9.13
497.578	9.21
497.778	9.15
497.979	9.16
498.179	9.22
498.38	9.26
498.58	9.22
498.78	9.32
498.981	9.35
499.181	9.32
499.382	9.39
499.582	9.42
499.782	9.44
499.983	9.58
500.183	9.65
500.383	9.69
500.584	9.71
500.784	9.8
500.984	9.76
501.184	9.8
501.385	9.86
501.585	9.84
501.785	9.87
501.985	9.98
502.185	9.95
502.386	9.97
502.586	9.94
502.786	10.02
502.986	10.04
503.186	10.11
503.386	10.12
503.586	10.17
503.786	10.31
503.987	10.34
504.187	10.34
504.387	10.43
504.587	10.51
504.787	10.56
504.987	10.6
505.187	10.66
505.387	10.63
505.587	10.71
505.786	10.72
505.986	10.66
506.186	10.73
506.386	10.79
506.586	10.81
506.786	10.8
506.986	10.97
507.186	11
507.386	11.03
507.585	11.15
507.785	11.17
507.985	11.28
508.185	11.39
508.384	11.4
508.584	11.35
508.784	11.43
508.984	11.43
509.183	11.4
509.383	11.42
509.583	11.43
509.782	11.43
509.982	11.47
510.182	11.52
510.381	11.49
510.581	11.64
510.781	11.75
510.98	11.78
511.18	11.94
511.379	12
511.579	12.12
511.778	12.26
511.978	12.32
512.177	12.38
512.377	12.37
512.576	12.44
512.776	12.5
512.975	12.54
513.175	12.57
513.374	12.65
513.573	12.69
513.773	12.73
513.972	12.78
514.172	12.75
514.371	12.89
514.57	12.99
514.77	13.05
514.969	13.08
515.168	13.18
515.367	13.24
515.567	13.26
515.766	13.31
515.965	13.29
516.164	13.33
516.364	13.47
516.563	13.49
516.762	13.54
516.961	13.62
517.16	13.59
517.359	13.59
517.559	13.64
517.758	13.71
517.957	13.74
518.156	13.81
518.355	13.85
518.554	13.91
518.753	14
518.952	14.03
519.151	13.96
519.35	14.07
519.549	14.17
519.748	14.25
519.947	14.3
520.146	14.41
520.345	14.47
520.544	14.51
520.743	14.52
520.942	14.45
521.141	14.51
521.339	14.69
521.538	14.74
521.737	14.73
521.936	14.85
522.135	14.83
522.333	14.84
522.532	14.85
522.731	14.87
522.93	14.95
523.129	15.01
523.327	15.01
523.526	15.04
523.725	15.13
523.923	15.18
524.122	15.11
524.321	15.12
524.519	15.15
524.718	15.25
524.917	15.26
525.115	15.27
525.314	15.35
525.512	15.43
525.711	15.41
525.909	15.4
526.108	15.43
526.306	15.49
526.505	15.5
526.703	15.49
526.902	15.48
527.1	15.5
527.299	15.51
527.497	15.53
527.696	15.57
527.894	15.62
528.092	15.65
528.291	15.67
528.489	15.73
528.688	15.83
528.886	15.92
529.084	16.02
529.283	16.16
529.481	16.25
529.679	16.27
529.877	16.29
530.076	16.35
530.274	16.45
530.472	16.52
530.67	16.53
530.869	16.5
531.067	16.51
531.265	16.43
531.463	16.43
531.661	16.46
531.859	16.57
532.057	16.57
532.255	16.56
532.454	16.57
532.652	16.56
532.85	16.57
533.048	16.66
533.246	16.74
533.444	16.87
533.642	16.86
533.84	16.89
534.038	16.85
534.236	16.93
534.434	17.02
534.632	17.04
534.83	17.07
535.027	17.11
535.225	17.09
535.423	17.04
535.621	17.08
535.819	17.15
536.017	17.23
536.215	17.23
536.412	17.22
536.61	17.34
536.808	17.41
537.006	17.48
537.203	17.57
537.401	17.64
537.599	17.72
537.797	17.72
537.994	17.82
538.192	17.81
538.39	17.83
538.587	17.85
538.785	17.72
538.983	17.66
539.18	17.69
539.378	17.63
539.575	17.6
539.773	17.61
539.97	17.59
540.168	17.56
540.366	17.59
540.563	17.66
540.761	17.7
540.958	17.76
541.155	17.8
541.353	17.86
541.55	17.91
541.748	17.93
541.945	17.97
542.143	18
542.34	18.05
542.537	18.11
542.735	18.09
542.932	18.16
543.129	18.21
543.327	18.27
543.524	18.28
543.721	18.34
543.919	18.4
544.116	18.5
544.313	18.62
544.51	18.63
544.708	18.62
544.905	18.62
545.102	18.61
545.299	18.65
545.496	18.7
545.693	18.72
545.891	18.79
546.088	18.82
546.285	18.81
546.482	18.79
546.679	18.88
546.876	18.88
547.073	19.04
547.27	19.14
547.467	19.25
547.664	19.29
547.861	19.36
548.058	19.34
548.255	19.49
548.452	19.55
548.649	19.67
548.846	19.7
549.043	19.77
549.24	19.76
549.437	19.73
549.633	19.54
549.83	19.51
550.027	19.53
550.224	19.57
550.421	19.51
550.618	19.47
550.814	19.44
551.011	19.41
551.208	19.46
551.405	19.49
551.601	19.59
551.798	19.79
551.995	19.82
552.191	19.84
552.388	19.92
552.585	19.98
552.781	20.05
552.978	20.13
553.175	20.26
553.371	20.29
553.568	20.38
553.764	20.42
553.961	20.35
554.157	20.39
554.354	20.39
554.55	20.58
554.747	20.55
554.943	20.58
555.14	20.57
555.336	20.53
555.533	20.5
555.729	20.56
555.926	20.59
556.122	20.63
556.318	20.73
556.515	20.89
556.711	20.75
556.907	20.87
557.104	20.92
557.3	20.98
557.496	21.02
557.693	21.06
557.889	21.04
558.085	21
558.281	21.22
558.478	21.33
558.674	21.24
558.87	21.31
559.066	21.35
559.262	21.29
559.459	21.4
559.655	21.5
559.851	21.7
560.047	21.75
560.243	21.94
560.439	21.83
560.635	21.74
560.831	21.88
561.027	21.9
561.223	21.87
561.419	21.95
561.615	21.96
561.811	21.96
562.007	21.91
562.203	21.86
562.399	21.67
562.595	21.65
562.791	21.9
562.987	21.99
563.183	22.01
563.379	22.17
563.575	22.2
563.771	22.26
563.966	22.32
564.162	22.4
564.358	22.47
564.554	22.55
564.75	22.68
564.945	22.58
565.141	22.42
565.337	22.49
565.533	22.48
565.728	22.51
565.924	22.61
566.12	22.62
566.315	22.64
566.511	22.68
566.707	22.71
566.902	22.71
567.098	22.77
567.293	23.02
567.489	23.02
567.684	23.06
567.88	23.1
568.076	23.06
568.271	23.07
568.467	23.08
568.662	23.07
568.858	23.28
569.053	23.33
569.248	23.33
569.444	23.25
569.639	23.35
569.835	23.48
570.03	23.57
570.225	23.61
570.421	23.69
570.616	23.76
570.812	23.79
571.007	23.79
571.202	23.79
571.397	23.87
571.593	23.98
571.788	23.98
571.983	24
572.178	24.16
572.374	24.16
572.569	24.19
572.764	24.27
572.959	24.28
573.154	24.26
573.35	24.39
573.545	24.4
573.74	24.37
573.935	24.33
574.13	24.26
574.325	24.1
574.52	24.22
574.715	24.34
574.91	24.3
575.105	24.42
575.3	24.54
575.495	24.65
575.69	24.65
575.885	24.81
576.08	24.94
576.275	25.03
576.47	25.2
576.665	25.26
576.86	25.29
577.055	25.3
577.25	25.34
577.444	25.28
577.639	25.3
577.834	25.35
578.029	25.31
578.224	25.25
578.418	25.28
578.613	25.39
578.808	25.37
579.003	25.27
579.197	25.33
579.392	25.32
579.587	25.52
579.781	25.47
579.976	25.53
580.171	25.49
580.365	25.62
580.56	25.74
580.755	25.74
580.949	25.74
581.144	25.81
581.338	25.75
581.533	25.83
581.727	25.7
581.922	25.69
582.116	25.84
582.311	25.95
582.505	25.91
582.7	25.76
582.894	25.75
583.089	25.68
583.283	25.74
583.478	25.95
583.672	25.99
583.866	26.06
584.061	25.95
584.255	25.79
584.449	25.82
584.644	25.86
584.838	25.91
585.032	25.91
585.226	26.07
585.421	26.26
585.615	26.15
585.809	26.13
586.003	26.18
586.198	26.39
586.392	26.41
586.586	26.48
586.78	26.56
586.974	26.73
587.168	26.69
587.363	26.6
587.557	26.51
587.751	26.58
587.945	26.54
588.139	26.5
588.333	26.49
588.527	26.63
588.721	26.62
588.915	26.65
589.109	26.7
589.303	26.82
589.497	26.73
589.691	26.74
589.885	26.76
590.079	26.84
590.273	26.83
590.466	26.84
590.66	26.75
590.854	26.66
591.048	26.7
591.242	26.57
591.436	26.46
591.629	26.72
591.823	26.5
592.017	26.53
592.211	26.64
592.404	26.68
592.598	26.65
592.792	26.66
592.986	26.65
593.179	26.66
593.373	26.8
593.567	26.82
593.76	26.66
593.954	26.79
594.147	26.82
594.341	26.71
594.535	26.83
594.728	26.81
594.922	26.89
595.115	26.93
595.309	26.88
595.502	26.78
595.696	26.83
595.889	26.91
596.083	26.96
596.276	26.9
596.47	26.98
596.663	26.95
596.856	27.05
597.05	27.07
597.243	27.15
597.437	27.2
597.63	27.23
597.823	27.26
598.017	27.29
598.21	27.51
598.403	27.64
598.596	27.78
598.79	27.74
598.983	27.71
599.176	27.69
599.369	27.74
599.563	27.74
599.756	27.86
599.949	27.95
600.142	27.93
600.335	27.83
600.528	27.79
600.722	27.74
600.915	27.78
601.108	27.92
601.301	27.9
601.494	27.9
601.687	27.94
601.88	27.94
602.073	27.86
602.266	27.95
602.459	27.85
602.652	27.87
602.845	27.8
603.038	27.76
603.231	27.73
603.424	27.71
603.617	27.65
603.809	27.63
604.002	27.51
604.195	27.47
604.388	27.51
604.581	27.51
604.774	27.46
604.966	27.3
605.159	27.39
605.352	27.23
605.545	27.33
605.737	27.28
605.93	27.39
606.123	27.53
606.316	27.73
606.508	27.66
606.701	27.64
606.894	27.71
607.086	27.95
607.279	27.9
607.471	28.07
607.664	28.16
607.857	28.12
608.049	28.18
608.242	28.18
608.434	27.88
608.627	27.84
608.819	27.88
609.012	27.91
609.204	27.95
609.397	27.93
609.589	27.96
609.782	27.88
609.974	27.91
610.166	27.96
610.359	28.04
610.551	28.19
610.743	28.23
610.936	28.36
611.128	28.38
611.32	28.33
611.513	28.41
611.705	28.28
611.897	28.32
612.09	28.48
612.282	28.31
612.474	28.17
612.666	28.46
612.858	28.56
613.051	28.63
613.243	28.52
613.435	28.51
613.627	28.46
613.819	28.48
614.011	28.7
614.203	28.85
614.395	28.9
614.588	29.08
614.78	28.89
614.972	28.99
615.164	28.97
615.356	29.04
615.548	29.09
615.74	29.05
615.932	29.15
616.124	28.65
616.315	28.7
616.507	28.84
616.699	28.63
616.891	28.63
617.083	28.56
617.275	28.48
617.467	28.58
617.659	28.71
617.85	28.97
618.042	28.97
618.234	29.25
618.426	28.9
618.618	28.72
618.809	28.81
619.001	28.8
619.193	28.79
619.384	28.8
619.576	28.85
619.768	28.68
619.959	28.47
620.151	28.53
620.343	28.71
620.534	28.78
620.726	28.77
620.917	28.85
621.109	28.93
621.301	29.11
621.492	29.08
621.684	28.99
621.875	29.09
622.067	29.14
622.258	29.07
622.45	28.94
622.641	29.02
622.832	29.1
623.024	29.01
623.215	29.13
623.407	28.87
623.598	28.93
623.789	28.91
623.981	28.88
624.172	28.96
624.363	28.86
624.555	28.87
624.746	28.88
624.937	28.77
625.129	28.83
625.32	28.8
625.511	28.85
625.702	28.68
625.893	28.77
626.085	28.84
626.276	28.78
626.467	28.91
626.658	28.68
626.849	28.71
627.04	28.91
627.231	29.01
627.422	28.77
627.614	28.77
627.805	28.87
627.996	28.72
628.187	28.64
628.378	28.48
628.569	28.59
628.76	28.65
628.951	28.58
629.142	28.48
629.332	28.5
629.523	28.51
629.714	28.53
629.905	28.83
630.096	28.91
630.287	28.85
630.478	29.04
630.669	28.82
630.859	28.86
631.05	28.97
631.241	28.91
631.432	28.84
631.623	29.09
631.813	28.95
632.004	28.59
632.195	28.64
632.385	28.8
632.576	28.85
632.767	28.95
632.957	29.06
633.148	29.07
633.339	29.08
633.529	29.03
633.72	28.9
633.91	29.05
634.101	29.04
634.292	29.1
634.482	29.02
634.673	29.02
634.863	28.97
635.054	29.06
635.244	28.96
635.435	29.05
635.625	29.06
635.815	29.06
636.006	29.13
636.196	29.29
636.387	29.17
636.577	29.24
636.767	29.29
636.958	29.48
637.148	29.47
637.338	29.46
637.529	29.54
637.719	29.67
637.909	29.8
638.099	29.84
638.29	29.84
638.48	30.05
638.67	30.16
638.86	30.31
639.05	30.14
639.241	30.26
639.431	30.42
639.621	30.31
639.811	30.17
640.001	30.06
640.191	29.92
640.381	29.94
640.571	29.74
640.761	29.54
640.951	29.27
641.141	29.41
641.331	29.18
641.521	29.16
641.711	29.24
641.901	29.17
642.091	29.37
642.281	29.18
642.471	29.08
642.661	29.38
642.851	29.4
643.041	29.32
643.231	29.37
643.42	29.41
643.61	29.4
643.8	29.36
643.99	29.6
644.18	29.43
644.369	29.76
644.559	29.88
644.749	29.68
644.939	29.58
645.128	29.63
645.318	29.48
645.508	29.47
645.697	29.63
645.887	29.68
646.076	29.59
646.266	29.65
646.456	29.63
646.645	29.78
646.835	29.62
647.024	29.72
647.214	29.96
647.403	29.95
647.593	30
647.782	29.93
647.972	29.79
648.161	29.75
648.351	29.83
648.54	29.65
648.73	29.67
648.919	29.86
649.108	29.92
649.298	29.83
649.487	29.93
649.677	29.88
649.866	29.66
650.055	29.79
650.244	29.73
650.434	29.66
650.623	29.73
650.812	29.52
651.002	29.35
651.191	29.49
651.38	29.38
651.569	29.35
651.758	29.3
651.947	29.34
652.137	29.26
652.326	29.48
652.515	29.42
652.704	29.65
652.893	29.63
653.082	29.76
653.271	29.69
653.46	29.8
653.649	29.74
653.838	29.87
654.027	29.93
654.216	29.9
654.405	29.84
654.594	29.81
654.783	29.85
654.972	29.86
655.161	29.89
655.35	29.73
655.539	29.7
655.728	29.71
655.916	29.62
656.105	29.62
656.294	29.68
656.483	29.49
656.672	29.58
656.86	29.41
657.049	29.33
657.238	29.22
657.427	29.19
657.615	29.1
657.804	29.08
657.993	29.26
658.181	29.25
658.37	29.15
658.559	29.09
658.747	29.02
658.936	29.17
659.125	29.05
659.313	29.31
659.502	29.32
659.69	29.39
659.879	29.56
660.067	29.44
660.256	29.57
660.444	29.7
660.633	30.07
660.821	30.28
661.01	29.91
661.198	30.11
661.387	29.84
661.575	29.93
661.763	30.08
661.952	29.89
662.14	30.04
662.328	29.94
662.517	29.79
662.705	29.53
662.893	29.34
663.082	29.66
663.27	29.8
663.458	29.9
663.646	29.95
663.834	30.02
664.023	30.19
664.211	30.22
664.399	30.49
664.587	30.39
664.775	30.54
664.963	30.58
665.152	30.48
665.34	30.37
665.528	30.34
665.716	30.4
665.904	30.25
666.092	30.06
666.28	29.95
666.468	29.69
666.656	29.81
666.844	29.92
667.032	30.03
667.22	30.2
667.408	30.21
667.596	30.16
667.784	30.19
667.971	30.25
668.159	30.12
668.347	30
668.535	30.05
668.723	30.25
668.911	30.27
669.098	30.26
669.286	30.07
669.474	29.91
669.662	30.04
669.849	29.9
670.037	29.94
670.225	30.02
670.413	29.95
670.6	29.88
670.788	29.76
670.976	29.68
671.163	29.46
671.351	29.48
671.538	29.68
671.726	29.63
671.913	29.5
672.101	29.48
672.289	29.37
672.476	29.43
672.664	29.42
672.851	29.44
673.039	29.38
673.226	29.38
673.413	29.24
673.601	29.29
673.788	29.55
673.976	29.79
674.163	29.58
674.35	29.66
674.538	29.74
674.725	29.76
674.912	29.78
675.1	29.7
675.287	29.87
675.474	29.96
675.662	30.09
675.849	29.85
676.036	29.72
676.223	29.64
676.411	29.88
676.598	29.95
676.785	30.12
676.972	29.95
677.159	30.25
677.346	30.42
677.533	30.64
677.721	30.44
677.908	30.5
678.095	30.65
678.282	30.78
678.469	30.59
678.656	30.56
678.843	30.45
679.03	30.5
679.217	30.52
679.404	30.36
679.591	30.22
679.778	30.19
679.964	30.2
680.151	30.09
680.338	30
680.525	30.11
680.712	30.12
680.899	30.08
681.086	30.3
681.272	30.08
681.459	30.1
681.646	29.83
681.833	30.02
682.02	29.8
682.206	29.92
682.393	30.13
682.58	30.11
682.766	30.06
682.953	30.2
683.14	29.89
683.326	30.43
683.513	30.24
683.7	30.44
683.886	30.09
684.073	30.43
684.259	30.18
684.446	29.99
684.632	29.99
684.819	30.14
685.005	29.79
685.192	29.97
685.378	29.39
685.565	29.85
685.751	29.74
685.938	30.19
686.124	30.07
686.31	30.25
686.497	30.55
686.683	30.42
686.87	30.27
687.056	30.72
687.242	30.66
687.429	30.61
687.615	30.37
687.801	30.57
687.987	30.56
688.174	30.48
688.36	30.44
688.546	30.32
688.732	30.52
688.918	30.71
689.105	30.74
689.291	30.72
689.477	30.9
689.663	31.05
689.849	30.9
690.035	30.86
690.221	30.87
690.407	31.1
690.593	31.03
690.779	30.94
690.965	30.78
691.151	30.66
691.337	30.8
691.523	30.53
691.709	30.23
691.895	30.53
692.081	30.34
692.267	30.41
692.453	30.6
692.639	30.45
692.825	30.5
693.011	30.19
693.196	30.09
693.382	30.13
693.568	30.37
693.754	30.22
693.94	30.02
694.125	30.02
694.311	29.85
694.497	29.4
694.682	29.74
694.868	29.7
695.054	30.09
695.239	30.06
695.425	29.75
695.611	29.58
695.796	29.86
695.982	30.06
696.168	29.79
696.353	29.59
696.539	29.66
696.724	29.52
696.91	29.41
697.095	29.4
697.281	29.45
697.466	29.71
697.652	29.92
697.837	29.87
698.023	29.77
698.208	30.05
698.393	30.29
698.579	30.26
698.764	30.18
698.949	30.25
699.135	30.26
699.32	30.2
699.505	29.99
699.691	29.77
699.876	29.74
700.061	29.78
700.246	29.64
700.432	29.44
700.617	29.58
700.802	29.86
700.987	29.85
701.172	30.06
701.358	30.1
701.543	30.24
701.728	30.41
701.913	30.68
702.098	30.4
702.283	30.72
702.468	30.91
702.653	30.79
702.838	30.96
703.023	31.28
703.208	30.94
703.393	31
703.578	31.18
703.763	31.35
703.948	31.05
704.133	31.52
704.318	31.38
704.503	31.44
704.688	31.41
704.873	31.24
705.057	30.76
705.242	30.61
705.427	30.73
705.612	30.64
705.797	30.26
705.981	30.45
706.166	30.16
706.351	30.18
706.536	30.55
706.72	30.37
706.905	30.35
707.09	30.56
707.274	30.74
707.459	30.45
707.644	30.31
707.828	30.4
708.013	30.4
708.197	30.34
708.382	30.15
708.567	29.91
708.751	30.01
708.936	29.81
709.12	30.06
709.305	29.88
709.489	30.25
709.673	30.33
709.858	30.35
710.042	30.61
710.227	30.63
710.411	30.86
710.596	31.04
710.78	31.19
710.964	31.29
711.149	31.57
711.333	31.69
711.517	31.55
711.702	31.59
711.886	31.72
712.07	31.47
712.254	31.77
712.438	31.88
712.623	31.69
712.807	31.61
712.991	31.95
713.175	31.65
713.359	31.99
713.544	31.97
713.728	31.95
713.912	32.1
714.096	31.86
714.28	31.68
714.464	31.47
714.648	31.39
714.832	31.49
715.016	31.52
715.2	31.47
715.384	31.43
715.568	31.66
715.752	31.48
715.936	31.49
716.12	31.86
716.304	32.01
716.488	31.99
716.671	32.09
716.855	32.23
717.039	31.86
717.223	31.58
717.407	31.35
717.59	31.1
717.774	31.44
717.958	31.29
718.142	30.94
718.325	30.53
718.509	30.24
718.693	30.04
718.877	29.6
719.06	29.49
719.244	30.26
719.428	30.27
719.611	30.54
719.795	30.3
719.978	30.54
720.162	30.74
720.345	31.43
720.529	31.61
720.713	31.84
720.896	31.89
721.08	32.18
721.263	31.38
721.446	31.3
721.63	30.83
721.813	30.98
721.997	30.59
722.18	30.28
722.364	29.92
722.547	30.05
722.73	29.85
722.914	30.14
723.097	30.02
723.28	30.34
723.464	30.4
723.647	30.47
723.83	30.32
724.013	30.56
724.197	30.5
724.38	30.68
724.563	30.66
724.746	31.05
724.929	30.97
725.112	31.16
725.296	31.27
725.479	31.05
725.662	31.44
725.845	31.9
726.028	31.41
726.211	31.6
726.394	31.14
726.577	31.17
726.76	30.77
726.943	30.84
727.126	30.21
727.309	30
727.492	30.19
727.675	29.97
727.858	29.79
728.041	29.88
728.224	30.23
728.407	30.49
728.589	30.84
728.772	30.92
728.955	31.18
729.138	31.23
729.321	30.97
729.503	31.41
729.686	31.01
729.869	30.69
730.052	30.86
730.234	30.64
730.417	30.87
730.6	30.65
730.782	30.48
730.965	29.78
731.148	30.35
731.33	30.94
731.513	30.43
731.695	30.58
731.878	30.94
732.061	30.97
732.243	30.72
732.426	30.52
732.608	30.71
732.791	31.02
732.973	31.25
733.156	31.1
733.338	30.98
733.52	31.64
733.703	31.81
733.885	31.84
734.068	31.84
734.25	31.8
734.432	31.64
734.615	31.3
734.797	31.31
734.979	31.51
735.162	31.39
735.344	31.01
735.526	30.19
735.708	30.33
735.891	30.65
736.073	30.95
736.255	31.23
736.437	31.03
736.619	30.8
736.802	30.68
736.984	30.84
737.166	31.23
737.348	31.36
737.53	31.65
737.712	31.49
737.894	30.5
738.076	30.22
738.258	30.51
738.44	30.61
738.622	31.39
738.804	31.47
738.986	30.85
739.168	30.15
739.35	30.33
739.532	30.8
739.714	31.14
739.896	31.58
740.078	31.65
740.259	31.68
740.441	31.7
740.623	31.83
740.805	31.58
740.987	32.29
741.168	32.64
741.35	32.72
741.532	32.33
741.714	32.06
741.895	31.97
742.077	31.15
742.259	31.01
742.44	31.19
742.622	30.57
742.804	30.84
742.985	30.6
743.167	30.41
743.348	29.99
743.53	29.62
743.711	29.39
743.893	29.39
744.075	29.99
744.256	30.12
744.438	30.74
744.619	30.54
744.8	30.23
744.982	29.98
745.163	30.15
745.345	30.96
745.526	31.87
745.707	32.16
745.889	32.2
746.07	32.1
746.252	31.97
746.433	31.65
746.614	32.09
746.795	31.81
746.977	32.3
747.158	32.2
747.339	31.73
747.52	31.21
747.702	31.43
747.883	31.65
748.064	31.91
748.245	32.33
748.426	31.81
748.607	31.39
748.788	31.26
748.97	31.59
749.151	31.31
749.332	31.61
749.513	31.5
749.694	31.44
749.875	31.49
750.056	30.93
750.237	30.09
750.418	30.26
750.599	29.96
750.78	30.2
750.96	29.61
751.141	29.55
751.322	29.03
751.503	28.62
751.684	28.9
751.865	28.06
752.046	28.86
752.226	29.24
752.407	29.61
752.588	30.03
752.769	30.16
752.949	30.49
753.13	31.34
753.311	31.78
753.492	32.11
753.672	31.81
753.853	32.38
754.034	32.4
754.214	33.01
754.395	32.7
754.575	33.21
754.756	33.01
754.937	32.58
755.117	31.76
755.298	31.15
755.478	31.08
755.659	30.74
755.839	30.62
756.02	30.61
756.2	29.7
756.381	29.45
756.561	29.31
756.741	29.73
756.922	30.36
757.102	31.22
757.283	31.74
757.463	31.97
757.643	32.02
757.823	32.03
758.004	31.55
758.184	31.76
758.364	32.29
758.545	31.96
758.725	31.69
758.905	30.93
759.085	31.08
759.265	30.57
759.446	30.26
759.626	30.2
759.806	30.39
759.986	30.96
760.166	30.67
760.346	30.08
760.526	30.32
760.706	30.34
760.886	30.15
761.066	29.96
761.246	30.77
761.426	30.72
761.606	30.56
761.786	30.74
761.966	30.26
762.146	30.37
762.326	30.62
762.506	30.49
762.686	30.49
762.866	31.29
763.046	30.93
763.225	30.78
763.405	30.75
763.585	30.95
763.765	30.33
763.945	30.42
764.124	30.45
764.304	30.78
764.484	31.17
764.664	31.48
764.843	30.77
765.023	31.01
765.203	30.55
765.382	30.63
765.562	30.88
765.741	31.54
765.921	31.95
766.101	31.92
766.28	31.62
766.46	30.79
766.639	30.38
766.819	30.35
766.998	30.3
767.178	30.49
767.357	30.9
767.537	31.05
767.716	30.8
767.896	30.36
768.075	30.32
768.254	29.9
768.434	30.49
768.613	30.8
768.792	31.31
768.972	32.33
769.151	32.42
769.33	32.25
769.51	32.58
769.689	32.61
769.868	32.94
770.047	33.26
770.226	33.45
770.406	33.21
770.585	33.66
770.764	33.35
770.943	31.62
771.122	31.22
771.301	31.47
771.48	31.33
771.66	31.07
771.839	30.92
772.018	31.09
772.197	31.65
772.376	31.99
772.555	31.84
772.734	33.12
772.913	33.82
773.092	34.3
773.271	33.14
773.449	32.51
773.628	33.06
773.807	33.26
773.986	33.54
774.165	33.73
774.344	33.73
774.523	33.13
774.701	32.17
774.88	32.18
775.059	32.32
775.238	33.89
775.417	33.21
775.595	33.54
775.774	33.55
775.953	32.82
776.131	32.39
776.31	32.47
776.489	32.16
776.667	32.75
776.846	33.02
777.025	33
777.203	31.63
777.382	32.4
777.56	32.51
777.739	32.89
777.917	33
778.096	32.59
778.274	31.81
778.453	32.44
778.631	31.45
778.81	31.36
778.988	31.9
779.166	32.35
779.345	31.49
779.523	30.52
779.702	30
779.88	29.63
780.058	28.98
780.237	29.53
780.415	29.19
780.593	29.82
780.771	29.52
780.95	29.89
781.128	30.79
781.306	31.8
781.484	32.25
781.662	32.69
781.841	32.78
782.019	33.82
782.197	33.24
782.375	32.86
782.553	32.22
782.731	32.55
782.909	31.31
783.087	30.4
783.265	30.14
783.443	29.43
783.621	28.62
783.799	28.53
783.977	29.46
784.155	30.23
784.333	30.73
784.511	31.66
784.689	30.55
784.867	30.33
785.045	29.63
785.223	30.12
785.4	30.69
785.578	31.4
785.756	31.64
785.934	29.83
786.112	29.18
786.289	29.84
786.467	29.85
786.645	30.83
786.823	31.62
787	32.72
787.178	32.7
787.356	33.15
787.533	32.8
787.711	32.64
787.889	32.75
788.066	32.79
788.244	32.65
788.421	32.32
788.599	32.02
788.776	31.19
788.954	30.83
789.131	29.87
789.309	29.24
789.486	29.34
789.664	29.27
789.841	29.05
790.019	29.53
790.196	29.13
790.373	29.34
790.551	30.3
790.728	30.6
790.906	31.66
791.083	30.98
791.26	31.25
791.437	30.85
791.615	30.62
791.792	31.28
791.969	31.84
792.146	31.88
792.324	31.81
792.501	31.7
792.678	31.1
792.855	29.89
793.032	31.3
793.209	31.87
793.387	32.35
793.564	33.09
793.741	33.51
793.918	32.42
794.095	32.1
794.272	31.46
794.449	30.52
794.626	31.65
794.803	32.07
794.98	31.3
795.157	30.55
795.334	30.5
795.511	30.26
795.688	29.63
795.864	29.97
796.041	30.99
796.218	30.98
796.395	30.81
796.572	30.64
796.749	31.17
796.925	31.47
797.102	32.74
797.279	32.06
797.456	32.49
797.632	32.2
797.809	32.06
797.986	31.92
798.162	31.98
798.339	32.38
798.516	31.92
798.692	31.28
798.869	32.03
799.046	30.32
799.222	29.95
799.399	29.21
799.575	29.74
799.752	29.31
799.928	28.2
800.105	27.94
800.281	27.6
800.458	26.82
800.634	27.58
800.811	27.36
800.987	28.7
801.163	30.01
801.34	30.05
801.516	30.66
801.692	31.35
801.869	32.44
802.045	33.78
802.221	33.82
802.398	34.8
802.574	33.58
802.75	33.32
802.926	33.14
803.103	32.7
803.279	33.19
803.455	33.61
803.631	34.15
803.807	33.6
803.983	32.38
804.16	32.38
804.336	32.49
804.512	32.55
804.688	32.89
804.864	33.53
805.04	33.87
805.216	33.46
805.392	34.04
805.568	34.17
805.744	34.91
805.92	35.64
806.096	36.78
806.272	36.83
806.448	38.25
806.623	37.84
806.799	37.58
806.975	37.01
807.151	37.18
807.327	35.33
807.503	34.7
807.678	34.17
807.854	33.36
808.03	32.56
808.206	32.2
808.381	30.79
808.557	30.42
808.733	30.03
808.908	30.85
809.084	31.75
809.26	31.91
809.435	32.33
809.611	32.18
809.787	32.3
809.962	31.87
810.138	33.03
810.313	34.16
810.489	35.87
810.664	36.3
810.84	34.45
811.015	34.13
811.191	34.59
811.366	33.96
811.542	34.54
811.717	34.64
811.892	34.39
812.068	33.66
812.243	33.09
812.419	33.11
812.594	34.03
812.769	34.45
812.944	34.6
813.12	34.22
813.295	33.9
813.47	33.72
813.645	34.35
813.821	34.15
813.996	34.29
814.171	34.73
814.346	33.29
814.521	31.91
814.697	33.85
814.872	33.01
815.047	33.64
815.222	34.64
815.397	34.06
815.572	33.47
815.747	33.49
815.922	33.82
816.097	33.41
816.272	35.21
816.447	35.06
816.622	34.19
816.797	35.06
816.972	34.89
817.147	33.83
817.322	34.31
817.496	34.66
817.671	35.65
817.846	35.33
818.021	34.12
818.196	33.26
818.371	33.18
818.545	33.7
818.72	33.87
818.895	34.38
819.069	34.26
819.244	33.26
819.419	33.14
819.594	32.19
819.768	31.67
819.943	32.39
820.117	32.08
820.292	31.49
820.467	30.89
820.641	31.04
820.816	30.5
820.99	30.5
821.165	30.71
821.339	30.63
821.514	31.07
821.688	30.93
821.863	30.7
822.037	30.39
822.212	30.43
822.386	30.29
822.56	29.79
822.735	29.79
822.909	29.83
823.084	29.95
823.258	29.88
823.432	29.65
823.606	29.77
823.781	29.96
823.955	30.3
824.129	30.06
824.303	30.58
824.478	30.91
824.652	31.16
824.826	31.4
825	31.24
825.174	31.07
825.348	30.73
825.523	30.64
825.697	30.13
825.871	29.55
826.045	30.32
826.219	30.12
826.393	30.2
826.567	29.54
826.741	29.25
826.915	29.12
827.089	29.64
827.263	30
827.437	30.21
827.611	30.67
827.784	31.11
827.958	30.54
828.132	30.65
828.306	31.03
828.48	31.52
828.654	31.72
828.827	31.88
829.001	31.13
829.175	31.54
829.349	31.72
829.522	31.73
829.696	31.54
829.87	32.68
830.044	33.04
830.217	31.92
830.391	32.34
830.565	32.39
830.738	33.2
830.912	34.08
831.085	33.93
831.259	34.7
831.432	34.03
831.606	34.31
831.779	32.75
831.953	32.18
832.126	32.47
832.3	31.25
832.473	31.03
832.647	29.99
832.82	30.12
832.994	30.22
833.167	29.94
833.34	30.58
833.514	30.96
833.687	30.87
833.86	30.64
834.034	30.93
834.207	31.93
834.38	32.14
834.553	32.96
834.727	32.29
834.9	31.98
835.073	31.45
835.246	31.67
835.419	31.41
835.593	32.11
835.766	32.86
835.939	32.7
836.112	33.04
836.285	33.72
836.458	32.72
836.631	34.01
836.804	35.35
836.977	35.7
837.15	35.69
837.323	35.18
837.496	35.39
837.669	34.47
837.842	33.51
838.015	32.86
838.188	33.96
838.361	34.8
838.533	34.13
838.706	31.02
838.879	29.68
839.052	30.2
839.225	30.85
839.398	30.16
839.57	31.55
839.743	32.97
839.916	33.37
840.088	32.08
840.261	31.6
840.434	33.11
840.607	35.14
840.779	37.31
840.952	36.32
841.124	34.68
841.297	36.46
841.47	35.78
841.642	35
841.815	36.15
841.987	35.5
842.16	36.26
842.332	34.05
842.505	33.49
842.677	32.44
842.85	33.35
843.022	35.16
843.194	34.99
843.367	36.85
843.539	36.52
843.712	33.56
843.884	35.05
844.056	34.68
844.229	37.69
844.401	36.97
844.573	37.29
844.745	35.44
844.918	35.36
845.09	35.26
845.262	34.42
845.434	34.51
845.606	39.49
845.779	39.7
845.951	42.87
846.123	41.38
846.295	42.58
846.467	42.66
846.639	42.22
846.811	42.46
846.983	41.88
847.155	37.51
847.327	40.2
847.499	38.22
847.671	36.96
847.843	33.88
848.015	35.29
848.187	35.85
848.359	33.66
848.531	37.35
848.703	37.99
848.875	40.89
849.047	41.6
849.218	41.42
849.39	39.42
849.562	37.69
849.734	38.44
849.905	35.05
850.077	37.11
850.249	39.48
850.421	41.05
850.592	38.46
850.764	33.87
850.936	35.19
851.107	38.25
851.279	39.1
851.451	39.6
851.622	40.52
851.794	39.04
851.965	39.51
852.137	38.25
852.308	32.95
852.48	37.01
852.651	39.63
852.823	39.5
852.994	35.12
853.166	34.73
853.337	36.89
853.509	36.93
853.68	40.86
853.851	37.43
854.023	39.6
854.194	44.16
854.365	41.92
854.537	41.26
854.708	44.83
854.879	44.68
855.05	46.35
855.222	45.37
855.393	46.37
855.564	42.26
855.735	40.99
855.906	40.75
856.078	38.18
856.249	36.56
856.42	35.03
856.591	33.66
856.762	36.31
856.933	33.24
857.104	31.94
857.275	29.96
857.446	32.38
857.617	36.25
857.788	36.86
857.959	37.21
858.13	37.54
858.301	40.7
858.472	37.07
858.643	36.17
858.814	38.6
858.985	38.67
859.155	38.18
859.326	41.4
859.497	40.52
859.668	39.52
859.839	37.52
860.009	38.22
860.18	37.53
860.351	38.44
860.522	38.19
860.692	36.62
860.863	40.63
861.034	40.78
861.204	40.94
861.375	41.36
861.546	40.48
861.716	40.35
861.887	41.7
862.057	39.72
862.228	42.72
862.398	40.67
862.569	42.95
862.739	44.5
862.91	43.49
863.08	44.01
863.251	42
863.421	45.01
863.592	46.4
863.762	46.27
863.932	40.79
864.103	39.06
864.273	35.98
864.443	34.86
864.614	29.92
864.784	33.63
864.954	31.08
865.125	33.15
865.295	29.73
865.465	29.87
865.635	32.64
865.805	42.47
865.976	46.06
866.146	53.8
866.316	51.66
866.486	53.48
866.656	52.79
866.826	48.38
866.996	48.13
867.166	51.1
867.336	52.19
867.506	54.52
867.676	50.54
867.846	50.2
868.016	42.29
868.186	43.77
868.356	40.41
868.526	36.83
868.696	40.31
868.866	36.76
869.036	30.8
869.206	31.54
869.376	25.12
869.545	25.88
869.715	20.42
869.885	23.81
870.055	21.1
870.224	26.98
870.394	30.76
870.564	32.73
870.734	31.75
870.903	31.83
871.073	31.13
871.243	34.73
871.412	36.4
871.582	39.77
871.751	44.74
871.921	49.1
872.091	45.64
872.26	44.66
872.43	39.43
872.599	42.42
872.769	46.24
872.938	45.22
873.108	46.44
873.277	44.46
873.446	43.1
873.616	41.64
873.785	39.83
873.955	37.56
874.124	39.64
874.293	41.91
874.463	41.89
874.632	40.29
874.801	39.53
874.971	38.95
875.14	38.99
875.309	37.59
875.478	34.66
875.647	33.36
875.817	37.23
875.986	34.87
876.155	34.48
876.324	32.49
876.493	30.73
876.662	30.45
876.831	27.46
877	27.66
877.17	31.04
877.339	31.78
877.508	33.13
877.677	33.56
877.846	31.5
878.015	31.89
878.184	32.96
878.352	34.04
878.521	35.1
878.69	36.23
878.859	36.59
879.028	32.93
879.197	30.4
879.366	27.33
879.534	26.17
879.703	27.24
879.872	29.34
880.041	30.12
880.21	30.38
880.378	29.03
880.547	28.36
880.716	27.93
880.884	27.97
881.053	29.26
881.222	29.98
881.39	29.18
881.559	29.77
881.727	29.43
881.896	29.5
882.065	29.08
882.233	29.4
882.402	29.89
882.57	29.43
882.739	29.92
882.907	29.42
883.076	29.77
883.244	30.52
883.412	30.47
883.581	30.92
883.749	30.99
883.918	31.81
884.086	32.76
884.254	33.77
884.423	35.32
884.591	35.8
884.759	37.51
884.927	37.63
885.096	38.52
885.264	40.15
885.432	40.56
885.6	39.69
885.769	38.31
885.937	37.97
886.105	36.9
886.273	37.26
886.441	38.41
886.609	37.42
886.777	36.62
886.945	36.61
887.113	36.46
887.281	37.42
887.449	42.21
887.617	47.55
887.785	48.97
887.953	49.18
888.121	48.34
888.289	48.2
888.457	49.5
888.625	51.01
888.793	48.98
888.961	48.34
889.129	47.63
889.296	45.84
889.464	44.13
889.632	43.82
889.8	44.59
889.967	45.38
890.135	44.18
