Data from 2938496_Reflection_3.txt Node
Date: Wed Jun 17 00:29:27 EDT 2015
User: robert
Spectrometer: USB4E03002
Autoset integration time: false
Trigger mode: 4
Integration Time (sec): 1.000000E-1
Scans to average: 10
Electric dark correction enabled: true
Nonlinearity correction enabled: false
Boxcar width: 5
Stray light correction enabled: false
XAxis mode: Wavelengths
Stop averaging: false
Number of Pixels in Spectrum: 3648
>>>>>Begin Spectral Data<<<<<
177.575	130.36
177.794	2633.33
178.014	67.57
178.233	84.96
178.452	83.63
178.672	199.51
178.891	53.84
179.11	12.46
179.33	126.26
179.549	338.57
179.768	485.67
179.987	163.85
180.207	167.27
180.426	-32.08
180.645	315.32
180.864	1175.63
181.084	-335.74
181.303	-42
181.522	-306.47
181.741	296.83
181.96	-9.11
182.179	-118.26
182.398	208.26
182.618	154.49
182.837	-167.6
183.056	-667.41
183.275	-84.27
183.494	-1066.25
183.713	144.38
183.932	-14.61
184.151	448.24
184.37	498.12
184.589	1048.43
184.808	304.61
185.027	366.45
185.246	216.95
185.465	259.04
185.684	304.84
185.903	305.71
186.122	388.83
186.341	284.6
186.56	2522.76
186.779	-373.15
186.998	-318.2
187.216	-114.6
187.435	-68.53
187.654	-45.83
187.873	-78.83
188.092	-94.45
188.311	-83.86
188.53	-44.37
188.748	-107.01
188.967	57.91
189.186	496.2
189.405	211.25
189.623	333.26
189.842	-1471.36
190.061	1550
190.28	-8.5
190.498	35.94
190.717	557.89
190.936	-1090.27
191.154	-103.48
191.373	3142.03
191.592	5979.07
191.81	416.48
192.029	151.16
192.248	172
192.466	14.76
192.685	287.49
192.904	209.16
193.122	179.05
193.341	306.5
193.559	-425.9
193.778	-5.93
193.996	30.13
194.215	40.81
194.433	345.83
194.652	984.78
194.87	3757.85
195.089	376.54
195.307	301.22
195.526	304.47
195.744	196.49
195.963	115.91
196.181	339.11
196.399	203.26
196.618	-120.58
196.836	1688.13
197.055	-991.62
197.273	-65.39
197.491	0.94
197.71	-69.45
197.928	-25.96
198.146	-14.51
198.365	-82.12
198.583	-77.61
198.801	-91.92
199.019	-142.5
199.238	-98.93
199.456	-64.17
199.674	-189.66
199.892	-129.65
200.111	-247
200.329	-434.86
200.547	-16027.08
200.765	-196.64
200.983	-73
201.202	-14.62
201.42	1.11
201.638	37.49
201.856	14.32
202.074	38.96
202.292	-19.85
202.51	27.34
202.728	55.55
202.946	27.62
203.165	27.61
203.383	-3.5
203.601	-5.73
203.819	-7.21
204.037	-138.85
204.255	-283.96
204.473	-204.97
204.691	-88.67
204.909	-52.97
205.127	-182.16
205.345	-33225
205.562	57.93
205.78	77.95
205.998	184.83
206.216	4031.82
206.434	83.58
206.652	81.83
206.87	125.24
207.088	63.88
207.306	46.59
207.523	13.51
207.741	23.6
207.959	49.49
208.177	25.35
208.395	48.33
208.612	5.67
208.83	52.73
209.048	27.29
209.266	19.41
209.483	16.97
209.701	-8.03
209.919	65.28
210.136	-17.23
210.354	-69.99
210.572	-3.26
210.79	-21.42
211.007	25.12
211.225	-9.92
211.442	-29.25
211.66	-47.05
211.878	-6.3
212.095	28.85
212.313	1
212.53	-14.82
212.748	11.92
212.966	-13.29
213.183	-26.79
213.401	-21.51
213.618	-55.39
213.836	-51.8
214.053	-11.61
214.271	-43.79
214.488	-328.73
214.705	-694.48
214.923	-155.57
215.14	-222.06
215.358	-735.54
215.575	298.48
215.793	2398.1
216.01	447.38
216.227	366.84
216.445	498.67
216.662	300.75
216.879	390.41
217.097	461.88
217.314	322.28
217.531	424.1
217.749	433.42
217.966	-149
218.183	443.35
218.4	-42
218.618	7.39
218.835	3.25
219.052	7.24
219.269	52.18
219.487	35.23
219.704	47.84
219.921	36.49
220.138	35.15
220.355	33.73
220.572	27.25
220.79	31.51
221.007	26.32
221.224	13.92
221.441	5.98
221.658	-35.09
221.875	-17.03
222.092	-13.49
222.309	5.8
222.526	0.69
222.743	-6.06
222.96	2.25
223.177	-12.62
223.394	-3.73
223.611	-1.26
223.828	10.9
224.045	11.13
224.262	13.59
224.479	9.95
224.696	8.12
224.913	12.19
225.13	8.78
225.347	8.53
225.564	11.9
225.781	7.96
225.997	7.23
226.214	5.88
226.431	7.33
226.648	7.48
226.865	6.25
227.082	4.91
227.298	3.87
227.515	6.13
227.732	5.18
227.949	2.73
228.165	3.27
228.382	5.5
228.599	5.35
228.816	4.98
229.032	2.66
229.249	4.53
229.466	4.73
229.682	5.13
229.899	5.41
230.116	7.13
230.332	7.44
230.549	7.68
230.765	8.52
230.982	8.13
231.199	8.11
231.415	11.58
231.632	9.03
231.848	7
232.065	6.64
232.281	6.98
232.498	5.23
232.714	8.88
232.931	6.89
233.147	3.92
233.364	2.63
233.58	2.22
233.797	0.52
234.013	4.27
234.23	3.44
234.446	1.05
234.662	-5.21
234.879	-4.11
235.095	-5.45
235.312	-3.65
235.528	-2.04
235.744	2.65
235.961	8
236.177	7.9
236.393	6.47
236.61	7.7
236.826	11.11
237.042	13.19
237.258	14.14
237.475	16.63
237.691	15.97
237.907	13.68
238.123	9.72
238.339	4.27
238.556	5.67
238.772	2.09
238.988	2.05
239.204	2.47
239.42	1.74
239.636	-0.07
239.853	1.28
240.069	2.43
240.285	5.1
240.501	6.69
240.717	7.65
240.933	7.31
241.149	9.21
241.365	10.1
241.581	9.45
241.797	11.16
242.013	12.77
242.229	11.46
242.445	11.07
242.661	10.94
242.877	11.1
243.093	11.27
243.309	10.59
243.525	9.94
243.741	10.77
243.957	9.93
244.173	10.47
244.388	9.26
244.604	10.17
244.82	10.74
245.036	10.97
245.252	10.21
245.468	10.06
245.683	10.12
245.899	10.4
246.115	10.26
246.331	11.65
246.547	11.19
246.762	11.58
246.978	11.53
247.194	11.36
247.409	10.37
247.625	10.65
247.841	11.53
248.057	12.75
248.272	12.21
248.488	11.99
248.703	10.66
248.919	10.69
249.135	10.08
249.35	9.42
249.566	9.25
249.782	9.77
249.997	9.4
250.213	8.86
250.428	8.38
250.644	9.12
250.859	8.82
251.075	9.88
251.29	9.64
251.506	10.68
251.721	9.95
251.937	9.72
252.152	8.68
252.368	8.29
252.583	6.3
252.798	6.15
253.014	8.33
253.229	8.56
253.445	6.08
253.66	6.16
253.875	4.54
254.091	6.34
254.306	5.69
254.521	5.45
254.737	6.46
254.952	5.97
255.167	4.73
255.383	2.92
255.598	2.1
255.813	2.18
256.028	1.66
256.244	2.55
256.459	3.41
256.674	4.07
256.889	5.13
257.104	5.34
257.32	6.62
257.535	7.16
257.75	7.24
257.965	7.92
258.18	8.43
258.395	8.53
258.61	8.28
258.826	7.6
259.041	7.98
259.256	7.78
259.471	7.59
259.686	7.19
259.901	7.28
260.116	7.08
260.331	7
260.546	6.93
260.761	6.49
260.976	6.21
261.191	6.68
261.406	6.22
261.621	6.46
261.836	6.44
262.05	7.09
262.265	7.12
262.48	6.54
262.695	5.94
262.91	4.99
263.125	5.93
263.34	5.35
263.555	5.04
263.769	4.65
263.984	5.51
264.199	5.49
264.414	4.92
264.629	4.17
264.843	5.18
265.058	5.91
265.273	7.06
265.488	6.31
265.702	6.47
265.917	7.34
266.132	7.46
266.346	7.85
266.561	7.52
266.776	7.7
266.99	8.71
267.205	8.65
267.42	7.57
267.634	6.83
267.849	7.01
268.063	7.61
268.278	6.24
268.492	6.31
268.707	5.96
268.922	6.74
269.136	6.96
269.351	6.47
269.565	5.89
269.78	6.04
269.994	6.31
270.209	6.58
270.423	6.46
270.637	7.23
270.852	7.12
271.066	7.16
271.281	6.16
271.495	5.29
271.709	5.59
271.924	5.59
272.138	6.37
272.353	6.03
272.567	6.02
272.781	6.17
272.996	5.27
273.21	5.36
273.424	4.44
273.638	5.15
273.853	6.48
274.067	6.1
274.281	5.55
274.495	5.5
274.71	5.68
274.924	4.85
275.138	5.1
275.352	6.59
275.566	6.61
275.781	7.57
275.995	7.89
276.209	7.36
276.423	6.74
276.637	7.46
276.851	6.67
277.065	6.83
277.279	7.06
277.493	6.03
277.707	5.26
277.921	5.57
278.135	4.68
278.349	4.31
278.563	4
278.777	4.65
278.991	4.07
279.205	4.84
279.419	5.49
279.633	5.96
279.847	7.08
280.061	7.38
280.275	6.72
280.489	6.71
280.703	7.34
280.917	8.05
281.131	7.73
281.344	8.16
281.558	7.76
281.772	7.26
281.986	7.15
282.2	6.88
282.414	6.23
282.627	6.06
282.841	5.68
283.055	5.16
283.269	5.1
283.482	6.01
283.696	5.45
283.91	4.94
284.123	4.99
284.337	4.71
284.551	4.52
284.764	4.63
284.978	4.86
285.192	5.27
285.405	5.1
285.619	4.34
285.833	3.57
286.046	4.35
286.26	4.65
286.473	4.78
286.687	5.86
286.9	5.52
287.114	6.4
287.327	6.79
287.541	6.92
287.754	7.24
287.968	7.69
288.181	7.41
288.395	7.3
288.608	7.53
288.822	6.69
289.035	6.52
289.248	6.87
289.462	5.71
289.675	5.31
289.889	4.92
290.102	4.99
290.315	5.66
290.529	5.87
290.742	5.23
290.955	5.34
291.169	6.3
291.382	6.26
291.595	6.19
291.808	6.14
292.022	7.54
292.235	7.87
292.448	7.35
292.661	6.77
292.875	6.95
293.088	7.64
293.301	7.21
293.514	6.9
293.727	6.06
293.94	6.59
294.153	7.66
294.367	7.22
294.58	7.43
294.793	7.86
295.006	7.98
295.219	8.44
295.432	8.36
295.645	8.84
295.858	8.86
296.071	9.13
296.284	8.65
296.497	7.85
296.71	7.87
296.923	7.85
297.136	7.61
297.349	7.74
297.562	7.1
297.775	6.96
297.988	6.92
298.201	6.76
298.414	6.71
298.626	6.53
298.839	7.27
299.052	6.05
299.265	4.95
299.478	5.39
299.691	5.77
299.903	5.31
300.116	5.21
300.329	5.29
300.542	5.64
300.755	5.37
300.967	5.38
301.18	5.28
301.393	5.94
301.605	6.38
301.818	5.65
302.031	5.12
302.243	5.58
302.456	6.39
302.669	6.61
302.881	5.89
303.094	6.64
303.307	7.04
303.519	7.16
303.732	7.82
303.944	8.48
304.157	8.88
304.37	8.88
304.582	8.9
304.795	8.19
305.007	7.09
305.22	7.23
305.432	7.43
305.645	6.94
305.857	6.69
306.069	6.68
306.282	6.56
306.494	5.84
306.707	5.48
306.919	5.27
307.132	5.25
307.344	6.01
307.556	6.54
307.769	6.2
307.981	6.5
308.193	6.02
308.406	6.01
308.618	6.24
308.83	6.78
309.043	7.08
309.255	7.41
309.467	7.23
309.679	6.81
309.892	6.92
310.104	6.72
310.316	6.76
310.528	7.67
310.74	7.02
310.953	7.07
311.165	6.96
311.377	6.52
311.589	6.1
311.801	6.54
312.013	6.67
312.225	5.93
312.437	5.83
312.649	6.01
312.862	5.4
313.074	6.21
313.286	5.87
313.498	5.83
313.71	6.06
313.922	6.46
314.134	5.49
314.346	6.01
314.558	6.19
314.77	7.09
314.982	6.93
315.193	6.76
315.405	5.59
315.617	5.61
315.829	5.57
316.041	5.26
316.253	5.16
316.465	5.94
316.677	5.21
316.888	5.65
317.1	4.81
317.312	4.58
317.524	4.61
317.736	5.67
317.947	5.76
318.159	6.31
318.371	6.82
318.583	6.47
318.794	6.68
319.006	6.81
319.218	6.31
319.43	6.9
319.641	7.3
319.853	7.73
320.064	6.77
320.276	6.6
320.488	6.1
320.699	6.11
320.911	6.65
321.123	6.62
321.334	6.62
321.546	6.42
321.757	6.25
321.969	6.08
322.18	6.1
322.392	6.86
322.603	6.54
322.815	6.59
323.026	6.29
323.238	6.32
323.449	6.1
323.661	6.46
323.872	6.89
324.083	6.75
324.295	6.7
324.506	6.75
324.718	6.55
324.929	7.26
325.14	7.47
325.352	7.26
325.563	7.07
325.774	7.18
325.986	6.63
326.197	6.6
326.408	6.51
326.62	6.11
326.831	5.29
327.042	5.3
327.253	5.33
327.464	4.92
327.676	5.54
327.887	6.05
328.098	6.23
328.309	6.73
328.52	6.81
328.732	7.31
328.943	8.19
329.154	8.94
329.365	9.08
329.576	8.7
329.787	9.27
329.998	9.83
330.209	9.5
330.42	8.99
330.631	9.15
330.842	8.6
331.053	7.97
331.264	7.71
331.475	7.66
331.686	7.69
331.897	8.23
332.108	8.1
332.319	7.26
332.53	6.86
332.741	6.63
332.952	6.16
333.163	6.55
333.374	6.39
333.585	6.21
333.795	6.69
334.006	6.31
334.217	5.87
334.428	5.72
334.639	6.23
334.849	6.59
335.06	6.72
335.271	7.03
335.482	7.24
335.692	7.77
335.903	8.12
336.114	7.58
336.325	7.83
336.535	7.77
336.746	7.78
336.957	7.35
337.167	7.38
337.378	7.98
337.589	7.82
337.799	7.69
338.01	7.52
338.22	7.45
338.431	7.46
338.642	7.14
338.852	7.18
339.063	7.13
339.273	7.14
339.484	7.36
339.694	7.59
339.905	7.94
340.115	8.43
340.326	8.13
340.536	7.83
340.746	7.67
340.957	7.76
341.167	7.66
341.378	7.57
341.588	7.53
341.799	7.08
342.009	6.65
342.219	6.28
342.43	5.76
342.64	6.15
342.85	6.01
343.061	6.01
343.271	6.03
343.481	5.9
343.691	6.16
343.902	6.52
344.112	6.52
344.322	6.31
344.532	6.24
344.743	6.12
344.953	6.01
345.163	6.44
345.373	6.51
345.583	6.56
345.793	7.18
346.004	7.43
346.214	6.91
346.424	6.71
346.634	6.83
346.844	7.22
347.054	7.32
347.264	7.55
347.474	7.19
347.684	7.11
347.894	7.21
348.104	6.63
348.314	6.41
348.524	6.53
348.734	6.78
348.944	6.46
349.154	6.31
349.364	6.55
349.574	6.43
349.784	6.47
349.994	6.71
350.204	6.92
350.413	7.01
350.623	6.85
350.833	6.96
351.043	6.94
351.253	7.25
351.463	7.38
351.672	7.4
351.882	7.63
352.092	7.97
352.302	7.74
352.511	7.64
352.721	7.46
352.931	7.53
353.141	7.88
353.35	8.17
353.56	8.26
353.77	7.64
353.979	7.8
354.189	7.45
354.399	7.11
354.608	7.38
354.818	7.43
355.027	7.65
355.237	7.66
355.447	7.13
355.656	6.77
355.866	6.77
356.075	6.78
356.285	6.4
356.494	6.37
356.704	6.34
356.913	5.92
357.123	5.81
357.332	5.63
357.542	5.71
357.751	6.09
357.96	6.04
358.17	6.03
358.379	6.17
358.589	6.49
358.798	6.41
359.007	6.49
359.217	6.81
359.426	6.76
359.635	6.67
359.845	6.38
360.054	6.44
360.263	6.44
360.472	6.45
360.682	6.72
360.891	6.68
361.1	7.13
361.309	7.14
361.519	7.13
361.728	7.04
361.937	7.13
362.146	7.24
362.355	6.92
362.564	7.1
362.774	7.01
362.983	7.04
363.192	6.82
363.401	6.48
363.61	6.43
363.819	6.04
364.028	5.9
364.237	5.89
364.446	6.09
364.655	6.18
364.864	6.18
365.073	6.26
365.282	6.13
365.491	5.96
365.7	5.89
365.909	5.58
366.118	5.86
366.327	6.08
366.536	6.21
366.745	5.93
366.954	5.85
367.162	5.49
367.371	5.48
367.58	5.46
367.789	5.82
367.998	5.83
368.207	5.95
368.415	6.01
368.624	6.01
368.833	5.77
369.042	5.93
369.25	5.99
369.459	6.32
369.668	6.34
369.877	6.14
370.085	5.98
370.294	6.04
370.503	6.46
370.711	6.43
370.92	6.62
371.129	6.68
371.337	6.61
371.546	6.8
371.754	6.64
371.963	6.49
372.171	6.83
372.38	7.09
372.589	6.98
372.797	6.87
373.006	6.93
373.214	6.74
373.423	6.9
373.631	7.14
373.84	7.12
374.048	7.05
374.256	7.1
374.465	6.82
374.673	6.59
374.882	6.51
375.09	6.49
375.298	6.41
375.507	6.46
375.715	6.27
375.923	6.24
376.132	6.23
376.34	6.57
376.548	6.61
376.757	6.49
376.965	6.29
377.173	6.42
377.381	6.4
377.59	6.33
377.798	6.22
378.006	6.27
378.214	5.95
378.423	5.56
378.631	5.25
378.839	5.15
379.047	5.28
379.255	5.36
379.463	5.09
379.671	4.86
379.879	5.07
380.088	5.16
380.296	5.19
380.504	5.09
380.712	5.47
380.92	5.35
381.128	5.36
381.336	5.47
381.544	5.67
381.752	5.81
381.96	5.9
382.168	5.81
382.376	5.67
382.584	5.7
382.791	5.86
382.999	5.89
383.207	6
383.415	6.28
383.623	6.32
383.831	6.22
384.039	6.22
384.247	6.34
384.454	6.18
384.662	6.26
384.87	6.15
385.078	6.29
385.285	6.07
385.493	6.14
385.701	5.92
385.909	5.84
386.116	5.89
386.324	5.94
386.532	5.9
386.739	5.88
386.947	5.56
387.155	5.53
387.362	5.39
387.57	5.47
387.778	5.58
387.985	5.51
388.193	5.43
388.4	5.46
388.608	5.33
388.816	5.26
389.023	5.38
389.231	5.8
389.438	5.95
389.646	5.96
389.853	5.97
390.061	5.74
390.268	5.7
390.475	5.63
390.683	5.54
390.89	5.52
391.098	5.4
391.305	5.44
391.512	5.44
391.72	5.31
391.927	5.19
392.135	5.1
392.342	5.14
392.549	5.29
392.756	5.28
392.964	5.13
393.171	5.23
393.378	5.49
393.586	5.49
393.793	5.51
394	5.61
394.207	5.82
394.414	5.85
394.622	5.83
394.829	5.81
395.036	6.02
395.243	6.38
395.45	6.4
395.657	6.39
395.864	6.36
396.072	6.11
396.279	6.05
396.486	5.95
396.693	5.74
396.9	5.78
397.107	5.74
397.314	5.66
397.521	5.52
397.728	5.43
397.935	5.22
398.142	5.13
398.349	5.19
398.556	5.11
398.763	5.11
398.97	5.28
399.177	5.28
399.383	5.35
399.59	5.42
399.797	5.13
400.004	5.04
400.211	5.22
400.418	5.26
400.625	5.19
400.831	5.21
401.038	5.18
401.245	5.03
401.452	5.11
401.658	5.12
401.865	4.98
402.072	5.12
402.279	5.14
402.485	4.87
402.692	4.72
402.899	4.61
403.105	4.56
403.312	4.55
403.519	4.64
403.725	4.48
403.932	4.28
404.138	4.42
404.345	4.52
404.552	4.47
404.758	4.52
404.965	4.44
405.171	4.59
405.378	4.65
405.584	4.64
405.791	4.5
405.997	4.63
406.204	4.72
406.41	4.77
406.617	4.57
406.823	4.64
407.029	4.73
407.236	4.93
407.442	4.96
407.649	5.06
407.855	4.97
408.061	5.22
408.268	5.11
408.474	5.08
408.68	4.84
408.887	4.95
409.093	5
409.299	5.13
409.505	5.14
409.712	5.05
409.918	4.87
410.124	5
410.33	4.89
410.537	4.82
410.743	4.96
410.949	5.01
411.155	4.92
411.361	4.92
411.567	4.75
411.773	4.72
411.98	4.71
412.186	4.76
412.392	4.54
412.598	4.51
412.804	4.63
413.01	4.64
413.216	4.75
413.422	4.96
413.628	4.78
413.834	4.85
414.04	4.96
414.246	5.04
414.452	5.08
414.658	5.18
414.864	5.2
415.07	5.1
415.275	5.07
415.481	4.92
415.687	4.7
415.893	4.9
416.099	4.75
416.305	4.72
416.511	4.7
416.716	4.71
416.922	4.74
417.128	4.75
417.334	4.76
417.539	4.73
417.745	4.74
417.951	4.88
418.157	4.84
418.362	4.9
418.568	4.85
418.774	4.81
418.979	4.83
419.185	4.81
419.391	4.8
419.596	4.85
419.802	4.83
420.008	4.8
420.213	5.31
420.419	5.28
420.624	5.34
420.83	5.3
421.035	5.33
421.241	5.37
421.446	5.34
421.652	5.37
421.857	5.34
422.063	5.35
422.268	5.33
422.474	4.77
422.679	4.79
422.885	4.69
423.09	4.69
423.295	4.69
423.501	4.62
423.706	4.66
423.911	4.6
424.117	4.59
424.322	4.55
424.527	4.53
424.733	4.5
424.938	4.49
425.143	4.49
425.349	4.56
425.554	4.54
425.759	4.62
425.964	4.63
426.169	4.63
426.375	4.62
426.58	4.63
426.785	4.72
426.99	4.79
427.195	4.8
427.4	4.91
427.605	4.81
427.811	4.72
428.016	4.49
428.221	4.48
428.426	4.54
428.631	4.62
428.836	4.62
429.041	4.57
429.246	4.43
429.451	4.44
429.656	4.47
429.861	4.44
430.066	4.53
430.271	4.71
430.476	4.57
430.681	4.63
430.886	4.6
431.09	4.64
431.295	4.67
431.5	4.76
431.705	4.67
431.91	4.72
432.115	4.78
432.32	4.71
432.524	4.7
432.729	4.76
432.934	4.78
433.139	4.77
433.343	4.64
433.548	4.67
433.753	4.65
433.958	4.81
434.162	4.73
434.367	4.74
434.572	4.72
434.776	4.61
434.981	4.68
435.186	4.73
435.39	4.71
435.595	4.88
435.799	4.86
436.004	4.95
436.209	4.8
436.413	4.74
436.618	4.88
436.822	4.94
437.027	4.93
437.231	4.88
437.436	4.79
437.64	4.8
437.845	4.77
438.049	4.77
438.253	4.63
438.458	4.6
438.662	4.53
438.867	4.39
439.071	4.25
439.275	4.36
439.48	4.39
439.684	4.28
439.888	4.28
440.093	4.29
440.297	4.24
440.501	4.27
440.706	4.25
440.91	4.4
441.114	4.41
441.318	4.53
441.523	4.54
441.727	4.53
441.931	4.57
442.135	4.55
442.339	4.5
442.543	4.54
442.748	4.47
442.952	4.52
443.156	4.47
443.36	4.48
443.564	4.51
443.768	4.47
443.972	4.52
444.176	4.56
444.38	4.54
444.584	4.58
444.788	4.59
444.992	4.68
445.196	4.72
445.4	4.72
445.604	4.68
445.808	4.63
446.012	4.6
446.216	4.57
446.42	4.56
446.624	4.54
446.828	4.49
447.032	4.38
447.235	4.31
447.439	4.25
447.643	4.23
447.847	4.27
448.051	4.3
448.254	4.23
448.458	4.21
448.662	4.17
448.866	4.29
449.069	4.36
449.273	4.47
449.477	4.58
449.681	4.59
449.884	4.53
450.088	4.5
450.292	4.5
450.495	4.57
450.699	4.45
450.902	4.55
451.106	4.47
451.31	4.42
451.513	4.49
451.717	4.31
451.92	4.33
452.124	4.35
452.327	4.45
452.531	4.39
452.734	4.31
452.938	4.4
453.141	4.33
453.345	4.21
453.548	4.19
453.752	4.15
453.955	4.26
454.158	4.15
454.362	4.11
454.565	4.05
454.769	4.03
454.972	4.16
455.175	4.13
455.379	4.1
455.582	4.18
455.785	4.13
455.988	4.06
456.192	4.02
456.395	4.19
456.598	4.23
456.801	4.17
457.005	4.3
457.208	4.31
457.411	4.23
457.614	4.18
457.817	4.2
458.021	4.16
458.224	4.21
458.427	4.27
458.63	4.25
458.833	4.28
459.036	4.27
459.239	4.19
459.442	4.11
459.645	4.23
459.848	4.32
460.051	4.33
460.254	4.41
460.457	4.35
460.66	4.37
460.863	4.3
461.066	4.25
461.269	4.23
461.472	4.15
461.675	4.26
461.878	4.22
462.081	4.15
462.284	4.22
462.486	4.29
462.689	4.33
462.892	4.44
463.095	4.55
463.298	4.59
463.5	4.74
463.703	4.92
463.906	4.75
464.109	4.77
464.311	4.89
464.514	4.79
464.717	4.74
464.92	4.64
465.122	4.45
465.325	4.33
465.528	4.47
465.73	4.43
465.933	4.43
466.135	4.5
466.338	4.48
466.541	4.42
466.743	4.51
466.946	4.55
467.148	4.58
467.351	4.57
467.553	4.61
467.756	4.49
467.958	4.47
468.161	4.3
468.363	4.31
468.566	4.36
468.768	4.46
468.971	4.46
469.173	4.45
469.375	4.46
469.578	4.52
469.78	4.6
469.983	4.51
470.185	4.55
470.387	4.73
470.59	4.83
470.792	4.87
470.994	4.69
471.196	4.61
471.399	4.59
471.601	4.69
471.803	4.7
472.005	4.66
472.208	4.82
472.41	4.78
472.612	4.72
472.814	4.62
473.016	4.53
473.218	4.64
473.421	4.72
473.623	4.83
473.825	4.84
474.027	4.76
474.229	4.77
474.431	4.65
474.633	4.7
474.835	4.72
475.037	4.77
475.239	4.79
475.441	4.74
475.643	4.8
475.845	4.64
476.047	4.57
476.249	4.58
476.451	4.53
476.653	4.51
476.855	4.57
477.057	4.57
477.258	4.67
477.46	4.65
477.662	4.67
477.864	4.56
478.066	4.66
478.268	4.65
478.469	4.72
478.671	4.7
478.873	4.72
479.075	4.66
479.276	4.63
479.478	4.51
479.68	4.49
479.882	4.43
480.083	4.4
480.285	4.36
480.487	4.36
480.688	4.35
480.89	4.37
481.091	4.4
481.293	4.43
481.495	4.44
481.696	4.4
481.898	4.44
482.099	4.4
482.301	4.42
482.502	4.43
482.704	4.45
482.905	4.46
483.107	4.49
483.308	4.51
483.51	4.48
483.711	4.48
483.913	4.53
484.114	4.54
484.315	4.62
484.517	4.62
484.718	4.6
484.92	4.56
485.121	4.52
485.322	4.49
485.524	4.48
485.725	4.51
485.926	4.48
486.127	4.47
486.329	4.4
486.53	4.37
486.731	4.34
486.932	4.38
487.134	4.39
487.335	4.45
487.536	4.49
487.737	4.49
487.938	4.48
488.139	4.51
488.341	4.48
488.542	4.49
488.743	4.51
488.944	4.51
489.145	4.49
489.346	4.54
489.547	4.54
489.748	4.48
489.949	4.47
490.15	4.48
490.351	4.51
490.552	4.52
490.753	4.59
490.954	4.62
491.155	4.65
491.356	4.7
491.557	4.66
491.758	4.69
491.959	4.79
492.159	4.87
492.36	4.91
492.561	4.9
492.762	4.97
492.963	4.97
493.164	4.93
493.364	5.03
493.565	5.08
493.766	5.15
493.967	5.06
494.167	5.01
494.368	5.02
494.569	5.02
494.769	5.06
494.97	5.06
495.171	5.02
495.371	5.05
495.572	4.98
495.773	4.94
495.973	4.92
496.174	4.96
496.375	4.95
496.575	4.93
496.776	4.99
496.976	4.96
497.177	4.96
497.377	5
497.578	5.06
497.778	5.12
497.979	5.07
498.179	5.09
498.38	5.11
498.58	5.1
498.78	5.07
498.981	5.01
499.181	5.07
499.382	5.13
499.582	5.15
499.782	5.17
499.983	5.15
500.183	5.21
500.383	5.22
500.584	5.21
500.784	5.28
500.984	5.2
501.184	5.2
501.385	5.2
501.585	5.19
501.785	5.2
501.985	5.14
502.185	5.15
502.386	5.16
502.586	5.19
502.786	5.23
502.986	5.23
503.186	5.36
503.386	5.44
503.586	5.35
503.786	5.36
503.987	5.37
504.187	5.35
504.387	5.46
504.587	5.56
504.787	5.54
504.987	5.53
505.187	5.5
505.387	5.54
505.587	5.43
505.786	5.45
505.986	5.51
506.186	5.51
506.386	5.56
506.586	5.5
506.786	5.45
506.986	5.5
507.186	5.48
507.386	5.46
507.585	5.42
507.785	5.46
507.985	5.53
508.185	5.48
508.384	5.5
508.584	5.52
508.784	5.55
508.984	5.54
509.183	5.47
509.383	5.49
509.583	5.55
509.782	5.56
509.982	5.6
510.182	5.63
510.381	5.61
510.581	5.56
510.781	5.54
510.98	5.59
511.18	5.58
511.379	5.66
511.579	5.66
511.778	5.64
511.978	5.67
512.177	5.7
512.377	5.75
512.576	5.85
512.776	5.95
512.975	6.05
513.175	6.05
513.374	6.13
513.573	6.12
513.773	6.24
513.972	6.28
514.172	6.29
514.371	6.26
514.57	6.21
514.77	6.23
514.969	6.25
515.168	6.25
515.367	6.32
515.567	6.29
515.766	6.31
515.965	6.23
516.164	6.28
516.364	6.35
516.563	6.43
516.762	6.48
516.961	6.41
517.16	6.35
517.359	6.28
517.559	6.19
517.758	6.23
517.957	6.27
518.156	6.32
518.355	6.36
518.554	6.35
518.753	6.29
518.952	6.29
519.151	6.32
519.35	6.41
519.549	6.51
519.748	6.63
519.947	6.68
520.146	6.69
520.345	6.68
520.544	6.61
520.743	6.76
520.942	6.83
521.141	6.81
521.339	6.83
521.538	6.84
521.737	6.83
521.936	6.78
522.135	6.78
522.333	6.79
522.532	6.82
522.731	6.92
522.93	6.78
523.129	6.77
523.327	6.79
523.526	6.8
523.725	6.79
523.923	6.78
524.122	6.79
524.321	6.77
524.519	6.71
524.718	6.75
524.917	6.76
525.115	6.77
525.314	6.81
525.512	6.87
525.711	6.91
525.909	6.92
526.108	6.96
526.306	6.96
526.505	6.97
526.703	6.96
526.902	6.94
527.1	6.97
527.299	6.99
527.497	6.94
527.696	6.94
527.894	6.96
528.092	6.98
528.291	6.98
528.489	7.04
528.688	7.06
528.886	7.15
529.084	7.14
529.283	7.19
529.481	7.2
529.679	7.31
529.877	7.34
530.076	7.33
530.274	7.33
530.472	7.34
530.67	7.27
530.869	7.29
531.067	7.27
531.265	7.32
531.463	7.3
531.661	7.28
531.859	7.29
532.057	7.26
532.255	7.28
532.454	7.27
532.652	7.29
532.85	7.36
533.048	7.41
533.246	7.43
533.444	7.45
533.642	7.43
533.84	7.48
534.038	7.5
534.236	7.57
534.434	7.61
534.632	7.68
534.83	7.69
535.027	7.66
535.225	7.63
535.423	7.63
535.621	7.62
535.819	7.72
536.017	7.77
536.215	7.77
536.412	7.78
536.61	7.8
536.808	7.77
537.006	7.82
537.203	7.82
537.401	7.88
537.599	7.95
537.797	7.99
537.994	7.88
538.192	7.89
538.39	7.85
538.587	7.87
538.785	7.79
538.983	7.88
539.18	7.88
539.378	7.91
539.575	7.9
539.773	7.94
539.97	7.98
540.168	8.02
540.366	8.04
540.563	8.08
540.761	8.11
540.958	8.18
541.155	8.2
541.353	8.21
541.55	8.26
541.748	8.3
541.945	8.3
542.143	8.35
542.34	8.35
542.537	8.42
542.735	8.49
542.932	8.51
543.129	8.61
543.327	8.63
543.524	8.72
543.721	8.72
543.919	8.81
544.116	8.8
544.313	8.75
544.51	8.81
544.708	8.82
544.905	8.85
545.102	8.87
545.299	8.88
545.496	8.94
545.693	8.92
545.891	8.94
546.088	8.9
546.285	8.96
546.482	9.04
546.679	9.08
546.876	9.13
547.073	9.11
547.27	9.09
547.467	9.06
547.664	9.09
547.861	9.13
548.058	9.22
548.255	9.3
548.452	9.36
548.649	9.4
548.846	9.41
549.043	9.44
549.24	9.53
549.437	9.6
549.633	9.72
549.83	9.7
550.027	9.67
550.224	9.63
550.421	9.69
550.618	9.63
550.814	9.61
551.011	9.65
551.208	9.61
551.405	9.61
551.601	9.65
551.798	9.64
551.995	9.7
552.191	9.72
552.388	9.78
552.585	9.8
552.781	9.85
552.978	9.88
553.175	9.97
553.371	9.98
553.568	10.07
553.764	10.14
553.961	10.15
554.157	10.07
554.354	10.3
554.55	10.32
554.747	10.3
554.943	10.26
555.14	10.23
555.336	10.23
555.533	10.24
555.729	10.26
555.926	10.22
556.122	10.22
556.318	10.34
556.515	10.24
556.711	10.31
556.907	10.4
557.104	10.53
557.3	10.7
557.496	10.68
557.693	10.82
557.889	10.85
558.085	10.96
558.281	11.06
558.478	11.16
558.674	11.25
558.87	11.31
559.066	11.32
559.262	11.29
559.459	11.24
559.655	11.3
559.851	11.24
560.047	11.27
560.243	11.22
560.439	11.17
560.635	11.16
560.831	11.05
561.027	11.06
561.223	11.04
561.419	11.22
561.615	11.29
561.811	11.34
562.007	11.39
562.203	11.33
562.399	11.33
562.595	11.33
562.791	11.25
562.987	11.36
563.183	11.46
563.379	11.62
563.575	11.45
563.771	11.44
563.966	11.38
564.162	11.3
564.358	11.39
564.554	11.47
564.75	11.52
564.945	11.6
565.141	11.59
565.337	11.61
565.533	11.49
565.728	11.56
565.924	11.62
566.12	11.72
566.315	11.79
566.511	11.77
566.707	11.7
566.902	11.71
567.098	11.71
567.293	11.7
567.489	11.65
567.684	11.77
567.88	11.87
568.076	11.91
568.271	11.85
568.467	11.93
568.662	11.85
568.858	11.94
569.053	11.91
569.248	11.92
569.444	11.96
569.639	12.11
569.835	12.15
570.03	12.1
570.225	12.11
570.421	12.2
570.616	12.21
570.812	12.27
571.007	12.33
571.202	12.42
571.397	12.35
571.593	12.34
571.788	12.29
571.983	12.3
572.178	12.35
572.374	12.41
572.569	12.46
572.764	12.48
572.959	12.6
573.154	12.65
573.35	12.7
573.545	12.88
573.74	12.96
573.935	12.96
574.13	12.97
574.325	12.93
574.52	12.91
574.715	12.92
574.91	12.98
575.105	12.93
575.3	12.92
575.495	12.91
575.69	13.02
575.885	13.11
576.08	13.13
576.275	13.15
576.47	13.27
576.665	13.24
576.86	13.26
577.055	13.17
577.25	13.19
577.444	13.24
577.639	13.32
577.834	13.2
578.029	13.13
578.224	13.26
578.418	13.3
578.613	13.19
578.808	13.23
579.003	13.33
579.197	13.38
579.392	13.48
579.587	13.41
579.781	13.29
579.976	13.33
580.171	13.32
580.365	13.2
580.56	13.1
580.755	13.15
580.949	13.37
581.144	13.32
581.338	13.3
581.533	13.27
581.727	13.17
581.922	13.23
582.116	13.29
582.311	13.36
582.505	13.57
582.7	13.78
582.894	13.76
583.089	13.68
583.283	13.66
583.478	13.67
583.672	13.71
583.866	13.97
584.061	13.86
584.255	13.78
584.449	13.81
584.644	13.76
584.838	13.79
585.032	14
585.226	13.98
585.421	13.89
585.615	14.05
585.809	13.99
586.003	13.88
586.198	14.1
586.392	14.37
586.586	14.18
586.78	13.98
586.974	13.86
587.168	13.74
587.363	13.78
587.557	13.69
587.751	13.68
587.945	13.87
588.139	14
588.333	13.98
588.527	13.82
588.721	14.08
588.915	14.19
589.109	14.32
589.303	14.32
589.497	14.38
589.691	14.56
589.885	14.55
590.079	14.4
590.273	14.36
590.466	14.26
590.66	14.35
590.854	14.33
591.048	14.29
591.242	14.14
591.436	14.27
591.629	14.12
591.823	14.19
592.017	14.36
592.211	14.44
592.404	14.41
592.598	14.5
592.792	14.27
592.986	14.3
593.179	14.31
593.373	14.38
593.567	14.36
593.76	14.5
593.954	14.57
594.147	14.49
594.341	14.53
594.535	14.56
594.728	14.63
594.922	14.73
595.115	14.62
595.309	14.63
595.502	14.64
595.696	14.47
595.889	14.36
596.083	14.31
596.276	14.29
596.47	14.31
596.663	14.33
596.856	14.18
597.05	14.13
597.243	14.21
597.437	14.32
597.63	14.36
597.823	14.36
598.017	14.4
598.21	14.46
598.403	14.42
598.596	14.37
598.79	14.31
598.983	14.46
599.176	14.51
599.369	14.43
599.563	14.34
599.756	14.37
599.949	14.58
600.142	14.67
600.335	14.59
600.528	14.62
600.722	14.54
600.915	14.64
601.108	14.67
601.301	14.79
601.494	14.76
601.687	14.85
601.88	14.67
602.073	14.7
602.266	14.73
602.459	14.8
602.652	14.77
602.845	14.79
603.038	14.68
603.231	14.69
603.424	14.67
603.617	14.69
603.809	14.66
604.002	14.66
604.195	14.58
604.388	14.47
604.581	14.44
604.774	14.51
604.966	14.58
605.159	14.59
605.352	14.49
605.545	14.42
605.737	14.4
605.93	14.46
606.123	14.53
606.316	14.65
606.508	14.82
606.701	14.76
606.894	14.79
607.086	14.77
607.279	14.86
607.471	15.03
607.664	15.01
607.857	15.07
608.049	15.06
608.242	15.07
608.434	15.03
608.627	14.98
608.819	15.01
609.012	14.82
609.204	14.87
609.397	14.92
609.589	14.82
609.782	14.85
609.974	14.81
610.166	14.8
610.359	14.85
610.551	14.78
610.743	14.8
610.936	14.8
611.128	15.03
611.32	15.06
611.513	14.93
611.705	15.06
611.897	15.22
612.09	15.38
612.282	15.2
612.474	15.16
612.666	15.15
612.858	15.14
613.051	15.2
613.243	15.12
613.435	15.2
613.627	15.24
613.819	15.2
614.011	15.14
614.203	14.99
614.395	15.14
614.588	15.28
614.78	15.49
614.972	15.53
615.164	15.66
615.356	15.82
615.548	15.72
615.74	15.92
615.932	15.85
616.124	15.76
616.315	15.86
616.507	15.96
616.699	15.84
616.891	15.7
617.083	15.78
617.275	15.76
617.467	15.74
617.659	15.85
617.85	15.71
618.042	15.67
618.234	15.71
618.426	15.7
618.618	15.54
618.809	15.57
619.001	15.92
619.193	15.85
619.384	15.82
619.576	15.72
619.768	15.52
619.959	15.7
620.151	15.8
620.343	15.82
620.534	15.73
620.726	15.73
620.917	15.76
621.109	15.45
621.301	15.32
621.492	15.21
621.684	15.22
621.875	15.31
622.067	15.05
622.258	15.02
622.45	15.15
622.641	15.23
622.832	15.3
623.024	15.31
623.215	15.19
623.407	15.23
623.598	15.45
623.789	15.38
623.981	15.35
624.172	15.41
624.363	15.4
624.555	15.19
624.746	15.17
624.937	15.23
625.129	15.28
625.32	15.47
625.511	15.46
625.702	15.31
625.893	15.3
626.085	15.41
626.276	15.47
626.467	15.51
626.658	15.53
626.849	15.65
627.04	15.59
627.231	15.62
627.422	15.56
627.614	15.75
627.805	15.79
627.996	15.96
628.187	15.96
628.378	15.98
628.569	16.05
628.76	16.24
628.951	16.17
629.142	16.1
629.332	16.02
629.523	16.01
629.714	15.93
629.905	15.89
630.096	15.87
630.287	15.82
630.478	15.93
630.669	15.81
630.859	15.78
631.05	15.77
631.241	15.95
631.432	15.92
631.623	16
631.813	16.08
632.004	16.12
632.195	15.96
632.385	15.8
632.576	15.75
632.767	15.96
632.957	15.75
633.148	15.53
633.339	15.41
633.529	15.46
633.72	15.38
633.91	15.24
634.101	15.25
634.292	15.34
634.482	15.63
634.673	15.62
634.863	15.52
635.054	15.8
635.244	16.1
635.435	16.15
635.625	16.02
635.815	16.08
636.006	16.2
636.196	16.07
636.387	16.2
636.577	15.9
636.767	15.61
636.958	15.67
637.148	15.53
637.338	15.63
637.529	15.65
637.719	15.7
637.909	15.7
638.099	15.71
638.29	15.74
638.48	15.63
638.67	15.71
638.86	15.92
639.05	15.68
639.241	15.72
639.431	15.54
639.621	15.48
639.811	15.53
640.001	15.46
640.191	15.62
640.381	15.8
640.571	15.83
640.761	16.06
640.951	16.18
641.141	16.38
641.331	16.36
641.521	16.35
641.711	16.49
641.901	16.5
642.091	16.62
642.281	16.19
642.471	16.13
642.661	16.25
642.851	16.08
643.041	16.12
643.231	16.11
643.42	16.06
643.61	16.28
643.8	16.35
643.99	16.34
644.18	16.41
644.369	16.33
644.559	16.36
644.749	16.16
644.939	16.12
645.128	16.07
645.318	16.08
645.508	16.19
645.697	16.05
645.887	15.97
646.076	15.98
646.266	15.75
646.456	16.12
646.645	15.97
646.835	16.03
647.024	16.1
647.214	15.98
647.403	15.87
647.593	15.95
647.782	15.84
647.972	15.77
648.161	15.69
648.351	15.72
648.54	15.62
648.73	15.66
648.919	15.79
649.108	15.71
649.298	15.86
649.487	16.06
649.677	15.97
649.866	16.12
650.055	15.97
650.244	16.11
650.434	16.24
650.623	16.2
650.812	16.2
651.002	16.13
651.191	16.05
651.38	16.09
651.569	16.04
651.758	15.76
651.947	15.66
652.137	15.78
652.326	15.68
652.515	15.51
652.704	15.46
652.893	15.68
653.082	15.62
653.271	15.69
653.46	15.7
653.649	15.5
653.838	15.85
654.027	15.98
654.216	16.09
654.405	16.23
654.594	16.17
654.783	16.32
654.972	16.1
655.161	16.02
655.35	16.09
655.539	16.05
655.728	16.13
655.916	15.88
656.105	15.58
656.294	15.62
656.483	15.67
656.672	15.81
656.86	15.69
657.049	15.65
657.238	15.65
657.427	15.59
657.615	15.53
657.804	15.51
657.993	15.66
658.181	15.72
658.37	15.74
658.559	15.76
658.747	15.74
658.936	15.8
659.125	15.95
659.313	15.98
659.502	16
659.69	15.94
659.879	16.01
660.067	16.28
660.256	16.46
660.444	16.49
660.633	16.57
660.821	16.68
661.01	16.71
661.198	16.85
661.387	16.86
661.575	17
661.763	17.18
661.952	17.2
662.14	17.13
662.328	17.1
662.517	16.91
662.705	16.67
662.893	16.55
663.082	16.49
663.27	15.98
663.458	16.11
663.646	15.96
663.834	15.76
664.023	15.63
664.211	15.62
664.399	15.39
664.587	15.3
664.775	15.15
664.963	15.32
665.152	15.41
665.34	15.63
665.528	15.63
665.716	15.72
665.904	15.87
666.092	15.95
666.28	15.59
666.468	15.64
666.656	15.68
666.844	15.97
667.032	16.09
667.22	16.32
667.408	16.32
667.596	16.19
667.784	15.99
667.971	15.88
668.159	16.02
668.347	16.18
668.535	16.47
668.723	16.55
668.911	16.76
669.098	16.51
669.286	16.14
669.474	16.24
669.662	16.25
669.849	16.49
670.037	16.55
670.225	16.68
670.413	16.68
670.6	16.69
670.788	16.59
670.976	16.32
671.163	16.36
671.351	16.43
671.538	16.33
671.726	16.36
671.913	16.4
672.101	16.71
672.289	16.31
672.476	16.09
672.664	16.06
672.851	15.8
673.039	15.83
673.226	15.83
673.413	15.83
673.601	15.97
673.788	15.84
673.976	15.95
674.163	15.66
674.35	15.78
674.538	16.05
674.725	15.84
674.912	16.31
675.1	16.25
675.287	16.43
675.474	16.64
675.662	16.63
675.849	16.67
676.036	16.58
676.223	16.44
676.411	16.59
676.598	16.43
676.785	16.46
676.972	16.3
677.159	16.35
677.346	16.29
677.533	16.18
677.721	16.09
677.908	16.27
678.095	16.32
678.282	16.44
678.469	16.43
678.656	16.54
678.843	16.59
679.03	16.78
679.217	16.78
679.404	16.7
679.591	16.69
679.778	16.84
679.964	16.68
680.151	16.63
680.338	16.54
680.525	16.52
680.712	16.52
680.899	16.53
681.086	16.23
681.272	16.23
681.459	16.34
681.646	16.47
681.833	16.47
682.02	16.41
682.206	16.41
682.393	16.77
682.58	16.66
682.766	16.59
682.953	16.63
683.14	16.77
683.326	16.95
683.513	17.05
683.7	16.83
683.886	16.68
684.073	16.86
684.259	16.81
684.446	16.85
684.632	16.97
684.819	16.98
685.005	16.94
685.192	16.98
685.378	16.53
685.565	16.08
685.751	16.09
685.938	16.1
686.124	16.02
686.31	16.07
686.497	15.82
686.683	15.69
686.87	15.59
687.056	15.68
687.242	15.69
687.429	16.01
687.615	16.23
687.801	16.46
687.987	16.46
688.174	16.56
688.36	16.34
688.546	16.61
688.732	16.73
688.918	16.86
689.105	16.78
689.291	16.89
689.477	16.89
689.663	16.7
689.849	16.52
690.035	16.5
690.221	16.32
690.407	16.76
690.593	16.46
690.779	16.33
690.965	16.52
691.151	16.62
691.337	16.61
691.523	16.57
691.709	16.46
691.895	16.73
692.081	16.83
692.267	16.99
692.453	16.75
692.639	16.89
692.825	16.68
693.011	16.44
693.196	16.39
693.382	16.43
693.568	16.16
693.754	16.62
693.94	16.54
694.125	16.53
694.311	16.75
694.497	16.6
694.682	16.38
694.868	16.69
695.054	16.84
695.239	16.77
695.425	16.87
695.611	16.97
695.796	16.97
695.982	17
696.168	17.06
696.353	17.03
696.539	17.12
696.724	16.96
696.91	16.99
697.095	16.91
697.281	16.73
697.466	16.71
697.652	16.7
697.837	16.68
698.023	16.7
698.208	16.77
698.393	16.55
698.579	16.74
698.764	16.96
698.949	17.06
699.135	17.3
699.32	17.31
699.505	17.37
699.691	17.51
699.876	17.36
700.061	17.42
700.246	17.35
700.432	17.53
700.617	17.53
700.802	17.38
700.987	17.3
701.172	17.01
701.358	17.14
701.543	17.08
701.728	16.94
701.913	16.83
702.098	16.6
702.283	16.76
702.468	16.94
702.653	16.63
702.838	17.02
703.023	17.12
703.208	16.94
703.393	17.3
703.578	17.07
703.763	17.41
703.948	17.5
704.133	17.75
704.318	17.35
704.503	17.23
704.688	17.27
704.873	17.28
705.057	17.02
705.242	17.17
705.427	17.05
705.612	17.18
705.797	16.74
705.981	16.83
706.166	16.38
706.351	16.53
706.536	16.52
706.72	16.37
706.905	16.2
707.09	16.57
707.274	16.37
707.459	16.16
707.644	16.19
707.828	16.25
708.013	16.57
708.197	16.62
708.382	16.73
708.567	16.84
708.751	16.98
708.936	17.01
709.12	16.56
709.305	16.83
709.489	16.91
709.673	16.7
709.858	16.96
710.042	16.57
710.227	16.58
710.411	16.48
710.596	16.1
710.78	16.07
710.964	16.02
711.149	16.42
711.333	16.21
711.517	16.09
711.702	16.28
711.886	16.09
712.07	16.11
712.254	16.34
712.438	16.22
712.623	16.37
712.807	16.28
712.991	15.98
713.175	16.05
713.359	16.09
713.544	16.17
713.728	16.19
713.912	16.32
714.096	16.34
714.28	16.19
714.464	16.25
714.648	16.13
714.832	16.37
715.016	16.17
715.2	15.83
715.384	15.91
715.568	16.14
715.752	16.11
715.936	15.88
716.12	16.16
716.304	15.98
716.488	16.14
716.671	16.32
716.855	16.64
717.039	17.47
717.223	17.64
717.407	17.75
717.59	17.5
717.774	17.52
717.958	17.93
718.142	17.62
718.325	17.83
718.509	17.43
718.693	17.1
718.877	16.18
719.06	15.99
719.244	15.9
719.428	15.63
719.611	15.72
719.795	15.74
719.978	15.74
720.162	15.92
720.345	16.12
720.529	16.13
720.713	16.67
720.896	16.84
721.08	16.47
721.263	16.43
721.446	16.63
721.63	16.63
721.813	16.74
721.997	16.43
722.18	16.4
722.364	15.96
722.547	16.48
722.73	16.26
722.914	16.31
723.097	16.65
723.28	16.69
723.464	16.73
723.647	17.18
723.83	17.13
724.013	17.25
724.197	17.41
724.38	17.5
724.563	17.19
724.746	17.32
724.929	17.91
725.112	17.94
725.296	18.37
725.479	18.21
725.662	17.74
725.845	17.32
726.028	17.23
726.211	17.18
726.394	17.56
726.577	17.35
726.76	16.94
726.943	16.45
727.126	16.35
727.309	15.82
727.492	15.66
727.675	16.12
727.858	16.35
728.041	16.38
728.224	16.13
728.407	15.66
728.589	16.16
728.772	16.5
728.955	16.38
729.138	15.97
729.321	15.91
729.503	16.31
729.686	15.79
729.869	15.93
730.052	16.03
730.234	15.84
730.417	16.02
730.6	15.87
730.782	15.85
730.965	15.99
731.148	16.76
731.33	16.89
731.513	17.07
731.695	17.18
731.878	16.68
732.061	16.63
732.243	17.12
732.426	17.43
732.608	17.48
732.791	17.31
732.973	17.54
733.156	16.76
733.338	16.89
733.52	16.68
733.703	16.17
733.885	16.4
734.068	16.58
734.25	16.27
734.432	16.06
734.615	15.85
734.797	16.2
734.979	16.63
735.162	17.08
735.344	16.62
735.526	16.57
735.708	17.04
735.891	17.11
736.073	16.59
736.255	16.59
736.437	16.45
736.619	16.67
736.802	16.59
736.984	15.97
737.166	15.71
737.348	16.2
737.53	15.93
737.712	15.66
737.894	15.44
738.076	15.19
738.258	15.73
738.44	15.96
738.622	15.56
738.804	15.41
738.986	15.64
739.168	16
739.35	15.86
739.532	16.17
739.714	16.34
739.896	16.88
740.078	17.31
740.259	17.18
740.441	16.97
740.623	16.73
740.805	17.19
740.987	16.21
741.168	16.33
741.35	16.09
741.532	15.58
741.714	15.64
741.895	15.73
742.077	15.72
742.259	14.88
742.44	14.27
742.622	15.21
742.804	14.67
742.985	16.04
743.167	15.64
743.348	15.26
743.53	16.03
743.711	15.71
743.893	14.73
744.075	14.95
744.256	15.4
744.438	16.45
744.619	15.88
744.8	15.82
744.982	15.26
745.163	15.66
745.345	15.56
745.526	14.91
745.707	15.81
745.889	16.54
746.07	16.49
746.252	17.27
746.433	16.63
746.614	16.95
746.795	17.3
746.977	17.31
747.158	17.39
747.339	18.01
747.52	18.48
747.702	17.77
747.883	17.88
748.064	18.08
748.245	17.15
748.426	17.14
748.607	17.03
748.788	16.99
748.97	16.79
749.151	16.12
749.332	16.45
749.513	15.8
749.694	16.09
749.875	16.23
750.056	15.95
750.237	16.35
750.418	16.18
750.599	16.62
750.78	16.19
750.96	16.06
751.141	16.55
751.322	16.49
751.503	16.83
751.684	16.54
751.865	16.1
752.046	16.3
752.226	16.1
752.407	16.53
752.588	15.24
752.769	15.1
752.949	15.85
753.13	15.25
753.311	15.5
753.492	15.98
753.672	16.58
753.853	16.36
754.034	16.58
754.214	16.68
754.395	15.99
754.575	16.27
754.756	16.21
754.937	15.44
755.117	15.36
755.298	15.39
755.478	14.64
755.659	13.76
755.839	14.51
756.02	14.05
756.2	14.18
756.381	14.97
756.561	16.22
756.741	16.42
756.922	16.38
757.102	16.82
757.283	16.28
757.463	16.39
757.643	17.12
757.823	16.87
758.004	16.87
758.184	16.33
758.364	16.26
758.545	15.32
758.725	15.44
758.905	15.94
759.085	15.86
759.265	16.06
759.446	16.48
759.626	16.4
759.806	16.18
759.986	16.18
760.166	16.15
760.346	15.47
760.526	15.49
760.706	16.18
760.886	16.08
761.066	16.09
761.246	15.82
761.426	15.62
761.606	15.92
761.786	16.13
761.966	16.07
762.146	16.65
762.326	17.25
762.506	17.29
762.686	16.63
762.866	16.91
763.046	16.61
763.225	16.73
763.405	16.94
763.585	16.8
763.765	16.72
763.945	16.81
764.124	17.04
764.304	17.32
764.484	17.84
764.664	18.27
764.843	18.05
765.023	18.61
765.203	18.54
765.382	18.03
765.562	18.04
765.741	18.26
765.921	19.06
766.101	19.05
766.28	18.92
766.46	18.73
766.639	18.93
766.819	19.12
766.998	18.74
767.178	18.97
767.357	19.37
767.537	18.89
767.716	18.8
767.896	18.12
768.075	17.43
768.254	16.85
768.434	16.54
768.613	16.22
768.792	15.87
768.972	15.74
769.151	16.36
769.33	16.98
769.51	17.42
769.689	17.01
769.868	16.7
770.047	16.85
770.226	16.99
770.406	16.83
770.585	16.78
770.764	16.83
770.943	16.98
771.122	15.79
771.301	14.67
771.48	14.08
771.66	13.78
771.839	14.29
772.018	14.24
772.197	14.27
772.376	14.41
772.555	14.16
772.734	14.06
772.913	14.37
773.092	13.76
773.271	13.59
773.449	14.28
773.628	14.44
773.807	13.84
773.986	14.14
774.165	13.88
774.344	13.3
774.523	13.95
774.701	14.88
774.88	15.38
775.059	16.25
775.238	17.43
775.417	17.2
775.595	17.74
775.774	17.13
775.953	16.08
776.131	15.72
776.31	16.17
776.489	15.65
776.667	14.93
776.846	14.32
777.025	14.28
777.203	13.69
777.382	13.62
777.56	13.22
777.739	13.71
777.917	14.3
778.096	15.15
778.274	15.77
778.453	16.06
778.631	15.87
778.81	15.8
778.988	16.07
779.166	16.47
779.345	16.73
779.523	16.74
779.702	16.74
779.88	17.4
780.058	17.04
780.237	16.95
780.415	16.52
780.593	16.6
780.771	16.88
780.95	16.96
781.128	16.02
781.306	15.17
781.484	15.25
781.662	15.77
781.841	15.35
782.019	15.26
782.197	14.45
782.375	14.2
782.553	15.02
782.731	14.95
782.909	15.41
783.087	16.26
783.265	17.41
783.443	18.35
783.621	17.55
783.799	16.93
783.977	16.78
784.155	17.76
784.333	18.88
784.511	17.75
784.689	17.71
784.867	17.75
785.045	17.49
785.223	16.71
785.4	15.81
785.578	16
785.756	16.92
785.934	17.27
786.112	17
786.289	15.79
786.467	15.09
786.645	14.37
786.823	13.25
787	12.83
787.178	12.53
787.356	12.4
787.533	12.26
787.711	11.83
787.889	12.28
788.066	10.96
788.244	11.16
788.421	11.63
788.599	12.21
788.776	12.49
788.954	12.47
789.131	13.82
789.309	14.95
789.486	15.86
789.664	16.01
789.841	16.05
790.019	16.49
790.196	17.57
790.373	17.75
790.551	17.52
790.728	17.69
790.906	17.96
791.083	17.5
791.26	17.18
791.437	16.99
791.615	17.11
791.792	16.82
791.969	16.96
792.146	15.61
792.324	15.32
792.501	15
792.678	14.61
792.855	15.44
793.032	15.38
793.209	15.62
793.387	15.32
793.564	15.02
793.741	15.67
793.918	16.43
794.095	17.35
794.272	17.8
794.449	18.22
794.626	19.48
794.803	18.72
794.98	18.67
795.157	17.94
795.334	17.62
795.511	17.13
795.688	16.46
795.864	15.66
796.041	15.39
796.218	15.88
796.395	15.61
796.572	14.6
796.749	15.25
796.925	14.87
797.102	14.97
797.279	15.79
797.456	15.56
797.632	16.19
797.809	16.24
797.986	16.21
798.162	16.2
798.339	15.61
798.516	15.99
798.692	15.11
798.869	15.84
799.046	16.22
799.222	14.84
799.399	16.08
799.575	15.15
799.752	15.04
799.928	13.44
800.105	13.33
800.281	15.11
800.458	15.22
800.634	15.96
800.811	15.51
800.987	15.64
801.163	17.51
801.34	18.09
801.516	18.37
801.692	18.45
801.869	20.29
802.045	19.47
802.221	18.51
802.398	17.67
802.574	16.87
802.75	16.5
802.926	16.43
803.103	15.1
803.279	13.99
803.455	13.15
803.631	14.44
803.807	15.47
803.983	16.67
804.16	16.14
804.336	15.79
804.512	16.32
804.688	16.36
804.864	16.55
805.04	16.33
805.216	16.14
805.392	16.92
805.568	16.59
805.744	15.4
805.92	15.04
806.096	16.1
806.272	16.94
806.448	17.16
806.623	18.02
806.799	17.36
806.975	16.63
807.151	17.6
807.327	17.25
807.503	17.21
807.678	16.21
807.854	16.88
808.03	16.11
808.206	15.58
808.381	14.36
808.557	14.32
808.733	13.47
808.908	14.05
809.084	13.07
809.26	12.82
809.435	11.59
809.611	13.04
809.787	12.8
809.962	13.51
810.138	14.12
810.313	14.89
810.489	14.75
810.664	15.26
810.84	16.16
811.015	15.96
811.191	15.67
811.366	16.08
811.542	15.87
811.717	14.71
811.892	15.25
812.068	15.55
812.243	15.27
812.419	16.09
812.594	16.38
812.769	15.6
812.944	16.35
813.12	17.65
813.295	17.78
813.47	17.44
813.645	18
813.821	16.17
813.996	15.7
814.171	16.29
814.346	14.23
814.521	14.01
814.697	14.95
814.872	14.31
815.047	13.72
815.222	13.18
815.397	13.11
815.572	13.72
815.747	15.33
815.922	14.65
816.097	14.11
816.272	15.49
816.447	14.53
816.622	15.21
816.797	16.01
816.972	15.66
817.147	17.43
817.322	17.68
817.496	16.34
817.671	16.43
817.846	17.4
818.021	17.83
818.196	16.69
818.371	18.09
818.545	16.35
818.72	16.22
818.895	16.32
819.069	15.75
819.244	16.03
819.419	16.47
819.594	16.18
819.768	16.55
819.943	16.8
820.117	16.6
820.292	16.58
820.467	16.32
820.641	16.37
820.816	16.77
820.99	16.86
821.165	16.89
821.339	17.26
821.514	17.54
821.688	17.62
821.863	17.67
822.037	18.01
822.212	18.02
822.386	18.4
822.56	18.37
822.735	18.42
822.909	18.38
823.084	18.46
823.258	18.55
823.432	18.29
823.606	17.96
823.781	18.01
823.955	18.1
824.129	18.44
824.303	18.76
824.478	19.03
824.652	18.85
824.826	18.99
825	18.58
825.174	18.48
825.348	18.71
825.523	18.93
825.697	19.03
825.871	19
826.045	18.56
826.219	18.15
826.393	18.22
826.567	18.24
826.741	18.27
826.915	18.59
827.089	18.6
827.263	18.96
827.437	19.13
827.611	19.02
827.784	19.14
827.958	18.95
828.132	18.93
828.306	18.75
828.48	19.04
828.654	19.06
828.827	18.31
829.001	17.86
829.175	17.02
829.349	17.32
829.522	17.36
829.696	16.55
829.87	16.97
830.044	16.82
830.217	16.75
830.391	17.49
830.565	17.37
830.738	18.63
830.912	18.86
831.085	18.41
831.259	17.12
831.432	16.19
831.606	16.45
831.779	16.19
831.953	15.29
832.126	15.17
832.3	14.14
832.473	13.74
832.647	14.38
832.82	15.11
832.994	15.76
833.167	16.46
833.34	16.82
833.514	16.64
833.687	16.91
833.86	17.96
834.034	18.66
834.207	18.75
834.38	18.94
834.553	19.24
834.727	19.09
834.9	19.28
835.073	18.61
835.246	18.64
835.419	18.53
835.593	18.51
835.766	17.83
835.939	17.13
836.112	18.19
836.285	18.07
836.458	16.88
836.631	15.98
836.804	14.85
836.977	15.99
837.15	16.1
837.323	16.28
837.496	15.8
837.669	15.13
837.842	14.78
838.015	13.33
838.188	12.99
838.361	14.17
838.533	14.98
838.706	16.11
838.879	15.3
839.052	15.44
839.225	15.81
839.398	16.27
839.57	17
839.743	16.73
839.916	16.34
840.088	17.6
840.261	16.47
840.434	16.77
840.607	16.45
840.779	16.39
840.952	16.52
841.124	16.36
841.297	15.98
841.47	17.1
841.642	16.7
841.815	18.33
841.987	17.47
842.16	17.32
842.332	15.89
842.505	14.5
842.677	13.56
842.85	13.31
843.022	16.33
843.194	13.89
843.367	13.39
843.539	13.05
843.712	9
843.884	8.69
844.056	9.23
844.229	11.16
844.401	12.97
844.573	15.04
844.745	14.47
844.918	10.73
845.09	14.08
845.262	14.27
845.434	15.97
845.606	18.75
845.779	15.11
845.951	18.1
846.123	16.07
846.295	16.66
846.467	16.79
846.639	16.01
846.811	15.92
846.983	14.41
847.155	10.46
847.327	10.25
847.499	8.81
847.671	11.05
847.843	5.78
848.015	8.12
848.187	5.87
848.359	-0.19
848.531	-3.92
848.703	-6.93
848.875	-8.68
849.047	-5.61
849.218	-3.37
849.39	-4.76
849.562	-0.32
849.734	-1.81
849.905	-6.1
850.077	-4.66
850.249	-2.81
850.421	2.86
850.592	5.32
850.764	7.65
850.936	8.27
851.107	9.64
851.279	15.06
851.451	13.17
851.622	16.99
851.794	16.1
851.965	18.04
852.137	18.59
852.308	18.29
852.48	16.02
852.651	13.81
852.823	14.57
852.994	10.19
853.166	2.3
853.337	5.63
853.509	5.94
853.68	8.27
853.851	8.4
854.023	10.73
854.194	9.06
854.365	9.41
854.537	14.82
854.708	10.94
854.879	10.43
855.05	16.94
855.222	10.6
855.393	9.15
855.564	12.48
855.735	2.77
855.906	5.41
856.078	7.42
856.249	5.47
856.42	1.74
856.591	6.76
856.762	8.15
856.933	4.33
857.104	7.66
857.275	5.87
857.446	2.45
857.617	6.84
857.788	4.08
857.959	3.71
858.13	7.04
858.301	10.28
858.472	6.97
858.643	7.45
858.814	5.39
858.985	6.85
859.155	2.23
859.326	0.83
859.497	0.93
859.668	5.61
859.839	6.8
860.009	2.76
860.18	-2.31
860.351	-1.7
860.522	-5.27
860.692	-0.37
860.863	0.75
861.034	6.37
861.204	6.83
861.375	6.97
861.546	0.91
861.716	1.9
861.887	1.85
862.057	-0.45
862.228	2.49
862.398	4.78
862.569	5.71
862.739	7.6
862.91	7.76
863.08	11.12
863.251	11.46
863.421	14.81
863.592	13.54
863.762	16.5
863.932	20.23
864.103	18.14
864.273	23.92
864.443	25.52
864.614	19.76
864.784	20.76
864.954	18.92
865.125	20.96
865.295	24.92
865.465	19.31
865.635	17.21
865.805	13.47
865.976	11.49
866.146	5.4
866.316	2.11
866.486	4.74
866.656	3.59
866.826	3.51
866.996	-1.11
867.166	-7.68
867.336	-4.25
867.506	-4.73
867.676	-4.8
867.846	-1.21
868.016	4.43
868.186	5.65
868.356	4.11
868.526	5.99
868.696	4.7
868.866	7.48
869.036	8.33
869.206	9.41
869.376	18.27
869.545	23.46
869.715	26.68
869.885	20.98
870.055	22.64
870.224	24.17
870.394	21.7
870.564	24.76
870.734	27.5
870.903	28.71
871.073	27.5
871.243	24.15
871.412	17.54
871.582	12.96
871.751	14.83
871.921	9.16
872.091	4.94
872.26	4.66
872.43	3.41
872.599	-2.5
872.769	-0.63
872.938	-0.57
873.108	3.09
873.277	9.19
873.446	10.31
873.616	9.75
873.785	13.63
873.955	18.12
874.124	19.82
874.293	19.88
874.463	22.87
874.632	23.3
874.801	22.07
874.971	16.34
875.14	15.71
875.309	14.38
875.478	15.89
875.647	12.18
875.817	9.78
875.986	6.27
876.155	6.46
876.324	8.04
876.493	10.26
876.662	14.24
876.831	21.25
877	19.07
877.17	20.75
877.339	17.57
877.508	20.03
877.677	21.69
877.846	20.76
878.015	20.09
878.184	16.62
878.352	14.7
878.521	12.05
878.69	6.61
878.859	9.49
879.028	9.16
879.197	11.66
879.366	8.95
879.534	8.07
879.703	11.49
879.872	12.62
880.041	16.13
880.21	15.6
880.378	15.84
880.547	17.17
880.716	16.52
880.884	17.9
881.053	17.75
881.222	18.46
881.39	18.94
881.559	19
881.727	18.83
881.896	18.54
882.065	18.33
882.233	19.07
882.402	18.96
882.57	19.31
882.739	17.94
882.907	18.38
883.076	18.66
883.244	18.08
883.412	18.15
883.581	18.44
883.749	18.99
883.918	19.64
884.086	18.91
884.254	19.12
884.423	19.08
884.591	20.61
884.759	19.44
884.927	20.01
885.096	20.85
885.264	20.77
885.432	21.08
885.6	19.99
885.769	18.29
885.937	17.98
886.105	16.78
886.273	17.32
886.441	17.47
886.609	18.66
886.777	17.31
886.945	15.47
887.113	15.26
887.281	15.07
887.449	16.4
887.617	16.6
887.785	19.84
887.953	20.13
888.121	20.33
888.289	18.29
888.457	17.13
888.625	16.72
888.793	20.1
888.961	21.08
889.129	17.93
889.296	17.56
889.464	21.2
889.632	18.09
889.8	18.05
889.967	12.23
890.135	12.9
