Data from 2938483_Reflection_1.txt Node
Date: Wed Jun 17 01:04:23 EDT 2015
User: robert
Spectrometer: USB4E03002
Autoset integration time: false
Trigger mode: 4
Integration Time (sec): 1.000000E-1
Scans to average: 10
Electric dark correction enabled: true
Nonlinearity correction enabled: false
Boxcar width: 5
Stray light correction enabled: false
XAxis mode: Wavelengths
Stop averaging: false
Number of Pixels in Spectrum: 3648
>>>>>Begin Spectral Data<<<<<
177.575	217.05
177.794	128.66
178.014	93.77
178.233	118.81
178.452	260.96
178.672	221.14
178.891	96.44
179.11	328.85
179.33	602.92
179.549	589.23
179.768	-73.76
179.987	-39.57
180.207	1596.92
180.426	96.04
180.645	327.64
180.864	52.37
181.084	20.22
181.303	168.06
181.522	3365.03
181.741	-338.98
181.96	-187.61
182.179	-352.54
182.398	-441.54
182.618	-321.38
182.837	-374.92
183.056	-203.82
183.275	-232.67
183.494	-1035.01
183.713	5871.54
183.932	290.53
184.151	186.47
184.37	207.85
184.589	591.44
184.808	628.58
185.027	802.63
185.246	515.5
185.465	164.12
185.684	242.32
185.903	329.07
186.122	647.85
186.341	293.58
186.56	396.13
186.779	1588.18
186.998	387.64
187.216	489.9
187.435	293.88
187.654	256.1
187.873	476.21
188.092	193.08
188.311	572.85
188.53	213.46
188.748	832.17
188.967	1583.22
189.186	84.19
189.405	16.66
189.623	-7.43
189.842	-158.53
190.061	-44.4
190.28	82.38
190.498	-253.5
190.717	-211.89
190.936	-4.55
191.154	35.21
191.373	10.97
191.592	2.4
191.81	0.32
192.029	-69.07
192.248	-445.29
192.466	-433.15
192.685	-75.52
192.904	-132.59
193.122	-153.21
193.341	400.94
193.559	682.65
193.778	213.01
193.996	-767.01
194.215	-371.74
194.433	-133.63
194.652	-107.8
194.87	-119.35
195.089	-456.72
195.307	-309.71
195.526	-353.9
195.744	-190.77
195.963	-535.28
196.181	-1186.6
196.399	1155.09
196.618	-1419.33
196.836	-375.87
197.055	-186.2
197.273	-141.55
197.491	1871.49
197.71	-125.57
197.928	-98.2
198.146	-92.88
198.365	-91.01
198.583	93.38
198.801	-28.81
199.019	-143.73
199.238	-512.13
199.456	-115.31
199.674	-58.85
199.892	33
200.111	-16.37
200.329	5.18
200.547	-13.3
200.765	3.66
200.983	-46.41
201.202	9.96
201.42	6.36
201.638	-4.5
201.856	-52.86
202.074	-20.76
202.292	-132.17
202.51	-220.12
202.728	588.78
202.946	-1336.81
203.165	-27.79
203.383	-33.06
203.601	-120.38
203.819	-58.49
204.037	-88.31
204.255	-50.78
204.473	-82.08
204.691	31.87
204.909	61.14
205.127	51.82
205.345	59.77
205.562	165.09
205.78	76.83
205.998	120.92
206.216	97.24
206.434	21.77
206.652	-1.28
206.87	10.05
207.088	-665.16
207.306	-935.21
207.523	291.26
207.741	517.08
207.959	463.36
208.177	478.03
208.395	952.4
208.612	460.61
208.83	-1621.86
209.048	829.3
209.266	545.57
209.483	-96.94
209.701	-77.4
209.919	25.68
210.136	-36.66
210.354	-25.94
210.572	-45.34
210.79	-158.53
211.007	-119.62
211.225	-103.19
211.442	-462.4
211.66	-307.97
211.878	-287.27
212.095	-668.99
212.313	-2482.52
212.53	3150.96
212.748	-748.43
212.966	-646.28
213.183	-202.07
213.401	-46.87
213.618	-38.44
213.836	7.97
214.053	-0.32
214.271	-123.68
214.488	-90.58
214.705	-33.19
214.923	-16.26
215.14	-29.13
215.358	-6.29
215.575	5.26
215.793	-6.39
216.01	-46.96
216.227	-46.63
216.445	-39.11
216.662	-1.69
216.879	4.87
217.097	1.76
217.314	-2.66
217.531	-4.51
217.749	-2.32
217.966	-15.48
218.183	-19.9
218.4	-3.46
218.618	-8.72
218.835	-5.87
219.052	-20.06
219.269	-43.16
219.487	-39.96
219.704	-28.2
219.921	-35.81
220.138	-46.14
220.355	-39.86
220.572	-30.54
220.79	-27.08
221.007	-23.17
221.224	-22.65
221.441	-20.44
221.658	-8.61
221.875	-19.88
222.092	-27.12
222.309	-17.23
222.526	-11.96
222.743	-10.67
222.96	-13.25
223.177	-11.65
223.394	-11.45
223.611	-4.94
223.828	2.11
224.045	-0.44
224.262	0.29
224.479	2.97
224.696	3.92
224.913	6.92
225.13	8.96
225.347	11.45
225.564	9.46
225.781	14.74
225.997	14.38
226.214	12.39
226.431	13.26
226.648	14
226.865	14.64
227.082	14.81
227.298	15.17
227.515	14.17
227.732	14.56
227.949	14.52
228.165	13.68
228.382	13.56
228.599	13.62
228.816	13.2
229.032	13.7
229.249	11.27
229.466	10.02
229.682	8.68
229.899	8.8
230.116	7.77
230.332	6.12
230.549	3.7
230.765	3.58
230.982	3.52
231.199	3.79
231.415	4.57
231.632	9.24
231.848	10
232.065	10.6
232.281	11.12
232.498	10.21
232.714	10.68
232.931	10.97
233.147	8.77
233.364	8.65
233.58	9.15
233.797	7.81
234.013	6.27
234.23	3.58
234.446	2.34
234.662	3.48
234.879	3.56
235.095	2.56
235.312	3.65
235.528	4.4
235.744	5.27
235.961	4.58
236.177	2.06
236.393	1.9
236.61	3.23
236.826	3.32
237.042	0.8
237.258	3.56
237.475	6.05
237.691	4.67
237.907	5.08
238.123	3.73
238.339	6.26
238.556	8.88
238.772	8.65
238.988	9.28
239.204	9.22
239.42	9.82
239.636	9.1
239.853	7.86
240.069	7.85
240.285	8.75
240.501	10.08
240.717	10.04
240.933	9.65
241.149	9.84
241.365	9.5
241.581	9.37
241.797	8.75
242.013	8.23
242.229	9.52
242.445	10.49
242.661	10.77
242.877	10.19
243.093	9.33
243.309	10.3
243.525	10.33
243.741	11.05
243.957	10.88
244.173	11.59
244.388	12.2
244.604	11.58
244.82	10.98
245.036	10.55
245.252	10.8
245.468	10.75
245.683	10.09
245.899	10.03
246.115	9.54
246.331	9.74
246.547	9.65
246.762	9.19
246.978	9.59
247.194	9.69
247.409	9.42
247.625	8.36
247.841	8.42
248.057	8.51
248.272	7.61
248.488	7.98
248.703	7.85
248.919	7.25
249.135	7
249.35	5.52
249.566	4.03
249.782	3.85
249.997	4.05
250.213	3.79
250.428	3.46
250.644	4.63
250.859	4.41
251.075	4.06
251.29	3.9
251.506	4.77
251.721	5.32
251.937	5.97
252.152	6.73
252.368	6.94
252.583	6.49
252.798	7.97
253.014	7.77
253.229	8.39
253.445	8.82
253.66	9.78
253.875	9.09
254.091	9.02
254.306	9.23
254.521	9.23
254.737	9.23
254.952	10.19
255.167	9.06
255.383	8.95
255.598	8.23
255.813	8.26
256.028	7.98
256.244	7.47
256.459	7.64
256.674	7.91
256.889	7.56
257.104	7.64
257.32	7.61
257.535	7.32
257.75	7.27
257.965	7.03
258.18	6.78
258.395	6.84
258.61	7.27
258.826	7.06
259.041	6.86
259.256	6.88
259.471	6.69
259.686	6.06
259.901	5.86
260.116	5.37
260.331	5.35
260.546	5.64
260.761	5.31
260.976	4.58
261.191	3.88
261.406	4.42
261.621	4.56
261.836	4.51
262.05	5.3
262.265	5.58
262.48	5.87
262.695	6.57
262.91	6.71
263.125	7.29
263.34	7.02
263.555	7.33
263.769	7.56
263.984	6.88
264.199	7.76
264.414	7.29
264.629	7.4
264.843	7.54
265.058	7.36
265.273	7.31
265.488	6.95
265.702	7.1
265.917	7.09
266.132	6.32
266.346	6.5
266.561	5.94
266.776	5.68
266.99	6.1
267.205	5.7
267.42	5.65
267.634	5.23
267.849	5.2
268.063	5.31
268.278	5.6
268.492	5.35
268.707	5.28
268.922	5.64
269.136	6.07
269.351	5.75
269.565	6.34
269.78	5.89
269.994	6.03
270.209	6.22
270.423	6.07
270.637	6
270.852	6.31
271.066	6.31
271.281	6.04
271.495	5.99
271.709	5.94
271.924	5.61
272.138	6.23
272.353	6.13
272.567	6
272.781	6.49
272.996	6.65
273.21	6.6
273.424	6.13
273.638	6.31
273.853	6.06
274.067	6.44
274.281	6.47
274.495	6.08
274.71	5.85
274.924	5.75
275.138	5.3
275.352	5.22
275.566	5.44
275.781	5.78
275.995	5.52
276.209	5.53
276.423	5.51
276.637	5.71
276.851	5.38
277.065	5.58
277.279	5.7
277.493	5.69
277.707	5.31
277.921	4.61
278.135	4.69
278.349	4.93
278.563	5.1
278.777	4.4
278.991	4.38
279.205	4.3
279.419	4.44
279.633	4.21
279.847	3.85
280.061	5.13
280.275	6
280.489	6.59
280.703	6.28
280.917	6.09
281.131	6.49
281.344	6.96
281.558	7.36
281.772	7.65
281.986	8.42
282.2	8.56
282.414	7.76
282.627	7.62
282.841	6.93
283.055	7.21
283.269	7.2
283.482	6.72
283.696	6.05
283.91	5.81
284.123	5.65
284.337	5.06
284.551	5.18
284.764	4.89
284.978	4.46
285.192	4.13
285.405	3.93
285.619	3.95
285.833	4.17
286.046	4.09
286.26	4.24
286.473	4.12
286.687	4.28
286.9	4.79
287.114	4.97
287.327	5.45
287.541	6.2
287.754	5.48
287.968	5.92
288.181	6.06
288.395	6.51
288.608	6.53
288.822	6.79
289.035	6.57
289.248	6.44
289.462	6.83
289.675	6.76
289.889	6.74
290.102	7.81
290.315	7.82
290.529	7.66
290.742	8.12
290.955	8.45
291.169	8.42
291.382	8.64
291.595	8.69
291.808	8.33
292.022	8.08
292.235	7.92
292.448	7.68
292.661	7.33
292.875	7.15
293.088	6.33
293.301	5.97
293.514	5.61
293.727	5.7
293.94	5.62
294.153	5.65
294.367	5.66
294.58	5.74
294.793	5.77
295.006	5.96
295.219	6.34
295.432	6.69
295.645	7
295.858	7.02
296.071	6.77
296.284	6.53
296.497	6.63
296.71	6.57
296.923	6.45
297.136	6.54
297.349	6.43
297.562	6.17
297.775	6.21
297.988	6.24
298.201	6.12
298.414	6.48
298.626	6.94
298.839	6.77
299.052	7.06
299.265	7.02
299.478	6.6
299.691	6.73
299.903	6.97
300.116	6.96
300.329	6.49
300.542	7.16
300.755	7.01
300.967	6.84
301.18	6.57
301.393	6.61
301.605	6.85
301.818	6.91
302.031	6.97
302.243	7.33
302.456	7.14
302.669	7.17
302.881	6.9
303.094	7.1
303.307	6.8
303.519	7.23
303.732	7.17
303.944	6.91
304.157	6.84
304.37	7.4
304.582	6.64
304.795	6.77
305.007	6.51
305.22	6.17
305.432	6.16
305.645	6.43
305.857	6.3
306.069	5.63
306.282	6.46
306.494	6.88
306.707	6.44
306.919	6.66
307.132	6.74
307.344	6.78
307.556	6.83
307.769	7.04
307.981	6.82
308.193	7.06
308.406	7.61
308.618	7.13
308.83	7.03
309.043	6.9
309.255	7.16
309.467	7.18
309.679	7.34
309.892	7.29
310.104	6.69
310.316	6.92
310.528	6.98
310.74	6.97
310.953	7.05
311.165	7.17
311.377	6.9
311.589	6.36
311.801	5.97
312.013	5.68
312.225	5.71
312.437	5.74
312.649	5.72
312.862	5.19
313.074	4.94
313.286	4.87
313.498	4.89
313.71	4.93
313.922	5.73
314.134	5.87
314.346	6.33
314.558	6.14
314.77	5.83
314.982	5.3
315.193	5.73
315.405	5.78
315.617	5.48
315.829	5.59
316.041	6.15
316.253	5.32
316.465	5.29
316.677	5.41
316.888	5.93
317.1	6.81
317.312	7.51
317.524	7.31
317.736	7.55
317.947	7.41
318.159	7.06
318.371	6.41
318.583	6.66
318.794	6.6
319.006	6.34
319.218	6.37
319.43	6.4
319.641	6.31
319.853	6.4
320.064	5.77
320.276	6.14
320.488	6.24
320.699	6.55
320.911	6.57
321.123	6.82
321.334	7.02
321.546	6.72
321.757	6.47
321.969	5.97
322.18	5.61
322.392	5.95
322.603	5.82
322.815	6.22
323.026	6.4
323.238	6.79
323.449	6.33
323.661	6.23
323.872	5.95
324.083	6.19
324.295	6.08
324.506	6.31
324.718	6.43
324.929	6.4
325.14	5.47
325.352	5.22
325.563	5.29
325.774	5.77
325.986	5.58
326.197	6.29
326.408	5.89
326.62	6.35
326.831	6.48
327.042	6.44
327.253	6.91
327.464	7.79
327.676	7.72
327.887	7.14
328.098	6.79
328.309	7.35
328.52	6.66
328.732	6.9
328.943	7.1
329.154	7.12
329.365	6.99
329.576	6.69
329.787	6.41
329.998	6.38
330.209	6.56
330.42	6.88
330.631	6.47
330.842	7.08
331.053	6.91
331.264	6.69
331.475	6.64
331.686	6.65
331.897	6.37
332.108	6.32
332.319	6.5
332.53	6.39
332.741	6.06
332.952	5.69
333.163	5.63
333.374	5.76
333.585	5.54
333.795	5.43
334.006	5.41
334.217	5.42
334.428	5.59
334.639	5.53
334.849	5.56
335.06	5.4
335.271	6.15
335.482	6.07
335.692	6.01
335.903	6.25
336.114	6.09
336.325	6.57
336.535	6.82
336.746	6.9
336.957	7.03
337.167	7.16
337.378	7.58
337.589	7.27
337.799	6.6
338.01	6.19
338.22	6.02
338.431	6.23
338.642	5.67
338.852	5.43
339.063	5.19
339.273	5.35
339.484	5.55
339.694	5.25
339.905	5.35
340.115	5.6
340.326	5.89
340.536	6.08
340.746	5.52
340.957	5.86
341.167	6
341.378	5.73
341.588	5.14
341.799	4.75
342.009	4.97
342.219	5.02
342.43	4.91
342.64	5.14
342.85	5.01
343.061	5.51
343.271	5.13
343.481	5.44
343.691	5.17
343.902	5.54
344.112	6
344.322	5.96
344.532	6
344.743	6.23
344.953	6.17
345.163	6.03
345.373	5.76
345.583	5.63
345.793	5.6
346.004	5.76
346.214	5.59
346.424	5.59
346.634	5.64
346.844	5.02
347.054	5.25
347.264	5.47
347.474	5.88
347.684	6.23
347.894	6.45
348.104	5.94
348.314	5.92
348.524	5.89
348.734	5.9
348.944	5.42
349.154	5.6
349.364	5.5
349.574	5.16
349.784	4.88
349.994	4.54
350.204	4.89
350.413	4.96
350.623	5.28
350.833	5.46
351.043	5.56
351.253	5.88
351.463	5.92
351.672	5.77
351.882	5.52
352.092	5.3
352.302	5.48
352.511	5.19
352.721	5.16
352.931	5.08
353.141	5.1
353.35	4.8
353.56	4.82
353.77	5.2
353.979	5.12
354.189	5.26
354.399	5.49
354.608	5.57
354.818	5.76
355.027	5.79
355.237	5.71
355.447	5.56
355.656	5.41
355.866	5.46
356.075	5.1
356.285	5.33
356.494	5.28
356.704	5.31
356.913	5.22
357.123	4.87
357.332	5.07
357.542	5.18
357.751	5.28
357.96	5.2
358.17	4.97
358.379	5.16
358.589	5.09
358.798	5.36
359.007	5.25
359.217	5.35
359.426	5.59
359.635	5.43
359.845	5.46
360.054	5.16
360.263	5.32
360.472	5.67
360.682	5.36
360.891	5.37
361.1	5.24
361.309	5.1
361.519	4.8
361.728	4.64
361.937	4.58
362.146	4.46
362.355	4.66
362.564	4.75
362.774	4.48
362.983	4.72
363.192	4.65
363.401	4.4
363.61	4.57
363.819	4.88
364.028	4.78
364.237	4.84
364.446	4.95
364.655	4.92
364.864	4.52
365.073	4.59
365.282	4.61
365.491	4.41
365.7	4.72
365.909	4.6
366.118	4.35
366.327	4.42
366.536	4.49
366.745	4.6
366.954	4.52
367.162	4.92
367.371	4.81
367.58	4.62
367.789	4.43
367.998	4.26
368.207	4.2
368.415	4.29
368.624	4.4
368.833	4.04
369.042	3.8
369.25	4.02
369.459	3.67
369.668	3.66
369.877	3.8
370.085	4.11
370.294	4.11
370.503	4.28
370.711	4.48
370.92	4.23
371.129	4.47
371.337	4.42
371.546	4.37
371.754	4.42
371.963	4.4
372.171	4.56
372.38	4.73
372.589	4.91
372.797	4.96
373.006	4.72
373.214	4.74
373.423	4.31
373.631	4.32
373.84	4.27
374.048	4.32
374.256	4.34
374.465	4.12
374.673	3.97
374.882	3.94
375.09	3.86
375.298	3.87
375.507	3.88
375.715	3.99
375.923	3.95
376.132	3.92
376.34	4.08
376.548	3.95
376.757	4
376.965	4.03
377.173	4.05
377.381	4.11
377.59	3.96
377.798	4.14
378.006	4.45
378.214	4.39
378.423	4.47
378.631	4.42
378.839	4.38
379.047	4.55
379.255	4.57
379.463	4.4
379.671	4.3
379.879	4.36
380.088	4.17
380.296	4.04
380.504	4.32
380.712	4.26
380.92	4.16
381.128	4.49
381.336	3.99
381.544	3.92
381.752	4.11
381.96	4.05
382.168	4.11
382.376	4.29
382.584	4.22
382.791	4.1
382.999	3.84
383.207	3.71
383.415	3.56
383.623	3.79
383.831	3.5
384.039	3.28
384.247	3.52
384.454	3.52
384.662	3.47
384.87	3.56
385.078	3.39
385.285	3.51
385.493	3.66
385.701	3.56
385.909	3.67
386.116	3.96
386.324	3.86
386.532	3.7
386.739	3.64
386.947	3.6
387.155	3.49
387.362	3.67
387.57	4.03
387.778	3.81
387.985	4.1
388.193	3.81
388.4	3.93
388.608	3.9
388.816	3.88
389.023	4.06
389.231	4.1
389.438	4.32
389.646	4.29
389.853	4.16
390.061	4.36
390.268	4.25
390.475	4.45
390.683	4.27
390.89	4.38
391.098	4.46
391.305	4.26
391.512	4.22
391.72	4.18
391.927	4.22
392.135	4.08
392.342	3.87
392.549	3.73
392.756	3.69
392.964	3.88
393.171	4
393.378	4.09
393.586	4.08
393.793	3.9
394	3.77
394.207	3.62
394.414	3.69
394.622	3.81
394.829	3.76
395.036	3.72
395.243	3.65
395.45	3.56
395.657	3.46
395.864	3.65
396.072	3.74
396.279	3.9
396.486	3.96
396.693	3.72
396.9	3.73
397.107	3.91
397.314	3.81
397.521	3.67
397.728	3.71
397.935	3.62
398.142	3.47
398.349	3.66
398.556	3.48
398.763	3.35
398.97	3.65
399.177	3.72
399.383	3.82
399.59	3.8
399.797	3.85
400.004	3.68
400.211	3.4
400.418	3.48
400.625	3.17
400.831	3.14
401.038	3.17
401.245	3.16
401.452	3.05
401.658	2.97
401.865	2.98
402.072	2.86
402.279	2.92
402.485	3.04
402.692	3.11
402.899	3.32
403.105	3.37
403.312	3.4
403.519	3.32
403.725	3.43
403.932	3.23
404.138	3.29
404.345	3.36
404.552	3.28
404.758	3.28
404.965	3.12
405.171	3.1
405.378	3.06
405.584	2.97
405.791	2.79
405.997	2.47
406.204	2.48
406.41	2.41
406.617	2.35
406.823	2.43
407.029	2.64
407.236	2.69
407.442	2.69
407.649	2.8
407.855	2.96
408.061	3.08
408.268	3.24
408.474	3.33
408.68	3.38
408.887	3.41
409.093	3.3
409.299	3.19
409.505	3.24
409.712	3.2
409.918	3.1
410.124	3.12
410.33	3.07
410.537	3.28
410.743	3.07
410.949	3.09
411.155	3.17
411.361	3.29
411.567	3.16
411.773	3.17
411.98	3.16
412.186	3.09
412.392	3
412.598	3.12
412.804	2.99
413.01	3.11
413.216	3.18
413.422	3.14
413.628	3.15
413.834	3.36
414.04	3.37
414.246	3.3
414.452	3.41
414.658	3.38
414.864	3.41
415.07	3.4
415.275	3.37
415.481	3.28
415.687	3.17
415.893	3.03
416.099	2.84
416.305	2.74
416.511	2.81
416.716	2.73
416.922	2.66
417.128	2.61
417.334	2.55
417.539	2.53
417.745	2.46
417.951	2.5
418.157	2.6
418.362	2.62
418.568	2.61
418.774	2.63
418.979	2.69
419.185	2.76
419.391	2.7
419.596	2.71
419.802	2.74
420.008	2.77
420.213	3.44
420.419	3.49
420.624	3.55
420.83	3.52
421.035	3.52
421.241	3.53
421.446	3.42
421.652	3.46
421.857	3.44
422.063	3.44
422.268	3.4
422.474	2.75
422.679	2.72
422.885	2.69
423.09	2.74
423.295	2.7
423.501	2.65
423.706	2.79
423.911	2.76
424.117	2.72
424.322	2.73
424.527	2.75
424.733	2.71
424.938	2.61
425.143	2.64
425.349	2.55
425.554	2.46
425.759	2.36
425.964	2.27
426.169	2.36
426.375	2.28
426.58	2.28
426.785	2.38
426.99	2.36
427.195	2.4
427.4	2.37
427.605	2.44
427.811	2.47
428.016	2.51
428.221	2.54
428.426	2.46
428.631	2.6
428.836	2.51
429.041	2.47
429.246	2.51
429.451	2.55
429.656	2.52
429.861	2.58
430.066	2.57
430.271	2.64
430.476	2.69
430.681	2.65
430.886	2.57
431.09	2.65
431.295	2.57
431.5	2.55
431.705	2.45
431.91	2.41
432.115	2.41
432.32	2.47
432.524	2.39
432.729	2.3
432.934	2.36
433.139	2.39
433.343	2.36
433.548	2.34
433.753	2.39
433.958	2.47
434.162	2.51
434.367	2.49
434.572	2.53
434.776	2.58
434.981	2.45
435.186	2.4
435.39	2.33
435.595	2.24
435.799	2.35
436.004	2.3
436.209	2.34
436.413	2.35
436.618	2.32
436.822	2.24
437.027	2.27
437.231	2.35
437.436	2.35
437.64	2.5
437.845	2.67
438.049	2.58
438.253	2.61
438.458	2.56
438.662	2.51
438.867	2.45
439.071	2.53
439.275	2.51
439.48	2.61
439.684	2.64
439.888	2.49
440.093	2.44
440.297	2.48
440.501	2.44
440.706	2.45
440.91	2.45
441.114	2.51
441.318	2.51
441.523	2.49
441.727	2.36
441.931	2.42
442.135	2.51
442.339	2.42
442.543	2.34
442.748	2.31
442.952	2.23
443.156	2.3
443.36	2.32
443.564	2.21
443.768	2.22
443.972	2.22
444.176	2.15
444.38	2.2
444.584	2.28
444.788	2.38
444.992	2.4
445.196	2.41
445.4	2.39
445.604	2.38
445.808	2.45
446.012	2.43
446.216	2.37
446.42	2.33
446.624	2.25
446.828	2.21
447.032	2.1
447.235	2.1
447.439	2.09
447.643	2.05
447.847	2.07
448.051	2.08
448.254	2.02
448.458	2.12
448.662	2.18
448.866	2.13
449.069	2.08
449.273	2.11
449.477	2.21
449.681	2.21
449.884	2.16
450.088	2.19
450.292	2.14
450.495	2.24
450.699	2.22
450.902	2.19
451.106	2.19
451.31	2.19
451.513	2.26
451.717	2.24
451.92	2.27
452.124	2.29
452.327	2.1
452.531	2.06
452.734	2
452.938	1.99
453.141	1.99
453.345	2.08
453.548	2.08
453.752	2.15
453.955	2.05
454.158	2.03
454.362	2.13
454.565	2.3
454.769	2.24
454.972	2.21
455.175	2.24
455.379	2.18
455.582	2.12
455.785	2.25
455.988	2.21
456.192	2.2
456.395	2.23
456.598	2.08
456.801	2.02
457.005	2.11
457.208	2.11
457.411	2.25
457.614	2.27
457.817	2.27
458.021	2.17
458.224	2.12
458.427	2.12
458.63	2.17
458.833	2.21
459.036	2.24
459.239	2.23
459.442	2.27
459.645	2.2
459.848	2.22
460.051	2.24
460.254	2.15
460.457	2.16
460.66	2.11
460.863	1.98
461.066	2
461.269	2
461.472	1.95
461.675	1.87
461.878	1.86
462.081	1.85
462.284	1.91
462.486	2.12
462.689	2.18
462.892	2.23
463.095	2.24
463.298	2.26
463.5	2.22
463.703	2.25
463.906	2.22
464.109	2.19
464.311	2.21
464.514	2.25
464.717	2.15
464.92	2.05
465.122	2.06
465.325	2.18
465.528	2.13
465.73	2.17
465.933	2.27
466.135	2.36
466.338	2.29
466.541	2.19
466.743	2.14
466.946	2.17
467.148	2.26
467.351	2.22
467.553	2.12
467.756	2.19
467.958	2.18
468.161	2.19
468.363	2.13
468.566	2.19
468.768	2.24
468.971	2.15
469.173	2.16
469.375	2.09
469.578	2.04
469.78	1.98
469.983	1.99
470.185	1.94
470.387	1.76
470.59	1.79
470.792	1.76
470.994	1.69
471.196	1.87
471.399	1.88
471.601	1.94
471.803	2.03
472.005	2.05
472.208	2.06
472.41	2.02
472.612	2.1
472.814	2.08
473.016	2.1
473.218	2.21
473.421	2.19
473.623	2.27
473.825	2.21
474.027	2.24
474.229	2.35
474.431	2.33
474.633	2.37
474.835	2.3
475.037	2.32
475.239	2.27
475.441	2.23
475.643	2.15
475.845	2.08
476.047	2.14
476.249	2.12
476.451	2.08
476.653	2.09
476.855	2.16
477.057	2.22
477.258	2.27
477.46	2.3
477.662	2.31
477.864	2.3
478.066	2.31
478.268	2.29
478.469	2.31
478.671	2.29
478.873	2.32
479.075	2.3
479.276	2.24
479.478	2.22
479.68	2.26
479.882	2.24
480.083	2.19
480.285	2.22
480.487	2.15
480.688	2.13
480.89	2.14
481.091	2.13
481.293	2.09
481.495	2.15
481.696	2.13
481.898	2.13
482.099	2.14
482.301	2.18
482.502	2.16
482.704	2.2
482.905	2.21
483.107	2.19
483.308	2.16
483.51	2.15
483.711	2.13
483.913	2.13
484.114	2.11
484.315	2.11
484.517	2.07
484.718	2.04
484.92	2.02
485.121	2.02
485.322	2.06
485.524	2.07
485.725	2.08
485.926	2.1
486.127	2.11
486.329	2.13
486.53	2.16
486.731	2.15
486.932	2.19
487.134	2.17
487.335	2.15
487.536	2.18
487.737	2.2
487.938	2.23
488.139	2.21
488.341	2.24
488.542	2.25
488.743	2.24
488.944	2.29
489.145	2.28
489.346	2.3
489.547	2.32
489.748	2.25
489.949	2.27
490.15	2.26
490.351	2.28
490.552	2.26
490.753	2.24
490.954	2.17
491.155	2.17
491.356	2.18
491.557	2.22
491.758	2.21
491.959	2.25
492.159	2.19
492.36	2.16
492.561	2.19
492.762	2.16
492.963	2.11
493.164	2.18
493.364	2.19
493.565	2.18
493.766	2.14
493.967	2.1
494.167	2
494.368	2.1
494.569	2.05
494.769	2.01
494.97	2.04
495.171	2.07
495.371	2.11
495.572	2.1
495.773	2.14
495.973	2.13
496.174	2.14
496.375	2.16
496.575	2.18
496.776	2.24
496.976	2.27
497.177	2.31
497.377	2.33
497.578	2.36
497.778	2.39
497.979	2.39
498.179	2.43
498.38	2.49
498.58	2.58
498.78	2.51
498.981	2.54
499.181	2.54
499.382	2.5
499.582	2.47
499.782	2.42
499.983	2.4
500.183	2.27
500.383	2.19
500.584	2.13
500.784	2.06
500.984	2.09
501.184	2.02
501.385	2
501.585	2.04
501.785	2.11
501.985	2.09
502.185	2.04
502.386	2.15
502.586	2.26
502.786	2.37
502.986	2.36
503.186	2.38
503.386	2.46
503.586	2.55
503.786	2.49
503.987	2.39
504.187	2.41
504.387	2.44
504.587	2.4
504.787	2.33
504.987	2.32
505.187	2.33
505.387	2.34
505.587	2.34
505.786	2.24
505.986	2.26
506.186	2.29
506.386	2.31
506.586	2.31
506.786	2.31
506.986	2.33
507.186	2.27
507.386	2.28
507.585	2.28
507.785	2.18
507.985	2.28
508.185	2.37
508.384	2.41
508.584	2.41
508.784	2.46
508.984	2.49
509.183	2.51
509.383	2.61
509.583	2.66
509.782	2.7
509.982	2.83
510.182	2.76
510.381	2.69
510.581	2.69
510.781	2.73
510.98	2.72
511.18	2.72
511.379	2.71
511.579	2.64
511.778	2.6
511.978	2.58
512.177	2.58
512.377	2.61
512.576	2.68
512.776	2.69
512.975	2.67
513.175	2.72
513.374	2.65
513.573	2.6
513.773	2.59
513.972	2.66
514.172	2.72
514.371	2.73
514.57	2.76
514.77	2.74
514.969	2.78
515.168	2.75
515.367	2.74
515.567	2.85
515.766	2.89
515.965	2.93
516.164	2.92
516.364	2.86
516.563	2.88
516.762	2.89
516.961	2.92
517.16	2.92
517.359	2.99
517.559	3.02
517.758	3.03
517.957	3.03
518.156	3.03
518.355	3.01
518.554	3.02
518.753	3.01
518.952	3.01
519.151	3.02
519.35	3.02
519.549	3.05
519.748	3.06
519.947	3.09
520.146	3.15
520.345	3.24
520.544	3.39
520.743	3.43
520.942	3.48
521.141	3.52
521.339	3.46
521.538	3.45
521.737	3.47
521.936	3.49
522.135	3.45
522.333	3.53
522.532	3.46
522.731	3.42
522.93	3.42
523.129	3.41
523.327	3.35
523.526	3.47
523.725	3.47
523.923	3.42
524.122	3.41
524.321	3.45
524.519	3.35
524.718	3.4
524.917	3.39
525.115	3.39
525.314	3.43
525.512	3.49
525.711	3.42
525.909	3.47
526.108	3.52
526.306	3.52
526.505	3.53
526.703	3.58
526.902	3.59
527.1	3.56
527.299	3.58
527.497	3.59
527.696	3.59
527.894	3.64
528.092	3.61
528.291	3.59
528.489	3.6
528.688	3.63
528.886	3.62
529.084	3.62
529.283	3.7
529.481	3.73
529.679	3.74
529.877	3.78
530.076	3.77
530.274	3.84
530.472	3.86
530.67	3.86
530.869	3.89
531.067	3.97
531.265	3.99
531.463	3.99
531.661	3.95
531.859	3.87
532.057	3.87
532.255	3.89
532.454	3.94
532.652	3.99
532.85	4.01
533.048	3.97
533.246	3.96
533.444	3.97
533.642	4
533.84	4.01
534.038	4.15
534.236	4.14
534.434	4.17
534.632	4.11
534.83	4.1
535.027	4.18
535.225	4.22
535.423	4.26
535.621	4.27
535.819	4.26
536.017	4.3
536.215	4.25
536.412	4.32
536.61	4.34
536.808	4.39
537.006	4.43
537.203	4.42
537.401	4.42
537.599	4.42
537.797	4.53
537.994	4.53
538.192	4.64
538.39	4.63
538.587	4.7
538.785	4.72
538.983	4.68
539.18	4.69
539.378	4.64
539.575	4.7
539.773	4.73
539.97	4.69
540.168	4.71
540.366	4.67
540.563	4.72
540.761	4.71
540.958	4.72
541.155	4.83
541.353	4.83
541.55	4.86
541.748	4.9
541.945	4.93
542.143	4.9
542.34	4.95
542.537	4.99
542.735	5
542.932	4.94
543.129	5.03
543.327	4.98
543.524	5.02
543.721	5.05
543.919	5.1
544.116	5.05
544.313	5.22
544.51	5.27
544.708	5.26
544.905	5.36
545.102	5.48
545.299	5.46
545.496	5.45
545.693	5.48
545.891	5.55
546.088	5.5
546.285	5.53
546.482	5.51
546.679	5.46
546.876	5.47
547.073	5.48
547.27	5.49
547.467	5.48
547.664	5.49
547.861	5.48
548.058	5.43
548.255	5.43
548.452	5.5
548.649	5.53
548.846	5.67
549.043	5.75
549.24	5.73
549.437	5.85
549.633	5.91
549.83	6.04
550.027	6.06
550.224	6.27
550.421	6.3
550.618	6.29
550.814	6.25
551.011	6.23
551.208	6.3
551.405	6.36
551.601	6.19
551.798	6.2
551.995	6.18
552.191	6.26
552.388	6.1
552.585	6.12
552.781	6.19
552.978	6.26
553.175	6.3
553.371	6.33
553.568	6.37
553.764	6.61
553.961	6.65
554.157	6.75
554.354	6.8
554.55	7.1
554.747	7.19
554.943	7.16
555.14	7.28
555.336	7.24
555.533	7.16
555.729	7.1
555.926	7.11
556.122	7.17
556.318	7.13
556.515	7.14
556.711	6.95
556.907	7.03
557.104	7.16
557.3	7.2
557.496	7.31
557.693	7.48
557.889	7.59
558.085	7.53
558.281	7.56
558.478	7.71
558.674	7.72
558.87	7.85
559.066	7.88
559.262	7.77
559.459	7.79
559.655	7.76
559.851	7.78
560.047	7.83
560.243	7.92
560.439	7.98
560.635	7.95
560.831	7.99
561.027	8.07
561.223	8.12
561.419	8.33
561.615	8.29
561.811	8.35
562.007	8.37
562.203	8.43
562.399	8.44
562.595	8.47
562.791	8.66
562.987	8.79
563.183	8.8
563.379	8.79
563.575	8.8
563.771	8.9
563.966	8.91
564.162	9.01
564.358	9.03
564.554	9.1
564.75	9.13
564.945	9.15
565.141	9.15
565.337	9.27
565.533	9.34
565.728	9.42
565.924	9.44
566.12	9.51
566.315	9.55
566.511	9.56
566.707	9.62
566.902	9.6
567.098	9.59
567.293	9.8
567.489	9.79
567.684	9.83
567.88	9.78
568.076	9.88
568.271	9.97
568.467	10.04
568.662	10.12
568.858	10.19
569.053	10.34
569.248	10.29
569.444	10.22
569.639	10.24
569.835	10.33
570.03	10.52
570.225	10.51
570.421	10.52
570.616	10.54
570.812	10.51
571.007	10.56
571.202	10.6
571.397	10.61
571.593	10.56
571.788	10.62
571.983	10.55
572.178	10.51
572.374	10.58
572.569	10.66
572.764	10.77
572.959	10.89
573.154	10.91
573.35	10.95
573.545	11.11
573.74	11.21
573.935	11.22
574.13	11.34
574.325	11.35
574.52	11.27
574.715	11.25
574.91	11.18
575.105	11.32
575.3	11.35
575.495	11.36
575.69	11.36
575.885	11.42
576.08	11.46
576.275	11.53
576.47	11.67
576.665	11.76
576.86	11.86
577.055	11.9
577.25	11.82
577.444	11.83
577.639	11.88
577.834	11.91
578.029	11.98
578.224	12.13
578.418	12.16
578.613	12.13
578.808	12.26
579.003	12.31
579.197	12.41
579.392	12.46
579.587	12.55
579.781	12.57
579.976	12.52
580.171	12.61
580.365	12.56
580.56	12.46
580.755	12.35
580.949	12.37
581.144	12.4
581.338	12.4
581.533	12.41
581.727	12.34
581.922	12.44
582.116	12.58
582.311	12.56
582.505	12.53
582.7	12.68
582.894	12.84
583.089	12.91
583.283	12.93
583.478	12.97
583.672	13.07
583.866	13.2
584.061	13.19
584.255	13.08
584.449	13.11
584.644	13.2
584.838	13.28
585.032	13.21
585.226	13.1
585.421	13.14
585.615	13.19
585.809	13.17
586.003	13.26
586.198	13.37
586.392	13.53
586.586	13.54
586.78	13.48
586.974	13.47
587.168	13.54
587.363	13.52
587.557	13.46
587.751	13.42
587.945	13.48
588.139	13.45
588.333	13.38
588.527	13.36
588.721	13.38
588.915	13.32
589.109	13.34
589.303	13.51
589.497	13.56
589.691	13.67
589.885	13.77
590.079	13.74
590.273	13.64
590.466	13.63
590.66	13.79
590.854	13.65
591.048	13.85
591.242	13.83
591.436	13.88
591.629	13.94
591.823	14.07
592.017	13.93
592.211	13.98
592.404	14.02
592.598	14.07
592.792	14.01
592.986	14.09
593.179	14.06
593.373	14.09
593.567	14.07
593.76	14.1
593.954	14.1
594.147	14.18
594.341	14.2
594.535	14.38
594.728	14.47
594.922	14.51
595.115	14.6
595.309	14.66
595.502	14.67
595.696	14.59
595.889	14.76
596.083	14.79
596.276	14.85
596.47	14.86
596.663	14.79
596.856	14.85
597.05	14.89
597.243	14.88
597.437	14.93
597.63	15.02
597.823	15.01
598.017	14.93
598.21	14.9
598.403	14.94
598.596	15.08
598.79	15.19
598.983	15.01
599.176	14.99
599.369	15.01
599.563	15
599.756	15.02
599.949	15.11
600.142	15.17
600.335	15.23
600.528	15.33
600.722	15.21
600.915	15.29
601.108	15.51
601.301	15.59
601.494	15.7
601.687	15.65
601.88	15.57
602.073	15.58
602.266	15.62
602.459	15.54
602.652	15.44
602.845	15.54
603.038	15.48
603.231	15.46
603.424	15.41
603.617	15.41
603.809	15.54
604.002	15.58
604.195	15.63
604.388	15.58
604.581	15.69
604.774	15.76
604.966	15.75
605.159	15.72
605.352	15.74
605.545	15.75
605.737	15.82
605.93	15.8
606.123	15.83
606.316	15.87
606.508	15.91
606.701	15.93
606.894	15.97
607.086	15.87
607.279	16.04
607.471	16.09
607.664	16.04
607.857	15.99
608.049	15.95
608.242	15.92
608.434	15.9
608.627	15.96
608.819	15.82
609.012	15.76
609.204	15.76
609.397	15.69
609.589	15.6
609.782	15.71
609.974	15.73
610.166	15.64
610.359	15.69
610.551	15.66
610.743	15.56
610.936	15.62
611.128	15.68
611.32	15.81
611.513	15.82
611.705	15.84
611.897	15.77
612.09	15.82
612.282	16.04
612.474	16.14
612.666	16.16
612.858	16.27
613.051	16.33
613.243	16.33
613.435	16.4
613.627	16.37
613.819	16.34
614.011	16.48
614.203	16.43
614.395	16.38
614.588	16.21
614.78	16.29
614.972	16.23
615.164	16.28
615.356	16.3
615.548	16.14
615.74	16.21
615.932	16.27
616.124	16.15
616.315	16.2
616.507	16.32
616.699	16.59
616.891	16.69
617.083	16.77
617.275	16.71
617.467	16.73
617.659	16.93
617.85	16.83
618.042	16.83
618.234	16.88
618.426	16.93
618.618	16.9
618.809	16.99
619.001	16.86
619.193	16.76
619.384	16.81
619.576	16.84
619.768	16.82
619.959	16.94
620.151	17.01
620.343	16.94
620.534	16.75
620.726	16.74
620.917	16.5
621.109	16.52
621.301	16.61
621.492	16.71
621.684	16.71
621.875	16.62
622.067	16.59
622.258	16.55
622.45	16.66
622.641	16.63
622.832	16.66
623.024	16.6
623.215	16.68
623.407	16.64
623.598	16.61
623.789	16.79
623.981	16.88
624.172	16.92
624.363	16.97
624.555	17.02
624.746	17.21
624.937	17.07
625.129	17.2
625.32	17.21
625.511	17.26
625.702	17.24
625.893	17.19
626.085	17.01
626.276	17.08
626.467	17.04
626.658	17.02
626.849	17.05
627.04	17.18
627.231	17.22
627.422	17.37
627.614	17.34
627.805	17.4
627.996	17.43
628.187	17.61
628.378	17.62
628.569	17.87
628.76	17.79
628.951	17.77
629.142	17.71
629.332	17.7
629.523	17.51
629.714	17.64
629.905	17.64
630.096	17.72
630.287	17.7
630.478	17.54
630.669	17.33
630.859	17.35
631.05	17.26
631.241	17.12
631.432	17.02
631.623	17
631.813	16.92
632.004	17.02
632.195	16.9
632.385	16.74
632.576	16.81
632.767	16.68
632.957	16.69
633.148	16.79
633.339	16.95
633.529	17.1
633.72	17.14
633.91	17.11
634.101	16.97
634.292	17
634.482	17.34
634.673	17.46
634.863	17.83
635.054	17.87
635.244	18.08
635.435	18.15
635.625	18.24
635.815	18.27
636.006	18.24
636.196	18.28
636.387	18.37
636.577	18.13
636.767	18.2
636.958	18.02
637.148	18.14
637.338	17.98
637.529	17.92
637.719	17.87
637.909	17.79
638.099	17.89
638.29	17.96
638.48	17.9
638.67	18.14
638.86	18.05
639.05	17.94
639.241	17.84
639.431	17.81
639.621	17.84
639.811	17.78
640.001	18.02
640.191	17.93
640.381	17.97
640.571	18.12
640.761	18.06
640.951	18.14
641.141	18.38
641.331	18.29
641.521	18.27
641.711	18.35
641.901	18.22
642.091	17.99
642.281	18.12
642.471	18.29
642.661	18.22
642.851	18.14
643.041	18.2
643.231	18.1
643.42	18.31
643.61	18.31
643.8	18.12
643.99	18.24
644.18	18.28
644.369	18.43
644.559	18.12
644.749	18.04
644.939	18.16
645.128	18.03
645.318	18.19
645.508	17.93
645.697	18.09
645.887	18.26
646.076	18.31
646.266	18.43
646.456	18.37
646.645	18.54
646.835	18.63
647.024	18.67
647.214	18.92
647.403	18.68
647.593	19.04
647.782	18.98
647.972	19.02
648.161	19.14
648.351	19.22
648.54	19.04
648.73	18.78
648.919	18.84
649.108	18.68
649.298	18.52
649.487	18.61
649.677	18.55
649.866	18.62
650.055	18.55
650.244	18.29
650.434	18.34
650.623	18.49
650.812	18.86
651.002	18.73
651.191	18.81
651.38	18.87
651.569	18.71
651.758	18.68
651.947	18.59
652.137	18.66
652.326	18.84
652.515	18.69
652.704	18.86
652.893	18.59
653.082	18.65
653.271	18.75
653.46	18.72
653.649	18.91
653.838	19.04
654.027	19.11
654.216	19.16
654.405	19.36
654.594	19.57
654.783	19.44
654.972	19.69
655.161	19.6
655.35	19.59
655.539	19.58
655.728	19.6
655.916	19.51
656.105	19.53
656.294	19.59
656.483	19.38
656.672	19.3
656.86	19.41
657.049	19.31
657.238	19.42
657.427	19.38
657.615	19.39
657.804	19.52
657.993	19.48
658.181	19.52
658.37	19.52
658.559	19.56
658.747	19.56
658.936	19.34
659.125	19.68
659.313	19.92
659.502	20.05
659.69	20.04
659.879	19.93
660.067	19.99
660.256	19.95
660.444	19.75
660.633	19.77
660.821	19.65
661.01	19.77
661.198	19.57
661.387	19.28
661.575	19.22
661.763	19.05
661.952	18.98
662.14	18.87
662.328	18.79
662.517	18.92
662.705	18.73
662.893	18.81
663.082	18.8
663.27	18.84
663.458	18.65
663.646	18.77
663.834	18.74
664.023	18.83
664.211	18.95
664.399	18.84
664.587	18.84
664.775	19.03
664.963	19.2
665.152	19.25
665.34	19.07
665.528	19.24
665.716	18.99
665.904	19.22
666.092	19.25
666.28	19.16
666.468	19.54
666.656	19.68
666.844	19.81
667.032	19.72
667.22	19.92
667.408	19.96
667.596	20
667.784	20.02
667.971	19.92
668.159	19.91
668.347	20.25
668.535	20.28
668.723	20.24
668.911	20.35
669.098	20.4
669.286	20.21
669.474	20.32
669.662	20.28
669.849	20.27
670.037	20.68
670.225	20.63
670.413	20.36
670.6	20.3
670.788	20.24
670.976	20.05
671.163	20.36
671.351	20.36
671.538	20.2
671.726	20.12
671.913	20.34
672.101	19.9
672.289	20.11
672.476	20.17
672.664	20.04
672.851	19.86
673.039	19.86
673.226	19.49
673.413	19.51
673.601	19.24
673.788	19.36
673.976	19.18
674.163	19.67
674.35	19.61
674.538	19.8
674.725	19.86
674.912	20.17
675.1	20.2
675.287	20.47
675.474	20.48
675.662	20.84
675.849	20.91
676.036	20.69
676.223	20.51
676.411	20.49
676.598	20.15
676.785	19.87
676.972	19.73
677.159	19.7
677.346	19.33
677.533	19.6
677.721	19.66
677.908	19.66
678.095	19.94
678.282	19.89
678.469	19.77
678.656	19.83
678.843	20.14
679.03	20.2
679.217	20.21
679.404	20.2
679.591	20.28
679.778	20.28
679.964	20.45
680.151	20.39
680.338	20.48
680.525	20.72
680.712	20.95
680.899	21.09
681.086	21.22
681.272	21.26
681.459	21.45
681.646	21.26
681.833	21.27
682.02	21.06
682.206	21.18
682.393	21.05
682.58	20.91
682.766	20.78
682.953	20.55
683.14	20.48
683.326	20.73
683.513	20.4
683.7	20.37
683.886	20.24
684.073	20.29
684.259	20.34
684.446	20.36
684.632	20.78
684.819	20.9
685.005	20.88
685.192	21.02
685.378	20.68
685.565	21.15
685.751	20.89
685.938	20.79
686.124	20.86
686.31	20.7
686.497	20.65
686.683	20.4
686.87	20.02
687.056	20.14
687.242	19.88
687.429	19.94
687.615	19.95
687.801	19.94
687.987	20.34
688.174	20.3
688.36	20.43
688.546	20.69
688.732	20.67
688.918	21.11
689.105	21.19
689.291	21.43
689.477	21.67
689.663	21.69
689.849	21.86
690.035	21.35
690.221	21.22
690.407	21.54
690.593	21.42
690.779	21.54
690.965	21.53
691.151	21.5
691.337	21.19
691.523	21.23
691.709	21.15
691.895	21.32
692.081	21.76
692.267	21.7
692.453	21.54
692.639	21.23
692.825	21.26
693.011	21.45
693.196	21.63
693.382	21.61
693.568	21.21
693.754	21.25
693.94	20.94
694.125	20.88
694.311	21.1
694.497	21
694.682	21.15
694.868	20.83
695.054	20.39
695.239	20.32
695.425	20.72
695.611	20.73
695.796	20.56
695.982	20.95
696.168	21.25
696.353	21.2
696.539	21.13
696.724	21.04
696.91	21.07
697.095	21.3
697.281	21.15
697.466	21.02
697.652	21.18
697.837	21.15
698.023	21.15
698.208	21.09
698.393	21.08
698.579	21.17
698.764	21.4
698.949	21.49
699.135	21.48
699.32	21.29
699.505	21.33
699.691	21.29
699.876	21.37
700.061	21.27
700.246	20.96
700.432	21.19
700.617	21.16
700.802	20.82
700.987	20.79
701.172	20.74
701.358	20.96
701.543	21.07
701.728	20.9
701.913	20.84
702.098	20.81
702.283	21.09
702.468	20.96
702.653	20.83
702.838	21.44
703.023	21.7
703.208	21.3
703.393	21.39
703.578	21.31
703.763	21.51
703.948	21.51
704.133	21.71
704.318	21.71
704.503	21.63
704.688	21.9
704.873	21.32
705.057	21.27
705.242	21.42
705.427	21.85
705.612	21.92
705.797	21.85
705.981	21.92
706.166	21.73
706.351	21.36
706.536	21.34
706.72	21.3
706.905	21.5
707.09	21.27
707.274	21.42
707.459	21.29
707.644	20.81
707.828	21.03
708.013	21.2
708.197	21.2
708.382	21.31
708.567	21.23
708.751	20.95
708.936	21.11
709.12	21.22
709.305	21.31
709.489	21.11
709.673	21.53
709.858	21.38
710.042	21.34
710.227	21.54
710.411	22.03
710.596	22.31
710.78	22.3
710.964	22.54
711.149	22.56
711.333	22.49
711.517	22.49
711.702	22.49
711.886	22.7
712.07	22.67
712.254	22.76
712.438	22.31
712.623	22.15
712.807	22
712.991	21.84
713.175	21.99
713.359	22.06
713.544	22.22
713.728	22.43
713.912	22.29
714.096	22.22
714.28	22.47
714.464	22.58
714.648	22.71
714.832	23.05
715.016	22.7
715.2	22.9
715.384	22.7
715.568	22.57
715.752	22.17
715.936	22.01
716.12	22.23
716.304	22.03
716.488	22
716.671	21.92
716.855	21.7
717.039	21.96
717.223	21.44
717.407	21.62
717.59	21.77
717.774	21.83
717.958	22.15
718.142	21.7
718.325	21.39
718.509	21.26
718.693	21.1
718.877	21.15
719.06	21.05
719.244	21.36
719.428	21.33
719.611	21.21
719.795	21.54
719.978	21.19
720.162	21.56
720.345	21.32
720.529	21.51
720.713	21.71
720.896	21.62
721.08	21.61
721.263	21.11
721.446	21.31
721.63	21.51
721.813	21.52
721.997	21.49
722.18	21.64
722.364	21.93
722.547	21.89
722.73	21.68
722.914	21.94
723.097	21.97
723.28	22.76
723.464	22.57
723.647	22.22
723.83	22.18
724.013	22.35
724.197	22.21
724.38	22.25
724.563	22.1
724.746	21.97
724.929	22.69
725.112	22.62
725.296	22.56
725.479	22.49
725.662	23.18
725.845	22.98
726.028	23.12
726.211	23.14
726.394	23.07
726.577	23.1
726.76	23.79
726.943	23.47
727.126	23.2
727.309	22.98
727.492	23.15
727.675	22.64
727.858	22.8
728.041	22.69
728.224	22.84
728.407	22.99
728.589	22.77
728.772	22.18
728.955	21.89
729.138	22.09
729.321	21.98
729.503	22.03
729.686	22
729.869	21.99
730.052	21.95
730.234	21.95
730.417	21.52
730.6	21.48
730.782	21.91
730.965	21.53
731.148	21.55
731.33	21.44
731.513	21.48
731.695	21.54
731.878	21.83
732.061	21.82
732.243	21.96
732.426	22.28
732.608	22.51
732.791	22.16
732.973	22.67
733.156	22.82
733.338	23.12
733.52	22.7
733.703	23.01
733.885	22.55
734.068	22.28
734.25	21.74
734.432	21.79
734.615	21.89
734.797	22.1
734.979	21.85
735.162	22.49
735.344	22.2
735.526	22.75
735.708	22.39
735.891	22.19
736.073	22.35
736.255	22.9
736.437	22.69
736.619	22.68
736.802	22.23
736.984	22.76
737.166	22.2
737.348	22.4
737.53	22.12
737.712	22.26
737.894	23.43
738.076	23.55
738.258	23.26
738.44	23.61
738.622	24.17
738.804	24.49
738.986	23.43
739.168	23.23
739.35	23.31
739.532	23.61
739.714	23.08
739.896	21.92
740.078	22.13
740.259	22.06
740.441	21.46
740.623	21.02
740.805	21.27
740.987	22.02
741.168	22.35
741.35	22.16
741.532	21.88
741.714	22.25
741.895	22.77
742.077	22.59
742.259	22.73
742.44	22.93
742.622	23.01
742.804	22.36
742.985	22
743.167	21.9
743.348	21.39
743.53	21.42
743.711	22.01
743.893	21.68
744.075	21.78
744.256	21.39
744.438	21.75
744.619	21.36
744.8	22
744.982	22.55
745.163	22.67
745.345	22.77
745.526	22.73
745.707	22.33
745.889	22.41
746.07	22.64
746.252	23.29
746.433	23.32
746.614	23.13
746.795	23.2
746.977	22.4
747.158	22.35
747.339	22.71
747.52	22.77
747.702	22.92
747.883	22.3
748.064	22.14
748.245	21.99
748.426	21.29
748.607	21.95
748.788	21.63
748.97	21.72
749.151	21.89
749.332	22.69
749.513	21.92
749.694	21.71
749.875	22
750.056	21.54
750.237	20.94
750.418	21.6
750.599	21.05
750.78	21.16
750.96	21.6
751.141	20.82
751.322	20.35
751.503	20.43
751.684	20.24
751.865	20.33
752.046	21.29
752.226	21.33
752.407	21.78
752.588	22.32
752.769	22.31
752.949	22
753.13	22.4
753.311	21.68
753.492	22.33
753.672	22.54
753.853	22.6
754.034	21.75
754.214	22.09
754.395	21.36
754.575	21.23
754.756	21.42
754.937	21.7
755.117	21.91
755.298	22.79
755.478	22.5
755.659	22.05
755.839	21.86
756.02	22.5
756.2	22.2
756.381	22.33
756.561	22.35
756.741	22.34
756.922	22.23
757.102	22.03
757.283	21.67
757.463	22.22
757.643	22.46
757.823	22.36
758.004	21.86
758.184	22.23
758.364	22.29
758.545	22.06
758.725	21.86
758.905	21.72
759.085	21.41
759.265	21.53
759.446	20.95
759.626	21.26
759.806	21.5
759.986	21.87
760.166	21.65
760.346	21.97
760.526	22.29
760.706	22.46
760.886	22.85
761.066	23.63
761.246	23.76
761.426	24.43
761.606	23.97
761.786	24.16
761.966	24.02
762.146	24.53
762.326	24.43
762.506	24.36
762.686	24.62
762.866	24.69
763.046	24.1
763.225	24.17
763.405	24.04
763.585	24.1
763.765	24.31
763.945	24.43
764.124	24.2
764.304	24.03
764.484	24.31
764.664	24.02
764.843	24.32
765.023	25.05
765.203	25.2
765.382	24.82
765.562	24.85
765.741	24.43
765.921	24.21
766.101	23.81
766.28	23.66
766.46	23.7
766.639	23.56
766.819	22.63
766.998	21.33
767.178	20.15
767.357	20.46
767.537	20.73
767.716	20.34
767.896	20.24
768.075	20.31
768.254	20.57
768.434	20.31
768.613	20.48
768.792	21.48
768.972	22.03
769.151	23.32
769.33	24.04
769.51	24.19
769.689	24.94
769.868	25.64
770.047	26.32
770.226	25.78
770.406	25.59
770.585	24.97
770.764	24.29
770.943	24.4
771.122	23.98
771.301	23.25
771.48	23.18
771.66	22.85
771.839	22.23
772.018	22.06
772.197	22.61
772.376	22.61
772.555	22.06
772.734	22.07
772.913	22.33
773.092	22.01
773.271	22.03
773.449	22.94
773.628	23.4
773.807	23.18
773.986	23.38
774.165	22.47
774.344	22.53
774.523	23.64
774.701	23.84
774.88	23.57
775.059	23.86
775.238	23.45
775.417	22.35
775.595	22.08
775.774	22.05
775.953	22.33
776.131	22.61
776.31	22.4
776.489	21.5
776.667	21.2
776.846	20.82
777.025	21.08
777.203	21.39
777.382	21.64
777.56	21.22
777.739	21.45
777.917	21.08
778.096	22.26
778.274	22.29
778.453	23.43
778.631	22.82
778.81	22.98
778.988	23.32
779.166	23.71
779.345	23.75
779.523	24.3
779.702	24.06
779.88	23.9
780.058	23.89
780.237	24.29
780.415	24.42
780.593	25.85
780.771	25.91
780.95	25.32
781.128	25.21
781.306	25
781.484	25.82
781.662	26.2
781.841	27.06
782.019	26.3
782.197	26.13
782.375	25.45
782.553	24.97
782.731	25.1
782.909	25.2
783.087	25.55
783.265	24.89
783.443	24.43
783.621	24.08
783.799	23.03
783.977	23.51
784.155	22.85
784.333	23.58
784.511	23.27
784.689	23
784.867	23.68
785.045	23.45
785.223	23.92
785.4	22.66
785.578	22.38
785.756	22.75
785.934	22.38
786.112	22.78
786.289	22.77
786.467	22.54
786.645	23.21
786.823	22.51
787	21.99
787.178	22.35
787.356	22.37
787.533	23.1
787.711	23.13
787.889	23.98
788.066	24.83
788.244	24.45
788.421	24.05
788.599	23.22
788.776	22.26
788.954	22.01
789.131	21.44
789.309	21.65
789.486	21
789.664	20.36
789.841	18.93
790.019	17.74
790.196	17.56
790.373	17.72
790.551	17.8
790.728	18.3
790.906	18.04
791.083	16.58
791.26	17.23
791.437	18.66
791.615	18.24
791.792	18.84
791.969	19.03
792.146	19.49
792.324	20.92
792.501	22.82
792.678	23.97
792.855	24.38
793.032	27.22
793.209	26.56
793.387	25.23
793.564	26.74
793.741	26.82
793.918	25.88
794.095	25.26
794.272	23.9
794.449	23.24
794.626	23.24
794.803	23.02
794.98	22.54
795.157	22.96
795.334	23.43
795.511	22.93
795.688	23.64
795.864	24.84
796.041	24.55
796.218	25.35
796.395	24.69
796.572	24.14
796.749	24.47
796.925	25.28
797.102	25.21
797.279	25.14
797.456	24.46
797.632	24.06
797.809	24.2
797.986	24.93
798.162	24.97
798.339	26.13
798.516	25.9
798.692	25.68
798.869	24.9
799.046	25.2
799.222	25.64
799.399	25.86
799.575	24.97
799.752	24.36
799.928	24.36
800.105	24.28
800.281	23.32
800.458	23.38
800.634	24.68
800.811	23.48
800.987	22.04
801.163	22.23
801.34	22.94
801.516	22.82
801.692	23.45
801.869	23.2
802.045	22.4
802.221	21.74
802.398	21.55
802.574	20.01
802.75	20.57
802.926	21.07
803.103	20.2
803.279	19.75
803.455	20.17
803.631	19.28
803.807	19.91
803.983	20.53
804.16	21.11
804.336	20.91
804.512	22.43
804.688	23.08
804.864	23.18
805.04	22.27
805.216	22.67
805.392	22.4
805.568	23.02
805.744	22.1
805.92	21.95
806.096	22.39
806.272	23.24
806.448	22.34
806.623	22.47
806.799	23.02
806.975	23.25
807.151	23.47
807.327	23.35
807.503	23.06
807.678	22.97
807.854	22.27
808.03	21.9
808.206	22.08
808.381	22.31
808.557	21.41
808.733	21.99
808.908	23.56
809.084	23.1
809.26	23.74
809.435	23.92
809.611	25.8
809.787	27.12
809.962	26.41
810.138	25.32
810.313	24.79
810.489	25
810.664	24.93
810.84	23.67
811.015	23.75
811.191	23.15
811.366	24.4
811.542	24.41
811.717	23.34
811.892	23.6
812.068	24.22
812.243	25.08
812.419	25
812.594	23.56
812.769	24
812.944	23.12
813.12	23.91
813.295	22.19
813.47	20.61
813.645	20.88
813.821	21.18
813.996	20.76
814.171	19.15
814.346	19.23
814.521	19.2
814.697	19.29
814.872	19.97
815.047	18.62
815.222	19.17
815.397	19.97
815.572	20.99
815.747	21.13
815.922	21.14
816.097	20.48
816.272	20.16
816.447	22.39
816.622	22.02
816.797	21.92
816.972	22.4
817.147	23.2
817.322	22.6
817.496	22.58
817.671	22.01
817.846	21.64
818.021	23.53
818.196	23.74
818.371	22.29
818.545	23
818.72	22.05
818.895	22.84
819.069	21.18
819.244	21.38
819.419	20.94
819.594	22.75
819.768	23.53
819.943	23.32
820.117	23.3
820.292	23.97
820.467	24.4
820.641	24.69
820.816	24.55
820.99	24.9
821.165	25.12
821.339	25.17
821.514	24.7
821.688	24.69
821.863	24.7
822.037	24.82
822.212	24.59
822.386	24.38
822.56	24.62
822.735	24.76
822.909	25
823.084	24.79
823.258	24.7
823.432	24.77
823.606	24.71
823.781	25.06
823.955	24.75
824.129	24.98
824.303	25.2
824.478	25.12
824.652	24.92
824.826	24.99
825	25.26
825.174	25.55
825.348	25.75
825.523	25.88
825.697	25.67
825.871	25.91
826.045	25.79
826.219	25.62
826.393	25.63
826.567	25.58
826.741	25.69
826.915	25.57
827.089	25.62
827.263	25.25
827.437	24.8
827.611	24.83
827.784	25.25
827.958	25.13
828.132	25.16
828.306	25.41
828.48	25.21
828.654	25.11
828.827	25.21
829.001	24.36
829.175	24.7
829.349	25.25
829.522	24.85
829.696	24
829.87	24.24
830.044	24.24
830.217	23.52
830.391	24.72
830.565	23.87
830.738	23.45
830.912	23.7
831.085	23.74
831.259	24.56
831.432	25.2
831.606	25.68
831.779	25.06
831.953	24.83
832.126	25.43
832.3	25.03
832.473	24.49
832.647	24.51
832.82	25.19
832.994	24.94
833.167	24.27
833.34	23.48
833.514	24.13
833.687	24.13
833.86	24.04
834.034	23.56
834.207	23.67
834.38	24.29
834.553	24.55
834.727	24.5
834.9	24.93
835.073	25.66
835.246	26.34
835.419	26.48
835.593	27.23
835.766	26.89
835.939	28.09
836.112	27.66
836.285	28.27
836.458	27.5
836.631	27.51
836.804	26.85
836.977	26.42
837.15	26.47
837.323	26.13
837.496	25.78
837.669	26.2
837.842	24.85
838.015	24.76
838.188	22.81
838.361	23.41
838.533	22.85
838.706	24.68
838.879	25.39
839.052	25.66
839.225	23.75
839.398	24.11
839.57	25.32
839.743	25.64
839.916	26.43
840.088	25.79
840.261	26.58
840.434	28.2
840.607	27.03
840.779	25.56
840.952	24.16
841.124	26.2
841.297	25.83
841.47	25.74
841.642	24.65
841.815	23.52
841.987	24.56
842.16	26.28
842.332	23.99
842.505	23.11
842.677	23.93
842.85	23.41
843.022	20.95
843.194	20.81
843.367	21.17
843.539	22.12
843.712	25.96
843.884	25.71
844.056	22.41
844.229	25.57
844.401	24.86
844.573	23.97
844.745	25.53
844.918	28.1
845.09	28.48
845.262	25.88
845.434	29.02
845.606	25.58
845.779	25.73
845.951	28.51
846.123	25.68
846.295	28.17
846.467	29.51
846.639	29.2
846.811	27.75
846.983	29.77
847.155	30.49
847.327	29.38
847.499	30.05
847.671	30.92
847.843	28.15
848.015	27.41
848.187	24.56
848.359	22.77
848.531	22.39
848.703	21.56
848.875	18.37
849.047	19.38
849.218	20.35
849.39	18.93
849.562	21.17
849.734	19.94
849.905	25.42
850.077	29.26
850.249	28.7
850.421	30.34
850.592	26.58
850.764	26.6
850.936	24.94
851.107	21.23
851.279	19.41
851.451	17.03
851.622	18.29
851.794	12.29
851.965	10.58
852.137	8.95
852.308	8.76
852.48	15.44
852.651	16.44
852.823	16.79
852.994	16.98
853.166	21.53
853.337	20.33
853.509	22.14
853.68	24.59
853.851	25.83
854.023	25.9
854.194	26.54
854.365	25.17
854.537	23.13
854.708	24.82
854.879	25.69
855.05	23.28
855.222	24.82
855.393	22.64
855.564	21.29
855.735	21.69
855.906	23.34
856.078	20.49
856.249	16.21
856.42	19.08
856.591	15.23
856.762	15.98
856.933	14.65
857.104	15.93
857.275	16.64
857.446	20.99
857.617	19.54
857.788	20.53
857.959	21.9
858.13	27.74
858.301	25.1
858.472	29.92
858.643	28.5
858.814	31.07
858.985	28.12
859.155	30.15
859.326	28.84
859.497	25.77
859.668	24.65
859.839	23.27
860.009	19.92
860.18	23.31
860.351	17.9
860.522	17.92
860.692	14.59
860.863	13.28
861.034	13.53
861.204	15.08
861.375	12.75
861.546	17.34
861.716	19.31
861.887	22.82
862.057	20.61
862.228	22.09
862.398	19.49
862.569	20.31
862.739	24.42
862.91	21.71
863.08	18.46
863.251	26
863.421	21.36
863.592	20.12
863.762	17.52
863.932	14.19
864.103	18.88
864.273	23.1
864.443	26.17
864.614	26.8
864.784	28.42
864.954	32.22
865.125	32.01
865.295	29.41
865.465	30.73
865.635	29.95
865.805	36.04
865.976	33.24
866.146	29.38
866.316	26.62
866.486	21.56
866.656	20.33
866.826	15.07
866.996	13.45
867.166	18.64
867.336	16.97
867.506	15.86
867.676	10.81
867.846	12.66
868.016	18.35
868.186	18.76
868.356	21.26
868.526	22.17
868.696	24.39
868.866	21.5
869.036	19.25
869.206	16.93
869.376	21.96
869.545	26.04
869.715	26.8
869.885	22.95
870.055	22.66
870.224	24.83
870.394	23.74
870.564	26.28
870.734	29.32
870.903	30.12
871.073	31.1
871.243	25.6
871.412	25.6
871.582	26.89
871.751	26.82
871.921	33.53
872.091	33.44
872.26	34.84
872.43	31.67
872.599	28.13
872.769	30.36
872.938	31.4
873.108	33.3
873.277	26.97
873.446	22.83
873.616	25.87
873.785	20.44
873.955	16
874.124	15.09
874.293	16.09
874.463	19.21
874.632	18.14
874.801	22.82
874.971	25.39
875.14	26.19
875.309	27.24
875.478	24.32
875.647	23.58
875.817	27.38
875.986	29.56
876.155	24.9
876.324	24.3
876.493	22.09
876.662	16.43
876.831	14.51
877	17.61
877.17	19.28
877.339	19.06
877.508	18.79
877.677	17.8
877.846	14.21
878.015	18.99
878.184	19.62
878.352	19.03
878.521	18.83
878.69	17.98
878.859	21.23
879.028	20.11
879.197	21.04
879.366	21.31
879.534	21.08
879.703	23.29
879.872	25.31
880.041	24.81
880.21	25.27
880.378	26.13
880.547	26.32
880.716	26.13
880.884	25.95
881.053	25.17
881.222	25.78
881.39	25.87
881.559	25.68
881.727	23.82
881.896	24.2
882.065	24.23
882.233	24.11
882.402	24.7
882.57	25.16
882.739	25.24
882.907	25.8
883.076	25.68
883.244	25.65
883.412	25.9
883.581	27.05
883.749	27.39
883.918	27.15
884.086	26.35
884.254	26.15
884.423	25.47
884.591	25.6
884.759	25.45
884.927	25.22
885.096	25.18
885.264	25.53
885.432	25.32
885.6	25.48
885.769	26.13
885.937	27.84
886.105	27.84
886.273	26.45
886.441	26.58
886.609	26.69
886.777	26.54
886.945	25.61
887.113	25.59
887.281	22.13
887.449	19.05
887.617	18.43
887.785	20.39
887.953	18.57
888.121	17.57
888.289	13.54
888.457	16.95
888.625	17.3
888.793	14.39
888.961	15.25
889.129	18.33
889.296	22.13
889.464	22.16
889.632	19.7
889.8	21.82
889.967	25.44
890.135	29.7
