Data from 2938459_Reflection_3.txt Node
Date: Wed Jun 17 14:07:47 EDT 2015
User: robert
Spectrometer: USB4E03002
Autoset integration time: false
Trigger mode: 4
Integration Time (sec): 1.000000E-1
Scans to average: 10
Electric dark correction enabled: true
Nonlinearity correction enabled: false
Boxcar width: 5
Stray light correction enabled: false
XAxis mode: Wavelengths
Stop averaging: false
Number of Pixels in Spectrum: 3648
>>>>>Begin Spectral Data<<<<<
177.575	-98.41
177.794	-222.27
178.014	-117.49
178.233	-294.01
178.452	250.48
178.672	356.98
178.891	-19.01
179.11	-113.93
179.33	2040.62
179.549	-7934.57
179.768	-611.08
179.987	-157.1
180.207	-1140.58
180.426	-305.79
180.645	302.4
180.864	220.14
181.084	246.05
181.303	236.62
181.522	297.35
181.741	483.84
181.96	315.49
182.179	344.91
182.398	294.17
182.618	213.23
182.837	240.46
183.056	717.43
183.275	412.19
183.494	426.44
183.713	380.77
183.932	2384.18
184.151	974.13
184.37	493.21
184.589	302.71
184.808	262.66
185.027	802.54
185.246	436.51
185.465	314.03
185.684	350.5
185.903	456.59
186.122	353.64
186.341	228.66
186.56	264.98
186.779	365.41
186.998	441.83
187.216	266.72
187.435	220.13
187.654	217.33
187.873	237.32
188.092	289.54
188.311	253.41
188.53	290.9
188.748	278.29
188.967	257.61
189.186	314.95
189.405	372.72
189.623	290.78
189.842	562.97
190.061	-5207.2
190.28	-312.96
190.498	-254.82
190.717	-1512.54
190.936	-555.43
191.154	-405.56
191.373	-394.88
191.592	-2134.86
191.81	454.18
192.029	-1389.34
192.248	2186.59
192.466	774.01
192.685	235.29
192.904	248.14
193.122	232.52
193.341	249.99
193.559	256.78
193.778	195.82
193.996	218.05
194.215	266.11
194.433	222.97
194.652	184.26
194.87	167.15
195.089	230.54
195.307	256.79
195.526	521.03
195.744	343.31
195.963	338.7
196.181	360.72
196.399	234.47
196.618	229.34
196.836	263.78
197.055	248.29
197.273	231.47
197.491	188.67
197.71	188.66
197.928	178.89
198.146	172.92
198.365	154.99
198.583	168.31
198.801	162.63
199.019	139.37
199.238	133.45
199.456	110.73
199.674	125.22
199.892	114.02
200.111	56.81
200.329	79.66
200.547	121.21
200.765	145.96
200.983	140.93
201.202	155.65
201.42	166.4
201.638	175.28
201.856	159.2
202.074	145.61
202.292	142.82
202.51	158.79
202.728	149.4
202.946	155.68
203.165	133.44
203.383	115.42
203.601	127.73
203.819	122.13
204.037	115.97
204.255	125.29
204.473	151.78
204.691	176.8
204.909	182.89
205.127	156.97
205.345	136.68
205.562	147.96
205.78	180.11
205.998	189.41
206.216	189.65
206.434	153.89
206.652	156.26
206.87	145.34
207.088	152.16
207.306	139.18
207.523	150.09
207.741	154.75
207.959	167.32
208.177	150.22
208.395	132.28
208.612	137.51
208.83	149.28
209.048	139.99
209.266	140.48
209.483	128.18
209.701	128.27
209.919	110.3
210.136	136.35
210.354	108.73
210.572	107.91
210.79	101.34
211.007	96.41
211.225	96.73
211.442	114.02
211.66	108.04
211.878	100.06
212.095	103.17
212.313	102.16
212.53	78.13
212.748	98.6
212.966	105.71
213.183	109.42
213.401	111.52
213.618	93.59
213.836	82.14
214.053	76.57
214.271	82.87
214.488	69.53
214.705	82.96
214.923	91.41
215.14	90.53
215.358	90.06
215.575	88.12
215.793	93.88
216.01	96.36
216.227	111.46
216.445	115.52
216.662	115.41
216.879	124.43
217.097	109.28
217.314	112.37
217.531	120.63
217.749	139.28
217.966	148.03
218.183	140.37
218.4	158.45
218.618	141.8
218.835	139.53
219.052	121.86
219.269	125.79
219.487	127.99
219.704	106.48
219.921	78.95
220.138	62.26
220.355	60.43
220.572	68.68
220.79	58.25
221.007	68.16
221.224	72.86
221.441	68.45
221.658	62.6
221.875	65.98
222.092	60.77
222.309	62.11
222.526	62.94
222.743	67.86
222.96	60.07
223.177	58.93
223.394	50.48
223.611	49.86
223.828	52.84
224.045	51.27
224.262	42.67
224.479	40.04
224.696	41.68
224.913	39.38
225.13	38.36
225.347	36.35
225.564	36.35
225.781	33.46
225.997	33.63
226.214	33.17
226.431	29.44
226.648	29.91
226.865	29.6
227.082	28.8
227.298	28.22
227.515	27.06
227.732	26.19
227.949	25.41
228.165	25.91
228.382	23.81
228.599	23.48
228.816	24.77
229.032	24.15
229.249	23.13
229.466	24.51
229.682	25.38
229.899	25.6
230.116	27.27
230.332	27.49
230.549	27.56
230.765	30.89
230.982	30.03
231.199	31.45
231.415	33.49
231.632	34.89
231.848	33.07
232.065	31.69
232.281	31.46
232.498	29.22
232.714	30.22
232.931	29.85
233.147	29.21
233.364	27.27
233.58	27.2
233.797	26.56
234.013	25.98
234.23	24.83
234.446	24.98
234.662	24.4
234.879	26.67
235.095	24.48
235.312	25.29
235.528	23.11
235.744	23.45
235.961	21.66
236.177	21.12
236.393	23.51
236.61	23.41
236.826	22.04
237.042	20.14
237.258	21.87
237.475	22.59
237.691	22.87
237.907	21.91
238.123	22.08
238.339	23.4
238.556	23.37
238.772	21.65
238.988	20.85
239.204	20.7
239.42	21.75
239.636	20.59
239.853	20.34
240.069	19.57
240.285	19.76
240.501	19.17
240.717	17.67
240.933	17.11
241.149	16.78
241.365	17.61
241.581	17.93
241.797	17.87
242.013	17.25
242.229	17.42
242.445	17.31
242.661	16.67
242.877	17.16
243.093	17.56
243.309	17.58
243.525	17.36
243.741	15.29
243.957	14.87
244.173	14.29
244.388	14.37
244.604	13.75
244.82	13.7
245.036	13.88
245.252	13.52
245.468	13.27
245.683	13.62
245.899	13.74
246.115	14.24
246.331	14.01
246.547	14.11
246.762	14.24
246.978	14.31
247.194	14.85
247.409	14.89
247.625	14.72
247.841	15.2
248.057	14.94
248.272	15.35
248.488	15.97
248.703	15.8
248.919	15.41
249.135	14.88
249.35	15.54
249.566	14.85
249.782	15.26
249.997	15.7
250.213	15.45
250.428	15.22
250.644	14.78
250.859	14.25
251.075	15.48
251.29	16.04
251.506	16.06
251.721	16.14
251.937	16.14
252.152	16.23
252.368	17.05
252.583	18.57
252.798	18.88
253.014	19.49
253.229	20.36
253.445	19.92
253.66	20.27
253.875	20.62
254.091	21.29
254.306	21.01
254.521	19.91
254.737	18.63
254.952	16.57
255.167	15.72
255.383	15.5
255.598	14.58
255.813	14.15
256.028	13.34
256.244	12.65
256.459	11.28
256.674	10.66
256.889	10.6
257.104	10.42
257.32	10.8
257.535	10.85
257.75	10.44
257.965	10.34
258.18	9.89
258.395	10.17
258.61	10.07
258.826	10.52
259.041	10.9
259.256	11.2
259.471	11.82
259.686	12.08
259.901	12.44
260.116	12.53
260.331	12.73
260.546	12.9
260.761	12.6
260.976	13.5
261.191	13.51
261.406	13.46
261.621	13.24
261.836	12.69
262.05	12.34
262.265	11.89
262.48	11.81
262.695	10.65
262.91	12.12
263.125	11.51
263.34	11.19
263.555	10.74
263.769	10.5
263.984	10.44
264.199	10.46
264.414	9.73
264.629	10.08
264.843	10.66
265.058	11.08
265.273	10.69
265.488	11.49
265.702	11.55
265.917	11.5
266.132	11.65
266.346	11.98
266.561	12.35
266.776	12.95
266.99	12.99
267.205	12.47
267.42	12.07
267.634	12.32
267.849	11.68
268.063	11.45
268.278	11.91
268.492	11.97
268.707	11.4
268.922	10.55
269.136	9.69
269.351	9.55
269.565	9.74
269.78	9.73
269.994	9.77
270.209	10.24
270.423	10.19
270.637	9.64
270.852	9.77
271.066	10.22
271.281	10.92
271.495	11.09
271.709	10.93
271.924	10.93
272.138	11.25
272.353	10.99
272.567	10.8
272.781	10.62
272.996	10.76
273.21	10.41
273.424	10.24
273.638	9.79
273.853	10.8
274.067	10.93
274.281	11.55
274.495	12.08
274.71	11.77
274.924	11.62
275.138	11.94
275.352	11.54
275.566	11.35
275.781	11.4
275.995	11.86
276.209	11.3
276.423	11.43
276.637	10.18
276.851	9.7
277.065	9.83
277.279	10.37
277.493	10.44
277.707	11.36
277.921	11.86
278.135	10.7
278.349	10.69
278.563	11.15
278.777	10.92
278.991	11.01
279.205	11.3
279.419	11.39
279.633	11.44
279.847	11.53
280.061	11.05
280.275	11.23
280.489	12.01
280.703	11.63
280.917	11.16
281.131	11.29
281.344	11.77
281.558	11.23
281.772	11.37
281.986	11.16
282.2	11.21
282.414	11.15
282.627	10.75
282.841	10.81
283.055	10.97
283.269	11.31
283.482	11.48
283.696	11.22
283.91	11.38
284.123	11.05
284.337	10.82
284.551	10.77
284.764	10.89
284.978	10.88
285.192	11.04
285.405	10.96
285.619	10.85
285.833	10.63
286.046	10.36
286.26	10.72
286.473	10.72
286.687	11.08
286.9	11.04
287.114	10.84
287.327	10.91
287.541	10.52
287.754	10.68
287.968	10.15
288.181	10.01
288.395	11
288.608	10.82
288.822	11
289.035	10.4
289.248	10.39
289.462	10.54
289.675	10.87
289.889	11.19
290.102	11.08
290.315	11.12
290.529	11.77
290.742	11.42
290.955	11.9
291.169	11.67
291.382	12.6
291.595	12.5
291.808	12.9
292.022	12.78
292.235	12.39
292.448	12.5
292.661	12.89
292.875	12.58
293.088	12.59
293.301	12.03
293.514	12.26
293.727	12.01
293.94	12.35
294.153	12.39
294.367	11.89
294.58	12.06
294.793	11.81
295.006	12.07
295.219	12.53
295.432	12.47
295.645	13.05
295.858	13.15
296.071	12.95
296.284	12.64
296.497	12.33
296.71	12.64
296.923	13.02
297.136	12.97
297.349	12.84
297.562	12.45
297.775	12.64
297.988	12.52
298.201	12.52
298.414	12.62
298.626	12.77
298.839	13.22
299.052	13.2
299.265	12.79
299.478	13.45
299.691	13.91
299.903	13.88
300.116	13.89
300.329	13.63
300.542	13.8
300.755	14.39
300.967	14.81
301.18	14.43
301.393	14.56
301.605	14.8
301.818	14.37
302.031	14.52
302.243	14.44
302.456	14.62
302.669	14.3
302.881	14.47
303.094	14.2
303.307	14.11
303.519	14.82
303.732	15.2
303.944	15.23
304.157	15.49
304.37	15.14
304.582	15.72
304.795	15.88
305.007	16.26
305.22	16.34
305.432	16.22
305.645	16.15
305.857	15.69
306.069	15.67
306.282	15.34
306.494	15.85
306.707	15.6
306.919	15.06
307.132	14.78
307.344	15.15
307.556	15.31
307.769	15.48
307.981	15.29
308.193	15.37
308.406	15.04
308.618	15.71
308.83	15.13
309.043	15.11
309.255	15.39
309.467	15.15
309.679	15.13
309.892	15.38
310.104	15.35
310.316	15.64
310.528	15.85
310.74	16.32
310.953	16.08
311.165	16.34
311.377	16.19
311.589	16.47
311.801	17.17
312.013	17.11
312.225	16.83
312.437	17.04
312.649	17.49
312.862	17.23
313.074	16.88
313.286	16.93
313.498	17
313.71	17.8
313.922	17.65
314.134	17.23
314.346	16.91
314.558	17.25
314.77	17.33
314.982	17.31
315.193	17.88
315.405	18.05
315.617	18
315.829	18.56
316.041	18.4
316.253	18.62
316.465	19.49
316.677	19.65
316.888	19.66
317.1	19.94
317.312	19.77
317.524	19.52
317.736	19.97
317.947	20.25
318.159	20.03
318.371	20.27
318.583	20.28
318.794	19.55
319.006	20.28
319.218	20.11
319.43	19.96
319.641	20.49
319.853	20.95
320.064	21.11
320.276	21.37
320.488	21.44
320.699	21.65
320.911	21.85
321.123	22.11
321.334	22.21
321.546	22.37
321.757	22.76
321.969	22.35
322.18	22.35
322.392	21.94
322.603	22.41
322.815	22.74
323.026	23.06
323.238	23.18
323.449	23.24
323.661	23.08
323.872	23.32
324.083	23.34
324.295	24.04
324.506	24.4
324.718	24.97
324.929	25.06
325.14	25.21
325.352	25.23
325.563	25.72
325.774	26.19
325.986	27
326.197	27.2
326.408	27.55
326.62	27.19
326.831	27.65
327.042	27.8
327.253	27.76
327.464	28.12
327.676	28.91
327.887	28.87
328.098	29.34
328.309	29.64
328.52	30
328.732	30.53
328.943	31.35
329.154	31.21
329.365	32.02
329.576	32.42
329.787	33.49
329.998	33.86
330.209	34.51
330.42	35.2
330.631	35.52
330.842	36.23
331.053	36.19
331.264	36.65
331.475	37.38
331.686	38.07
331.897	38.36
332.108	38.41
332.319	38.31
332.53	38.35
332.741	38.25
332.952	38.44
333.163	38.64
333.374	38.93
333.585	39.4
333.795	39.46
334.006	39.37
334.217	39.67
334.428	39.8
334.639	40.02
334.849	40.52
335.06	40.93
335.271	41
335.482	40.57
335.692	41.05
335.903	41.04
336.114	41.15
336.325	41.15
336.535	41.4
336.746	41.6
336.957	41.76
337.167	41.99
337.378	41.65
337.589	42.04
337.799	42.5
338.01	42.67
338.22	42.42
338.431	42.55
338.642	42.87
338.852	42.98
339.063	42.75
339.273	42.58
339.484	42.37
339.694	42.57
339.905	42.3
340.115	42.3
340.326	42.06
340.536	42.27
340.746	42.09
340.957	42.03
341.167	42.06
341.378	41.8
341.588	42.1
341.799	42.16
342.009	41.95
342.219	42.09
342.43	42.13
342.64	42.14
342.85	42.07
343.061	42.1
343.271	42.17
343.481	42.25
343.691	42.12
343.902	41.61
344.112	41.15
344.322	41.46
344.532	40.94
344.743	40.47
344.953	40.47
345.163	40.28
345.373	40.21
345.583	40.02
345.793	40.07
346.004	40.93
346.214	41.17
346.424	41.48
346.634	41.23
346.844	41.8
347.054	42.18
347.264	42.36
347.474	42.47
347.684	42.79
347.894	42.85
348.104	42.77
348.314	42.11
348.524	41.81
348.734	42.05
348.944	42.24
349.154	41.67
349.364	41.52
349.574	40.88
349.784	40.99
349.994	40.86
350.204	40.82
350.413	41.02
350.623	41.31
350.833	41.65
351.043	41.04
351.253	41.11
351.463	40.97
351.672	40.81
351.882	41.47
352.092	41.53
352.302	41.39
352.511	41.32
352.721	40.95
352.931	40.8
353.141	40.97
353.35	41.45
353.56	41.07
353.77	41.17
353.979	41.66
354.189	41.35
354.399	41.47
354.608	41.44
354.818	41.35
355.027	41.23
355.237	41.07
355.447	41
355.656	40.83
355.866	40.93
356.075	41.26
356.285	40.99
356.494	40.83
356.704	40.62
356.913	40.43
357.123	40.53
357.332	40.35
357.542	40.37
357.751	40.17
357.96	40.04
358.17	40.01
358.379	40.08
358.589	40.12
358.798	40.19
359.007	39.92
359.217	40.17
359.426	39.93
359.635	40.08
359.845	40.1
360.054	40.19
360.263	40.09
360.472	40.09
360.682	39.86
360.891	39.8
361.1	39.83
361.309	39.85
361.519	39.89
361.728	40
361.937	39.98
362.146	40.02
362.355	39.71
362.564	40
362.774	40
362.983	39.95
363.192	39.99
363.401	39.68
363.61	39.35
363.819	39.16
364.028	38.73
364.237	38.4
364.446	38.22
364.655	38.09
364.864	37.94
365.073	37.86
365.282	37.92
365.491	37.82
365.7	38.14
365.909	38.36
366.118	38.34
366.327	38.47
366.536	38.77
366.745	38.78
366.954	39.12
367.162	38.91
367.371	38.65
367.58	38.64
367.789	38.33
367.998	37.89
368.207	37.91
368.415	37.59
368.624	37.54
368.833	37.23
369.042	36.86
369.25	36.62
369.459	36.86
369.668	36.67
369.877	36.34
370.085	36.41
370.294	36.55
370.503	36.24
370.711	36.48
370.92	36.25
371.129	36.03
371.337	36.06
371.546	35.82
371.754	35.48
371.963	35.54
372.171	35.5
372.38	35.47
372.589	35.63
372.797	35.83
373.006	35.32
373.214	35.52
373.423	35.59
373.631	35.47
373.84	35.19
374.048	34.88
374.256	34.79
374.465	34.85
374.673	34.77
374.882	34.31
375.09	34.13
375.298	34.03
375.507	33.89
375.715	33.85
375.923	33.91
376.132	34.12
376.34	34.13
376.548	34.13
376.757	33.92
376.965	33.83
377.173	33.81
377.381	33.85
377.59	33.8
377.798	33.62
378.006	33.55
378.214	33.34
378.423	33.18
378.631	33.13
378.839	32.94
379.047	33.05
379.255	32.72
379.463	32.81
379.671	32.35
379.879	32.5
380.088	32.42
380.296	32.13
380.504	32.22
380.712	32.41
380.92	32.32
381.128	32.36
381.336	32.04
381.544	32.16
381.752	31.87
381.96	32.09
382.168	32
382.376	32.04
382.584	32.05
382.791	32
382.999	31.7
383.207	31.72
383.415	31.79
383.623	32.09
383.831	31.88
384.039	32
384.247	32.06
384.454	32.01
384.662	31.89
384.87	31.89
385.078	31.68
385.285	31.62
385.493	31.44
385.701	31.33
385.909	30.96
386.116	31.04
386.324	30.82
386.532	30.64
386.739	30.41
386.947	30.5
387.155	30.74
387.362	30.79
387.57	30.72
387.778	30.76
387.985	30.72
388.193	30.87
388.4	30.75
388.608	30.79
388.816	30.62
389.023	30.63
389.231	30.15
389.438	29.89
389.646	29.79
389.853	29.77
390.061	29.62
390.268	29.46
390.475	29.3
390.683	29.42
390.89	29.39
391.098	29.43
391.305	29.44
391.512	29.65
391.72	29.48
391.927	29.31
392.135	29.24
392.342	29.2
392.549	29.26
392.756	29.16
392.964	29.05
393.171	28.8
393.378	28.54
393.586	28.4
393.793	28.42
394	28.18
394.207	28.2
394.414	28.23
394.622	28.18
394.829	28.15
395.036	28.1
395.243	28.08
395.45	28.31
395.657	28.51
395.864	28.59
396.072	28.41
396.279	28.55
396.486	28.48
396.693	28.52
396.9	28.51
397.107	28.24
397.314	28.48
397.521	28.1
397.728	27.96
397.935	28.09
398.142	28.01
398.349	27.97
398.556	28.09
398.763	27.97
398.97	27.95
399.177	28.18
399.383	28.36
399.59	28.08
399.797	28.17
400.004	28.16
400.211	27.98
400.418	28.15
400.625	28.4
400.831	28.1
401.038	28.16
401.245	28.18
401.452	28.08
401.658	27.9
401.865	27.85
402.072	27.87
402.279	27.91
402.485	27.78
402.692	27.69
402.899	27.37
403.105	27.41
403.312	27.3
403.519	27.09
403.725	26.95
403.932	26.95
404.138	26.89
404.345	26.97
404.552	26.84
404.758	26.93
404.965	26.78
405.171	26.8
405.378	26.96
405.584	26.95
405.791	26.78
405.997	26.88
406.204	26.89
406.41	26.93
406.617	26.78
406.823	26.98
407.029	27.04
407.236	27.23
407.442	27.21
407.649	27.17
407.855	26.9
408.061	26.93
408.268	26.7
408.474	26.45
408.68	26.35
408.887	26.55
409.093	26.21
409.299	26.09
409.505	25.63
409.712	25.57
409.918	25.32
410.124	25.53
410.33	25.39
410.537	25.42
410.743	25.56
410.949	25.56
411.155	25.35
411.361	25.24
411.567	25.2
411.773	25.3
411.98	25.27
412.186	25.32
412.392	25.49
412.598	25.63
412.804	25.65
413.01	25.56
413.216	25.49
413.422	25.61
413.628	25.54
413.834	25.42
414.04	25.37
414.246	25.26
414.452	25.26
414.658	25.19
414.864	25.13
415.07	25.11
415.275	25.04
415.481	24.95
415.687	24.73
415.893	24.83
416.099	24.71
416.305	24.72
416.511	24.77
416.716	24.77
416.922	24.73
417.128	24.75
417.334	24.54
417.539	24.45
417.745	24.39
417.951	24.37
418.157	24.35
418.362	24.27
418.568	24.16
418.774	24.06
418.979	23.92
419.185	23.83
419.391	23.68
419.596	23.64
419.802	23.64
420.008	23.66
420.213	24.15
420.419	24.07
420.624	24.06
420.83	24.03
421.035	23.98
421.241	23.98
421.446	23.98
421.652	24.03
421.857	24.03
422.063	24.05
422.268	23.95
422.474	23.46
422.679	23.37
422.885	23.37
423.09	23.29
423.295	23.23
423.501	23.08
423.706	23
423.911	22.97
424.117	23.03
424.322	22.99
424.527	22.99
424.733	22.85
424.938	22.82
425.143	22.8
425.349	22.84
425.554	22.82
425.759	22.98
425.964	22.92
426.169	22.94
426.375	22.8
426.58	22.82
426.785	22.79
426.99	22.9
427.195	23.01
427.4	23.02
427.605	23.14
427.811	23.25
428.016	23.17
428.221	23.11
428.426	22.94
428.631	22.97
428.836	22.89
429.041	22.96
429.246	22.91
429.451	22.92
429.656	22.96
429.861	22.99
430.066	22.91
430.271	23
430.476	23.16
430.681	23.2
430.886	23.16
431.09	23.17
431.295	23.05
431.5	22.98
431.705	22.96
431.91	22.9
432.115	22.85
432.32	22.85
432.524	22.7
432.729	22.66
432.934	22.63
433.139	22.61
433.343	22.58
433.548	22.62
433.753	22.62
433.958	22.58
434.162	22.48
434.367	22.51
434.572	22.48
434.776	22.53
434.981	22.4
435.186	22.43
435.39	22.54
435.595	22.67
435.799	22.71
436.004	22.8
436.209	22.76
436.413	22.82
436.618	22.63
436.822	22.75
437.027	22.82
437.231	22.86
437.436	22.9
437.64	22.83
437.845	22.69
438.049	22.71
438.253	22.75
438.458	22.76
438.662	22.88
438.867	22.98
439.071	22.97
439.275	22.85
439.48	22.8
439.684	22.78
439.888	22.78
440.093	22.8
440.297	22.73
440.501	22.53
440.706	22.56
440.91	22.48
441.114	22.4
441.318	22.34
441.523	22.36
441.727	22.51
441.931	22.64
442.135	22.63
442.339	22.59
442.543	22.69
442.748	22.79
442.952	22.76
443.156	22.71
443.36	22.78
443.564	22.77
443.768	22.76
443.972	22.65
444.176	22.56
444.38	22.54
444.584	22.45
444.788	22.33
444.992	22.3
445.196	22.28
445.4	22.26
445.604	22.08
445.808	22.06
446.012	22.04
446.216	21.98
446.42	21.84
446.624	21.83
446.828	21.81
447.032	21.81
447.235	21.77
447.439	21.75
447.643	21.7
447.847	21.77
448.051	21.77
448.254	21.8
448.458	21.88
448.662	21.89
448.866	21.88
449.069	21.95
449.273	21.94
449.477	22.05
449.681	22
449.884	22.07
450.088	22.21
450.292	22.14
450.495	22.02
450.699	22.04
450.902	22.06
451.106	22
451.31	21.9
451.513	21.98
451.717	21.83
451.92	21.81
452.124	21.7
452.327	21.65
452.531	21.69
452.734	21.72
452.938	21.59
453.141	21.68
453.345	21.65
453.548	21.67
453.752	21.68
453.955	21.8
454.158	21.8
454.362	21.83
454.565	21.81
454.769	21.82
454.972	21.94
455.175	22.06
455.379	22.04
455.582	22.09
455.785	22.17
455.988	22.18
456.192	22.05
456.395	22.12
456.598	22.15
456.801	22.17
457.005	22.17
457.208	22.13
457.411	22.16
457.614	22.12
457.817	22.09
458.021	22.02
458.224	22.01
458.427	21.97
458.63	21.97
458.833	21.94
459.036	21.89
459.239	21.84
459.442	21.76
459.645	21.67
459.848	21.59
460.051	21.64
460.254	21.74
460.457	21.63
460.66	21.71
460.863	21.65
461.066	21.79
461.269	21.74
461.472	21.9
461.675	21.97
461.878	21.99
462.081	22.18
462.284	22.21
462.486	22.11
462.689	22.16
462.892	22.28
463.095	22.22
463.298	22.18
463.5	22.27
463.703	22.1
463.906	22.18
464.109	22.19
464.311	22.13
464.514	22.14
464.717	22.33
464.92	22.37
465.122	22.38
465.325	22.52
465.528	22.55
465.73	22.6
465.933	22.65
466.135	22.72
466.338	22.75
466.541	22.74
466.743	22.64
466.946	22.57
467.148	22.83
467.351	22.73
467.553	22.79
467.756	22.75
467.958	22.76
468.161	22.86
468.363	22.67
468.566	22.69
468.768	22.72
468.971	22.84
469.173	22.9
469.375	22.61
469.578	22.5
469.78	22.5
469.983	22.56
470.185	22.62
470.387	22.63
470.59	22.91
470.792	22.91
470.994	22.83
471.196	22.83
471.399	22.68
471.601	22.78
471.803	22.96
472.005	22.91
472.208	22.87
472.41	22.73
472.612	22.62
472.814	22.53
473.016	22.64
473.218	22.92
473.421	22.9
473.623	23.06
473.825	22.98
474.027	23
474.229	22.99
474.431	22.94
474.633	23.07
474.835	23.11
475.037	23.09
475.239	22.97
475.441	22.86
475.643	22.95
475.845	22.89
476.047	22.85
476.249	22.79
476.451	22.79
476.653	22.83
476.855	22.8
477.057	22.72
477.258	22.63
477.46	22.62
477.662	22.55
477.864	22.53
478.066	22.41
478.268	22.51
478.469	22.61
478.671	22.63
478.873	22.61
479.075	22.5
479.276	22.51
479.478	22.52
479.68	22.48
479.882	22.46
480.083	22.4
480.285	22.58
480.487	22.67
480.688	22.63
480.89	22.63
481.091	22.68
481.293	22.75
481.495	22.78
481.696	22.79
481.898	22.76
482.099	22.67
482.301	22.62
482.502	22.45
482.704	22.3
482.905	22.17
483.107	22.05
483.308	21.92
483.51	21.78
483.711	21.68
483.913	21.59
484.114	21.54
484.315	21.51
484.517	21.5
484.718	21.55
484.92	21.61
485.121	21.73
485.322	21.87
485.524	21.99
485.725	22.08
485.926	22.11
486.127	22.15
486.329	22.11
486.53	22.12
486.731	22.11
486.932	22.07
487.134	22.02
487.335	21.96
487.536	21.89
487.737	21.83
487.938	21.83
488.139	21.81
488.341	21.82
488.542	21.91
488.743	22
488.944	22.09
489.145	22.23
489.346	22.39
489.547	22.48
489.748	22.5
489.949	22.53
490.15	22.55
490.351	22.61
490.552	22.6
490.753	22.56
490.954	22.46
491.155	22.4
491.356	22.34
491.557	22.31
491.758	22.29
491.959	22.35
492.159	22.31
492.36	22.32
492.561	22.34
492.762	22.4
492.963	22.49
493.164	22.63
493.364	22.72
493.565	22.89
493.766	22.89
493.967	22.96
494.167	23.02
494.368	23.14
494.569	23.28
494.769	23.31
494.97	23.34
495.171	23.42
495.371	23.55
495.572	23.67
495.773	23.7
495.973	23.74
496.174	23.83
496.375	23.87
496.575	23.94
496.776	23.9
496.976	24
497.177	24.04
497.377	24.14
497.578	24.12
497.778	24.11
497.979	24.13
498.179	24.15
498.38	24.17
498.58	24.22
498.78	24.33
498.981	24.5
499.181	24.58
499.382	24.69
499.582	24.66
499.782	24.88
499.983	24.92
500.183	25.09
500.383	25.25
500.584	25.3
500.784	25.48
500.984	25.53
501.184	25.46
501.385	25.44
501.585	25.55
501.785	25.62
501.985	25.63
502.185	25.86
502.386	25.89
502.586	25.89
502.786	26.12
502.986	26.08
503.186	26.25
503.386	26.38
503.586	26.59
503.786	26.63
503.987	26.74
504.187	26.78
504.387	26.8
504.587	26.92
504.787	27.09
504.987	27.13
505.187	27.33
505.387	27.42
505.587	27.59
505.786	27.73
505.986	27.95
506.186	28.1
506.386	28.24
506.586	28.3
506.786	28.33
506.986	28.43
507.186	28.61
507.386	28.79
507.585	28.85
507.785	28.92
507.985	28.94
508.185	29.02
508.384	29.09
508.584	29.2
508.784	29.34
508.984	29.55
509.183	29.73
509.383	29.79
509.583	29.86
509.782	30.02
509.982	30.15
510.182	30.24
510.381	30.39
510.581	30.59
510.781	30.68
510.98	30.81
511.18	30.9
511.379	30.87
511.579	30.94
511.778	30.94
511.978	30.95
512.177	31.1
512.377	31.35
512.576	31.41
512.776	31.52
512.975	31.68
513.175	31.9
513.374	32.01
513.573	32.32
513.773	32.63
513.972	32.84
514.172	33.11
514.371	33.34
514.57	33.5
514.77	33.68
514.969	33.83
515.168	34
515.367	34.12
515.567	34.39
515.766	34.51
515.965	34.65
516.164	34.85
516.364	34.92
516.563	35
516.762	35.03
516.961	35.12
517.16	35.2
517.359	35.27
517.559	35.23
517.758	35.2
517.957	35.24
518.156	35.28
518.355	35.27
518.554	35.37
518.753	35.32
518.952	35.34
519.151	35.39
519.35	35.51
519.549	35.62
519.748	35.84
519.947	35.98
520.146	36.05
520.345	36.16
520.544	36.29
520.743	36.48
520.942	36.7
521.141	36.96
521.339	37.23
521.538	37.41
521.737	37.55
521.936	37.76
522.135	37.96
522.333	38.17
522.532	38.35
522.731	38.63
522.93	38.83
523.129	39.03
523.327	39.1
523.526	39.19
523.725	39.31
523.923	39.44
524.122	39.55
524.321	39.65
524.519	39.77
524.718	39.87
524.917	39.95
525.115	40.03
525.314	40.11
525.512	40.37
525.711	40.55
525.909	40.81
526.108	40.97
526.306	41.13
526.505	41.25
526.703	41.36
526.902	41.38
527.1	41.37
527.299	41.3
527.497	41.22
527.696	41.05
527.894	40.9
528.092	40.71
528.291	40.57
528.489	40.42
528.688	40.26
528.886	40.1
529.084	40.05
529.283	39.99
529.481	40.07
529.679	40.25
529.877	40.47
530.076	40.73
530.274	40.97
530.472	41.29
530.67	41.65
530.869	41.91
531.067	42.16
531.265	42.29
531.463	42.52
531.661	42.57
531.859	42.59
532.057	42.52
532.255	42.41
532.454	42.34
532.652	42.28
532.85	42.12
533.048	42.08
533.246	41.97
533.444	41.98
533.642	41.94
533.84	41.95
534.038	42.04
534.236	42.23
534.434	42.49
534.632	42.63
534.83	42.73
535.027	42.91
535.225	42.96
535.423	43.07
535.621	43.12
535.819	43.02
536.017	42.99
536.215	42.89
536.412	42.84
536.61	42.76
536.808	42.73
537.006	42.73
537.203	42.75
537.401	42.91
537.599	43.07
537.797	43.3
537.994	43.56
538.192	43.93
538.39	44.32
538.587	44.65
538.785	44.88
538.983	45.12
539.18	45.26
539.378	45.32
539.575	45.32
539.773	45.3
539.97	45.12
540.168	45.07
540.366	44.86
540.563	44.64
540.761	44.45
540.958	44.27
541.155	44.12
541.353	43.96
541.55	43.78
541.748	43.71
541.945	43.61
542.143	43.62
542.34	43.54
542.537	43.53
542.735	43.53
542.932	43.61
543.129	43.74
543.327	43.83
543.524	43.95
543.721	44.13
543.919	44.23
544.116	44.31
544.313	44.44
544.51	44.61
544.708	44.72
544.905	44.87
545.102	44.9
545.299	44.92
545.496	44.89
545.693	44.88
545.891	44.83
546.088	44.71
546.285	44.71
546.482	44.58
546.679	44.5
546.876	44.6
547.073	44.65
547.27	44.63
547.467	44.6
547.664	44.67
547.861	44.73
548.058	44.84
548.255	44.97
548.452	45.09
548.649	45.39
548.846	45.45
549.043	45.6
549.24	45.52
549.437	45.67
549.633	45.7
549.83	45.78
550.027	45.82
550.224	45.87
550.421	46.08
550.618	46.17
550.814	46.08
551.011	46.16
551.208	46.12
551.405	46.28
551.601	46.35
551.798	46.42
551.995	46.29
552.191	46.23
552.388	46.08
552.585	45.96
552.781	45.89
552.978	45.79
553.175	45.85
553.371	45.85
553.568	45.71
553.764	45.73
553.961	45.66
554.157	45.78
554.354	45.87
554.55	46.03
554.747	46.04
554.943	45.97
555.14	46.14
555.336	46.08
555.533	46.18
555.729	46.38
555.926	46.13
556.122	46.3
556.318	46.39
556.515	46.45
556.711	46.43
556.907	46.43
557.104	46.52
557.3	46.57
557.496	46.6
557.693	46.56
557.889	46.46
558.085	46.59
558.281	46.67
558.478	46.79
558.674	46.85
558.87	46.96
559.066	47.06
559.262	47.21
559.459	47.25
559.655	47.32
559.851	47.27
560.047	47.4
560.243	47.42
560.439	47.36
560.635	47.35
560.831	47.23
561.027	47.14
561.223	47.18
561.419	47.04
561.615	46.89
561.811	46.97
562.007	47.12
562.203	47.19
562.399	47.28
562.595	47.26
562.791	47.48
562.987	47.79
563.183	47.93
563.379	47.93
563.575	48.09
563.771	48.22
563.966	48.24
564.162	48.27
564.358	48.29
564.554	48.26
564.75	48.34
564.945	48.24
565.141	48.1
565.337	48.11
565.533	48.13
565.728	48.11
565.924	48.12
566.12	48.11
566.315	48.12
566.511	47.95
566.707	48.02
566.902	48.04
567.098	48.1
567.293	48.19
567.489	48.25
567.684	48.32
567.88	48.28
568.076	48.26
568.271	48.26
568.467	48.26
568.662	48.5
568.858	48.6
569.053	48.64
569.248	48.73
569.444	48.62
569.639	48.61
569.835	48.69
570.03	48.81
570.225	48.86
570.421	48.81
570.616	48.88
570.812	48.79
571.007	48.71
571.202	48.78
571.397	48.64
571.593	48.71
571.788	48.67
571.983	48.73
572.178	48.75
572.374	48.86
572.569	48.96
572.764	48.96
572.959	48.97
573.154	49.07
573.35	48.98
573.545	49.1
573.74	49.07
573.935	49.11
574.13	48.95
574.325	48.93
574.52	48.98
574.715	48.89
574.91	48.83
575.105	48.97
575.3	48.99
575.495	49
575.69	48.85
575.885	48.97
576.08	48.95
576.275	48.94
576.47	48.81
576.665	48.74
576.86	48.89
577.055	48.74
577.25	48.75
577.444	48.71
577.639	48.71
577.834	48.79
578.029	48.74
578.224	48.81
578.418	48.88
578.613	49.14
578.808	49.08
579.003	49.21
579.197	49.37
579.392	49.34
579.587	49.38
579.781	49.51
579.976	49.59
580.171	49.6
580.365	49.61
580.56	49.72
580.755	49.64
580.949	49.74
581.144	49.57
581.338	49.63
581.533	49.79
581.727	49.83
581.922	49.85
582.116	49.8
582.311	49.89
582.505	50.08
582.7	50.14
582.894	50.25
583.089	50.25
583.283	50.39
583.478	50.53
583.672	50.39
583.866	50.36
584.061	50.35
584.255	50.56
584.449	50.52
584.644	50.61
584.838	50.67
585.032	50.79
585.226	50.95
585.421	50.88
585.615	50.9
585.809	51.08
586.003	51.15
586.198	51.2
586.392	51.21
586.586	51.37
586.78	51.35
586.974	51.35
587.168	51.31
587.363	51.25
587.557	51.39
587.751	51.41
587.945	51.31
588.139	51.45
588.333	51.54
588.527	51.51
588.721	51.49
588.915	51.51
589.109	51.41
589.303	51.43
589.497	51.51
589.691	51.62
589.885	51.71
590.079	51.66
590.273	51.53
590.466	51.47
590.66	51.52
590.854	51.61
591.048	51.54
591.242	51.67
591.436	51.72
591.629	51.77
591.823	51.72
592.017	51.79
592.211	51.9
592.404	52.11
592.598	52.21
592.792	52.21
592.986	52.2
593.179	52.25
593.373	52.33
593.567	52.44
593.76	52.45
593.954	52.72
594.147	52.87
594.341	52.94
594.535	53.06
594.728	53.1
594.922	53.17
595.115	53.22
595.309	53.23
595.502	53.44
595.696	53.39
595.889	53.37
596.083	53.19
596.276	53.11
596.47	53.17
596.663	53.07
596.856	53.1
597.05	53.04
597.243	53.07
597.437	53.06
597.63	52.95
597.823	52.95
598.017	53.04
598.21	53.09
598.403	52.99
598.596	53.06
598.79	53.17
598.983	53.17
599.176	53.3
599.369	53.45
599.563	53.62
599.756	53.58
599.949	53.64
600.142	53.78
600.335	53.86
600.528	54.03
600.722	54.06
600.915	54.2
601.108	54.45
601.301	54.71
601.494	54.65
601.687	54.86
601.88	54.92
602.073	55.01
602.266	55.07
602.459	55.09
602.652	55.09
602.845	55.12
603.038	54.84
603.231	54.72
603.424	54.65
603.617	54.65
603.809	54.43
604.002	54.35
604.195	54.27
604.388	54.16
604.581	54.07
604.774	53.96
604.966	53.85
605.159	53.96
605.352	53.97
605.545	53.85
605.737	53.89
605.93	54.07
606.123	54.26
606.316	54.36
606.508	54.4
606.701	54.69
606.894	54.71
607.086	54.82
607.279	54.86
607.471	54.83
607.664	54.92
607.857	54.95
608.049	55.05
608.242	54.95
608.434	54.89
608.627	54.87
608.819	54.68
609.012	54.62
609.204	54.66
609.397	54.74
609.589	54.59
609.782	54.53
609.974	54.54
610.166	54.4
610.359	54.32
610.551	54.43
610.743	54.56
610.936	54.68
611.128	54.94
611.32	54.93
611.513	54.9
611.705	55.15
611.897	55.23
612.09	55.18
612.282	55.06
612.474	55.17
612.666	55.08
612.858	55.06
613.051	55.13
613.243	55.02
613.435	55
613.627	54.83
613.819	55
614.011	55.37
614.203	55.31
614.395	55.34
614.588	55.28
614.78	55.33
614.972	55.41
615.164	55.25
615.356	55.27
615.548	55.1
615.74	55.21
615.932	55.11
616.124	54.59
616.315	54.81
616.507	55.05
616.699	55.08
616.891	55.18
617.083	55.25
617.275	55.24
617.467	55.22
617.659	55.5
617.85	55.48
618.042	55.47
618.234	55.49
618.426	55.33
618.618	55.29
618.809	55.22
619.001	55.09
619.193	54.97
619.384	55.02
619.576	54.96
619.768	54.84
619.959	54.92
620.151	55.06
620.343	55.2
620.534	55.14
620.726	55.04
620.917	55.18
621.109	55.15
621.301	55.04
621.492	55.17
621.684	55.49
621.875	55.44
622.067	55.41
622.258	55.14
622.45	55.07
622.641	55.2
622.832	55.36
623.024	55.37
623.215	55.42
623.407	55.56
623.598	55.44
623.789	55.43
623.981	55.63
624.172	55.77
624.363	55.84
624.555	55.9
624.746	55.93
624.937	55.86
625.129	55.98
625.32	55.99
625.511	56.02
625.702	56.09
625.893	55.88
626.085	55.68
626.276	55.58
626.467	55.52
626.658	55.48
626.849	55.36
627.04	55.19
627.231	54.99
627.422	55.03
627.614	54.95
627.805	54.87
627.996	54.99
628.187	55.08
628.378	55.12
628.569	55.2
628.76	55.38
628.951	55.33
629.142	55.52
629.332	55.49
629.523	55.4
629.714	55.44
629.905	55.49
630.096	55.38
630.287	55.31
630.478	55.15
630.669	55.21
630.859	55.14
631.05	55.18
631.241	55.16
631.432	55.28
631.623	55.34
631.813	55.23
632.004	55.22
632.195	55.36
632.385	55.51
632.576	55.78
632.767	55.79
632.957	55.83
633.148	55.95
633.339	56.1
633.529	55.92
633.72	55.89
633.91	55.89
634.101	55.87
634.292	55.88
634.482	55.68
634.673	55.68
634.863	55.68
635.054	55.6
635.244	55.57
635.435	55.5
635.625	55.58
635.815	55.59
636.006	55.59
636.196	55.63
636.387	55.31
636.577	55.48
636.767	55.4
636.958	55.15
637.148	55.32
637.338	55.41
637.529	55.46
637.719	55.64
637.909	55.6
638.099	55.79
638.29	55.86
638.48	56.33
638.67	56.38
638.86	56.48
639.05	56.76
639.241	56.4
639.431	56.42
639.621	56.4
639.811	56.2
640.001	56.08
640.191	56.09
640.381	55.71
640.571	55.56
640.761	55.41
640.951	55.16
641.141	55.13
641.331	55.34
641.521	55.28
641.711	55.23
641.901	55.18
642.091	55.45
642.281	55.2
642.471	55.61
642.661	55.59
642.851	55.89
643.041	56.15
643.231	55.95
643.42	56.06
643.61	55.79
643.8	55.7
643.99	55.84
644.18	55.96
644.369	55.93
644.559	55.97
644.749	56.03
644.939	55.91
645.128	55.53
645.318	55.99
645.508	56.24
645.697	56.56
645.887	56.4
646.076	56.41
646.266	56.11
646.456	56.26
646.645	56.51
646.835	56.66
647.024	56.7
647.214	56.85
647.403	56.55
647.593	56.33
647.782	56.45
647.972	56.65
648.161	56.7
648.351	56.91
648.54	56.97
648.73	56.68
648.919	56.44
649.108	56.14
649.298	56.53
649.487	56.7
649.677	56.61
649.866	56.58
650.055	56.65
650.244	56.72
650.434	56.62
650.623	56.68
650.812	56.74
651.002	56.97
651.191	57.21
651.38	56.9
651.569	56.7
651.758	56.41
651.947	56.16
652.137	56.18
652.326	56.23
652.515	56.18
652.704	56.39
652.893	56.35
653.082	56.04
653.271	55.8
653.46	55.66
653.649	55.87
653.838	56.18
654.027	56.31
654.216	56.01
654.405	56.1
654.594	56.06
654.783	55.76
654.972	55.95
655.161	56.2
655.35	56.73
655.539	57.11
655.728	57.13
655.916	57.31
656.105	57.42
656.294	57.94
656.483	57.81
656.672	57.95
656.86	58.19
657.049	58
657.238	58.16
657.427	57.93
657.615	57.84
657.804	57.88
657.993	57.69
658.181	57.64
658.37	57.52
658.559	57.41
658.747	57.21
658.936	57.11
659.125	56.58
659.313	56.5
659.502	56.61
659.69	56.45
659.879	56.36
660.067	56.23
660.256	56.13
660.444	56.01
660.633	56.08
660.821	56.12
661.01	56.03
661.198	56.8
661.387	56.89
661.575	56.71
661.763	57.03
661.952	56.91
662.14	56.99
662.328	57.2
662.517	57.3
662.705	57.22
662.893	57.28
663.082	57.3
663.27	57.12
663.458	56.79
663.646	56.91
663.834	56.72
664.023	56.6
664.211	56.78
664.399	56.52
664.587	56.45
664.775	56.4
664.963	56.54
665.152	56.59
665.34	56.67
665.528	56.61
665.716	56.41
665.904	56.61
666.092	56.69
666.28	56.53
666.468	56.68
666.656	56.61
666.844	56.87
667.032	57.11
667.22	56.88
667.408	56.8
667.596	56.78
667.784	56.8
667.971	56.65
668.159	56.78
668.347	56.92
668.535	56.98
668.723	56.93
668.911	57
669.098	56.61
669.286	56.86
669.474	56.98
669.662	57.32
669.849	57.3
670.037	57.37
670.225	57.56
670.413	57.56
670.6	57.35
670.788	57.19
670.976	57.1
671.163	57.16
671.351	56.86
671.538	56.81
671.726	56.48
671.913	56.47
672.101	56.59
672.289	56.35
672.476	56.12
672.664	56.43
672.851	56.54
673.039	56.57
673.226	56.68
673.413	56.96
673.601	57.01
673.788	56.93
673.976	57.16
674.163	57.1
674.35	56.94
674.538	56.98
674.725	56.66
674.912	56.78
675.1	56.77
675.287	56.93
675.474	56.78
675.662	56.66
675.849	56.92
676.036	56.72
676.223	56.58
676.411	56.77
676.598	56.93
676.785	57.31
676.972	57.73
677.159	57.56
677.346	57.71
677.533	57.98
677.721	57.82
677.908	57.84
678.095	57.98
678.282	58.11
678.469	58.04
678.656	58.08
678.843	57.96
679.03	57.62
679.217	57.92
679.404	57.74
679.591	57.58
679.778	57.66
679.964	57.58
680.151	57.35
680.338	57.1
680.525	57.24
680.712	57.02
680.899	56.9
681.086	56.87
681.272	56.46
681.459	56.3
681.646	56.34
681.833	56.41
682.02	56.35
682.206	56.62
682.393	56.4
682.58	56.55
682.766	57.04
682.953	57.1
683.14	57.03
683.326	57.75
683.513	57.93
683.7	57.81
683.886	57.78
684.073	57.7
684.259	57.55
684.446	58.16
684.632	57.85
684.819	57.55
685.005	57.1
685.192	57.37
685.378	57.04
685.565	57.06
685.751	57.27
685.938	57.31
686.124	57.71
686.31	57.58
686.497	57.62
686.683	57.75
686.87	57.49
687.056	57.75
687.242	57.57
687.429	57.33
687.615	56.98
687.801	56.69
687.987	57.17
688.174	56.91
688.36	57.35
688.546	57.1
688.732	56.77
688.918	56.82
689.105	56.97
689.291	56.96
689.477	56.97
689.663	57.3
689.849	57.57
690.035	57.21
690.221	57.19
690.407	57.21
690.593	56.92
690.779	57.01
690.965	56.97
691.151	56.98
691.337	56.91
691.523	56.78
691.709	56.7
691.895	56.71
692.081	56.38
692.267	56.7
692.453	56.74
692.639	56.78
692.825	56.88
693.011	57.06
693.196	57.03
693.382	57.47
693.568	57.36
693.754	57.77
693.94	57.77
694.125	58.21
694.311	58.17
694.497	57.92
694.682	58.59
694.868	58.64
695.054	58.76
695.239	58.84
695.425	58.45
695.611	58.83
695.796	58.67
695.982	58.73
696.168	58.53
696.353	58.37
696.539	58.29
696.724	58.03
696.91	58.13
697.095	58.28
697.281	58.08
697.466	58.12
697.652	58.2
697.837	58.13
698.023	57.89
698.208	57.64
698.393	57.5
698.579	57.28
698.764	57.09
698.949	56.97
699.135	56.63
699.32	56.78
699.505	56.79
699.691	56.51
699.876	56.57
700.061	56.52
700.246	56.56
700.432	56.5
700.617	56.88
700.802	57.03
700.987	56.87
701.172	56.88
701.358	56.78
701.543	56.82
701.728	56.39
701.913	55.89
702.098	56.18
702.283	56.35
702.468	56.48
702.653	56.45
702.838	56.43
703.023	56.61
703.208	56.82
703.393	56.76
703.578	56.76
703.763	57.34
703.948	57.75
704.133	57.38
704.318	57.5
704.503	58.06
704.688	58.03
704.873	57.89
705.057	57.93
705.242	57.62
705.427	57.31
705.612	57.2
705.797	57.01
705.981	56.9
706.166	57.34
706.351	57.66
706.536	57.31
706.72	57.03
706.905	57.67
707.09	57.87
707.274	58.2
707.459	58.62
707.644	59.01
707.828	58.98
708.013	58.53
708.197	58.38
708.382	58.36
708.567	58.07
708.751	58.36
708.936	57.84
709.12	57.7
709.305	57.49
709.489	57.4
709.673	57.12
709.858	57.33
710.042	57.44
710.227	57.39
710.411	57.08
710.596	57.28
710.78	57.08
710.964	57.08
711.149	57.27
711.333	57.27
711.517	57.2
711.702	57.17
711.886	56.83
712.07	56.66
712.254	56.58
712.438	56.74
712.623	56.81
712.807	57.07
712.991	57.18
713.175	57.07
713.359	57.26
713.544	57.26
713.728	57.22
713.912	57.65
714.096	57.89
714.28	57.99
714.464	57.87
714.648	57.76
714.832	57.62
715.016	57.64
715.2	57.32
715.384	57.63
715.568	57.72
715.752	57.41
715.936	57.22
716.12	57.31
716.304	57.26
716.488	56.97
716.671	56.9
716.855	57.29
717.039	56.98
717.223	57.24
717.407	57.36
717.59	57.58
717.774	57.94
717.958	57.81
718.142	57.91
718.325	57.93
718.509	58.32
718.693	58.57
718.877	58.01
719.06	58.16
719.244	58.37
719.428	57.86
719.611	57.79
719.795	58.09
719.978	58.27
720.162	58.27
720.345	58.19
720.529	58.4
720.713	58.31
720.896	58.77
721.08	58.58
721.263	58.29
721.446	58.09
721.63	57.89
721.813	57.5
721.997	57.46
722.18	57.25
722.364	57.52
722.547	57.47
722.73	57.52
722.914	57.33
723.097	57.38
723.28	57.44
723.464	57.51
723.647	57.38
723.83	57.15
724.013	57.02
724.197	57.09
724.38	56.59
724.563	56.66
724.746	57.01
724.929	56.94
725.112	57.33
725.296	57.11
725.479	57.04
725.662	57.11
725.845	57.98
726.028	58.22
726.211	58.5
726.394	59.02
726.577	58.41
726.76	58
726.943	57.98
727.126	57.65
727.309	58.22
727.492	58.63
727.675	58.48
727.858	58.1
728.041	58.31
728.224	58.51
728.407	58.22
728.589	58.56
728.772	58.19
728.955	58.36
729.138	58.03
729.321	57.29
729.503	57.65
729.686	57.99
729.869	57.73
730.052	57.76
730.234	57.69
730.417	57.97
730.6	57.84
730.782	58.35
730.965	58.07
731.148	58.71
731.33	59.33
731.513	59.03
731.695	58.86
731.878	58.92
732.061	58.7
732.243	58.44
732.426	58.5
732.608	59.02
732.791	59.18
732.973	59.69
733.156	59.81
733.338	59.31
733.52	58.61
733.703	58.82
733.885	58.7
734.068	58.78
734.25	58.98
734.432	58.03
734.615	57.49
734.797	57.11
734.979	56.38
735.162	56.35
735.344	56.49
735.526	56.93
735.708	56.58
735.891	57.06
736.073	56.96
736.255	56.4
736.437	56.81
736.619	56.91
736.802	56.61
736.984	56.9
737.166	57.22
737.348	57.3
737.53	57.47
737.712	57.68
737.894	57.78
738.076	57.61
738.258	58.19
738.44	58.56
738.622	58.21
738.804	58.56
738.986	58.67
739.168	57.62
739.35	57.55
739.532	57.4
739.714	57.71
739.896	57.08
740.078	57.43
740.259	56.89
740.441	56.92
740.623	56.36
740.805	56.89
740.987	56.3
741.168	56.78
741.35	56.92
741.532	56.8
741.714	55.95
741.895	55.92
742.077	55.91
742.259	56.27
742.44	56.43
742.622	57.44
742.804	56.88
742.985	57.51
743.167	57.05
743.348	56.64
743.53	57.48
743.711	57.94
743.893	58.4
744.075	57.98
744.256	57.26
744.438	57.31
744.619	57.26
744.8	56.98
744.982	56.18
745.163	56.62
745.345	56.61
745.526	56.71
745.707	57.47
745.889	57.45
746.07	57.62
746.252	58.46
746.433	58.02
746.614	58.41
746.795	58.99
746.977	59.71
747.158	59.77
747.339	60.45
747.52	59.64
747.702	58.63
747.883	58.89
748.064	58.77
748.245	59.12
748.426	59.42
748.607	59.29
748.788	59.37
748.97	59.7
749.151	60.43
749.332	60.82
749.513	61.12
749.694	61.52
749.875	61.28
750.056	60.99
750.237	60.44
750.418	60.31
750.599	59.55
750.78	59.12
750.96	58.62
751.141	58.02
751.322	57.33
751.503	57.2
751.684	56.62
751.865	56.63
752.046	57.64
752.226	57.42
752.407	57.15
752.588	56.71
752.769	56.83
752.949	56.87
753.13	57.78
753.311	58.34
753.492	58.04
753.672	59.3
753.853	59.28
754.034	58.57
754.214	58.94
754.395	59
754.575	59.78
754.756	58.98
754.937	58.76
755.117	57.91
755.298	57.31
755.478	57.54
755.659	57.42
755.839	57.75
756.02	58.2
756.2	57.64
756.381	57.68
756.561	57.75
756.741	58.8
756.922	58.26
757.102	57.49
757.283	58.04
757.463	57.6
757.643	56.82
757.823	56.3
758.004	55.77
758.184	56.1
758.364	56.95
758.545	57.47
758.725	57.4
758.905	58.53
759.085	58.88
759.265	58.16
759.446	58.35
759.626	58.31
759.806	58.35
759.986	58.37
760.166	58.36
760.346	57.96
760.526	58.14
760.706	58.18
760.886	58.09
761.066	58.57
761.246	59.36
761.426	58.87
761.606	59.02
761.786	59.3
761.966	59.31
762.146	59.29
762.326	58.87
762.506	58.66
762.686	58.35
762.866	58.04
763.046	57.85
763.225	57.67
763.405	58.08
763.585	58.23
763.765	57.84
763.945	57.38
764.124	57.17
764.304	57.26
764.484	57.34
764.664	57.02
764.843	57.48
765.023	58.06
765.203	57.84
765.382	57.51
765.562	57.35
765.741	57.43
765.921	58.43
766.101	58.87
766.28	58.93
766.46	58.31
766.639	58.74
766.819	58.16
766.998	57.84
767.178	58
767.357	57.81
767.537	57.7
767.716	57.32
767.896	56.66
768.075	56.5
768.254	56.02
768.434	56.57
768.613	57.25
768.792	57.53
768.972	57.3
769.151	56.7
769.33	57.27
769.51	57.93
769.689	58.21
769.868	58.93
770.047	59.97
770.226	60.74
770.406	60.1
770.585	59.48
770.764	59.35
770.943	59.57
771.122	59.63
771.301	59.98
771.48	59.74
771.66	59.73
771.839	58.99
772.018	58.44
772.197	57.98
772.376	58.52
772.555	58.72
772.734	58.62
772.913	58.27
773.092	58.38
773.271	57.7
773.449	57.67
773.628	57.76
773.807	58.74
773.986	58.03
774.165	58.27
774.344	58.11
774.523	57.82
774.701	58.56
774.88	58.52
775.059	58.56
775.238	58.99
775.417	58.7
775.595	59.31
775.774	59.54
775.953	60.1
776.131	60.29
776.31	60.18
776.489	60.61
776.667	59.64
776.846	58.81
777.025	58.77
777.203	59.41
777.382	60.73
777.56	60.35
777.739	58.94
777.917	59.55
778.096	59.33
778.274	59.66
778.453	59.3
778.631	60.77
778.81	61.25
778.988	62.14
779.166	62.66
779.345	61.95
779.523	61.49
779.702	61.84
779.88	60.9
780.058	60.87
780.237	60.72
780.415	60.64
780.593	59.92
780.771	59.67
780.95	59.51
781.128	57.95
781.306	57.37
781.484	58.12
781.662	57.08
781.841	57.46
782.019	57.76
782.197	57.69
782.375	57.32
782.553	57.31
782.731	57.53
782.909	57.31
783.087	57.81
783.265	58.08
783.443	57.47
783.621	58.44
783.799	58.47
783.977	59.34
784.155	59.09
784.333	60.3
784.511	59.08
784.689	58.89
784.867	59.64
785.045	59.41
785.223	58.89
785.4	59.71
785.578	59.64
785.756	59.72
785.934	58.14
786.112	59.42
786.289	58.47
786.467	59.75
786.645	60.25
786.823	57.8
787	56.89
787.178	57.14
787.356	56.95
787.533	57.81
787.711	57.32
787.889	57.78
788.066	57.15
788.244	57.35
788.421	56.56
788.599	56.1
788.776	57.71
788.954	58.34
789.131	57.8
789.309	57.88
789.486	57.4
789.664	58.05
789.841	58.58
790.019	58.51
790.196	58.71
790.373	58.83
790.551	60.22
790.728	59.48
790.906	60.33
791.083	59.88
791.26	59.43
791.437	59.7
791.615	59.56
791.792	59
791.969	59.24
792.146	59.15
792.324	59.77
792.501	58.81
792.678	59.86
792.855	59.37
793.032	61.18
793.209	62.1
793.387	62.39
793.564	62.3
793.741	63.09
793.918	63.39
794.095	64.01
794.272	63.4
794.449	63.67
794.626	63.54
794.803	63.82
794.98	62.96
795.157	62.64
795.334	61.17
795.511	60.8
795.688	59.22
795.864	58.34
796.041	57.46
796.218	58.8
796.395	58.33
796.572	58.61
796.749	57.89
796.925	56.99
797.102	56.99
797.279	58.21
797.456	58.39
797.632	58.84
797.809	58.64
797.986	59.32
798.162	58.41
798.339	58.79
798.516	57.52
798.692	58.27
798.869	58.82
799.046	58.47
799.222	57.19
799.399	57.11
799.575	57.74
799.752	58.11
799.928	56.98
800.105	57.41
800.281	57.08
800.458	57.39
800.634	56.79
800.811	57.81
800.987	58.5
801.163	59.4
801.34	60.26
801.516	60.12
801.692	60.58
801.869	61.2
802.045	60.43
802.221	60.47
802.398	60.99
802.574	62.58
802.75	62.42
802.926	62.02
803.103	61.9
803.279	61.02
803.455	61.09
803.631	60.92
803.807	61.28
803.983	61.24
804.16	61.45
804.336	61.21
804.512	60.14
804.688	60.37
804.864	60.19
805.04	59.86
805.216	59.58
805.392	59.26
805.568	60.06
805.744	61.23
805.92	62.17
806.096	62.66
806.272	62.54
806.448	61.96
806.623	62.06
806.799	61.9
806.975	62.33
807.151	62.78
807.327	62.74
807.503	62.42
807.678	61.72
807.854	61.09
808.03	60.81
808.206	61.64
808.381	61.97
808.557	61.66
808.733	62.43
808.908	61.71
809.084	62.74
809.26	64.04
809.435	62.32
809.611	61.79
809.787	61.12
809.962	60.33
810.138	60.39
810.313	61.22
810.489	61.37
810.664	60.77
810.84	60.38
811.015	59.52
811.191	57.27
811.366	57.04
811.542	56.66
811.717	58.39
811.892	59.82
812.068	60.13
812.243	60.03
812.419	60.32
812.594	59.98
812.769	61.84
812.944	60.77
813.12	61.16
813.295	62.41
813.47	62.57
813.645	62.17
813.821	61.08
813.996	61.3
814.171	60.33
814.346	61.11
814.521	61.04
814.697	60.96
814.872	62.15
815.047	63.05
815.222	63.5
815.397	62.51
815.572	61.25
815.747	61.11
815.922	60.5
816.097	61.05
816.272	59.17
816.447	59.67
816.622	59.6
816.797	61.18
816.972	61.65
817.147	61.35
817.322	61.52
817.496	60.95
817.671	61.38
817.846	60.51
818.021	59.81
818.196	60.26
818.371	59.92
818.545	58.98
818.72	58.14
818.895	58.06
819.069	57.47
819.244	58.64
819.419	59.35
819.594	58.64
819.768	58.72
819.943	59.41
820.117	59.12
820.292	58.91
820.467	58.96
820.641	58.84
820.816	58.77
820.99	58.99
821.165	58.37
821.339	58.38
821.514	58.57
821.688	58.5
821.863	58.08
822.037	57.78
822.212	57.68
822.386	57.17
822.56	56.62
822.735	56.16
822.909	55.83
823.084	55.62
823.258	55.04
823.432	54.57
823.606	54.12
823.781	53.81
823.955	53.75
824.129	53.61
824.303	53.76
824.478	53.87
824.652	53.83
824.826	53.41
825	53.56
825.174	53.82
825.348	53.56
825.523	53.97
825.697	54.27
825.871	54.45
826.045	54.18
826.219	54.89
826.393	55
826.567	55.14
826.741	55.75
826.915	55.54
827.089	55.93
827.263	56.08
827.437	55.57
827.611	55.76
827.784	54.98
827.958	55.46
828.132	54.56
828.306	54.3
828.48	54.28
828.654	53.63
828.827	53.09
829.001	53.03
829.175	53.72
829.349	54.28
829.522	53.67
829.696	54.78
829.87	54.41
830.044	56
830.217	56.35
830.391	57.26
830.565	59.03
830.738	60
830.912	60.42
831.085	61.38
831.259	61.78
831.432	61.9
831.606	62.63
831.779	62.2
831.953	60.46
832.126	59.57
832.3	59.68
832.473	58.66
832.647	58.47
832.82	58.03
832.994	56.21
833.167	56.24
833.34	56.39
833.514	55.99
833.687	56.23
833.86	57.06
834.034	57.61
834.207	57.38
834.38	57.37
834.553	57.71
834.727	57.49
834.9	58.16
835.073	57.57
835.246	56.62
835.419	56.83
835.593	57.05
835.766	56.44
835.939	56.27
836.112	56.43
836.285	56.09
836.458	56.35
836.631	55.71
836.804	55.63
836.977	55.65
837.15	57.84
837.323	56.58
837.496	56.78
837.669	56.24
837.842	56.58
838.015	56.1
838.188	55.92
838.361	54.34
838.533	56.25
838.706	56.31
838.879	55.57
839.052	54.61
839.225	56.62
839.398	55.79
839.57	57.69
839.743	58.02
839.916	58.17
840.088	61.42
840.261	61.22
840.434	60.25
840.607	60.26
840.779	62.03
840.952	61.82
841.124	60.81
841.297	60.87
841.47	60.4
841.642	61.06
841.815	61.26
841.987	58.07
842.16	59.25
842.332	58.03
842.505	57.81
842.677	57.71
842.85	59.34
843.022	59.78
843.194	60.48
843.367	58.5
843.539	57.12
843.712	55.87
843.884	57.35
844.056	59.48
844.229	61.63
844.401	62.42
844.573	62.07
844.745	62.55
844.918	63.73
845.09	64.5
845.262	67.76
845.434	71.39
845.606	74.07
845.779	75.44
845.951	73.66
846.123	72.66
846.295	71.25
846.467	70.72
846.639	70.83
846.811	73.71
846.983	71.47
847.155	70.45
847.327	68.67
847.499	67.31
847.671	66.21
847.843	66.8
848.015	65.5
848.187	67.79
848.359	69.54
848.531	68.66
848.703	64.8
848.875	65.14
849.047	64.2
849.218	62.82
849.39	60.44
849.562	58.36
849.734	57
849.905	62.29
850.077	65.21
850.249	63.15
850.421	62.19
850.592	61.41
850.764	64.4
850.936	66.48
851.107	67.81
851.279	71.89
851.451	74.98
851.622	74.91
851.794	74.8
851.965	73.36
852.137	72.94
852.308	73.44
852.48	72.32
852.651	69.05
852.823	67.71
852.994	64.15
853.166	63.32
853.337	61.56
853.509	62.35
853.68	62.31
853.851	63.59
854.023	64.12
854.194	66.03
854.365	68.08
854.537	65.58
854.708	68.37
854.879	72.51
855.05	73.05
855.222	75.14
855.393	77.61
855.564	73.45
855.735	72.93
855.906	73.8
856.078	70.09
856.249	72.84
856.42	78.04
856.591	74.11
856.762	74.71
856.933	74.32
857.104	71.05
857.275	73.1
857.446	74.75
857.617	75.65
857.788	77.34
857.959	77.84
858.13	77.98
858.301	80.86
858.472	79.34
858.643	76.92
858.814	78.56
858.985	79.2
859.155	74.88
859.326	73.39
859.497	70.4
859.668	68.92
859.839	69.55
860.009	64.94
860.18	58.52
860.351	58.54
860.522	58.47
860.692	55.83
860.863	55.52
861.034	59.82
861.204	62.5
861.375	65.4
861.546	68
861.716	73.79
861.887	76.25
862.057	75.61
862.228	77.28
862.398	80.14
862.569	79.97
862.739	84.12
862.91	78.81
863.08	76.77
863.251	76.4
863.421	72.94
863.592	69.27
863.762	69.16
863.932	70.91
864.103	71.44
864.273	73.3
864.443	74.23
864.614	71.07
864.784	73.83
864.954	76.92
865.125	77.13
865.295	78.58
865.465	75.13
865.635	75.55
865.805	79.68
865.976	80.07
866.146	76.29
866.316	72.52
866.486	74.13
866.656	75.89
866.826	72.56
866.996	73.62
867.166	74.39
867.336	75.87
867.506	73.08
867.676	69.52
867.846	66.33
868.016	63.75
868.186	67.51
868.356	65.05
868.526	58.65
868.696	62.06
868.866	61.83
869.036	60.66
869.206	56.9
869.376	58.63
869.545	60.66
869.715	63.84
869.885	63.05
870.055	63.69
870.224	70.51
870.394	72.57
870.564	73.56
870.734	70.8
870.903	67.53
871.073	71.54
871.243	74.61
871.412	70.89
871.582	69.44
871.751	74.67
871.921	74.06
872.091	68.81
872.26	68.63
872.43	63.93
872.599	62.51
872.769	63.92
872.938	66.22
873.108	67.14
873.277	69.44
873.446	69.5
873.616	69.68
873.785	73.65
873.955	69.46
874.124	70.99
874.293	69.2
874.463	70.99
874.632	73.3
874.801	71.19
874.971	69.03
875.14	72.78
875.309	72.93
875.478	71.5
875.647	64.7
875.817	68.91
875.986	71.25
876.155	77.02
876.324	77.07
876.493	74.26
876.662	73.78
876.831	73.03
877	68.21
877.17	69.22
877.339	71.55
877.508	70.89
877.677	71.31
877.846	69.41
878.015	67.2
878.184	65.82
878.352	64.35
878.521	65.47
878.69	67.14
878.859	69.03
879.028	67.71
879.197	64.04
879.366	64.87
879.534	64.35
879.703	62.31
879.872	62.36
880.041	61.01
880.21	61.61
880.378	60.9
880.547	58.54
880.716	57.51
880.884	57.21
881.053	57.14
881.222	57
881.39	55.92
881.559	55.53
881.727	54.52
881.896	53.98
882.065	54.13
882.233	52.74
882.402	53.27
882.57	52.3
882.739	52.3
882.907	52.24
883.076	51.75
883.244	51.39
883.412	51.57
883.581	51.9
883.749	52.08
883.918	51.99
884.086	53.03
884.254	53.18
884.423	53.68
884.591	54.86
884.759	53.92
884.927	53.94
885.096	53.48
885.264	53.9
885.432	53.9
885.6	55.18
885.769	53.83
885.937	53.1
886.105	53.67
886.273	56.02
886.441	53.71
886.609	56.54
886.777	57.43
886.945	58.99
887.113	59.43
887.281	58.41
887.449	55.36
887.617	57.06
887.785	59.87
887.953	59.39
888.121	59.42
888.289	58.19
888.457	56.91
888.625	55.14
888.793	55.76
888.961	53.16
889.129	56.65
889.296	59.11
889.464	59.75
889.632	58.2
889.8	55.55
889.967	50.37
890.135	51.67
