Data from 2938487_Reflection_3.txt Node
Date: Wed Jun 17 00:55:31 EDT 2015
User: robert
Spectrometer: USB4E03002
Autoset integration time: false
Trigger mode: 4
Integration Time (sec): 1.000000E-1
Scans to average: 10
Electric dark correction enabled: true
Nonlinearity correction enabled: false
Boxcar width: 5
Stray light correction enabled: false
XAxis mode: Wavelengths
Stop averaging: false
Number of Pixels in Spectrum: 3648
>>>>>Begin Spectral Data<<<<<
177.575	-189.67
177.794	544.98
178.014	-9.15
178.233	-33.35
178.452	-24.93
178.672	28.71
178.891	27.91
179.11	98.48
179.33	118.62
179.549	155.9
179.768	52.89
179.987	103.55
180.207	85.66
180.426	156.78
180.645	203.42
180.864	446.56
181.084	134.55
181.303	117.49
181.522	92.81
181.741	92.47
181.96	120.08
182.179	971.29
182.398	-2773.33
182.618	-224.56
182.837	-173.63
183.056	-145.84
183.275	-137.77
183.494	-103.55
183.713	-664.44
183.932	-250.24
184.151	158.34
184.37	657.56
184.589	3259.15
184.808	128.12
185.027	134.91
185.246	-1067.86
185.465	173.8
185.684	-11.55
185.903	28.42
186.122	22.41
186.341	21.25
186.56	28.91
186.779	46.17
186.998	27.9
187.216	14.78
187.435	-52.62
187.654	479.07
187.873	-279.82
188.092	-525.17
188.311	2860
188.53	-331.49
188.748	-65.32
188.967	-217.17
189.186	-184.35
189.405	-0
189.623	123.36
189.842	-30.09
190.061	353.77
190.28	-29.7
190.498	205.86
190.717	136.79
190.936	-52.65
191.154	-79.12
191.373	-131.23
191.592	-208
191.81	54.1
192.029	-3.69
192.248	-63.73
192.466	-63.54
192.685	-14.49
192.904	-2191.13
193.122	-378.88
193.341	120.55
193.559	115.69
193.778	184.25
193.996	202.97
194.215	129.89
194.433	109.54
194.652	80.34
194.87	82.99
195.089	114.71
195.307	225.38
195.526	-572.75
195.744	-82.45
195.963	-16.34
196.181	-93.14
196.399	2.4
196.618	-60.74
196.836	-40.88
197.055	-73.29
197.273	-53.09
197.491	-15.49
197.71	-94.31
197.928	-264.29
198.146	1130.82
198.365	542.94
198.583	947.51
198.801	-662.58
199.019	-351.54
199.238	626.63
199.456	-4838.89
199.674	-776.45
199.892	194.18
200.111	123.36
200.329	87.03
200.547	238.29
200.765	98.84
200.983	164.39
201.202	30.41
201.42	105.13
201.638	-2315.63
201.856	96.82
202.074	113.58
202.292	119.04
202.51	144.81
202.728	-246.27
202.946	130
203.165	-635.68
203.383	33.69
203.601	-47.35
203.819	58.11
204.037	117.71
204.255	-106.23
204.473	47.57
204.691	40.3
204.909	30.66
205.127	-47.65
205.345	258.98
205.562	1340.07
205.78	135.63
205.998	429.44
206.216	838.79
206.434	277.98
206.652	265.55
206.87	143.56
207.088	137.98
207.306	223.82
207.523	266.51
207.741	-571.27
207.959	437.48
208.177	-1381.25
208.395	-1938.25
208.612	2235.51
208.83	-147.2
209.048	-34.23
209.266	-49.06
209.483	-25.97
209.701	-68.66
209.919	-16.47
210.136	-90.63
210.354	-31.58
210.572	16.95
210.79	9.87
211.007	-11.72
211.225	3.31
211.442	-28.65
211.66	-13.45
211.878	-33.53
212.095	58.81
212.313	50.54
212.53	50.83
212.748	43.54
212.966	40.61
213.183	41.92
213.401	48.61
213.618	31
213.836	42.12
214.053	35.32
214.271	59.11
214.488	-44.91
214.705	-47.2
214.923	-26.83
215.14	-9.85
215.358	-44.3
215.575	-65.11
215.793	-89.99
216.01	-47.85
216.227	-61.13
216.445	-48.49
216.662	-67.65
216.879	-60.34
217.097	-50.31
217.314	-36.68
217.531	-37.4
217.749	-30.26
217.966	-8.99
218.183	16.32
218.4	-8.69
218.618	15.54
218.835	27.91
219.052	31.23
219.269	24.26
219.487	20.08
219.704	17.18
219.921	0.25
220.138	-5.97
220.355	14.13
220.572	-6.2
220.79	-10.6
221.007	-20.63
221.224	-17.9
221.441	-15.71
221.658	-3.26
221.875	-7.43
222.092	-0.97
222.309	13.01
222.526	16.82
222.743	13.87
222.96	13.4
223.177	16.55
223.394	6.23
223.611	5.6
223.828	-1.99
224.045	-3.75
224.262	-3.66
224.479	-6.71
224.696	-8.79
224.913	0.98
225.13	1.03
225.347	3.1
225.564	2.13
225.781	4.92
225.997	6.26
226.214	9.35
226.431	8.41
226.648	10.38
226.865	10.1
227.082	9.37
227.298	6.81
227.515	5.99
227.732	6.1
227.949	7.3
228.165	6.9
228.382	5.99
228.599	5.36
228.816	5.4
229.032	4.27
229.249	3.98
229.466	2.34
229.682	1.71
229.899	4.39
230.116	2.59
230.332	2.48
230.549	3.35
230.765	2.24
230.982	1.76
231.199	1.11
231.415	-1.27
231.632	1.64
231.848	4.66
232.065	9.54
232.281	7.47
232.498	9.05
232.714	8.42
232.931	7.4
233.147	7.46
233.364	9.97
233.58	9.39
233.797	9.37
234.013	7.7
234.23	5.56
234.446	0.01
234.662	-1.33
234.879	0.71
235.095	0.45
235.312	1.95
235.528	5.01
235.744	-0.48
235.961	-0.44
236.177	-0.98
236.393	-2.56
236.61	-0.28
236.826	0.69
237.042	0.67
237.258	0.46
237.475	2.31
237.691	-0.1
237.907	0.81
238.123	3.06
238.339	3.88
238.556	6.9
238.772	7.38
238.988	6.24
239.204	7.31
239.42	7.73
239.636	7.45
239.853	7.3
240.069	8.23
240.285	7.8
240.501	7.81
240.717	7.37
240.933	7.47
241.149	7.43
241.365	7.34
241.581	7.3
241.797	7.47
242.013	6.97
242.229	5.56
242.445	5.19
242.661	4.38
242.877	4.16
243.093	4.13
243.309	3.2
243.525	3.25
243.741	4.08
243.957	4
244.173	3.72
244.388	4.56
244.604	5.94
244.82	6.14
245.036	6.48
245.252	6.78
245.468	7.3
245.683	7.39
245.899	7.38
246.115	7.37
246.331	7.2
246.547	7.12
246.762	7.09
246.978	6.91
247.194	6.79
247.409	6.99
247.625	7.18
247.841	6.95
248.057	7.08
248.272	7.38
248.488	7.4
248.703	8.45
248.919	8.92
249.135	8.52
249.35	7.84
249.566	8.02
249.782	7.51
249.997	7.34
250.213	6.8
250.428	6.32
250.644	6.13
250.859	5.64
251.075	4.59
251.29	4.45
251.506	4.44
251.721	4.98
251.937	5.07
252.152	5.76
252.368	5.26
252.583	5.84
252.798	6.84
253.014	7.42
253.229	7.29
253.445	8.26
253.66	8.35
253.875	8.72
254.091	9.28
254.306	8.27
254.521	7.54
254.737	7.4
254.952	6.64
255.167	5.33
255.383	4.21
255.598	4.44
255.813	4.55
256.028	5.16
256.244	5.08
256.459	4.56
256.674	5.14
256.889	4.88
257.104	4.66
257.32	5.12
257.535	5.14
257.75	5.41
257.965	5.12
258.18	4.93
258.395	4.95
258.61	4.92
258.826	5
259.041	4.49
259.256	4.62
259.471	4.85
259.686	4.44
259.901	4.15
260.116	4.2
260.331	4.29
260.546	4.13
260.761	3.67
260.976	3.33
261.191	3.01
261.406	3.91
261.621	3.9
261.836	2.74
262.05	2.36
262.265	3.04
262.48	3.28
262.695	3.57
262.91	4.12
263.125	3.67
263.34	3.85
263.555	4.07
263.769	3.56
263.984	2.62
264.199	3.61
264.414	3.85
264.629	3.93
264.843	3.24
265.058	3.74
265.273	3.71
265.488	4.83
265.702	4.84
265.917	4.73
266.132	4.98
266.346	5.77
266.561	5.76
266.776	6.61
266.99	6.49
267.205	6.73
267.42	6.44
267.634	6.02
267.849	5.61
268.063	6.02
268.278	6.28
268.492	5.87
268.707	5.72
268.922	5.42
269.136	5.27
269.351	5.24
269.565	5.37
269.78	5.4
269.994	6.17
270.209	6.18
270.423	5.6
270.637	5.19
270.852	5.29
271.066	4.97
271.281	5.42
271.495	5.22
271.709	5.35
271.924	5.17
272.138	4.99
272.353	4.42
272.567	3.63
272.781	4.06
272.996	4.15
273.21	4.67
273.424	4.49
273.638	3.98
273.853	4.11
274.067	3.56
274.281	3.51
274.495	3.56
274.71	4.01
274.924	4.65
275.138	4.77
275.352	4.97
275.566	4.28
275.781	5.11
275.995	5.2
276.209	4.88
276.423	5.53
276.637	5.07
276.851	5.09
277.065	4.49
277.279	4.31
277.493	3.77
277.707	3.85
277.921	3.76
278.135	2.93
278.349	3.52
278.563	3.93
278.777	3.82
278.991	4.56
279.205	4.47
279.419	4.24
279.633	4.79
279.847	5.12
280.061	5.38
280.275	5.56
280.489	6.18
280.703	5.58
280.917	5.35
281.131	4.92
281.344	5.05
281.558	5.41
281.772	5.4
281.986	5.06
282.2	4.75
282.414	4.22
282.627	4.06
282.841	3.67
283.055	3.77
283.269	3.44
283.482	3.73
283.696	3.35
283.91	3.22
284.123	3.47
284.337	3.31
284.551	3.35
284.764	3.9
284.978	3.96
285.192	4.05
285.405	3.93
285.619	4.31
285.833	4.57
286.046	4.78
286.26	4.82
286.473	4.78
286.687	5.1
286.9	5.65
287.114	5.4
287.327	5.16
287.541	5.28
287.754	5.49
287.968	5.12
288.181	4.9
288.395	4.62
288.608	4.48
288.822	4.6
289.035	4.62
289.248	4.33
289.462	4.06
289.675	4.57
289.889	4.99
290.102	5.29
290.315	5.57
290.529	5.9
290.742	5.43
290.955	5.63
291.169	5.82
291.382	5.71
291.595	5.7
291.808	5.86
292.022	5.62
292.235	5.05
292.448	4.77
292.661	4.97
292.875	5.01
293.088	6
293.301	5.9
293.514	5.86
293.727	5.95
293.94	5.88
294.153	5.68
294.367	5.81
294.58	6.04
294.793	6.25
295.006	6.13
295.219	5.97
295.432	5.78
295.645	5.59
295.858	5.62
296.071	5.38
296.284	5.82
296.497	6.07
296.71	6.02
296.923	6.18
297.136	5.93
297.349	5.95
297.562	5.87
297.775	6.1
297.988	6.67
298.201	6.83
298.414	7.21
298.626	6.95
298.839	6.89
299.052	7.25
299.265	6.79
299.478	6.98
299.691	7.12
299.903	7.43
300.116	7.14
300.329	6.86
300.542	6.34
300.755	5.95
300.967	5.8
301.18	5.72
301.393	5.81
301.605	6.14
301.818	6.21
302.031	6.32
302.243	6.16
302.456	6.42
302.669	6.33
302.881	6.68
303.094	6.72
303.307	6.5
303.519	6.56
303.732	6.25
303.944	6.07
304.157	6.2
304.37	5.87
304.582	6.11
304.795	6.17
305.007	6.11
305.22	6.18
305.432	6.64
305.645	6.76
305.857	6.67
306.069	6.54
306.282	6.23
306.494	6.03
306.707	6.39
306.919	6.41
307.132	6.63
307.344	6.83
307.556	6.91
307.769	6.83
307.981	7.31
308.193	7.64
308.406	8.07
308.618	8.4
308.83	8.16
309.043	8.28
309.255	8
309.467	7.67
309.679	7.59
309.892	7.61
310.104	7.61
310.316	7.28
310.528	7.34
310.74	7.09
310.953	7.1
311.165	7.66
311.377	7.01
311.589	7.29
311.801	7.4
312.013	7.98
312.225	8.09
312.437	8.33
312.649	8.46
312.862	8.59
313.074	8.65
313.286	7.99
313.498	7.97
313.71	8.59
313.922	8.51
314.134	8.51
314.346	7.87
314.558	7.5
314.77	7.24
314.982	7.64
315.193	7.35
315.405	7.54
315.617	8.22
315.829	8.28
316.041	8.49
316.253	8.09
316.465	8.72
316.677	8.59
316.888	8.96
317.1	9.26
317.312	9.02
317.524	9.12
317.736	8.51
317.947	8.24
318.159	7.6
318.371	7.66
318.583	8.11
318.794	7.74
319.006	8.03
319.218	8.05
319.43	8.33
319.641	8.37
319.853	8.33
320.064	8.3
320.276	8.83
320.488	9.33
320.699	9.32
320.911	9.17
321.123	9.39
321.334	9.73
321.546	9.49
321.757	9.21
321.969	9.35
322.18	9.49
322.392	10.3
322.603	10.56
322.815	10.93
323.026	10.61
323.238	11.37
323.449	11.05
323.661	11.02
323.872	11.58
324.083	11.88
324.295	12.15
324.506	12.42
324.718	12.49
324.929	12.35
325.14	11.98
325.352	12.34
325.563	12.05
325.774	11.98
325.986	12.45
326.197	12.27
326.408	12.09
326.62	12.43
326.831	12.61
327.042	13.05
327.253	13.56
327.464	14.45
327.676	15.08
327.887	15.37
328.098	15.81
328.309	16.01
328.52	16.01
328.732	16.81
328.943	17.02
329.154	16.77
329.365	16.89
329.576	16.9
329.787	16.76
329.998	16.91
330.209	17.04
330.42	17.72
330.631	17.9
330.842	18.74
331.053	18.52
331.264	18.17
331.475	19.02
331.686	18.79
331.897	19.23
332.108	19.35
332.319	19.43
332.53	19.84
332.741	19.94
332.952	19.72
333.163	19.63
333.374	19.62
333.585	20.03
333.795	19.58
334.006	19.5
334.217	18.93
334.428	18.8
334.639	18.47
334.849	18.17
335.06	18.01
335.271	18.25
335.482	18.41
335.692	18.64
335.903	18.66
336.114	18.84
336.325	19.12
336.535	19.64
336.746	19.77
336.957	19.66
337.167	19.58
337.378	19.29
337.589	19.66
337.799	19.69
338.01	19.74
338.22	19.33
338.431	19.54
338.642	19.56
338.852	19.66
339.063	19.39
339.273	19.58
339.484	19.94
339.694	19.9
339.905	19.5
340.115	19.03
340.326	19.02
340.536	19.2
340.746	19
340.957	19.29
341.167	19
341.378	19.14
341.588	19.21
341.799	19.03
342.009	19.41
342.219	19.3
342.43	19.46
342.64	19.41
342.85	19.34
343.061	19.19
343.271	19.38
343.481	19.14
343.691	19.4
343.902	19.62
344.112	19.89
344.322	19.88
344.532	19.79
344.743	19.76
344.953	19.87
345.163	19.95
345.373	19.95
345.583	19.5
345.793	19.7
346.004	19.26
346.214	19.21
346.424	19.14
346.634	19.09
346.844	19.37
347.054	19.56
347.264	19.04
347.474	18.91
347.684	19.12
347.894	19.12
348.104	19.13
348.314	19
348.524	18.7
348.734	18.52
348.944	18.36
349.154	18.42
349.364	18.33
349.574	18.64
349.784	18.67
349.994	18.52
350.204	18.46
350.413	18.65
350.623	18.82
350.833	18.72
351.043	18.53
351.253	18.23
351.463	17.91
351.672	18.01
351.882	18.17
352.092	18.32
352.302	18.32
352.511	18.46
352.721	18.42
352.931	18.19
353.141	17.88
353.35	17.94
353.56	18.24
353.77	17.88
353.979	17.69
354.189	17.66
354.399	17.38
354.608	17.37
354.818	17.25
355.027	17.17
355.237	17.31
355.447	17.92
355.656	17.93
355.866	17.93
356.075	18.16
356.285	17.87
356.494	17.77
356.704	17.92
356.913	17.92
357.123	17.93
357.332	17.76
357.542	17.88
357.751	17.58
357.96	17.86
358.17	17.84
358.379	17.89
358.589	18.23
358.798	18.21
359.007	18.07
359.217	17.93
359.426	17.75
359.635	17.67
359.845	17.58
360.054	17.57
360.263	17.36
360.472	17.19
360.682	17.3
360.891	17.15
361.1	17.05
361.309	17.36
361.519	17.47
361.728	17.48
361.937	17.62
362.146	17.8
362.355	17.91
362.564	17.87
362.774	17.85
362.983	17.63
363.192	17.74
363.401	17.64
363.61	17.48
363.819	17.26
364.028	17.39
364.237	17.26
364.446	17.04
364.655	17.14
364.864	17.05
365.073	17.3
365.282	17.21
365.491	17.3
365.7	17.26
365.909	17.07
366.118	17.24
366.327	17.35
366.536	17.47
366.745	17.45
366.954	17.22
367.162	17.31
367.371	17.19
367.58	17.32
367.789	17.01
367.998	17.05
368.207	16.93
368.415	16.55
368.624	16.36
368.833	16.31
369.042	16.31
369.25	16.17
369.459	15.92
369.668	16.02
369.877	15.89
370.085	15.87
370.294	15.99
370.503	16.16
370.711	16.74
370.92	16.67
371.129	16.72
371.337	16.73
371.546	16.52
371.754	16.74
371.963	16.62
372.171	16.64
372.38	16.61
372.589	16.83
372.797	16.85
373.006	16.56
373.214	16.7
373.423	16.73
373.631	16.68
373.84	16.84
374.048	16.44
374.256	16.29
374.465	16.35
374.673	16.09
374.882	15.98
375.09	15.74
375.298	15.58
375.507	15.25
375.715	15.25
375.923	15.14
376.132	15.26
376.34	15.35
376.548	15.55
376.757	15.48
376.965	15.82
377.173	15.76
377.381	15.94
377.59	16.06
377.798	16.03
378.006	15.5
378.214	15.39
378.423	15.17
378.631	15.29
378.839	15.05
379.047	15.04
379.255	14.65
379.463	14.47
379.671	14.57
379.879	14.32
380.088	14.4
380.296	14.74
380.504	14.87
380.712	14.91
380.92	14.83
381.128	14.78
381.336	14.51
381.544	14.62
381.752	14.52
381.96	14.16
382.168	14.27
382.376	14.3
382.584	14.18
382.791	14.13
382.999	14.12
383.207	13.97
383.415	14.06
383.623	14.25
383.831	14.12
384.039	14.28
384.247	14.24
384.454	14.04
384.662	13.95
384.87	14.09
385.078	13.94
385.285	13.91
385.493	13.95
385.701	13.71
385.909	13.65
386.116	13.74
386.324	13.52
386.532	13.71
386.739	13.92
386.947	13.9
387.155	13.67
387.362	13.54
387.57	13.59
387.778	13.56
387.985	13.78
388.193	13.76
388.4	13.84
388.608	13.83
388.816	13.62
389.023	13.41
389.231	13.41
389.438	13.37
389.646	13.59
389.853	13.46
390.061	13.52
390.268	13.34
390.475	13.4
390.683	13.3
390.89	13.4
391.098	13.39
391.305	13.36
391.512	13.4
391.72	13.31
391.927	13.22
392.135	13.23
392.342	13.02
392.549	13.02
392.756	12.91
392.964	12.88
393.171	12.64
393.378	12.56
393.586	12.55
393.793	12.46
394	12.5
394.207	12.52
394.414	12.47
394.622	12.54
394.829	12.55
395.036	12.68
395.243	12.63
395.45	12.48
395.657	12.52
395.864	12.57
396.072	12.5
396.279	12.44
396.486	12.35
396.693	12.32
396.9	12.27
397.107	12.05
397.314	11.83
397.521	11.84
397.728	11.99
397.935	11.93
398.142	11.84
398.349	11.95
398.556	12.07
398.763	11.93
398.97	11.76
399.177	11.75
399.383	11.84
399.59	11.78
399.797	11.6
400.004	11.37
400.211	11.32
400.418	11.35
400.625	10.95
400.831	10.78
401.038	10.92
401.245	10.98
401.452	11
401.658	10.94
401.865	10.82
402.072	10.95
402.279	11.14
402.485	11.14
402.692	11
402.899	11.24
403.105	11.3
403.312	11.26
403.519	11.23
403.725	11.08
403.932	11.22
404.138	11.26
404.345	11.15
404.552	11.15
404.758	11.23
404.965	11.21
405.171	11.14
405.378	11.07
405.584	11.05
405.791	10.96
405.997	11.14
406.204	11.03
406.41	11.11
406.617	11.15
406.823	11.07
407.029	11.09
407.236	11.12
407.442	11.12
407.649	11.14
407.855	11.12
408.061	11.26
408.268	10.97
408.474	10.8
408.68	10.62
408.887	10.61
409.093	10.51
409.299	10.42
409.505	10.34
409.712	10.32
409.918	10.31
410.124	10.15
410.33	10.14
410.537	10.37
410.743	10.48
410.949	10.52
411.155	10.4
411.361	10.52
411.567	10.35
411.773	10.51
411.98	10.47
412.186	10.3
412.392	10.27
412.598	10.16
412.804	10
413.01	9.96
413.216	9.98
413.422	10.08
413.628	10.05
413.834	9.93
414.04	9.77
414.246	9.64
414.452	9.65
414.658	9.65
414.864	9.6
415.07	9.6
415.275	9.64
415.481	9.75
415.687	9.68
415.893	9.66
416.099	9.67
416.305	9.65
416.511	9.63
416.716	9.64
416.922	9.78
417.128	9.74
417.334	9.78
417.539	9.68
417.745	9.62
417.951	9.56
418.157	9.47
418.362	9.52
418.568	9.45
418.774	9.43
418.979	9.43
419.185	9.32
419.391	9.33
419.596	9.25
419.802	9.21
420.008	9.02
420.213	9.65
420.419	9.68
420.624	9.62
420.83	9.68
421.035	9.73
421.241	9.7
421.446	9.65
421.652	9.61
421.857	9.53
422.063	9.55
422.268	9.7
422.474	9.08
422.679	9.02
422.885	8.97
423.09	8.97
423.295	8.91
423.501	8.78
423.706	8.78
423.911	8.72
424.117	8.84
424.322	8.84
424.527	8.67
424.733	8.61
424.938	8.59
425.143	8.62
425.349	8.55
425.554	8.54
425.759	8.68
425.964	8.62
426.169	8.58
426.375	8.48
426.58	8.57
426.785	8.64
426.99	8.57
427.195	8.52
427.4	8.51
427.605	8.56
427.811	8.6
428.016	8.53
428.221	8.5
428.426	8.52
428.631	8.44
428.836	8.23
429.041	8.32
429.246	8.36
429.451	8.33
429.656	8.38
429.861	8.31
430.066	8.18
430.271	8.21
430.476	8.34
430.681	8.37
430.886	8.41
431.09	8.53
431.295	8.43
431.5	8.45
431.705	8.4
431.91	8.31
432.115	8.18
432.32	8.21
432.524	8.16
432.729	7.91
432.934	7.95
433.139	7.95
433.343	7.93
433.548	7.91
433.753	7.89
433.958	8
434.162	7.92
434.367	8
434.572	8
434.776	8.06
434.981	8.17
435.186	8.1
435.39	8.1
435.595	7.95
435.799	8.02
436.004	8.03
436.209	7.98
436.413	8.06
436.618	8.08
436.822	8.05
437.027	7.95
437.231	8.04
437.436	8
437.64	7.96
437.845	7.95
438.049	7.89
438.253	7.86
438.458	7.89
438.662	7.84
438.867	7.79
439.071	7.74
439.275	7.79
439.48	7.74
439.684	7.74
439.888	7.71
440.093	7.74
440.297	7.72
440.501	7.68
440.706	7.7
440.91	7.71
441.114	7.7
441.318	7.74
441.523	7.66
441.727	7.57
441.931	7.58
442.135	7.58
442.339	7.53
442.543	7.53
442.748	7.64
442.952	7.62
443.156	7.67
443.36	7.63
443.564	7.65
443.768	7.63
443.972	7.62
444.176	7.61
444.38	7.66
444.584	7.61
444.788	7.64
444.992	7.63
445.196	7.61
445.4	7.57
445.604	7.61
445.808	7.65
446.012	7.72
446.216	7.84
446.42	7.76
446.624	7.69
446.828	7.71
447.032	7.65
447.235	7.56
447.439	7.53
447.643	7.53
447.847	7.52
448.051	7.55
448.254	7.47
448.458	7.37
448.662	7.52
448.866	7.58
449.069	7.6
449.273	7.64
449.477	7.7
449.681	7.62
449.884	7.5
450.088	7.57
450.292	7.46
450.495	7.45
450.699	7.51
450.902	7.42
451.106	7.46
451.31	7.28
451.513	7.24
451.717	7.22
451.92	7.32
452.124	7.42
452.327	7.39
452.531	7.29
452.734	7.3
452.938	7.31
453.141	7.35
453.345	7.34
453.548	7.48
453.752	7.54
453.955	7.5
454.158	7.48
454.362	7.42
454.565	7.42
454.769	7.41
454.972	7.43
455.175	7.3
455.379	7.21
455.582	7.19
455.785	7.16
455.988	7.07
456.192	7.04
456.395	7.1
456.598	7.19
456.801	7.15
457.005	7.18
457.208	7.13
457.411	7.08
457.614	7.05
457.817	6.98
458.021	6.97
458.224	7.02
458.427	6.95
458.63	6.9
458.833	6.82
459.036	6.85
459.239	6.96
459.442	6.94
459.645	7.02
459.848	7.06
460.051	7.08
460.254	7.13
460.457	7.18
460.66	7.3
460.863	7.34
461.066	7.46
461.269	7.42
461.472	7.36
461.675	7.41
461.878	7.43
462.081	7.44
462.284	7.51
462.486	7.48
462.689	7.39
462.892	7.36
463.095	7.3
463.298	7.29
463.5	7.3
463.703	7.33
463.906	7.26
464.109	7.19
464.311	7.21
464.514	7.1
464.717	7.16
464.92	7.19
465.122	7.17
465.325	7.23
465.528	7.2
465.73	7.3
465.933	7.31
466.135	7.46
466.338	7.62
466.541	7.61
466.743	7.75
466.946	7.73
467.148	7.7
467.351	7.78
467.553	7.79
467.756	7.91
467.958	7.79
468.161	7.67
468.363	7.56
468.566	7.58
468.768	7.59
468.971	7.61
469.173	7.63
469.375	7.64
469.578	7.66
469.78	7.56
469.983	7.46
470.185	7.4
470.387	7.44
470.59	7.5
470.792	7.52
470.994	7.57
471.196	7.57
471.399	7.56
471.601	7.56
471.803	7.52
472.005	7.5
472.208	7.51
472.41	7.51
472.612	7.6
472.814	7.59
473.016	7.45
473.218	7.35
473.421	7.23
473.623	7.29
473.825	7.32
474.027	7.3
474.229	7.37
474.431	7.28
474.633	7.39
474.835	7.35
475.037	7.34
475.239	7.4
475.441	7.4
475.643	7.45
475.845	7.45
476.047	7.42
476.249	7.44
476.451	7.36
476.653	7.49
476.855	7.47
477.057	7.48
477.258	7.45
477.46	7.48
477.662	7.49
477.864	7.51
478.066	7.55
478.268	7.57
478.469	7.6
478.671	7.65
478.873	7.62
479.075	7.67
479.276	7.59
479.478	7.68
479.68	7.63
479.882	7.63
480.083	7.59
480.285	7.55
480.487	7.61
480.688	7.57
480.89	7.59
481.091	7.51
481.293	7.48
481.495	7.47
481.696	7.43
481.898	7.42
482.099	7.41
482.301	7.42
482.502	7.38
482.704	7.34
482.905	7.36
483.107	7.33
483.308	7.37
483.51	7.38
483.711	7.41
483.913	7.42
484.114	7.4
484.315	7.41
484.517	7.44
484.718	7.47
484.92	7.49
485.121	7.46
485.322	7.47
485.524	7.43
485.725	7.41
485.926	7.42
486.127	7.39
486.329	7.4
486.53	7.39
486.731	7.38
486.932	7.39
487.134	7.38
487.335	7.37
487.536	7.39
487.737	7.41
487.938	7.42
488.139	7.41
488.341	7.43
488.542	7.46
488.743	7.46
488.944	7.43
489.145	7.41
489.346	7.44
489.547	7.42
489.748	7.43
489.949	7.44
490.15	7.43
490.351	7.44
490.552	7.48
490.753	7.5
490.954	7.53
491.155	7.57
491.356	7.6
491.557	7.63
491.758	7.71
491.959	7.74
492.159	7.78
492.36	7.88
492.561	7.86
492.762	7.87
492.963	7.86
493.164	7.92
493.364	7.89
493.565	7.88
493.766	7.83
493.967	7.86
494.167	7.89
494.368	7.85
494.569	7.69
494.769	7.78
494.97	7.82
495.171	7.88
495.371	7.93
495.572	7.89
495.773	7.92
495.973	7.94
496.174	7.9
496.375	7.92
496.575	8
496.776	8.09
496.976	8.1
497.177	8.03
497.377	8
497.578	7.9
497.778	7.95
497.979	7.97
498.179	8.06
498.38	8.1
498.58	8.1
498.78	8.06
498.981	8.12
499.181	8.1
499.382	8.17
499.582	8.21
499.782	8.35
499.983	8.44
500.183	8.46
500.383	8.47
500.584	8.46
500.784	8.45
500.984	8.49
501.184	8.49
501.385	8.49
501.585	8.53
501.785	8.56
501.985	8.57
502.185	8.64
502.386	8.61
502.586	8.66
502.786	8.67
502.986	8.76
503.186	8.81
503.386	8.83
503.586	8.9
503.786	8.92
503.987	8.99
504.187	9.1
504.387	9.09
504.587	9.17
504.787	9.14
504.987	9.21
505.187	9.18
505.387	9.27
505.587	9.3
505.786	9.32
505.986	9.32
506.186	9.25
506.386	9.24
506.586	9.25
506.786	9.3
506.986	9.31
507.186	9.32
507.386	9.39
507.585	9.29
507.785	9.32
507.985	9.35
508.185	9.44
508.384	9.51
508.584	9.46
508.784	9.52
508.984	9.49
509.183	9.66
509.383	9.75
509.583	9.77
509.782	9.9
509.982	9.98
510.182	10.13
510.381	10.2
510.581	10.29
510.781	10.33
510.98	10.36
511.18	10.56
511.379	10.47
511.579	10.51
511.778	10.67
511.978	10.65
512.177	10.68
512.377	10.62
512.576	10.5
512.776	10.47
512.975	10.55
513.175	10.55
513.374	10.48
513.573	10.6
513.773	10.65
513.972	10.66
514.172	10.75
514.371	10.78
514.57	10.82
514.77	10.99
514.969	11.07
515.168	11.13
515.367	11.19
515.567	11.19
515.766	11.21
515.965	11.2
516.164	11.15
516.364	11.12
516.563	11.17
516.762	11.2
516.961	11.27
517.16	11.31
517.359	11.32
517.559	11.38
517.758	11.41
517.957	11.45
518.156	11.55
518.355	11.61
518.554	11.69
518.753	11.76
518.952	11.78
519.151	11.75
519.35	11.79
519.549	11.85
519.748	11.84
519.947	11.9
520.146	11.89
520.345	11.84
520.544	11.83
520.743	11.79
520.942	11.84
521.141	11.93
521.339	12.02
521.538	12.08
521.737	12.18
521.936	12.31
522.135	12.44
522.333	12.46
522.532	12.53
522.731	12.58
522.93	12.67
523.129	12.66
523.327	12.63
523.526	12.62
523.725	12.64
523.923	12.67
524.122	12.63
524.321	12.54
524.519	12.6
524.718	12.64
524.917	12.68
525.115	12.69
525.314	12.73
525.512	12.75
525.711	12.78
525.909	12.79
526.108	12.77
526.306	12.79
526.505	12.83
526.703	12.89
526.902	12.89
527.1	12.91
527.299	12.94
527.497	12.96
527.696	12.99
527.894	13.05
528.092	13.1
528.291	13.15
528.489	13.21
528.688	13.29
528.886	13.33
529.084	13.36
529.283	13.44
529.481	13.51
529.679	13.53
529.877	13.64
530.076	13.65
530.274	13.76
530.472	13.78
530.67	13.8
530.869	13.78
531.067	13.8
531.265	13.87
531.463	13.87
531.661	13.86
531.859	13.94
532.057	13.98
532.255	14
532.454	13.95
532.652	13.96
532.85	14.01
533.048	14.08
533.246	14.14
533.444	14.17
533.642	14.25
533.84	14.29
534.038	14.33
534.236	14.35
534.434	14.4
534.632	14.45
534.83	14.48
535.027	14.55
535.225	14.57
535.423	14.51
535.621	14.62
535.819	14.62
536.017	14.74
536.215	14.75
536.412	14.81
536.61	14.88
536.808	14.88
537.006	14.98
537.203	15.03
537.401	15.05
537.599	15.22
537.797	15.19
537.994	15.22
538.192	15.21
538.39	15.29
538.587	15.29
538.785	15.32
538.983	15.33
539.18	15.36
539.378	15.37
539.575	15.37
539.773	15.35
539.97	15.39
540.168	15.43
540.366	15.44
540.563	15.44
540.761	15.46
540.958	15.51
541.155	15.63
541.353	15.69
541.55	15.7
541.748	15.81
541.945	15.87
542.143	15.94
542.34	15.99
542.537	16.06
542.735	16.1
542.932	16.17
543.129	16.15
543.327	16.19
543.524	16.19
543.721	16.29
543.919	16.35
544.116	16.43
544.313	16.52
544.51	16.62
544.708	16.67
544.905	16.67
545.102	16.71
545.299	16.75
545.496	16.76
545.693	16.82
545.891	16.8
546.088	16.83
546.285	16.8
546.482	16.74
546.679	16.72
546.876	16.72
547.073	16.87
547.27	16.88
547.467	16.94
547.664	16.98
547.861	17.05
548.058	17.29
548.255	17.25
548.452	17.45
548.649	17.49
548.846	17.43
549.043	17.46
549.24	17.37
549.437	17.4
549.633	17.46
549.83	17.42
550.027	17.48
550.224	17.42
550.421	17.45
550.618	17.42
550.814	17.6
551.011	17.78
551.208	17.77
551.405	17.9
551.601	18.05
551.798	18.13
551.995	18.18
552.191	18.15
552.388	18.18
552.585	18.26
552.781	18.22
552.978	18.23
553.175	18.25
553.371	18.38
553.568	18.38
553.764	18.39
553.961	18.44
554.157	18.6
554.354	18.68
554.55	18.77
554.747	18.7
554.943	18.74
555.14	18.8
555.336	18.86
555.533	18.85
555.729	19.02
555.926	19.1
556.122	19.05
556.318	19.06
556.515	19.01
556.711	19.02
556.907	19.21
557.104	19.27
557.3	19.23
557.496	19.25
557.693	19.33
557.889	19.22
558.085	19.21
558.281	19.43
558.478	19.42
558.674	19.54
558.87	19.54
559.066	19.55
559.262	19.72
559.459	19.71
559.655	19.78
559.851	19.99
560.047	20.16
560.243	20.24
560.439	20.15
560.635	20.28
560.831	20.26
561.027	20.34
561.223	20.41
561.419	20.3
561.615	20.42
561.811	20.4
562.007	20.29
562.203	20.31
562.399	20.4
562.595	20.52
562.791	20.44
562.987	20.54
563.183	20.68
563.379	20.74
563.575	20.91
563.771	21
563.966	21.07
564.162	21.18
564.358	21.18
564.554	21.13
564.75	21.23
564.945	21.26
565.141	21.29
565.337	21.36
565.533	21.36
565.728	21.47
565.924	21.45
566.12	21.5
566.315	21.44
566.511	21.58
566.707	21.65
566.902	21.62
567.098	21.76
567.293	21.84
567.489	21.85
567.684	21.95
567.88	21.94
568.076	22.01
568.271	22.09
568.467	22.02
568.662	22.03
568.858	22.12
569.053	22.18
569.248	22.25
569.444	22.27
569.639	22.33
569.835	22.35
570.03	22.3
570.225	22.33
570.421	22.34
570.616	22.53
570.812	22.62
571.007	22.64
571.202	22.59
571.397	22.69
571.593	22.8
571.788	22.78
571.983	22.85
572.178	23.01
572.374	23.1
572.569	23.16
572.764	23.25
572.959	23.17
573.154	23.22
573.35	23.32
573.545	23.23
573.74	23.24
573.935	23.24
574.13	23.24
574.325	23.24
574.52	23.13
574.715	23.21
574.91	23.22
575.105	23.23
575.3	23.23
575.495	23.3
575.69	23.5
575.885	23.43
576.08	23.47
576.275	23.49
576.47	23.4
576.665	23.52
576.86	23.52
577.055	23.56
577.25	23.69
577.444	23.64
577.639	23.61
577.834	23.49
578.029	23.56
578.224	23.66
578.418	23.7
578.613	23.9
578.808	23.87
579.003	23.78
579.197	23.93
579.392	23.9
579.587	24.07
579.781	24.28
579.976	24.39
580.171	24.6
580.365	24.71
580.56	24.77
580.755	24.69
580.949	24.86
581.144	25.05
581.338	24.84
581.533	24.82
581.727	24.91
581.922	24.8
582.116	24.78
582.311	24.72
582.505	24.71
582.7	24.8
582.894	24.92
583.089	24.86
583.283	24.77
583.478	24.71
583.672	24.9
583.866	24.91
584.061	24.96
584.255	25.06
584.449	24.95
584.644	24.98
584.838	24.92
585.032	24.97
585.226	25.09
585.421	25.22
585.615	25.4
585.809	25.35
586.003	25.3
586.198	25.17
586.392	25.14
586.586	25.27
586.78	25.19
586.974	25.29
587.168	25.24
587.363	25.37
587.557	25.31
587.751	25.34
587.945	25.48
588.139	25.57
588.333	25.79
588.527	25.91
588.721	25.93
588.915	26.05
589.109	26.13
589.303	26.19
589.497	26.11
589.691	26.24
589.885	26.28
590.079	26.16
590.273	26.09
590.466	26.04
590.66	26
590.854	25.95
591.048	25.9
591.242	25.91
591.436	26.03
591.629	26.11
591.823	26.15
592.017	26.13
592.211	26.19
592.404	26.08
592.598	26.11
592.792	26.06
592.986	26.15
593.179	26.2
593.373	26.21
593.567	26.06
593.76	25.92
593.954	25.93
594.147	25.97
594.341	25.95
594.535	26.14
594.728	26.16
594.922	26.2
595.115	26.16
595.309	26.19
595.502	26.14
595.696	26.35
595.889	26.5
596.083	26.43
596.276	26.37
596.47	26.5
596.663	26.56
596.856	26.58
597.05	26.61
597.243	26.64
597.437	26.58
597.63	26.71
597.823	26.57
598.017	26.59
598.21	26.52
598.403	26.68
598.596	26.61
598.79	26.54
598.983	26.59
599.176	26.57
599.369	26.59
599.563	26.58
599.756	26.49
599.949	26.69
600.142	26.58
600.335	26.63
600.528	26.63
600.722	26.58
600.915	26.64
601.108	26.71
601.301	26.73
601.494	26.76
601.687	26.86
601.88	26.89
602.073	26.83
602.266	26.89
602.459	27
602.652	27.09
602.845	27.08
603.038	27.11
603.231	27.11
603.424	27.17
603.617	27.17
603.809	27.19
604.002	27.05
604.195	26.92
604.388	26.87
604.581	26.91
604.774	26.74
604.966	26.77
605.159	26.58
605.352	26.5
605.545	26.45
605.737	26.55
605.93	26.42
606.123	26.61
606.316	26.72
606.508	26.94
606.701	26.87
606.894	26.86
607.086	26.9
607.279	27.08
607.471	27.05
607.664	27.12
607.857	27.09
608.049	27.17
608.242	27.18
608.434	27.3
608.627	27.23
608.819	27.3
609.012	27.45
609.204	27.57
609.397	27.74
609.589	27.97
609.782	28.05
609.974	28.13
610.166	28.27
610.359	28.32
610.551	28.25
610.743	28.26
610.936	28.29
611.128	28.42
611.32	28.47
611.513	28.35
611.705	28.33
611.897	28.25
612.09	28.31
612.282	28.3
612.474	28.27
612.666	28.44
612.858	28.44
613.051	28.41
613.243	28.3
613.435	28.22
613.627	28.05
613.819	27.79
614.011	27.68
614.203	27.8
614.395	27.66
614.588	27.63
614.78	27.46
614.972	27.47
615.164	27.58
615.356	27.65
615.548	27.55
615.74	27.64
615.932	27.86
616.124	27.98
616.315	27.74
616.507	27.9
616.699	28.04
616.891	27.94
617.083	28.01
617.275	28.01
617.467	28
617.659	28.02
617.85	28.12
618.042	28.09
618.234	28.22
618.426	28.22
618.618	28.19
618.809	28.22
619.001	28.35
619.193	28.43
619.384	28.26
619.576	28.34
619.768	28.57
619.959	28.57
620.151	28.54
620.343	28.5
620.534	28.62
620.726	28.75
620.917	28.56
621.109	28.61
621.301	28.61
621.492	28.77
621.684	28.74
621.875	28.74
622.067	28.73
622.258	28.84
622.45	28.87
622.641	28.66
622.832	28.64
623.024	28.73
623.215	28.62
623.407	28.4
623.598	28.29
623.789	28.08
623.981	28.01
624.172	28.09
624.363	28.04
624.555	27.91
624.746	28.04
624.937	28.06
625.129	28.08
625.32	28.1
625.511	28.19
625.702	28.2
625.893	28.31
626.085	28.35
626.276	28.34
626.467	28.37
626.658	28.41
626.849	28.44
627.04	28.45
627.231	28.43
627.422	28.62
627.614	28.64
627.805	28.58
627.996	28.7
628.187	28.6
628.378	28.47
628.569	28.43
628.76	28.46
628.951	28.44
629.142	28.27
629.332	28.43
629.523	28.29
629.714	28.51
629.905	28.51
630.096	28.59
630.287	28.69
630.478	28.84
630.669	28.73
630.859	28.76
631.05	28.73
631.241	28.85
631.432	28.6
631.623	28.68
631.813	28.45
632.004	28.62
632.195	28.47
632.385	28.33
632.576	28.11
632.767	28.3
632.957	28.37
633.148	28.53
633.339	28.51
633.529	28.64
633.72	28.62
633.91	28.7
634.101	28.65
634.292	28.4
634.482	28.54
634.673	28.72
634.863	28.58
635.054	28.48
635.244	28.45
635.435	28.52
635.625	28.54
635.815	28.63
636.006	28.53
636.196	28.57
636.387	28.77
636.577	28.72
636.767	28.69
636.958	28.88
637.148	28.97
637.338	28.93
637.529	28.98
637.719	28.88
637.909	28.71
638.099	28.9
638.29	28.9
638.48	28.99
638.67	29.02
638.86	29.15
639.05	29.24
639.241	29.19
639.431	29.29
639.621	29.27
639.811	29.33
640.001	29.47
640.191	29.5
640.381	29.59
640.571	29.43
640.761	29.27
640.951	29.15
641.141	28.98
641.331	28.9
641.521	28.68
641.711	28.62
641.901	28.61
642.091	28.55
642.281	28.31
642.471	28.17
642.661	28.4
642.851	28.66
643.041	28.6
643.231	28.49
643.42	28.51
643.61	28.69
643.8	28.79
643.99	28.87
644.18	28.92
644.369	28.97
644.559	29.17
644.749	29.07
644.939	29.16
645.128	29.22
645.318	29.5
645.508	29.67
645.697	29.57
645.887	29.39
646.076	29.35
646.266	29.25
646.456	29.11
646.645	29.09
646.835	29.15
647.024	29.07
647.214	29.1
647.403	29.09
647.593	28.86
647.782	28.9
647.972	28.97
648.161	28.87
648.351	28.92
648.54	29.06
648.73	28.87
648.919	28.92
649.108	28.97
649.298	28.96
649.487	28.56
649.677	28.91
649.866	28.88
650.055	28.93
650.244	28.93
650.434	29.05
650.623	29.16
650.812	29.13
651.002	29.24
651.191	29.29
651.38	29.42
651.569	29.72
651.758	29.33
651.947	29.48
652.137	29.53
652.326	29.71
652.515	29.7
652.704	29.57
652.893	29.75
653.082	29.59
653.271	29.51
653.46	29.37
653.649	29.44
653.838	29.57
654.027	29.29
654.216	29.29
654.405	29.22
654.594	29.14
654.783	29.43
654.972	29.47
655.161	29.55
655.35	29.49
655.539	29.62
655.728	29.84
655.916	30.08
656.105	30.28
656.294	30.1
656.483	30.06
656.672	29.91
656.86	29.77
657.049	29.58
657.238	29.49
657.427	29.58
657.615	29.5
657.804	29.16
657.993	29.07
658.181	29.02
658.37	29.12
658.559	29.12
658.747	29.32
658.936	29.16
659.125	29.32
659.313	29.31
659.502	29.29
659.69	29.32
659.879	29.32
660.067	29.36
660.256	29.31
660.444	29.46
660.633	29.59
660.821	29.42
661.01	29.7
661.198	29.74
661.387	29.77
661.575	29.86
661.763	29.99
661.952	30.15
662.14	30.07
662.328	30.23
662.517	30.04
662.705	30.18
662.893	30.32
663.082	30.32
663.27	30.37
663.458	30.25
663.646	29.73
663.834	29.73
664.023	29.56
664.211	29.65
664.399	29.5
664.587	29.7
664.775	29.39
664.963	29.19
665.152	29.23
665.34	29.07
665.528	29.27
665.716	29.55
665.904	29.43
666.092	29.8
666.28	29.82
666.468	29.62
666.656	29.51
666.844	29.81
667.032	30.24
667.22	30.12
667.408	30.23
667.596	30.11
667.784	30.06
667.971	30.16
668.159	30.08
668.347	30.18
668.535	30.42
668.723	30.32
668.911	30.19
669.098	29.74
669.286	29.67
669.474	29.47
669.662	29.82
669.849	29.91
670.037	29.84
670.225	29.6
670.413	29.38
670.6	29.43
670.788	29.66
670.976	29.62
671.163	29.87
671.351	29.74
671.538	30.04
671.726	29.9
671.913	29.98
672.101	30.09
672.289	30.47
672.476	30.48
672.664	30.4
672.851	30.32
673.039	30.22
673.226	30.1
673.413	30.35
673.601	30.19
673.788	30.2
673.976	30.12
674.163	30.1
674.35	29.73
674.538	29.78
674.725	29.96
674.912	30.05
675.1	30.42
675.287	30.51
675.474	30.61
675.662	30.49
675.849	30.37
676.036	30.24
676.223	30.01
676.411	30.18
676.598	30.02
676.785	29.93
676.972	29.93
677.159	29.59
677.346	29.57
677.533	29.36
677.721	29.57
677.908	29.61
678.095	29.85
678.282	30.12
678.469	30.18
678.656	30.29
678.843	30.22
679.03	30.12
679.217	30.23
679.404	30.12
679.591	30.07
679.778	29.98
679.964	29.97
680.151	29.93
680.338	29.66
680.525	29.6
680.712	29.56
680.899	29.56
681.086	29.39
681.272	29.12
681.459	29.24
681.646	29.34
681.833	29.36
682.02	29.4
682.206	29.31
682.393	29.42
682.58	29.4
682.766	29.22
682.953	29.17
683.14	29.55
683.326	30.06
683.513	30.39
683.7	30.53
683.886	30.57
684.073	30.6
684.259	30.64
684.446	30.63
684.632	30.71
684.819	30.72
685.005	30.99
685.192	30.75
685.378	30.61
685.565	30.48
685.751	30.42
685.938	30.39
686.124	30.46
686.31	30.47
686.497	30.45
686.683	30.56
686.87	30.77
687.056	30.48
687.242	30.46
687.429	30.64
687.615	30.48
687.801	30.86
687.987	30.95
688.174	30.61
688.36	30.87
688.546	30.82
688.732	30.55
688.918	30.67
689.105	30.93
689.291	31.04
689.477	30.91
689.663	31.01
689.849	30.87
690.035	30.82
690.221	30.73
690.407	30.5
690.593	30.77
690.779	30.92
690.965	30.57
691.151	30.71
691.337	30.55
691.523	30.32
691.709	29.82
691.895	29.98
692.081	29.97
692.267	30.28
692.453	30.46
692.639	30.53
692.825	30.44
693.011	30.62
693.196	30.32
693.382	30.34
693.568	30.31
693.754	30.66
693.94	30.49
694.125	30.76
694.311	30.9
694.497	30.46
694.682	30.13
694.868	30.08
695.054	30.13
695.239	30.03
695.425	30.27
695.611	30.41
695.796	30.63
695.982	30.54
696.168	30.56
696.353	30.39
696.539	30.65
696.724	30.69
696.91	30.6
697.095	30.5
697.281	30.74
697.466	30.78
697.652	30.72
697.837	30.64
698.023	30.64
698.208	30.29
698.393	30.32
698.579	30.34
698.764	30.31
698.949	30.3
699.135	30.5
699.32	30.28
699.505	30.02
699.691	30.15
699.876	30.15
700.061	30.07
700.246	30.37
700.432	30.26
700.617	30.05
700.802	30.03
700.987	30.47
701.172	30.71
701.358	30.61
701.543	30.85
701.728	30.73
701.913	30.6
702.098	30.77
702.283	30.83
702.468	31.27
702.653	31.42
702.838	31.74
703.023	31.57
703.208	31.24
703.393	31.54
703.578	31.57
703.763	31.78
703.948	31.9
704.133	32
704.318	32
704.503	31.35
704.688	31.51
704.873	31.08
705.057	30.83
705.242	30.97
705.427	31.13
705.612	30.81
705.797	30.25
705.981	30.09
706.166	29.98
706.351	29.79
706.536	30.06
706.72	30.15
706.905	30.38
707.09	30.88
707.274	30.44
707.459	30.33
707.644	30.37
707.828	30.33
708.013	30.4
708.197	30.31
708.382	30.11
708.567	30.22
708.751	30.16
708.936	30.23
709.12	30.1
709.305	30.34
709.489	30.49
709.673	30.35
709.858	30.41
710.042	30.63
710.227	30.59
710.411	30.77
710.596	30.74
710.78	31
710.964	31
711.149	30.76
711.333	30.85
711.517	30.94
711.702	31.2
711.886	31.47
712.07	31.28
712.254	31.31
712.438	31.33
712.623	31.32
712.807	30.53
712.991	30.77
713.175	30.87
713.359	30.73
713.544	31
713.728	31.24
713.912	31.24
714.096	31.21
714.28	31.23
714.464	31.36
714.648	31.49
714.832	31.76
715.016	31.55
715.2	31.54
715.384	31.49
715.568	31.28
715.752	30.93
715.936	30.96
716.12	31.32
716.304	31.55
716.488	31.4
716.671	31.39
716.855	31.47
717.039	31.78
717.223	31.59
717.407	31.83
717.59	31.38
717.774	31.44
717.958	31.29
718.142	30.92
718.325	30.26
718.509	30.31
718.693	30.3
718.877	30.43
719.06	29.98
719.244	29.97
719.428	29.84
719.611	29.96
719.795	29.99
719.978	29.94
720.162	30.06
720.345	30.34
720.529	30.41
720.713	30.2
720.896	30.22
721.08	30.46
721.263	30.74
721.446	30.53
721.63	30.24
721.813	30.16
721.997	30.51
722.18	30.65
722.364	30.97
722.547	30.66
722.73	30.84
722.914	30.68
723.097	30.4
723.28	30.39
723.464	30.77
723.647	30.77
723.83	30.81
724.013	31.15
724.197	31.06
724.38	31.18
724.563	31.18
724.746	31.5
724.929	31.77
725.112	31.91
725.296	31.66
725.479	31.44
725.662	32.24
725.845	32.53
726.028	31.93
726.211	32.49
726.394	32.21
726.577	32.67
726.76	32.49
726.943	32.41
727.126	32.4
727.309	32.76
727.492	32.57
727.675	32.35
727.858	31.92
728.041	32.29
728.224	31.65
728.407	31.67
728.589	31.23
728.772	31.08
728.955	31.22
729.138	31.34
729.321	31.44
729.503	31.57
729.686	31.48
729.869	31.64
730.052	31.19
730.234	31.25
730.417	31.11
730.6	30.8
730.782	30.73
730.965	30.43
731.148	30.77
731.33	30.63
731.513	30.57
731.695	30.71
731.878	30.95
732.061	31.36
732.243	31.37
732.426	31.39
732.608	31.88
732.791	31.97
732.973	32.22
733.156	31.82
733.338	31.81
733.52	32.28
733.703	32.2
733.885	32.12
734.068	31.5
734.25	31.46
734.432	31.32
734.615	31.13
734.797	31.35
734.979	31.47
735.162	31.56
735.344	31.56
735.526	31.31
735.708	31.12
735.891	31.59
736.073	31.98
736.255	32.07
736.437	32.15
736.619	31.97
736.802	31.82
736.984	31.8
737.166	31.87
737.348	31.78
737.53	31.86
737.712	32.02
737.894	31.81
738.076	31.91
738.258	31.91
738.44	32.53
738.622	32.29
738.804	32.52
738.986	31.87
739.168	31.95
739.35	31.81
739.532	31.65
739.714	31.25
739.896	30.99
740.078	30.73
740.259	30.53
740.441	30.21
740.623	31.26
740.805	30.51
740.987	30.78
741.168	30.73
741.35	30.42
741.532	30.83
741.714	31.33
741.895	31.42
742.077	32.07
742.259	32.3
742.44	32.55
742.622	32.3
742.804	32.89
742.985	32.84
743.167	32.6
743.348	33.09
743.53	32.64
743.711	31.56
743.893	32.34
744.075	32.03
744.256	32.44
744.438	31.52
744.619	31.87
744.8	31.57
744.982	31.42
745.163	31.4
745.345	31.63
745.526	31.63
745.707	32.62
745.889	31.76
746.07	31.4
746.252	31.42
746.433	31.98
746.614	30.87
746.795	31.03
746.977	31.28
747.158	31.32
747.339	31.05
747.52	31.16
747.702	31.23
747.883	31.65
748.064	31.83
748.245	31.3
748.426	31.42
748.607	31.66
748.788	31.68
748.97	32
749.151	31.87
749.332	32.33
749.513	31.92
749.694	31.13
749.875	31.56
750.056	31.93
750.237	31.33
750.418	31.47
750.599	31.46
750.78	30.9
750.96	30.65
751.141	30.67
751.322	30.15
751.503	30.43
751.684	31.27
751.865	30.01
752.046	29.13
752.226	29.55
752.407	29.32
752.588	29.62
752.769	29.89
752.949	28.86
753.13	28.52
753.311	28.73
753.492	28.62
753.672	28.45
753.853	29.16
754.034	29.78
754.214	30.44
754.395	29.93
754.575	29.6
754.756	29.71
754.937	30.89
755.117	31.38
755.298	31.35
755.478	31.22
755.659	30.81
755.839	30.27
756.02	29.72
756.2	28.79
756.381	28.84
756.561	30.07
756.741	30.11
756.922	30.2
757.102	30.09
757.283	29.92
757.463	30.53
757.643	30.92
757.823	31.34
758.004	32.01
758.184	32.51
758.364	33.25
758.545	32.57
758.725	32.38
758.905	32.75
759.085	33.1
759.265	33.07
759.446	33.1
759.626	32.84
759.806	32.66
759.986	32.78
760.166	32.71
760.346	32.49
760.526	32.47
760.706	32.52
760.886	31.4
761.066	31.2
761.246	31.46
761.426	31.45
761.606	31.08
761.786	31.22
761.966	30.5
762.146	30.66
762.326	30.83
762.506	30.96
762.686	31.05
762.866	31.61
763.046	31.56
763.225	31.25
763.405	31.01
763.585	31.26
763.765	30.81
763.945	31.4
764.124	31.47
764.304	31.28
764.484	30.88
764.664	30.68
764.843	31.04
765.023	30.88
765.203	31.12
765.382	31.29
765.562	31.58
765.741	31.89
765.921	31.41
766.101	31.75
766.28	31.95
766.46	32.22
766.639	32.75
766.819	32.19
766.998	32.49
767.178	32.76
767.357	32.31
767.537	32
767.716	31.69
767.896	32.15
768.075	31.62
768.254	31.15
768.434	31.84
768.613	32.24
768.792	31.71
768.972	32.19
769.151	31.55
769.33	31.83
769.51	32.09
769.689	31.87
769.868	31.71
770.047	31.83
770.226	31.38
770.406	30.55
770.585	29.96
770.764	30.62
770.943	29.98
771.122	30.31
771.301	31.36
771.48	31.73
771.66	32.25
771.839	32.46
772.018	32.15
772.197	32.7
772.376	32.9
772.555	32.35
772.734	31.45
772.913	32.15
773.092	32.06
773.271	30.89
773.449	30.6
773.628	30.6
773.807	29.69
773.986	29.55
774.165	29.97
774.344	29.37
774.523	30.15
774.701	30.95
774.88	29.89
775.059	29.16
775.238	29.02
775.417	28.89
775.595	29.45
775.774	29.68
775.953	29.93
776.131	29.64
776.31	29.9
776.489	29.32
776.667	29.68
776.846	29.85
777.025	30.86
777.203	30.25
777.382	30.68
777.56	30.51
777.739	30.28
777.917	29.12
778.096	28.87
778.274	29.29
778.453	29.92
778.631	29.78
778.81	29.89
778.988	29.26
779.166	29.75
779.345	30.06
779.523	29.18
779.702	29.8
779.88	30.63
780.058	30.71
780.237	31.2
780.415	30.66
780.593	30.51
780.771	30.76
780.95	31.16
781.128	31.76
781.306	31.25
781.484	32.84
781.662	32.88
781.841	32.76
782.019	32.6
782.197	31.84
782.375	31.45
782.553	30.64
782.731	30.7
782.909	30.54
783.087	31.15
783.265	30.75
783.443	30.34
783.621	30.45
783.799	30.44
783.977	30.96
784.155	30.46
784.333	31.19
784.511	31.6
784.689	31.4
784.867	31.69
785.045	31.34
785.223	30.85
785.4	30.54
785.578	29.93
785.756	30.46
785.934	30.6
786.112	30.77
786.289	31.14
786.467	31.04
786.645	30.85
786.823	29.93
787	29.73
787.178	29.34
787.356	28.62
787.533	29.37
787.711	28.48
787.889	28.37
788.066	28.11
788.244	27.59
788.421	27.56
788.599	27.58
788.776	28.61
788.954	28.76
789.131	29.81
789.309	29.69
789.486	29.49
789.664	30.53
789.841	30.66
790.019	31.89
790.196	31.81
790.373	32.08
790.551	33.25
790.728	32.74
790.906	31.86
791.083	31.22
791.26	32.17
791.437	31.65
791.615	32.24
791.792	32.9
791.969	33.09
792.146	33.95
792.324	33.88
792.501	32.05
792.678	31.83
792.855	32.14
793.032	31.81
793.209	30.93
793.387	31.96
793.564	30.42
793.741	29.77
793.918	29.13
794.095	28.62
794.272	30.14
794.449	30.83
794.626	30.67
794.803	30.74
794.98	32.39
795.157	32.13
795.334	32.34
795.511	32.56
795.688	32.27
795.864	32.09
796.041	32.75
796.218	31.53
796.395	31.82
796.572	32.55
796.749	32.4
796.925	31.96
797.102	33.51
797.279	32.85
797.456	32.86
797.632	32.51
797.809	32.73
797.986	32.74
798.162	32.21
798.339	31.17
798.516	31.44
798.692	31.16
798.869	31.28
799.046	29.66
799.222	28.87
799.399	28.65
799.575	29.16
799.752	28.23
799.928	26.54
800.105	26.08
800.281	27.05
800.458	26.32
800.634	27.42
800.811	27.52
800.987	28.63
801.163	29.07
801.34	29.69
801.516	29.39
801.692	30.05
801.869	31.25
802.045	31.93
802.221	32.12
802.398	31.42
802.574	30.99
802.75	30.57
802.926	30.81
803.103	31.53
803.279	31.34
803.455	31.21
803.631	31.45
803.807	30.77
803.983	31.6
804.16	31.36
804.336	32.77
804.512	33.63
804.688	32.38
804.864	31.2
805.04	30.74
805.216	30.82
805.392	31.24
805.568	30.72
805.744	30.79
805.92	30.38
806.096	30.43
806.272	30.66
806.448	30.45
806.623	31.32
806.799	30.9
806.975	31.64
807.151	31.84
807.327	31.11
807.503	31.94
807.678	31.39
807.854	31
808.03	31.58
808.206	31.07
808.381	29.66
808.557	29.89
808.733	30.24
808.908	29.24
809.084	28.8
809.26	30.06
809.435	28.49
809.611	29.4
809.787	30.59
809.962	29.88
810.138	29.08
810.313	30
810.489	29.55
810.664	30
810.84	28.66
811.015	29.3
811.191	28.17
811.366	28.87
811.542	28.51
811.717	26.72
811.892	26.83
812.068	28.36
812.243	29.02
812.419	28.1
812.594	27.94
812.769	28.57
812.944	27.83
813.12	28.16
813.295	27.19
813.47	26.95
813.645	27.33
813.821	27.58
813.996	26.34
814.171	24.74
814.346	26.79
814.521	28.01
814.697	29.13
814.872	30.16
815.047	30.84
815.222	32.68
815.397	33.44
815.572	34.2
815.747	33.47
815.922	32.92
816.097	32.15
816.272	31.7
816.447	31
816.622	30.75
816.797	30.53
816.972	30.96
817.147	28.97
817.322	28.22
817.496	28.03
817.671	27.99
817.846	28.11
818.021	30.33
818.196	29.34
818.371	29.27
818.545	29.81
818.72	30.07
818.895	30.09
819.069	30.47
819.244	31.33
819.419	31.38
819.594	31.47
819.768	32.07
819.943	31.92
820.117	32.41
820.292	32.4
820.467	31.8
820.641	31.36
820.816	31.09
820.99	31.01
821.165	30.67
821.339	30.56
821.514	30.62
821.688	30.54
821.863	30.34
822.037	30.34
822.212	30.28
822.386	30.42
822.56	30.61
822.735	30.35
822.909	30.62
823.084	30.77
823.258	30.87
823.432	30.79
823.606	30.72
823.781	30.66
823.955	30.78
824.129	30.8
824.303	30.97
824.478	30.81
824.652	31.1
824.826	30.79
825	30.78
825.174	30.62
825.348	30.59
825.523	30.42
825.697	30.46
825.871	30.21
826.045	30.57
826.219	30.09
826.393	29.94
826.567	30.09
826.741	30.69
826.915	31.19
827.089	31.36
827.263	31.48
827.437	31.62
827.611	31.67
827.784	32.12
827.958	32.08
828.132	32.62
828.306	32.87
828.48	32.81
828.654	32.91
828.827	32.47
829.001	32.35
829.175	32.63
829.349	32.87
829.522	32.81
829.696	32.46
829.87	31.74
830.044	31.37
830.217	31.66
830.391	31.09
830.565	30.76
830.738	30.17
830.912	29.94
831.085	29.25
831.259	28.86
831.432	29.01
831.606	29.33
831.779	30.1
831.953	30.22
832.126	29.47
832.3	30.02
832.473	29.84
832.647	29.82
832.82	30.02
832.994	30.21
833.167	30.17
833.34	29.83
833.514	29.52
833.687	29.05
833.86	29.06
834.034	29.42
834.207	29.04
834.38	29
834.553	28.92
834.727	28.85
834.9	28.92
835.073	29.84
835.246	30.6
835.419	31.01
835.593	31.39
835.766	32.19
835.939	32.51
836.112	32.69
836.285	32.11
836.458	33.83
836.631	34.59
836.804	34.16
836.977	34.07
837.15	33.5
837.323	32.6
837.496	32.43
837.669	30.75
837.842	29.2
838.015	29.39
838.188	30.16
838.361	28.39
838.533	26.77
838.706	26.34
838.879	24.71
839.052	25.22
839.225	26.48
839.398	27.37
839.57	27.48
839.743	28.23
839.916	29.19
840.088	27.53
840.261	27.35
840.434	27.14
840.607	28.57
840.779	30.15
840.952	28.57
841.124	27.33
841.297	25.86
841.47	28.32
841.642	29.64
841.815	28.5
841.987	29.6
842.16	29.39
842.332	31.01
842.505	31.79
842.677	31.21
842.85	32.79
843.022	32.61
843.194	32.38
843.367	30.43
843.539	29.94
843.712	30.77
843.884	30.96
844.056	32.17
844.229	32.19
844.401	30.61
844.573	31.24
844.745	32.06
844.918	33.01
845.09	33.77
845.262	30.33
845.434	26.84
845.606	23.98
845.779	23.65
845.951	20.1
846.123	16.12
846.295	20.77
846.467	15.74
846.639	13.61
846.811	14.97
846.983	17.36
847.155	19.91
847.327	22.66
847.499	25.99
847.671	27.06
847.843	27.2
848.015	29.21
848.187	23.63
848.359	27.08
848.531	29.52
848.703	26.14
848.875	24.88
849.047	23.93
849.218	23.22
849.39	21.4
849.562	19.06
849.734	18.39
849.905	16.99
850.077	21.94
850.249	18.69
850.421	15.13
850.592	13.24
850.764	12.22
850.936	13.97
851.107	14.4
851.279	15.19
851.451	18.75
851.622	17.89
851.794	23.97
851.965	17.83
852.137	22.91
852.308	26.03
852.48	27.35
852.651	28.8
852.823	26.28
852.994	23.83
853.166	20.09
853.337	22.88
853.509	24.41
853.68	23.09
853.851	25.99
854.023	23.94
854.194	22.21
854.365	27.64
854.537	25.57
854.708	26.99
854.879	27.9
855.05	32.24
855.222	32.65
855.393	33.26
855.564	32.55
855.735	35.56
855.906	34.36
856.078	34.65
856.249	33.46
856.42	32.94
856.591	34.81
856.762	35.11
856.933	37.61
857.104	34.64
857.275	32
857.446	31.23
857.617	29.85
857.788	27.94
857.959	26
858.13	25.88
858.301	25.37
858.472	24.98
858.643	25.69
858.814	21.26
858.985	17.17
859.155	20.6
859.326	21.44
859.497	22.4
859.668	31.37
859.839	33.04
860.009	33.49
860.18	34.33
860.351	31.93
860.522	29.42
860.692	30.39
860.863	34.38
861.034	32.76
861.204	32.64
861.375	31.41
861.546	28.96
861.716	30.11
861.887	23.76
862.057	25.14
862.228	25.14
862.398	26.94
862.569	28.33
862.739	29.23
862.91	27.4
863.08	24.99
863.251	25.79
863.421	19.1
863.592	20.58
863.762	19.71
863.932	21.45
864.103	25.89
864.273	25.46
864.443	22.64
864.614	22.65
864.784	24.91
864.954	24.29
865.125	27.14
865.295	33.33
865.465	29.86
865.635	34.2
865.805	34.99
865.976	31.74
866.146	32.87
866.316	32.37
866.486	28.15
866.656	25.89
866.826	30.59
866.996	28.69
867.166	26
867.336	28.75
867.506	29.09
867.676	26.5
867.846	28.71
868.016	29.3
868.186	32.94
868.356	33.15
868.526	36.09
868.696	31.78
868.866	29.66
869.036	26.87
869.206	24.08
869.376	23.66
869.545	20.2
869.715	20.77
869.885	22.37
870.055	23.78
870.224	25.8
870.394	23.38
870.564	25.97
870.734	23.52
870.903	29.37
871.073	32.58
871.243	27.81
871.412	29.35
871.582	30.22
871.751	29.81
871.921	34
872.091	34.94
872.26	37.38
872.43	35.92
872.599	37.7
872.769	34.06
872.938	35.19
873.108	42.15
873.277	44.57
873.446	41.88
873.616	34.98
873.785	29.92
873.955	29.73
874.124	26.87
874.293	27.92
874.463	29.63
874.632	30.96
874.801	34.67
874.971	35.06
875.14	34.47
875.309	32.62
875.478	35.1
875.647	37.92
875.817	40.89
875.986	42.6
876.155	39.5
876.324	38.53
876.493	37.43
876.662	29.27
876.831	26.27
877	28.72
877.17	28.23
877.339	30.05
877.508	27.72
877.677	25.36
877.846	29.28
878.015	33.28
878.184	32.96
878.352	34.55
878.521	37.53
878.69	37.95
878.859	33.91
879.028	36.63
879.197	34.41
879.366	32.95
879.534	31.53
879.703	28.52
879.872	28.14
880.041	27.88
880.21	28.04
880.378	27.89
880.547	26.89
880.716	28.3
880.884	28.72
881.053	29.45
881.222	30.1
881.39	31.15
881.559	31.08
881.727	31.23
881.896	30.86
882.065	30.33
882.233	30.73
882.402	31.43
882.57	31.39
882.739	31.05
882.907	31.89
883.076	31.34
883.244	30.56
883.412	30.29
883.581	28.91
883.749	29.11
883.918	29.52
884.086	29
884.254	28.73
884.423	26.73
884.591	26.52
884.759	26.71
884.927	27.6
885.096	27.97
885.264	28.9
885.432	30.46
885.6	31.1
885.769	31.07
885.937	32.43
886.105	32.57
886.273	35.77
886.441	34.85
886.609	32.88
886.777	32.31
886.945	30.37
887.113	26.59
887.281	27.56
887.449	24.5
887.617	23.3
887.785	24.13
887.953	23.87
888.121	25.79
888.289	30.15
888.457	30.44
888.625	31.47
888.793	33.7
888.961	36.33
889.129	32.75
889.296	35.63
889.464	36.93
889.632	34.65
889.8	36.75
889.967	35.26
890.135	29.74
