Data from 2938528_Reflection_3.txt Node
Date: Tue Jun 16 21:56:49 EDT 2015
User: robert
Spectrometer: USB4E03002
Autoset integration time: false
Trigger mode: 4
Integration Time (sec): 1.000000E-1
Scans to average: 10
Electric dark correction enabled: true
Nonlinearity correction enabled: false
Boxcar width: 5
Stray light correction enabled: false
XAxis mode: Wavelengths
Stop averaging: false
Number of Pixels in Spectrum: 3648
>>>>>Begin Spectral Data<<<<<
177.575	-56.59
177.794	-36.74
178.014	28.09
178.233	7.98
178.452	1.79
178.672	28.18
178.891	79.99
179.11	725.62
179.33	1498.87
179.549	185.38
179.768	170.02
179.987	82.65
180.207	153.44
180.426	-0.65
180.645	21.27
180.864	4.27
181.084	-12.2
181.303	-16.91
181.522	10.73
181.741	19.74
181.96	29.25
182.179	10.94
182.398	27.14
182.618	3.98
182.837	-6.15
183.056	2.47
183.275	16.26
183.494	14.89
183.713	23.19
183.932	12.94
184.151	4.59
184.37	5.18
184.589	-1
184.808	-8.91
185.027	25.36
185.246	46.33
185.465	40
185.684	33.16
185.903	42.39
186.122	21.35
186.341	29.46
186.56	38.26
186.779	13.39
186.998	1.6
187.216	68.72
187.435	-39.36
187.654	21.31
187.873	-17.6
188.092	-30.99
188.311	293.85
188.53	185.13
188.748	165.37
188.967	3533.33
189.186	-87.51
189.405	4.57
189.623	-30.85
189.842	-0.74
190.061	-14.78
190.28	-5.81
190.498	-3.61
190.717	12.54
190.936	8.85
191.154	-0.09
191.373	14.91
191.592	18.63
191.81	5.97
192.029	4.13
192.248	-6.6
192.466	-30.65
192.685	-38.91
192.904	-35.93
193.122	-20.53
193.341	1.58
193.559	-3.4
193.778	-22.64
193.996	-28.34
194.215	12.41
194.433	27.09
194.652	15.28
194.87	25.25
195.089	34.11
195.307	26.09
195.526	29.29
195.744	14.84
195.963	21.6
196.181	46.69
196.399	37.86
196.618	29.61
196.836	4.23
197.055	32.32
197.273	45.86
197.491	49.51
197.71	66.67
197.928	56.87
198.146	67.72
198.365	69.06
198.583	58.02
198.801	57.8
199.019	64.45
199.238	92.66
199.456	87.17
199.674	67.52
199.892	52.53
200.111	36.52
200.329	18.23
200.547	-2.76
200.765	-24.63
200.983	-0.47
201.202	-8.08
201.42	-19.9
201.638	-27.85
201.856	-18.52
202.074	0.18
202.292	-31.69
202.51	-6.09
202.728	19.62
202.946	43.47
203.165	38.9
203.383	13.74
203.601	41.31
203.819	7.88
204.037	-0.28
204.255	2.84
204.473	-17.24
204.691	14.23
204.909	11.61
205.127	2.66
205.345	5.89
205.562	13.78
205.78	31.47
205.998	19.39
206.216	36.45
206.434	46.81
206.652	44.81
206.87	47.83
207.088	46
207.306	41.72
207.523	38.99
207.741	40.57
207.959	46.25
208.177	37.6
208.395	36.86
208.612	37.1
208.83	39.65
209.048	38.1
209.266	34.32
209.483	27.87
209.701	26.14
209.919	25.72
210.136	24.51
210.354	14.26
210.572	14.84
210.79	24
211.007	24.98
211.225	24.66
211.442	18.22
211.66	26.99
211.878	30.31
212.095	98.16
212.313	111.62
212.53	119.83
212.748	117.68
212.966	119.66
213.183	104.06
213.401	113
213.618	111.33
213.836	132.76
214.053	119.52
214.271	133.9
214.488	52.78
214.705	30.59
214.923	24.36
215.14	22.96
215.358	18.24
215.575	20.53
215.793	20.29
216.01	17.06
216.227	28.16
216.445	25.69
216.662	27.33
216.879	20.56
217.097	34.46
217.314	36.42
217.531	36.61
217.749	32.63
217.966	29.86
218.183	19.62
218.4	4.27
218.618	-2.37
218.835	-0.42
219.052	0.85
219.269	8.5
219.487	0.55
219.704	13.06
219.921	9.69
220.138	18.23
220.355	24.04
220.572	30.48
220.79	35.96
221.007	35.52
221.224	30.74
221.441	25.71
221.658	24.95
221.875	22.93
222.092	7.64
222.309	15.69
222.526	9.19
222.743	6.13
222.96	8.18
223.177	15.16
223.394	13.12
223.611	16.15
223.828	18.27
224.045	18.01
224.262	23.39
224.479	25.34
224.696	18.12
224.913	18.45
225.13	16.64
225.347	13.28
225.564	8.1
225.781	7.96
225.997	7.81
226.214	8.17
226.431	5.81
226.648	4.03
226.865	5.31
227.082	6.57
227.298	6.58
227.515	7.74
227.732	8.67
227.949	8.97
228.165	9.02
228.382	8.54
228.599	8.42
228.816	9.37
229.032	9.84
229.249	8.12
229.466	7.69
229.682	8.58
229.899	8.04
230.116	7.49
230.332	9
230.549	8.19
230.765	8.1
230.982	9.61
231.199	10.05
231.415	10.9
231.632	11.51
231.848	11.26
232.065	10.38
232.281	11.52
232.498	11.68
232.714	10.98
232.931	12.03
233.147	13.58
233.364	11.82
233.58	12.1
233.797	10.81
234.013	13.63
234.23	14.03
234.446	12.25
234.662	11.29
234.879	11.47
235.095	8.97
235.312	8.14
235.528	7.43
235.744	8.74
235.961	7.6
236.177	8.08
236.393	6.87
236.61	5.98
236.826	8.58
237.042	8.23
237.258	8.77
237.475	10.44
237.691	11.93
237.907	11.8
238.123	10.94
238.339	12.65
238.556	11.69
238.772	12.15
238.988	13.74
239.204	13.26
239.42	12.8
239.636	11.39
239.853	10.77
240.069	9.88
240.285	10.03
240.501	9.27
240.717	8.45
240.933	8.14
241.149	7.24
241.365	6.55
241.581	6.21
241.797	6.7
242.013	6.99
242.229	7.19
242.445	7.55
242.661	6.79
242.877	7.2
243.093	7.3
243.309	8.02
243.525	8.14
243.741	7.64
243.957	7.74
244.173	7.41
244.388	7.51
244.604	7.65
244.82	7.23
245.036	7.55
245.252	7.75
245.468	7.49
245.683	7.08
245.899	6.94
246.115	7.11
246.331	6.89
246.547	6.87
246.762	7.27
246.978	7.32
247.194	7.76
247.409	7.84
247.625	8.12
247.841	7.94
248.057	8.43
248.272	9.2
248.488	9.64
248.703	9.81
248.919	9.57
249.135	8.7
249.35	8.49
249.566	8.01
249.782	7.75
249.997	7.69
250.213	7.76
250.428	8
250.644	7.45
250.859	7.3
251.075	7.84
251.29	8.4
251.506	8.58
251.721	8.58
251.937	8.77
252.152	8.75
252.368	7.79
252.583	8.7
252.798	8.47
253.014	8.88
253.229	8.36
253.445	8.04
253.66	7.75
253.875	8.08
254.091	7.96
254.306	6.44
254.521	6.8
254.737	6.69
254.952	5.85
255.167	5.17
255.383	4.28
255.598	4.13
255.813	4.04
256.028	4.12
256.244	4.23
256.459	4.59
256.674	5.18
256.889	4.6
257.104	4.49
257.32	4.94
257.535	5.18
257.75	5.37
257.965	5.35
258.18	5.6
258.395	5.6
258.61	5.56
258.826	5.73
259.041	5.93
259.256	6.34
259.471	6.42
259.686	6.35
259.901	6.08
260.116	6.15
260.331	6.11
260.546	6
260.761	5.84
260.976	5.38
261.191	4.76
261.406	4.79
261.621	4.04
261.836	3.96
262.05	4.18
262.265	4.94
262.48	5.59
262.695	5.69
262.91	5.22
263.125	5.8
263.34	6.2
263.555	6.01
263.769	5.96
263.984	6.7
264.199	7.13
264.414	6.45
264.629	6.57
264.843	6.16
265.058	6.44
265.273	6.65
265.488	6.7
265.702	7.03
265.917	7.41
266.132	6.83
266.346	6.46
266.561	6.18
266.776	5.8
266.99	5.35
267.205	5.56
267.42	5.72
267.634	5.76
267.849	5.6
268.063	5.17
268.278	5.17
268.492	5.05
268.707	5.05
268.922	5.17
269.136	6.04
269.351	6.12
269.565	5.56
269.78	5.42
269.994	4.92
270.209	4.53
270.423	4.81
270.637	5.09
270.852	5.04
271.066	5.33
271.281	5.39
271.495	4.99
271.709	5.1
271.924	4.77
272.138	4.89
272.353	5.34
272.567	5.41
272.781	5.4
272.996	5.11
273.21	5.7
273.424	5.78
273.638	5.69
273.853	6
274.067	5.56
274.281	6.22
274.495	6.17
274.71	5.92
274.924	5.96
275.138	5.76
275.352	5.48
275.566	5.19
275.781	5.05
275.995	4.84
276.209	5.17
276.423	5.48
276.637	5.87
276.851	5.69
277.065	5.75
277.279	6.02
277.493	5.88
277.707	6.01
277.921	5.86
278.135	5.19
278.349	5.45
278.563	4.77
278.777	4.92
278.991	4.33
279.205	4.08
279.419	3.98
279.633	4.3
279.847	4.33
280.061	4.23
280.275	4.82
280.489	4.92
280.703	4.99
280.917	5.18
281.131	5.09
281.344	5.35
281.558	5.22
281.772	5.44
281.986	4.87
282.2	5.14
282.414	5.33
282.627	5.07
282.841	5.27
283.055	5.15
283.269	5.23
283.482	4.88
283.696	4.61
283.91	4.99
284.123	4.69
284.337	4.97
284.551	4.87
284.764	4.91
284.978	4.89
285.192	4.72
285.405	4.87
285.619	4.6
285.833	5.05
286.046	4.91
286.26	4.56
286.473	4.87
286.687	4.64
286.9	4.51
287.114	4.14
287.327	4.31
287.541	4.57
287.754	4.28
287.968	4.71
288.181	4.66
288.395	4.82
288.608	5.12
288.822	5.04
289.035	5.3
289.248	5.12
289.462	5.47
289.675	5.14
289.889	5.23
290.102	5.34
290.315	5.3
290.529	5.4
290.742	5.46
290.955	5.56
291.169	5.69
291.382	6
291.595	6.2
291.808	6.22
292.022	6.33
292.235	6.06
292.448	6.37
292.661	6.16
292.875	6.23
293.088	6.63
293.301	6.44
293.514	6.21
293.727	5.9
293.94	6.3
294.153	6.09
294.367	6.25
294.58	5.79
294.793	5.64
295.006	5.65
295.219	5.51
295.432	5.45
295.645	5.39
295.858	5.55
296.071	5.39
296.284	5.17
296.497	5.21
296.71	5.06
296.923	5.64
297.136	5.54
297.349	5.74
297.562	5.99
297.775	5.94
297.988	6.15
298.201	6.38
298.414	6.52
298.626	6.43
298.839	6.46
299.052	6.37
299.265	6.49
299.478	6.75
299.691	6.33
299.903	6.01
300.116	5.96
300.329	6.06
300.542	5.92
300.755	5.63
300.967	5.57
301.18	5.59
301.393	5.67
301.605	5.13
301.818	5.22
302.031	5.48
302.243	5.27
302.456	5.45
302.669	5.49
302.881	5.42
303.094	6.14
303.307	6.12
303.519	6.08
303.732	6.24
303.944	6.28
304.157	6.03
304.37	6.08
304.582	6.36
304.795	5.88
305.007	5.3
305.22	5.31
305.432	5
305.645	4.86
305.857	5.49
306.069	5.39
306.282	5.49
306.494	5.27
306.707	5.37
306.919	5.41
307.132	5.75
307.344	6.21
307.556	5.99
307.769	6.16
307.981	6.33
308.193	6.18
308.406	5.96
308.618	5.94
308.83	5.98
309.043	5.85
309.255	5.73
309.467	5.42
309.679	5.45
309.892	5.55
310.104	5.72
310.316	6.09
310.528	5.66
310.74	6.09
310.953	6.21
311.165	6.42
311.377	6.59
311.589	6.84
311.801	7.08
312.013	7.19
312.225	7.41
312.437	6.95
312.649	6.94
312.862	7.17
313.074	6.93
313.286	6.82
313.498	6.76
313.71	6.95
313.922	6.8
314.134	6.21
314.346	6.36
314.558	6.28
314.77	6.67
314.982	6.49
315.193	6.38
315.405	6.75
315.617	6.9
315.829	6.79
316.041	6.4
316.253	6.43
316.465	7.29
316.677	6.76
316.888	6.78
317.1	6.69
317.312	6.92
317.524	7.12
317.736	7
317.947	7.61
318.159	7.59
318.371	7.54
318.583	7.98
318.794	7.95
319.006	8.44
319.218	8.2
319.43	8.05
319.641	7.86
319.853	8.07
320.064	7.92
320.276	8.11
320.488	8.67
320.699	9.07
320.911	8.51
321.123	8.46
321.334	8.49
321.546	8.83
321.757	9.01
321.969	9.23
322.18	9.27
322.392	9.59
322.603	9.13
322.815	8.9
323.026	8.76
323.238	9
323.449	9.02
323.661	9.14
323.872	9.28
324.083	9.21
324.295	8.64
324.506	8.34
324.718	8.41
324.929	8.31
325.14	8.4
325.352	9.14
325.563	9.23
325.774	9.33
325.986	9.28
326.197	9.52
326.408	9.42
326.62	9.88
326.831	10.15
327.042	10.08
327.253	10.44
327.464	10.86
327.676	10.17
327.887	10.25
328.098	10.14
328.309	10.56
328.52	10.65
328.732	11.31
328.943	11.76
329.154	12.36
329.365	12.74
329.576	12.71
329.787	12.34
329.998	12.61
330.209	12.64
330.42	12.9
330.631	12.63
330.842	12.57
331.053	12.34
331.264	12.31
331.475	11.64
331.686	11.5
331.897	11.64
332.108	11.69
332.319	11.81
332.53	11.68
332.741	11.78
332.952	11.79
333.163	11.81
333.374	11.87
333.585	11.78
333.795	12.02
334.006	12.26
334.217	12.07
334.428	11.98
334.639	12.07
334.849	12.24
335.06	12.28
335.271	12.59
335.482	12.31
335.692	12.38
335.903	11.96
336.114	11.91
336.325	11.48
336.535	11.72
336.746	11.91
336.957	12.04
337.167	12.7
337.378	12.61
337.589	12.46
337.799	12.39
338.01	12.51
338.22	12.89
338.431	13.29
338.642	13.16
338.852	13.41
339.063	13.31
339.273	12.91
339.484	12.5
339.694	12.56
339.905	12.16
340.115	12.16
340.326	11.89
340.536	11.89
340.746	11.67
340.957	12.14
341.167	11.74
341.378	11.85
341.588	11.61
341.799	11.37
342.009	11.23
342.219	11.51
342.43	11.66
342.64	11.67
342.85	11.86
343.061	11.94
343.271	11.76
343.481	11.43
343.691	11.3
343.902	11.87
344.112	11.91
344.322	12.07
344.532	11.95
344.743	11.84
344.953	11.9
345.163	11.44
345.373	11.14
345.583	11
345.793	11.37
346.004	11.4
346.214	10.87
346.424	11.22
346.634	11.38
346.844	11.73
347.054	12.01
347.264	12.08
347.474	12.23
347.684	12.44
347.894	12.39
348.104	12.29
348.314	12.41
348.524	12.77
348.734	12.39
348.944	12.56
349.154	12.47
349.364	12.36
349.574	12.06
349.784	12.01
349.994	12.15
350.204	12.01
350.413	11.89
350.623	11.97
350.833	11.88
351.043	11.86
351.253	11.15
351.463	10.52
351.672	10.73
351.882	11.05
352.092	11.2
352.302	10.89
352.511	11.36
352.721	11.66
352.931	11.74
353.141	11.64
353.35	12.1
353.56	12.35
353.77	12.79
353.979	12.75
354.189	12.73
354.399	12.62
354.608	12.98
354.818	12.71
355.027	12.67
355.237	12.31
355.447	12.44
355.656	12.13
355.866	12.06
356.075	12.13
356.285	11.85
356.494	11.74
356.704	11.8
356.913	11.76
357.123	11.78
357.332	11.72
357.542	12.03
357.751	12.16
357.96	11.85
358.17	11.96
358.379	11.77
358.589	12.19
358.798	12.01
359.007	11.92
359.217	11.78
359.426	11.84
359.635	12.04
359.845	11.93
360.054	11.58
360.263	11.79
360.472	11.74
360.682	11.84
360.891	11.53
361.1	11.59
361.309	11.71
361.519	11.57
361.728	11.66
361.937	11.46
362.146	11.42
362.355	11.59
362.564	11.4
362.774	11.41
362.983	11.35
363.192	11.3
363.401	11.45
363.61	11.56
363.819	11.64
364.028	11.44
364.237	11.27
364.446	11.31
364.655	11.1
364.864	11.26
365.073	11.33
365.282	11.52
365.491	11.49
365.7	11.38
365.909	10.95
366.118	10.66
366.327	10.69
366.536	10.88
366.745	10.83
366.954	10.84
367.162	10.96
367.371	10.79
367.58	10.68
367.789	10.63
367.998	10.51
368.207	10.54
368.415	10.66
368.624	10.41
368.833	10.24
369.042	10.03
369.25	10.34
369.459	10.08
369.668	10.04
369.877	9.64
370.085	9.96
370.294	10.25
370.503	10.16
370.711	10.42
370.92	10.34
371.129	10.43
371.337	10.41
371.546	10.13
371.754	10.14
371.963	10.07
372.171	10.29
372.38	9.98
372.589	9.78
372.797	9.73
373.006	9.37
373.214	9.76
373.423	9.83
373.631	9.93
373.84	10.22
374.048	10.29
374.256	10.5
374.465	10.52
374.673	10.65
374.882	10.73
375.09	10.8
375.298	11.16
375.507	10.98
375.715	10.91
375.923	11.08
376.132	10.8
376.34	10.9
376.548	10.91
376.757	10.95
376.965	10.82
377.173	10.76
377.381	10.84
377.59	10.64
377.798	10.69
378.006	10.76
378.214	10.54
378.423	10.49
378.631	10.23
378.839	10.03
379.047	9.69
379.255	9.63
379.463	9.55
379.671	9.45
379.879	9.49
380.088	9.5
380.296	9.23
380.504	9.48
380.712	9.61
380.92	9.67
381.128	9.78
381.336	10.07
381.544	9.95
381.752	10
381.96	10
382.168	9.95
382.376	9.95
382.584	10.15
382.791	9.94
382.999	9.87
383.207	9.94
383.415	9.88
383.623	9.84
383.831	10.06
384.039	9.9
384.247	9.72
384.454	9.53
384.662	9.35
384.87	9.12
385.078	9.08
385.285	9.23
385.493	9.19
385.701	9.16
385.909	8.98
386.116	8.94
386.324	9.01
386.532	9.4
386.739	9.65
386.947	9.74
387.155	9.91
387.362	9.97
387.57	9.79
387.778	9.64
387.985	9.62
388.193	9.8
388.4	9.65
388.608	9.81
388.816	9.59
389.023	9.64
389.231	9.54
389.438	9.52
389.646	9.73
389.853	10.04
390.061	10.14
390.268	10.28
390.475	10.34
390.683	10.42
390.89	10.23
391.098	10.3
391.305	10.34
391.512	10.52
391.72	10.37
391.927	10.04
392.135	9.65
392.342	9.73
392.549	9.74
392.756	9.46
392.964	9.45
393.171	9.62
393.378	9.6
393.586	9.61
393.793	9.5
394	9.74
394.207	9.9
394.414	10.01
394.622	10.05
394.829	9.98
395.036	10.11
395.243	10.2
395.45	10.09
395.657	9.91
395.864	9.57
396.072	9.69
396.279	9.47
396.486	9.46
396.693	9.41
396.9	9.31
397.107	9.08
397.314	9.31
397.521	9.21
397.728	9.36
397.935	9.62
398.142	9.8
398.349	9.68
398.556	9.78
398.763	9.88
398.97	9.91
399.177	9.86
399.383	10.08
399.59	9.8
399.797	9.85
400.004	9.78
400.211	9.78
400.418	9.73
400.625	9.66
400.831	9.77
401.038	9.61
401.245	9.6
401.452	9.71
401.658	9.71
401.865	9.84
402.072	9.79
402.279	9.81
402.485	9.71
402.692	9.67
402.899	9.69
403.105	9.48
403.312	9.42
403.519	9.32
403.725	9.1
403.932	9.09
404.138	9.11
404.345	9.01
404.552	8.91
404.758	8.96
404.965	9.03
405.171	8.95
405.378	9.03
405.584	9.22
405.791	9.35
405.997	9.38
406.204	9.28
406.41	9.28
406.617	9.24
406.823	9.06
407.029	8.96
407.236	9
407.442	9.18
407.649	9.27
407.855	9.12
408.061	9.1
408.268	9.02
408.474	9.03
408.68	8.91
408.887	9.13
409.093	9.3
409.299	9.35
409.505	9.31
409.712	9.14
409.918	9.12
410.124	9.08
410.33	9.06
410.537	9.19
410.743	9.16
410.949	9.08
411.155	9.04
411.361	8.9
411.567	8.83
411.773	8.75
411.98	8.84
412.186	8.7
412.392	8.71
412.598	8.6
412.804	8.47
413.01	8.48
413.216	8.53
413.422	8.61
413.628	8.62
413.834	8.63
414.04	8.7
414.246	8.64
414.452	8.59
414.658	8.62
414.864	8.64
415.07	8.79
415.275	8.88
415.481	8.79
415.687	8.66
415.893	8.71
416.099	8.73
416.305	8.59
416.511	8.47
416.716	8.48
416.922	8.43
417.128	8.55
417.334	8.53
417.539	8.35
417.745	8.29
417.951	8.38
418.157	8.34
418.362	8.36
418.568	8.37
418.774	8.41
418.979	8.46
419.185	8.41
419.391	8.3
419.596	8.27
419.802	8.29
420.008	8.28
420.213	8.13
420.419	8.18
420.624	8.07
420.83	8.04
421.035	8.1
421.241	8.12
421.446	8.08
421.652	8.14
421.857	8.12
422.063	8.1
422.268	8.16
422.474	8.18
422.679	8.16
422.885	8.09
423.09	7.98
423.295	7.91
423.501	7.85
423.706	7.92
423.911	7.89
424.117	7.9
424.322	7.87
424.527	7.87
424.733	7.82
424.938	7.77
425.143	7.83
425.349	7.99
425.554	7.96
425.759	7.81
425.964	7.76
426.169	7.75
426.375	7.66
426.58	7.76
426.785	7.68
426.99	7.67
427.195	7.59
427.4	7.64
427.605	7.76
427.811	7.83
428.016	7.85
428.221	7.97
428.426	7.83
428.631	7.75
428.836	7.7
429.041	7.82
429.246	7.84
429.451	7.87
429.656	7.8
429.861	7.66
430.066	7.67
430.271	7.82
430.476	7.77
430.681	7.89
430.886	7.98
431.09	8
431.295	7.82
431.5	7.79
431.705	7.82
431.91	7.88
432.115	7.9
432.32	7.82
432.524	7.66
432.729	7.67
432.934	7.67
433.139	7.71
433.343	7.8
433.548	7.94
433.753	8.03
433.958	8.02
434.162	8.02
434.367	8.08
434.572	8.09
434.776	8.18
434.981	8.14
435.186	8.08
435.39	8
435.595	7.93
435.799	7.88
436.004	7.84
436.209	7.75
436.413	7.7
436.618	7.6
436.822	7.66
437.027	7.68
437.231	7.58
437.436	7.55
437.64	7.61
437.845	7.62
438.049	7.54
438.253	7.58
438.458	7.59
438.662	7.53
438.867	7.61
439.071	7.47
439.275	7.49
439.48	7.57
439.684	7.63
439.888	7.65
440.093	7.57
440.297	7.63
440.501	7.62
440.706	7.69
440.91	7.8
441.114	7.69
441.318	7.71
441.523	7.73
441.727	7.67
441.931	7.6
442.135	7.6
442.339	7.56
442.543	7.5
442.748	7.45
442.952	7.43
443.156	7.3
443.36	7.28
443.564	7.36
443.768	7.25
443.972	7.25
444.176	7.34
444.38	7.28
444.584	7.25
444.788	7.27
444.992	7.3
445.196	7.22
445.4	7.29
445.604	7.36
445.808	7.33
446.012	7.31
446.216	7.29
446.42	7.29
446.624	7.26
446.828	7.32
447.032	7.28
447.235	7.31
447.439	7.33
447.643	7.31
447.847	7.26
448.051	7.29
448.254	7.3
448.458	7.33
448.662	7.24
448.866	7.33
449.069	7.38
449.273	7.5
449.477	7.5
449.681	7.5
449.884	7.67
450.088	7.64
450.292	7.64
450.495	7.74
450.699	7.73
450.902	7.75
451.106	7.59
451.31	7.6
451.513	7.52
451.717	7.48
451.92	7.44
452.124	7.32
452.327	7.31
452.531	7.31
452.734	7.26
452.938	7.32
453.141	7.29
453.345	7.31
453.548	7.24
453.752	7.31
453.955	7.29
454.158	7.3
454.362	7.17
454.565	7.27
454.769	7.23
454.972	7.22
455.175	7.16
455.379	7.19
455.582	7.19
455.785	7.23
455.988	7.15
456.192	7.22
456.395	7.23
456.598	7.47
456.801	7.35
457.005	7.39
457.208	7.42
457.411	7.48
457.614	7.49
457.817	7.5
458.021	7.53
458.224	7.55
458.427	7.49
458.63	7.55
458.833	7.48
459.036	7.49
459.239	7.48
459.442	7.5
459.645	7.47
459.848	7.41
460.051	7.42
460.254	7.34
460.457	7.29
460.66	7.33
460.863	7.32
461.066	7.37
461.269	7.41
461.472	7.44
461.675	7.45
461.878	7.54
462.081	7.49
462.284	7.63
462.486	7.72
462.689	7.76
462.892	7.84
463.095	7.76
463.298	7.72
463.5	7.8
463.703	7.76
463.906	7.81
464.109	7.78
464.311	7.89
464.514	7.87
464.717	7.92
464.92	7.94
465.122	7.89
465.325	7.89
465.528	7.97
465.73	7.89
465.933	7.85
466.135	7.83
466.338	7.78
466.541	7.77
466.743	7.73
466.946	7.74
467.148	7.75
467.351	7.75
467.553	7.74
467.756	7.64
467.958	7.64
468.161	7.66
468.363	7.66
468.566	7.6
468.768	7.68
468.971	7.58
469.173	7.58
469.375	7.52
469.578	7.56
469.78	7.6
469.983	7.58
470.185	7.46
470.387	7.39
470.59	7.32
470.792	7.35
470.994	7.29
471.196	7.28
471.399	7.18
471.601	7.31
471.803	7.24
472.005	7.44
472.208	7.37
472.41	7.57
472.612	7.68
472.814	7.67
473.016	7.79
473.218	7.83
473.421	7.83
473.623	7.79
473.825	7.8
474.027	7.83
474.229	7.62
474.431	7.71
474.633	7.62
474.835	7.6
475.037	7.65
475.239	7.5
475.441	7.47
475.643	7.55
475.845	7.63
476.047	7.59
476.249	7.57
476.451	7.68
476.653	7.72
476.855	7.75
477.057	7.77
477.258	7.75
477.46	7.86
477.662	7.85
477.864	7.82
478.066	7.83
478.268	7.76
478.469	7.77
478.671	7.71
478.873	7.65
479.075	7.64
479.276	7.63
479.478	7.55
479.68	7.52
479.882	7.53
480.083	7.46
480.285	7.48
480.487	7.5
480.688	7.5
480.89	7.49
481.091	7.44
481.293	7.42
481.495	7.34
481.696	7.33
481.898	7.3
482.099	7.31
482.301	7.34
482.502	7.32
482.704	7.3
482.905	7.28
483.107	7.29
483.308	7.32
483.51	7.31
483.711	7.32
483.913	7.35
484.114	7.35
484.315	7.33
484.517	7.33
484.718	7.28
484.92	7.28
485.121	7.3
485.322	7.27
485.524	7.24
485.725	7.23
485.926	7.28
486.127	7.31
486.329	7.31
486.53	7.35
486.731	7.37
486.932	7.38
487.134	7.42
487.335	7.42
487.536	7.44
487.737	7.44
487.938	7.51
488.139	7.53
488.341	7.51
488.542	7.52
488.743	7.48
488.944	7.46
489.145	7.49
489.346	7.47
489.547	7.44
489.748	7.43
489.949	7.48
490.15	7.42
490.351	7.41
490.552	7.45
490.753	7.46
490.954	7.47
491.155	7.5
491.356	7.48
491.557	7.51
491.758	7.57
491.959	7.6
492.159	7.62
492.36	7.64
492.561	7.65
492.762	7.67
492.963	7.78
493.164	7.79
493.364	7.77
493.565	7.81
493.766	7.9
493.967	7.97
494.167	7.97
494.368	7.95
494.569	7.99
494.769	7.98
494.97	7.95
495.171	7.93
495.371	7.92
495.572	7.94
495.773	7.98
495.973	7.96
496.174	7.89
496.375	7.86
496.575	7.96
496.776	7.99
496.976	8.05
497.177	8.1
497.377	8.07
497.578	8.2
497.778	8.22
497.979	8.24
498.179	8.23
498.38	8.3
498.58	8.38
498.78	8.39
498.981	8.51
499.181	8.52
499.382	8.54
499.582	8.65
499.782	8.64
499.983	8.68
500.183	8.75
500.383	8.81
500.584	8.81
500.784	8.87
500.984	8.9
501.184	8.91
501.385	8.89
501.585	8.91
501.785	8.78
501.985	8.86
502.185	8.9
502.386	8.87
502.586	8.83
502.786	8.87
502.986	8.9
503.186	8.87
503.386	8.78
503.586	8.85
503.786	8.89
503.987	9.03
504.187	9.03
504.387	9.09
504.587	9.19
504.787	9.27
504.987	9.37
505.187	9.32
505.387	9.34
505.587	9.48
505.786	9.6
505.986	9.62
506.186	9.66
506.386	9.62
506.586	9.68
506.786	9.63
506.986	9.74
507.186	9.66
507.386	9.76
507.585	9.79
507.785	9.78
507.985	9.8
508.185	9.9
508.384	9.83
508.584	9.85
508.784	9.88
508.984	10.01
509.183	9.97
509.383	10.06
509.583	10.05
509.782	10.04
509.982	10.11
510.182	10.13
510.381	10.09
510.581	10.3
510.781	10.44
510.98	10.41
511.18	10.49
511.379	10.57
511.579	10.65
511.778	10.73
511.978	10.87
512.177	10.82
512.377	10.86
512.576	11.04
512.776	11.02
512.975	11.1
513.175	11.18
513.374	11.2
513.573	11.24
513.773	11.27
513.972	11.33
514.172	11.41
514.371	11.64
514.57	11.67
514.77	11.65
514.969	11.72
515.168	11.77
515.367	11.87
515.567	11.89
515.766	11.93
515.965	12
516.164	12.11
516.364	12.14
516.563	12.24
516.762	12.33
516.961	12.37
517.16	12.43
517.359	12.44
517.559	12.53
517.758	12.57
517.957	12.64
518.156	12.73
518.355	12.77
518.554	12.76
518.753	12.73
518.952	12.76
519.151	12.87
519.35	12.93
519.549	13.01
519.748	12.97
519.947	13.1
520.146	13.21
520.345	13.2
520.544	13.26
520.743	13.43
520.942	13.57
521.141	13.65
521.339	13.71
521.538	13.66
521.737	13.78
521.936	13.88
522.135	13.98
522.333	14.05
522.532	14.15
522.731	14.22
522.93	14.3
523.129	14.36
523.327	14.42
523.526	14.46
523.725	14.66
523.923	14.78
524.122	14.92
524.321	14.92
524.519	14.91
524.718	14.95
524.917	15.01
525.115	15.06
525.314	15.14
525.512	15.27
525.711	15.34
525.909	15.36
526.108	15.36
526.306	15.44
526.505	15.46
526.703	15.56
526.902	15.62
527.1	15.68
527.299	15.7
527.497	15.73
527.696	15.76
527.894	15.82
528.092	15.85
528.291	15.89
528.489	15.88
528.688	15.96
528.886	16.02
529.084	16.1
529.283	16.15
529.481	16.26
529.679	16.33
529.877	16.35
530.076	16.42
530.274	16.55
530.472	16.62
530.67	16.74
530.869	16.83
531.067	16.9
531.265	16.92
531.463	17.04
531.661	17.05
531.859	17.09
532.057	17.16
532.255	17.18
532.454	17.22
532.652	17.26
532.85	17.32
533.048	17.39
533.246	17.42
533.444	17.53
533.642	17.53
533.84	17.6
534.038	17.67
534.236	17.75
534.434	17.73
534.632	17.81
534.83	17.93
535.027	17.92
535.225	17.93
535.423	17.99
535.621	18.01
535.819	18.06
536.017	18.02
536.215	18.01
536.412	18
536.61	18.09
536.808	18.09
537.006	18.04
537.203	18.12
537.401	18.24
537.599	18.3
537.797	18.36
537.994	18.41
538.192	18.61
538.39	18.77
538.587	18.9
538.785	18.98
538.983	19.03
539.18	19.08
539.378	19.11
539.575	19.06
539.773	19.06
539.97	19.1
540.168	19.11
540.366	19.11
540.563	19.13
540.761	19.12
540.958	19.15
541.155	19.18
541.353	19.2
541.55	19.2
541.748	19.23
541.945	19.26
542.143	19.29
542.34	19.37
542.537	19.42
542.735	19.41
542.932	19.45
543.129	19.44
543.327	19.56
543.524	19.72
543.721	19.73
543.919	19.77
544.116	19.84
544.313	19.99
544.51	20
544.708	20.09
544.905	20.09
545.102	20.25
545.299	20.29
545.496	20.22
545.693	20.19
545.891	20.34
546.088	20.4
546.285	20.43
546.482	20.4
546.679	20.43
546.876	20.41
547.073	20.48
547.27	20.5
547.467	20.49
547.664	20.54
547.861	20.57
548.058	20.6
548.255	20.72
548.452	20.77
548.649	20.79
548.846	20.84
549.043	20.88
549.24	20.9
549.437	20.79
549.633	20.93
549.83	20.98
550.027	21.11
550.224	21.06
550.421	20.99
550.618	21
550.814	21.07
551.011	21.01
551.208	21.07
551.405	21.13
551.601	21.17
551.798	21.13
551.995	21.08
552.191	21.02
552.388	21.09
552.585	21.1
552.781	21.07
552.978	20.97
553.175	21.09
553.371	21.09
553.568	21.03
553.764	21.07
553.961	21.1
554.157	21.24
554.354	21.27
554.55	21.18
554.747	21.24
554.943	21.33
555.14	21.5
555.336	21.41
555.533	21.46
555.729	21.64
555.926	21.67
556.122	21.84
556.318	21.86
556.515	21.88
556.711	21.96
556.907	22.18
557.104	22.21
557.3	22.21
557.496	22.32
557.693	22.28
557.889	22.31
558.085	22.44
558.281	22.43
558.478	22.46
558.674	22.61
558.87	22.54
559.066	22.43
559.262	22.49
559.459	22.46
559.655	22.49
559.851	22.49
560.047	22.51
560.243	22.48
560.439	22.51
560.635	22.54
560.831	22.36
561.027	22.4
561.223	22.42
561.419	22.48
561.615	22.54
561.811	22.64
562.007	22.68
562.203	22.68
562.399	22.71
562.595	22.69
562.791	22.75
562.987	22.87
563.183	23
563.379	23.06
563.575	22.93
563.771	22.99
563.966	22.93
564.162	22.98
564.358	23.14
564.554	23.24
564.75	23.29
564.945	23.33
565.141	23.43
565.337	23.58
565.533	23.56
565.728	23.64
565.924	23.6
566.12	23.72
566.315	23.77
566.511	23.69
566.707	23.63
566.902	23.65
567.098	23.75
567.293	23.66
567.489	23.61
567.684	23.65
567.88	23.71
568.076	23.8
568.271	23.83
568.467	23.89
568.662	23.96
568.858	24.02
569.053	24.03
569.248	24.01
569.444	24.15
569.639	24.28
569.835	24.31
570.03	24.37
570.225	24.35
570.421	24.39
570.616	24.45
570.812	24.53
571.007	24.61
571.202	24.61
571.397	24.56
571.593	24.53
571.788	24.42
571.983	24.56
572.178	24.47
572.374	24.48
572.569	24.49
572.764	24.46
572.959	24.48
573.154	24.45
573.35	24.43
573.545	24.46
573.74	24.46
573.935	24.51
574.13	24.38
574.325	24.35
574.52	24.51
574.715	24.5
574.91	24.53
575.105	24.57
575.3	24.5
575.495	24.65
575.69	24.6
575.885	24.74
576.08	24.8
576.275	24.89
576.47	25.08
576.665	24.98
576.86	24.93
577.055	24.98
577.25	24.97
577.444	25.05
577.639	25.01
577.834	25.27
578.029	25.23
578.224	25.17
578.418	25.12
578.613	25.18
578.808	25.24
579.003	25.19
579.197	25.22
579.392	25.15
579.587	25.26
579.781	25.21
579.976	25.03
580.171	24.92
580.365	24.94
580.56	25.03
580.755	25
580.949	25.08
581.144	25.2
581.338	25.2
581.533	25.12
581.727	25.14
581.922	25.25
582.116	25.46
582.311	25.54
582.505	25.6
582.7	25.6
582.894	25.75
583.089	25.7
583.283	25.75
583.478	25.8
583.672	25.84
583.866	25.95
584.061	25.89
584.255	25.75
584.449	25.86
584.644	25.82
584.838	25.87
585.032	25.84
585.226	25.86
585.421	25.88
585.615	25.93
585.809	25.97
586.003	25.98
586.198	26
586.392	26.11
586.586	26.09
586.78	26.17
586.974	26.16
587.168	26.13
587.363	26.09
587.557	26.02
587.751	25.91
587.945	25.95
588.139	25.89
588.333	25.86
588.527	25.85
588.721	25.84
588.915	25.72
589.109	25.77
589.303	25.68
589.497	25.62
589.691	25.68
589.885	25.71
590.079	25.86
590.273	25.78
590.466	25.83
590.66	25.78
590.854	25.81
591.048	25.91
591.242	26
591.436	26.13
591.629	26.47
591.823	26.42
592.017	26.6
592.211	26.61
592.404	26.61
592.598	26.79
592.792	26.8
592.986	26.89
593.179	26.91
593.373	26.87
593.567	26.88
593.76	26.77
593.954	27.01
594.147	26.85
594.341	26.89
594.535	27
594.728	26.9
594.922	26.99
595.115	26.92
595.309	26.88
595.502	26.83
595.696	26.77
595.889	26.78
596.083	26.61
596.276	26.64
596.47	26.67
596.663	26.68
596.856	26.7
597.05	26.73
597.243	26.67
597.437	26.66
597.63	26.69
597.823	26.75
598.017	26.74
598.21	26.92
598.403	27.05
598.596	26.95
598.79	26.9
598.983	26.88
599.176	26.85
599.369	27.11
599.563	27.21
599.756	27.23
599.949	27.26
600.142	27.14
600.335	26.92
600.528	26.77
600.722	26.73
600.915	26.69
601.108	26.74
601.301	26.77
601.494	26.65
601.687	26.71
601.88	26.61
602.073	26.55
602.266	26.72
602.459	26.82
602.652	26.9
602.845	26.86
603.038	26.8
603.231	26.99
603.424	27.02
603.617	27
603.809	27.06
604.002	27.03
604.195	27.17
604.388	27.06
604.581	27.15
604.774	27.14
604.966	27.27
605.159	27.44
605.352	27.22
605.545	27.08
605.737	27.13
605.93	27.05
606.123	27.34
606.316	27.31
606.508	27.5
606.701	27.47
606.894	27.55
607.086	27.47
607.279	27.4
607.471	27.45
607.664	27.63
607.857	27.7
608.049	27.71
608.242	27.62
608.434	27.6
608.627	27.6
608.819	27.65
609.012	27.75
609.204	27.9
609.397	27.9
609.589	27.99
609.782	28.04
609.974	28.14
610.166	28.15
610.359	28.26
610.551	28.11
610.743	28.07
610.936	28
611.128	27.88
611.32	27.78
611.513	28.03
611.705	28
611.897	27.83
612.09	27.65
612.282	27.83
612.474	27.55
612.666	27.79
612.858	27.76
613.051	27.71
613.243	27.69
613.435	27.79
613.627	27.61
613.819	27.53
614.011	27.76
614.203	27.79
614.395	27.75
614.588	27.86
614.78	27.87
614.972	27.97
615.164	27.91
615.356	27.76
615.548	27.68
615.74	27.71
615.932	27.58
616.124	27.34
616.315	27.4
616.507	27.22
616.699	27.24
616.891	27.17
617.083	27.15
617.275	27.38
617.467	27.44
617.659	27.42
617.85	27.65
618.042	27.72
618.234	27.77
618.426	27.84
618.618	27.95
618.809	28.03
619.001	28
619.193	28
619.384	27.88
619.576	27.85
619.768	27.92
619.959	27.49
620.151	27.62
620.343	27.66
620.534	27.73
620.726	27.66
620.917	27.66
621.109	27.55
621.301	27.49
621.492	27.35
621.684	27.44
621.875	27.48
622.067	27.7
622.258	27.85
622.45	27.87
622.641	27.83
622.832	27.91
623.024	27.93
623.215	28.06
623.407	28.11
623.598	28.29
623.789	28.19
623.981	28.11
624.172	28.18
624.363	27.99
624.555	28
624.746	27.95
624.937	27.78
625.129	27.91
625.32	27.78
625.511	27.87
625.702	27.88
625.893	28.02
626.085	28.02
626.276	27.96
626.467	28.16
626.658	28.04
626.849	27.93
627.04	28
627.231	27.85
627.422	28.18
627.614	28.16
627.805	28.16
627.996	28.12
628.187	28.21
628.378	28.07
628.569	27.9
628.76	28.21
628.951	28.26
629.142	28.35
629.332	28.27
629.523	28.19
629.714	28.19
629.905	28.38
630.096	28.49
630.287	28.52
630.478	28.65
630.669	28.6
630.859	28.47
631.05	28.63
631.241	28.61
631.432	28.61
631.623	28.53
631.813	28.5
632.004	28.2
632.195	28.06
632.385	27.88
632.576	27.81
632.767	27.85
632.957	27.88
633.148	27.87
633.339	27.94
633.529	28.07
633.72	28.19
633.91	28.2
634.101	28.2
634.292	28.26
634.482	28.29
634.673	28.42
634.863	28.49
635.054	28.5
635.244	28.43
635.435	28.35
635.625	28.27
635.815	28.19
636.006	27.95
636.196	28.03
636.387	28.07
636.577	27.98
636.767	28.01
636.958	28.08
637.148	28.14
637.338	27.91
637.529	28.02
637.719	28.13
637.909	27.99
638.099	28.18
638.29	28.16
638.48	28.26
638.67	28.44
638.86	28.5
639.05	28.23
639.241	28.1
639.431	28.21
639.621	28.06
639.811	28.07
640.001	28.14
640.191	28.14
640.381	28.25
640.571	28.19
640.761	28.17
640.951	27.85
641.141	27.92
641.331	27.79
641.521	27.92
641.711	28.18
641.901	28.24
642.091	28.28
642.281	28.25
642.471	28.37
642.661	28.22
642.851	28.37
643.041	28.65
643.231	28.75
643.42	28.94
643.61	28.86
643.8	28.84
643.99	28.71
644.18	28.59
644.369	28.8
644.559	28.4
644.749	28.5
644.939	28.33
645.128	28.29
645.318	28.23
645.508	28.06
645.697	28.12
645.887	28.04
646.076	28
646.266	28.08
646.456	27.88
646.645	28.23
646.835	28.2
647.024	28.33
647.214	28.28
647.403	28.36
647.593	28.44
647.782	28.41
647.972	28.58
648.161	28.75
648.351	28.76
648.54	28.89
648.73	28.81
648.919	28.96
649.108	29
649.298	29.05
649.487	29.11
649.677	29.09
649.866	29.12
650.055	28.9
650.244	28.77
650.434	28.87
650.623	28.91
650.812	28.78
651.002	28.57
651.191	28.45
651.38	28.41
651.569	28.3
651.758	28.29
651.947	28.61
652.137	28.42
652.326	28.64
652.515	28.72
652.704	28.58
652.893	28.75
653.082	28.94
653.271	29.09
653.46	29.04
653.649	29.07
653.838	29.26
654.027	29.14
654.216	29.26
654.405	29.03
654.594	28.85
654.783	28.77
654.972	28.84
655.161	28.63
655.35	28.43
655.539	28.77
655.728	28.77
655.916	28.44
656.105	28.29
656.294	28.56
656.483	28.62
656.672	28.56
656.86	28.66
657.049	28.52
657.238	28.76
657.427	28.88
657.615	28.78
657.804	28.84
657.993	29.1
658.181	29.19
658.37	29.16
658.559	29.14
658.747	29.19
658.936	29.15
659.125	29.14
659.313	29.02
659.502	28.91
659.69	28.62
659.879	28.67
660.067	28.62
660.256	28.45
660.444	28.37
660.633	28.51
660.821	28.79
661.01	28.89
661.198	28.79
661.387	28.94
661.575	29.03
661.763	29.37
661.952	29.44
662.14	29.49
662.328	29.38
662.517	29.42
662.705	29.34
662.893	28.98
663.082	29.05
663.27	29.19
663.458	29.13
663.646	28.95
663.834	28.77
664.023	28.69
664.211	28.53
664.399	28.66
664.587	28.56
664.775	28.41
664.963	28.55
665.152	28.47
665.34	28.52
665.528	28.5
665.716	28.63
665.904	28.7
666.092	28.53
666.28	28.5
666.468	28.76
666.656	28.72
666.844	29.03
667.032	28.94
667.22	29.24
667.408	29.06
667.596	29.12
667.784	29.02
667.971	28.92
668.159	28.83
668.347	29.02
668.535	28.8
668.723	28.71
668.911	28.54
669.098	28.64
669.286	28.28
669.474	28.31
669.662	28.32
669.849	28.54
670.037	28.35
670.225	28.53
670.413	28.41
670.6	28.55
670.788	28.66
670.976	28.78
671.163	28.73
671.351	28.95
671.538	29.23
671.726	29.32
671.913	29.28
672.101	29.66
672.289	29.82
672.476	29.86
672.664	29.75
672.851	29.97
673.039	29.83
673.226	29.85
673.413	29.76
673.601	29.51
673.788	29.12
673.976	29.07
674.163	28.97
674.35	28.84
674.538	28.65
674.725	28.82
674.912	28.37
675.1	28.38
675.287	28.55
675.474	28.4
675.662	28.59
675.849	28.89
676.036	28.85
676.223	28.71
676.411	28.71
676.598	28.63
676.785	28.46
676.972	28.71
677.159	28.46
677.346	28.28
677.533	28.37
677.721	28.4
677.908	28.45
678.095	28.62
678.282	28.77
678.469	28.78
678.656	28.85
678.843	28.8
679.03	28.89
679.217	29.16
679.404	29.22
679.591	29.28
679.778	29.15
679.964	29.24
680.151	29.36
680.338	29.34
680.525	29.44
680.712	29.75
680.899	30.03
681.086	29.82
681.272	29.85
681.459	29.62
681.646	29.64
681.833	29.51
682.02	29.27
682.206	28.97
682.393	29.06
682.58	28.8
682.766	28.55
682.953	28.33
683.14	28.85
683.326	28.81
683.513	29.16
683.7	29.07
683.886	29.16
684.073	29.18
684.259	29.35
684.446	29.44
684.632	29.86
684.819	29.85
685.005	29.82
685.192	29.88
685.378	29.86
685.565	29.9
685.751	29.76
685.938	29.96
686.124	30.08
686.31	30.02
686.497	29.84
686.683	29.48
686.87	29.34
687.056	29.3
687.242	29.01
687.429	28.97
687.615	28.95
687.801	29.14
687.987	29.18
688.174	29.34
688.36	29.64
688.546	29.86
688.732	29.93
688.918	30.3
689.105	30.3
689.291	30.32
689.477	30.23
689.663	30.07
689.849	30.08
690.035	29.99
690.221	29.69
690.407	29.75
690.593	29.47
690.779	29.52
690.965	29.37
691.151	29.45
691.337	29.27
691.523	29.28
691.709	29.58
691.895	29.98
692.081	29.97
692.267	30.13
692.453	29.76
692.639	29.75
692.825	30
693.011	30.22
693.196	30.26
693.382	30.45
693.568	30.52
693.754	30.55
693.94	30.17
694.125	30.21
694.311	29.96
694.497	29.65
694.682	29.95
694.868	29.8
695.054	29.57
695.239	29.58
695.425	29.49
695.611	29.64
695.796	29.4
695.982	29.55
696.168	29.47
696.353	29.72
696.539	29.99
696.724	29.91
696.91	29.66
697.095	29.8
697.281	29.55
697.466	29.61
697.652	29.64
697.837	29.8
698.023	29.44
698.208	29.5
698.393	29.49
698.579	29.46
698.764	29.44
698.949	29.5
699.135	29.1
699.32	29.33
699.505	29.28
699.691	29.2
699.876	29.08
700.061	29.34
700.246	29.65
700.432	29.4
700.617	29.61
700.802	29.31
700.987	29.3
701.172	29.91
701.358	29.97
701.543	30.01
701.728	30.03
701.913	30.22
702.098	30.3
702.283	29.77
702.468	30.22
702.653	30.1
702.838	30.47
703.023	30.52
703.208	30.23
703.393	30.25
703.578	30.18
703.763	29.89
703.948	29.61
704.133	29.66
704.318	29.72
704.503	29.53
704.688	29.54
704.873	29.07
705.057	29.28
705.242	29.66
705.427	29.65
705.612	29.32
705.797	29.73
705.981	29.89
706.166	29.85
706.351	29.92
706.536	29.91
706.72	29.71
706.905	30.19
707.09	29.83
707.274	29.06
707.459	29.38
707.644	29.82
707.828	29.9
708.013	29.35
708.197	29.2
708.382	29.13
708.567	28.8
708.751	29.04
708.936	28.95
709.12	29.32
709.305	29.88
709.489	29.58
709.673	29.43
709.858	29.38
710.042	30.04
710.227	30.32
710.411	30.37
710.596	30.73
710.78	30.67
710.964	30.68
711.149	30.83
711.333	31.08
711.517	31.24
711.702	31.45
711.886	31.32
712.07	30.81
712.254	30.5
712.438	30.51
712.623	30.36
712.807	30.15
712.991	30.45
713.175	30.39
713.359	30.08
713.544	29.61
713.728	29.48
713.912	29.29
714.096	29.5
714.28	29.36
714.464	29.64
714.648	29.84
714.832	30.19
715.016	30.05
715.2	29.93
715.384	29.8
715.568	30.31
715.752	30.23
715.936	30.61
716.12	30.32
716.304	30.79
716.488	30.43
716.671	30.38
716.855	30.23
717.039	30.34
717.223	30.31
717.407	30.15
717.59	29.77
717.774	29.68
717.958	29.35
718.142	29.54
718.325	29.44
718.509	29.32
718.693	29.03
718.877	28.95
719.06	28.88
719.244	28.7
719.428	29.1
719.611	29.13
719.795	29.86
719.978	30.22
720.162	30.45
720.345	30.59
720.529	30.66
720.713	30.96
720.896	31.11
721.08	31.07
721.263	30.86
721.446	30.55
721.63	30.29
721.813	29.69
721.997	29.22
722.18	29.05
722.364	28.55
722.547	28.38
722.73	27.9
722.914	27.68
723.097	27.37
723.28	28.15
723.464	28.29
723.647	29.15
723.83	29.4
724.013	29.79
724.197	30.28
724.38	30.48
724.563	30.54
724.746	30.74
724.929	30.81
725.112	31.29
725.296	31.32
725.479	31.41
725.662	30.77
725.845	30.59
726.028	30.47
726.211	29.92
726.394	30.19
726.577	30.71
726.76	30.83
726.943	30.49
727.126	30.02
727.309	29.6
727.492	30.09
727.675	30.1
727.858	29.85
728.041	29.9
728.224	30.37
728.407	30.3
728.589	29.83
728.772	29.96
728.955	29.78
729.138	29.61
729.321	29.6
729.503	28.87
729.686	28.91
729.869	28.74
730.052	28.46
730.234	28.27
730.417	28.27
730.6	28.82
730.782	28.98
730.965	29.2
731.148	29.45
731.33	29.26
731.513	29.63
731.695	29.85
731.878	30.26
732.061	30.17
732.243	30.45
732.426	30.15
732.608	29.77
732.791	29.64
732.973	30.18
733.156	30.26
733.338	30.41
733.52	30.14
733.703	29.96
733.885	30.15
734.068	30.3
734.25	30.6
734.432	30.42
734.615	30.37
734.797	30.13
734.979	29.83
735.162	29.92
735.344	30.09
735.526	30.18
735.708	30.51
735.891	30.64
736.073	30.49
736.255	29.88
736.437	30.66
736.619	30.84
736.802	31.19
736.984	31.4
737.166	31.17
737.348	31.34
737.53	31.23
737.712	31.32
737.894	30.91
738.076	31.09
738.258	30.96
738.44	30.46
738.622	30.24
738.804	29.88
738.986	30.29
739.168	29.78
739.35	29.97
739.532	30.06
739.714	29.44
739.896	29.74
740.078	30
740.259	30.11
740.441	30.7
740.623	31.2
740.805	31.32
740.987	30.44
741.168	31.16
741.35	30.9
741.532	30.86
741.714	31.24
741.895	30.9
742.077	30.99
742.259	30.47
742.44	30.1
742.622	29.53
742.804	29.53
742.985	29.76
743.167	29.46
743.348	29.34
743.53	29.79
743.711	29.73
743.893	29.68
744.075	29.31
744.256	29.7
744.438	29.62
744.619	29.74
744.8	30.01
744.982	30.53
745.163	31.16
745.345	30.99
745.526	30.79
745.707	30.41
745.889	30.39
746.07	30.69
746.252	30.57
746.433	30.92
746.614	31.05
746.795	31.5
746.977	30.64
747.158	30.55
747.339	30.54
747.52	30.47
747.702	30.74
747.883	30.39
748.064	29.73
748.245	29.7
748.426	29.36
748.607	29.49
748.788	28.66
748.97	28.93
749.151	28.28
749.332	28.77
749.513	28.67
749.694	28.44
749.875	29.41
750.056	29.96
750.237	30.17
750.418	29.88
750.599	29.48
750.78	29.39
750.96	29.06
751.141	29.4
751.322	29.22
751.503	29.66
751.684	29.84
751.865	29.36
752.046	28.85
752.226	28.87
752.407	29.11
752.588	29.19
752.769	29.88
752.949	29.95
753.13	30.6
753.311	29.94
753.492	29.8
753.672	29.98
753.853	30.05
754.034	30.07
754.214	29.94
754.395	29.8
754.575	30.15
754.756	29.25
754.937	29.57
755.117	29.26
755.298	29.46
755.478	29.58
755.659	29.6
755.839	29.14
756.02	29.86
756.2	29.63
756.381	29.8
756.561	30.24
756.741	30.63
756.922	30.98
757.102	31.14
757.283	31.66
757.463	31.55
757.643	31.59
757.823	32.82
758.004	32.63
758.184	32.5
758.364	32.77
758.545	32.43
758.725	32.33
758.905	32.34
759.085	31.91
759.265	31.56
759.446	31.13
759.626	30.9
759.806	29.63
759.986	29.76
760.166	30.37
760.346	30.21
760.526	30.26
760.706	30.12
760.886	29.66
761.066	29.7
761.246	30.16
761.426	30.57
761.606	30.77
761.786	31.24
761.966	31.06
762.146	31.02
762.326	31.01
762.506	30.72
762.686	30.71
762.866	30.83
763.046	30.78
763.225	30.4
763.405	30.21
763.585	30.23
763.765	30.23
763.945	29.84
764.124	29.84
764.304	30.12
764.484	30.78
764.664	30.89
764.843	30.77
765.023	31.07
765.203	30.97
765.382	31.15
765.562	30.83
765.741	30.89
765.921	31.69
766.101	32.16
766.28	31.68
766.46	30.48
766.639	30.13
766.819	30.54
766.998	30.17
767.178	30.57
767.357	30.3
767.537	30.17
767.716	29.72
767.896	28.55
768.075	27.72
768.254	26.98
768.434	27.5
768.613	28.14
768.792	27.71
768.972	28.02
769.151	28.05
769.33	27.6
769.51	28.31
769.689	28.98
769.868	29.76
770.047	30.01
770.226	30.93
770.406	31.05
770.585	31.07
770.764	31.26
770.943	30.78
771.122	30.91
771.301	31.39
771.48	30.99
771.66	30.19
771.839	30.81
772.018	30.35
772.197	29.6
772.376	29.74
772.555	29.77
772.734	28.51
772.913	29.26
773.092	28.8
773.271	28.87
773.449	29.06
773.628	29.42
773.807	29.05
773.986	29.37
774.165	30.32
774.344	30.29
774.523	30.44
774.701	31.55
774.88	30.61
775.059	31.08
775.238	31.16
775.417	31.59
775.595	31.87
775.774	31.42
775.953	31.45
776.131	30.9
776.31	30.34
776.489	29.7
776.667	29.58
776.846	30.24
777.025	30.52
777.203	29.88
777.382	29.53
777.56	28.69
777.739	28.3
777.917	28.42
778.096	29.18
778.274	29.21
778.453	29.37
778.631	29.7
778.81	29.71
778.988	28.76
779.166	29.26
779.345	29.39
779.523	30.17
779.702	30.53
779.88	30.42
780.058	29.6
780.237	29.72
780.415	29.55
780.593	29.78
780.771	29.14
780.95	30.58
781.128	30.44
781.306	29.46
781.484	29.53
781.662	29.61
781.841	29.75
782.019	30.05
782.197	29.56
782.375	28.89
782.553	28.74
782.731	29.69
782.909	28.62
783.087	29.06
783.265	30.21
783.443	30.09
783.621	29.91
783.799	29.67
783.977	29.69
784.155	30.71
784.333	32.51
784.511	32.29
784.689	30.8
784.867	30.37
785.045	30.21
785.223	30.23
785.4	30.39
785.578	30.87
785.756	31.14
785.934	31.37
786.112	31.28
786.289	30.89
786.467	31.64
786.645	32.2
786.823	32.65
787	32.99
787.178	31.65
787.356	31.42
787.533	30.88
787.711	31.98
787.889	32.43
788.066	32.55
788.244	32.63
788.421	32.7
788.599	33.35
788.776	32.93
788.954	32.92
789.131	33.82
789.309	34.02
789.486	33.73
789.664	32.17
789.841	32.08
790.019	32.14
790.196	31.76
790.373	31
790.551	30.51
790.728	30.94
790.906	30.97
791.083	30.68
791.26	31.41
791.437	32.02
791.615	32.37
791.792	31.71
791.969	31.25
792.146	30.2
792.324	30.16
792.501	30.31
792.678	30.35
792.855	29.46
793.032	29
793.209	27.94
793.387	27.61
793.564	27.26
793.741	27.22
793.918	27.13
794.095	28.62
794.272	28.28
794.449	28.18
794.626	28.86
794.803	29.07
794.98	30.36
795.157	30.13
795.334	30.54
795.511	30.14
795.688	30.87
795.864	31.07
796.041	31.5
796.218	31.79
796.395	32.11
796.572	31.21
796.749	31.65
796.925	30.95
797.102	31.18
797.279	31.66
797.456	33.1
797.632	32.55
797.809	32.68
797.986	31.35
798.162	31.29
798.339	30.87
798.516	31.31
798.692	29.82
798.869	29.89
799.046	30.53
799.222	30.15
799.399	29.13
799.575	29.78
799.752	29.11
799.928	29.81
800.105	29.76
800.281	29.6
800.458	29.59
800.634	31.23
800.811	32.19
800.987	30.5
801.163	30.77
801.34	31.55
801.516	31.28
801.692	31.26
801.869	30.47
802.045	30.52
802.221	30.72
802.398	31.12
802.574	31.38
802.75	29.52
802.926	30.57
803.103	31.23
803.279	30.62
803.455	29.41
803.631	30.41
803.807	31.18
803.983	31.03
804.16	30.98
804.336	30.5
804.512	28.92
804.688	30.09
804.864	29.63
805.04	27.99
805.216	28.17
805.392	28.46
805.568	28.55
805.744	28.27
805.92	28.46
806.096	29.54
806.272	29.69
806.448	31.26
806.623	31.02
806.799	32.04
806.975	32.12
807.151	32.29
807.327	32.2
807.503	31.24
807.678	30.79
807.854	30.02
808.03	28.66
808.206	28.54
808.381	27.58
808.557	27.49
808.733	26.36
808.908	27.54
809.084	27.33
809.26	28.18
809.435	28.67
809.611	28.92
809.787	29.42
809.962	29.47
810.138	28.76
810.313	30.23
810.489	29.97
810.664	30.42
810.84	30.04
811.015	30.32
811.191	31.36
811.366	30.98
811.542	31.33
811.717	31.55
811.892	31.88
812.068	32.48
812.243	30.44
812.419	30.24
812.594	30.98
812.769	31
812.944	30.39
813.12	30.36
813.295	30.41
813.47	30.31
813.645	30.07
813.821	29.84
813.996	30.19
814.171	30.62
814.346	31.37
814.521	30.26
814.697	31.58
814.872	31.94
815.047	31.59
815.222	32.23
815.397	31.71
815.572	32.03
815.747	31.85
815.922	30.01
816.097	31.02
816.272	31.24
816.447	32
816.622	30.3
816.797	29.77
816.972	28.31
817.147	28.38
817.322	28
817.496	28.66
817.671	29.21
817.846	29.46
818.021	29.24
818.196	28.86
818.371	27.81
818.545	27.88
818.72	28.4
818.895	28.7
819.069	29.03
819.244	29.96
819.419	29.54
819.594	28.61
819.768	29.95
819.943	29.89
820.117	29.95
820.292	30.89
820.467	30.99
820.641	30.85
820.816	30.92
820.99	30.53
821.165	30.62
821.339	30.84
821.514	31.24
821.688	31.11
821.863	30.87
822.037	30.9
822.212	30.84
822.386	30.88
822.56	31.18
822.735	31.32
822.909	31.43
823.084	31.4
823.258	31.12
823.432	31.25
823.606	31.08
823.781	31.35
823.955	31.25
824.129	31.2
824.303	31.43
824.478	31.16
824.652	30.71
824.826	30.93
825	30.74
825.174	30.58
825.348	30.25
825.523	30.65
825.697	30.25
825.871	30.29
826.045	30.04
826.219	29.54
826.393	29.83
826.567	30.16
826.741	30.01
826.915	29.62
827.089	30.1
827.263	29.91
827.437	29.66
827.611	29.81
827.784	30.11
827.958	30.37
828.132	30.72
828.306	30.34
828.48	30.51
828.654	30.86
828.827	31.73
829.001	31.94
829.175	32.31
829.349	32.4
829.522	33.05
829.696	33.04
829.87	32.64
830.044	32.63
830.217	32.33
830.391	31.37
830.565	30.5
830.738	29.72
830.912	29.08
831.085	28.41
831.259	28.25
831.432	27.81
831.606	27.81
831.779	27.86
831.953	26.89
832.126	26.76
832.3	27.61
832.473	28.33
832.647	28.93
832.82	29.48
832.994	29.44
833.167	29.72
833.34	29.48
833.514	29.98
833.687	30.43
833.86	31.14
834.034	31.71
834.207	32.26
834.38	31.23
834.553	31.07
834.727	31.02
834.9	31.53
835.073	30.77
835.246	31.16
835.419	30.93
835.593	31.05
835.766	30.74
835.939	30.11
836.112	29.31
836.285	29.75
836.458	30.85
836.631	30.8
836.804	31.72
836.977	33.48
837.15	33.62
837.323	32.48
837.496	31.78
837.669	31.53
837.842	32.45
838.015	32.69
838.188	32.23
838.361	30.36
838.533	28.39
838.706	27.19
838.879	25.47
839.052	24.95
839.225	26.9
839.398	26.22
839.57	26.31
839.743	27.1
839.916	28.01
840.088	29.69
840.261	31.1
840.434	33.3
840.607	33.46
840.779	34.76
840.952	33.18
841.124	31.19
841.297	32.9
841.47	34.76
841.642	34.52
841.815	35.15
841.987	35.55
842.16	34.86
842.332	35.41
842.505	35.45
842.677	35.24
842.85	38.43
843.022	39.88
843.194	39.72
843.367	37.65
843.539	36.29
843.712	33.8
843.884	32.3
844.056	33.37
844.229	31.9
844.401	31.85
844.573	29.12
844.745	25.27
844.918	28.07
845.09	26.93
845.262	29.98
845.434	30.5
845.606	29.68
845.779	31.71
845.951	30.46
846.123	28.86
846.295	29.7
846.467	31.41
846.639	34.06
846.811	31.03
846.983	33.15
847.155	29.93
847.327	29.01
847.499	30.97
847.671	30.7
847.843	28.01
848.015	28.39
848.187	28.84
848.359	30
848.531	29.78
848.703	29.95
848.875	28.66
849.047	27.47
849.218	27.45
849.39	28.86
849.562	24.67
849.734	25.33
849.905	24.92
850.077	21.11
850.249	19.38
850.421	20.76
850.592	20.26
850.764	20.06
850.936	20.87
851.107	21.43
851.279	16.8
851.451	21.61
851.622	24.18
851.794	23.4
851.965	27.17
852.137	31.35
852.308	32.57
852.48	34.59
852.651	33.03
852.823	35.54
852.994	34.45
853.166	33.66
853.337	32.36
853.509	33.4
853.68	36.81
853.851	31.25
854.023	29.12
854.194	24.67
854.365	21.9
854.537	21.81
854.708	21.57
854.879	22.97
855.05	27.47
855.222	27.34
855.393	26.37
855.564	25.25
855.735	30.15
855.906	30.64
856.078	30.2
856.249	31.01
856.42	29.81
856.591	30.47
856.762	34.55
856.933	32.72
857.104	32.95
857.275	32.29
857.446	29.1
857.617	31.7
857.788	29.43
857.959	33.05
858.13	32.93
858.301	35.44
858.472	30.43
858.643	26.55
858.814	26.79
858.985	31.86
859.155	34.22
859.326	37.55
859.497	33.17
859.668	34.29
859.839	33.55
860.009	34.99
860.18	33.52
860.351	37.96
860.522	35.94
860.692	36.25
860.863	30.18
861.034	29.2
861.204	25.19
861.375	26.26
861.546	27.2
861.716	27.54
861.887	25.82
862.057	26.94
862.228	26.47
862.398	25.94
862.569	26.23
862.739	30.77
862.91	27.1
863.08	33.95
863.251	32.98
863.421	31.69
863.592	31.55
863.762	30.96
863.932	30.49
864.103	29.29
864.273	33.63
864.443	29.94
864.614	26.89
864.784	33.01
864.954	30.04
865.125	30.24
865.295	30.04
865.465	27.05
865.635	28.87
865.805	32.04
865.976	31.17
866.146	29.08
866.316	35.31
866.486	34.79
866.656	32.37
866.826	30.69
866.996	33.32
867.166	36
867.336	38.5
867.506	38.54
867.676	35.1
867.846	36.22
868.016	36.63
868.186	33.79
868.356	36.39
868.526	32.91
868.696	35.98
868.866	34.01
869.036	28.61
869.206	30.44
869.376	29.55
869.545	29.95
869.715	29.45
869.885	28.76
870.055	29.85
870.224	30.12
870.394	32.03
870.564	32.47
870.734	33.96
870.903	39.64
871.073	37.55
871.243	38.76
871.412	39.65
871.582	38.67
871.751	39.88
871.921	37.94
872.091	34
872.26	33.16
872.43	29.34
872.599	25.8
872.769	25.77
872.938	27.85
873.108	25.75
873.277	24.02
873.446	21.97
873.616	19.49
873.785	26.6
873.955	25.23
874.124	23.44
874.293	29.15
874.463	30.44
874.632	28.88
874.801	25.04
874.971	24.34
875.14	29.06
875.309	29.73
875.478	29.64
875.647	24.94
875.817	24.08
875.986	25.54
876.155	22.12
876.324	24.42
876.493	27.39
876.662	27.71
876.831	29.5
877	25.23
877.17	28.24
877.339	28.68
877.508	30.75
877.677	35.19
877.846	34.26
878.015	35.81
878.184	34.39
878.352	31.65
878.521	33.95
878.69	29.92
878.859	30.78
879.028	32.43
879.197	33.77
879.366	31.52
879.534	29.84
879.703	29.93
879.872	29.29
880.041	28.57
880.21	28.12
880.378	28.38
880.547	29.87
880.716	31.38
880.884	30.56
881.053	30.37
881.222	30.51
881.39	30.68
881.559	30.02
881.727	29.9
881.896	30.13
882.065	29.81
882.233	29.26
882.402	29.42
882.57	28.72
882.739	28.43
882.907	28.69
883.076	28.17
883.244	28.47
883.412	28.97
883.581	29.19
883.749	30.01
883.918	30.52
884.086	30.7
884.254	30.13
884.423	30.2
884.591	29.6
884.759	30.27
884.927	30.12
885.096	29.05
885.264	29.71
885.432	29.53
885.6	28.03
885.769	27.64
885.937	26.41
886.105	27.63
886.273	27.91
886.441	30.04
886.609	27.94
886.777	29.87
886.945	32.32
887.113	31.29
887.281	30.91
887.449	33.04
887.617	33.1
887.785	36.83
887.953	35.93
888.121	34.19
888.289	33.9
888.457	32.09
888.625	32.56
888.793	32.41
888.961	32.07
889.129	31.87
889.296	30.54
889.464	30.92
889.632	28.67
889.8	28.25
889.967	30.19
890.135	29.29
