Data from 2938578_Reflection_2.txt Node
Date: Sun Jun 14 21:29:39 EDT 2015
User: robert
Spectrometer: USB4E03002
Autoset integration time: false
Trigger mode: 4
Integration Time (sec): 1.000000E-1
Scans to average: 10
Electric dark correction enabled: true
Nonlinearity correction enabled: false
Boxcar width: 5
Stray light correction enabled: false
XAxis mode: Wavelengths
Stop averaging: false
Number of Pixels in Spectrum: 3648
>>>>>Begin Spectral Data<<<<<
177.575	263.66
177.794	288.85
178.014	3605.19
178.233	-9556.25
178.452	-526.93
178.672	-472.93
178.891	76.31
179.11	164.43
179.33	204.6
179.549	295.22
179.768	542.56
179.987	362.33
180.207	429
180.426	620.53
180.645	660.94
180.864	373.6
181.084	393.65
181.303	495.04
181.522	357.5
181.741	291.83
181.96	220.42
182.179	243.21
182.398	236.97
182.618	208.3
182.837	211.22
183.056	163.55
183.275	199.98
183.494	224.74
183.713	181.73
183.932	184.97
184.151	181.51
184.37	197.39
184.589	159.45
184.808	144.87
185.027	144.32
185.246	179.39
185.465	212.31
185.684	210.41
185.903	233.87
186.122	222.5
186.341	236.16
186.56	272.61
186.779	233.26
186.998	216.4
187.216	253.19
187.435	247.93
187.654	232.8
187.873	261.36
188.092	293.16
188.311	222.99
188.53	245.93
188.748	305.26
188.967	638.08
189.186	555.83
189.405	-2148.22
189.623	-50027.78
189.842	-730.89
190.061	-821.27
190.28	-954.14
190.498	-1959.59
190.717	-5392.76
190.936	1846.29
191.154	1925.95
191.373	641.95
191.592	1193.87
191.81	360.12
192.029	436.79
192.248	333.66
192.466	232.6
192.685	178.4
192.904	195.56
193.122	196.85
193.341	183.18
193.559	175.41
193.778	177.76
193.996	172.18
194.215	195.64
194.433	153.96
194.652	139.05
194.87	158.65
195.089	172.96
195.307	141.59
195.526	132.23
195.744	164.56
195.963	155.76
196.181	181.81
196.399	211.23
196.618	183.17
196.836	183.12
197.055	195.51
197.273	181.05
197.491	203.24
197.71	258.4
197.928	267.72
198.146	234.46
198.365	306.33
198.583	230.61
198.801	182.52
199.019	211.02
199.238	238.66
199.456	199.99
199.674	211.98
199.892	201.11
200.111	172.31
200.329	156.42
200.547	151.77
200.765	133.62
200.983	110.93
201.202	111.89
201.42	123.42
201.638	121.35
201.856	117.9
202.074	120.08
202.292	128.73
202.51	181.07
202.728	186.06
202.946	168.39
203.165	157.76
203.383	164.44
203.601	153.91
203.819	145.04
204.037	132.15
204.255	160.36
204.473	205.25
204.691	157.08
204.909	150.73
205.127	169.33
205.345	147.89
205.562	149.89
205.78	167.62
205.998	179.21
206.216	161.62
206.434	174.88
206.652	173.89
206.87	165.84
207.088	172.16
207.306	181.14
207.523	189.37
207.741	233.39
207.959	219.86
208.177	181.15
208.395	184.28
208.612	219.66
208.83	174.76
209.048	163.6
209.266	150.11
209.483	164.81
209.701	139.42
209.919	119.48
210.136	108.81
210.354	111.69
210.572	150.71
210.79	156.68
211.007	155.33
211.225	175.24
211.442	147.93
211.66	164.96
211.878	166.46
212.095	260.17
212.313	249.5
212.53	263.82
212.748	237.25
212.966	217.81
213.183	205.5
213.401	186.35
213.618	209.79
213.836	266.16
214.053	238.54
214.271	193.72
214.488	121.56
214.705	135.28
214.923	115.95
215.14	124.06
215.358	111.22
215.575	95.17
215.793	106.59
216.01	94.27
216.227	75.79
216.445	75.74
216.662	63.98
216.879	59.2
217.097	43.31
217.314	55.14
217.531	65.62
217.749	75.6
217.966	82.03
218.183	73.45
218.4	76.05
218.618	90.88
218.835	80.21
219.052	84.46
219.269	94.51
219.487	100.56
219.704	101
219.921	91.54
220.138	84.85
220.355	76.53
220.572	71.97
220.79	71.95
221.007	72.05
221.224	72.84
221.441	77.81
221.658	77.35
221.875	68.6
222.092	61.47
222.309	56.4
222.526	48.52
222.743	55.92
222.96	55.42
223.177	53.18
223.394	45.6
223.611	43.63
223.828	45.19
224.045	40.65
224.262	38.62
224.479	37.47
224.696	37.95
224.913	40.28
225.13	36.72
225.347	32.66
225.564	29.72
225.781	26.62
225.997	26.25
226.214	23.15
226.431	22.19
226.648	20.67
226.865	20.46
227.082	19.4
227.298	18.64
227.515	17.99
227.732	17.98
227.949	17.07
228.165	17.2
228.382	17.22
228.599	16.85
228.816	17.03
229.032	17
229.249	17.59
229.466	17.73
229.682	18.62
229.899	18.88
230.116	19.14
230.332	20.91
230.549	22.18
230.765	21.7
230.982	22.3
231.199	21.78
231.415	23.26
231.632	22.29
231.848	21.93
232.065	20.68
232.281	22.59
232.498	22.86
232.714	23.55
232.931	22.62
233.147	22.07
233.364	20.88
233.58	21.49
233.797	23.3
234.013	24.41
234.23	25.63
234.446	26.55
234.662	24.06
234.879	24.09
235.095	22.22
235.312	24.2
235.528	26.54
235.744	25.97
235.961	24.33
236.177	20.25
236.393	21.7
236.61	22.52
236.826	22.42
237.042	21.75
237.258	21.73
237.475	21.93
237.691	20.74
237.907	18.75
238.123	20.45
238.339	20.29
238.556	21.63
238.772	17.98
238.988	15.74
239.204	15.1
239.42	16.35
239.636	15.19
239.853	15.11
240.069	14.63
240.285	14.43
240.501	13.81
240.717	13.77
240.933	13.18
241.149	13.83
241.365	14.26
241.581	14.89
241.797	14.18
242.013	13.96
242.229	14.22
242.445	13.92
242.661	14.02
242.877	14.54
243.093	14.67
243.309	14.41
243.525	14.69
243.741	14.34
243.957	13.24
244.173	12.68
244.388	13.1
244.604	12.37
244.82	12.56
245.036	12.07
245.252	11.65
245.468	11.62
245.683	11.81
245.899	11.75
246.115	11.51
246.331	11.35
246.547	11.54
246.762	11.36
246.978	11.41
247.194	11.65
247.409	11.58
247.625	11.98
247.841	12.01
248.057	12.3
248.272	12.57
248.488	12.67
248.703	12.68
248.919	13.02
249.135	13.73
249.35	13.72
249.566	13.26
249.782	13.72
249.997	13.12
250.213	12.38
250.428	12.4
250.644	12
250.859	12.73
251.075	12.74
251.29	12.54
251.506	12.42
251.721	13.12
251.937	12.44
252.152	12.82
252.368	13.27
252.583	14.22
252.798	14.52
253.014	14.04
253.229	13
253.445	13.37
253.66	13.52
253.875	13.57
254.091	13.34
254.306	14.69
254.521	13.58
254.737	12.39
254.952	11.91
255.167	11.16
255.383	11.83
255.598	12.44
255.813	11.6
256.028	11.39
256.244	10.8
256.459	10.15
256.674	10.05
256.889	10.03
257.104	9.87
257.32	9.92
257.535	9.89
257.75	9.38
257.965	9.27
258.18	9.39
258.395	9.38
258.61	9.24
258.826	9
259.041	8.81
259.256	8.81
259.471	8.82
259.686	8.64
259.901	8.57
260.116	8.7
260.331	8.35
260.546	8.51
260.761	8.09
260.976	7.92
261.191	8.49
261.406	8.7
261.621	9.39
261.836	9.93
262.05	10.13
262.265	10.38
262.48	11.12
262.695	11.41
262.91	12.46
263.125	13.26
263.34	14.04
263.555	13.55
263.769	13.25
263.984	12.59
264.199	13.02
264.414	12.79
264.629	12.64
264.843	11.79
265.058	12.2
265.273	11.34
265.488	11.09
265.702	10.47
265.917	10.35
266.132	10.41
266.346	10.42
266.561	10.29
266.776	9.97
266.99	9.71
267.205	9.46
267.42	8.91
267.634	8.44
267.849	8.13
268.063	8.21
268.278	9.02
268.492	9.12
268.707	8.82
268.922	8.29
269.136	8.59
269.351	8.76
269.565	8.64
269.78	8.37
269.994	8.55
270.209	8.18
270.423	8.2
270.637	7.87
270.852	7.63
271.066	8.06
271.281	8.47
271.495	8.66
271.709	8.54
271.924	8.81
272.138	9.19
272.353	9.55
272.567	9.81
272.781	9.93
272.996	10
273.21	9.89
273.424	9.6
273.638	9.47
273.853	8.83
274.067	8.72
274.281	9.06
274.495	8.86
274.71	8.77
274.924	9.36
275.138	9.15
275.352	8.75
275.566	9.48
275.781	9.4
275.995	9.29
276.209	10.31
276.423	10.35
276.637	10.2
276.851	10.18
277.065	9.45
277.279	9.2
277.493	9.91
277.707	9.92
277.921	9.55
278.135	9.21
278.349	8.72
278.563	8.12
278.777	8.13
278.991	7.83
279.205	8.15
279.419	8.3
279.633	8.44
279.847	7.99
280.061	8.06
280.275	8.2
280.489	9.13
280.703	9.51
280.917	9.53
281.131	9.4
281.344	9.6
281.558	9.24
281.772	9.19
281.986	8.67
282.2	8.62
282.414	8.44
282.627	7.95
282.841	7.57
283.055	7.28
283.269	6.94
283.482	7.19
283.696	7.06
283.91	7.06
284.123	7.02
284.337	7.04
284.551	6.88
284.764	6.77
284.978	7.02
285.192	6.54
285.405	6.62
285.619	7.14
285.833	7.37
286.046	7.23
286.26	7.49
286.473	7.41
286.687	8.02
286.9	8.29
287.114	8.36
287.327	8.31
287.541	8.75
287.754	8.62
287.968	8.53
288.181	8.25
288.395	8.21
288.608	8.35
288.822	8.27
289.035	7.72
289.248	7.76
289.462	8.13
289.675	8.1
289.889	8.1
290.102	8.08
290.315	8.01
290.529	8.1
290.742	8.38
290.955	8.3
291.169	8.81
291.382	9.03
291.595	9.19
291.808	9.41
292.022	9.59
292.235	9.35
292.448	9.76
292.661	9.82
292.875	9.94
293.088	10.12
293.301	10.26
293.514	9.87
293.727	9.69
293.94	9.34
294.153	9.18
294.367	8.97
294.58	9.02
294.793	8.71
295.006	8.77
295.219	8.55
295.432	8.57
295.645	8.32
295.858	8.49
296.071	8.3
296.284	8.43
296.497	8.48
296.71	8.6
296.923	8.94
297.136	9.22
297.349	9.25
297.562	9.06
297.775	9.03
297.988	9.63
298.201	9.82
298.414	10.4
298.626	10.57
298.839	10.64
299.052	10.64
299.265	10.38
299.478	10.16
299.691	10.15
299.903	10.42
300.116	10.28
300.329	9.86
300.542	9.53
300.755	9.65
300.967	10.06
301.18	9.92
301.393	10.11
301.605	10.09
301.818	10.26
302.031	9.84
302.243	10.27
302.456	10.4
302.669	10.27
302.881	11.01
303.094	11.11
303.307	10.9
303.519	10.97
303.732	11.03
303.944	10.95
304.157	10.95
304.37	11.32
304.582	11.23
304.795	11.42
305.007	12.04
305.22	11.99
305.432	11.8
305.645	11.82
305.857	11.77
306.069	11.74
306.282	11.9
306.494	12.07
306.707	11.99
306.919	11.51
307.132	11.04
307.344	10.48
307.556	10.17
307.769	10.24
307.981	9.81
308.193	9.71
308.406	9.45
308.618	9.58
308.83	9.31
309.043	9.22
309.255	9.44
309.467	9.61
309.679	9.86
309.892	10
310.104	10.04
310.316	10.01
310.528	10.17
310.74	10.36
310.953	10.26
311.165	10.16
311.377	10.06
311.589	10.12
311.801	10.15
312.013	10.33
312.225	10.61
312.437	10.62
312.649	11.25
312.862	11.16
313.074	11.26
313.286	11.22
313.498	11.56
313.71	12.13
313.922	12.07
314.134	12.12
314.346	11.57
314.558	11.27
314.77	11.82
314.982	11.65
315.193	11.69
315.405	11.28
315.617	11
315.829	11
316.041	10.57
316.253	10.56
316.465	11.29
316.677	11.58
316.888	11.67
317.1	11.15
317.312	11.16
317.524	11.06
317.736	11.67
317.947	12.48
318.159	12.56
318.371	13.23
318.583	13.39
318.794	12.73
319.006	12.49
319.218	12.38
319.43	11.97
319.641	12.33
319.853	12.36
320.064	12.43
320.276	12.11
320.488	12.04
320.699	11.59
320.911	11.41
321.123	11.42
321.334	11.67
321.546	12.13
321.757	12.61
321.969	12.18
322.18	12.8
322.392	12.32
322.603	12.17
322.815	11.98
323.026	12.26
323.238	12.44
323.449	12.39
323.661	12.27
323.872	12.06
324.083	12.14
324.295	12.22
324.506	11.53
324.718	11.74
324.929	12.14
325.14	12.59
325.352	12.39
325.563	12.08
325.774	12.09
325.986	12.33
326.197	11.95
326.408	11.81
326.62	11.79
326.831	12.26
327.042	12.16
327.253	11.98
327.464	11.83
327.676	11.62
327.887	11.99
328.098	12.18
328.309	12.14
328.52	12.56
328.732	12.4
328.943	12.57
329.154	12.5
329.365	12.58
329.576	12.23
329.787	12.47
329.998	12.74
330.209	12.66
330.42	12.85
330.631	12.8
330.842	12.77
331.053	12.74
331.264	12.02
331.475	12.1
331.686	11.94
331.897	12.08
332.108	12.02
332.319	11.96
332.53	11.89
332.741	11.46
332.952	11.47
333.163	11.23
333.374	11.44
333.585	11.6
333.795	11.47
334.006	11.84
334.217	11.82
334.428	11.66
334.639	11.93
334.849	11.86
335.06	11.71
335.271	11.3
335.482	11.42
335.692	10.91
335.903	11.4
336.114	11.18
336.325	10.74
336.535	11.2
336.746	11.03
336.957	10.96
337.167	11.01
337.378	11.27
337.589	11.62
337.799	11.52
338.01	12.31
338.22	11.69
338.431	11.43
338.642	11.5
338.852	10.76
339.063	10.87
339.273	10.39
339.484	10.29
339.694	10.13
339.905	10.3
340.115	10.3
340.326	9.69
340.536	10.45
340.746	10.68
340.957	10.92
341.167	11.07
341.378	10.69
341.588	10.7
341.799	10.76
342.009	10.77
342.219	10.3
342.43	10.22
342.64	10.44
342.85	9.91
343.061	9.84
343.271	10.02
343.481	9.9
343.691	10.06
343.902	10.18
344.112	10.36
344.322	10.24
344.532	9.95
344.743	9.75
344.953	9.69
345.163	9.6
345.373	9.7
345.583	9.24
345.793	9.19
346.004	9.14
346.214	8.97
346.424	8.67
346.634	8.67
346.844	9.32
347.054	9.4
347.264	9.15
347.474	9.14
347.684	9.16
347.894	9.17
348.104	9.39
348.314	9.38
348.524	9.1
348.734	8.93
348.944	9.04
349.154	9.21
349.364	9.4
349.574	9.4
349.784	9.15
349.994	9.34
350.204	9.17
350.413	9.2
350.623	9.33
350.833	9.62
351.043	9.63
351.253	9.79
351.463	9.1
351.672	9.25
351.882	9.22
352.092	9.59
352.302	9.3
352.511	9.56
352.721	9.08
352.931	8.92
353.141	9.01
353.35	9.15
353.56	8.84
353.77	8.88
353.979	8.8
354.189	8.92
354.399	8.99
354.608	8.84
354.818	8.82
355.027	9.14
355.237	9.42
355.447	9.17
355.656	9.1
355.866	9.2
356.075	9.43
356.285	8.98
356.494	9.06
356.704	9.1
356.913	9.36
357.123	9.33
357.332	9.17
357.542	8.74
357.751	8.88
357.96	9.07
358.17	8.82
358.379	8.83
358.589	8.95
358.798	8.75
359.007	8.43
359.217	8.29
359.426	8.08
359.635	8.34
359.845	8.3
360.054	8.34
360.263	8.05
360.472	8.26
360.682	8.23
360.891	8.27
361.1	8.3
361.309	8.44
361.519	8.58
361.728	8.82
361.937	8.59
362.146	8.87
362.355	8.84
362.564	9.31
362.774	9.01
362.983	8.67
363.192	8.68
363.401	8.63
363.61	8.49
363.819	8.34
364.028	8.29
364.237	8.27
364.446	8.01
364.655	7.71
364.864	7.48
365.073	7.74
365.282	8.04
365.491	8.14
365.7	8.27
365.909	8.44
366.118	8.51
366.327	8.31
366.536	8.29
366.745	8.43
366.954	8.74
367.162	8.81
367.371	8.73
367.58	8.79
367.789	8.44
367.998	8.13
368.207	8.12
368.415	7.99
368.624	8.11
368.833	8.03
369.042	7.91
369.25	7.85
369.459	7.92
369.668	7.97
369.877	7.63
370.085	7.92
370.294	7.93
370.503	7.65
370.711	7.85
370.92	8.05
371.129	8.33
371.337	8.41
371.546	8.33
371.754	8.02
371.963	7.88
372.171	8.14
372.38	7.8
372.589	8.01
372.797	8.27
373.006	7.83
373.214	7.38
373.423	7.31
373.631	7.15
373.84	6.94
374.048	6.86
374.256	6.78
374.465	6.88
374.673	7.13
374.882	6.95
375.09	6.9
375.298	7.09
375.507	7.32
375.715	7.12
375.923	6.93
376.132	7.11
376.34	7.2
376.548	7.29
376.757	7.09
376.965	7.14
377.173	7.15
377.381	7.38
377.59	7.42
377.798	7.18
378.006	7.13
378.214	7.39
378.423	7.48
378.631	7.44
378.839	7.57
379.047	7.91
379.255	7.7
379.463	7.65
379.671	7.15
379.879	7.02
380.088	7.06
380.296	7.09
380.504	7.02
380.712	6.95
380.92	6.91
381.128	6.88
381.336	6.42
381.544	6.52
381.752	6.63
381.96	6.83
382.168	6.66
382.376	6.87
382.584	7.08
382.791	7.08
382.999	7.2
383.207	7.09
383.415	7.05
383.623	7.13
383.831	7.18
384.039	7.17
384.247	7.25
384.454	7.55
384.662	7.37
384.87	7.3
385.078	7.36
385.285	7.24
385.493	7.51
385.701	7.36
385.909	7.41
386.116	7.31
386.324	7.27
386.532	7.11
386.739	6.91
386.947	6.93
387.155	6.91
387.362	6.72
387.57	6.67
387.778	6.47
387.985	6.67
388.193	6.64
388.4	6.68
388.608	6.67
388.816	6.9
389.023	7
389.231	7.04
389.438	6.94
389.646	7.1
389.853	7.05
390.061	7.08
390.268	7
390.475	6.95
390.683	6.94
390.89	6.93
391.098	6.81
391.305	6.63
391.512	6.57
391.72	6.43
391.927	6.32
392.135	6.59
392.342	6.72
392.549	6.81
392.756	6.76
392.964	6.69
393.171	6.76
393.378	6.67
393.586	6.66
393.793	6.79
394	6.81
394.207	6.88
394.414	6.73
394.622	6.5
394.829	6.46
395.036	6.51
395.243	6.55
395.45	6.55
395.657	6.64
395.864	6.6
396.072	6.57
396.279	6.59
396.486	6.65
396.693	6.6
396.9	6.66
397.107	6.34
397.314	6.45
397.521	6.51
397.728	6.33
397.935	6.28
398.142	6.48
398.349	6.27
398.556	6.29
398.763	6.15
398.97	6.22
399.177	6.02
399.383	6.3
399.59	6.05
399.797	5.85
400.004	5.91
400.211	5.86
400.418	5.95
400.625	5.91
400.831	5.92
401.038	5.97
401.245	5.8
401.452	5.89
401.658	5.74
401.865	5.89
402.072	5.98
402.279	6.09
402.485	6.04
402.692	5.78
402.899	5.77
403.105	5.73
403.312	5.77
403.519	5.81
403.725	5.89
403.932	6.06
404.138	6.02
404.345	6.05
404.552	5.89
404.758	6.02
404.965	6.09
405.171	6.03
405.378	5.89
405.584	5.83
405.791	5.83
405.997	5.75
406.204	5.93
406.41	5.86
406.617	5.96
406.823	5.89
407.029	5.95
407.236	6.07
407.442	6.33
407.649	6.65
407.855	6.73
408.061	6.76
408.268	6.75
408.474	6.31
408.68	6.41
408.887	6.21
409.093	6.33
409.299	6.22
409.505	5.94
409.712	5.8
409.918	5.62
410.124	5.56
410.33	5.45
410.537	5.45
410.743	5.59
410.949	5.54
411.155	5.67
411.361	5.65
411.567	5.55
411.773	5.63
411.98	5.57
412.186	5.83
412.392	5.68
412.598	5.77
412.804	5.75
413.01	5.66
413.216	5.53
413.422	5.58
413.628	5.52
413.834	5.56
414.04	5.5
414.246	5.57
414.452	5.36
414.658	5.45
414.864	5.39
415.07	5.42
415.275	5.44
415.481	5.5
415.687	5.31
415.893	5.32
416.099	5.2
416.305	5.34
416.511	5.27
416.716	5.23
416.922	5.23
417.128	5.28
417.334	5.24
417.539	5.24
417.745	5.19
417.951	5.27
418.157	5.25
418.362	5.35
418.568	5.31
418.774	5.32
418.979	5.38
419.185	5.33
419.391	5.26
419.596	5.23
419.802	5.2
420.008	5.31
420.213	4.7
420.419	4.67
420.624	4.69
420.83	4.61
421.035	4.62
421.241	4.6
421.446	4.6
421.652	4.6
421.857	4.59
422.063	4.59
422.268	4.45
422.474	5.03
422.679	5.02
422.885	4.85
423.09	4.92
423.295	4.91
423.501	4.91
423.706	4.9
423.911	4.87
424.117	4.86
424.322	4.92
424.527	4.99
424.733	5.04
424.938	5.12
425.143	5.28
425.349	5.24
425.554	5.22
425.759	5.17
425.964	5.24
426.169	5.19
426.375	5.24
426.58	5.2
426.785	5.13
426.99	5.14
427.195	5.12
427.4	4.95
427.605	5.17
427.811	5.18
428.016	5.25
428.221	5.27
428.426	5.3
428.631	5.21
428.836	5.19
429.041	5.22
429.246	5.18
429.451	5.11
429.656	5.19
429.861	5.04
430.066	5.12
430.271	5.09
430.476	5.01
430.681	5.07
430.886	5.08
431.09	5.15
431.295	5.16
431.5	5.08
431.705	5.1
431.91	5.07
432.115	4.99
432.32	5
432.524	4.95
432.729	5.01
432.934	5
433.139	5.07
433.343	4.95
433.548	4.85
433.753	5
433.958	5.16
434.162	5.25
434.367	5.35
434.572	5.31
434.776	5.19
434.981	5.09
435.186	5.13
435.39	5.13
435.595	5.15
435.799	5.23
436.004	5.03
436.209	4.76
436.413	4.66
436.618	4.59
436.822	4.47
437.027	4.58
437.231	4.62
437.436	4.6
437.64	4.49
437.845	4.42
438.049	4.34
438.253	4.45
438.458	4.58
438.662	4.59
438.867	4.68
439.071	4.79
439.275	4.78
439.48	4.81
439.684	4.79
439.888	4.87
440.093	4.98
440.297	5.01
440.501	4.97
440.706	4.85
440.91	4.93
441.114	4.76
441.318	4.67
441.523	4.66
441.727	4.53
441.931	4.56
442.135	4.52
442.339	4.52
442.543	4.53
442.748	4.57
442.952	4.65
443.156	4.59
443.36	4.68
443.564	4.76
443.768	4.74
443.972	4.78
444.176	4.68
444.38	4.69
444.584	4.66
444.788	4.59
444.992	4.52
445.196	4.53
445.4	4.46
445.604	4.37
445.808	4.38
446.012	4.33
446.216	4.39
446.42	4.54
446.624	4.49
446.828	4.49
447.032	4.55
447.235	4.54
447.439	4.51
447.643	4.57
447.847	4.7
448.051	4.67
448.254	4.7
448.458	4.71
448.662	4.67
448.866	4.66
449.069	4.62
449.273	4.57
449.477	4.65
449.681	4.65
449.884	4.68
450.088	4.68
450.292	4.58
450.495	4.63
450.699	4.62
450.902	4.57
451.106	4.55
451.31	4.6
451.513	4.62
451.717	4.52
451.92	4.55
452.124	4.6
452.327	4.56
452.531	4.53
452.734	4.62
452.938	4.58
453.141	4.61
453.345	4.58
453.548	4.61
453.752	4.65
453.955	4.7
454.158	4.64
454.362	4.49
454.565	4.51
454.769	4.8
454.972	4.69
455.175	4.72
455.379	4.63
455.582	4.66
455.785	4.47
455.988	4.41
456.192	4.37
456.395	4.37
456.598	4.38
456.801	4.38
457.005	4.2
457.208	4.21
457.411	4.13
457.614	4.15
457.817	4.18
458.021	4.17
458.224	4.22
458.427	4.26
458.63	4.31
458.833	4.3
459.036	4.29
459.239	4.3
459.442	4.29
459.645	4.3
459.848	4.31
460.051	4.29
460.254	4.37
460.457	4.34
460.66	4.34
460.863	4.42
461.066	4.48
461.269	4.5
461.472	4.52
461.675	4.55
461.878	4.73
462.081	4.76
462.284	4.75
462.486	4.73
462.689	4.73
462.892	4.75
463.095	4.6
463.298	4.57
463.5	4.49
463.703	4.5
463.906	4.58
464.109	4.43
464.311	4.4
464.514	4.53
464.717	4.56
464.92	4.57
465.122	4.61
465.325	4.67
465.528	4.8
465.73	4.89
465.933	4.86
466.135	4.92
466.338	4.89
466.541	4.9
466.743	4.82
466.946	4.86
467.148	4.88
467.351	4.78
467.553	4.73
467.756	4.58
467.958	4.62
468.161	4.59
468.363	4.43
468.566	4.49
468.768	4.53
468.971	4.52
469.173	4.48
469.375	4.46
469.578	4.31
469.78	4.3
469.983	4.34
470.185	4.23
470.387	4.27
470.59	4.33
470.792	4.36
470.994	4.33
471.196	4.32
471.399	4.3
471.601	4.25
471.803	4.46
472.005	4.53
472.208	4.51
472.41	4.63
472.612	4.61
472.814	4.55
473.016	4.6
473.218	4.67
473.421	4.76
473.623	4.76
473.825	4.8
474.027	4.7
474.229	4.6
474.431	4.64
474.633	4.62
474.835	4.61
475.037	4.61
475.239	4.53
475.441	4.47
475.643	4.44
475.845	4.41
476.047	4.33
476.249	4.43
476.451	4.5
476.653	4.44
476.855	4.42
477.057	4.4
477.258	4.42
477.46	4.3
477.662	4.35
477.864	4.26
478.066	4.26
478.268	4.35
478.469	4.33
478.671	4.23
478.873	4.28
479.075	4.27
479.276	4.29
479.478	4.24
479.68	4.26
479.882	4.2
480.083	4.29
480.285	4.29
480.487	4.29
480.688	4.25
480.89	4.35
481.091	4.31
481.293	4.25
481.495	4.25
481.696	4.24
481.898	4.22
482.099	4.21
482.301	4.2
482.502	4.2
482.704	4.16
482.905	4.15
483.107	4.08
483.308	4.1
483.51	4.12
483.711	4.08
483.913	4.09
484.114	4.13
484.315	4.13
484.517	4.13
484.718	4.12
484.92	4.18
485.121	4.18
485.322	4.22
485.524	4.19
485.725	4.18
485.926	4.18
486.127	4.16
486.329	4.14
486.53	4.12
486.731	4.07
486.932	4.05
487.134	4.05
487.335	4.03
487.536	4.03
487.737	4.01
487.938	4.02
488.139	4.01
488.341	3.99
488.542	4
488.743	3.98
488.944	4.03
489.145	4.06
489.346	4.01
489.547	4.04
489.748	4.06
489.949	4.09
490.15	4.09
490.351	4.12
490.552	4.21
490.753	4.21
490.954	4.23
491.155	4.27
491.356	4.24
491.557	4.26
491.758	4.28
491.959	4.27
492.159	4.29
492.36	4.29
492.561	4.32
492.762	4.24
492.963	4.23
493.164	4.21
493.364	4.17
493.565	4.22
493.766	4.26
493.967	4.3
494.167	4.29
494.368	4.29
494.569	4.27
494.769	4.23
494.97	4.33
495.171	4.36
495.371	4.37
495.572	4.34
495.773	4.36
495.973	4.32
496.174	4.29
496.375	4.31
496.575	4.34
496.776	4.37
496.976	4.42
497.177	4.41
497.377	4.36
497.578	4.41
497.778	4.39
497.979	4.36
498.179	4.44
498.38	4.48
498.58	4.42
498.78	4.43
498.981	4.44
499.181	4.37
499.382	4.37
499.582	4.39
499.782	4.42
499.983	4.5
500.183	4.57
500.383	4.52
500.584	4.48
500.784	4.58
500.984	4.56
501.184	4.51
501.385	4.64
501.585	4.66
501.785	4.61
501.985	4.6
502.185	4.55
502.386	4.52
502.586	4.5
502.786	4.53
502.986	4.55
503.186	4.55
503.386	4.59
503.586	4.51
503.786	4.53
503.987	4.63
504.187	4.6
504.387	4.65
504.587	4.67
504.787	4.64
504.987	4.66
505.187	4.71
505.387	4.67
505.587	4.62
505.786	4.63
505.986	4.57
506.186	4.57
506.386	4.61
506.586	4.64
506.786	4.63
506.986	4.66
507.186	4.62
507.386	4.56
507.585	4.57
507.785	4.63
507.985	4.59
508.185	4.59
508.384	4.57
508.584	4.52
508.784	4.45
508.984	4.47
509.183	4.41
509.383	4.43
509.583	4.41
509.782	4.4
509.982	4.45
510.182	4.44
510.381	4.39
510.581	4.38
510.781	4.43
510.98	4.49
511.18	4.49
511.379	4.5
511.579	4.58
511.778	4.58
511.978	4.54
512.177	4.37
512.377	4.42
512.576	4.46
512.776	4.5
512.975	4.52
513.175	4.49
513.374	4.58
513.573	4.63
513.773	4.56
513.972	4.6
514.172	4.7
514.371	4.91
514.57	4.95
514.77	4.94
514.969	4.94
515.168	4.91
515.367	4.95
515.567	4.88
515.766	4.92
515.965	4.86
516.164	4.85
516.364	4.86
516.563	4.8
516.762	4.77
516.961	4.82
517.16	4.79
517.359	4.74
517.559	4.77
517.758	4.77
517.957	4.71
518.156	4.78
518.355	4.74
518.554	4.76
518.753	4.78
518.952	4.79
519.151	4.72
519.35	4.74
519.549	4.85
519.748	4.75
519.947	4.78
520.146	4.86
520.345	4.85
520.544	4.95
520.743	4.89
520.942	4.89
521.141	4.96
521.339	5
521.538	4.96
521.737	4.88
521.936	4.96
522.135	4.91
522.333	4.92
522.532	4.9
522.731	4.84
522.93	4.85
523.129	4.83
523.327	4.79
523.526	4.79
523.725	4.86
523.923	4.93
524.122	4.93
524.321	4.89
524.519	4.86
524.718	4.9
524.917	4.92
525.115	4.96
525.314	4.96
525.512	4.99
525.711	5.03
525.909	5.03
526.108	5.01
526.306	5.02
526.505	5.07
526.703	5.1
526.902	5.09
527.1	5.07
527.299	5.07
527.497	5.08
527.696	5.1
527.894	5.12
528.092	5.08
528.291	5.07
528.489	5.09
528.688	5.09
528.886	5.07
529.084	5.07
529.283	5.12
529.481	5.19
529.679	5.18
529.877	5.17
530.076	5.13
530.274	5.24
530.472	5.29
530.67	5.32
530.869	5.29
531.067	5.33
531.265	5.34
531.463	5.33
531.661	5.3
531.859	5.4
532.057	5.38
532.255	5.41
532.454	5.39
532.652	5.38
532.85	5.38
533.048	5.44
533.246	5.5
533.444	5.54
533.642	5.53
533.84	5.56
534.038	5.47
534.236	5.51
534.434	5.55
534.632	5.5
534.83	5.53
535.027	5.54
535.225	5.53
535.423	5.51
535.621	5.52
535.819	5.58
536.017	5.63
536.215	5.67
536.412	5.66
536.61	5.71
536.808	5.84
537.006	5.87
537.203	5.94
537.401	6.01
537.599	5.97
537.797	6
537.994	6.05
538.192	6.01
538.39	6.06
538.587	6.11
538.785	6.15
538.983	6.09
539.18	6.11
539.378	6.06
539.575	6.05
539.773	6.1
539.97	6.12
540.168	6.1
540.366	6.13
540.563	6.12
540.761	6.12
540.958	6.1
541.155	6.15
541.353	6.15
541.55	6.19
541.748	6.17
541.945	6.15
542.143	6.16
542.34	6.22
542.537	6.19
542.735	6.2
542.932	6.29
543.129	6.26
543.327	6.2
543.524	6.28
543.721	6.29
543.919	6.38
544.116	6.52
544.313	6.57
544.51	6.53
544.708	6.59
544.905	6.62
545.102	6.64
545.299	6.73
545.496	6.84
545.693	6.83
545.891	6.86
546.088	6.97
546.285	6.91
546.482	6.93
546.679	7
546.876	7.02
547.073	7.1
547.27	7.09
547.467	7.16
547.664	7.24
547.861	7.28
548.058	7.35
548.255	7.3
548.452	7.52
548.649	7.56
548.846	7.6
549.043	7.72
549.24	7.75
549.437	7.81
549.633	7.66
549.83	7.57
550.027	7.63
550.224	7.7
550.421	7.66
550.618	7.49
550.814	7.45
551.011	7.53
551.208	7.56
551.405	7.53
551.601	7.65
551.798	7.86
551.995	7.92
552.191	8.03
552.388	7.97
552.585	8.03
552.781	8.16
552.978	8.3
553.175	8.38
553.371	8.5
553.568	8.58
553.764	8.59
553.961	8.59
554.157	8.69
554.354	8.65
554.55	8.82
554.747	8.95
554.943	8.99
555.14	9.04
555.336	9.01
555.533	8.98
555.729	9.16
555.926	9.22
556.122	9.31
556.318	9.34
556.515	9.41
556.711	9.43
556.907	9.45
557.104	9.53
557.3	9.58
557.496	9.6
557.693	9.67
557.889	9.63
558.085	9.54
558.281	9.73
558.478	9.85
558.674	9.8
558.87	9.81
559.066	9.87
559.262	9.86
559.459	9.9
559.655	10.06
559.851	10.11
560.047	10.21
560.243	10.36
560.439	10.34
560.635	10.39
560.831	10.47
561.027	10.51
561.223	10.49
561.419	10.47
561.615	10.53
561.811	10.51
562.007	10.65
562.203	10.73
562.399	10.7
562.595	10.66
562.791	10.71
562.987	10.92
563.183	11.03
563.379	11.19
563.575	11.32
563.771	11.44
563.966	11.59
564.162	11.55
564.358	11.59
564.554	11.65
564.75	11.71
564.945	11.74
565.141	11.73
565.337	11.77
565.533	11.8
565.728	11.89
565.924	11.96
566.12	11.97
566.315	12.09
566.511	12.12
566.707	12.26
566.902	12.32
567.098	12.45
567.293	12.47
567.489	12.42
567.684	12.51
567.88	12.51
568.076	12.58
568.271	12.54
568.467	12.52
568.662	12.64
568.858	12.68
569.053	12.72
569.248	12.67
569.444	12.71
569.639	12.89
569.835	12.91
570.03	12.99
570.225	12.97
570.421	13.16
570.616	13.24
570.812	13.21
571.007	13.24
571.202	13.32
571.397	13.44
571.593	13.52
571.788	13.45
571.983	13.58
572.178	13.7
572.374	13.79
572.569	13.76
572.764	13.87
572.959	13.88
573.154	13.94
573.35	13.96
573.545	13.94
573.74	13.98
573.935	14.12
574.13	14.1
574.325	14.05
574.52	14.1
574.715	14.23
574.91	14.18
575.105	14.3
575.3	14.3
575.495	14.5
575.69	14.57
575.885	14.66
576.08	14.76
576.275	14.74
576.47	14.82
576.665	14.83
576.86	14.85
577.055	14.89
577.25	14.88
577.444	14.99
577.639	14.98
577.834	15.07
578.029	15.16
578.224	15.11
578.418	15.26
578.613	15.41
578.808	15.5
579.003	15.51
579.197	15.62
579.392	15.65
579.587	15.77
579.781	15.74
579.976	15.82
580.171	15.67
580.365	15.8
580.56	15.89
580.755	15.85
580.949	15.85
581.144	15.71
581.338	15.71
581.533	15.9
581.727	15.95
581.922	16.04
582.116	16.07
582.311	16.21
582.505	16.17
582.7	16.11
582.894	16.35
583.089	16.42
583.283	16.69
583.478	16.86
583.672	16.97
583.866	16.87
584.061	16.87
584.255	16.74
584.449	16.92
584.644	17.19
584.838	17.26
585.032	17.13
585.226	17.28
585.421	17.39
585.615	17.4
585.809	17.25
586.003	17.34
586.198	17.37
586.392	17.7
586.586	17.55
586.78	17.47
586.974	17.54
587.168	17.5
587.363	17.36
587.557	17.23
587.751	17.13
587.945	17.14
588.139	17.24
588.333	17.27
588.527	17.3
588.721	17.45
588.915	17.49
589.109	17.64
589.303	17.78
589.497	17.87
589.691	17.92
589.885	17.92
590.079	18.01
590.273	17.93
590.466	17.95
590.66	17.76
590.854	17.76
591.048	17.75
591.242	17.61
591.436	17.44
591.629	17.48
591.823	17.51
592.017	17.77
592.211	17.75
592.404	17.77
592.598	17.78
592.792	17.89
592.986	17.92
593.179	17.93
593.373	18.02
593.567	18.14
593.76	18.04
593.954	18.01
594.147	18.07
594.341	18.06
594.535	18.21
594.728	18.22
594.922	18.13
595.115	18.05
595.309	18.08
595.502	18.01
595.696	18.17
595.889	18.22
596.083	18.32
596.276	18.16
596.47	18.22
596.663	18.19
596.856	18.14
597.05	18.39
597.243	18.51
597.437	18.62
597.63	18.71
597.823	18.66
598.017	18.75
598.21	18.87
598.403	19.02
598.596	19.01
598.79	18.94
598.983	19.03
599.176	18.83
599.369	18.84
599.563	18.81
599.756	18.82
599.949	18.65
600.142	18.61
600.335	18.56
600.528	18.58
600.722	18.75
600.915	18.78
601.108	18.83
601.301	18.95
601.494	18.91
601.687	18.92
601.88	19.05
602.073	19.18
602.266	19.22
602.459	19.14
602.652	19.12
602.845	19.12
603.038	19.11
603.231	19.06
603.424	19.05
603.617	19.06
603.809	19
604.002	18.84
604.195	18.87
604.388	18.85
604.581	18.9
604.774	18.89
604.966	18.74
605.159	18.82
605.352	18.82
605.545	18.86
605.737	18.85
605.93	19.05
606.123	19.3
606.316	19.38
606.508	19.55
606.701	19.65
606.894	19.7
607.086	19.92
607.279	20.03
607.471	20.12
607.664	20.13
607.857	20.14
608.049	20.14
608.242	20.09
608.434	19.92
608.627	19.89
608.819	19.75
609.012	19.72
609.204	19.68
609.397	19.58
609.589	19.61
609.782	19.59
609.974	19.66
610.166	19.67
610.359	19.67
610.551	19.76
610.743	19.67
610.936	19.78
611.128	19.82
611.32	19.89
611.513	19.89
611.705	19.78
611.897	19.73
612.09	19.8
612.282	19.8
612.474	19.68
612.666	19.67
612.858	19.94
613.051	20.18
613.243	20.18
613.435	20.04
613.627	20.09
613.819	20.15
614.011	20.63
614.203	20.7
614.395	20.74
614.588	20.97
614.78	21
614.972	20.93
615.164	20.82
615.356	20.93
615.548	20.9
615.74	21.12
615.932	21.23
616.124	20.66
616.315	20.76
616.507	20.64
616.699	20.58
616.891	20.56
617.083	20.63
617.275	20.55
617.467	20.6
617.659	20.82
617.85	20.86
618.042	20.89
618.234	21.19
618.426	20.96
618.618	21.09
618.809	21.13
619.001	21.03
619.193	20.98
619.384	20.87
619.576	20.83
619.768	20.67
619.959	20.41
620.151	20.27
620.343	20.35
620.534	20.29
620.726	20.18
620.917	20.14
621.109	20.14
621.301	20.09
621.492	20.21
621.684	20.16
621.875	20.32
622.067	20.35
622.258	20.37
622.45	20.14
622.641	20.24
622.832	20.3
623.024	20.25
623.215	20.57
623.407	20.53
623.598	20.63
623.789	20.69
623.981	20.48
624.172	20.67
624.363	20.66
624.555	20.83
624.746	20.66
624.937	20.68
625.129	20.76
625.32	20.72
625.511	20.81
625.702	20.64
625.893	20.72
626.085	20.81
626.276	20.76
626.467	20.77
626.658	20.61
626.849	20.9
627.04	21.05
627.231	21.17
627.422	21.04
627.614	21.05
627.805	21.08
627.996	21
628.187	21.1
628.378	20.97
628.569	21.1
628.76	21.16
628.951	20.96
629.142	20.74
629.332	20.65
629.523	20.75
629.714	20.51
629.905	20.66
630.096	20.7
630.287	20.74
630.478	21.1
630.669	21.03
630.859	21.2
631.05	21.35
631.241	21.42
631.432	21.36
631.623	21.38
631.813	21.54
632.004	21.37
632.195	21.23
632.385	21.34
632.576	21.14
632.767	21.31
632.957	21.4
633.148	21.46
633.339	21.31
633.529	21.34
633.72	21.36
633.91	21.46
634.101	21.54
634.292	21.6
634.482	21.48
634.673	21.49
634.863	21.24
635.054	21.07
635.244	21.07
635.435	21.16
635.625	21.06
635.815	20.93
636.006	20.97
636.196	20.99
636.387	21.02
636.577	21.07
636.767	21.02
636.958	21.1
637.148	21.17
637.338	21
637.529	21.15
637.719	21.29
637.909	21.34
638.099	21.22
638.29	21.33
638.48	21.61
638.67	21.63
638.86	21.8
639.05	21.72
639.241	21.82
639.431	21.81
639.621	21.7
639.811	21.56
640.001	21.67
640.191	21.51
640.381	21.36
640.571	21.02
640.761	20.91
640.951	20.82
641.141	20.97
641.331	20.64
641.521	20.83
641.711	20.78
641.901	20.79
642.091	20.9
642.281	20.96
642.471	20.89
642.661	21.1
642.851	21.27
643.041	21.15
643.231	21.16
643.42	21.28
643.61	21.24
643.8	21.48
643.99	21.62
644.18	21.61
644.369	21.71
644.559	21.93
644.749	21.9
644.939	21.49
645.128	21.56
645.318	21.61
645.508	21.6
645.697	21.75
645.887	21.62
646.076	21.45
646.266	21.33
646.456	21.61
646.645	21.86
646.835	21.88
647.024	21.97
647.214	22.28
647.403	22.15
647.593	22.05
647.782	22.01
647.972	21.99
648.161	22.3
648.351	22.13
648.54	21.91
648.73	21.53
648.919	21.47
649.108	21.52
649.298	21.32
649.487	21.41
649.677	21.55
649.866	21.4
650.055	21.31
650.244	21.26
650.434	21.44
650.623	21.44
650.812	21.3
651.002	21.3
651.191	21.59
651.38	21.68
651.569	21.7
651.758	21.74
651.947	21.69
652.137	21.67
652.326	21.54
652.515	21.61
652.704	21.73
652.893	22.14
653.082	22.11
653.271	22.06
653.46	21.8
653.649	21.89
653.838	21.94
654.027	22.14
654.216	22.19
654.405	22.36
654.594	22.23
654.783	22.07
654.972	21.82
655.161	21.83
655.35	21.58
655.539	21.6
655.728	21.24
655.916	21.27
656.105	21.11
656.294	21.26
656.483	21.39
656.672	21.42
656.86	21.38
657.049	21.41
657.238	21.47
657.427	21.67
657.615	21.8
657.804	21.98
657.993	21.96
658.181	21.98
658.37	21.94
658.559	21.67
658.747	21.78
658.936	21.92
659.125	21.81
659.313	21.84
659.502	21.78
659.69	21.67
659.879	21.75
660.067	21.78
660.256	21.86
660.444	22.02
660.633	22.22
660.821	22.28
661.01	22.16
661.198	22.18
661.387	22.15
661.575	22.19
661.763	22.56
661.952	22.68
662.14	22.77
662.328	22.58
662.517	22.29
662.705	22.15
662.893	22.11
663.082	22.3
663.27	22.84
663.458	22.74
663.646	22.78
663.834	22.73
664.023	22.64
664.211	22.81
664.399	23.11
664.587	22.95
664.775	22.81
664.963	22.64
665.152	22.53
665.34	22.48
665.528	22.37
665.716	22.44
665.904	22.34
666.092	22.2
666.28	21.94
666.468	21.87
666.656	22.02
666.844	22.39
667.032	22.57
667.22	22.71
667.408	22.71
667.596	23.12
667.784	22.98
667.971	23.24
668.159	23.37
668.347	23.26
668.535	23.29
668.723	23.42
668.911	23.56
669.098	23.64
669.286	23.69
669.474	23.44
669.662	23.24
669.849	23.32
670.037	22.98
670.225	22.91
670.413	23.04
670.6	22.93
670.788	23.06
670.976	22.66
671.163	22.5
671.351	22.52
671.538	22.87
671.726	22.91
671.913	23.07
672.101	22.81
672.289	22.52
672.476	22.2
672.664	22.48
672.851	22.19
673.039	22.25
673.226	22.2
673.413	21.96
673.601	21.66
673.788	21.79
673.976	21.61
674.163	21.76
674.35	22.05
674.538	22.42
674.725	22.38
674.912	22.46
675.1	22.32
675.287	22.28
675.474	22.35
675.662	22.73
675.849	22.77
676.036	22.81
676.223	23.11
676.411	23.1
676.598	23.24
676.785	23.28
676.972	23.25
677.159	23.66
677.346	23.77
677.533	23.89
677.721	23.64
677.908	23.63
678.095	23.58
678.282	23.4
678.469	23.64
678.656	23.51
678.843	23.16
679.03	23.28
679.217	23.28
679.404	23.25
679.591	23.22
679.778	23.28
679.964	22.98
680.151	22.98
680.338	22.92
680.525	22.76
680.712	22.82
680.899	23.16
681.086	23.29
681.272	23.05
681.459	23.31
681.646	23.24
681.833	23.03
682.02	23.01
682.206	23.13
682.393	23.34
682.58	23.38
682.766	23.32
682.953	23.18
683.14	23.19
683.326	23.75
683.513	23.64
683.7	23.87
683.886	23.85
684.073	24.26
684.259	24.07
684.446	23.91
684.632	24.11
684.819	24.05
685.005	23.99
685.192	23.91
685.378	23.52
685.565	23.55
685.751	23.43
685.938	23.46
686.124	23.33
686.31	23.35
686.497	23.65
686.683	23.1
686.87	23.23
687.056	23.51
687.242	23.5
687.429	23.38
687.615	23.23
687.801	23.21
687.987	23.27
688.174	23.27
688.36	23.48
688.546	23.3
688.732	23.59
688.918	23.42
689.105	23.19
689.291	23.03
689.477	23.25
689.663	23.43
689.849	23.32
690.035	23.44
690.221	23.5
690.407	23.64
690.593	23.61
690.779	23.81
690.965	24.06
691.151	24.15
691.337	24.46
691.523	24.07
691.709	23.93
691.895	24.17
692.081	23.98
692.267	23.94
692.453	23.86
692.639	23.94
692.825	23.92
693.011	23.49
693.196	23.47
693.382	23.27
693.568	23.56
693.754	23.45
693.94	23.32
694.125	23.45
694.311	23.47
694.497	23.25
694.682	23.41
694.868	23.37
695.054	23.73
695.239	23.83
695.425	23.84
695.611	23.85
695.796	24.05
695.982	24.21
696.168	24.08
696.353	23.68
696.539	23.81
696.724	23.75
696.91	23.48
697.095	23.58
697.281	23.57
697.466	23.58
697.652	23.62
697.837	23.48
698.023	23.22
698.208	23.27
698.393	23.46
698.579	23.52
698.764	23.22
698.949	23.35
699.135	23.2
699.32	23.02
699.505	22.92
699.691	22.94
699.876	22.75
700.061	23.22
700.246	23.16
700.432	23.08
700.617	22.82
700.802	23.13
700.987	23.2
701.172	23.58
701.358	23.75
701.543	23.91
701.728	23.86
701.913	24.15
702.098	23.88
702.283	23.96
702.468	24.22
702.653	24.34
702.838	24.5
703.023	24.55
703.208	24.11
703.393	23.97
703.578	24.17
703.763	24.24
703.948	23.99
704.133	23.97
704.318	23.94
704.503	24.03
704.688	23.85
704.873	23.67
705.057	23.7
705.242	24.08
705.427	24.22
705.612	24.41
705.797	24.33
705.981	24.87
706.166	24.64
706.351	24.88
706.536	24.97
706.72	25.12
706.905	25.18
707.09	25.05
707.274	24.75
707.459	24.69
707.644	24.44
707.828	24.48
708.013	24.16
708.197	24.34
708.382	24.06
708.567	24.17
708.751	24.18
708.936	23.82
709.12	23.96
709.305	24.01
709.489	24.42
709.673	24.38
709.858	24.37
710.042	24.75
710.227	24.6
710.411	24.95
710.596	24.84
710.78	24.9
710.964	25.51
711.149	25.76
711.333	25.68
711.517	25.39
711.702	25.57
711.886	25.38
712.07	25.15
712.254	25.57
712.438	25.38
712.623	25.42
712.807	25.37
712.991	25.37
713.175	25.04
713.359	25.16
713.544	25.08
713.728	25.14
713.912	25.1
714.096	25.33
714.28	24.86
714.464	24.86
714.648	24.86
714.832	24.95
715.016	25.28
715.2	25.45
715.384	25.39
715.568	25.63
715.752	25.33
715.936	25.75
716.12	25.42
716.304	25.63
716.488	25.59
716.671	25.42
716.855	25.84
717.039	25.27
717.223	24.98
717.407	25.3
717.59	25.1
717.774	25.11
717.958	24.89
718.142	24.8
718.325	24.77
718.509	24.81
718.693	24.86
718.877	24.22
719.06	24.1
719.244	24.35
719.428	24.37
719.611	24.79
719.795	24.82
719.978	25.08
720.162	25.48
720.345	26.3
720.529	26.45
720.713	26.41
720.896	26.68
721.08	26.93
721.263	27.28
721.446	27.2
721.63	26.91
721.813	27.17
721.997	27.1
722.18	27.08
722.364	26.44
722.547	26.62
722.73	26.81
722.914	26.96
723.097	26.69
723.28	26.42
723.464	26.07
723.647	25.69
723.83	25.72
724.013	25.05
724.197	25.12
724.38	25.1
724.563	25.39
724.746	25.24
724.929	25.27
725.112	25.43
725.296	25.3
725.479	25.08
725.662	25.1
725.845	25.3
726.028	25.49
726.211	24.97
726.394	24.91
726.577	24.57
726.76	24.6
726.943	24.26
727.126	24.06
727.309	24.26
727.492	24.37
727.675	24.4
727.858	24.19
728.041	24.34
728.224	24.86
728.407	25.2
728.589	25.43
728.772	25.29
728.955	25.46
729.138	25.62
729.321	25.04
729.503	25.9
729.686	26.29
729.869	26.13
730.052	26.4
730.234	26.1
730.417	25.82
730.6	25.64
730.782	25.67
730.965	25.56
731.148	25.81
731.33	26.19
731.513	25.32
731.695	25.43
731.878	25.61
732.061	25.29
732.243	25.45
732.426	25.15
732.608	25.36
732.791	25.43
732.973	25.43
733.156	25.19
733.338	25.62
733.52	25.87
733.703	25.72
733.885	26
734.068	26.36
734.25	26.25
734.432	26.24
734.615	25.94
734.797	25.77
734.979	25.76
735.162	25.83
735.344	25.5
735.526	25.15
735.708	25.01
735.891	24.95
736.073	24.58
736.255	24.97
736.437	24.96
736.619	24.59
736.802	25.33
736.984	25.26
737.166	25.31
737.348	24.98
737.53	25.92
737.712	25.88
737.894	25.39
738.076	25.73
738.258	25.17
738.44	25.52
738.622	26.43
738.804	25.95
738.986	25.88
739.168	25.45
739.35	25.78
739.532	25.26
739.714	25.9
739.896	25.96
740.078	26.23
740.259	26.46
740.441	26.4
740.623	25.94
740.805	26.02
740.987	26.99
741.168	26.86
741.35	26.9
741.532	26.86
741.714	26.56
741.895	26.57
742.077	26.18
742.259	26.58
742.44	26.79
742.622	26.67
742.804	26.3
742.985	25.28
743.167	25.29
743.348	25.38
743.53	25.84
743.711	25.41
743.893	25.46
744.075	25.41
744.256	25.13
744.438	25.73
744.619	25.76
744.8	26
744.982	26.09
745.163	26.51
745.345	26.85
745.526	26.98
745.707	27.23
745.889	27.52
746.07	27.57
746.252	28.01
746.433	26.66
746.614	27.13
746.795	27.39
746.977	27.87
747.158	27.4
747.339	27.2
747.52	27.3
747.702	26.94
747.883	27.29
748.064	27.22
748.245	27.18
748.426	28.04
748.607	27.8
748.788	26.87
748.97	26.82
749.151	27.33
749.332	27.57
749.513	27.14
749.694	27.28
749.875	27.06
750.056	26.89
750.237	26.15
750.418	26.19
750.599	25.68
750.78	25.78
750.96	25.59
751.141	25.72
751.322	24.95
751.503	24.45
751.684	24.37
751.865	23.25
752.046	23.69
752.226	23.76
752.407	23.56
752.588	24.55
752.769	25.21
752.949	25.23
753.13	25.29
753.311	25.89
753.492	26.28
753.672	26.48
753.853	27.85
754.034	27.7
754.214	28.61
754.395	28.6
754.575	28.16
754.756	27.96
754.937	27.91
755.117	27.5
755.298	27.4
755.478	27.12
755.659	27.13
755.839	27
756.02	27.07
756.2	26.28
756.381	26.14
756.561	25.97
756.741	26.49
756.922	26.27
757.102	26.95
757.283	26.79
757.463	26.93
757.643	27.16
757.823	26.58
758.004	26.42
758.184	27.08
758.364	27.78
758.545	27.62
758.725	27.25
758.905	27.35
759.085	27.54
759.265	27.25
759.446	27.46
759.626	27.39
759.806	27.38
759.986	27.17
760.166	26.2
760.346	25.26
760.526	25.52
760.706	25.77
760.886	25.89
761.066	26.19
761.246	26.24
761.426	25.51
761.606	25.09
761.786	25.26
761.966	25.57
762.146	25.41
762.326	26.09
762.506	25.81
762.686	25.72
762.866	26.18
763.046	25.43
763.225	25.24
763.405	25.51
763.585	25.42
763.765	25.16
763.945	25.31
764.124	25.6
764.304	25.01
764.484	25.66
764.664	25.41
764.843	25.2
765.023	25.59
765.203	25.57
765.382	25.16
765.562	25.63
765.741	25.45
765.921	26.11
766.101	25.97
766.28	26.3
766.46	25.28
766.639	25.33
766.819	24.64
766.998	24.29
767.178	24.59
767.357	25.26
767.537	25.7
767.716	26.45
767.896	25.16
768.075	25.94
768.254	25.91
768.434	27.04
768.613	27.43
768.792	28.31
768.972	28.53
769.151	28.84
769.33	28.81
769.51	29.61
769.689	29.6
769.868	29.62
770.047	30.12
770.226	30.57
770.406	30.03
770.585	30.05
770.764	29.3
770.943	29.24
771.122	28.85
771.301	28.94
771.48	27.78
771.66	27.5
771.839	27.73
772.018	26.83
772.197	26.09
772.376	26.14
772.555	27.06
772.734	27.65
772.913	27.72
773.092	27.98
773.271	27.17
773.449	26.89
773.628	26.8
773.807	26.36
773.986	26.66
774.165	27.71
774.344	28.3
774.523	26.92
774.701	27.11
774.88	26.95
775.059	27.46
775.238	28.88
775.417	29.13
775.595	30.29
775.774	30.62
775.953	30.12
776.131	29.72
776.31	28.98
776.489	29.26
776.667	29.01
776.846	29.24
777.025	28.24
777.203	28.14
777.382	28.25
777.56	27.76
777.739	28.42
777.917	28.7
778.096	28.95
778.274	28.82
778.453	29.29
778.631	29.2
778.81	29.5
778.988	30.39
779.166	29.68
779.345	29.58
779.523	28.86
779.702	28.74
779.88	28.95
780.058	27.81
780.237	28.97
780.415	29.07
780.593	30.02
780.771	29.65
780.95	30.69
781.128	31.73
781.306	31.95
781.484	32.61
781.662	32.57
781.841	32.72
782.019	33.11
782.197	31.96
782.375	31.53
782.553	31
782.731	30.58
782.909	29.48
783.087	28.99
783.265	28.4
783.443	27.61
783.621	28.25
783.799	28.41
783.977	28.96
784.155	28.99
784.333	29.66
784.511	29.8
784.689	29.8
784.867	29.88
785.045	29.31
785.223	29.92
785.4	30.68
785.578	29.45
785.756	29.27
785.934	28.58
786.112	28.5
786.289	28.12
786.467	27.13
786.645	28.21
786.823	28.52
787	29.38
787.178	28.94
787.356	28.12
787.533	28.86
787.711	28.62
787.889	28.75
788.066	28.32
788.244	27.77
788.421	28.24
788.599	27.83
788.776	27.09
788.954	26.45
789.131	25.76
789.309	26.96
789.486	26.72
789.664	26.74
789.841	27.22
790.019	28.18
790.196	28.33
790.373	28.11
790.551	29.81
790.728	30.25
790.906	31.3
791.083	31.22
791.26	31.01
791.437	30.95
791.615	30.91
791.792	30.39
791.969	30.8
792.146	31.29
792.324	31.89
792.501	30.55
792.678	30.62
792.855	29.35
793.032	31.46
793.209	30.85
793.387	31.38
793.564	31.25
793.741	31.59
793.918	30.29
794.095	30.79
794.272	31
794.449	30.9
794.626	30.72
794.803	30.78
794.98	29.94
795.157	30.15
795.334	30.51
795.511	30.85
795.688	30.74
795.864	31.12
796.041	30.3
796.218	30.47
796.395	29.8
796.572	29.54
796.749	30.13
796.925	29.17
797.102	29.82
797.279	28.52
797.456	28.63
797.632	28.4
797.809	29.37
797.986	29.99
798.162	29.08
798.339	29.11
798.516	29.7
798.692	29.99
798.869	30.33
799.046	29.6
799.222	29.61
799.399	29.2
799.575	29.47
799.752	28.51
799.928	27.89
800.105	28.41
800.281	29.37
800.458	28.68
800.634	28.12
800.811	28.41
800.987	28.8
801.163	30.67
801.34	31.42
801.516	31.93
801.692	33.2
801.869	34.44
802.045	34.67
802.221	33.77
802.398	34.28
802.574	34.42
802.75	35.23
802.926	34.58
803.103	33.19
803.279	31.92
803.455	31.57
803.631	30.88
803.807	30.29
803.983	29.75
804.16	30.55
804.336	29.55
804.512	29.38
804.688	29.01
804.864	28.96
805.04	28.83
805.216	29.6
805.392	29.42
805.568	30.17
805.744	30.81
805.92	31.09
806.096	30.92
806.272	31.97
806.448	32.61
806.623	32.63
806.799	33.66
806.975	33.12
807.151	32.53
807.327	32.33
807.503	31.34
807.678	31.42
807.854	31.72
808.03	31.27
808.206	31.58
808.381	31.59
808.557	31.21
808.733	30.28
808.908	31.13
809.084	32.02
809.26	31.18
809.435	32.06
809.611	31.98
809.787	30.34
809.962	30.43
810.138	29.44
810.313	29
810.489	31.11
810.664	31.67
810.84	30.99
811.015	31.74
811.191	33.72
811.366	34.08
811.542	32.28
811.717	34.63
811.892	35.72
812.068	37.79
812.243	36.84
812.419	35.78
812.594	35.94
812.769	36.25
812.944	35.46
813.12	34.78
813.295	34.2
813.47	34.19
813.645	32.89
813.821	31.38
813.996	29.71
814.171	30.35
814.346	29.57
814.521	29.66
814.697	30.4
814.872	29.72
815.047	30.16
815.222	30.21
815.397	31.31
815.572	32.79
815.747	33.83
815.922	32.8
816.097	32.69
816.272	32.43
816.447	33.31
816.622	33.17
816.797	34.12
816.972	33.09
817.147	32.44
817.322	32.85
817.496	31.43
817.671	31.68
817.846	32.94
818.021	32.94
818.196	33.82
818.371	32.47
818.545	33.21
818.72	33.86
818.895	35.23
819.069	34.78
819.244	34.2
819.419	34.29
819.594	33.09
819.768	32.35
819.943	32.37
820.117	31.6
820.292	30.91
820.467	30.4
820.641	29.62
820.816	28.92
820.99	28.29
821.165	27.88
821.339	27.58
821.514	27.51
821.688	27.47
821.863	26.9
822.037	26.39
822.212	26.37
822.386	26.15
822.56	25.95
822.735	25.83
822.909	26.06
823.084	26.04
823.258	25.83
823.432	25.54
823.606	25.3
823.781	25.69
823.955	26.16
824.129	26.1
824.303	26.17
824.478	26.31
824.652	26.34
824.826	26.35
825	26.48
825.174	26.65
825.348	26.8
825.523	26.97
825.697	26.85
825.871	26.67
826.045	27.26
826.219	26.96
826.393	26.66
826.567	26.82
826.741	27.01
826.915	26.83
827.089	27.23
827.263	27.42
827.437	27.31
827.611	27.46
827.784	27.5
827.958	27.42
828.132	28.08
828.306	29.09
828.48	29.15
828.654	29.03
828.827	29.29
829.001	29.29
829.175	30.45
829.349	31.8
829.522	32.2
829.696	32.79
829.87	32.39
830.044	33.37
830.217	32.87
830.391	33.16
830.565	33.39
830.738	34.45
830.912	34.73
831.085	34.24
831.259	33.84
831.432	34.18
831.606	35.33
831.779	34.24
831.953	32.24
832.126	31.65
832.3	31.03
832.473	30.95
832.647	29.98
832.82	29.58
832.994	29.29
833.167	29.73
833.34	29.65
833.514	28.76
833.687	28.83
833.86	28.75
834.034	29.11
834.207	29.31
834.38	28.85
834.553	28.59
834.727	28.91
834.9	28.57
835.073	27.67
835.246	27.54
835.419	27.54
835.593	28.52
835.766	29.6
835.939	29.51
836.112	29.99
836.285	30.59
836.458	31.4
836.631	31.91
836.804	33
836.977	34.18
837.15	34.84
837.323	34.46
837.496	34.28
837.669	32.54
837.842	32.41
838.015	32.15
838.188	33.92
838.361	34.43
838.533	32.8
838.706	32.14
838.879	30.67
839.052	30.37
839.225	31.02
839.398	31.35
839.57	33.34
839.743	34.99
839.916	35.18
840.088	33.76
840.261	32.8
840.434	33.31
840.607	33.75
840.779	35.09
840.952	34.15
841.124	32.47
841.297	32.59
841.47	30.59
841.642	28.44
841.815	29.58
841.987	28.34
842.16	29.96
842.332	30.56
842.505	29.81
842.677	28.42
842.85	31.92
843.022	34.08
843.194	36.72
843.367	40.27
843.539	41.06
843.712	38.93
843.884	41.86
844.056	42.68
844.229	44.59
844.401	44.19
844.573	46.32
844.745	43.21
844.918	42.62
845.09	41.88
845.262	41.64
845.434	43.23
845.606	46.29
845.779	47.45
845.951	47.65
846.123	46.52
846.295	47.69
846.467	47.21
846.639	48.9
846.811	49.81
846.983	48.33
847.155	45.93
847.327	48
847.499	45.47
847.671	44.17
847.843	42.05
848.015	41.62
848.187	44.73
848.359	40.87
848.531	43.45
848.703	44.72
848.875	45.32
849.047	47.36
849.218	45.19
849.39	46.44
849.562	46.75
849.734	50.53
849.905	51.72
850.077	51.19
850.249	52.59
850.421	49.76
850.592	46.92
850.764	47.14
850.936	45.16
851.107	46.86
851.279	47.27
851.451	47.27
851.622	47.42
851.794	46.7
851.965	47.15
852.137	48.84
852.308	47.95
852.48	55.07
852.651	54.84
852.823	55.27
852.994	51.95
853.166	50.43
853.337	52.07
853.509	50.19
853.68	51.85
853.851	48.94
854.023	51.1
854.194	53.34
854.365	47.74
854.537	48.78
854.708	49.58
854.879	52.77
855.05	56.16
855.222	55.79
855.393	57.98
855.564	57.96
855.735	58.69
855.906	58.32
856.078	55.32
856.249	56.35
856.42	56.23
856.591	55.79
856.762	53.71
856.933	48.36
857.104	45.28
857.275	42.92
857.446	42.16
857.617	42.39
857.788	41.98
857.959	45.82
858.13	46.33
858.301	48.74
858.472	45.71
858.643	48.73
858.814	50.13
858.985	51.65
859.155	52.4
859.326	56.37
859.497	58.6
859.668	56.66
859.839	53.8
860.009	51.65
860.18	48.91
860.351	49.48
860.522	47.28
860.692	49.91
860.863	49.8
861.034	52.38
861.204	50.62
861.375	48.81
861.546	52.86
861.716	53.36
861.887	56.4
862.057	57.95
862.228	61.16
862.398	59.08
862.569	58.9
862.739	62.62
862.91	58.38
863.08	55.35
863.251	53.16
863.421	51.52
863.592	52.69
863.762	51.8
863.932	45.38
864.103	43.95
864.273	43.99
864.443	43.94
864.614	40.27
864.784	45.58
864.954	47.42
865.125	52.72
865.295	52.91
865.465	50.06
865.635	49.84
865.805	61.4
865.976	65.37
866.146	69.6
866.316	71.04
866.486	71.79
866.656	69.06
866.826	65.55
866.996	63.6
867.166	63.03
867.336	66.41
867.506	66.65
867.676	58.85
867.846	57.59
868.016	51.09
868.186	46.45
868.356	44.42
868.526	39.08
868.696	42.21
868.866	40.92
869.036	37.23
869.206	35.14
869.376	32.05
869.545	35.52
869.715	33.16
869.885	37.17
870.055	41.49
870.224	48.18
870.394	50.39
870.564	50.79
870.734	49.1
870.903	49.22
871.073	47.94
871.243	50.2
871.412	51.32
871.582	56.15
871.751	58.91
871.921	58.26
872.091	54.48
872.26	57.01
872.43	54.32
872.599	55.15
872.769	57.38
872.938	62.32
873.108	62.52
873.277	60.97
873.446	55.7
873.616	52.29
873.785	57.09
873.955	57.02
874.124	52.81
874.293	53.99
874.463	53.9
874.632	54.07
874.801	49.78
874.971	50.1
875.14	51.28
875.309	51.79
875.478	51.34
875.647	45.4
875.817	48.2
875.986	52.5
876.155	52.88
876.324	52.39
876.493	51.15
876.662	51.74
876.831	48.35
877	46.5
877.17	45.96
877.339	47.48
877.508	48.51
877.677	46.57
877.846	44.46
878.015	44.89
878.184	43.65
878.352	42.45
878.521	41.11
878.69	45.59
878.859	45
879.028	43.83
879.197	40.2
879.366	36.97
879.534	35.5
879.703	33.16
879.872	32.42
880.041	33.52
880.21	32.85
880.378	33.65
880.547	31.63
880.716	31.44
880.884	30.46
881.053	31.07
881.222	31.61
881.39	31.46
881.559	31.65
881.727	31.68
881.896	31
882.065	30.68
882.233	30.19
882.402	29.85
882.57	29.5
882.739	30.39
882.907	30.77
883.076	30.27
883.244	29.9
883.412	29.97
883.581	30.01
883.749	30.07
883.918	30.89
884.086	31.9
884.254	34.29
884.423	35.24
884.591	34.83
884.759	34.82
884.927	35.71
885.096	35.49
885.264	38.08
885.432	39.08
885.6	39.74
885.769	38.37
885.937	38.82
886.105	36.95
886.273	37.1
886.441	37.79
886.609	37.33
886.777	36.92
886.945	41.53
887.113	41.01
887.281	42.76
887.449	44.08
887.617	46.73
887.785	46.42
887.953	46.75
888.121	46.23
888.289	47.84
888.457	50.75
888.625	52.54
888.793	49.34
888.961	46.53
889.129	43.12
889.296	43.92
889.464	45.48
889.632	45.36
889.8	44.68
889.967	45.26
890.135	46.38
