Data from 2938498_Reflection_1.txt Node
Date: Wed Jun 17 00:24:14 EDT 2015
User: robert
Spectrometer: USB4E03002
Autoset integration time: false
Trigger mode: 4
Integration Time (sec): 1.000000E-1
Scans to average: 10
Electric dark correction enabled: true
Nonlinearity correction enabled: false
Boxcar width: 5
Stray light correction enabled: false
XAxis mode: Wavelengths
Stop averaging: false
Number of Pixels in Spectrum: 3648
>>>>>Begin Spectral Data<<<<<
177.575	11.68
177.794	-5233.33
178.014	-567.03
178.233	-70.52
178.452	-33.84
178.672	-436.17
178.891	20.72
179.11	-174.5
179.33	-174.62
179.549	-467.67
179.768	-105.56
179.987	20.34
180.207	-132.33
180.426	1024.11
180.645	-413.63
180.864	-776.58
181.084	365.4
181.303	6.75
181.522	-535.25
181.741	-72.05
181.96	125.89
182.179	-19.55
182.398	141.02
182.618	134.69
182.837	7.82
183.056	202.53
183.275	-7.23
183.494	-2525
183.713	-4060.63
183.932	324.4
184.151	-413.49
184.37	-270.15
184.589	-164.37
184.808	31.97
185.027	133.84
185.246	77.34
185.465	41.38
185.684	29.63
185.903	100.93
186.122	130.02
186.341	112.5
186.56	328.28
186.779	-33.55
186.998	106.19
187.216	77.59
187.435	95.06
187.654	78.78
187.873	80
188.092	52.77
188.311	7.61
188.53	-73.24
188.748	-203.28
188.967	-86.32
189.186	-424.64
189.405	-116.34
189.623	-314.46
189.842	2248.74
190.061	-4686.51
190.28	474.81
190.498	1376.31
190.717	1810.23
190.936	-4040.71
191.154	-272.65
191.373	7050.72
191.592	8653.49
191.81	559.05
192.029	302.77
192.248	1248.55
192.466	310.57
192.685	-445.92
192.904	-62.87
193.122	-94.54
193.341	-10.8
193.559	280.88
193.778	-266.06
193.996	-158.21
194.215	64.33
194.433	-301.95
194.652	-476.09
194.87	-534.71
195.089	-78.95
195.307	-54.7
195.526	-114
195.744	17.57
195.963	-78.3
196.181	-431.02
196.399	-93.29
196.618	274.85
196.836	50.63
197.055	143.11
197.273	92.52
197.491	53.33
197.71	33.93
197.928	-53.61
198.146	-2.31
198.365	2.48
198.583	-34.08
198.801	19.66
199.019	36.55
199.238	49.42
199.456	115.87
199.674	81.59
199.892	53.04
200.111	32.09
200.329	112.4
200.547	2539.58
200.765	99.02
200.983	126.68
201.202	91.63
201.42	46.55
201.638	65.75
201.856	36.31
202.074	24.95
202.292	-17.6
202.51	-0.38
202.728	-0.05
202.946	3.67
203.165	-2.88
203.383	-37.49
203.601	0.99
203.819	44.81
204.037	-64.1
204.255	-229.35
204.473	-121.88
204.691	-144.45
204.909	-96.1
205.127	-286.31
205.345	61500
205.562	179.64
205.78	288.6
205.998	991.69
206.216	-40490.91
206.434	-463.1
206.652	-157.34
206.87	-180.39
207.088	-64.45
207.306	-52.69
207.523	-71.48
207.741	-38.32
207.959	-28.27
208.177	-49.97
208.395	-3.88
208.612	-27.07
208.83	-38.66
209.048	-70.65
209.266	-36.48
209.483	-139.93
209.701	-281.23
209.919	-91.63
210.136	-71
210.354	-102.31
210.572	-59.03
210.79	-134.05
211.007	-63.04
211.225	-21.32
211.442	-46.71
211.66	-55.57
211.878	-12.41
212.095	-140.04
212.313	-187.11
212.53	-275.08
212.748	-229.86
212.966	-227.54
213.183	-150.03
213.401	-165.3
213.618	-234.04
213.836	-213.05
214.053	-216.1
214.271	-390.82
214.488	-100.4
214.705	-135.08
214.923	-41.27
215.14	-79.43
215.358	-379.68
215.575	163.64
215.793	913.81
216.01	209.42
216.227	150.73
216.445	87.94
216.662	117.36
216.879	228.28
217.097	271.5
217.314	208.85
217.531	222.76
217.749	190.04
217.966	-119.44
218.183	881.33
218.4	-436.83
218.618	-35.33
218.835	-97.55
219.052	-54.92
219.269	26.22
219.487	30.38
219.704	32.57
219.921	-8.45
220.138	-12.65
220.355	5.16
220.572	1.13
220.79	19.11
221.007	8.66
221.224	2.39
221.441	-3.49
221.658	-31.75
221.875	-27.69
222.092	-2.14
222.309	30.34
222.526	16.65
222.743	4.72
222.96	18.88
223.177	-6.24
223.394	3.83
223.611	1.1
223.828	1.83
224.045	17.87
224.262	20.22
224.479	21.39
224.696	17.61
224.913	26.14
225.13	22.24
225.347	10.99
225.564	14.34
225.781	12.69
225.997	15.74
226.214	20.29
226.431	15.48
226.648	16.25
226.865	15.66
227.082	13.82
227.298	13.32
227.515	16.18
227.732	17.17
227.949	15.1
228.165	14.58
228.382	15.38
228.599	12.01
228.816	13.02
229.032	10.87
229.249	9.88
229.466	11.29
229.682	12.03
229.899	9.63
230.116	11.11
230.332	13.35
230.549	13.8
230.765	9.81
230.982	10.44
231.199	8.54
231.415	9.23
231.632	7.31
231.848	6.61
232.065	4.96
232.281	7.01
232.498	7.15
232.714	5.12
232.931	3.03
233.147	5.65
233.364	6.16
233.58	6.91
233.797	1.73
234.013	5.05
234.23	5.56
234.446	4.67
234.662	1.64
234.879	0.78
235.095	2.36
235.312	5.7
235.528	5.11
235.744	6.6
235.961	9.6
236.177	16.85
236.393	16.97
236.61	17.71
236.826	17.93
237.042	16.19
237.258	18.54
237.475	20.75
237.691	21.41
237.907	20.42
238.123	17.5
238.339	14.58
238.556	13.08
238.772	11.04
238.988	10.48
239.204	13.55
239.42	14.05
239.636	13.73
239.853	15.59
240.069	15.15
240.285	15.8
240.501	17.05
240.717	16.73
240.933	17.12
241.149	16.76
241.365	17.12
241.581	16.09
241.797	17.35
242.013	18.14
242.229	16.13
242.445	15.85
242.661	16.43
242.877	15.68
243.093	16.19
243.309	14.97
243.525	14.98
243.741	14.77
243.957	13.61
244.173	13.38
244.388	11.34
244.604	12.22
244.82	12.41
245.036	12.23
245.252	11.66
245.468	11.48
245.683	11.92
245.899	12.02
246.115	11.57
246.331	12.56
246.547	12.59
246.762	12.98
246.978	12.6
247.194	13.01
247.409	12.96
247.625	14.03
247.841	13.66
248.057	13.54
248.272	13.78
248.488	14.32
248.703	13.33
248.919	12.65
249.135	13.54
249.35	13.43
249.566	11.94
249.782	11.09
249.997	9.34
250.213	9.76
250.428	8.67
250.644	8.05
250.859	7.6
251.075	7.44
251.29	7.44
251.506	6.72
251.721	5.59
251.937	6.05
252.152	5.32
252.368	5.02
252.583	4.28
252.798	6.04
253.014	6.24
253.229	7.36
253.445	6.57
253.66	6.04
253.875	5.88
254.091	6.81
254.306	5.33
254.521	5.37
254.737	6.23
254.952	6.08
255.167	5.78
255.383	6.23
255.598	5.06
255.813	4.27
256.028	5.21
256.244	5.26
256.459	6.44
256.674	7.82
256.889	8.42
257.104	8.67
257.32	9.08
257.535	9.14
257.75	9.2
257.965	9.79
258.18	9.96
258.395	9.41
258.61	9.44
258.826	8.64
259.041	8.72
259.256	8.32
259.471	8.29
259.686	8.49
259.901	8.46
260.116	8.16
260.331	7.1
260.546	7.44
260.761	7.03
260.976	6.13
261.191	6.32
261.406	5.53
261.621	6.4
261.836	6.01
262.05	5.16
262.265	6.91
262.48	7.02
262.695	8.93
262.91	7.43
263.125	9.34
263.34	9.69
263.555	10.6
263.769	10.3
263.984	10.16
264.199	9.39
264.414	9.87
264.629	7.82
264.843	8.08
265.058	7.55
265.273	8.18
265.488	7
265.702	7
265.917	6.57
266.132	6.9
266.346	7.02
266.561	7.83
266.776	7.53
266.99	9.18
267.205	9.55
267.42	9.48
267.634	9.55
267.849	9.3
268.063	9.81
268.278	9.76
268.492	9.57
268.707	9.12
268.922	9.02
269.136	8.94
269.351	7.31
269.565	6.05
269.78	5.84
269.994	6.57
270.209	6.61
270.423	6.24
270.637	6.31
270.852	5.72
271.066	6.22
271.281	5.14
271.495	4.63
271.709	5.18
271.924	6.16
272.138	6.21
272.353	5.04
272.567	5.97
272.781	6.7
272.996	6.08
273.21	5.88
273.424	5
273.638	6.34
273.853	6.84
274.067	6.45
274.281	5.29
274.495	5.31
274.71	6.32
274.924	5.74
275.138	4.75
275.352	5.68
275.566	6.66
275.781	7.94
275.995	7.99
276.209	7.46
276.423	6.93
276.637	7.43
276.851	7.94
277.065	7.5
277.279	7.47
277.493	7.69
277.707	7.74
277.921	7.44
278.135	6.81
278.349	6.33
278.563	7.07
278.777	7.26
278.991	6.43
279.205	6.33
279.419	7.14
279.633	7.18
279.847	7.77
280.061	8.22
280.275	8.63
280.489	8.71
280.703	9.48
280.917	10.09
281.131	10.06
281.344	10.77
281.558	10.29
281.772	10.47
281.986	9.8
282.2	9.76
282.414	8.78
282.627	7.73
282.841	7.35
283.055	6.75
283.269	6.3
283.482	6.52
283.696	6.42
283.91	6.14
284.123	5.72
284.337	6.48
284.551	5.69
284.764	5.88
284.978	6.79
285.192	6.91
285.405	7.19
285.619	7.26
285.833	7.37
286.046	8.13
286.26	8.27
286.473	8.13
286.687	8.18
286.9	8.13
287.114	9.15
287.327	8.84
287.541	8.46
287.754	7.85
287.968	8.11
288.181	7.75
288.395	7.04
288.608	7.43
288.822	7.24
289.035	7.13
289.248	7.38
289.462	6.1
289.675	6.01
289.889	6.18
290.102	7.18
290.315	7.18
290.529	7.39
290.742	6.79
290.955	7.11
291.169	7.61
291.382	8.14
291.595	9.07
291.808	9.26
292.022	10.2
292.235	10.39
292.448	9.61
292.661	9.64
292.875	9.91
293.088	10.9
293.301	10.17
293.514	10.53
293.727	9.34
293.94	8.61
294.153	9.37
294.367	9.03
294.58	8.65
294.793	9.24
295.006	9
295.219	9.24
295.432	8.91
295.645	9.21
295.858	9.08
296.071	10.07
296.284	10.36
296.497	9.55
296.71	9.48
296.923	10.04
297.136	9.6
297.349	9.45
297.562	8.72
297.775	8.75
297.988	8.9
298.201	8.75
298.414	7.99
298.626	7.83
298.839	8.88
299.052	8.46
299.265	7.76
299.478	8.14
299.691	9.1
299.903	9
300.116	9.48
300.329	9.69
300.542	8.87
300.755	8.51
300.967	8.65
301.18	8.08
301.393	8.27
301.605	8.81
301.818	8.34
302.031	7.5
302.243	7.98
302.456	7.86
302.669	7.93
302.881	8.07
303.094	8.96
303.307	9.29
303.519	9.46
303.732	9.09
303.944	8.94
304.157	9.59
304.37	10.07
304.582	10.31
304.795	10.4
305.007	9.85
305.22	9.87
305.432	9.36
305.645	9.12
305.857	8.79
306.069	9.39
306.282	9.23
306.494	8.53
306.707	8.25
306.919	8.07
307.132	7.57
307.344	8.02
307.556	8.72
307.769	8.91
307.981	8.71
308.193	8.78
308.406	8.31
308.618	8.39
308.83	8.51
309.043	8.24
309.255	8.03
309.467	7.95
309.679	7.29
309.892	7.09
310.104	6.97
310.316	6.71
310.528	6.64
310.74	6.75
310.953	7.15
311.165	6.93
311.377	6.75
311.589	6.9
311.801	6.22
312.013	6.57
312.225	6.33
312.437	6.13
312.649	6.04
312.862	5.9
313.074	5.98
313.286	5.53
313.498	5.56
313.71	6.75
313.922	7.2
314.134	7.72
314.346	7.8
314.558	7.8
314.77	8.54
314.982	9.02
315.193	8.68
315.405	8.51
315.617	8.75
315.829	8.74
316.041	7.62
316.253	7.37
316.465	7.39
316.677	7.61
316.888	8.07
317.1	7.74
317.312	7.4
317.524	7.99
317.736	8.2
317.947	8.26
318.159	8.2
318.371	8.65
318.583	7.65
318.794	8.12
319.006	7.75
319.218	7.25
319.43	7.65
319.641	7.73
319.853	7.39
320.064	7.07
320.276	6.81
320.488	6.94
320.699	6.8
320.911	8.12
321.123	8.29
321.334	8.39
321.546	8.37
321.757	7.75
321.969	7.81
322.18	8.25
322.392	8.72
322.603	8.44
322.815	8.61
323.026	8.65
323.238	8.22
323.449	7.99
323.661	8.12
323.872	8.09
324.083	8.33
324.295	7.91
324.506	7.72
324.718	7.18
324.929	7.52
325.14	8
325.352	7.9
325.563	8.13
325.774	8.44
325.986	7.88
326.197	8.01
326.408	7.19
326.62	7.45
326.831	7.1
327.042	7.47
327.253	7.28
327.464	6.49
327.676	6.38
327.887	6.11
328.098	5.98
328.309	6.85
328.52	7.12
328.732	7.72
328.943	8.5
329.154	9.13
329.365	8.74
329.576	8.51
329.787	8.8
329.998	9.19
330.209	9.12
330.42	9.26
330.631	8.93
330.842	8.55
331.053	8.71
331.264	8.15
331.475	8.11
331.686	8.14
331.897	8.87
332.108	9.4
332.319	9.25
332.53	9.35
332.741	9.05
332.952	8.81
333.163	8.92
333.374	8.67
333.585	8.74
333.795	8.57
334.006	8.64
334.217	8.07
334.428	7.2
334.639	7.27
334.849	7.23
335.06	7.18
335.271	7.25
335.482	7.3
335.692	7.68
335.903	7.97
336.114	8.12
336.325	8.34
336.535	8.16
336.746	8.44
336.957	8.28
337.167	8.17
337.378	8.18
337.589	8.04
337.799	8.09
338.01	7.86
338.22	7.33
338.431	7.16
338.642	7.1
338.852	7.17
339.063	7.53
339.273	7.32
339.484	7.35
339.694	7.98
339.905	8.26
340.115	8.52
340.326	8.46
340.536	8.49
340.746	8.37
340.957	8.11
341.167	8.38
341.378	8.15
341.588	8.55
341.799	8.65
342.009	8.22
342.219	8.22
342.43	8.14
342.64	8.08
342.85	8.33
343.061	8.88
343.271	9.06
343.481	8.81
343.691	8.38
343.902	8.5
344.112	8.36
344.322	8.07
344.532	8.18
344.743	7.78
344.953	7.95
345.163	7.73
345.373	6.77
345.583	6.73
345.793	7.29
346.004	7.53
346.214	7.18
346.424	7.04
346.634	7.2
346.844	7.31
347.054	7.65
347.264	7.46
347.474	7.38
347.684	7.74
347.894	7.63
348.104	7.4
348.314	7.29
348.524	7.37
348.734	7.33
348.944	6.87
349.154	6.5
349.364	6.4
349.574	6.43
349.784	6.68
349.994	6.74
350.204	6.63
350.413	6.28
350.623	6.61
350.833	6.28
351.043	6.53
351.253	7.17
351.463	7.32
351.672	7.07
351.882	7.26
352.092	7.07
352.302	7
352.511	7.21
352.721	7.2
352.931	7.07
353.141	7.33
353.35	7.23
353.56	6.82
353.77	6.34
353.979	6.82
354.189	6.84
354.399	6.89
354.608	7.13
354.818	6.93
355.027	7.08
355.237	7.29
355.447	7.22
355.656	6.82
355.866	6.95
356.075	7.03
356.285	6.78
356.494	6.47
356.704	6.26
356.913	6.03
357.123	6.35
357.332	6.35
357.542	6.17
357.751	6.46
357.96	6.9
358.17	7.06
358.379	7.05
358.589	7.19
358.798	7.06
359.007	7.17
359.217	7.39
359.426	7.39
359.635	7.18
359.845	7.18
360.054	7.11
360.263	7.12
360.472	7.17
360.682	7.39
360.891	7.17
361.1	7.46
361.309	7.62
361.519	7.47
361.728	7.29
361.937	7.42
362.146	7.18
362.355	6.79
362.564	6.51
362.774	6.25
362.983	6.29
363.192	6.49
363.401	6.28
363.61	6.02
363.819	5.99
364.028	5.88
364.237	5.78
364.446	5.88
364.655	6.02
364.864	6.21
365.073	6.14
365.282	5.82
365.491	5.65
365.7	5.55
365.909	5.24
366.118	5.37
366.327	5.33
366.536	5.48
366.745	5.45
366.954	5.24
367.162	5.45
367.371	5.47
367.58	5.43
367.789	5.63
367.998	5.71
368.207	5.8
368.415	5.64
368.624	6.1
368.833	5.9
369.042	5.88
369.25	6.05
369.459	5.91
369.668	5.84
369.877	5.91
370.085	5.76
370.294	5.99
370.503	6.46
370.711	6.5
370.92	6.35
371.129	6.39
371.337	6.4
371.546	6.49
371.754	6.4
371.963	6.46
372.171	6.49
372.38	6.5
372.589	6.33
372.797	6.22
373.006	6.38
373.214	6.27
373.423	6.46
373.631	6.82
373.84	6.77
374.048	6.67
374.256	6.72
374.465	6.81
374.673	6.74
374.882	6.76
375.09	6.73
375.298	6.58
375.507	6.4
375.715	6.01
375.923	5.91
376.132	5.93
376.34	6.17
376.548	6.21
376.757	6.19
376.965	5.97
377.173	6.12
377.381	5.89
377.59	5.88
377.798	6.11
378.006	6.23
378.214	6.03
378.423	5.82
378.631	5.63
378.839	5.53
379.047	5.4
379.255	5.34
379.463	4.89
379.671	4.68
379.879	4.75
380.088	4.89
380.296	5.02
380.504	5.13
380.712	5.5
380.92	5.53
381.128	5.42
381.336	5.54
381.544	5.75
381.752	5.95
381.96	6.38
382.168	6.59
382.376	6.57
382.584	6.9
382.791	6.75
382.999	6.66
383.207	6.68
383.415	7.07
383.623	7.02
383.831	7.17
384.039	7.25
384.247	7.23
384.454	6.72
384.662	6.44
384.87	6.15
385.078	6.37
385.285	6.2
385.493	6.01
385.701	5.7
385.909	5.51
386.116	5.37
386.324	5.37
386.532	5.29
386.739	5.46
386.947	5.43
387.155	5.41
387.362	5.17
387.57	5.41
387.778	5.53
387.985	5.64
388.193	5.77
388.4	5.73
388.608	5.56
388.816	5.61
389.023	5.68
389.231	5.68
389.438	5.76
389.646	5.71
389.853	5.34
390.061	5.34
390.268	5.21
390.475	5.2
390.683	5.26
390.89	5.22
391.098	5
391.305	5.02
391.512	5.25
391.72	5.25
391.927	5.25
392.135	5.48
392.342	5.43
392.549	5.56
392.756	5.63
392.964	5.64
393.171	5.73
393.378	6.01
393.586	5.84
393.793	5.59
394	5.57
394.207	5.7
394.414	5.67
394.622	5.72
394.829	5.53
395.036	5.32
395.243	5.47
395.45	5.43
395.657	5.43
395.864	5.54
396.072	5.47
396.279	5.5
396.486	5.27
396.693	5.07
396.9	5.02
397.107	5.16
397.314	5.41
397.521	5.15
397.728	5.12
397.935	4.97
398.142	4.75
398.349	4.71
398.556	4.55
398.763	4.54
398.97	4.66
399.177	4.64
399.383	4.66
399.59	4.61
399.797	4.45
400.004	4.29
400.211	4.17
400.418	4.35
400.625	4.45
400.831	4.25
401.038	4.47
401.245	4.22
401.452	4.11
401.658	4.09
401.865	3.87
402.072	4.04
402.279	4.1
402.485	4.21
402.692	3.99
402.899	3.96
403.105	3.98
403.312	3.91
403.519	4.1
403.725	4.21
403.932	4.23
404.138	4.31
404.345	4.23
404.552	4.33
404.758	4.27
404.965	4.38
405.171	4.45
405.378	4.59
405.584	4.48
405.791	4.5
405.997	4.51
406.204	4.42
406.41	4.49
406.617	4.65
406.823	4.51
407.029	4.57
407.236	4.53
407.442	4.56
407.649	4.58
407.855	4.51
408.061	4.5
408.268	4.39
408.474	4.52
408.68	4.35
408.887	4.23
409.093	4.33
409.299	4.36
409.505	4.45
409.712	4.45
409.918	4.5
410.124	4.52
410.33	4.48
410.537	4.53
410.743	4.47
410.949	4.72
411.155	4.85
411.361	4.94
411.567	4.87
411.773	4.75
411.98	4.62
412.186	4.48
412.392	4.45
412.598	4.59
412.804	4.58
413.01	4.37
413.216	4.24
413.422	4.09
413.628	3.71
413.834	3.74
414.04	3.87
414.246	3.85
414.452	3.82
414.658	3.89
414.864	3.76
415.07	3.76
415.275	3.84
415.481	3.88
415.687	3.87
415.893	4.1
416.099	4.01
416.305	4.03
416.511	4.16
416.716	4.16
416.922	4.12
417.128	4.16
417.334	4.17
417.539	4.19
417.745	4.16
417.951	4.19
418.157	4.13
418.362	4.21
418.568	4.18
418.774	4.04
418.979	4.06
419.185	4.15
419.391	4.12
419.596	4.08
419.802	3.97
420.008	3.97
420.213	4.56
420.419	4.53
420.624	4.47
420.83	4.43
421.035	4.5
421.241	4.56
421.446	4.54
421.652	4.47
421.857	4.49
422.063	4.5
422.268	4.4
422.474	3.8
422.679	3.82
422.885	3.78
423.09	3.77
423.295	3.78
423.501	3.62
423.706	3.59
423.911	3.63
424.117	3.56
424.322	3.57
424.527	3.71
424.733	3.6
424.938	3.61
425.143	3.64
425.349	3.62
425.554	3.54
425.759	3.67
425.964	3.6
426.169	3.59
426.375	3.63
426.58	3.72
426.785	3.62
426.99	3.68
427.195	3.67
427.4	3.72
427.605	3.82
427.811	3.85
428.016	3.73
428.221	3.7
428.426	3.75
428.631	3.74
428.836	3.63
429.041	3.59
429.246	3.61
429.451	3.57
429.656	3.49
429.861	3.38
430.066	3.37
430.271	3.46
430.476	3.49
430.681	3.38
430.886	3.43
431.09	3.47
431.295	3.49
431.5	3.43
431.705	3.44
431.91	3.48
432.115	3.58
432.32	3.49
432.524	3.45
432.729	3.35
432.934	3.42
433.139	3.47
433.343	3.39
433.548	3.35
433.753	3.43
433.958	3.61
434.162	3.63
434.367	3.56
434.572	3.63
434.776	3.56
434.981	3.61
435.186	3.65
435.39	3.49
435.595	3.55
435.799	3.61
436.004	3.65
436.209	3.55
436.413	3.48
436.618	3.63
436.822	3.69
437.027	3.65
437.231	3.74
437.436	3.72
437.64	3.79
437.845	3.83
438.049	3.81
438.253	3.74
438.458	3.63
438.662	3.54
438.867	3.38
439.071	3.27
439.275	3.37
439.48	3.35
439.684	3.24
439.888	3.28
440.093	3.28
440.297	3.29
440.501	3.25
440.706	3.29
440.91	3.45
441.114	3.52
441.318	3.6
441.523	3.56
441.727	3.53
441.931	3.58
442.135	3.52
442.339	3.5
442.543	3.49
442.748	3.4
442.952	3.29
443.156	3.27
443.36	3.25
443.564	3.2
443.768	3.21
443.972	3.29
444.176	3.32
444.38	3.31
444.584	3.27
444.788	3.27
444.992	3.37
445.196	3.5
445.4	3.48
445.604	3.45
445.808	3.46
446.012	3.47
446.216	3.47
446.42	3.45
446.624	3.37
446.828	3.4
447.032	3.3
447.235	3.32
447.439	3.24
447.643	3.16
447.847	3.2
448.051	3.25
448.254	3.22
448.458	3.08
448.662	3.03
448.866	3.15
449.069	3.2
449.273	3.36
449.477	3.26
449.681	3.2
449.884	3.2
450.088	3.16
450.292	3.08
450.495	3.09
450.699	3.04
450.902	3.12
451.106	3.02
451.31	3.02
451.513	2.97
451.717	2.9
451.92	2.95
452.124	3
452.327	3.09
452.531	3.12
452.734	3.1
452.938	3.24
453.141	3.21
453.345	3.16
453.548	3.06
453.752	3.03
453.955	3.12
454.158	3.1
454.362	3.08
454.565	2.98
454.769	2.86
454.972	2.9
455.175	2.75
455.379	2.73
455.582	2.79
455.785	2.84
455.988	2.81
456.192	2.81
456.395	2.86
456.598	2.81
456.801	2.88
457.005	2.99
457.208	3.05
457.411	3.07
457.614	3.02
457.817	3.03
458.021	3
458.224	3.07
458.427	3.09
458.63	3.11
458.833	3.16
459.036	3.14
459.239	3.11
459.442	3
459.645	3.04
459.848	3.06
460.051	3.15
460.254	3.11
460.457	3.02
460.66	3.03
460.863	3
461.066	3
461.269	2.98
461.472	2.95
461.675	3.07
461.878	3.18
462.081	3.22
462.284	3.18
462.486	3.32
462.689	3.39
462.892	3.45
463.095	3.39
463.298	3.4
463.5	3.35
463.703	3.39
463.906	3.3
464.109	3.19
464.311	3.24
464.514	3.15
464.717	3.08
464.92	2.92
465.122	2.92
465.325	2.92
465.528	3.07
465.73	3.16
465.933	3.18
466.135	3.29
466.338	3.35
466.541	3.33
466.743	3.46
466.946	3.48
467.148	3.61
467.351	3.55
467.553	3.63
467.756	3.47
467.958	3.38
468.161	3.29
468.363	3.21
468.566	3.15
468.768	3.2
468.971	3.17
469.173	3.1
469.375	3.14
469.578	3.01
469.78	3.04
469.983	3
470.185	3.07
470.387	3.22
470.59	3.32
470.792	3.39
470.994	3.28
471.196	3.18
471.399	3.25
471.601	3.37
471.803	3.43
472.005	3.41
472.208	3.52
472.41	3.47
472.612	3.43
472.814	3.3
473.016	3.23
473.218	3.32
473.421	3.35
473.623	3.39
473.825	3.33
474.027	3.32
474.229	3.35
474.431	3.32
474.633	3.45
474.835	3.43
475.037	3.49
475.239	3.52
475.441	3.58
475.643	3.6
475.845	3.49
476.047	3.42
476.249	3.5
476.451	3.43
476.653	3.4
476.855	3.36
477.057	3.34
477.258	3.41
477.46	3.39
477.662	3.25
477.864	3.33
478.066	3.43
478.268	3.37
478.469	3.33
478.671	3.34
478.873	3.35
479.075	3.28
479.276	3.35
479.478	3.26
479.68	3.28
479.882	3.34
480.083	3.24
480.285	3.19
480.487	3.2
480.688	3.22
480.89	3.22
481.091	3.18
481.293	3.22
481.495	3.2
481.696	3.18
481.898	3.19
482.099	3.15
482.301	3.19
482.502	3.24
482.704	3.27
482.905	3.29
483.107	3.32
483.308	3.38
483.51	3.37
483.711	3.39
483.913	3.41
484.114	3.46
484.315	3.52
484.517	3.5
484.718	3.46
484.92	3.45
485.121	3.41
485.322	3.36
485.524	3.37
485.725	3.39
485.926	3.35
486.127	3.39
486.329	3.35
486.53	3.33
486.731	3.31
486.932	3.33
487.134	3.32
487.335	3.38
487.536	3.43
487.737	3.39
487.938	3.4
488.139	3.42
488.341	3.37
488.542	3.34
488.743	3.37
488.944	3.39
489.145	3.35
489.346	3.36
489.547	3.32
489.748	3.24
489.949	3.21
490.15	3.2
490.351	3.25
490.552	3.28
490.753	3.35
490.954	3.36
491.155	3.43
491.356	3.51
491.557	3.57
491.758	3.64
491.959	3.75
492.159	3.87
492.36	3.96
492.561	3.98
492.762	4.02
492.963	4.02
493.164	3.99
493.364	3.98
493.565	3.95
493.766	3.98
493.967	3.89
494.167	3.86
494.368	3.83
494.569	3.72
494.769	3.66
494.97	3.68
495.171	3.7
495.371	3.75
495.572	3.72
495.773	3.68
495.973	3.59
496.174	3.63
496.375	3.62
496.575	3.62
496.776	3.68
496.976	3.69
497.177	3.74
497.377	3.68
497.578	3.69
497.778	3.73
497.979	3.73
498.179	3.84
498.38	3.81
498.58	3.79
498.78	3.84
498.981	3.9
499.181	3.97
499.382	3.93
499.582	4.07
499.782	4.1
499.983	4.1
500.183	4.13
500.383	4.07
500.584	4.19
500.784	4.27
500.984	4.15
501.184	4.04
501.385	4.05
501.585	4.04
501.785	4.04
501.985	3.95
502.185	3.93
502.386	3.97
502.586	4
502.786	3.93
502.986	3.89
503.186	4.06
503.386	4.2
503.586	4.16
503.786	4.17
503.987	4.1
504.187	4.15
504.387	4.18
504.587	4.18
504.787	4.26
504.987	4.29
505.187	4.34
505.387	4.26
505.587	4.15
505.786	4.14
505.986	4.12
506.186	4.12
506.386	4.17
506.586	4.18
506.786	4.22
506.986	4.22
507.186	4.25
507.386	4.24
507.585	4.27
507.785	4.33
507.985	4.44
508.185	4.49
508.384	4.6
508.584	4.63
508.784	4.66
508.984	4.68
509.183	4.71
509.383	4.78
509.583	4.82
509.782	4.94
509.982	4.99
510.182	5.07
510.381	5.09
510.581	5.05
510.781	5.11
510.98	5.2
511.18	5.23
511.379	5.27
511.579	5.2
511.778	5.26
511.978	5.2
512.177	5.26
512.377	5.17
512.576	5.27
512.776	5.44
512.975	5.46
513.175	5.45
513.374	5.45
513.573	5.44
513.773	5.54
513.972	5.53
514.172	5.63
514.371	5.56
514.57	5.58
514.77	5.54
514.969	5.44
515.168	5.46
515.367	5.53
515.567	5.53
515.766	5.55
515.965	5.56
516.164	5.59
516.364	5.55
516.563	5.64
516.762	5.72
516.961	5.75
517.16	5.74
517.359	5.78
517.559	5.74
517.758	5.81
517.957	5.85
518.156	5.86
518.355	5.96
518.554	5.97
518.753	5.97
518.952	6
519.151	6.04
519.35	6.17
519.549	6.16
519.748	6.2
519.947	6.24
520.146	6.27
520.345	6.29
520.544	6.21
520.743	6.33
520.942	6.43
521.141	6.43
521.339	6.42
521.538	6.42
521.737	6.45
521.936	6.46
522.135	6.4
522.333	6.44
522.532	6.48
522.731	6.51
522.93	6.49
523.129	6.43
523.327	6.42
523.526	6.47
523.725	6.48
523.923	6.52
524.122	6.59
524.321	6.64
524.519	6.62
524.718	6.73
524.917	6.75
525.115	6.8
525.314	6.85
525.512	6.92
525.711	6.9
525.909	6.92
526.108	6.95
526.306	6.96
526.505	6.99
526.703	7
526.902	6.96
527.1	7.02
527.299	7.06
527.497	7.07
527.696	7.09
527.894	7.18
528.092	7.22
528.291	7.26
528.489	7.32
528.688	7.37
528.886	7.45
529.084	7.48
529.283	7.51
529.481	7.47
529.679	7.54
529.877	7.58
530.076	7.59
530.274	7.61
530.472	7.62
530.67	7.59
530.869	7.6
531.067	7.59
531.265	7.66
531.463	7.64
531.661	7.7
531.859	7.68
532.057	7.72
532.255	7.76
532.454	7.77
532.652	7.82
532.85	7.89
533.048	7.9
533.246	7.96
533.444	7.99
533.642	8.05
533.84	8.09
534.038	8.19
534.236	8.21
534.434	8.22
534.632	8.29
534.83	8.29
535.027	8.35
535.225	8.41
535.423	8.43
535.621	8.49
535.819	8.55
536.017	8.67
536.215	8.66
536.412	8.69
536.61	8.74
536.808	8.76
537.006	8.83
537.203	8.73
537.401	8.79
537.599	8.85
537.797	8.89
537.994	8.86
538.192	8.84
538.39	8.88
538.587	8.91
538.785	8.93
538.983	8.92
539.18	8.97
539.378	9.06
539.575	9.07
539.773	9.12
539.97	9.19
540.168	9.25
540.366	9.28
540.563	9.34
540.761	9.39
540.958	9.46
541.155	9.55
541.353	9.58
541.55	9.67
541.748	9.74
541.945	9.76
542.143	9.79
542.34	9.81
542.537	9.86
542.735	9.95
542.932	10.02
543.129	10.08
543.327	10.15
543.524	10.18
543.721	10.16
543.919	10.24
544.116	10.28
544.313	10.29
544.51	10.36
544.708	10.44
544.905	10.5
545.102	10.55
545.299	10.61
545.496	10.68
545.693	10.84
545.891	10.83
546.088	10.83
546.285	10.9
546.482	10.99
546.679	11.04
546.876	11.06
547.073	11.11
547.27	11.1
547.467	11.08
547.664	11.13
547.861	11.18
548.058	11.35
548.255	11.39
548.452	11.48
548.649	11.56
548.846	11.6
549.043	11.71
549.24	11.69
549.437	11.72
549.633	11.82
549.83	11.78
550.027	11.73
550.224	11.8
550.421	11.98
550.618	12.15
550.814	12.19
551.011	12.24
551.208	12.33
551.405	12.43
551.601	12.64
551.798	12.72
551.995	12.89
552.191	12.96
552.388	13.09
552.585	13.18
552.781	13.16
552.978	13.22
553.175	13.32
553.371	13.27
553.568	13.44
553.764	13.53
553.961	13.63
554.157	13.63
554.354	13.81
554.55	13.81
554.747	13.83
554.943	13.96
555.14	14.02
555.336	14.19
555.533	14.32
555.729	14.29
555.926	14.29
556.122	14.3
556.318	14.36
556.515	14.39
556.711	14.68
556.907	14.72
557.104	14.75
557.3	14.84
557.496	14.89
557.693	15.02
557.889	15.18
558.085	15.29
558.281	15.34
558.478	15.52
558.674	15.53
558.87	15.51
559.066	15.62
559.262	15.68
559.459	15.73
559.655	15.89
559.851	15.98
560.047	16.08
560.243	16.07
560.439	16.12
560.635	16.18
560.831	16.28
561.027	16.31
561.223	16.36
561.419	16.47
561.615	16.6
561.811	16.6
562.007	16.62
562.203	16.57
562.399	16.7
562.595	16.73
562.791	16.71
562.987	16.83
563.183	16.92
563.379	17.05
563.575	17.13
563.771	17.14
563.966	17.14
564.162	17.23
564.358	17.34
564.554	17.48
564.75	17.65
564.945	17.74
565.141	17.85
565.337	17.93
565.533	17.94
565.728	18.03
565.924	18.22
566.12	18.4
566.315	18.47
566.511	18.57
566.707	18.56
566.902	18.58
567.098	18.67
567.293	18.71
567.489	18.67
567.684	18.77
567.88	18.76
568.076	18.66
568.271	18.58
568.467	18.67
568.662	18.67
568.858	18.75
569.053	18.83
569.248	18.94
569.444	18.99
569.639	19.18
569.835	19.28
570.03	19.45
570.225	19.53
570.421	19.7
570.616	19.67
570.812	19.77
571.007	19.77
571.202	19.87
571.397	19.89
571.593	19.96
571.788	20.04
571.983	20.09
572.178	20.1
572.374	20.22
572.569	20.25
572.764	20.36
572.959	20.48
573.154	20.64
573.35	20.74
573.545	20.85
573.74	20.93
573.935	20.96
574.13	21.03
574.325	21.05
574.52	21.05
574.715	21.13
574.91	21.25
575.105	21.26
575.3	21.32
575.495	21.29
575.69	21.35
575.885	21.41
576.08	21.43
576.275	21.44
576.47	21.53
576.665	21.68
576.86	21.71
577.055	21.73
577.25	21.76
577.444	21.84
577.639	21.9
577.834	21.85
578.029	21.9
578.224	21.99
578.418	22.09
578.613	22.23
578.808	22.26
579.003	22.38
579.197	22.49
579.392	22.58
579.587	22.48
579.781	22.61
579.976	22.85
580.171	22.95
580.365	22.97
580.56	22.99
580.755	22.95
580.949	22.89
581.144	22.82
581.338	22.72
581.533	22.81
581.727	22.76
581.922	22.59
582.116	22.49
582.311	22.5
582.505	22.56
582.7	22.62
582.894	22.7
583.089	22.9
583.283	22.92
583.478	22.95
583.672	22.97
583.866	23.28
584.061	23.36
584.255	23.45
584.449	23.4
584.644	23.39
584.838	23.48
585.032	23.47
585.226	23.34
585.421	23.42
585.615	23.63
585.809	23.56
586.003	23.5
586.198	23.66
586.392	23.85
586.586	23.82
586.78	23.86
586.974	23.89
587.168	23.93
587.363	24.03
587.557	23.95
587.751	24.02
587.945	24.21
588.139	24.16
588.333	24.2
588.527	24.2
588.721	24.27
588.915	24.32
589.109	24.3
589.303	24.28
589.497	24.37
589.691	24.57
589.885	24.54
590.079	24.47
590.273	24.52
590.466	24.53
590.66	24.56
590.854	24.61
591.048	24.52
591.242	24.64
591.436	24.79
591.629	24.77
591.823	24.73
592.017	24.74
592.211	24.84
592.404	24.98
592.598	24.96
592.792	24.85
592.986	24.86
593.179	24.98
593.373	24.88
593.567	24.92
593.76	25.07
593.954	25.16
594.147	25.19
594.341	25.31
594.535	25.44
594.728	25.49
594.922	25.48
595.115	25.56
595.309	25.49
595.502	25.53
595.696	25.49
595.889	25.36
596.083	25.34
596.276	25.27
596.47	25.28
596.663	25.13
596.856	25.11
597.05	25.19
597.243	25.24
597.437	25.38
597.63	25.47
597.823	25.44
598.017	25.53
598.21	25.57
598.403	25.66
598.596	25.61
598.79	25.6
598.983	25.61
599.176	25.64
599.369	25.56
599.563	25.6
599.756	25.58
599.949	25.64
600.142	25.48
600.335	25.55
600.528	25.54
600.722	25.46
600.915	25.55
601.108	25.73
601.301	25.71
601.494	25.73
601.687	25.66
601.88	25.58
602.073	25.66
602.266	25.92
602.459	25.95
602.652	25.96
602.845	26.06
603.038	26.1
603.231	26.01
603.424	26.09
603.617	26.05
603.809	26.22
604.002	26.26
604.195	26.22
604.388	26.16
604.581	26.24
604.774	26.32
604.966	26.26
605.159	26.28
605.352	26.28
605.545	26.29
605.737	26.32
605.93	26.28
606.123	26.4
606.316	26.55
606.508	26.67
606.701	26.62
606.894	26.74
607.086	26.83
607.279	26.92
607.471	27.03
607.664	26.99
607.857	27.12
608.049	27.09
608.242	27.02
608.434	26.9
608.627	26.88
608.819	26.85
609.012	26.7
609.204	26.71
609.397	26.7
609.589	26.55
609.782	26.64
609.974	26.48
610.166	26.47
610.359	26.46
610.551	26.36
610.743	26.26
610.936	26.16
611.128	26.19
611.32	26.15
611.513	25.97
611.705	26.22
611.897	26.12
612.09	26.37
612.282	26.25
612.474	26.49
612.666	26.71
612.858	26.76
613.051	27.03
613.243	27.14
613.435	27.27
613.627	27.32
613.819	27.2
614.011	27.38
614.203	27.26
614.395	27.53
614.588	27.6
614.78	27.46
614.972	27.32
615.164	27.01
615.356	26.98
615.548	26.93
615.74	27.13
615.932	27.17
616.124	26.99
616.315	27.02
616.507	26.87
616.699	26.6
616.891	26.65
617.083	26.74
617.275	27.02
617.467	27.17
617.659	27.06
617.85	26.98
618.042	27.06
618.234	27.21
618.426	27.35
618.618	27.44
618.809	27.64
619.001	27.83
619.193	27.89
619.384	27.9
619.576	27.73
619.768	27.81
619.959	27.91
620.151	27.82
620.343	27.78
620.534	27.53
620.726	27.5
620.917	27.29
621.109	27.25
621.301	27.32
621.492	27.1
621.684	27.06
621.875	27.25
622.067	27.18
622.258	27.29
622.45	27.26
622.641	27.28
622.832	27.38
623.024	27.53
623.215	27.39
623.407	27.25
623.598	27.37
623.789	27.52
623.981	27.44
624.172	27.42
624.363	27.4
624.555	27.42
624.746	27.51
624.937	27.42
625.129	27.51
625.32	27.55
625.511	27.59
625.702	27.64
625.893	27.56
626.085	27.56
626.276	27.59
626.467	27.56
626.658	27.47
626.849	27.63
627.04	27.53
627.231	27.45
627.422	27.5
627.614	27.62
627.805	27.46
627.996	27.47
628.187	27.47
628.378	27.46
628.569	27.48
628.76	27.68
628.951	27.67
629.142	27.75
629.332	27.61
629.523	27.52
629.714	27.38
629.905	27.55
630.096	27.59
630.287	27.59
630.478	27.61
630.669	27.64
630.859	27.76
631.05	27.56
631.241	27.53
631.432	27.59
631.623	27.75
631.813	27.83
632.004	27.81
632.195	27.92
632.385	27.83
632.576	27.84
632.767	27.74
632.957	27.57
633.148	27.57
633.339	27.7
633.529	27.67
633.72	27.55
633.91	27.52
634.101	27.52
634.292	27.43
634.482	27.36
634.673	27.16
634.863	27.18
635.054	27.17
635.244	27.28
635.435	27.19
635.625	27.22
635.815	27.4
636.006	27.41
636.196	27.44
636.387	27.49
636.577	27.46
636.767	27.67
636.958	27.65
637.148	27.65
637.338	27.78
637.529	27.92
637.719	28.07
637.909	28
638.099	27.87
638.29	27.64
638.48	27.73
638.67	27.89
638.86	27.9
639.05	27.96
639.241	27.99
639.431	27.88
639.621	27.81
639.811	27.89
640.001	27.85
640.191	28.33
640.381	28.61
640.571	28.57
640.761	28.66
640.951	28.66
641.141	28.69
641.331	28.75
641.521	28.61
641.711	28.55
641.901	28.53
642.091	28.6
642.281	28.21
642.471	28.25
642.661	28.35
642.851	28.2
643.041	28.16
643.231	28.27
643.42	28.06
643.61	28.18
643.8	28.41
643.99	28.17
644.18	28.1
644.369	28.05
644.559	28.12
644.749	27.98
644.939	27.97
645.128	27.99
645.318	27.99
645.508	28.12
645.697	28.06
645.887	28.05
646.076	27.94
646.266	27.93
646.456	28.16
646.645	27.81
646.835	27.82
647.024	28.15
647.214	28.41
647.403	28.13
647.593	28.28
647.782	28.33
647.972	28.17
648.161	28.31
648.351	28.26
648.54	28.17
648.73	28.28
648.919	28.36
649.108	28.22
649.298	27.9
649.487	28.19
649.677	28.11
649.866	28.26
650.055	28.51
650.244	28.61
650.434	28.92
650.623	28.92
650.812	28.96
651.002	28.99
651.191	28.95
651.38	28.99
651.569	29.16
651.758	29.12
651.947	28.95
652.137	28.83
652.326	28.82
652.515	28.53
652.704	28.59
652.893	28.65
653.082	28.57
653.271	28.5
653.46	28.69
653.649	28.53
653.838	28.69
654.027	28.77
654.216	28.88
654.405	29.05
654.594	29.08
654.783	29.07
654.972	28.99
655.161	28.7
655.35	28.92
655.539	28.88
655.728	28.63
655.916	28.45
656.105	28.32
656.294	28.15
656.483	28.12
656.672	28.35
656.86	28.4
657.049	28.41
657.238	28.74
657.427	28.65
657.615	28.73
657.804	28.82
657.993	28.81
658.181	28.83
658.37	28.8
658.559	28.83
658.747	28.74
658.936	28.7
659.125	28.39
659.313	28.39
659.502	28.31
659.69	28.04
659.879	28.18
660.067	28.32
660.256	28.37
660.444	28.48
660.633	28.41
660.821	28.21
661.01	28.26
661.198	28.53
661.387	28.35
661.575	28.25
661.763	28.44
661.952	28.41
662.14	28.52
662.328	28.57
662.517	28.45
662.705	28.34
662.893	28.4
663.082	28.42
663.27	28.57
663.458	28.77
663.646	28.97
663.834	28.92
664.023	28.78
664.211	28.6
664.399	28.45
664.587	28.31
664.775	28.05
664.963	28.14
665.152	28.07
665.34	28.21
665.528	28.14
665.716	27.97
665.904	28.03
666.092	28.03
666.28	27.98
666.468	27.81
666.656	27.85
666.844	28.1
667.032	28.29
667.22	28.33
667.408	28.12
667.596	27.97
667.784	28.11
667.971	28.01
668.159	28.19
668.347	28.23
668.535	28.49
668.723	28.58
668.911	28.68
669.098	28.55
669.286	28.44
669.474	28.4
669.662	28.42
669.849	28.41
670.037	28.34
670.225	28.13
670.413	27.96
670.6	28.01
670.788	28.01
670.976	28
671.163	27.93
671.351	28.01
671.538	28.28
671.726	28.46
671.913	28.33
672.101	28.5
672.289	28.45
672.476	28.35
672.664	28.34
672.851	28.23
673.039	28.32
673.226	28.43
673.413	28.54
673.601	28.69
673.788	28.58
673.976	28.76
674.163	28.56
674.35	28.64
674.538	28.72
674.725	28.61
674.912	28.84
675.1	28.6
675.287	28.63
675.474	28.53
675.662	28.1
675.849	28.18
676.036	28.1
676.223	28.14
676.411	28.28
676.598	28.41
676.785	28.41
676.972	28.21
677.159	28.2
677.346	28.11
677.533	27.95
677.721	28.34
677.908	28.31
678.095	28.42
678.282	28.49
678.469	28.55
678.656	28.59
678.843	28.72
679.03	29.17
679.217	29.09
679.404	29.05
679.591	29.27
679.778	29.23
679.964	29.25
680.151	29.21
680.338	29.11
680.525	28.81
680.712	28.82
680.899	28.72
681.086	28.41
681.272	28.53
681.459	28.81
681.646	28.94
681.833	28.85
682.02	28.78
682.206	28.94
682.393	29.28
682.58	29.52
682.766	29.45
682.953	29.63
683.14	29.58
683.326	29.74
683.513	29.56
683.7	29.23
683.886	29.1
684.073	29.47
684.259	29.23
684.446	29.11
684.632	29.06
684.819	29.02
685.005	28.89
685.192	28.95
685.378	28.75
685.565	28.56
685.751	28.72
685.938	28.66
686.124	28.12
686.31	28.35
686.497	28.24
686.683	27.96
686.87	27.97
687.056	27.98
687.242	27.94
687.429	28.1
687.615	28.17
687.801	27.92
687.987	28.24
688.174	28.54
688.36	28.26
688.546	28.22
688.732	28.65
688.918	28.89
689.105	28.93
689.291	29.1
689.477	29.17
689.663	29.19
689.849	29.42
690.035	29.08
690.221	29.1
690.407	29.29
690.593	29.12
690.779	28.86
690.965	28.79
691.151	28.76
691.337	28.78
691.523	28.69
691.709	28.74
691.895	29.02
692.081	28.98
692.267	28.91
692.453	28.76
692.639	28.93
692.825	29.01
693.011	29.22
693.196	29.24
693.382	28.9
693.568	28.86
693.754	29
693.94	28.84
694.125	28.83
694.311	28.62
694.497	28.64
694.682	28.76
694.868	28.78
695.054	28.56
695.239	28.27
695.425	28.15
695.611	27.92
695.796	27.94
695.982	28.01
696.168	28.09
696.353	28.21
696.539	28.26
696.724	28.33
696.91	28.4
697.095	28.57
697.281	28.72
697.466	28.87
697.652	29.01
697.837	28.92
698.023	29.01
698.208	29.22
698.393	29.37
698.579	29.56
698.764	29.55
698.949	29.71
699.135	29.52
699.32	29.27
699.505	29.32
699.691	29.32
699.876	29.35
700.061	29.32
700.246	29.13
700.432	29.05
700.617	29.05
700.802	28.67
700.987	28.49
701.172	28.64
701.358	28.98
701.543	29.38
701.728	29.38
701.913	29.25
702.098	29.05
702.283	29.18
702.468	28.95
702.653	28.52
702.838	29.15
703.023	29.02
703.208	28.6
703.393	28.87
703.578	28.46
703.763	28.83
703.948	28.91
704.133	28.93
704.318	29
704.503	29.18
704.688	29.49
704.873	29.15
705.057	29.25
705.242	29.33
705.427	29.41
705.612	29.45
705.797	28.8
705.981	28.38
706.166	28.47
706.351	28
706.536	27.92
706.72	27.86
706.905	28.04
707.09	28.47
707.274	28.53
707.459	28.2
707.644	28.42
707.828	28.94
708.013	29.36
708.197	29.01
708.382	29.24
708.567	29.56
708.751	29.8
708.936	29.61
709.12	29.36
709.305	29.37
709.489	29.22
709.673	28.71
709.858	28.49
710.042	28.23
710.227	28.46
710.411	28.44
710.596	28.18
710.78	27.69
710.964	27.52
711.149	27.54
711.333	27.55
711.517	27.74
711.702	28
711.886	28.05
712.07	28.38
712.254	28.34
712.438	28.28
712.623	28.32
712.807	28.65
712.991	29.03
713.175	29.05
713.359	29.12
713.544	29
713.728	28.95
713.912	28.9
714.096	28.69
714.28	28.85
714.464	28.64
714.648	28.5
714.832	28.4
715.016	27.78
715.2	27.4
715.384	27.25
715.568	27.5
715.752	27.21
715.936	27.18
716.12	27.47
716.304	27.26
716.488	27.68
716.671	27.76
716.855	27.68
717.039	28.12
717.223	28.33
717.407	28.27
717.59	28.18
717.774	28.46
717.958	28.74
718.142	28.39
718.325	28.49
718.509	28.14
718.693	28.06
718.877	27.79
719.06	27.63
719.244	27.85
719.428	28.18
719.611	27.86
719.795	27.99
719.978	27.86
720.162	27.56
720.345	27.77
720.529	27.82
720.713	28.08
720.896	28.17
721.08	28.18
721.263	28.08
721.446	27.83
721.63	27.81
721.813	27.55
721.997	27.51
722.18	27.9
722.364	27.64
722.547	27.76
722.73	27.67
722.914	27.84
723.097	27.99
723.28	27.74
723.464	28.07
723.647	28.28
723.83	28.59
724.013	28.37
724.197	28.8
724.38	29.02
724.563	29.14
724.746	29.15
724.929	29.33
725.112	29.5
725.296	29.68
725.479	29.28
725.662	29
725.845	28.79
726.028	28.59
726.211	28.19
726.394	27.94
726.577	27.62
726.76	26.93
726.943	26.91
727.126	26.53
727.309	26.33
727.492	26.45
727.675	26.75
727.858	26.71
728.041	26.84
728.224	26.81
728.407	26.52
728.589	26.99
728.772	27.71
728.955	27.57
729.138	27.82
729.321	27.53
729.503	27.61
729.686	27.39
729.869	27.4
730.052	27.63
730.234	27.36
730.417	27.57
730.6	27.57
730.782	27.1
730.965	27.32
731.148	27.38
731.33	27.71
731.513	27.76
731.695	27.92
731.878	27.66
732.061	27.84
732.243	27.97
732.426	28.29
732.608	28.25
732.791	28.41
732.973	28.14
733.156	28.04
733.338	28.08
733.52	27.85
733.703	27.89
733.885	28.17
734.068	27.82
734.25	27.74
734.432	26.96
734.615	26.82
734.797	26.63
734.979	27.11
735.162	27.03
735.344	26.77
735.526	27.16
735.708	26.75
735.891	26.85
736.073	26.86
736.255	26.87
736.437	27.22
736.619	27.17
736.802	27.78
736.984	27.31
737.166	27.43
737.348	27.8
737.53	27.39
737.712	27.49
737.894	27.17
738.076	27.1
738.258	27.46
738.44	27.71
738.622	27.3
738.804	26.61
738.986	26.49
739.168	26.45
739.35	26.66
739.532	26.81
739.714	26.75
739.896	26.89
740.078	26.69
740.259	26.09
740.441	25.73
740.623	25.6
740.805	26.13
740.987	25.52
741.168	25.89
741.35	25.27
741.532	25.15
741.714	24.9
741.895	25.63
742.077	25.83
742.259	26.2
742.44	26.02
742.622	27.19
742.804	26.87
742.985	28.28
743.167	28.32
743.348	28.25
743.53	28.44
743.711	28.41
743.893	27.47
744.075	27.84
744.256	28.19
744.438	28.73
744.619	27.64
744.8	27.73
744.982	26.72
745.163	26.48
745.345	26.62
745.526	26.47
745.707	27.31
745.889	26.92
746.07	26.78
746.252	26.82
746.433	26.44
746.614	26.82
746.795	26.91
746.977	27.53
747.158	27.4
747.339	28.11
747.52	28.18
747.702	27.66
747.883	28.42
748.064	28.46
748.245	28.16
748.426	28.38
748.607	28.26
748.788	27.96
748.97	27.69
749.151	27.28
749.332	26.64
749.513	26.84
749.694	27.27
749.875	27.18
750.056	27.54
750.237	27.58
750.418	27.56
750.599	27.83
750.78	28.25
750.96	29.1
751.141	29.25
751.322	29.42
751.503	29
751.684	28.52
751.865	28.68
752.046	28.35
752.226	28.47
752.407	28.06
752.588	27.68
752.769	27.71
752.949	26.59
753.13	26.91
753.311	27.1
753.492	27.78
753.672	28.11
753.853	27.44
754.034	26.93
754.214	26.85
754.395	26.5
754.575	26.21
754.756	25.76
754.937	25.68
755.117	25.21
755.298	25.46
755.478	24.8
755.659	25.04
755.839	25.31
756.02	24.8
756.2	24.84
756.381	25.8
756.561	26.33
756.741	26.58
756.922	26.59
757.102	26.92
757.283	26.23
757.463	26.1
757.643	25.98
757.823	25.88
758.004	26.34
758.184	26.12
758.364	26.13
758.545	25.97
758.725	25.87
758.905	26.21
759.085	26.02
759.265	26.06
759.446	26.19
759.626	26.26
759.806	26.66
759.986	26.72
760.166	26.3
760.346	25.63
760.526	25.66
760.706	26.15
760.886	26.79
761.066	26.55
761.246	26.03
761.426	26.34
761.606	26.62
761.786	26.73
761.966	26.78
762.146	27.15
762.326	27.59
762.506	27.52
762.686	27.34
762.866	26.81
763.046	26.45
763.225	26.63
763.405	26.81
763.585	26.36
763.765	26.6
763.945	26.99
764.124	27.01
764.304	27.02
764.484	27.2
764.664	27.3
764.843	27.6
765.023	28.35
765.203	28.53
765.382	28.13
765.562	28.7
765.741	28.64
765.921	28.2
766.101	28.28
766.28	28.17
766.46	28.07
766.639	27.73
766.819	27.81
766.998	27.74
767.178	28.13
767.357	28
767.537	27.24
767.716	26.42
767.896	26.38
768.075	26.72
768.254	26.86
768.434	26.78
768.613	26.68
768.792	25.97
768.972	25.57
769.151	25.77
769.33	26.41
769.51	26.88
769.689	26.99
769.868	26.92
770.047	26.29
770.226	25.97
770.406	26.58
770.585	26.9
770.764	27.42
770.943	27.21
771.122	26.59
771.301	26.58
771.48	26.77
771.66	26.71
771.839	26.53
772.018	26.12
772.197	26
772.376	25.67
772.555	26.02
772.734	25.77
772.913	26.17
773.092	24.9
773.271	24.91
773.449	24.68
773.628	25.02
773.807	24.99
773.986	25.51
774.165	26.13
774.344	26.29
774.523	25.63
774.701	26.62
774.88	27.06
775.059	27.78
775.238	27.73
775.417	27.63
775.595	27.37
775.774	27.16
775.953	27.35
776.131	27.03
776.31	27.15
776.489	27
776.667	26.1
776.846	25.79
777.025	26.99
777.203	25.48
777.382	26.06
777.56	26.6
777.739	26.79
777.917	26.88
778.096	27.26
778.274	27.2
778.453	27.93
778.631	27.65
778.81	27.38
778.988	27.21
779.166	28.23
779.345	28.03
779.523	28.43
779.702	29.03
779.88	29.23
780.058	29.06
780.237	28.67
780.415	28.2
780.593	28.44
780.771	29.08
780.95	28.9
781.128	29.41
781.306	29.38
781.484	29.91
781.662	30.58
781.841	30.06
782.019	30.05
782.197	29.78
782.375	30.77
782.553	31.78
782.731	32.1
782.909	31.85
783.087	31.42
783.265	32.35
783.443	30.98
783.621	29.83
783.799	30.52
783.977	29.97
784.155	29.58
784.333	29.33
784.511	28.1
784.689	27.6
784.867	27.31
785.045	26.88
785.223	25.7
785.4	25.66
785.578	25.31
785.756	25.74
785.934	26.76
786.112	27.55
786.289	26.58
786.467	26.01
786.645	25.94
786.823	26.2
787	25.83
787.178	25.54
787.356	25.63
787.533	26.42
787.711	25.29
787.889	24.79
788.066	24.1
788.244	24.46
788.421	24.97
788.599	25.25
788.776	24.73
788.954	25.4
789.131	25.07
789.309	26.18
789.486	26.59
789.664	26.46
789.841	25.63
790.019	26.04
790.196	25.51
790.373	25.9
790.551	25.5
790.728	25.96
790.906	25.88
791.083	26.57
791.26	25.43
791.437	24.87
791.615	25.24
791.792	25.95
791.969	26.2
792.146	26.07
792.324	25.86
792.501	25.85
792.678	26.63
792.855	26.6
793.032	26.82
793.209	27.69
793.387	27.38
793.564	27.51
793.741	27.38
793.918	27.69
794.095	28.27
794.272	27.65
794.449	27.74
794.626	27.61
794.803	27.44
794.98	27.36
795.157	27.14
795.334	27.22
795.511	27.69
795.688	27.64
795.864	27.05
796.041	26.86
796.218	27.78
796.395	27.49
796.572	26.85
796.749	27.73
796.925	27.01
797.102	26.12
797.279	26.53
797.456	25.29
797.632	26.19
797.809	25.87
797.986	25.74
798.162	25.76
798.339	25.34
798.516	24.92
798.692	24.78
798.869	25.06
799.046	25.72
799.222	25.62
799.399	26.84
799.575	25.87
799.752	26.65
799.928	26.72
800.105	26.45
800.281	28.13
800.458	28.71
800.634	28.27
800.811	28.27
800.987	28.28
801.163	28.58
801.34	28.15
801.516	28.78
801.692	27.64
801.869	28.43
802.045	27.69
802.221	26.89
802.398	26.91
802.574	26.47
802.75	27.11
802.926	27.11
803.103	25.88
803.279	25.45
803.455	25.64
803.631	27.26
803.807	27.41
803.983	28.02
804.16	27.93
804.336	27.66
804.512	28.55
804.688	27.41
804.864	27.32
805.04	27.55
805.216	28.13
805.392	27.3
805.568	26.36
805.744	25.68
805.92	26.16
806.096	25.48
806.272	25.63
806.448	24.74
806.623	25.2
806.799	25.59
806.975	25.13
807.151	23.89
807.327	22.88
807.503	22.26
807.678	21.05
807.854	20.87
808.03	21.51
808.206	20.85
808.381	20.96
808.557	21.53
808.733	20.44
808.908	20.86
809.084	21.59
809.26	22.73
809.435	22.63
809.611	23.38
809.787	24.2
809.962	24.3
810.138	25.55
810.313	26.88
810.489	27.24
810.664	26.91
810.84	27.07
811.015	27.04
811.191	25.89
811.366	26.54
811.542	27.16
811.717	26.25
811.892	26.3
812.068	26.76
812.243	25.51
812.419	26.29
812.594	26.63
812.769	26.55
812.944	27.23
813.12	28.78
813.295	30.01
813.47	30.11
813.645	29.55
813.821	29.26
813.996	29.08
814.171	29.15
814.346	26.98
814.521	27.46
814.697	29.29
814.872	28.96
815.047	28.84
815.222	26.53
815.397	25.43
815.572	25.84
815.747	26.3
815.922	26.32
816.097	26.71
816.272	26.98
816.447	26.79
816.622	25.62
816.797	26.16
816.972	26.05
817.147	28.14
817.322	29.32
817.496	29.43
817.671	29.02
817.846	28.52
818.021	28.29
818.196	28.34
818.371	28.12
818.545	27.47
818.72	27.34
818.895	27.19
819.069	26.3
819.244	25.08
819.419	24.76
819.594	25.09
819.768	24.97
819.943	25.06
820.117	24.27
820.292	24.88
820.467	25.05
820.641	25.33
820.816	25.61
820.99	25.77
821.165	26.09
821.339	26.18
821.514	26.21
821.688	26.22
821.863	26.52
822.037	26.86
822.212	26.59
822.386	26.38
822.56	26.3
822.735	26.11
822.909	25.97
823.084	26.07
823.258	26.25
823.432	25.87
823.606	25.73
823.781	25.11
823.955	24.7
824.129	24.93
824.303	25.43
824.478	25.26
824.652	25.57
824.826	25.9
825	25.77
825.174	25.51
825.348	26.44
825.523	26.62
825.697	27.19
825.871	28.05
826.045	27.87
826.219	27.49
826.393	27.72
826.567	27.64
826.741	27.47
826.915	27.39
827.089	27.55
827.263	27.2
827.437	27.53
827.611	27.27
827.784	27.26
827.958	27.25
828.132	27.43
828.306	27.59
828.48	27.54
828.654	27.3
828.827	27.64
829.001	27.01
829.175	26.78
829.349	26.58
829.522	26.64
829.696	26.49
829.87	26.19
830.044	25.31
830.217	24.45
830.391	25.07
830.565	25.11
830.738	25.34
830.912	25.64
831.085	25.2
831.259	24.46
831.432	24.58
831.606	23.39
831.779	24.3
831.953	23.76
832.126	24.04
832.3	22.62
832.473	23.59
832.647	23.67
832.82	24.87
832.994	25.07
833.167	24.99
833.34	24.89
833.514	25.07
833.687	24.84
833.86	26.11
834.034	25.97
834.207	26.78
834.38	25.87
834.553	25.75
834.727	25.04
834.9	26.06
835.073	26.31
835.246	26.66
835.419	26.93
835.593	26.6
835.766	26.51
835.939	26.23
836.112	25.93
836.285	26.27
836.458	25.49
836.631	24.75
836.804	22.89
836.977	22.88
837.15	22.71
837.323	23.92
837.496	23.92
837.669	23.78
837.842	24.94
838.015	25.47
838.188	26.45
838.361	27.49
838.533	27.65
838.706	28.71
838.879	28.33
839.052	28.17
839.225	26.24
839.398	26.77
839.57	26.35
839.743	25.08
839.916	24.77
840.088	24.73
840.261	23.99
840.434	24.64
840.607	24.5
840.779	24.7
840.952	23.77
841.124	22.46
841.297	22.15
841.47	22.4
841.642	24.9
841.815	24.55
841.987	23.53
842.16	24.18
842.332	21.49
842.505	19.77
842.677	18.12
842.85	19.33
843.022	24.68
843.194	23.8
843.367	21.82
843.539	19.51
843.712	20.45
843.884	21.68
844.056	19.76
844.229	22.77
844.401	24.54
844.573	26.31
844.745	25.42
844.918	21.08
845.09	21.6
845.262	24.31
845.434	25
845.606	21.56
845.779	19.58
845.951	20.98
846.123	21.45
846.295	21.43
846.467	21.33
846.639	21.09
846.811	22.94
846.983	21.31
847.155	21.09
847.327	20.61
847.499	21.33
847.671	23.46
847.843	21.38
848.015	20.77
848.187	18
848.359	14.3
848.531	15.64
848.703	13.25
848.875	14.28
849.047	15.4
849.218	17.48
849.39	19.36
849.562	20.58
849.734	24.92
849.905	26.36
850.077	29.9
850.249	31.47
850.421	31.38
850.592	30.7
850.764	32.21
850.936	30.72
851.107	29.39
851.279	28.28
851.451	28
851.622	23.16
851.794	21.78
851.965	20.54
852.137	20.58
852.308	19.1
852.48	19.31
852.651	18.35
852.823	17.93
852.994	18.24
853.166	16.95
853.337	16.94
853.509	20.44
853.68	18.54
853.851	20.45
854.023	21.75
854.194	21.86
854.365	23.32
854.537	24.64
854.708	23.98
854.879	22.43
855.05	24.67
855.222	18.48
855.393	18.84
855.564	20.18
855.735	15.42
855.906	17.86
856.078	17.51
856.249	14.02
856.42	12.73
856.591	17.37
856.762	16.79
856.933	20.93
857.104	24.5
857.275	24.91
857.446	23.86
857.617	27.21
857.788	25.95
857.959	28.42
858.13	32.48
858.301	34.19
858.472	30.27
858.643	32.41
858.814	27.38
858.985	29.46
859.155	24.85
859.326	25.19
859.497	20.61
859.668	18.16
859.839	18.08
860.009	11.61
860.18	11.65
860.351	13.37
860.522	9
860.692	12.91
860.863	14.18
861.034	18.35
861.204	15.7
861.375	19.71
861.546	22.37
861.716	23.47
861.887	24.92
862.057	20.73
862.228	20.38
862.398	23.26
862.569	20.34
862.739	21.49
862.91	24.24
863.08	28.29
863.251	26.68
863.421	25.83
863.592	25.32
863.762	26.73
863.932	30.21
864.103	28.36
864.273	25.56
864.443	27.3
864.614	17.28
864.784	13.88
864.954	12.61
865.125	12.42
865.295	11.36
865.465	7.38
865.635	10.49
865.805	9.93
865.976	16.55
866.146	19.56
866.316	22.88
866.486	29.37
866.656	30.15
866.826	30.75
866.996	30.34
867.166	31.64
867.336	32.44
867.506	30.17
867.676	28.69
867.846	24.7
868.016	26.66
868.186	19.73
868.356	19.77
868.526	23.46
868.696	21.21
868.866	19.97
869.036	22.97
869.206	25.47
869.376	27.54
869.545	28.92
869.715	31.04
869.885	29.03
870.055	29.98
870.224	27.3
870.394	23.92
870.564	26.12
870.734	27.91
870.903	27.03
871.073	21.78
871.243	19.59
871.412	21.53
871.582	16.98
871.751	19.18
871.921	18.43
872.091	18.55
872.26	18.71
872.43	16.17
872.599	16.41
872.769	21.24
872.938	24.19
873.108	25.44
873.277	24.33
873.446	28.13
873.616	26.73
873.785	28.62
873.955	35.47
874.124	33.95
874.293	34.4
874.463	35.31
874.632	29.28
874.801	27.72
874.971	25.97
875.14	25.78
875.309	25.83
875.478	25.05
875.647	23.06
875.817	17.89
875.986	15.73
876.155	20.63
876.324	22.27
876.493	25.27
876.662	28.75
876.831	30.09
877	28.28
877.17	28.08
877.339	25.55
877.508	27.5
877.677	26.54
877.846	30.61
878.015	30.75
878.184	28.83
878.352	26.58
878.521	26.42
878.69	26.09
878.859	27.36
879.028	27.12
879.197	29.72
879.366	29.39
879.534	31.26
879.703	31.04
879.872	28.59
880.041	28.96
880.21	28.27
880.378	29.72
880.547	29.68
880.716	28.53
880.884	28.89
881.053	28.14
881.222	27.64
881.39	26.86
881.559	26.45
881.727	26.25
881.896	26.39
882.065	26.55
882.233	26.2
882.402	26.26
882.57	26.74
882.739	26.02
882.907	26.69
883.076	26.75
883.244	26.77
883.412	26.55
883.581	26.82
883.749	26.55
883.918	26.04
884.086	24.71
884.254	24.19
884.423	23.65
884.591	24.08
884.759	23.47
884.927	23.52
885.096	23.36
885.264	23.39
885.432	23.33
885.6	22.73
885.769	23.11
885.937	24.62
886.105	23.85
886.273	25.99
886.441	26.38
886.609	27.36
886.777	26.84
886.945	26.45
887.113	25.68
887.281	25.35
887.449	27.2
887.617	26.83
887.785	26.87
887.953	28.62
888.121	26.67
888.289	22.83
888.457	19.64
888.625	18.77
888.793	20.64
888.961	25.26
889.129	25.42
889.296	24.94
889.464	26.03
889.632	24.52
889.8	23.36
889.967	20.86
890.135	26.55
