Data from 2938440_Reflection_1.txt Node
Date: Fri Jun 19 18:24:04 EDT 2015
User: robert
Spectrometer: USB4E03002
Autoset integration time: false
Trigger mode: 4
Integration Time (sec): 1.000000E-1
Scans to average: 10
Electric dark correction enabled: true
Nonlinearity correction enabled: false
Boxcar width: 5
Stray light correction enabled: false
XAxis mode: Wavelengths
Stop averaging: false
Number of Pixels in Spectrum: 3648
>>>>>Begin Spectral Data<<<<<
177.575	81.02
177.794	83.02
178.014	36.75
178.233	16.04
178.452	9.44
178.672	0.99
178.891	-208.56
179.11	92.59
179.33	77.7
179.549	74.13
179.768	70.17
179.987	72.34
180.207	89.52
180.426	62.25
180.645	50.16
180.864	44.75
181.084	44.98
181.303	52.63
181.522	73.9
181.741	80.4
181.96	83.9
182.179	88.25
182.398	81.83
182.618	71.95
182.837	68.33
183.056	74.39
183.275	76.52
183.494	76.99
183.713	69.26
183.932	68.37
184.151	52.22
184.37	45.1
184.589	37.41
184.808	46.67
185.027	36.99
185.246	42.19
185.465	54.56
185.684	47.16
185.903	55.85
186.122	61.46
186.341	55.57
186.56	88.91
186.779	66.15
186.998	69.6
187.216	63.58
187.435	77.52
187.654	84.74
187.873	77.79
188.092	79.5
188.311	73.13
188.53	75.98
188.748	71.5
188.967	52.72
189.186	68.61
189.405	64.7
189.623	77.3
189.842	88.81
190.061	89.96
190.28	98.42
190.498	111.25
190.717	155.25
190.936	131.2
191.154	141.51
191.373	124.32
191.592	155.22
191.81	158.13
192.029	137.36
192.248	143.95
192.466	113.1
192.685	65.95
192.904	18.62
193.122	39
193.341	38.15
193.559	65.39
193.778	158.49
193.996	147.97
194.215	135.11
194.433	131.3
194.652	101.58
194.87	116.31
195.089	109.16
195.307	121.08
195.526	95
195.744	78.69
195.963	67.66
196.181	31.57
196.399	29.16
196.618	34.22
196.836	25.62
197.055	5.84
197.273	28.23
197.491	72.05
197.71	74.77
197.928	85.03
198.146	92.53
198.365	91.21
198.583	103.32
198.801	93.3
199.019	99.15
199.238	116.23
199.456	113.16
199.674	97.04
199.892	51.56
200.111	43.75
200.329	53.96
200.547	57.21
200.765	65.75
200.983	69.9
201.202	93.99
201.42	99.76
201.638	95.88
201.856	88.25
202.074	79.78
202.292	98.44
202.51	112.59
202.728	96.7
202.946	98.34
203.165	86.76
203.383	67.1
203.601	47.91
203.819	19.34
204.037	10.83
204.255	5.7
204.473	31.71
204.691	27.51
204.909	27.01
205.127	42.18
205.345	38.7
205.562	45.55
205.78	55.54
205.998	48.29
206.216	73.22
206.434	74.08
206.652	74.48
206.87	81.19
207.088	93.39
207.306	102
207.523	95.54
207.741	116.34
207.959	120.38
208.177	120.16
208.395	109.25
208.612	92.95
208.83	90.44
209.048	90.28
209.266	75.21
209.483	58.49
209.701	59.57
209.919	61.34
210.136	57.48
210.354	53.44
210.572	54.22
210.79	59.96
211.007	56.57
211.225	42.1
211.442	44.92
211.66	53.21
211.878	64.98
212.095	114.76
212.313	121.97
212.53	117.07
212.748	135.7
212.966	130.44
213.183	126.58
213.401	130.87
213.618	163.01
213.836	172.82
214.053	186.67
214.271	181.84
214.488	70.75
214.705	54.14
214.923	52.18
215.14	55.77
215.358	49.45
215.575	44.68
215.793	51.84
216.01	45.8
216.227	45.06
216.445	48.3
216.662	39.17
216.879	49.83
217.097	48.17
217.314	52.31
217.531	54.68
217.749	53.01
217.966	46.45
218.183	34.22
218.4	41.28
218.618	30.84
218.835	30.31
219.052	29.11
219.269	23.78
219.487	23.88
219.704	22.6
219.921	17.7
220.138	29.48
220.355	36.31
220.572	44.75
220.79	43.63
221.007	53.14
221.224	53.18
221.441	56.08
221.658	58.33
221.875	55.84
222.092	62.4
222.309	68.55
222.526	59.57
222.743	57.23
222.96	49.24
223.177	42.12
223.394	42.19
223.611	39.9
223.828	34.68
224.045	41.13
224.262	43.95
224.479	38.78
224.696	37.72
224.913	33.63
225.13	33.25
225.347	35.83
225.564	38.71
225.781	36
225.997	36.25
226.214	35.96
226.431	30.89
226.648	29.85
226.865	29.79
227.082	26.87
227.298	27.6
227.515	27.06
227.732	25.14
227.949	25.26
228.165	25.1
228.382	23.65
228.599	24.45
228.816	25.15
229.032	26.05
229.249	24.91
229.466	26.22
229.682	24.98
229.899	26.29
230.116	26.09
230.332	25.52
230.549	22.64
230.765	26.12
230.982	23.61
231.199	22.55
231.415	20.56
231.632	21.7
231.848	17.99
232.065	16.68
232.281	14.89
232.498	15.06
232.714	12.74
232.931	17.96
233.147	15.26
233.364	16.12
233.58	16.68
233.797	19.23
234.013	18.27
234.23	20.25
234.446	22.35
234.662	22.03
234.879	25.59
235.095	25.93
235.312	24.33
235.528	23.89
235.744	21.7
235.961	22.66
236.177	21.66
236.393	20.1
236.61	20.95
236.826	23.24
237.042	22.52
237.258	22.07
237.475	23.14
237.691	22.65
237.907	24.23
238.123	27.51
238.339	25.72
238.556	27.61
238.772	27.4
238.988	27.31
239.204	25.31
239.42	25.04
239.636	24.13
239.853	24.75
240.069	24.68
240.285	24.65
240.501	23.02
240.717	23.24
240.933	21.96
241.149	21.97
241.365	21.74
241.581	22.1
241.797	22.12
242.013	23.23
242.229	22.68
242.445	22.9
242.661	21.98
242.877	22.53
243.093	22.19
243.309	22.16
243.525	21.98
243.741	21.14
243.957	19.2
244.173	17.89
244.388	16.32
244.604	15.7
244.82	15.19
245.036	15.65
245.252	15.94
245.468	16.29
245.683	15.77
245.899	15.92
246.115	15.82
246.331	16.29
246.547	16.76
246.762	16.98
246.978	17.38
247.194	17.76
247.409	17.83
247.625	17.24
247.841	16.69
248.057	17.38
248.272	17.52
248.488	17.8
248.703	18.62
248.919	19.64
249.135	18.6
249.35	18.37
249.566	18.2
249.782	18.04
249.997	18.24
250.213	17.81
250.428	17.06
250.644	16.88
250.859	17.21
251.075	16.8
251.29	15.63
251.506	16.18
251.721	16.62
251.937	16.35
252.152	16.22
252.368	15.1
252.583	16.68
252.798	16.43
253.014	16.85
253.229	16.64
253.445	16.18
253.66	16.64
253.875	17.95
254.091	16.64
254.306	18.28
254.521	18.03
254.737	18.48
254.952	17.79
255.167	17.55
255.383	16.64
255.598	16.22
255.813	16.8
256.028	17.42
256.244	16.63
256.459	16.45
256.674	15.47
256.889	15.74
257.104	15.91
257.32	15.7
257.535	15.09
257.75	15.14
257.965	15.22
258.18	14.64
258.395	14.13
258.61	13.71
258.826	13.59
259.041	13.2
259.256	12.78
259.471	12.69
259.686	12.73
259.901	13.46
260.116	12.93
260.331	12.16
260.546	12.62
260.761	13.3
260.976	14.02
261.191	14.59
261.406	14.82
261.621	14.65
261.836	15.19
262.05	14.53
262.265	14.41
262.48	14.97
262.695	15.11
262.91	16.23
263.125	15.1
263.34	14.47
263.555	13.92
263.769	13.52
263.984	14.12
264.199	13.35
264.414	13.5
264.629	13.56
264.843	14.17
265.058	14.65
265.273	12.89
265.488	13.02
265.702	13.22
265.917	13.43
266.132	14.38
266.346	14.02
266.561	14.68
266.776	14.85
266.99	15.2
267.205	14.99
267.42	15.01
267.634	15.35
267.849	15.1
268.063	15.6
268.278	15.45
268.492	15.1
268.707	15.41
268.922	15.13
269.136	15.22
269.351	15
269.565	14.14
269.78	13.77
269.994	13.79
270.209	13.37
270.423	12.72
270.637	12.64
270.852	12.58
271.066	12.66
271.281	13
271.495	13.18
271.709	12.85
271.924	13.02
272.138	13.94
272.353	14.03
272.567	15.32
272.781	16.01
272.996	16.4
273.21	16.53
273.424	15.49
273.638	15.96
273.853	16.47
274.067	16.71
274.281	17.09
274.495	16.57
274.71	16.18
274.924	15.76
275.138	15.34
275.352	15.84
275.566	15.72
275.781	16.76
275.995	16.02
276.209	14.99
276.423	14.83
276.637	14.23
276.851	14.05
277.065	14.56
277.279	14.78
277.493	14.76
277.707	14.54
277.921	14.69
278.135	14.4
278.349	13.99
278.563	14.01
278.777	13.9
278.991	14.47
279.205	14.22
279.419	14.3
279.633	14.19
279.847	14
280.061	13.55
280.275	13.9
280.489	14.16
280.703	14.27
280.917	13.96
281.131	13.8
281.344	13.7
281.558	14.03
281.772	13.17
281.986	13.02
282.2	13.81
282.414	13.64
282.627	13.04
282.841	13.03
283.055	13.13
283.269	13.77
283.482	13.9
283.696	14.03
283.91	13.92
284.123	14.62
284.337	14.22
284.551	13.37
284.764	13.65
284.978	13.8
285.192	13.76
285.405	14.19
285.619	13.33
285.833	13.62
286.046	13.1
286.26	13.4
286.473	13.39
286.687	13.6
286.9	14.28
287.114	14.03
287.327	14.56
287.541	14.48
287.754	14.21
287.968	15.11
288.181	15.38
288.395	15.96
288.608	15.44
288.822	15.53
289.035	15.8
289.248	15.23
289.462	15.53
289.675	15.32
289.889	16.13
290.102	15.91
290.315	15.51
290.529	14.91
290.742	14.95
290.955	15.41
291.169	15.51
291.382	15.56
291.595	15.99
291.808	15.18
292.022	15.8
292.235	15.3
292.448	15.22
292.661	15.51
292.875	14.94
293.088	14.62
293.301	15.17
293.514	14.8
293.727	14.74
293.94	14.08
294.153	14.94
294.367	14.35
294.58	13.88
294.793	13.93
295.006	14.11
295.219	14.61
295.432	15.15
295.645	14.53
295.858	14.5
296.071	14.36
296.284	14.91
296.497	14.15
296.71	13.96
296.923	14.83
297.136	15.25
297.349	15.34
297.562	15.68
297.775	15.48
297.988	15.1
298.201	15.1
298.414	14.79
298.626	14.53
298.839	14.85
299.052	15.6
299.265	14.2
299.478	13.18
299.691	13.52
299.903	13.01
300.116	12.76
300.329	13.43
300.542	14.3
300.755	14.99
300.967	15.27
301.18	16.04
301.393	15.46
301.605	15.76
301.818	15.29
302.031	14.57
302.243	15.1
302.456	15.86
302.669	16.05
302.881	15.56
303.094	15.21
303.307	15.28
303.519	14.19
303.732	14.14
303.944	14.73
304.157	15.87
304.37	15.89
304.582	15.85
304.795	14.78
305.007	15.63
305.22	15.64
305.432	15.32
305.645	15.33
305.857	15.53
306.069	15.33
306.282	15.26
306.494	15.81
306.707	15.48
306.919	14.56
307.132	15.77
307.344	14.93
307.556	14.9
307.769	15.5
307.981	14.84
308.193	15.56
308.406	15.96
308.618	16.05
308.83	15.51
309.043	15.85
309.255	16.62
309.467	16
309.679	16.3
309.892	16.23
310.104	15.88
310.316	16.34
310.528	16.23
310.74	16.25
310.953	15.78
311.165	15.65
311.377	16.05
311.589	15.88
311.801	15.69
312.013	14.37
312.225	14.4
312.437	14.43
312.649	14.53
312.862	14.67
313.074	14.18
313.286	14.2
313.498	14.37
313.71	13.59
313.922	14.03
314.134	14
314.346	15.58
314.558	16.19
314.77	15.49
314.982	16.3
315.193	16.87
315.405	17.24
315.617	17.48
315.829	17.6
316.041	18.15
316.253	18.39
316.465	18.79
316.677	18.08
316.888	18.01
317.1	19.2
317.312	18.14
317.524	17.03
317.736	16.8
317.947	17.41
318.159	17.08
318.371	17.35
318.583	16.77
318.794	16.74
319.006	16.98
319.218	16.65
319.43	16.8
319.641	16.98
319.853	17.52
320.064	17.51
320.276	17.06
320.488	17.27
320.699	17.22
320.911	16.06
321.123	15.68
321.334	15.87
321.546	16
321.757	15.89
321.969	15.37
322.18	14.99
322.392	15.13
322.603	15.14
322.815	15.76
323.026	15.22
323.238	15.28
323.449	15.56
323.661	15.38
323.872	15.31
324.083	15.22
324.295	15.98
324.506	16.42
324.718	16.05
324.929	16.13
325.14	16.16
325.352	16.5
325.563	17.19
325.774	16.42
325.986	16.49
326.197	16.46
326.408	16.79
326.62	16.46
326.831	16.47
327.042	16.78
327.253	17.36
327.464	16.52
327.676	16.3
327.887	16.36
328.098	16.4
328.309	16.57
328.52	15.74
328.732	15.93
328.943	16.03
329.154	15.53
329.365	15.45
329.576	14.29
329.787	14.92
329.998	14.55
330.209	14.11
330.42	14.79
330.631	14.73
330.842	15.7
331.053	15.22
331.264	15.25
331.475	15.34
331.686	15.33
331.897	16.12
332.108	15.78
332.319	16.16
332.53	16.3
332.741	16.5
332.952	16.4
333.163	15.44
333.374	15.25
333.585	15.39
333.795	15.47
334.006	15.68
334.217	15.08
334.428	14.84
334.639	14.43
334.849	14.97
335.06	14.2
335.271	14.15
335.482	14.24
335.692	13.29
335.903	13.23
336.114	13.22
336.325	13.42
336.535	13.49
336.746	13.19
336.957	13.7
337.167	13.29
337.378	14.1
337.589	14.17
337.799	14.73
338.01	15.85
338.22	15.04
338.431	15.4
338.642	14.86
338.852	14.39
339.063	14.36
339.273	13.59
339.484	14.06
339.694	13.41
339.905	13.46
340.115	13.13
340.326	12.93
340.536	13.72
340.746	13.31
340.957	13.29
341.167	14.55
341.378	14.84
341.588	15.24
341.799	14.78
342.009	15.09
342.219	14.72
342.43	15.1
342.64	15.53
342.85	15.25
343.061	15.66
343.271	15.23
343.481	14.67
343.691	14.12
343.902	14.31
344.112	14.47
344.322	14.75
344.532	14.85
344.743	15.3
344.953	14.62
345.163	14.65
345.373	14.25
345.583	14.41
345.793	14.13
346.004	14.9
346.214	14.62
346.424	14.79
346.634	14.4
346.844	14.31
347.054	13.92
347.264	14.25
347.474	14.65
347.684	14.62
347.894	14.53
348.104	15.12
348.314	15.16
348.524	15.23
348.734	14.55
348.944	15.01
349.154	15.09
349.364	14.76
349.574	14.33
349.784	14.29
349.994	14.34
350.204	14.99
350.413	14.45
350.623	14.47
350.833	14.44
351.043	14.8
351.253	14.08
351.463	14.28
351.672	14.29
351.882	14.65
352.092	14.01
352.302	14.06
352.511	13.53
352.721	12.99
352.931	12.86
353.141	12.72
353.35	12.67
353.56	12.64
353.77	12.56
353.979	12.72
354.189	12.42
354.399	12.24
354.608	12.08
354.818	11.76
355.027	12.26
355.237	12.3
355.447	12.41
355.656	12.48
355.866	12.58
356.075	12.6
356.285	12.41
356.494	12.51
356.704	12.48
356.913	12.28
357.123	12.69
357.332	12.41
357.542	12.22
357.751	12.08
357.96	11.99
358.17	12.07
358.379	12.2
358.589	12.03
358.798	11.9
359.007	12.72
359.217	12.7
359.426	12.69
359.635	12.74
359.845	12.97
360.054	12.95
360.263	12.61
360.472	12.42
360.682	12.21
360.891	12.23
361.1	12.23
361.309	11.81
361.519	12.02
361.728	11.89
361.937	11.66
362.146	11.46
362.355	11.34
362.564	11.7
362.774	11.92
362.983	11.72
363.192	11.87
363.401	12.01
363.61	11.54
363.819	11.49
364.028	11.38
364.237	11.61
364.446	11.61
364.655	12.25
364.864	11.73
365.073	11.54
365.282	11.25
365.491	10.88
365.7	10.77
365.909	11.17
366.118	11.28
366.327	11.45
366.536	11.54
366.745	11.37
366.954	10.91
367.162	11.33
367.371	11.31
367.58	11.55
367.789	11.72
367.998	11.46
368.207	11.25
368.415	11.15
368.624	11.36
368.833	11.36
369.042	11.09
369.25	10.92
369.459	11.01
369.668	10.63
369.877	10.58
370.085	10.53
370.294	10.76
370.503	10.52
370.711	10.54
370.92	10.14
371.129	9.86
371.337	10.19
371.546	10.06
371.754	9.82
371.963	10.43
372.171	10.65
372.38	10.9
372.589	11.17
372.797	11.46
373.006	10.99
373.214	11.11
373.423	11.24
373.631	10.81
373.84	10.68
374.048	10.48
374.256	10.13
374.465	9.79
374.673	9.33
374.882	9.16
375.09	9.32
375.298	9.23
375.507	9.07
375.715	8.63
375.923	8.88
376.132	8.84
376.34	8.93
376.548	8.56
376.757	8.5
376.965	9.06
377.173	8.69
377.381	8.34
377.59	8.57
377.798	8.71
378.006	8.91
378.214	8.71
378.423	8.88
378.631	9.05
378.839	9.38
379.047	9.47
379.255	9.15
379.463	9.23
379.671	9.14
379.879	9.25
380.088	9.09
380.296	9.43
380.504	9.39
380.712	9.1
380.92	9.1
381.128	9.06
381.336	9
381.544	8.79
381.752	8.73
381.96	9
382.168	8.91
382.376	8.76
382.584	8.42
382.791	8.61
382.999	8.7
383.207	8.34
383.415	8.21
383.623	8.44
383.831	8.31
384.039	8.16
384.247	8.07
384.454	7.9
384.662	7.68
384.87	7.54
385.078	7.18
385.285	7.07
385.493	7.22
385.701	7
385.909	6.63
386.116	6.58
386.324	6.61
386.532	6.23
386.739	6.26
386.947	6.37
387.155	6.41
387.362	6.54
387.57	6.48
387.778	6.15
387.985	6.14
388.193	5.94
388.4	6.06
388.608	6.05
388.816	6.14
389.023	5.99
389.231	5.84
389.438	5.67
389.646	5.42
389.853	5.27
390.061	5.33
390.268	5.33
390.475	5.33
390.683	4.96
390.89	4.76
391.098	4.84
391.305	4.79
391.512	4.74
391.72	4.75
391.927	4.74
392.135	4.75
392.342	4.45
392.549	4.59
392.756	4.69
392.964	4.84
393.171	5.12
393.378	4.91
393.586	4.85
393.793	5.04
394	5.04
394.207	5.12
394.414	5.19
394.622	5.27
394.829	5.22
395.036	5
395.243	4.77
395.45	4.49
395.657	4.35
395.864	4.29
396.072	4.22
396.279	4.3
396.486	4.17
396.693	4.13
396.9	4.27
397.107	4.21
397.314	4.34
397.521	4.62
397.728	4.81
397.935	4.9
398.142	4.93
398.349	4.79
398.556	4.69
398.763	4.83
398.97	4.71
399.177	4.88
399.383	4.8
399.59	4.88
399.797	4.69
400.004	4.4
400.211	4.5
400.418	4.41
400.625	4.42
400.831	4.6
401.038	4.49
401.245	4.64
401.452	4.45
401.658	4.53
401.865	4.44
402.072	4.57
402.279	4.7
402.485	4.7
402.692	4.82
402.899	4.84
403.105	4.74
403.312	4.79
403.519	4.59
403.725	4.5
403.932	4.51
404.138	4.58
404.345	4.46
404.552	4.36
404.758	4.39
404.965	4.36
405.171	4.42
405.378	4.27
405.584	4.32
405.791	4.34
405.997	4.41
406.204	4.27
406.41	4.16
406.617	4.23
406.823	4.51
407.029	4.35
407.236	4.28
407.442	4.32
407.649	4.34
407.855	4.19
408.061	4.39
408.268	4.5
408.474	4.44
408.68	4.27
408.887	4.27
409.093	4.02
409.299	4.1
409.505	4.05
409.712	3.95
409.918	3.99
410.124	4.01
410.33	3.85
410.537	3.76
410.743	3.96
410.949	4.09
411.155	3.95
411.361	3.89
411.567	3.88
411.773	3.88
411.98	3.92
412.186	3.98
412.392	4.18
412.598	4.26
412.804	4.26
413.01	4.2
413.216	4.4
413.422	4.6
413.628	4.56
413.834	4.65
414.04	4.63
414.246	4.66
414.452	4.62
414.658	4.37
414.864	4.34
415.07	4.27
415.275	4.17
415.481	4.01
415.687	3.83
415.893	4.02
416.099	3.96
416.305	4
416.511	3.84
416.716	3.85
416.922	3.8
417.128	3.89
417.334	3.91
417.539	3.85
417.745	3.84
417.951	3.87
418.157	3.71
418.362	3.66
418.568	3.57
418.774	3.62
418.979	3.62
419.185	3.65
419.391	3.58
419.596	3.52
419.802	3.54
420.008	3.55
420.213	2.88
420.419	2.9
420.624	2.95
420.83	3.01
421.035	2.99
421.241	2.89
421.446	2.9
421.652	2.85
421.857	2.91
422.063	2.9
422.268	2.9
422.474	3.59
422.679	3.61
422.885	3.57
423.09	3.5
423.295	3.5
423.501	3.56
423.706	3.51
423.911	3.52
424.117	3.52
424.322	3.54
424.527	3.5
424.733	3.52
424.938	3.55
425.143	3.49
425.349	3.53
425.554	3.55
425.759	3.62
425.964	3.73
426.169	3.74
426.375	3.71
426.58	3.81
426.785	3.81
426.99	3.73
427.195	3.73
427.4	3.8
427.605	3.8
427.811	3.81
428.016	3.75
428.221	3.66
428.426	3.66
428.631	3.84
428.836	3.74
429.041	3.7
429.246	3.83
429.451	3.79
429.656	3.84
429.861	3.82
430.066	3.76
430.271	3.71
430.476	3.76
430.681	3.66
430.886	3.56
431.09	3.55
431.295	3.61
431.5	3.53
431.705	3.55
431.91	3.58
432.115	3.63
432.32	3.63
432.524	3.57
432.729	3.52
432.934	3.61
433.139	3.52
433.343	3.5
433.548	3.51
433.753	3.6
433.958	3.61
434.162	3.6
434.367	3.45
434.572	3.53
434.776	3.53
434.981	3.53
435.186	3.59
435.39	3.63
435.595	3.67
435.799	3.62
436.004	3.53
436.209	3.56
436.413	3.55
436.618	3.62
436.822	3.57
437.027	3.59
437.231	3.54
437.436	3.5
437.64	3.46
437.845	3.44
438.049	3.44
438.253	3.34
438.458	3.31
438.662	3.16
438.867	3.2
439.071	3.17
439.275	3.16
439.48	3.25
439.684	3.28
439.888	3.29
440.093	3.31
440.297	3.24
440.501	3.29
440.706	3.27
440.91	3.37
441.114	3.34
441.318	3.31
441.523	3.38
441.727	3.28
441.931	3.16
442.135	3.16
442.339	3.15
442.543	3.17
442.748	3.23
442.952	3.33
443.156	3.25
443.36	3.29
443.564	3.23
443.768	3.19
443.972	3.23
444.176	3.33
444.38	3.3
444.584	3.33
444.788	3.36
444.992	3.33
445.196	3.28
445.4	3.24
445.604	3.18
445.808	3.24
446.012	3.21
446.216	3.15
446.42	3.06
446.624	3.07
446.828	3.06
447.032	2.99
447.235	2.99
447.439	3.01
447.643	3.05
447.847	3.14
448.051	3.22
448.254	3.23
448.458	3.38
448.662	3.45
448.866	3.46
449.069	3.39
449.273	3.52
449.477	3.52
449.681	3.31
449.884	3.32
450.088	3.24
450.292	3.2
450.495	3.18
450.699	3.15
450.902	3.07
451.106	3.07
451.31	3.1
451.513	3.08
451.717	3.06
451.92	3.23
452.124	3.17
452.327	3.23
452.531	3.19
452.734	3.3
452.938	3.41
453.141	3.45
453.345	3.51
453.548	3.57
453.752	3.5
453.955	3.59
454.158	3.52
454.362	3.73
454.565	3.71
454.769	3.66
454.972	3.66
455.175	3.59
455.379	3.61
455.582	3.61
455.785	3.54
455.988	3.56
456.192	3.5
456.395	3.43
456.598	3.33
456.801	3.22
457.005	3.17
457.208	3.05
457.411	2.97
457.614	3.01
457.817	2.98
458.021	2.98
458.224	2.95
458.427	2.88
458.63	2.92
458.833	2.94
459.036	2.98
459.239	3.04
459.442	3.09
459.645	3.15
459.848	3.1
460.051	3.09
460.254	3.11
460.457	3.24
460.66	3.32
460.863	3.38
461.066	3.42
461.269	3.48
461.472	3.53
461.675	3.46
461.878	3.45
462.081	3.47
462.284	3.56
462.486	3.52
462.689	3.42
462.892	3.38
463.095	3.28
463.298	3.2
463.5	3.23
463.703	3.23
463.906	3.28
464.109	3.28
464.311	3.24
464.514	3.19
464.717	3.2
464.92	3.2
465.122	3.26
465.325	3.41
465.528	3.5
465.73	3.45
465.933	3.41
466.135	3.49
466.338	3.45
466.541	3.42
466.743	3.42
466.946	3.33
467.148	3.29
467.351	3.38
467.553	3.28
467.756	3.24
467.958	3.17
468.161	3.25
468.363	3.27
468.566	3.28
468.768	3.36
468.971	3.36
469.173	3.43
469.375	3.42
469.578	3.28
469.78	3.29
469.983	3.23
470.185	3.32
470.387	3.11
470.59	3.05
470.792	3.05
470.994	2.99
471.196	3
471.399	3.04
471.601	3.01
471.803	3
472.005	3.02
472.208	3.09
472.41	3.09
472.612	3.22
472.814	3.17
473.016	3.23
473.218	3.19
473.421	3.18
473.623	3.19
473.825	3.26
474.027	3.28
474.229	3.27
474.431	3.34
474.633	3.33
474.835	3.33
475.037	3.36
475.239	3.32
475.441	3.39
475.643	3.34
475.845	3.33
476.047	3.27
476.249	3.28
476.451	3.32
476.653	3.18
476.855	3.15
477.057	3.17
477.258	3.09
477.46	3.11
477.662	3.11
477.864	3.11
478.066	3.1
478.268	3.13
478.469	3.11
478.671	3.08
478.873	3.08
479.075	3.08
479.276	3
479.478	3.04
479.68	3
479.882	2.95
480.083	2.97
480.285	2.97
480.487	2.91
480.688	2.89
480.89	2.86
481.091	2.82
481.293	2.82
481.495	2.85
481.696	2.82
481.898	2.83
482.099	2.81
482.301	2.8
482.502	2.79
482.704	2.82
482.905	2.83
483.107	2.85
483.308	2.88
483.51	2.87
483.711	2.88
483.913	2.92
484.114	2.9
484.315	2.95
484.517	2.96
484.718	2.96
484.92	2.92
485.121	2.91
485.322	2.89
485.524	2.93
485.725	2.91
485.926	2.93
486.127	2.91
486.329	2.89
486.53	2.88
486.731	2.86
486.932	2.9
487.134	2.93
487.335	2.94
487.536	2.97
487.737	2.92
487.938	2.91
488.139	2.84
488.341	2.88
488.542	2.91
488.743	2.91
488.944	2.97
489.145	2.97
489.346	2.98
489.547	2.96
489.748	2.92
489.949	2.95
490.15	2.96
490.351	2.95
490.552	2.94
490.753	2.95
490.954	2.95
491.155	2.93
491.356	2.91
491.557	2.95
491.758	2.98
491.959	3.05
492.159	3.09
492.36	3.15
492.561	3.21
492.762	3.22
492.963	3.25
493.164	3.29
493.364	3.33
493.565	3.39
493.766	3.33
493.967	3.4
494.167	3.36
494.368	3.34
494.569	3.28
494.769	3.21
494.97	3.16
495.171	3.16
495.371	3.18
495.572	3.13
495.773	3.09
495.973	3.14
496.174	3
496.375	3.03
496.575	2.94
496.776	2.94
496.976	3.01
497.177	3.09
497.377	3.12
497.578	3.16
497.778	3.17
497.979	3.19
498.179	3.1
498.38	3.2
498.58	3.19
498.78	3.17
498.981	3.28
499.181	3.32
499.382	3.31
499.582	3.23
499.782	3.13
499.983	3.23
500.183	3.26
500.383	3.32
500.584	3.25
500.784	3.25
500.984	3.29
501.184	3.24
501.385	3.18
501.585	3.15
501.785	3.17
501.985	3.29
502.185	3.15
502.386	3.1
502.586	3.13
502.786	3.21
502.986	3.25
503.186	3.22
503.386	3.23
503.586	3.25
503.786	3.27
503.987	3.32
504.187	3.19
504.387	3.24
504.587	3.29
504.787	3.27
504.987	3.25
505.187	3.22
505.387	3.41
505.587	3.42
505.786	3.51
505.986	3.46
506.186	3.51
506.386	3.58
506.586	3.54
506.786	3.49
506.986	3.44
507.186	3.47
507.386	3.4
507.585	3.3
507.785	3.26
507.985	3.2
508.185	3.27
508.384	3.18
508.584	3.16
508.784	3.31
508.984	3.37
509.183	3.46
509.383	3.45
509.583	3.52
509.782	3.57
509.982	3.62
510.182	3.69
510.381	3.67
510.581	3.77
510.781	3.79
510.98	3.77
511.18	3.74
511.379	3.71
511.579	3.7
511.778	3.75
511.978	3.74
512.177	3.69
512.377	3.74
512.576	3.86
512.776	3.83
512.975	3.83
513.175	3.79
513.374	3.72
513.573	3.83
513.773	3.86
513.972	3.83
514.172	3.85
514.371	3.87
514.57	3.83
514.77	3.71
514.969	3.75
515.168	3.76
515.367	3.81
515.567	3.96
515.766	3.86
515.965	3.9
516.164	3.78
516.364	3.8
516.563	3.76
516.762	3.76
516.961	3.8
517.16	3.76
517.359	3.75
517.559	3.71
517.758	3.72
517.957	3.77
518.156	3.78
518.355	3.9
518.554	3.93
518.753	3.98
518.952	3.94
519.151	4
519.35	4.01
519.549	4.05
519.748	4.1
519.947	4.04
520.146	4.08
520.345	4.01
520.544	4.02
520.743	4.01
520.942	4.04
521.141	4.09
521.339	4.04
521.538	4.16
521.737	4.2
521.936	4.19
522.135	4.19
522.333	4.11
522.532	4.2
522.731	4.22
522.93	4.24
523.129	4.28
523.327	4.27
523.526	4.25
523.725	4.21
523.923	4.17
524.122	4.2
524.321	4.24
524.519	4.28
524.718	4.25
524.917	4.26
525.115	4.25
525.314	4.23
525.512	4.24
525.711	4.26
525.909	4.24
526.108	4.23
526.306	4.21
526.505	4.23
526.703	4.21
526.902	4.16
527.1	4.15
527.299	4.17
527.497	4.19
527.696	4.24
527.894	4.28
528.092	4.27
528.291	4.29
528.489	4.34
528.688	4.33
528.886	4.36
529.084	4.44
529.283	4.48
529.481	4.52
529.679	4.55
529.877	4.53
530.076	4.51
530.274	4.56
530.472	4.58
530.67	4.59
530.869	4.62
531.067	4.7
531.265	4.72
531.463	4.71
531.661	4.71
531.859	4.72
532.057	4.76
532.255	4.77
532.454	4.82
532.652	4.85
532.85	4.86
533.048	4.92
533.246	4.93
533.444	4.95
533.642	4.96
533.84	4.93
534.038	4.94
534.236	4.92
534.434	4.97
534.632	4.93
534.83	4.97
535.027	4.99
535.225	4.96
535.423	4.93
535.621	4.92
535.819	5.03
536.017	5.11
536.215	5.09
536.412	5.18
536.61	5.17
536.808	5.25
537.006	5.29
537.203	5.32
537.401	5.33
537.599	5.39
537.797	5.45
537.994	5.35
538.192	5.33
538.39	5.32
538.587	5.25
538.785	5.32
538.983	5.3
539.18	5.25
539.378	5.23
539.575	5.31
539.773	5.33
539.97	5.32
540.168	5.38
540.366	5.47
540.563	5.51
540.761	5.57
540.958	5.55
541.155	5.58
541.353	5.62
541.55	5.68
541.748	5.7
541.945	5.7
542.143	5.74
542.34	5.78
542.537	5.79
542.735	5.87
542.932	5.88
543.129	5.93
543.327	5.95
543.524	6.04
543.721	6.04
543.919	6.09
544.116	6.07
544.313	6.04
544.51	6.02
544.708	6.01
544.905	5.99
545.102	5.99
545.299	6.04
545.496	6.06
545.693	5.99
545.891	6.02
546.088	6
546.285	6.08
546.482	6.19
546.679	6.27
546.876	6.33
547.073	6.42
547.27	6.44
547.467	6.42
547.664	6.4
547.861	6.48
548.058	6.56
548.255	6.6
548.452	6.71
548.649	6.7
548.846	6.63
549.043	6.72
549.24	6.67
549.437	6.71
549.633	6.8
549.83	6.91
550.027	6.86
550.224	6.88
550.421	6.86
550.618	6.85
550.814	6.86
551.011	6.86
551.208	6.82
551.405	6.94
551.601	6.96
551.798	6.95
551.995	6.99
552.191	7.15
552.388	7.14
552.585	7.17
552.781	7.19
552.978	7.26
553.175	7.4
553.371	7.5
553.568	7.54
553.764	7.65
553.961	7.71
554.157	7.64
554.354	7.75
554.55	7.8
554.747	7.91
554.943	7.98
555.14	8.02
555.336	8.08
555.533	8.05
555.729	8.03
555.926	7.94
556.122	8.07
556.318	8.21
556.515	8.2
556.711	8.25
556.907	8.38
557.104	8.51
557.3	8.51
557.496	8.56
557.693	8.59
557.889	8.61
558.085	8.7
558.281	8.63
558.478	8.68
558.674	8.75
558.87	8.75
559.066	8.74
559.262	8.81
559.459	8.84
559.655	8.89
559.851	8.85
560.047	8.99
560.243	8.99
560.439	9.04
560.635	9.04
560.831	8.95
561.027	9.1
561.223	9.08
561.419	8.91
561.615	8.98
561.811	9.05
562.007	9.17
562.203	9.18
562.399	9.34
562.595	9.34
562.791	9.59
562.987	9.71
563.183	9.74
563.379	9.81
563.575	9.99
563.771	10.03
563.966	10.03
564.162	10.12
564.358	10.22
564.554	10.29
564.75	10.38
564.945	10.25
565.141	10.3
565.337	10.39
565.533	10.47
565.728	10.55
565.924	10.6
566.12	10.77
566.315	10.76
566.511	10.78
566.707	10.8
566.902	10.89
567.098	11.01
567.293	11.08
567.489	11.01
567.684	11.05
567.88	11.08
568.076	11.13
568.271	11.04
568.467	11.08
568.662	11.12
568.858	11.14
569.053	11.17
569.248	11.29
569.444	11.28
569.639	11.37
569.835	11.36
570.03	11.37
570.225	11.45
570.421	11.45
570.616	11.53
570.812	11.54
571.007	11.56
571.202	11.61
571.397	11.63
571.593	11.64
571.788	11.7
571.983	11.8
572.178	11.87
572.374	11.94
572.569	12.04
572.764	12.08
572.959	12.09
573.154	12.26
573.35	12.3
573.545	12.32
573.74	12.47
573.935	12.41
574.13	12.47
574.325	12.46
574.52	12.52
574.715	12.48
574.91	12.51
575.105	12.58
575.3	12.55
575.495	12.56
575.69	12.54
575.885	12.49
576.08	12.65
576.275	12.77
576.47	12.86
576.665	12.8
576.86	12.9
577.055	12.96
577.25	13.01
577.444	13.03
577.639	13.11
577.834	13.3
578.029	13.4
578.224	13.38
578.418	13.23
578.613	13.32
578.808	13.51
579.003	13.47
579.197	13.52
579.392	13.5
579.587	13.53
579.781	13.45
579.976	13.44
580.171	13.44
580.365	13.48
580.56	13.64
580.755	13.58
580.949	13.5
581.144	13.65
581.338	13.73
581.533	13.82
581.727	13.85
581.922	14.05
582.116	13.98
582.311	14.05
582.505	14.1
582.7	14.05
582.894	14.1
583.089	14.15
583.283	14.08
583.478	14.04
583.672	14.08
583.866	14.1
584.061	14.03
584.255	14.09
584.449	14.1
584.644	14.15
584.838	14.19
585.032	14.24
585.226	14.32
585.421	14.42
585.615	14.63
585.809	14.59
586.003	14.49
586.198	14.52
586.392	14.6
586.586	14.72
586.78	14.68
586.974	14.69
587.168	14.76
587.363	14.77
587.557	14.82
587.751	14.67
587.945	14.71
588.139	14.93
588.333	15.03
588.527	15.09
588.721	14.96
588.915	15.06
589.109	15.04
589.303	14.99
589.497	15
589.691	14.97
589.885	14.91
590.079	14.98
590.273	14.88
590.466	14.87
590.66	14.87
590.854	14.83
591.048	14.77
591.242	14.77
591.436	14.87
591.629	14.93
591.823	15.01
592.017	15.17
592.211	15.29
592.404	15.27
592.598	15.34
592.792	15.33
592.986	15.46
593.179	15.49
593.373	15.64
593.567	15.66
593.76	15.64
593.954	15.61
594.147	15.64
594.341	15.62
594.535	15.78
594.728	15.67
594.922	15.72
595.115	15.68
595.309	15.71
595.502	15.66
595.696	15.64
595.889	15.66
596.083	15.74
596.276	15.79
596.47	15.89
596.663	15.92
596.856	16.01
597.05	15.94
597.243	15.99
597.437	16.03
597.63	16.04
597.823	16.03
598.017	16.03
598.21	15.88
598.403	15.87
598.596	15.72
598.79	15.57
598.983	15.61
599.176	15.7
599.369	15.64
599.563	15.77
599.756	15.76
599.949	15.83
600.142	15.77
600.335	15.79
600.528	15.69
600.722	15.75
600.915	15.96
601.108	15.95
601.301	15.99
601.494	16.05
601.687	16.02
601.88	16.04
602.073	15.98
602.266	16
602.459	16.07
602.652	16.14
602.845	16.15
603.038	16.02
603.231	16.04
603.424	16.07
603.617	16.05
603.809	16
604.002	16.09
604.195	16.06
604.388	16.03
604.581	16.16
604.774	16.16
604.966	16.16
605.159	16.34
605.352	16.47
605.545	16.37
605.737	16.39
605.93	16.49
606.123	16.56
606.316	16.77
606.508	16.87
606.701	16.84
606.894	16.74
607.086	16.83
607.279	16.78
607.471	16.68
607.664	16.65
607.857	16.76
608.049	16.87
608.242	16.78
608.434	16.88
608.627	16.89
608.819	16.98
609.012	17.16
609.204	17.2
609.397	17.28
609.589	17.38
609.782	17.56
609.974	17.52
610.166	17.53
610.359	17.62
610.551	17.42
610.743	17.4
610.936	17.24
611.128	17.22
611.32	17.13
611.513	17.08
611.705	17.04
611.897	16.87
612.09	16.91
612.282	16.78
612.474	16.71
612.666	16.79
612.858	16.9
613.051	17.03
613.243	16.96
613.435	17.1
613.627	17.02
613.819	17.07
614.011	17.44
614.203	17.57
614.395	17.48
614.588	17.6
614.78	17.68
614.972	17.86
615.164	17.81
615.356	17.83
615.548	17.71
615.74	17.74
615.932	17.83
616.124	17.63
616.315	17.56
616.507	17.5
616.699	17.55
616.891	17.42
617.083	17.29
617.275	17.31
617.467	17.45
617.659	17.48
617.85	17.6
618.042	17.47
618.234	17.39
618.426	17.32
618.618	17.33
618.809	17.22
619.001	17.32
619.193	17.33
619.384	17.13
619.576	17.08
619.768	16.91
619.959	16.93
620.151	17.01
620.343	17.07
620.534	17.32
620.726	17.42
620.917	17.44
621.109	17.53
621.301	17.51
621.492	17.79
621.684	17.77
621.875	18.05
622.067	18
622.258	17.9
622.45	18.15
622.641	18.15
622.832	18.28
623.024	18.27
623.215	18.21
623.407	18.22
623.598	18.14
623.789	18.19
623.981	18.06
624.172	18.08
624.363	18.04
624.555	17.81
624.746	17.76
624.937	17.63
625.129	17.49
625.32	17.45
625.511	17.54
625.702	17.61
625.893	17.71
626.085	17.71
626.276	17.73
626.467	17.83
626.658	18.04
626.849	17.95
627.04	18.06
627.231	18.24
627.422	18.22
627.614	18.06
627.805	17.93
627.996	17.68
628.187	17.72
628.378	17.84
628.569	17.94
628.76	17.93
628.951	17.88
629.142	17.98
629.332	18.02
629.523	18.09
629.714	18.22
629.905	18.33
630.096	18.56
630.287	18.74
630.478	18.57
630.669	18.22
630.859	18.13
631.05	18.25
631.241	18.2
631.432	18.25
631.623	18.19
631.813	18.17
632.004	18.21
632.195	18.14
632.385	17.91
632.576	18.06
632.767	18.22
632.957	18.09
633.148	18.07
633.339	18.18
633.529	18.26
633.72	18.3
633.91	18.32
634.101	18.34
634.292	18.39
634.482	18.53
634.673	18.41
634.863	18.66
635.054	18.76
635.244	18.75
635.435	18.67
635.625	18.52
635.815	18.64
636.006	18.76
636.196	18.76
636.387	18.79
636.577	18.68
636.767	18.81
636.958	18.64
637.148	18.73
637.338	18.88
637.529	18.95
637.719	19.05
637.909	18.99
638.099	19.02
638.29	18.88
638.48	18.76
638.67	18.79
638.86	18.73
639.05	18.66
639.241	18.64
639.431	18.49
639.621	18.47
639.811	18.51
640.001	18.47
640.191	18.33
640.381	18.5
640.571	18.55
640.761	18.65
640.951	18.65
641.141	18.83
641.331	18.83
641.521	18.85
641.711	18.9
641.901	19.06
642.091	19.14
642.281	19.08
642.471	19.01
642.661	19.17
642.851	19.22
643.041	19.34
643.231	19.22
643.42	19.14
643.61	19.17
643.8	18.99
643.99	18.95
644.18	18.98
644.369	19.09
644.559	19
644.749	18.98
644.939	18.98
645.128	18.88
645.318	18.94
645.508	19.14
645.697	19.02
645.887	19.04
646.076	18.87
646.266	18.94
646.456	18.98
646.645	19.27
646.835	19.19
647.024	19.31
647.214	19.23
647.403	19.12
647.593	19.04
647.782	19.28
647.972	19.25
648.161	19.25
648.351	19.25
648.54	19.16
648.73	19.04
648.919	19.14
649.108	18.97
649.298	18.99
649.487	19.11
649.677	19.24
649.866	19.3
650.055	19.37
650.244	19.53
650.434	19.43
650.623	19.72
650.812	19.79
651.002	19.79
651.191	19.83
651.38	19.97
651.569	19.98
651.758	20
651.947	19.9
652.137	20.18
652.326	20.22
652.515	20.45
652.704	20.38
652.893	20.11
653.082	19.97
653.271	19.96
653.46	19.79
653.649	19.67
653.838	19.46
654.027	19.37
654.216	19.35
654.405	19.26
654.594	18.98
654.783	18.78
654.972	19.03
655.161	19.26
655.35	19.34
655.539	19.52
655.728	19.66
655.916	19.87
656.105	19.91
656.294	19.75
656.483	19.81
656.672	19.97
656.86	20
657.049	19.8
657.238	19.69
657.427	19.61
657.615	19.57
657.804	19.68
657.993	19.64
658.181	19.59
658.37	19.57
658.559	19.38
658.747	19.49
658.936	19.39
659.125	19.74
659.313	19.69
659.502	19.69
659.69	19.65
659.879	19.48
660.067	19.46
660.256	19.66
660.444	19.65
660.633	19.74
660.821	19.64
661.01	19.88
661.198	19.65
661.387	19.85
661.575	19.89
661.763	20.11
661.952	20.02
662.14	19.97
662.328	19.89
662.517	20.13
662.705	20.18
662.893	20.21
663.082	20.01
663.27	19.99
663.458	19.87
663.646	20.11
663.834	20.05
664.023	20.15
664.211	20.39
664.399	20.44
664.587	20.07
664.775	20.1
664.963	19.99
665.152	20.35
665.34	20.52
665.528	20.56
665.716	20.45
665.904	20.35
666.092	20.47
666.28	20.24
666.468	20.31
666.656	20.5
666.844	20.62
667.032	20.61
667.22	20.25
667.408	20.28
667.596	20.02
667.784	20.04
667.971	19.98
668.159	19.9
668.347	20.01
668.535	20.11
668.723	20.16
668.911	19.98
669.098	19.85
669.286	20.04
669.474	20.02
669.662	20.25
669.849	20.33
670.037	20.58
670.225	20.63
670.413	20.76
670.6	20.41
670.788	20.49
670.976	20.59
671.163	20.77
671.351	20.85
671.538	20.88
671.726	20.98
671.913	21
672.101	20.87
672.289	20.81
672.476	20.52
672.664	20.83
672.851	20.48
673.039	20.65
673.226	20.45
673.413	20.36
673.601	20.55
673.788	20.41
673.976	20.14
674.163	20.32
674.35	20.36
674.538	20.61
674.725	20.7
674.912	21.11
675.1	20.94
675.287	21.44
675.474	21.48
675.662	21.19
675.849	21.47
676.036	21.53
676.223	21.46
676.411	21.44
676.598	21.46
676.785	21.07
676.972	20.83
677.159	20.81
677.346	20.39
677.533	20.5
677.721	20.45
677.908	20.3
678.095	20.46
678.282	20.37
678.469	20.45
678.656	20.31
678.843	20.55
679.03	20.75
679.217	20.96
679.404	21.29
679.591	21.29
679.778	21.33
679.964	21.29
680.151	21.24
680.338	21.45
680.525	21.56
680.712	21.66
680.899	21.69
681.086	21.5
681.272	21.19
681.459	21.02
681.646	21.01
681.833	21.13
682.02	21.07
682.206	20.98
682.393	20.87
682.58	20.79
682.766	20.45
682.953	20.48
683.14	20.71
683.326	20.88
683.513	20.81
683.7	20.93
683.886	20.92
684.073	21.31
684.259	21.3
684.446	21.25
684.632	21.14
684.819	21.45
685.005	21.69
685.192	21.51
685.378	21.58
685.565	21.54
685.751	21.28
685.938	21.51
686.124	21.41
686.31	21.7
686.497	21.91
686.683	21.99
686.87	22.22
687.056	21.81
687.242	21.55
687.429	21.82
687.615	22.03
687.801	22.23
687.987	22.08
688.174	21.91
688.36	21.73
688.546	21.47
688.732	21.28
688.918	20.73
689.105	20.95
689.291	21.27
689.477	20.83
689.663	20.86
689.849	20.9
690.035	20.74
690.221	20.98
690.407	21.34
690.593	21.34
690.779	21.5
690.965	21.69
691.151	21.61
691.337	21.82
691.523	22.04
691.709	21.88
691.895	21.26
692.081	21.29
692.267	21.25
692.453	21.18
692.639	21.25
692.825	21.14
693.011	21.12
693.196	21.37
693.382	21.26
693.568	21.36
693.754	21.3
693.94	21.56
694.125	21.73
694.311	21.59
694.497	21.35
694.682	21.53
694.868	21.72
695.054	21.82
695.239	21.71
695.425	21.66
695.611	21.35
695.796	21.56
695.982	21.83
696.168	21.73
696.353	21.79
696.539	21.68
696.724	21.43
696.91	21.41
697.095	21.29
697.281	21.09
697.466	21.09
697.652	21.11
697.837	21.11
698.023	21.02
698.208	21.2
698.393	21.13
698.579	21.22
698.764	21.28
698.949	21.44
699.135	21.45
699.32	21.41
699.505	21.2
699.691	21.3
699.876	21.49
700.061	21.63
700.246	21.2
700.432	21.12
700.617	21
700.802	20.97
700.987	20.77
701.172	21.28
701.358	21.46
701.543	21.97
701.728	21.98
701.913	21.7
702.098	21.68
702.283	21.83
702.468	22.03
702.653	22.23
702.838	22.33
703.023	22.18
703.208	21.54
703.393	21.7
703.578	21.56
703.763	21.61
703.948	21.62
704.133	21.46
704.318	21.58
704.503	21.34
704.688	21.56
704.873	21.66
705.057	21.81
705.242	22.38
705.427	22.34
705.612	21.99
705.797	21.99
705.981	22.07
706.166	22.31
706.351	22.42
706.536	22.59
706.72	22.5
706.905	22.6
707.09	22.59
707.274	22.26
707.459	22.19
707.644	22.33
707.828	22.27
708.013	22.14
708.197	22.1
708.382	22.08
708.567	21.82
708.751	21.65
708.936	21.45
709.12	21.67
709.305	21.65
709.489	21.5
709.673	21.94
709.858	22.03
710.042	22.17
710.227	22.04
710.411	22.02
710.596	22.36
710.78	22.23
710.964	22.19
711.149	22.24
711.333	22.35
711.517	22.43
711.702	22.2
711.886	22.13
712.07	22.08
712.254	22.15
712.438	22.16
712.623	22
712.807	21.8
712.991	21.88
713.175	21.58
713.359	21.62
713.544	21.56
713.728	21.69
713.912	21.38
714.096	21.38
714.28	21.42
714.464	21.54
714.648	21.47
714.832	21.64
715.016	21.61
715.2	21.64
715.384	21.87
715.568	22.05
715.752	21.66
715.936	22.12
716.12	22.04
716.304	22.38
716.488	22.03
716.671	22.22
716.855	22.44
717.039	22.34
717.223	22.14
717.407	21.94
717.59	22.08
717.774	22.33
717.958	22.16
718.142	21.76
718.325	21.13
718.509	21.23
718.693	21.27
718.877	21.35
719.06	21.75
719.244	22.05
719.428	22.03
719.611	22.05
719.795	21.87
719.978	21.84
720.162	21.89
720.345	21.96
720.529	22.46
720.713	22.51
720.896	22.54
721.08	21.95
721.263	22.32
721.446	22.75
721.63	22.66
721.813	22.81
721.997	22.89
722.18	23.36
722.364	23.72
722.547	23.36
722.73	23.12
722.914	22.82
723.097	23.16
723.28	22.82
723.464	22.67
723.647	22.46
723.83	22.48
724.013	22.66
724.197	22.77
724.38	22.56
724.563	22.53
724.746	23.11
724.929	23.16
725.112	23.85
725.296	23.66
725.479	23.45
725.662	23.41
725.845	23.79
726.028	23.7
726.211	23.56
726.394	23.68
726.577	23.64
726.76	23.17
726.943	23
727.126	22.54
727.309	22.54
727.492	22.68
727.675	22.6
727.858	22.35
728.041	22.1
728.224	22.29
728.407	22.38
728.589	22.8
728.772	22.67
728.955	23.01
729.138	22.54
729.321	22.73
729.503	22.76
729.686	22.69
729.869	22.69
730.052	22.97
730.234	22.55
730.417	22.43
730.6	21.81
730.782	22.09
730.965	22.05
731.148	22.39
731.33	22.68
731.513	22.67
731.695	22.77
731.878	22.65
732.061	22.48
732.243	22.74
732.426	22.56
732.608	22.89
732.791	23.03
732.973	22.72
733.156	22.5
733.338	22.38
733.52	22.28
733.703	22.15
733.885	22.42
734.068	22.72
734.25	22.61
734.432	22.99
734.615	23.07
734.797	22.81
734.979	23.48
735.162	23.64
735.344	23.52
735.526	23.58
735.708	23.97
735.891	23.69
736.073	23.09
736.255	23.55
736.437	23.25
736.619	22.89
736.802	23.03
736.984	23.2
737.166	23.69
737.348	23.94
737.53	23.22
737.712	23.49
737.894	23.84
738.076	24.37
738.258	23.82
738.44	24.33
738.622	24.67
738.804	24.69
738.986	24.14
739.168	23.8
739.35	23.67
739.532	24.13
739.714	23.79
739.896	23.28
740.078	23.51
740.259	23.46
740.441	22.77
740.623	22.38
740.805	22.79
740.987	22.58
741.168	22.32
741.35	22.3
741.532	22.48
741.714	22.29
741.895	22.64
742.077	22.37
742.259	22.74
742.44	23.46
742.622	23.32
742.804	22.66
742.985	22.89
743.167	23.35
743.348	23.57
743.53	22.89
743.711	23.22
743.893	23.29
744.075	22.79
744.256	22.07
744.438	21.76
744.619	22.3
744.8	22.07
744.982	21.41
745.163	21.07
745.345	21.29
745.526	22.12
745.707	21.91
745.889	21.95
746.07	21.88
746.252	22.97
746.433	22.79
746.614	22.59
746.795	22.53
746.977	23.62
747.158	23.82
747.339	23.26
747.52	23.07
747.702	23.27
747.883	23.29
748.064	23.99
748.245	23.14
748.426	23.37
748.607	24.09
748.788	24.59
748.97	23.89
749.151	23.91
749.332	23.81
749.513	24.3
749.694	24.15
749.875	24.26
750.056	24.06
750.237	24.14
750.418	24.01
750.599	23.43
750.78	23.08
750.96	22.9
751.141	23.14
751.322	22.8
751.503	22.73
751.684	22.83
751.865	22.52
752.046	22.45
752.226	22.3
752.407	22.57
752.588	22.71
752.769	23.49
752.949	23.98
753.13	23.89
753.311	23.77
753.492	23.41
753.672	22.93
753.853	22.9
754.034	22.55
754.214	23.64
754.395	23.35
754.575	23.58
754.756	23.01
754.937	22.88
755.117	22.8
755.298	23.38
755.478	23.57
755.659	24.05
755.839	24.33
756.02	24.82
756.2	24.09
756.381	24.4
756.561	23.6
756.741	24.22
756.922	24.72
757.102	24.46
757.283	24.73
757.463	24.68
757.643	25.37
757.823	25.66
758.004	25.73
758.184	26.28
758.364	25.25
758.545	25.51
758.725	24.79
758.905	24.43
759.085	24.23
759.265	24.01
759.446	23.38
759.626	22.77
759.806	22.31
759.986	22.59
760.166	22.34
760.346	23.13
760.526	22.94
760.706	22.87
760.886	22.97
761.066	23.37
761.246	23.82
761.426	24.28
761.606	24.35
761.786	24.39
761.966	24.55
762.146	24.2
762.326	24.26
762.506	24.37
762.686	24.5
762.866	24.04
763.046	23.68
763.225	23.54
763.405	23.58
763.585	23.5
763.765	23.09
763.945	22.63
764.124	23.12
764.304	22.96
764.484	22.88
764.664	22.78
764.843	23.21
765.023	23.54
765.203	23.57
765.382	23.45
765.562	23.61
765.741	24.15
765.921	24.57
766.101	24.57
766.28	24.49
766.46	24.01
766.639	24.26
766.819	23.97
766.998	24.08
767.178	23.31
767.357	23.4
767.537	22.82
767.716	22.63
767.896	22.15
768.075	21.61
768.254	21.49
768.434	22.8
768.613	23.83
768.792	23.77
768.972	23.81
769.151	24.27
769.33	24.31
769.51	24.96
769.689	25.13
769.868	24.89
770.047	25.13
770.226	25.29
770.406	24.55
770.585	23.1
770.764	23.07
770.943	22.45
771.122	22.24
771.301	22.4
771.48	22.05
771.66	21.89
771.839	21.97
772.018	21.94
772.197	22.58
772.376	22.28
772.555	21.92
772.734	22.53
772.913	23.16
773.092	23.49
773.271	23.38
773.449	23.04
773.628	23.47
773.807	23.82
773.986	23.84
774.165	23.47
774.344	24.09
774.523	24.95
774.701	24.94
774.88	24.88
775.059	24.78
775.238	24.92
775.417	25.42
775.595	25.07
775.774	24.85
775.953	25.01
776.131	24.8
776.31	25.14
776.489	25.34
776.667	25.37
776.846	25.61
777.025	25.71
777.203	25.33
777.382	26.18
777.56	26.46
777.739	26.67
777.917	25.94
778.096	25.48
778.274	24.64
778.453	24.11
778.631	23.89
778.81	22.8
778.988	22.34
779.166	22.73
779.345	22.29
779.523	21.94
779.702	21.3
779.88	22.22
780.058	22.37
780.237	21.84
780.415	22.46
780.593	22.84
780.771	23.74
780.95	24.47
781.128	24.64
781.306	24.5
781.484	24.48
781.662	24.65
781.841	24.28
782.019	24.76
782.197	25.84
782.375	25.7
782.553	25.37
782.731	25.29
782.909	25.17
783.087	24.77
783.265	25.01
783.443	25.43
783.621	26.01
783.799	26.42
783.977	27.33
784.155	26.8
784.333	26.49
784.511	26.27
784.689	26.06
784.867	26.59
785.045	26.95
785.223	26.34
785.4	25.34
785.578	25.43
785.756	25.25
785.934	23.67
786.112	24.91
786.289	24.97
786.467	24.87
786.645	24.62
786.823	23.7
787	23.1
787.178	23.06
787.356	24.07
787.533	23.59
787.711	24.08
787.889	24.55
788.066	24.07
788.244	23.58
788.421	23.38
788.599	23.42
788.776	23.51
788.954	24.22
789.131	24.23
789.309	23.62
789.486	23.78
789.664	23.54
789.841	23.71
790.019	23.22
790.196	24.3
790.373	25.31
790.551	26.28
790.728	27.08
790.906	26.45
791.083	26.2
791.26	26.28
791.437	25.61
791.615	26.04
791.792	25.5
791.969	25.23
792.146	24.35
792.324	24.31
792.501	24.26
792.678	23.29
792.855	23.79
793.032	24.3
793.209	24.56
793.387	26.1
793.564	25.11
793.741	26.62
793.918	27.32
794.095	27.03
794.272	26.23
794.449	25.96
794.626	26.85
794.803	25.91
794.98	25.62
795.157	25.94
795.334	24.76
795.511	24.87
795.688	23
795.864	22.3
796.041	23.01
796.218	23.87
796.395	23.95
796.572	23.96
796.749	24.74
796.925	24.91
797.102	24.91
797.279	25.52
797.456	26.64
797.632	27.26
797.809	27.79
797.986	26.86
798.162	26.38
798.339	26.2
798.516	26.61
798.692	26.08
798.869	26.42
799.046	25.85
799.222	25.97
799.399	25.94
799.575	26.25
799.752	25.99
799.928	27.15
800.105	26.9
800.281	27.25
800.458	26.03
800.634	27.2
800.811	25.99
800.987	26.19
801.163	26.23
801.34	25.03
801.516	24.39
801.692	24.15
801.869	24.01
802.045	24.62
802.221	24.05
802.398	24.06
802.574	23.16
802.75	24.09
802.926	23.68
803.103	23.3
803.279	23.29
803.455	23.68
803.631	24.58
803.807	24.37
803.983	23.84
804.16	23.9
804.336	24.85
804.512	26.06
804.688	26.16
804.864	25.54
805.04	26.64
805.216	27.09
805.392	27.02
805.568	26.11
805.744	25.77
805.92	25.73
806.096	26.33
806.272	26.86
806.448	26.44
806.623	26.41
806.799	28.42
806.975	27.15
807.151	26.81
807.327	26.83
807.503	27.34
807.678	27.5
807.854	27.69
808.03	27.98
808.206	27.13
808.381	26.08
808.557	26.65
808.733	25.26
808.908	26.8
809.084	26.91
809.26	26.64
809.435	27.04
809.611	27.56
809.787	28.29
809.962	26.95
810.138	26.81
810.313	27.32
810.489	27.54
810.664	28.36
810.84	27.99
811.015	28.75
811.191	29.32
811.366	29.13
811.542	28.98
811.717	27.86
811.892	28.24
812.068	28.2
812.243	28.34
812.419	26.82
812.594	26.09
812.769	24.56
812.944	23.64
813.12	23.49
813.295	23.83
813.47	22.67
813.645	23.47
813.821	24.76
813.996	25.48
814.171	25.23
814.346	26.31
814.521	27.96
814.697	28.76
814.872	28.52
815.047	28.89
815.222	29.62
815.397	30.78
815.572	30.45
815.747	29.25
815.922	27.96
816.097	28.1
816.272	27.09
816.447	25.44
816.622	25.36
816.797	26.43
816.972	26.98
817.147	26.33
817.322	26.63
817.496	26.99
817.671	26.96
817.846	28.09
818.021	27.74
818.196	28.25
818.371	28.11
818.545	28.53
818.72	28.17
818.895	27.35
819.069	26.97
819.244	26.89
819.419	26.54
819.594	26.77
819.768	26.04
819.943	26.18
820.117	26.16
820.292	26.36
820.467	25.63
820.641	25.32
820.816	25.36
820.99	25.31
821.165	25.29
821.339	25.27
821.514	25.12
821.688	24.96
821.863	24.96
822.037	24.8
822.212	25.05
822.386	24.97
822.56	25.16
822.735	25.21
822.909	25.26
823.084	25.07
823.258	24.83
823.432	24.6
823.606	24.83
823.781	24.84
823.955	24.91
824.129	24.69
824.303	24.69
824.478	24.74
824.652	24.7
824.826	24.81
825	25.3
825.174	25.73
825.348	25.96
825.523	26.15
825.697	26.3
825.871	26.56
826.045	26.69
826.219	26.99
826.393	26.82
826.567	26.67
826.741	26.2
826.915	25.61
827.089	26.15
827.263	26.24
827.437	26.26
827.611	26.19
827.784	25.91
827.958	25.93
828.132	26.18
828.306	25.98
828.48	25.75
828.654	26.13
828.827	26.78
829.001	25.9
829.175	26.74
829.349	26.07
829.522	26.51
829.696	26.86
829.87	25.96
830.044	26.09
830.217	26.76
830.391	27
830.565	27.31
830.738	27.07
830.912	26.81
831.085	26.25
831.259	27.32
831.432	26.23
831.606	26.48
831.779	27.04
831.953	27.06
832.126	27.23
832.3	27.63
832.473	27.46
832.647	27.58
832.82	27.87
832.994	27.36
833.167	26.92
833.34	27.09
833.514	26.33
833.687	26.32
833.86	25.76
834.034	25.09
834.207	24.52
834.38	24.55
834.553	23.81
834.727	23.82
834.9	23.72
835.073	24.19
835.246	23.88
835.419	24.27
835.593	24.19
835.766	24.9
835.939	26.16
836.112	26.54
836.285	25.97
836.458	26.62
836.631	26.14
836.804	25.98
836.977	25.52
837.15	25.9
837.323	26.9
837.496	27.06
837.669	25.37
837.842	25.56
838.015	26.4
838.188	26.99
838.361	27.86
838.533	29.76
838.706	30.6
838.879	30.22
839.052	30.4
839.225	29.88
839.398	31.27
839.57	33.05
839.743	32.04
839.916	32.61
840.088	33.56
840.261	33.75
840.434	34.5
840.607	35.03
840.779	35.8
840.952	35.53
841.124	34.88
841.297	34.25
841.47	34.05
841.642	32.72
841.815	32.33
841.987	30.26
842.16	30.66
842.332	29.07
842.505	28.83
842.677	27.42
842.85	27.6
843.022	29.12
843.194	28.38
843.367	29.16
843.539	31.26
843.712	29.54
843.884	33.18
844.056	33.09
844.229	30.81
844.401	30.71
844.573	32.02
844.745	31.73
844.918	29.77
845.09	30.85
845.262	29.69
845.434	30.16
845.606	31.38
845.779	29.2
845.951	29.62
846.123	31.68
846.295	28.59
846.467	27.08
846.639	30.5
846.811	33.82
846.983	33.16
847.155	32.22
847.327	32.59
847.499	34.6
847.671	37.56
847.843	34.65
848.015	35.08
848.187	37.5
848.359	38.24
848.531	35.53
848.703	31.96
848.875	30.26
849.047	33.13
849.218	29.85
849.39	27.3
849.562	24.95
849.734	27.08
849.905	26.15
850.077	26.63
850.249	25.86
850.421	28.03
850.592	30.5
850.764	31.63
850.936	31.61
851.107	33.59
851.279	33.01
851.451	34.63
851.622	35.55
851.794	37.57
851.965	40.06
852.137	42.07
852.308	39.77
852.48	41.18
852.651	42.95
852.823	42.21
852.994	43.51
853.166	45.55
853.337	44.1
853.509	45.62
853.68	43.73
853.851	41.64
854.023	42.83
854.194	44.4
854.365	42.41
854.537	41.65
854.708	39.3
854.879	37.69
855.05	38.6
855.222	35.14
855.393	32.05
855.564	33.46
855.735	33.76
855.906	33.61
856.078	33.36
856.249	33.32
856.42	34.63
856.591	36.72
856.762	35.7
856.933	32.42
857.104	35.62
857.275	37.05
857.446	38.23
857.617	39.41
857.788	38.72
857.959	38.74
858.13	39.53
858.301	37.53
858.472	35.44
858.643	37.96
858.814	40.06
858.985	40.37
859.155	37.97
859.326	39.36
859.497	39.32
859.668	35.83
859.839	34.59
860.009	34.73
860.18	33.34
860.351	32.34
860.522	30.22
860.692	28.05
860.863	26.61
861.034	27.81
861.204	24.4
861.375	25.49
861.546	29.28
861.716	29.86
861.887	29.74
862.057	32.13
862.228	33.03
862.398	36.09
862.569	36.75
862.739	37.9
862.91	39.39
863.08	38.49
863.251	36.71
863.421	32.38
863.592	37.34
863.762	38.12
863.932	34.18
864.103	36.9
864.273	37.47
864.443	37.42
864.614	39.24
864.784	37.1
864.954	39.19
865.125	39.11
865.295	43.14
865.465	39.03
865.635	35.89
865.805	37.92
865.976	37.68
866.146	31.8
866.316	32.61
866.486	26.66
866.656	28.62
866.826	29.01
866.996	27.79
867.166	26.59
867.336	29.23
867.506	32.62
867.676	33.85
867.846	33
868.016	33.65
868.186	36.08
868.356	39.04
868.526	39.1
868.696	38.86
868.866	40.49
869.036	38.63
869.206	34.31
869.376	31.86
869.545	32.3
869.715	35.38
869.885	39.47
870.055	33.5
870.224	35.58
870.394	33.67
870.564	27.45
870.734	28.47
870.903	25.91
871.073	30.27
871.243	29.19
871.412	28.22
871.582	22.09
871.751	22.94
871.921	25.49
872.091	24.47
872.26	25.15
872.43	28.89
872.599	25.95
872.769	27.33
872.938	27.32
873.108	25.13
873.277	24.74
873.446	27.36
873.616	25.84
873.785	24.3
873.955	23.7
874.124	24.68
874.293	28.1
874.463	29.66
874.632	33.2
874.801	30.58
874.971	34.49
875.14	33.86
875.309	34.53
875.478	34.54
875.647	39.04
875.817	40.07
875.986	42
876.155	38.79
876.324	36.32
876.493	37.5
876.662	40.61
876.831	40.48
877	44.91
877.17	43.49
877.339	43.74
877.508	41.05
877.677	38.21
877.846	34.9
878.015	36.22
878.184	39.11
878.352	36.45
878.521	34.86
878.69	33.22
878.859	29.66
879.028	28.61
879.197	28.57
879.366	31.75
879.534	32.2
879.703	33.7
879.872	31.67
880.041	29
880.21	27.62
880.378	28.91
880.547	28.92
880.716	30.44
880.884	30.6
881.053	30.13
881.222	28.9
881.39	27.84
881.559	26.6
881.727	27.41
881.896	27.77
882.065	27.71
882.233	26.62
882.402	27.05
882.57	26.52
882.739	25.96
882.907	25.8
883.076	26.23
883.244	26.86
883.412	26.81
883.581	26.55
883.749	27.03
883.918	28.11
884.086	29.14
884.254	29.16
884.423	29.04
884.591	30.13
884.759	31.15
884.927	30.65
885.096	31.35
885.264	32.38
885.432	32.42
885.6	32.13
885.769	31.79
885.937	29.98
886.105	30.02
886.273	30.68
886.441	30.81
886.609	30.1
886.777	28.93
886.945	30.83
887.113	30.88
887.281	32.67
887.449	34.54
887.617	33.29
887.785	36.34
887.953	37.13
888.121	36.79
888.289	35.1
888.457	32.61
888.625	33.65
888.793	27.48
888.961	28.67
889.129	28.84
889.296	24.7
889.464	25.72
889.632	22.94
889.8	18.89
889.967	17.74
890.135	17.42
