Data from 2938458_Reflection_2.txt Node
Date: Fri Jun 19 17:39:38 EDT 2015
User: robert
Spectrometer: USB4E03002
Autoset integration time: false
Trigger mode: 4
Integration Time (sec): 1.000000E-1
Scans to average: 10
Electric dark correction enabled: true
Nonlinearity correction enabled: false
Boxcar width: 5
Stray light correction enabled: false
XAxis mode: Wavelengths
Stop averaging: false
Number of Pixels in Spectrum: 3648
>>>>>Begin Spectral Data<<<<<
177.575	-315.46
177.794	1477.08
178.014	-1127.59
178.233	214.55
178.452	554.99
178.672	697.08
178.891	437.86
179.11	308.59
179.33	262.84
179.549	276.98
179.768	171.77
179.987	-176.8
180.207	-1057.92
180.426	-1153.28
180.645	363.53
180.864	-403.76
181.084	4060.48
181.303	225.35
181.522	139.49
181.741	145.69
181.96	186.01
182.179	116
182.398	102.57
182.618	96.96
182.837	126.74
183.056	167.41
183.275	158.91
183.494	139.2
183.713	273.81
183.932	532.54
184.151	1627.64
184.37	551.14
184.589	393.58
184.808	398.59
185.027	554.01
185.246	-5438.79
185.465	-699.15
185.684	-258.19
185.903	-132.97
186.122	-181.9
186.341	-144.89
186.56	-108.48
186.779	-48.13
186.998	-22.82
187.216	-27.05
187.435	-70.77
187.654	-161.28
187.873	-166.55
188.092	9504.35
188.311	1002.53
188.53	-1078.33
188.748	-404.31
188.967	-291.15
189.186	-658.89
189.405	471.13
189.623	1833.79
189.842	-308.93
190.061	-425.08
190.28	-254.84
190.498	-116.77
190.717	-143.2
190.936	-102.71
191.154	-76.19
191.373	-110.62
191.592	-80.27
191.81	-50.21
192.029	-32.51
192.248	-35.7
192.466	-5.01
192.685	-23.06
192.904	-36.89
193.122	-43.19
193.341	-41.51
193.559	-43.56
193.778	-39.32
193.996	-53.86
194.215	-56.13
194.433	-84.67
194.652	-71.7
194.87	-107.02
195.089	-86.84
195.307	-79.84
195.526	-66.67
195.744	-50.23
195.963	-107.74
196.181	-73.27
196.399	-63.13
196.618	-86.62
196.836	-36.31
197.055	-11.14
197.273	-2.26
197.491	-8.09
197.71	24.61
197.928	43.82
198.146	36.23
198.365	37.87
198.583	31.17
198.801	24.55
199.019	38.22
199.238	25.34
199.456	6.89
199.674	4.44
199.892	9.13
200.111	-20.49
200.329	-17.35
200.547	-22.98
200.765	-15.34
200.983	-39.81
201.202	-15.91
201.42	-34.94
201.638	-128.25
201.856	-252.38
202.074	-228.85
202.292	-771.15
202.51	-235.48
202.728	-531.09
202.946	-255.83
203.165	-175.25
203.383	-71.6
203.601	-133.48
203.819	-123.78
204.037	-128.83
204.255	-73
204.473	-123.69
204.691	-91.28
204.909	-84.14
205.127	-70.6
205.345	-123.25
205.562	-204.45
205.78	-131.27
205.998	-112.71
206.216	-84.1
206.434	-114.38
206.652	-280.35
206.87	-153.28
207.088	-267.19
207.306	3335
207.523	-1381.11
207.741	-210.89
207.959	-500
208.177	-6160.57
208.395	4166.07
208.612	1150.14
208.83	-894.87
209.048	-186.53
209.266	-163.66
209.483	-104.16
209.701	-66.71
209.919	-62.41
210.136	-117.27
210.354	-57.79
210.572	-45.89
210.79	-53.9
211.007	-47.36
211.225	-72.61
211.442	-198.17
211.66	-174.36
211.878	-156.44
212.095	574.07
212.313	542.44
212.53	556.37
212.748	401.63
212.966	355.16
213.183	1081.23
213.401	1226.94
213.618	6891.97
213.836	-2476.45
214.053	-709.92
214.271	1206.12
214.488	-109.37
214.705	-121.64
214.923	-97.53
215.14	-99.14
215.358	-89.23
215.575	-68.82
215.793	-69.48
216.01	-54.39
216.227	-43.3
216.445	-5.92
216.662	-16.02
216.879	-19.72
217.097	-20.1
217.314	-64.82
217.531	-77.37
217.749	-61.56
217.966	-71.55
218.183	-97.12
218.4	-87.19
218.618	-64.76
218.835	-76.02
219.052	-39.59
219.269	-43.13
219.487	-31.33
219.704	-10.2
219.921	-24.18
220.138	-23.39
220.355	-41.8
220.572	-16.08
220.79	-13.89
221.007	-9.01
221.224	-9.18
221.441	-29.34
221.658	-31
221.875	-24.24
222.092	-23.58
222.309	-17.59
222.526	-13.13
222.743	-8.65
222.96	-23.07
223.177	-13.42
223.394	-7.9
223.611	-3.52
223.828	-6.24
224.045	-7.96
224.262	-10.66
224.479	-3.21
224.696	-0.06
224.913	-4.11
225.13	-3.6
225.347	3.36
225.564	1.46
225.781	-1.2
225.997	-0.17
226.214	3.23
226.431	6.3
226.648	5.79
226.865	4.56
227.082	4.34
227.298	5.41
227.515	7.2
227.732	6.51
227.949	5.17
228.165	7.51
228.382	5.3
228.599	4.39
228.816	2.19
229.032	2.07
229.249	1.12
229.466	2.23
229.682	2.98
229.899	0.49
230.116	-3.76
230.332	-4.82
230.549	-9.58
230.765	-2.98
230.982	-0.88
231.199	-1.03
231.415	-0.22
231.632	-0.31
231.848	-2.87
232.065	-4.01
232.281	-5.25
232.498	-2.89
232.714	-2.73
232.931	-2.37
233.147	-10.77
233.364	-14.39
233.58	-13.48
233.797	-12.64
234.013	-14.11
234.23	-13.91
234.446	-12.59
234.662	-12.04
234.879	-7.38
235.095	-6.41
235.312	-5.6
235.528	-0.16
235.744	2.33
235.961	5.15
236.177	3.24
236.393	4.87
236.61	4.69
236.826	3.38
237.042	4.31
237.258	1.13
237.475	0.82
237.691	-0.76
237.907	-3.03
238.123	-3.77
238.339	-3.38
238.556	-1.28
238.772	-2.74
238.988	-0.07
239.204	1.66
239.42	2.94
239.636	4.9
239.853	6.09
240.069	6.42
240.285	8.84
240.501	9.1
240.717	8.97
240.933	9.19
241.149	9.79
241.365	9.85
241.581	9.84
241.797	9.64
242.013	9.07
242.229	10.03
242.445	10.44
242.661	9.54
242.877	9.74
243.093	9.02
243.309	7.72
243.525	7.71
243.741	7.1
243.957	7.71
244.173	7.47
244.388	8.14
244.604	7.74
244.82	8.44
245.036	8.24
245.252	7.5
245.468	8.13
245.683	8.63
245.899	8.48
246.115	8.92
246.331	8.49
246.547	8.58
246.762	8.25
246.978	8.28
247.194	7.43
247.409	7.88
247.625	8.97
247.841	8.58
248.057	8.63
248.272	9.04
248.488	6.94
248.703	6.91
248.919	6.73
249.135	6.69
249.35	6.41
249.566	7.11
249.782	6.65
249.997	6.91
250.213	6.9
250.428	5.96
250.644	6.87
250.859	8.25
251.075	7.88
251.29	8.35
251.506	9.27
251.721	8.46
251.937	7.86
252.152	8.12
252.368	7.09
252.583	6.27
252.798	6.79
253.014	4.26
253.229	4.33
253.445	3.8
253.66	4.5
253.875	1.63
254.091	1.49
254.306	-0.03
254.521	-1.63
254.737	-2.26
254.952	-1.57
255.167	-0.14
255.383	1.36
255.598	1.31
255.813	1.63
256.028	1.01
256.244	1.74
256.459	1.91
256.674	3.43
256.889	3.99
257.104	4.61
257.32	5.61
257.535	5.05
257.75	4.94
257.965	5.14
258.18	5.37
258.395	5.31
258.61	5.61
258.826	6.21
259.041	6.08
259.256	6.44
259.471	5.93
259.686	5.18
259.901	4.44
260.116	4.38
260.331	3.56
260.546	3.62
260.761	2.6
260.976	2.76
261.191	1.46
261.406	1.09
261.621	0.36
261.836	1.12
262.05	0.43
262.265	0.35
262.48	1.27
262.695	2.19
262.91	1.43
263.125	2.94
263.34	2.09
263.555	2.5
263.769	2.62
263.984	1.12
264.199	1.2
264.414	2.69
264.629	3.05
264.843	1.82
265.058	1.56
265.273	1.66
265.488	2.14
265.702	2.29
265.917	1.75
266.132	1.82
266.346	3.91
266.561	4.36
266.776	3.49
266.99	4.02
267.205	4.51
267.42	4.52
267.634	4.92
267.849	3.96
268.063	4.07
268.278	3.64
268.492	3.93
268.707	3.66
268.922	2.62
269.136	2.83
269.351	2.48
269.565	2.59
269.78	2.82
269.994	2.42
270.209	2.73
270.423	2.9
270.637	3.33
270.852	2.9
271.066	2.45
271.281	3.49
271.495	3.07
271.709	3.58
271.924	3.12
272.138	3.14
272.353	2.86
272.567	3.28
272.781	3.45
272.996	3.27
273.21	3.39
273.424	3.3
273.638	2.86
273.853	3.79
274.067	3.92
274.281	5.1
274.495	4.41
274.71	4.63
274.924	3.84
275.138	3.01
275.352	3.65
275.566	4.18
275.781	4.28
275.995	4.18
276.209	4.17
276.423	4.11
276.637	2.83
276.851	3.21
277.065	3.67
277.279	3.79
277.493	3.91
277.707	4.89
277.921	4.43
278.135	4.35
278.349	3.85
278.563	4.58
278.777	4.93
278.991	5.7
279.205	6.56
279.419	6.51
279.633	7.06
279.847	7.16
280.061	6.78
280.275	6.3
280.489	6.63
280.703	7.65
280.917	7.04
281.131	6.56
281.344	6.95
281.558	6.77
281.772	6.83
281.986	6.67
282.2	6.68
282.414	6.56
282.627	6.82
282.841	6.75
283.055	6.43
283.269	6.45
283.482	6.35
283.696	5.91
283.91	5.65
284.123	5.31
284.337	5.16
284.551	5.22
284.764	5.63
284.978	5.92
285.192	5.68
285.405	5.53
285.619	5.08
285.833	5.36
286.046	5.13
286.26	5.7
286.473	6.33
286.687	6.99
286.9	6.94
287.114	6.7
287.327	7.51
287.541	7.11
287.754	7.59
287.968	8.29
288.181	7.66
288.395	8.23
288.608	7.75
288.822	7.61
289.035	6.94
289.248	7.05
289.462	7.18
289.675	6.53
289.889	6.59
290.102	6.77
290.315	6.62
290.529	7.3
290.742	7.42
290.955	7.07
291.169	7.31
291.382	7.7
291.595	7.65
291.808	7.75
292.022	7.93
292.235	8.27
292.448	7.43
292.661	7.12
292.875	7.44
293.088	6.99
293.301	7.81
293.514	8.2
293.727	7.73
293.94	8
294.153	7.95
294.367	7.37
294.58	7.55
294.793	7.7
295.006	8.57
295.219	8.7
295.432	8.52
295.645	8.59
295.858	8.14
296.071	8.29
296.284	8.22
296.497	7.98
296.71	8.13
296.923	8.18
297.136	8.94
297.349	8.47
297.562	7.83
297.775	8.47
297.988	8.37
298.201	8.27
298.414	8.66
298.626	8.62
298.839	9.26
299.052	9.08
299.265	9.42
299.478	8.29
299.691	8.06
299.903	8.74
300.116	8.05
300.329	7.74
300.542	8.16
300.755	8.16
300.967	8.92
301.18	8.51
301.393	9.22
301.605	8.92
301.818	9.3
302.031	10.17
302.243	9.72
302.456	10.72
302.669	10.98
302.881	11.11
303.094	11.26
303.307	10.52
303.519	10.27
303.732	10
303.944	10.21
304.157	9.87
304.37	8.89
304.582	9.1
304.795	8.67
305.007	8.06
305.22	7.4
305.432	6.75
305.645	7.38
305.857	7.61
306.069	8.33
306.282	8
306.494	7.97
306.707	8.69
306.919	8.26
307.132	8.64
307.344	8.71
307.556	8.96
307.769	9.21
307.981	8.87
308.193	9.38
308.406	9.13
308.618	10
308.83	10.57
309.043	10.2
309.255	10.61
309.467	10.71
309.679	10.79
309.892	10.73
310.104	11.12
310.316	10.9
310.528	10.16
310.74	10.25
310.953	9.53
311.165	9.36
311.377	9.58
311.589	9.22
311.801	8.72
312.013	9.1
312.225	9.61
312.437	9.87
312.649	10.29
312.862	10.37
313.074	9.5
313.286	9.89
313.498	9.32
313.71	9.47
313.922	10.23
314.134	10.51
314.346	10.22
314.558	9.85
314.77	8.4
314.982	8.63
315.193	9.12
315.405	9.48
315.617	8.69
315.829	9.33
316.041	9.71
316.253	9.69
316.465	9.68
316.677	9.85
316.888	10.98
317.1	11.84
317.312	11.72
317.524	11.43
317.736	10.75
317.947	11.53
318.159	11.8
318.371	11.13
318.583	11.67
318.794	11.19
319.006	11.01
319.218	9.33
319.43	8.95
319.641	7.93
319.853	8.39
320.064	10.38
320.276	10.04
320.488	9.67
320.699	9.14
320.911	8.44
321.123	9.05
321.334	8.06
321.546	7.92
321.757	8.47
321.969	8.69
322.18	7.99
322.392	6.71
322.603	6.51
322.815	6.6
323.026	7.59
323.238	7.03
323.449	6.38
323.661	8.08
323.872	9.34
324.083	9.17
324.295	9.98
324.506	10.94
324.718	11.83
324.929	11.87
325.14	11.8
325.352	11.51
325.563	11.82
325.774	11.79
325.986	11.01
326.197	10.56
326.408	11.03
326.62	11.05
326.831	10.41
327.042	9.85
327.253	10.23
327.464	10.7
327.676	11.12
327.887	11.36
328.098	12.33
328.309	12.31
328.52	11.76
328.732	12.04
328.943	12.31
329.154	12.18
329.365	13.48
329.576	13.49
329.787	13.2
329.998	12.78
330.209	13.21
330.42	12
330.631	12.32
330.842	12.65
331.053	11.75
331.264	10.81
331.475	10.74
331.686	9.94
331.897	10.31
332.108	10.61
332.319	10.75
332.53	10.86
332.741	11.21
332.952	11.15
333.163	10.93
333.374	11.57
333.585	12.13
333.795	12.3
334.006	11.8
334.217	11.66
334.428	11.13
334.639	11.06
334.849	10.48
335.06	11.01
335.271	10.99
335.482	11.23
335.692	10.62
335.903	11.13
336.114	11.46
336.325	11.38
336.535	10.98
336.746	10.76
336.957	10.86
337.167	11.66
337.378	11.27
337.589	11.41
337.799	11.22
338.01	10.99
338.22	10.72
338.431	10.86
338.642	10.77
338.852	11.13
339.063	10.86
339.273	10.7
339.484	9.8
339.694	9.76
339.905	10.23
340.115	10.56
340.326	10.73
340.536	10.4
340.746	9.17
340.957	9.61
341.167	9.3
341.378	9.67
341.588	10.09
341.799	10.39
342.009	10.48
342.219	9.77
342.43	9.67
342.64	10.03
342.85	10.3
343.061	11.29
343.271	10.75
343.481	11.09
343.691	11.24
343.902	11.1
344.112	11.17
344.322	10.48
344.532	10.5
344.743	10.44
344.953	10.03
345.163	9.33
345.373	8.76
345.583	8.81
345.793	8.16
346.004	7.97
346.214	7.64
346.424	7.58
346.634	8.39
346.844	8.23
347.054	7.88
347.264	8.25
347.474	8.61
347.684	8.8
347.894	9.05
348.104	9.39
348.314	9.2
348.524	8.77
348.734	8.82
348.944	9.09
349.154	8.94
349.364	9.24
349.574	8.56
349.784	8.45
349.994	8.59
350.204	8.69
350.413	8.15
350.623	8.56
350.833	8.86
351.043	8.38
351.253	8.16
351.463	8.58
351.672	9.04
351.882	9.69
352.092	9.44
352.302	9.44
352.511	9.91
352.721	10.56
352.931	10.15
353.141	9.64
353.35	10.01
353.56	10.08
353.77	9.94
353.979	9.43
354.189	8.91
354.399	9.27
354.608	9.38
354.818	8.97
355.027	8.75
355.237	8.9
355.447	9.59
355.656	9.63
355.866	9.71
356.075	10.04
356.285	10.13
356.494	10.54
356.704	10.5
356.913	10.59
357.123	10.35
357.332	10.16
357.542	10.31
357.751	10.18
357.96	10.46
358.17	10.16
358.379	9.79
358.589	9.97
358.798	9.86
359.007	9.76
359.217	9.2
359.426	9.66
359.635	10.06
359.845	10.05
360.054	10.02
360.263	9.42
360.472	9.49
360.682	9.61
360.891	9.05
361.1	9.19
361.309	9.32
361.519	9.84
361.728	9.31
361.937	8.82
362.146	8.66
362.355	8.7
362.564	8.84
362.774	8.47
362.983	8.16
363.192	8.65
363.401	8.08
363.61	7.66
363.819	7.32
364.028	7.23
364.237	7.45
364.446	7.27
364.655	7.32
364.864	7.41
365.073	7.77
365.282	7.64
365.491	7.26
365.7	8.06
365.909	8.37
366.118	8.21
366.327	8.42
366.536	8.05
366.745	8.6
366.954	8.05
367.162	7.48
367.371	7.33
367.58	7.62
367.789	8.06
367.998	7.25
368.207	6.68
368.415	6.66
368.624	6.67
368.833	6.79
369.042	6.31
369.25	6.82
369.459	7.6
369.668	7.82
369.877	7.88
370.085	7.34
370.294	7.36
370.503	7.67
370.711	7.52
370.92	7.55
371.129	7.73
371.337	7.55
371.546	7.16
371.754	6.32
371.963	6.02
372.171	5.93
372.38	6.52
372.589	6.66
372.797	6.93
373.006	7.16
373.214	7.12
373.423	6.89
373.631	7.28
373.84	7.23
374.048	7.57
374.256	7.35
374.465	6.74
374.673	6.42
374.882	6.26
375.09	6.26
375.298	6.39
375.507	6.25
375.715	6.8
375.923	6.58
376.132	6.64
376.34	6.8
376.548	6.84
376.757	7.17
376.965	6.92
377.173	6.76
377.381	6.36
377.59	5.83
377.798	5.67
378.006	5.48
378.214	5.67
378.423	5.56
378.631	5.32
378.839	4.94
379.047	5.3
379.255	5.81
379.463	6.07
379.671	6.3
379.879	6.6
380.088	6.77
380.296	6.47
380.504	6.23
380.712	6.25
380.92	6.15
381.128	6.49
381.336	6.06
381.544	5.85
381.752	5.78
381.96	5.52
382.168	5.51
382.376	5.33
382.584	5.12
382.791	4.89
382.999	4.83
383.207	4.61
383.415	4.47
383.623	4.43
383.831	4.43
384.039	4.25
384.247	4.11
384.454	3.96
384.662	4.09
384.87	4.22
385.078	4.58
385.285	4.39
385.493	4.76
385.701	4.96
385.909	5.06
386.116	4.77
386.324	5.23
386.532	5.35
386.739	5.54
386.947	5.4
387.155	5.4
387.362	5.27
387.57	5.05
387.778	5.03
387.985	4.76
388.193	4.67
388.4	4.69
388.608	4.37
388.816	4.41
389.023	4.24
389.231	4.25
389.438	4.36
389.646	4.27
389.853	4.62
390.061	4.26
390.268	4.26
390.475	4.12
390.683	4.14
390.89	3.97
391.098	3.77
391.305	3.76
391.512	3.78
391.72	3.37
391.927	3.33
392.135	3.3
392.342	3.52
392.549	3.54
392.756	3.51
392.964	3.34
393.171	3.38
393.378	3.49
393.586	3.29
393.793	3.27
394	3.53
394.207	3.54
394.414	3.38
394.622	3.15
394.829	3.16
395.036	3.3
395.243	3.49
395.45	3.53
395.657	3.61
395.864	3.84
396.072	3.8
396.279	3.59
396.486	3.62
396.693	3.6
396.9	3.53
397.107	3.69
397.314	3.66
397.521	3.51
397.728	3.37
397.935	3.23
398.142	3.12
398.349	3.01
398.556	3.06
398.763	3.07
398.97	3.03
399.177	3.44
399.383	3.26
399.59	3.27
399.797	3.37
400.004	3.3
400.211	3.43
400.418	3.54
400.625	3.69
400.831	3.64
401.038	3.53
401.245	3.84
401.452	3.6
401.658	3.43
401.865	3.32
402.072	3.31
402.279	3.53
402.485	3.22
402.692	3.06
402.899	3
403.105	3.03
403.312	3.04
403.519	2.65
403.725	2.59
403.932	2.61
404.138	2.66
404.345	2.63
404.552	2.38
404.758	2.56
404.965	2.78
405.171	2.77
405.378	2.97
405.584	2.67
405.791	2.92
405.997	2.97
406.204	3.06
406.41	3.19
406.617	3
406.823	3.04
407.029	2.91
407.236	2.67
407.442	2.81
407.649	2.59
407.855	3.09
408.061	3.17
408.268	3.17
408.474	3.11
408.68	2.87
408.887	3
409.093	3
409.299	3.09
409.505	3.15
409.712	2.92
409.918	2.98
410.124	2.76
410.33	2.77
410.537	2.65
410.743	2.62
410.949	2.64
411.155	2.63
411.361	2.73
411.567	2.51
411.773	2.39
411.98	2.44
412.186	2.54
412.392	2.65
412.598	2.42
412.804	2.45
413.01	2.26
413.216	2.28
413.422	2.36
413.628	2.38
413.834	2.51
414.04	2.64
414.246	2.57
414.452	2.5
414.658	2.43
414.864	2.48
415.07	2.5
415.275	2.73
415.481	2.77
415.687	2.67
415.893	2.75
416.099	2.76
416.305	2.75
416.511	2.83
416.716	2.73
416.922	2.71
417.128	2.64
417.334	2.71
417.539	2.65
417.745	2.64
417.951	2.67
418.157	2.51
418.362	2.6
418.568	2.64
418.774	2.5
418.979	2.58
419.185	2.65
419.391	2.65
419.596	2.56
419.802	2.64
420.008	2.59
420.213	2.57
420.419	2.6
420.624	2.5
420.83	2.47
421.035	2.53
421.241	2.52
421.446	2.43
421.652	2.51
421.857	2.6
422.063	2.58
422.268	2.6
422.474	2.6
422.679	2.58
422.885	2.62
423.09	2.65
423.295	2.7
423.501	2.69
423.706	2.7
423.911	2.65
424.117	2.54
424.322	2.49
424.527	2.43
424.733	2.4
424.938	2.44
425.143	2.41
425.349	2.37
425.554	2.41
425.759	2.36
425.964	2.28
426.169	2.28
426.375	2.29
426.58	2.3
426.785	2.44
426.99	2.57
427.195	2.71
427.4	2.81
427.605	2.75
427.811	2.74
428.016	2.7
428.221	2.81
428.426	2.76
428.631	2.83
428.836	2.83
429.041	2.85
429.246	2.79
429.451	2.58
429.656	2.46
429.861	2.56
430.066	2.45
430.271	2.42
430.476	2.43
430.681	2.43
430.886	2.4
431.09	2.37
431.295	2.34
431.5	2.35
431.705	2.43
431.91	2.47
432.115	2.41
432.32	2.53
432.524	2.56
432.729	2.55
432.934	2.55
433.139	2.53
433.343	2.5
433.548	2.42
433.753	2.39
433.958	2.35
434.162	2.39
434.367	2.35
434.572	2.26
434.776	2.19
434.981	2.12
435.186	2.25
435.39	2.39
435.595	2.51
435.799	2.51
436.004	2.6
436.209	2.66
436.413	2.71
436.618	2.76
436.822	2.72
437.027	2.71
437.231	2.78
437.436	2.69
437.64	2.58
437.845	2.59
438.049	2.63
438.253	2.62
438.458	2.6
438.662	2.47
438.867	2.49
439.071	2.53
439.275	2.53
439.48	2.53
439.684	2.45
439.888	2.4
440.093	2.32
440.297	2.22
440.501	2.15
440.706	2.12
440.91	2.13
441.114	2.06
441.318	2.07
441.523	2.1
441.727	2.02
441.931	2.13
442.135	2.21
442.339	2.26
442.543	2.35
442.748	2.31
442.952	2.3
443.156	2.41
443.36	2.38
443.564	2.39
443.768	2.44
443.972	2.5
444.176	2.44
444.38	2.48
444.584	2.46
444.788	2.45
444.992	2.42
445.196	2.46
445.4	2.37
445.604	2.42
445.808	2.4
446.012	2.35
446.216	2.3
446.42	2.4
446.624	2.29
446.828	2.37
447.032	2.29
447.235	2.25
447.439	2.21
447.643	2.16
447.847	2.17
448.051	2.11
448.254	2.09
448.458	2.2
448.662	2.09
448.866	2.16
449.069	2
449.273	2.12
449.477	2.25
449.681	2.2
449.884	2.33
450.088	2.35
450.292	2.21
450.495	2.1
450.699	2.02
450.902	2.09
451.106	2.05
451.31	2.08
451.513	2.04
451.717	2.06
451.92	2.09
452.124	2.08
452.327	2.11
452.531	2.36
452.734	2.49
452.938	2.5
453.141	2.52
453.345	2.51
453.548	2.5
453.752	2.55
453.955	2.44
454.158	2.47
454.362	2.48
454.565	2.28
454.769	2.1
454.972	1.99
455.175	1.82
455.379	1.74
455.582	1.75
455.785	1.77
455.988	1.78
456.192	1.87
456.395	1.85
456.598	1.76
456.801	1.95
457.005	2.13
457.208	2.21
457.411	2.27
457.614	2.26
457.817	2.33
458.021	2.36
458.224	2.33
458.427	2.36
458.63	2.36
458.833	2.36
459.036	2.33
459.239	2.26
459.442	2.31
459.645	2.32
459.848	2.39
460.051	2.29
460.254	2.24
460.457	2.26
460.66	2.26
460.863	2.34
461.066	2.42
461.269	2.37
461.472	2.39
461.675	2.37
461.878	2.41
462.081	2.36
462.284	2.33
462.486	2.46
462.689	2.44
462.892	2.33
463.095	2.35
463.298	2.29
463.5	2.43
463.703	2.37
463.906	2.44
464.109	2.4
464.311	2.35
464.514	2.48
464.717	2.47
464.92	2.37
465.122	2.43
465.325	2.3
465.528	2.28
465.73	2.14
465.933	2.19
466.135	2.11
466.338	2.2
466.541	2.28
466.743	2.27
466.946	2.21
467.148	2.2
467.351	2.25
467.553	2.28
467.756	2.33
467.958	2.32
468.161	2.34
468.363	2.26
468.566	2.13
468.768	2.04
468.971	1.96
469.173	2.01
469.375	2.07
469.578	2.07
469.78	2.05
469.983	2.04
470.185	2.08
470.387	2.07
470.59	2.25
470.792	2.37
470.994	2.39
471.196	2.44
471.399	2.35
471.601	2.34
471.803	2.25
472.005	2.29
472.208	2.26
472.41	2.18
472.612	2.21
472.814	2.13
473.016	2.16
473.218	2.17
473.421	2.16
473.623	2.31
473.825	2.35
474.027	2.27
474.229	2.38
474.431	2.5
474.633	2.51
474.835	2.5
475.037	2.53
475.239	2.55
475.441	2.54
475.643	2.48
475.845	2.4
476.047	2.38
476.249	2.53
476.451	2.46
476.653	2.36
476.855	2.27
477.057	2.26
477.258	2.28
477.46	2.24
477.662	2.16
477.864	2.16
478.066	2.13
478.268	2.18
478.469	2.15
478.671	2.08
478.873	2.06
479.075	2.21
479.276	2.21
479.478	2.13
479.68	2.2
479.882	2.23
480.083	2.32
480.285	2.33
480.487	2.31
480.688	2.32
480.89	2.36
481.091	2.35
481.293	2.31
481.495	2.3
481.696	2.36
481.898	2.34
482.099	2.38
482.301	2.39
482.502	2.39
482.704	2.36
482.905	2.36
483.107	2.38
483.308	2.42
483.51	2.46
483.711	2.47
483.913	2.45
484.114	2.45
484.315	2.4
484.517	2.39
484.718	2.39
484.92	2.39
485.121	2.41
485.322	2.38
485.524	2.36
485.725	2.32
485.926	2.29
486.127	2.27
486.329	2.27
486.53	2.28
486.731	2.27
486.932	2.28
487.134	2.31
487.335	2.32
487.536	2.35
487.737	2.38
487.938	2.38
488.139	2.41
488.341	2.43
488.542	2.46
488.743	2.5
488.944	2.54
489.145	2.48
489.346	2.49
489.547	2.47
489.748	2.39
489.949	2.39
490.15	2.44
490.351	2.43
490.552	2.46
490.753	2.4
490.954	2.41
491.155	2.39
491.356	2.46
491.557	2.44
491.758	2.46
491.959	2.54
492.159	2.51
492.36	2.48
492.561	2.49
492.762	2.43
492.963	2.45
493.164	2.39
493.364	2.36
493.565	2.28
493.766	2.28
493.967	2.24
494.167	2.21
494.368	2.18
494.569	2.22
494.769	2.25
494.97	2.21
495.171	2.22
495.371	2.34
495.572	2.36
495.773	2.36
495.973	2.35
496.174	2.43
496.375	2.4
496.575	2.47
496.776	2.43
496.976	2.37
497.177	2.51
497.377	2.53
497.578	2.46
497.778	2.48
497.979	2.6
498.179	2.63
498.38	2.57
498.58	2.59
498.78	2.57
498.981	2.6
499.181	2.7
499.382	2.57
499.582	2.63
499.782	2.67
499.983	2.78
500.183	2.78
500.383	2.77
500.584	2.75
500.784	2.81
500.984	2.79
501.184	2.91
501.385	2.88
501.585	2.86
501.785	2.85
501.985	2.82
502.185	2.78
502.386	2.74
502.586	2.73
502.786	2.75
502.986	2.74
503.186	2.78
503.386	2.69
503.586	2.72
503.786	2.82
503.987	2.77
504.187	2.81
504.387	2.81
504.587	2.78
504.787	2.88
504.987	2.87
505.187	2.91
505.387	2.88
505.587	2.82
505.786	2.83
505.986	2.83
506.186	2.85
506.386	2.85
506.586	2.84
506.786	2.88
506.986	2.88
507.186	2.94
507.386	2.96
507.585	2.96
507.785	3.08
507.985	3.11
508.185	3.12
508.384	3.16
508.584	3.14
508.784	3.16
508.984	3.22
509.183	3.26
509.383	3.26
509.583	3.25
509.782	3.34
509.982	3.32
510.182	3.28
510.381	3.26
510.581	3.27
510.781	3.3
510.98	3.38
511.18	3.38
511.379	3.27
511.579	3.26
511.778	3.15
511.978	3.1
512.177	3.07
512.377	3.14
512.576	3.15
512.776	3.14
512.975	3.16
513.175	3.09
513.374	3.08
513.573	3.22
513.773	3.28
513.972	3.32
514.172	3.38
514.371	3.41
514.57	3.35
514.77	3.39
514.969	3.35
515.168	3.31
515.367	3.37
515.567	3.28
515.766	3.25
515.965	3.27
516.164	3.33
516.364	3.32
516.563	3.34
516.762	3.37
516.961	3.35
517.16	3.44
517.359	3.51
517.559	3.51
517.758	3.59
517.957	3.57
518.156	3.53
518.355	3.52
518.554	3.5
518.753	3.48
518.952	3.56
519.151	3.6
519.35	3.56
519.549	3.58
519.748	3.59
519.947	3.6
520.146	3.65
520.345	3.7
520.544	3.77
520.743	3.8
520.942	3.85
521.141	3.86
521.339	3.91
521.538	3.95
521.737	3.88
521.936	3.82
522.135	3.74
522.333	3.73
522.532	3.73
522.731	3.74
522.93	3.73
523.129	3.72
523.327	3.65
523.526	3.69
523.725	3.67
523.923	3.75
524.122	3.8
524.321	3.9
524.519	3.94
524.718	3.96
524.917	3.95
525.115	3.95
525.314	3.96
525.512	3.99
525.711	3.99
525.909	3.99
526.108	3.99
526.306	3.98
526.505	3.97
526.703	4
526.902	4.02
527.1	4.06
527.299	4.06
527.497	4.1
527.696	4.12
527.894	4.14
528.092	4.17
528.291	4.2
528.489	4.24
528.688	4.28
528.886	4.25
529.084	4.28
529.283	4.25
529.481	4.33
529.679	4.32
529.877	4.34
530.076	4.36
530.274	4.37
530.472	4.37
530.67	4.4
530.869	4.35
531.067	4.33
531.265	4.32
531.463	4.35
531.661	4.32
531.859	4.31
532.057	4.33
532.255	4.33
532.454	4.34
532.652	4.34
532.85	4.34
533.048	4.43
533.246	4.49
533.444	4.55
533.642	4.56
533.84	4.61
534.038	4.66
534.236	4.7
534.434	4.73
534.632	4.73
534.83	4.74
535.027	4.76
535.225	4.69
535.423	4.71
535.621	4.7
535.819	4.72
536.017	4.75
536.215	4.77
536.412	4.72
536.61	4.69
536.808	4.68
537.006	4.66
537.203	4.65
537.401	4.63
537.599	4.63
537.797	4.6
537.994	4.56
538.192	4.53
538.39	4.56
538.587	4.6
538.785	4.66
538.983	4.71
539.18	4.8
539.378	4.82
539.575	4.85
539.773	4.85
539.97	4.88
540.168	4.98
540.366	5.02
540.563	5.09
540.761	5.13
540.958	5.15
541.155	5.17
541.353	5.19
541.55	5.25
541.748	5.32
541.945	5.38
542.143	5.42
542.34	5.43
542.537	5.43
542.735	5.37
542.932	5.41
543.129	5.46
543.327	5.52
543.524	5.51
543.721	5.46
543.919	5.45
544.116	5.46
544.313	5.49
544.51	5.5
544.708	5.56
544.905	5.63
545.102	5.66
545.299	5.66
545.496	5.68
545.693	5.76
545.891	5.8
546.088	5.96
546.285	5.98
546.482	5.97
546.679	6
546.876	6.03
547.073	6.04
547.27	6.04
547.467	6.08
547.664	6.12
547.861	6.12
548.058	6.15
548.255	6.09
548.452	6.14
548.649	6.25
548.846	6.3
549.043	6.29
549.24	6.42
549.437	6.44
549.633	6.47
549.83	6.45
550.027	6.56
550.224	6.58
550.421	6.53
550.618	6.57
550.814	6.59
551.011	6.55
551.208	6.6
551.405	6.54
551.601	6.54
551.798	6.51
551.995	6.55
552.191	6.51
552.388	6.58
552.585	6.65
552.781	6.64
552.978	6.62
553.175	6.72
553.371	6.72
553.568	6.74
553.764	6.78
553.961	6.92
554.157	6.89
554.354	6.97
554.55	7.05
554.747	7.08
554.943	7.15
555.14	7.27
555.336	7.31
555.533	7.35
555.729	7.29
555.926	7.37
556.122	7.3
556.318	7.45
556.515	7.39
556.711	7.28
556.907	7.37
557.104	7.44
557.3	7.42
557.496	7.5
557.693	7.49
557.889	7.7
558.085	7.7
558.281	7.7
558.478	7.71
558.674	7.73
558.87	7.85
559.066	7.76
559.262	7.87
559.459	7.88
559.655	7.86
559.851	7.9
560.047	7.84
560.243	7.87
560.439	7.98
560.635	7.96
560.831	8.08
561.027	8.18
561.223	8.32
561.419	8.34
561.615	8.36
561.811	8.38
562.007	8.47
562.203	8.5
562.399	8.59
562.595	8.53
562.791	8.66
562.987	8.88
563.183	8.87
563.379	8.91
563.575	8.93
563.771	8.9
563.966	8.99
564.162	9.07
564.358	9.12
564.554	9.12
564.75	9.23
564.945	9.27
565.141	9.2
565.337	9.24
565.533	9.28
565.728	9.32
565.924	9.52
566.12	9.6
566.315	9.59
566.511	9.75
566.707	9.84
566.902	9.97
567.098	10
567.293	10.01
567.489	10.04
567.684	10.12
567.88	10.16
568.076	10.11
568.271	10.19
568.467	10.25
568.662	10.36
568.858	10.36
569.053	10.33
569.248	10.39
569.444	10.5
569.639	10.5
569.835	10.47
570.03	10.52
570.225	10.61
570.421	10.52
570.616	10.62
570.812	10.48
571.007	10.5
571.202	10.56
571.397	10.61
571.593	10.67
571.788	10.87
571.983	10.92
572.178	10.91
572.374	10.98
572.569	11.08
572.764	11.11
572.959	11.27
573.154	11.38
573.35	11.44
573.545	11.52
573.74	11.48
573.935	11.43
574.13	11.5
574.325	11.62
574.52	11.61
574.715	11.67
574.91	11.62
575.105	11.59
575.3	11.47
575.495	11.46
575.69	11.36
575.885	11.37
576.08	11.44
576.275	11.54
576.47	11.55
576.665	11.51
576.86	11.55
577.055	11.72
577.25	11.67
577.444	11.91
577.639	12
577.834	12.2
578.029	12.3
578.224	12.22
578.418	12.18
578.613	12.18
578.808	12.23
579.003	12.11
579.197	12.24
579.392	12.35
579.587	12.38
579.781	12.43
579.976	12.46
580.171	12.51
580.365	12.66
580.56	12.78
580.755	12.86
580.949	13
581.144	13.2
581.338	13.15
581.533	13.18
581.727	13.21
581.922	13.25
582.116	13.19
582.311	13.15
582.505	13.17
582.7	13.3
582.894	13.29
583.089	13.29
583.283	13.3
583.478	13.4
583.672	13.57
583.866	13.52
584.061	13.56
584.255	13.54
584.449	13.59
584.644	13.59
584.838	13.44
585.032	13.5
585.226	13.5
585.421	13.41
585.615	13.37
585.809	13.26
586.003	13.35
586.198	13.48
586.392	13.5
586.586	13.65
586.78	13.65
586.974	13.72
587.168	13.67
587.363	13.69
587.557	13.92
587.751	13.79
587.945	13.88
588.139	13.88
588.333	13.74
588.527	13.73
588.721	13.66
588.915	13.81
589.109	13.87
589.303	13.94
589.497	14.05
589.691	13.94
589.885	14.16
590.079	14.24
590.273	14.19
590.466	14.25
590.66	14.39
590.854	14.47
591.048	14.54
591.242	14.4
591.436	14.25
591.629	14.1
591.823	14.09
592.017	14.08
592.211	13.96
592.404	14.06
592.598	14.22
592.792	14.17
592.986	14.24
593.179	14.07
593.373	14.18
593.567	14.46
593.76	14.48
593.954	14.54
594.147	14.61
594.341	14.73
594.535	14.66
594.728	14.51
594.922	14.6
595.115	14.51
595.309	14.52
595.502	14.56
595.696	14.56
595.889	14.72
596.083	14.76
596.276	14.63
596.47	14.58
596.663	14.64
596.856	14.69
597.05	14.76
597.243	14.8
597.437	14.91
597.63	14.87
597.823	14.79
598.017	14.64
598.21	14.6
598.403	14.69
598.596	14.66
598.79	14.86
598.983	14.91
599.176	14.94
599.369	15.01
599.563	14.93
599.756	15.08
599.949	15.04
600.142	15.12
600.335	15.11
600.528	15.14
600.722	15.38
600.915	15.09
601.108	15.16
601.301	15.05
601.494	14.96
601.687	15.05
601.88	14.87
602.073	15.09
602.266	15.17
602.459	15.23
602.652	15.22
602.845	15.15
603.038	15.31
603.231	15.35
603.424	15.32
603.617	15.4
603.809	15.36
604.002	15.36
604.195	15.34
604.388	15.19
604.581	15.18
604.774	15.28
604.966	15.27
605.159	15.28
605.352	15.28
605.545	15.4
605.737	15.35
605.93	15.47
606.123	15.49
606.316	15.45
606.508	15.59
606.701	15.58
606.894	15.47
607.086	15.58
607.279	15.46
607.471	15.46
607.664	15.47
607.857	15.44
608.049	15.31
608.242	15.43
608.434	15.39
608.627	15.45
608.819	15.51
609.012	15.54
609.204	15.46
609.397	15.52
609.589	15.45
609.782	15.43
609.974	15.54
610.166	15.62
610.359	15.68
610.551	15.71
610.743	15.81
610.936	15.89
611.128	15.9
611.32	15.9
611.513	15.99
611.705	16.04
611.897	15.94
612.09	15.85
612.282	15.94
612.474	15.92
612.666	15.92
612.858	15.83
613.051	15.66
613.243	15.9
613.435	15.83
613.627	15.86
613.819	15.77
614.011	15.71
614.203	15.85
614.395	15.74
614.588	15.77
614.78	15.64
614.972	15.71
615.164	15.86
615.356	15.5
615.548	15.57
615.74	15.57
615.932	15.64
616.124	15.84
616.315	15.89
616.507	16.06
616.699	16.06
616.891	16.14
617.083	16.11
617.275	15.92
617.467	16.06
617.659	16.26
617.85	16.26
618.042	16.43
618.234	16.57
618.426	16.43
618.618	16.19
618.809	16.06
619.001	16.2
619.193	16.16
619.384	16.42
619.576	16.41
619.768	16.26
619.959	16.22
620.151	15.87
620.343	15.67
620.534	15.78
620.726	15.98
620.917	16.05
621.109	15.78
621.301	15.8
621.492	15.81
621.684	15.9
621.875	15.73
622.067	15.88
622.258	16.06
622.45	16.11
622.641	16.15
622.832	16.2
623.024	16.32
623.215	16.64
623.407	16.62
623.598	16.29
623.789	16.14
623.981	16.24
624.172	16
624.363	16.16
624.555	16.24
624.746	16.3
624.937	16.31
625.129	16.34
625.32	16.27
625.511	16.27
625.702	16.48
625.893	16.65
626.085	16.74
626.276	16.84
626.467	16.72
626.658	16.67
626.849	16.51
627.04	16.42
627.231	16.37
627.422	16.32
627.614	16.41
627.805	16.23
627.996	16.13
628.187	16.06
628.378	16.01
628.569	16.1
628.76	16.03
628.951	16.16
629.142	16.1
629.332	16.13
629.523	16.35
629.714	16.36
629.905	16.51
630.096	16.63
630.287	16.66
630.478	16.67
630.669	16.61
630.859	16.61
631.05	16.61
631.241	16.86
631.432	16.89
631.623	16.58
631.813	16.53
632.004	16.59
632.195	16.58
632.385	16.63
632.576	16.57
632.767	16.49
632.957	16.69
633.148	16.66
633.339	16.51
633.529	16.53
633.72	16.73
633.91	16.74
634.101	16.67
634.292	16.63
634.482	16.6
634.673	16.8
634.863	16.84
635.054	16.71
635.244	16.63
635.435	16.72
635.625	16.75
635.815	16.67
636.006	16.72
636.196	16.87
636.387	16.74
636.577	16.77
636.767	16.86
636.958	16.95
637.148	16.97
637.338	17.07
637.529	16.82
637.719	16.75
637.909	16.82
638.099	16.87
638.29	16.69
638.48	17.04
638.67	16.9
638.86	16.96
639.05	16.88
639.241	16.87
639.431	16.79
639.621	16.98
639.811	17.01
640.001	16.93
640.191	16.84
640.381	16.83
640.571	16.69
640.761	16.86
640.951	16.71
641.141	16.75
641.331	16.78
641.521	16.89
641.711	16.83
641.901	16.67
642.091	16.76
642.281	16.8
642.471	17.07
642.661	16.98
642.851	16.98
643.041	16.94
643.231	17.05
643.42	16.88
643.61	16.84
643.8	16.87
643.99	17.1
644.18	16.9
644.369	16.98
644.559	16.91
644.749	17.09
644.939	16.96
645.128	16.98
645.318	16.92
645.508	17.26
645.697	17.35
645.887	17.29
646.076	17.26
646.266	17.44
646.456	17.41
646.645	17.19
646.835	16.99
647.024	17.04
647.214	16.95
647.403	17.04
647.593	16.84
647.782	16.61
647.972	16.59
648.161	16.46
648.351	16.37
648.54	16.38
648.73	16.43
648.919	16.49
649.108	16.54
649.298	16.65
649.487	16.46
649.677	16.48
649.866	16.64
650.055	16.87
650.244	17.01
650.434	17.15
650.623	17.23
650.812	17.34
651.002	17.44
651.191	17.27
651.38	17.42
651.569	17.52
651.758	17.58
651.947	17.67
652.137	17.47
652.326	17.5
652.515	17.51
652.704	17.36
652.893	17.4
653.082	17.25
653.271	17.6
653.46	17.62
653.649	17.75
653.838	17.84
654.027	17.98
654.216	18.15
654.405	18.09
654.594	17.99
654.783	18.15
654.972	18.15
655.161	18.25
655.35	18.31
655.539	18.05
655.728	18.09
655.916	18.02
656.105	17.83
656.294	17.78
656.483	17.72
656.672	17.98
656.86	18.05
657.049	18.1
657.238	18.3
657.427	18.22
657.615	18.38
657.804	18.19
657.993	18.34
658.181	18.37
658.37	18.34
658.559	18.43
658.747	18.3
658.936	18.08
659.125	17.99
659.313	18.01
659.502	17.99
659.69	17.88
659.879	18.11
660.067	18.1
660.256	18.16
660.444	18.2
660.633	18.2
660.821	18.18
661.01	18.55
661.198	18.76
661.387	18.56
661.575	18.49
661.763	18.58
661.952	18.43
662.14	18.32
662.328	18.12
662.517	18.3
662.705	18.01
662.893	18.14
663.082	17.79
663.27	17.41
663.458	17.3
663.646	17.38
663.834	17.37
664.023	17.42
664.211	17.26
664.399	17.42
664.587	17.34
664.775	17.68
664.963	17.79
665.152	17.71
665.34	18.07
665.528	17.94
665.716	17.85
665.904	17.86
666.092	17.92
666.28	17.83
666.468	17.9
666.656	17.84
666.844	17.77
667.032	17.73
667.22	17.81
667.408	17.63
667.596	17.81
667.784	17.82
667.971	17.76
668.159	17.73
668.347	17.99
668.535	17.86
668.723	17.91
668.911	17.82
669.098	17.69
669.286	17.53
669.474	17.58
669.662	17.53
669.849	17.71
670.037	17.87
670.225	17.73
670.413	17.66
670.6	17.65
670.788	17.7
670.976	18.07
671.163	17.86
671.351	18.26
671.538	18.2
671.726	18.4
671.913	18.24
672.101	18.22
672.289	18.21
672.476	18.12
672.664	18.26
672.851	18.09
673.039	18.03
673.226	18.43
673.413	18.19
673.601	18.4
673.788	18.18
673.976	18.21
674.163	18.16
674.35	18.34
674.538	18.47
674.725	18.52
674.912	18.6
675.1	18.27
675.287	18
675.474	18.05
675.662	18
675.849	18.09
676.036	18.17
676.223	18.21
676.411	18.13
676.598	18.02
676.785	17.84
676.972	17.54
677.159	17.71
677.346	17.67
677.533	17.76
677.721	17.66
677.908	17.74
678.095	17.77
678.282	17.91
678.469	17.92
678.656	18
678.843	18.2
679.03	18.52
679.217	18.62
679.404	18.82
679.591	18.71
679.778	18.71
679.964	18.9
680.151	19.1
680.338	18.96
680.525	19.05
680.712	18.95
680.899	18.92
681.086	19.27
681.272	19.12
681.459	18.92
681.646	19.35
681.833	19.41
682.02	19.45
682.206	19.2
682.393	19.46
682.58	19.39
682.766	19.51
682.953	19.59
683.14	19.17
683.326	19.11
683.513	19.54
683.7	19.18
683.886	19.16
684.073	18.97
684.259	19.01
684.446	18.9
684.632	18.85
684.819	18.87
685.005	18.91
685.192	19.08
685.378	19.29
685.565	19.06
685.751	19.17
685.938	19.3
686.124	19.18
686.31	19.06
686.497	18.81
686.683	18.7
686.87	18.74
687.056	18.54
687.242	18.34
687.429	18.28
687.615	18.39
687.801	18.46
687.987	18.4
688.174	18.88
688.36	19.27
688.546	19.5
688.732	19.62
688.918	19.52
689.105	19.37
689.291	19.26
689.477	19.32
689.663	19.12
689.849	19.14
690.035	19.17
690.221	18.74
690.407	18.7
690.593	18.88
690.779	18.77
690.965	18.87
691.151	19.16
691.337	19.32
691.523	19.29
691.709	19.55
691.895	19.35
692.081	19.15
692.267	19.45
692.453	19.38
692.639	19.03
692.825	19.25
693.011	18.85
693.196	18.56
693.382	18.62
693.568	18.61
693.754	18.35
693.94	18.48
694.125	18.5
694.311	18.08
694.497	17.96
694.682	17.85
694.868	17.97
695.054	18.3
695.239	18.44
695.425	18.59
695.611	18.84
695.796	18.87
695.982	19.1
696.168	18.99
696.353	18.98
696.539	18.96
696.724	19
696.91	18.77
697.095	19.17
697.281	19.34
697.466	19.26
697.652	19.1
697.837	19.22
698.023	19.17
698.208	19.3
698.393	19.35
698.579	19.3
698.764	19.5
698.949	19.71
699.135	19.49
699.32	19.59
699.505	19.65
699.691	19.62
699.876	19.44
700.061	19.44
700.246	19.45
700.432	19.6
700.617	19.6
700.802	19.55
700.987	19.28
701.172	19.14
701.358	18.93
701.543	19.08
701.728	19
701.913	19.11
702.098	18.8
702.283	19
702.468	18.8
702.653	18.7
702.838	18.68
703.023	18.99
703.208	18.75
703.393	18.69
703.578	18.09
703.763	18.35
703.948	18.36
704.133	18.33
704.318	18.11
704.503	18.33
704.688	18.62
704.873	18.56
705.057	18.49
705.242	18.81
705.427	18.8
705.612	19.22
705.797	19.49
705.981	19.62
706.166	19.57
706.351	19.98
706.536	19.82
706.72	19.73
706.905	19.9
707.09	19.77
707.274	19.74
707.459	20.04
707.644	19.76
707.828	19.61
708.013	19.51
708.197	19.49
708.382	19.23
708.567	19.01
708.751	19.09
708.936	19.1
709.12	19.24
709.305	19.13
709.489	19.01
709.673	19.21
709.858	18.9
710.042	18.53
710.227	19.01
710.411	18.8
710.596	19.03
710.78	18.73
710.964	18.67
711.149	18.63
711.333	18.74
711.517	18.61
711.702	18.81
711.886	18.98
712.07	19.21
712.254	18.95
712.438	18.92
712.623	19.1
712.807	19.24
712.991	19.17
713.175	19.02
713.359	19.17
713.544	19.02
713.728	18.68
713.912	18.29
714.096	18.33
714.28	18.41
714.464	18.33
714.648	18.41
714.832	18.27
715.016	18
715.2	18.06
715.384	18.04
715.568	17.92
715.752	17.83
715.936	18.26
716.12	18.21
716.304	18.11
716.488	18.36
716.671	18.15
716.855	18.83
717.039	19.12
717.223	19.1
717.407	18.83
717.59	18.93
717.774	19.27
717.958	18.9
718.142	19.07
718.325	18.95
718.509	19.18
718.693	18.94
718.877	18.16
719.06	18.55
719.244	18.7
719.428	19.11
719.611	19.41
719.795	19.7
719.978	20.12
720.162	19.88
720.345	20.09
720.529	19.72
720.713	19.89
720.896	20.32
721.08	19.68
721.263	19.46
721.446	19.21
721.63	19.17
721.813	18.55
721.997	18.24
722.18	18.03
722.364	17.82
722.547	17.92
722.73	17.83
722.914	17.71
723.097	18.04
723.28	18
723.464	18.08
723.647	18.46
723.83	18.61
724.013	18.82
724.197	18.97
724.38	19.23
724.563	18.83
724.746	19.17
724.929	19.17
725.112	18.89
725.296	19.18
725.479	18.74
725.662	18.39
725.845	18.52
726.028	18.25
726.211	18.41
726.394	17.88
726.577	18.37
726.76	18.04
726.943	17.77
727.126	18.1
727.309	18.01
727.492	18.12
727.675	18.2
727.858	17.95
728.041	18.35
728.224	18.27
728.407	18.94
728.589	19.21
728.772	19.05
728.955	19.62
729.138	19.46
729.321	19.68
729.503	19.99
729.686	20.05
729.869	20.14
730.052	19.79
730.234	19.77
730.417	19.76
730.6	19.54
730.782	19.69
730.965	19.28
731.148	19.15
731.33	18.87
731.513	18.7
731.695	18.43
731.878	18.83
732.061	19
732.243	19.39
732.426	19.16
732.608	19.29
732.791	19.33
732.973	19.49
733.156	19.17
733.338	19.42
733.52	19.61
733.703	19.73
733.885	19.12
734.068	19.04
734.25	18.84
734.432	18.76
734.615	18.5
734.797	18.45
734.979	18
735.162	18.67
735.344	18.6
735.526	18.42
735.708	18.27
735.891	18.38
736.073	18.36
736.255	18.5
736.437	19.01
736.619	19.13
736.802	19.14
736.984	19.47
737.166	19.2
737.348	19.94
737.53	20.29
737.712	20.83
737.894	21.63
738.076	21.64
738.258	21.65
738.44	21.23
738.622	21.48
738.804	21.33
738.986	21.48
739.168	21.67
739.35	20.73
739.532	20.1
739.714	19.92
739.896	19
740.078	19.14
740.259	18.51
740.441	18.42
740.623	18.54
740.805	18.68
740.987	18.51
741.168	18.31
741.35	18.47
741.532	18.46
741.714	18.33
741.895	18.41
742.077	18.06
742.259	19.03
742.44	19.13
742.622	18.84
742.804	18.99
742.985	18.73
743.167	18.59
743.348	19.38
743.53	20.04
743.711	19.61
743.893	19.62
744.075	20.02
744.256	19.38
744.438	19.28
744.619	18.62
744.8	18.76
744.982	19.15
745.163	19.16
745.345	18.78
745.526	18.49
745.707	18.82
745.889	19.13
746.07	18.79
746.252	19.09
746.433	19.21
746.614	19.79
746.795	19.75
746.977	19.6
747.158	19.95
747.339	19.53
747.52	19.43
747.702	19.11
747.883	18.9
748.064	18.48
748.245	18.27
748.426	18.17
748.607	17.56
748.788	17.59
748.97	17.4
749.151	17.13
749.332	17.38
749.513	17.09
749.694	17.08
749.875	16.85
750.056	17.24
750.237	17.25
750.418	17.1
750.599	17.66
750.78	16.97
750.96	16.92
751.141	17.68
751.322	17.47
751.503	17.74
751.684	18.57
751.865	18.63
752.046	18.67
752.226	18.84
752.407	19.76
752.588	20
752.769	20.26
752.949	20.47
753.13	20.17
753.311	19.8
753.492	20.19
753.672	19.74
753.853	20.15
754.034	20.23
754.214	19.83
754.395	19.23
754.575	19.59
754.756	19.68
754.937	19.83
755.117	19.41
755.298	19.61
755.478	18.64
755.659	18.63
755.839	18.59
756.02	18.29
756.2	17.9
756.381	17.68
756.561	16.87
756.741	17.06
756.922	16.65
757.102	16.4
757.283	16.88
757.463	17.62
757.643	17.77
757.823	17.81
758.004	17.89
758.184	18.89
758.364	18.83
758.545	18.68
758.725	18.85
758.905	20.02
759.085	20.26
759.265	19.42
759.446	19.54
759.626	19.51
759.806	19.49
759.986	19.63
760.166	19.04
760.346	19.42
760.526	19.6
760.706	20.04
760.886	19.16
761.066	19.55
761.246	20.26
761.426	19.4
761.606	18.76
761.786	18.67
761.966	18.98
762.146	19.65
762.326	19.85
762.506	20.25
762.686	19.94
762.866	20.34
763.046	20.42
763.225	20.31
763.405	21.14
763.585	21.56
763.765	21.83
763.945	21.76
764.124	21.41
764.304	21.03
764.484	21.1
764.664	20.84
764.843	20.45
765.023	20.64
765.203	20.18
765.382	19.84
765.562	19.85
765.741	19.23
765.921	19.17
766.101	19.56
766.28	19.3
766.46	18.4
766.639	18.56
766.819	18.91
766.998	18.49
767.178	18.74
767.357	19.01
767.537	19.47
767.716	19.81
767.896	19.51
768.075	19.43
768.254	19.23
768.434	19.91
768.613	20.12
768.792	20.57
768.972	20.21
769.151	19.68
769.33	19.57
769.51	18.85
769.689	18.79
769.868	19.28
770.047	19.16
770.226	19.36
770.406	19.02
770.585	18.55
770.764	17.23
770.943	17.28
771.122	18.51
771.301	18.3
771.48	18.63
771.66	18.1
771.839	17.76
772.018	17.11
772.197	18.07
772.376	18.61
772.555	18.5
772.734	19.36
772.913	19.45
773.092	19.51
773.271	18.94
773.449	18.43
773.628	18.85
773.807	18.65
773.986	18.02
774.165	17.23
774.344	17.31
774.523	18.84
774.701	18.72
774.88	18.44
775.059	17.7
775.238	18.16
775.417	18.53
775.595	18.98
775.774	19.27
775.953	20.39
776.131	20.65
776.31	19.66
776.489	18.25
776.667	17.48
776.846	17.73
777.025	18.71
777.203	18.49
777.382	18.46
777.56	18.8
777.739	18.52
777.917	18.74
778.096	19.52
778.274	20.05
778.453	20.66
778.631	21.72
778.81	21.77
778.988	21.89
779.166	22.12
779.345	21.6
779.523	21.95
779.702	22.24
779.88	21.47
780.058	20.88
780.237	20.88
780.415	20.3
780.593	19.9
780.771	19.68
780.95	19.14
781.128	19.77
781.306	19.97
781.484	19.46
781.662	19.73
781.841	19.65
782.019	19.22
782.197	19.21
782.375	20.13
782.553	19.74
782.731	20.63
782.909	20.1
783.087	19.94
783.265	19.74
783.443	19.37
783.621	18.68
783.799	19.29
783.977	20.4
784.155	19.72
784.333	19.11
784.511	19.57
784.689	17.77
784.867	18.12
785.045	18.52
785.223	18.92
785.4	19.45
785.578	20.03
785.756	20.21
785.934	19.9
786.112	19.69
786.289	19
786.467	18.01
786.645	18.76
786.823	18.8
787	18.79
787.178	19.14
787.356	18.41
787.533	18.02
787.711	18.6
787.889	17.92
788.066	18.7
788.244	19.23
788.421	20.48
788.599	20.57
788.776	20.22
788.954	19.72
789.131	19.78
789.309	20.23
789.486	19.65
789.664	18.34
789.841	19.68
790.019	19.39
790.196	18.41
790.373	17.84
790.551	18.63
790.728	18.86
790.906	19.38
791.083	19.24
791.26	18.6
791.437	19.32
791.615	20.32
791.792	18.32
791.969	18.35
792.146	19.07
792.324	17.85
792.501	17.01
792.678	16.62
792.855	16.05
793.032	15.01
793.209	15.73
793.387	16.06
793.564	15.33
793.741	15.78
793.918	16.01
794.095	15.46
794.272	16.34
794.449	17.45
794.626	17.65
794.803	17.69
794.98	18.91
795.157	17.67
795.334	17.41
795.511	16.81
795.688	16.43
795.864	17.48
796.041	18.59
796.218	19.5
796.395	18.09
796.572	17.68
796.749	17.4
796.925	16.94
797.102	17.84
797.279	18.1
797.456	18.94
797.632	20.13
797.809	19.52
797.986	19.5
798.162	18.09
798.339	19.36
798.516	20.62
798.692	21.19
798.869	21.07
799.046	20.36
799.222	19.5
799.399	19.13
799.575	18.33
799.752	18.45
799.928	17.9
800.105	19.19
800.281	17.19
800.458	17.08
800.634	16.56
800.811	15.29
800.987	16.92
801.163	18.13
801.34	17.19
801.516	17.16
801.692	16.98
801.869	17.53
802.045	17.23
802.221	18.67
802.398	16.85
802.574	15.7
802.75	15.35
802.926	14.37
803.103	13.97
803.279	14.21
803.455	13.88
803.631	13.3
803.807	13.09
803.983	13.3
804.16	13
804.336	14.26
804.512	15.85
804.688	17.51
804.864	18
805.04	16.35
805.216	17.79
805.392	18.77
805.568	18.77
805.744	18.95
805.92	18.78
806.096	19.33
806.272	19.32
806.448	18.61
806.623	17.53
806.799	17.97
806.975	19.8
807.151	19.32
807.327	18.4
807.503	19.06
807.678	19.36
807.854	19.38
808.03	18.88
808.206	18.93
808.381	18.83
808.557	19.78
808.733	18.54
808.908	17.81
809.084	17.16
809.26	17.8
809.435	17.4
809.611	16.53
809.787	17.2
809.962	17.68
810.138	16.81
810.313	17.67
810.489	16.89
810.664	16.77
810.84	17.07
811.015	18.97
811.191	19.12
811.366	19.33
811.542	19.16
811.717	18.33
811.892	19.6
812.068	19.75
812.243	19.15
812.419	20.07
812.594	21.38
812.769	21.64
812.944	19.65
813.12	19.1
813.295	19.32
813.47	19.53
813.645	20.25
813.821	16.62
813.996	17.09
814.171	16.34
814.346	15.94
814.521	14.64
814.697	15.13
814.872	16.21
815.047	16.41
815.222	17.12
815.397	16.86
815.572	16.41
815.747	18.34
815.922	19.05
816.097	19.07
816.272	19.08
816.447	19.63
816.622	19.05
816.797	19.29
816.972	18.33
817.147	17.57
817.322	18.9
817.496	18.39
817.671	19.02
817.846	18.46
818.021	19.64
818.196	20.08
818.371	20.38
818.545	19.95
818.72	19.44
818.895	19.97
819.069	20.41
819.244	19.92
819.419	20.02
819.594	18.84
819.768	18.93
819.943	18.63
820.117	19.29
820.292	19.95
820.467	20.81
820.641	20.88
820.816	21.43
820.99	21.56
821.165	21.79
821.339	21.8
821.514	22.24
821.688	22.43
821.863	22.28
822.037	21.92
822.212	21.95
822.386	21.9
822.56	21.88
822.735	21.83
822.909	21.66
823.084	21.64
823.258	21.75
823.432	21.54
823.606	21.46
823.781	21.72
823.955	22.1
824.129	22.14
824.303	22.45
824.478	22.53
824.652	22.43
824.826	22.86
825	22.75
825.174	22.55
825.348	22.79
825.523	22.77
825.697	22.46
825.871	22.49
826.045	21.88
826.219	21.52
826.393	21.39
826.567	21.71
826.741	20.85
826.915	21
827.089	21.12
827.263	21.05
827.437	21.1
827.611	21.54
827.784	21.35
827.958	21.3
828.132	21.22
828.306	21.61
828.48	21.22
828.654	21.48
828.827	21.62
829.001	22.32
829.175	22.54
829.349	22.59
829.522	22.02
829.696	22.18
829.87	22.27
830.044	21.8
830.217	20.49
830.391	19.76
830.565	20.73
830.738	19.6
830.912	18.02
831.085	16.99
831.259	16.66
831.432	16.97
831.606	16.98
831.779	17.11
831.953	17.89
832.126	19.43
832.3	19.53
832.473	19.13
832.647	19.89
832.82	20.12
832.994	20.23
833.167	20.16
833.34	20.17
833.514	19.76
833.687	19.56
833.86	18.93
834.034	18.74
834.207	19.96
834.38	19.86
834.553	19.02
834.727	18.49
834.9	19
835.073	19.11
835.246	18.79
835.419	18.53
835.593	19.27
835.766	19.26
835.939	18.1
836.112	17.43
836.285	17.01
836.458	17.85
836.631	17.95
836.804	17.24
836.977	16.26
837.15	16.98
837.323	17.73
837.496	16.24
837.669	16.38
837.842	17.07
838.015	16.4
838.188	14.84
838.361	13.85
838.533	15.28
838.706	15.88
838.879	16.61
839.052	15.71
839.225	15.97
839.398	16.74
839.57	17.27
839.743	16.43
839.916	16.41
840.088	17.53
840.261	18.12
840.434	17.14
840.607	17.49
840.779	16.1
840.952	15.12
841.124	14.68
841.297	15.48
841.47	13.45
841.642	12.3
841.815	11.36
841.987	11.4
842.16	10.16
842.332	10.2
842.505	7.81
842.677	8.98
842.85	9.63
843.022	8.49
843.194	6.74
843.367	7.09
843.539	11.5
843.712	11.1
843.884	10.2
844.056	11.26
844.229	11.84
844.401	14.56
844.573	15.41
844.745	14.67
844.918	14.74
845.09	13.93
845.262	14.86
845.434	13.76
845.606	14.86
845.779	14.94
845.951	11.87
846.123	11.85
846.295	9.73
846.467	8.27
846.639	6.48
846.811	9.8
846.983	10.34
847.155	13.79
847.327	15.42
847.499	15.21
847.671	14.59
847.843	17.09
848.015	16.05
848.187	18.44
848.359	17.45
848.531	23.29
848.703	21.33
848.875	20.25
849.047	14.49
849.218	8.48
849.39	6.52
849.562	8.42
849.734	8.61
849.905	11.55
850.077	6.99
850.249	9.71
850.421	9.44
850.592	4.18
850.764	4.45
850.936	7.81
851.107	11.28
851.279	14.39
851.451	12.43
851.622	10.05
851.794	5.99
851.965	12.56
852.137	9.94
852.308	6.93
852.48	10.11
852.651	14.33
852.823	15.17
852.994	17.65
853.166	13.51
853.337	16.72
853.509	21.31
853.68	23.59
853.851	16.73
854.023	13.83
854.194	15.6
854.365	22.7
854.537	19.61
854.708	15.09
854.879	13.58
855.05	14.07
855.222	12.08
855.393	13.37
855.564	10.53
855.735	13.81
855.906	19.12
856.078	18.37
856.249	14.41
856.42	15.53
856.591	18.93
856.762	12.01
856.933	11.52
857.104	14.82
857.275	8.41
857.446	13.12
857.617	16.19
857.788	14.14
857.959	14.71
858.13	14.23
858.301	13.67
858.472	12.48
858.643	17.52
858.814	19.04
858.985	15.69
859.155	16.34
859.326	12.01
859.497	9.64
859.668	7.95
859.839	7.88
860.009	5.82
860.18	4.73
860.351	5.36
860.522	4.56
860.692	5.31
860.863	12.7
861.034	16.1
861.204	18.2
861.375	10.1
861.546	8.98
861.716	8.5
861.887	9.09
862.057	5.62
862.228	3.95
862.398	8.61
862.569	4.64
862.739	-2.79
862.91	-7.07
863.08	-4.03
863.251	0.93
863.421	1.34
863.592	-1.5
863.762	-3.26
863.932	0.53
864.103	6.29
864.273	4.37
864.443	11.29
864.614	12.3
864.784	13.23
864.954	10.82
865.125	6.96
865.295	10.97
865.465	14.24
865.635	16.32
865.805	18.46
865.976	16.22
866.146	16.24
866.316	12.25
866.486	10.23
866.656	11.41
866.826	5.35
866.996	7.61
867.166	9.44
867.336	7.52
867.506	0.29
867.676	-9.13
867.846	-9.68
868.016	-9.49
868.186	-1.85
868.356	2.05
868.526	4.95
868.696	12.05
868.866	12.96
869.036	4.88
869.206	5.35
869.376	9.59
869.545	15.25
869.715	17.14
869.885	16.61
870.055	11.83
870.224	8.08
870.394	10.62
870.564	7.17
870.734	8.55
870.903	12.29
871.073	15.33
871.243	16.07
871.412	12.08
871.582	10.77
871.751	9.97
871.921	11.17
872.091	10.6
872.26	8.65
872.43	11.06
872.599	7.96
872.769	5.82
872.938	3.96
873.108	4.82
873.277	7.09
873.446	8.16
873.616	8.86
873.785	5.17
873.955	6.27
874.124	5.56
874.293	3.78
874.463	5.41
874.632	2.02
874.801	1.98
874.971	3.04
875.14	2.97
875.309	1.01
875.478	0.05
875.647	3.16
875.817	3.48
875.986	-4.1
876.155	-9.1
876.324	-9.08
876.493	-13.42
876.662	-10.94
876.831	-13.29
877	-10.38
877.17	-12.54
877.339	-10.99
877.508	-11.56
877.677	-12.6
877.846	-4.93
878.015	1.64
878.184	4.07
878.352	14.25
878.521	11.34
878.69	13.76
878.859	12.65
879.028	10.84
879.197	13.67
879.366	16.32
879.534	18.93
879.703	16.85
879.872	18.35
880.041	18.86
880.21	19.44
880.378	19.96
880.547	18.81
880.716	19.74
880.884	20.57
881.053	19.95
881.222	19.43
881.39	19.01
881.559	20.5
881.727	21.04
881.896	21
882.065	20.69
882.233	20.72
882.402	20.63
882.57	21.06
882.739	21.54
882.907	21.68
883.076	22.47
883.244	22.68
883.412	21.86
883.581	21.02
883.749	20.78
883.918	20.53
884.086	19.78
884.254	20.72
884.423	20.18
884.591	20.23
884.759	19.58
884.927	17.31
885.096	17.65
885.264	17.79
885.432	16.13
885.6	15.27
885.769	15.12
885.937	14.33
886.105	10.77
886.273	8.76
886.441	7.11
886.609	7.05
886.777	6.72
886.945	4.19
887.113	2.97
887.281	6.11
887.449	7.22
887.617	6.88
887.785	7.01
887.953	8.1
888.121	7.01
888.289	8.02
888.457	7.61
888.625	12.72
888.793	9.14
888.961	15.8
889.129	10.58
889.296	9.41
889.464	8.03
889.632	11.96
889.8	15.39
889.967	17.57
890.135	18.26
