Data from 2938522_Reflection_2.txt Node
Date: Tue Jun 16 22:14:07 EDT 2015
User: robert
Spectrometer: USB4E03002
Autoset integration time: false
Trigger mode: 4
Integration Time (sec): 1.000000E-1
Scans to average: 10
Electric dark correction enabled: true
Nonlinearity correction enabled: false
Boxcar width: 5
Stray light correction enabled: false
XAxis mode: Wavelengths
Stop averaging: false
Number of Pixels in Spectrum: 3648
>>>>>Begin Spectral Data<<<<<
177.575	23.8
177.794	-4.69
178.014	1.68
178.233	-3.22
178.452	-40.77
178.672	2.16
178.891	38.58
179.11	479.34
179.33	978.53
179.549	188.82
179.768	71.55
179.987	-75.27
180.207	-2.3
180.426	-11.05
180.645	23.08
180.864	24.61
181.084	-18.38
181.303	-11.74
181.522	4.96
181.741	7.31
181.96	2.34
182.179	8.43
182.398	20.92
182.618	14.96
182.837	18.13
183.056	11.18
183.275	19.31
183.494	34.33
183.713	44.12
183.932	48.77
184.151	38.53
184.37	49.99
184.589	47.17
184.808	40.45
185.027	59.5
185.246	59.24
185.465	66.03
185.684	68.43
185.903	77.86
186.122	54.45
186.341	33.24
186.56	57.63
186.779	48.79
186.998	49.66
187.216	92.11
187.435	77.93
187.654	119.33
187.873	102.91
188.092	141.89
188.311	46.13
188.53	57.84
188.748	-96.11
188.967	-1831.25
189.186	109.77
189.405	43.96
189.623	37.47
189.842	55.91
190.061	31.54
190.28	44.44
190.498	39.89
190.717	40.9
190.936	40.12
191.154	30.08
191.373	29.83
191.592	23.67
191.81	26.56
192.029	31.75
192.248	31.65
192.466	63.94
192.685	58.51
192.904	62.54
193.122	66.81
193.341	85.96
193.559	72.28
193.778	85.28
193.996	122.43
194.215	134.37
194.433	116.08
194.652	113.73
194.87	102.13
195.089	96.32
195.307	89.53
195.526	96.54
195.744	73.33
195.963	93.97
196.181	73.69
196.399	72.61
196.618	57.02
196.836	50.05
197.055	47.27
197.273	56.14
197.491	54.24
197.71	67.9
197.928	58.86
198.146	66.5
198.365	51.09
198.583	61.04
198.801	49.57
199.019	65.18
199.238	90.08
199.456	83.89
199.674	72.57
199.892	69.31
200.111	64.76
200.329	56.34
200.547	28.91
200.765	33.67
200.983	39.04
201.202	42.66
201.42	35.88
201.638	27.15
201.856	46.6
202.074	49.95
202.292	26.28
202.51	31.65
202.728	60.18
202.946	95.66
203.165	95.89
203.383	100.1
203.601	112.02
203.819	87.62
204.037	62.61
204.255	38.05
204.473	20.07
204.691	43.48
204.909	33.34
205.127	7.73
205.345	7.65
205.562	15.01
205.78	17.64
205.998	23.12
206.216	29.92
206.434	47.71
206.652	59.66
206.87	67.91
207.088	79.27
207.306	88.51
207.523	88.21
207.741	91.31
207.959	97.77
208.177	94.93
208.395	95.45
208.612	109.16
208.83	97.34
209.048	84.85
209.266	75.17
209.483	60.84
209.701	48.09
209.919	56.07
210.136	57.5
210.354	45.4
210.572	52.38
210.79	58.83
211.007	51.32
211.225	62.99
211.442	63.21
211.66	76.11
211.878	82.86
212.095	154.55
212.313	145.63
212.53	160.83
212.748	151.31
212.966	133.09
213.183	128.96
213.401	125.97
213.618	118.66
213.836	116.95
214.053	94.02
214.271	97.13
214.488	17.07
214.705	33.58
214.923	26.03
215.14	28.45
215.358	24.1
215.575	4.92
215.793	7.53
216.01	-3.32
216.227	16.25
216.445	25.43
216.662	25.84
216.879	28.58
217.097	27.32
217.314	30.37
217.531	32.65
217.749	32
217.966	41.71
218.183	46.55
218.4	44.68
218.618	40.41
218.835	37.02
219.052	41.76
219.269	39.58
219.487	35.35
219.704	44.77
219.921	40.73
220.138	48.4
220.355	47.05
220.572	46.61
220.79	44.71
221.007	47.2
221.224	43.76
221.441	34.1
221.658	35.88
221.875	35.39
222.092	20.59
222.309	24.15
222.526	16.54
222.743	14.05
222.96	13.88
223.177	18.44
223.394	16.33
223.611	17.57
223.828	21.99
224.045	22.94
224.262	30.4
224.479	31.01
224.696	28.04
224.913	27.92
225.13	26.61
225.347	25.94
225.564	21.69
225.781	19.85
225.997	19.19
226.214	19.39
226.431	17.22
226.648	12.56
226.865	12.16
227.082	11.18
227.298	9.77
227.515	9.16
227.732	9.43
227.949	9.79
228.165	9.56
228.382	8.97
228.599	8.4
228.816	8.52
229.032	8.61
229.249	8.22
229.466	8.68
229.682	10.7
229.899	12.14
230.116	10.6
230.332	10.95
230.549	10.96
230.765	10.74
230.982	9.89
231.199	9.9
231.415	11.36
231.632	12.75
231.848	12.42
232.065	9.79
232.281	9.41
232.498	9.21
232.714	9.53
232.931	10.39
233.147	12.19
233.364	13.26
233.58	12.07
233.797	11.34
234.013	10.48
234.23	11.11
234.446	11.51
234.662	10.72
234.879	12.46
235.095	12.22
235.312	13.1
235.528	13.73
235.744	12.25
235.961	11.77
236.177	12.22
236.393	12.13
236.61	11.24
236.826	13.52
237.042	14.26
237.258	15.42
237.475	16.26
237.691	15.33
237.907	14.24
238.123	15.16
238.339	17.02
238.556	16.62
238.772	16.97
238.988	16.87
239.204	15.22
239.42	14.1
239.636	13.4
239.853	12.7
240.069	11.74
240.285	11.27
240.501	9.9
240.717	8.89
240.933	8.18
241.149	7.4
241.365	7.37
241.581	7.44
241.797	7.72
242.013	7.02
242.229	6.94
242.445	7.43
242.661	7.4
242.877	8.47
243.093	8.66
243.309	8.83
243.525	8.82
243.741	8.5
243.957	8.7
244.173	8.28
244.388	8.7
244.604	8.18
244.82	7.75
245.036	7.27
245.252	7.18
245.468	7.07
245.683	7.39
245.899	7.56
246.115	7.8
246.331	7.42
246.547	7.31
246.762	7.48
246.978	7.95
247.194	8.06
247.409	8.6
247.625	8.98
247.841	9.08
248.057	8.8
248.272	8.6
248.488	8.77
248.703	8.66
248.919	8.42
249.135	6.94
249.35	6.32
249.566	5.71
249.782	5.66
249.997	5.61
250.213	5.66
250.428	5.61
250.644	5.82
250.859	5.27
251.075	5.79
251.29	6.19
251.506	6.48
251.721	6.17
251.937	6.71
252.152	6.3
252.368	6.11
252.583	6.38
252.798	6.97
253.014	7.24
253.229	6.5
253.445	7.18
253.66	7.95
253.875	7.76
254.091	7.97
254.306	7.37
254.521	7.57
254.737	6.87
254.952	5.87
255.167	5.32
255.383	5.6
255.598	5.92
255.813	5.39
256.028	5.47
256.244	5.85
256.459	5.79
256.674	5.61
256.889	5.7
257.104	5.87
257.32	6.29
257.535	6.23
257.75	5.85
257.965	5.84
258.18	6.13
258.395	6.23
258.61	6.02
258.826	6.16
259.041	6.62
259.256	6.83
259.471	6.78
259.686	7.15
259.901	7.18
260.116	7.44
260.331	7.34
260.546	7.01
260.761	6.59
260.976	6.69
261.191	6.71
261.406	6.64
261.621	5.78
261.836	5.28
262.05	4.94
262.265	4.82
262.48	5.24
262.695	5.34
262.91	5.38
263.125	5.32
263.34	5.77
263.555	5.6
263.769	5.29
263.984	5.93
264.199	6.2
264.414	5.4
264.629	6.09
264.843	6.04
265.058	6.1
265.273	5.84
265.488	5.8
265.702	5.54
265.917	6.08
266.132	6.2
266.346	6.12
266.561	6.5
266.776	6.71
266.99	6.32
267.205	5.87
267.42	6.3
267.634	6.59
267.849	7.22
268.063	7.72
268.278	7.52
268.492	7.31
268.707	7.85
268.922	7.58
269.136	7.49
269.351	7.24
269.565	6.7
269.78	6.28
269.994	5.98
270.209	5.66
270.423	5.35
270.637	5.03
270.852	4.8
271.066	4.53
271.281	4.7
271.495	4.83
271.709	5.42
271.924	5.36
272.138	5.69
272.353	5.83
272.567	5.72
272.781	5.29
272.996	5.71
273.21	5.97
273.424	5.86
273.638	5.51
273.853	5.75
274.067	5.55
274.281	6.4
274.495	6.66
274.71	6.73
274.924	6.34
275.138	6.88
275.352	6.06
275.566	5.94
275.781	5.74
275.995	5.87
276.209	5.33
276.423	4.99
276.637	4.87
276.851	3.97
277.065	3.95
277.279	4.41
277.493	4.81
277.707	5.34
277.921	5.11
278.135	4.88
278.349	5.03
278.563	5.31
278.777	5.44
278.991	5.52
279.205	5.81
279.419	5.94
279.633	6.21
279.847	6.05
280.061	5.96
280.275	6.27
280.489	6.34
280.703	6.2
280.917	6.14
281.131	6
281.344	6.27
281.558	6.38
281.772	6.39
281.986	5.82
282.2	5.67
282.414	5.37
282.627	5.47
282.841	5.92
283.055	5.97
283.269	6.01
283.482	5.9
283.696	5.41
283.91	5.59
284.123	5.28
284.337	5.49
284.551	5.43
284.764	5.94
284.978	5.88
285.192	5.45
285.405	5.7
285.619	5.5
285.833	5.84
286.046	5.98
286.26	5.7
286.473	6.07
286.687	6.33
286.9	6.4
287.114	5.98
287.327	6.13
287.541	6.04
287.754	5.78
287.968	6.1
288.181	5.72
288.395	5.54
288.608	5.8
288.822	5.73
289.035	5.46
289.248	5.01
289.462	5.43
289.675	5.27
289.889	5.6
290.102	5.5
290.315	5.36
290.529	5.39
290.742	5.32
290.955	5.31
291.169	5.52
291.382	5.87
291.595	6.44
291.808	6.43
292.022	6.59
292.235	6.14
292.448	6.55
292.661	6.58
292.875	6.8
293.088	7.1
293.301	6.82
293.514	6.36
293.727	6.07
293.94	6.11
294.153	5.63
294.367	5.54
294.58	5.44
294.793	5.18
295.006	5.2
295.219	5.11
295.432	4.88
295.645	4.74
295.858	4.85
296.071	4.8
296.284	4.7
296.497	4.96
296.71	4.92
296.923	5.26
297.136	4.87
297.349	4.74
297.562	4.92
297.775	5.16
297.988	5.65
298.201	5.88
298.414	6.04
298.626	6.03
298.839	5.76
299.052	5.38
299.265	5.57
299.478	6
299.691	6.1
299.903	5.91
300.116	5.83
300.329	5.64
300.542	5.55
300.755	5.49
300.967	5.18
301.18	5.57
301.393	5.89
301.605	5.84
301.818	5.96
302.031	5.94
302.243	5.61
302.456	5.87
302.669	5.29
302.881	5.41
303.094	5.66
303.307	6.02
303.519	5.82
303.732	5.9
303.944	5.54
304.157	5.55
304.37	5.3
304.582	5.87
304.795	5.7
305.007	6.08
305.22	5.42
305.432	5.35
305.645	5.21
305.857	5.35
306.069	5.6
306.282	5.76
306.494	5.58
306.707	6.15
306.919	5.96
307.132	5.85
307.344	5.98
307.556	6.54
307.769	6.54
307.981	6.71
308.193	6.63
308.406	6.22
308.618	6.24
308.83	6.26
309.043	5.94
309.255	5.83
309.467	5.74
309.679	5.77
309.892	5.7
310.104	5.5
310.316	5.73
310.528	5.67
310.74	5.88
310.953	5.91
311.165	5.95
311.377	6.09
311.589	6.42
311.801	6.37
312.013	6.56
312.225	6.61
312.437	6.65
312.649	6.69
312.862	6.53
313.074	6.26
313.286	6.33
313.498	6.3
313.71	6.26
313.922	6.3
314.134	6.26
314.346	6.04
314.558	6.02
314.77	6.66
314.982	6.24
315.193	6.19
315.405	6.34
315.617	5.72
315.829	5.57
316.041	5.27
316.253	5.13
316.465	5.61
316.677	5.18
316.888	4.81
317.1	4.21
317.312	4.2
317.524	4.49
317.736	4.81
317.947	6.18
318.159	6.27
318.371	6.26
318.583	6.41
318.794	5.97
319.006	6.58
319.218	6.53
319.43	6.47
319.641	6.07
319.853	6.39
320.064	6.05
320.276	5.72
320.488	5.9
320.699	6.56
320.911	6.43
321.123	6.54
321.334	6.87
321.546	7.42
321.757	7.22
321.969	7.81
322.18	7.36
322.392	7.32
322.603	7.13
322.815	6.81
323.026	6.43
323.238	6.39
323.449	6.59
323.661	6.1
323.872	5.94
324.083	5.95
324.295	5.57
324.506	5.39
324.718	5.65
324.929	5.48
325.14	6.07
325.352	6.36
325.563	6.43
325.774	6.37
325.986	6.64
326.197	7.17
326.408	7.04
326.62	7.07
326.831	7.72
327.042	7.58
327.253	7.62
327.464	7.48
327.676	7.16
327.887	6.82
328.098	6.59
328.309	6.55
328.52	6.21
328.732	6.78
328.943	6.96
329.154	6.64
329.365	6.71
329.576	6.38
329.787	6.38
329.998	6.38
330.209	6.81
330.42	7.74
330.631	7.5
330.842	7.32
331.053	7.08
331.264	7.39
331.475	7.22
331.686	7.45
331.897	7.7
332.108	7.47
332.319	7.64
332.53	7.14
332.741	6.79
332.952	7.09
333.163	7.05
333.374	7.28
333.585	6.94
333.795	6.8
334.006	6.73
334.217	6.55
334.428	6.54
334.639	6.55
334.849	6.67
335.06	6.16
335.271	6.09
335.482	6.14
335.692	6.07
335.903	5.95
336.114	6.26
336.325	6.49
336.535	7.06
336.746	7.14
336.957	7.14
337.167	7.65
337.378	8.02
337.589	7.95
337.799	7.59
338.01	7.91
338.22	8.08
338.431	8.29
338.642	7.76
338.852	7.44
339.063	7.22
339.273	6.96
339.484	6.62
339.694	6.33
339.905	6.21
340.115	6.58
340.326	6.32
340.536	6.36
340.746	5.86
340.957	5.88
341.167	6
341.378	5.97
341.588	5.78
341.799	5.88
342.009	6.05
342.219	6.15
342.43	6.11
342.64	6.06
342.85	6.05
343.061	6.18
343.271	6.25
343.481	5.59
343.691	5.86
343.902	6.33
344.112	6.1
344.322	6.02
344.532	5.8
344.743	5.59
344.953	5.41
345.163	5.28
345.373	5.39
345.583	5.48
345.793	5.64
346.004	5.52
346.214	4.95
346.424	5.22
346.634	5.55
346.844	6.23
347.054	6.52
347.264	6.74
347.474	6.78
347.684	6.97
347.894	6.68
348.104	7.09
348.314	7.11
348.524	7.14
348.734	6.68
348.944	6.79
349.154	6.29
349.364	5.94
349.574	5.74
349.784	5.56
349.994	5.49
350.204	5.51
350.413	5.46
350.623	5.26
350.833	5.64
351.043	5.89
351.253	5.41
351.463	5.07
351.672	5.36
351.882	5.57
352.092	5.72
352.302	5.48
352.511	5.69
352.721	5.58
352.931	5.94
353.141	6.01
353.35	6.27
353.56	6.19
353.77	6.45
353.979	6.81
354.189	6.52
354.399	6.77
354.608	6.99
354.818	7.07
355.027	7.05
355.237	6.75
355.447	6.54
355.656	6.4
355.866	6.22
356.075	6.06
356.285	5.63
356.494	5.83
356.704	5.71
356.913	5.67
357.123	5.44
357.332	5.43
357.542	5.62
357.751	5.73
357.96	5.56
358.17	5.83
358.379	5.92
358.589	5.96
358.798	5.53
359.007	5.29
359.217	5.22
359.426	5.25
359.635	5.5
359.845	5.37
360.054	5.16
360.263	5.2
360.472	5.19
360.682	5.3
360.891	5.23
361.1	5.51
361.309	5.75
361.519	5.76
361.728	5.86
361.937	5.76
362.146	5.85
362.355	5.99
362.564	6.02
362.774	6.11
362.983	5.93
363.192	6.02
363.401	6.05
363.61	5.86
363.819	5.69
364.028	5.56
364.237	5.26
364.446	5.07
364.655	4.75
364.864	4.76
365.073	4.72
365.282	4.66
365.491	4.45
365.7	4.36
365.909	4.03
366.118	4.06
366.327	3.88
366.536	3.9
366.745	4.23
366.954	4.33
367.162	4.61
367.371	4.53
367.58	4.49
367.789	4.64
367.998	4.66
368.207	4.87
368.415	5.13
368.624	5.15
368.833	5.43
369.042	5.12
369.25	5.34
369.459	5.07
369.668	5.16
369.877	5
370.085	5.05
370.294	5.08
370.503	5.11
370.711	5
370.92	4.94
371.129	4.89
371.337	4.86
371.546	4.48
371.754	4.51
371.963	4.28
372.171	4.54
372.38	4.56
372.589	4.44
372.797	4.35
373.006	4.25
373.214	4.6
373.423	4.34
373.631	4.51
373.84	4.89
374.048	4.59
374.256	4.69
374.465	4.78
374.673	4.63
374.882	4.79
375.09	4.76
375.298	4.82
375.507	4.49
375.715	4.73
375.923	4.76
376.132	4.5
376.34	4.75
376.548	4.5
376.757	4.44
376.965	4.51
377.173	4.42
377.381	4.53
377.59	4.58
377.798	4.77
378.006	4.72
378.214	4.76
378.423	4.79
378.631	4.69
378.839	4.95
379.047	4.87
379.255	4.81
379.463	4.8
379.671	4.6
379.879	4.46
380.088	4.41
380.296	4.06
380.504	3.92
380.712	4.25
380.92	4.14
381.128	4.2
381.336	4.04
381.544	3.83
381.752	3.74
381.96	3.75
382.168	3.77
382.376	3.92
382.584	4.38
382.791	4.31
382.999	4.11
383.207	4.28
383.415	4.02
383.623	4.32
383.831	4.44
384.039	4.51
384.247	4.55
384.454	4.58
384.662	4.31
384.87	3.86
385.078	3.89
385.285	3.93
385.493	3.72
385.701	3.95
385.909	3.65
386.116	3.67
386.324	3.69
386.532	3.79
386.739	3.57
386.947	3.59
387.155	3.64
387.362	3.59
387.57	3.48
387.778	3.4
387.985	3.07
388.193	3.03
388.4	2.85
388.608	2.91
388.816	2.71
389.023	2.96
389.231	2.83
389.438	2.86
389.646	3.05
389.853	3.18
390.061	3.31
390.268	3.5
390.475	3.68
390.683	3.82
390.89	3.62
391.098	3.79
391.305	3.87
391.512	4.15
391.72	4.29
391.927	3.98
392.135	3.76
392.342	3.71
392.549	3.71
392.756	3.5
392.964	3.4
393.171	3.55
393.378	3.56
393.586	3.23
393.793	3.03
394	3
394.207	3.2
394.414	3.4
394.622	3.47
394.829	3.5
395.036	3.63
395.243	3.77
395.45	3.6
395.657	3.43
395.864	3.57
396.072	3.81
396.279	3.76
396.486	3.77
396.693	3.65
396.9	3.67
397.107	3.36
397.314	3.45
397.521	3.31
397.728	3.48
397.935	3.72
398.142	3.75
398.349	3.46
398.556	3.37
398.763	3.35
398.97	3.37
399.177	3.17
399.383	3.21
399.59	2.96
399.797	3.03
400.004	2.82
400.211	2.56
400.418	2.43
400.625	2.48
400.831	2.61
401.038	2.5
401.245	2.52
401.452	2.6
401.658	2.8
401.865	3.02
402.072	3
402.279	3.19
402.485	3.13
402.692	3.21
402.899	3.18
403.105	2.95
403.312	2.97
403.519	2.86
403.725	2.73
403.932	2.72
404.138	2.68
404.345	2.62
404.552	2.62
404.758	2.74
404.965	2.74
405.171	2.77
405.378	2.9
405.584	2.95
405.791	2.92
405.997	3.23
406.204	3.31
406.41	3.39
406.617	3.4
406.823	3.23
407.029	3.17
407.236	3.19
407.442	3.26
407.649	3.38
407.855	3.24
408.061	3.51
408.268	3.28
408.474	3.1
408.68	2.97
408.887	3.09
409.093	3.17
409.299	3.17
409.505	3.24
409.712	3.05
409.918	3.03
410.124	3.01
410.33	2.82
410.537	2.85
410.743	2.91
410.949	2.75
411.155	2.67
411.361	2.44
411.567	2.43
411.773	2.13
411.98	2.35
412.186	2.24
412.392	2.3
412.598	2.3
412.804	2.24
413.01	2.2
413.216	2.31
413.422	2.42
413.628	2.52
413.834	2.48
414.04	2.65
414.246	2.49
414.452	2.48
414.658	2.5
414.864	2.45
415.07	2.51
415.275	2.57
415.481	2.48
415.687	2.45
415.893	2.48
416.099	2.55
416.305	2.6
416.511	2.54
416.716	2.47
416.922	2.49
417.128	2.53
417.334	2.49
417.539	2.35
417.745	2.36
417.951	2.44
418.157	2.44
418.362	2.41
418.568	2.31
418.774	2.36
418.979	2.4
419.185	2.29
419.391	2.19
419.596	2.13
419.802	2.11
420.008	2.06
420.213	1.95
420.419	1.92
420.624	1.87
420.83	1.85
421.035	1.86
421.241	1.86
421.446	1.92
421.652	2.01
421.857	2.03
422.063	2.14
422.268	2.19
422.474	2.18
422.679	2.21
422.885	2.22
423.09	2.12
423.295	2.05
423.501	1.97
423.706	1.97
423.911	1.93
424.117	1.99
424.322	1.92
424.527	1.88
424.733	1.94
424.938	1.91
425.143	1.9
425.349	2.07
425.554	2.04
425.759	2.16
425.964	2.07
426.169	2.13
426.375	2.03
426.58	2.07
426.785	2.04
426.99	1.93
427.195	1.91
427.4	1.95
427.605	1.96
427.811	2
428.016	1.89
428.221	1.99
428.426	1.95
428.631	1.99
428.836	1.97
429.041	2.18
429.246	2.19
429.451	2.15
429.656	2.07
429.861	2.08
430.066	2.24
430.271	2.28
430.476	2.22
430.681	2.2
430.886	2.18
431.09	2.22
431.295	2.04
431.5	2.04
431.705	2.07
431.91	2.11
432.115	2.08
432.32	2.01
432.524	2
432.729	2.1
432.934	2.14
433.139	2.08
433.343	2.12
433.548	2.21
433.753	2.2
433.958	2.06
434.162	2.08
434.367	2.18
434.572	2.15
434.776	2.06
434.981	2.08
435.186	2.04
435.39	2.12
435.595	2.15
435.799	2.03
436.004	2.1
436.209	2.17
436.413	2.05
436.618	1.99
436.822	2.05
437.027	2.11
437.231	1.93
437.436	1.85
437.64	1.79
437.845	1.75
438.049	1.71
438.253	1.62
438.458	1.61
438.662	1.69
438.867	1.68
439.071	1.6
439.275	1.61
439.48	1.7
439.684	1.72
439.888	1.83
440.093	1.77
440.297	1.83
440.501	1.88
440.706	1.96
440.91	1.96
441.114	1.9
441.318	1.88
441.523	1.9
441.727	1.88
441.931	1.97
442.135	1.92
442.339	1.89
442.543	1.89
442.748	1.84
442.952	1.82
443.156	1.81
443.36	1.8
443.564	1.79
443.768	1.79
443.972	1.76
444.176	1.77
444.38	1.79
444.584	1.75
444.788	1.8
444.992	1.82
445.196	1.83
445.4	1.87
445.604	1.89
445.808	1.97
446.012	1.91
446.216	1.88
446.42	1.85
446.624	1.8
446.828	1.91
447.032	1.87
447.235	1.9
447.439	1.91
447.643	1.83
447.847	1.86
448.051	1.8
448.254	1.9
448.458	1.97
448.662	2
448.866	2.05
449.069	2.05
449.273	2.17
449.477	2.15
449.681	2.08
449.884	2.13
450.088	2.04
450.292	2.02
450.495	2.05
450.699	2.01
450.902	1.91
451.106	1.75
451.31	1.7
451.513	1.45
451.717	1.47
451.92	1.48
452.124	1.61
452.327	1.65
452.531	1.67
452.734	1.56
452.938	1.66
453.141	1.76
453.345	1.85
453.548	1.82
453.752	1.86
453.955	1.84
454.158	1.85
454.362	1.63
454.565	1.73
454.769	1.79
454.972	1.87
455.175	1.74
455.379	1.72
455.582	1.8
455.785	1.86
455.988	2.01
456.192	1.98
456.395	1.92
456.598	2.02
456.801	1.89
457.005	1.93
457.208	1.93
457.411	1.96
457.614	1.96
457.817	1.91
458.021	1.9
458.224	1.86
458.427	1.81
458.63	1.89
458.833	1.94
459.036	1.92
459.239	1.83
459.442	1.82
459.645	1.85
459.848	1.81
460.051	1.74
460.254	1.79
460.457	1.76
460.66	1.87
460.863	1.82
461.066	1.79
461.269	1.89
461.472	1.98
461.675	1.91
461.878	1.94
462.081	1.97
462.284	2.04
462.486	1.92
462.689	1.99
462.892	1.94
463.095	1.89
463.298	1.77
463.5	1.88
463.703	1.79
463.906	1.92
464.109	1.89
464.311	1.93
464.514	2.07
464.717	2.19
464.92	2.11
465.122	2.19
465.325	2.2
465.528	2.26
465.73	2.12
465.933	2.09
466.135	2.03
466.338	1.96
466.541	1.89
466.743	1.82
466.946	1.77
467.148	1.82
467.351	1.71
467.553	1.74
467.756	1.78
467.958	1.82
468.161	1.9
468.363	1.91
468.566	1.95
468.768	2.04
468.971	1.92
469.173	1.98
469.375	1.91
469.578	1.87
469.78	1.86
469.983	1.81
470.185	1.79
470.387	1.75
470.59	1.71
470.792	1.71
470.994	1.76
471.196	1.74
471.399	1.78
471.601	1.78
471.803	1.74
472.005	1.8
472.208	1.81
472.41	1.89
472.612	1.94
472.814	1.95
473.016	2.05
473.218	2.01
473.421	2.08
473.623	2.07
473.825	2.15
474.027	2.24
474.229	2.18
474.431	2.21
474.633	2.14
474.835	2.11
475.037	2.16
475.239	1.97
475.441	1.96
475.643	2.02
475.845	1.93
476.047	1.91
476.249	1.86
476.451	1.89
476.653	1.82
476.855	1.8
477.057	1.8
477.258	1.77
477.46	1.89
477.662	1.84
477.864	1.81
478.066	1.77
478.268	1.75
478.469	1.78
478.671	1.78
478.873	1.82
479.075	1.88
479.276	1.87
479.478	1.87
479.68	1.79
479.882	1.8
480.083	1.79
480.285	1.83
480.487	1.84
480.688	1.86
480.89	1.85
481.091	1.81
481.293	1.78
481.495	1.77
481.696	1.77
481.898	1.77
482.099	1.76
482.301	1.76
482.502	1.75
482.704	1.73
482.905	1.72
483.107	1.73
483.308	1.75
483.51	1.73
483.711	1.7
483.913	1.66
484.114	1.69
484.315	1.69
484.517	1.69
484.718	1.68
484.92	1.7
485.121	1.69
485.322	1.66
485.524	1.66
485.725	1.66
485.926	1.67
486.127	1.7
486.329	1.68
486.53	1.67
486.731	1.62
486.932	1.64
487.134	1.62
487.335	1.62
487.536	1.6
487.737	1.6
487.938	1.63
488.139	1.69
488.341	1.69
488.542	1.67
488.743	1.67
488.944	1.71
489.145	1.72
489.346	1.73
489.547	1.77
489.748	1.79
489.949	1.8
490.15	1.74
490.351	1.74
490.552	1.77
490.753	1.79
490.954	1.81
491.155	1.82
491.356	1.8
491.557	1.78
491.758	1.79
491.959	1.78
492.159	1.74
492.36	1.79
492.561	1.76
492.762	1.73
492.963	1.75
493.164	1.71
493.364	1.71
493.565	1.75
493.766	1.81
493.967	1.81
494.167	1.78
494.368	1.81
494.569	1.78
494.769	1.82
494.97	1.85
495.171	1.87
495.371	1.9
495.572	1.94
495.773	1.9
495.973	1.95
496.174	1.89
496.375	1.97
496.575	1.99
496.776	2.05
496.976	2.11
497.177	2.09
497.377	2.11
497.578	2.14
497.778	2.08
497.979	2.14
498.179	2.05
498.38	2.1
498.58	2.15
498.78	2.16
498.981	2.18
499.181	2.09
499.382	2.13
499.582	2.17
499.782	2.18
499.983	2.24
500.183	2.23
500.383	2.33
500.584	2.31
500.784	2.29
500.984	2.32
501.184	2.27
501.385	2.28
501.585	2.28
501.785	2.16
501.985	2.14
502.185	2.17
502.386	2.16
502.586	2.11
502.786	2.2
502.986	2.22
503.186	2.21
503.386	2.28
503.586	2.34
503.786	2.32
503.987	2.35
504.187	2.34
504.387	2.33
504.587	2.39
504.787	2.45
504.987	2.46
505.187	2.5
505.387	2.45
505.587	2.46
505.786	2.47
505.986	2.5
506.186	2.59
506.386	2.63
506.586	2.68
506.786	2.64
506.986	2.63
507.186	2.6
507.386	2.54
507.585	2.54
507.785	2.5
507.985	2.55
508.185	2.56
508.384	2.53
508.584	2.49
508.784	2.5
508.984	2.54
509.183	2.51
509.383	2.5
509.583	2.52
509.782	2.54
509.982	2.61
510.182	2.58
510.381	2.57
510.581	2.52
510.781	2.63
510.98	2.63
511.18	2.62
511.379	2.72
511.579	2.72
511.778	2.75
511.978	2.79
512.177	2.74
512.377	2.78
512.576	2.85
512.776	2.89
512.975	2.87
513.175	2.83
513.374	2.81
513.573	2.69
513.773	2.74
513.972	2.71
514.172	2.76
514.371	2.87
514.57	2.81
514.77	2.8
514.969	2.87
515.168	2.93
515.367	3.02
515.567	3.1
515.766	3.18
515.965	3.22
516.164	3.29
516.364	3.29
516.563	3.22
516.762	3.22
516.961	3.2
517.16	3.19
517.359	3.14
517.559	3.17
517.758	3.11
517.957	3.14
518.156	3.19
518.355	3.24
518.554	3.16
518.753	3.18
518.952	3.2
519.151	3.24
519.35	3.26
519.549	3.3
519.748	3.29
519.947	3.4
520.146	3.37
520.345	3.34
520.544	3.31
520.743	3.46
520.942	3.51
521.141	3.54
521.339	3.58
521.538	3.56
521.737	3.61
521.936	3.66
522.135	3.64
522.333	3.76
522.532	3.74
522.731	3.73
522.93	3.76
523.129	3.8
523.327	3.88
523.526	3.85
523.725	3.94
523.923	3.97
524.122	4
524.321	4.01
524.519	3.92
524.718	3.99
524.917	4.06
525.115	4.05
525.314	4.03
525.512	4.04
525.711	4.07
525.909	4.07
526.108	4.08
526.306	4.09
526.505	4.16
526.703	4.21
526.902	4.19
527.1	4.19
527.299	4.21
527.497	4.28
527.696	4.28
527.894	4.35
528.092	4.38
528.291	4.38
528.489	4.38
528.688	4.38
528.886	4.41
529.084	4.48
529.283	4.51
529.481	4.53
529.679	4.52
529.877	4.56
530.076	4.54
530.274	4.55
530.472	4.57
530.67	4.61
530.869	4.66
531.067	4.69
531.265	4.71
531.463	4.73
531.661	4.79
531.859	4.77
532.057	4.82
532.255	4.85
532.454	4.89
532.652	4.96
532.85	5
533.048	5.01
533.246	5.02
533.444	5.04
533.642	5.09
533.84	5.1
534.038	5.21
534.236	5.24
534.434	5.29
534.632	5.28
534.83	5.35
535.027	5.38
535.225	5.45
535.423	5.48
535.621	5.53
535.819	5.54
536.017	5.57
536.215	5.56
536.412	5.55
536.61	5.54
536.808	5.59
537.006	5.58
537.203	5.65
537.401	5.75
537.599	5.78
537.797	5.81
537.994	5.81
538.192	5.89
538.39	5.98
538.587	6.02
538.785	6.09
538.983	6.11
539.18	6.11
539.378	6.12
539.575	6.08
539.773	6.08
539.97	6.1
540.168	6.15
540.366	6.18
540.563	6.2
540.761	6.26
540.958	6.23
541.155	6.25
541.353	6.29
541.55	6.29
541.748	6.28
541.945	6.37
542.143	6.39
542.34	6.44
542.537	6.46
542.735	6.44
542.932	6.39
543.129	6.47
543.327	6.52
543.524	6.63
543.721	6.7
543.919	6.82
544.116	6.81
544.313	6.97
544.51	6.88
544.708	6.86
544.905	6.85
545.102	6.94
545.299	6.95
545.496	7.04
545.693	6.96
545.891	6.96
546.088	6.96
546.285	7.08
546.482	7.04
546.679	7.21
546.876	7.31
547.073	7.49
547.27	7.56
547.467	7.56
547.664	7.53
547.861	7.61
548.058	7.69
548.255	7.84
548.452	7.79
548.649	7.94
548.846	8
549.043	8.04
549.24	8.11
549.437	8.19
549.633	8.31
549.83	8.37
550.027	8.55
550.224	8.62
550.421	8.6
550.618	8.62
550.814	8.65
551.011	8.64
551.208	8.73
551.405	8.7
551.601	8.74
551.798	8.8
551.995	8.84
552.191	8.83
552.388	8.89
552.585	8.92
552.781	9.04
552.978	8.94
553.175	9.03
553.371	9.07
553.568	9.19
553.764	9.32
553.961	9.51
554.157	9.6
554.354	9.6
554.55	9.62
554.747	9.7
554.943	9.72
555.14	9.93
555.336	9.95
555.533	9.89
555.729	10.03
555.926	9.96
556.122	9.97
556.318	10.15
556.515	10.27
556.711	10.29
556.907	10.42
557.104	10.52
557.3	10.56
557.496	10.67
557.693	10.79
557.889	10.82
558.085	10.99
558.281	11.01
558.478	10.92
558.674	11.01
558.87	11.03
559.066	11.07
559.262	11.14
559.459	11.14
559.655	11.17
559.851	11.27
560.047	11.26
560.243	11.28
560.439	11.37
560.635	11.48
560.831	11.49
561.027	11.56
561.223	11.54
561.419	11.49
561.615	11.55
561.811	11.71
562.007	11.73
562.203	11.8
562.399	11.79
562.595	11.86
562.791	11.94
562.987	12.05
563.183	12.19
563.379	12.35
563.575	12.6
563.771	12.73
563.966	12.79
564.162	12.84
564.358	13.01
564.554	13.12
564.75	13.17
564.945	13.16
565.141	13.29
565.337	13.52
565.533	13.49
565.728	13.51
565.924	13.54
566.12	13.56
566.315	13.63
566.511	13.62
566.707	13.67
566.902	13.78
567.098	13.98
567.293	13.95
567.489	13.97
567.684	14.05
567.88	14.11
568.076	14.17
568.271	14.33
568.467	14.47
568.662	14.59
568.858	14.78
569.053	14.73
569.248	14.77
569.444	14.76
569.639	14.79
569.835	14.87
570.03	14.91
570.225	14.95
570.421	15.11
570.616	15.17
570.812	15.25
571.007	15.27
571.202	15.36
571.397	15.45
571.593	15.58
571.788	15.66
571.983	15.84
572.178	15.9
572.374	16.03
572.569	15.96
572.764	15.98
572.959	15.94
573.154	15.9
573.35	16
573.545	16.02
573.74	16.08
573.935	16.07
574.13	16.08
574.325	16.09
574.52	16.2
574.715	16.37
574.91	16.41
575.105	16.6
575.3	16.76
575.495	16.84
575.69	16.98
575.885	17.08
576.08	17.23
576.275	17.29
576.47	17.3
576.665	17.2
576.86	17.19
577.055	17.38
577.25	17.38
577.444	17.33
577.639	17.46
577.834	17.42
578.029	17.43
578.224	17.38
578.418	17.5
578.613	17.77
578.808	17.93
579.003	17.79
579.197	17.76
579.392	17.77
579.587	18.02
579.781	17.96
579.976	18.01
580.171	18.03
580.365	18.11
580.56	18.1
580.755	18.17
580.949	18.21
581.144	18.43
581.338	18.56
581.533	18.6
581.727	18.46
581.922	18.52
582.116	18.73
582.311	18.87
582.505	18.93
582.7	18.95
582.894	18.92
583.089	19.06
583.283	19.04
583.478	19.02
583.672	19.17
583.866	19.37
584.061	19.36
584.255	19.25
584.449	19.38
584.644	19.51
584.838	19.61
585.032	19.53
585.226	19.47
585.421	19.55
585.615	19.69
585.809	19.6
586.003	19.61
586.198	19.74
586.392	19.82
586.586	19.67
586.78	19.66
586.974	19.72
587.168	19.88
587.363	19.88
587.557	19.92
587.751	19.8
587.945	19.88
588.139	19.86
588.333	19.88
588.527	20.02
588.721	20.05
588.915	20.06
589.109	20
589.303	19.93
589.497	20.02
589.691	19.98
589.885	20.1
590.079	20.18
590.273	20.13
590.466	20.08
590.66	19.94
590.854	19.97
591.048	20
591.242	20.05
591.436	20.05
591.629	20.17
591.823	20.25
592.017	20.4
592.211	20.52
592.404	20.64
592.598	20.65
592.792	20.72
592.986	20.86
593.179	20.92
593.373	20.98
593.567	21.03
593.76	20.88
593.954	21.03
594.147	20.98
594.341	21.04
594.535	21.16
594.728	21.28
594.922	21.36
595.115	21.3
595.309	21.28
595.502	21.31
595.696	21.38
595.889	21.54
596.083	21.42
596.276	21.45
596.47	21.49
596.663	21.45
596.856	21.48
597.05	21.58
597.243	21.71
597.437	21.67
597.63	21.63
597.823	21.73
598.017	21.71
598.21	21.91
598.403	22.06
598.596	21.91
598.79	21.95
598.983	21.87
599.176	21.69
599.369	21.61
599.563	21.78
599.756	21.84
599.949	21.89
600.142	21.99
600.335	21.88
600.528	21.75
600.722	21.9
600.915	21.94
601.108	22.02
601.301	22.16
601.494	22.2
601.687	22.17
601.88	22.14
602.073	22.07
602.266	21.95
602.459	22.08
602.652	22.1
602.845	22.06
603.038	22.1
603.231	22.26
603.424	22.32
603.617	22.36
603.809	22.4
604.002	22.43
604.195	22.54
604.388	22.67
604.581	22.65
604.774	22.77
604.966	22.78
605.159	22.67
605.352	22.66
605.545	22.69
605.737	22.64
605.93	22.7
606.123	22.82
606.316	22.95
606.508	22.91
606.701	23.03
606.894	22.77
607.086	22.85
607.279	22.83
607.471	22.69
607.664	22.68
607.857	22.83
608.049	22.85
608.242	22.83
608.434	22.75
608.627	22.82
608.819	22.67
609.012	22.84
609.204	22.88
609.397	23.05
609.589	23.21
609.782	23.11
609.974	23.09
610.166	23.12
610.359	23.23
610.551	23.12
610.743	23.13
610.936	23.23
611.128	23.36
611.32	23.27
611.513	23.18
611.705	23.26
611.897	23.33
612.09	23.38
612.282	23.48
612.474	23.3
612.666	23.59
612.858	23.61
613.051	23.87
613.243	23.73
613.435	23.77
613.627	23.96
613.819	23.84
614.011	24.14
614.203	24.2
614.395	24.12
614.588	24.16
614.78	23.99
614.972	23.96
615.164	23.62
615.356	23.59
615.548	23.7
615.74	23.67
615.932	23.61
616.124	23.42
616.315	23.45
616.507	23.5
616.699	23.76
616.891	23.96
617.083	24.12
617.275	24.32
617.467	24.38
617.659	24.26
617.85	24.37
618.042	24.55
618.234	24.49
618.426	24.49
618.618	24.66
618.809	24.56
619.001	24.39
619.193	24.34
619.384	24.39
619.576	24.44
619.768	24.62
619.959	24.3
620.151	24.37
620.343	24.53
620.534	24.63
620.726	24.52
620.917	24.54
621.109	24.5
621.301	24.56
621.492	24.44
621.684	24.45
621.875	24.41
622.067	24.71
622.258	24.68
622.45	24.74
622.641	24.59
622.832	24.75
623.024	24.8
623.215	24.87
623.407	24.79
623.598	24.8
623.789	24.76
623.981	24.84
624.172	24.99
624.363	24.9
624.555	24.82
624.746	24.66
624.937	24.46
625.129	24.57
625.32	24.61
625.511	24.61
625.702	24.74
625.893	24.81
626.085	24.79
626.276	24.67
626.467	24.86
626.658	24.91
626.849	25.07
627.04	25.06
627.231	24.99
627.422	24.99
627.614	25.14
627.805	25.13
627.996	25.06
628.187	25.1
628.378	25.15
628.569	25.07
628.76	25.1
628.951	25.25
629.142	25.35
629.332	25.22
629.523	25.32
629.714	25.28
629.905	25.41
630.096	25.6
630.287	25.72
630.478	25.58
630.669	25.49
630.859	25.47
631.05	25.52
631.241	25.46
631.432	25.36
631.623	25.38
631.813	25.42
632.004	25.17
632.195	25.12
632.385	25.05
632.576	25.06
632.767	25.17
632.957	25.35
633.148	25.27
633.339	25.44
633.529	25.71
633.72	25.7
633.91	25.69
634.101	25.69
634.292	25.74
634.482	25.82
634.673	25.93
634.863	26.11
635.054	25.97
635.244	25.99
635.435	26.03
635.625	26.03
635.815	26.08
636.006	26.34
636.196	26.57
636.387	26.78
636.577	26.75
636.767	26.9
636.958	26.75
637.148	26.76
637.338	26.71
637.529	26.59
637.719	26.68
637.909	26.63
638.099	26.26
638.29	26.29
638.48	26.15
638.67	26.17
638.86	26.14
639.05	26.04
639.241	25.96
639.431	25.84
639.621	25.96
639.811	26.03
640.001	26.16
640.191	26.11
640.381	25.98
640.571	25.97
640.761	25.91
640.951	25.76
641.141	26.02
641.331	25.97
641.521	26.08
641.711	26.13
641.901	26.08
642.091	26.03
642.281	26.17
642.471	26.3
642.661	26.34
642.851	26.6
643.041	26.71
643.231	26.56
643.42	26.82
643.61	27.06
643.8	27.13
643.99	27.22
644.18	27.05
644.369	27.22
644.559	27.31
644.749	27.73
644.939	27.28
645.128	27.39
645.318	27.3
645.508	27.11
645.697	27.19
645.887	27.06
646.076	26.87
646.266	26.96
646.456	26.83
646.645	26.81
646.835	26.25
647.024	26.46
647.214	26.37
647.403	26.53
647.593	26.61
647.782	26.44
647.972	26.57
648.161	26.78
648.351	26.88
648.54	26.81
648.73	26.91
648.919	27.14
649.108	27.35
649.298	27.56
649.487	27.46
649.677	27.63
649.866	27.84
650.055	27.88
650.244	27.73
650.434	27.89
650.623	28.16
650.812	28.04
651.002	27.9
651.191	27.77
651.38	27.78
651.569	27.84
651.758	27.57
651.947	27.68
652.137	27.6
652.326	27.9
652.515	27.86
652.704	27.7
652.893	27.64
653.082	27.66
653.271	27.7
653.46	27.57
653.649	27.67
653.838	27.98
654.027	27.82
654.216	27.81
654.405	27.69
654.594	27.65
654.783	27.74
654.972	27.81
655.161	27.96
655.35	28
655.539	28.16
655.728	28.18
655.916	28.08
656.105	27.99
656.294	28.21
656.483	28.2
656.672	28.16
656.86	28.11
657.049	28.08
657.238	28.04
657.427	28.04
657.615	27.94
657.804	28.08
657.993	28.01
658.181	28.17
658.37	28.1
658.559	28.07
658.747	28.04
658.936	28.25
659.125	28.34
659.313	28.52
659.502	28.64
659.69	28.55
659.879	28.51
660.067	28.47
660.256	28.45
660.444	28.45
660.633	28.8
660.821	28.99
661.01	28.85
661.198	28.77
661.387	28.69
661.575	28.55
661.763	28.94
661.952	29.03
662.14	29.22
662.328	29.15
662.517	29.22
662.705	28.75
662.893	28.61
663.082	28.79
663.27	28.85
663.458	28.79
663.646	28.85
663.834	28.62
664.023	28.43
664.211	28.56
664.399	28.46
664.587	28.24
664.775	28.18
664.963	28.57
665.152	28.55
665.34	28.65
665.528	28.72
665.716	28.69
665.904	28.77
666.092	28.93
666.28	28.71
666.468	29.14
666.656	29.29
666.844	29.77
667.032	29.47
667.22	29.59
667.408	29.74
667.596	29.99
667.784	29.89
667.971	29.92
668.159	29.79
668.347	29.93
668.535	29.54
668.723	29.57
668.911	29.31
669.098	29.53
669.286	29.48
669.474	29.13
669.662	29.2
669.849	29.51
670.037	29.42
670.225	29.5
670.413	29.53
670.6	29.67
670.788	29.78
670.976	30.06
671.163	29.89
671.351	29.8
671.538	30.09
671.726	29.96
671.913	29.71
672.101	29.82
672.289	29.94
672.476	29.88
672.664	30.03
672.851	29.9
673.039	29.86
673.226	30.06
673.413	30.07
673.601	29.89
673.788	29.74
673.976	29.84
674.163	29.59
674.35	29.66
674.538	29.8
674.725	29.7
674.912	29.64
675.1	29.41
675.287	29.22
675.474	29.12
675.662	29.5
675.849	29.77
676.036	30
676.223	30.13
676.411	29.86
676.598	29.76
676.785	29.81
676.972	29.91
677.159	30
677.346	29.73
677.533	29.95
677.721	29.75
677.908	29.68
678.095	29.57
678.282	29.77
678.469	29.96
678.656	29.87
678.843	29.98
679.03	29.97
679.217	29.99
679.404	30.38
679.591	30.23
679.778	30.1
679.964	30.08
680.151	29.89
680.338	29.77
680.525	29.77
680.712	30.03
680.899	30.22
681.086	30.24
681.272	30.51
681.459	30.38
681.646	30.49
681.833	30.56
682.02	30.43
682.206	30.54
682.393	30.68
682.58	30.51
682.766	30.75
682.953	30.5
683.14	30.75
683.326	30.75
683.513	30.97
683.7	31.18
683.886	31.12
684.073	31.26
684.259	31.45
684.446	31.7
684.632	31.93
684.819	31.55
685.005	31.23
685.192	31.27
685.378	31.11
685.565	30.78
685.751	30.24
685.938	30.45
686.124	30.32
686.31	30.41
686.497	29.95
686.683	30.1
686.87	30.41
687.056	30.58
687.242	30.59
687.429	30.41
687.615	30.59
687.801	30.95
687.987	30.72
688.174	30.8
688.36	30.91
688.546	30.94
688.732	30.48
688.918	30.39
689.105	30.53
689.291	30.48
689.477	30.69
689.663	31.04
689.849	30.84
690.035	31.07
690.221	31.3
690.407	31.27
690.593	31.5
690.779	31.65
690.965	31.54
691.151	31.49
691.337	31.37
691.523	31.27
691.709	30.83
691.895	31.37
692.081	31.24
692.267	31.09
692.453	30.76
692.639	30.83
692.825	30.94
693.011	30.85
693.196	31.14
693.382	31.09
693.568	31.17
693.754	31.82
693.94	31.06
694.125	31.21
694.311	31.26
694.497	31.1
694.682	31.2
694.868	31.55
695.054	31.52
695.239	31.63
695.425	31.64
695.611	31.48
695.796	30.76
695.982	31.06
696.168	31.06
696.353	31.19
696.539	31.54
696.724	31.38
696.91	31.08
697.095	31.25
697.281	30.91
697.466	31.05
697.652	31.1
697.837	31.23
698.023	31.1
698.208	31.02
698.393	31.02
698.579	31.01
698.764	31.17
698.949	31.27
699.135	31.19
699.32	31.15
699.505	31.07
699.691	30.96
699.876	30.89
700.061	31.29
700.246	31.49
700.432	31.12
700.617	31.25
700.802	30.92
700.987	30.9
701.172	31.08
701.358	31.53
701.543	31.89
701.728	32.1
701.913	32.5
702.098	32.53
702.283	32.72
702.468	33.02
702.653	32.66
702.838	32.78
703.023	32.74
703.208	32.54
703.393	32.2
703.578	31.74
703.763	31.9
703.948	31.93
704.133	32.23
704.318	31.67
704.503	32.08
704.688	32.58
704.873	32.75
705.057	32.84
705.242	32.83
705.427	33.18
705.612	33.43
705.797	33.48
705.981	33.21
706.166	33.02
706.351	33.34
706.536	32.53
706.72	31.99
706.905	31.96
707.09	31.69
707.274	31.72
707.459	31.83
707.644	31.69
707.828	31.98
708.013	31.69
708.197	31.49
708.382	31.57
708.567	31.82
708.751	32.04
708.936	31.71
709.12	32.21
709.305	32.27
709.489	31.95
709.673	31.77
709.858	31.42
710.042	31.79
710.227	31.69
710.411	31.54
710.596	31.62
710.78	31.62
710.964	31.86
711.149	31.86
711.333	32.13
711.517	32.25
711.702	32.5
711.886	32.64
712.07	32.76
712.254	32.53
712.438	32.51
712.623	32.69
712.807	32.5
712.991	32.73
713.175	32.41
713.359	32.39
713.544	31.99
713.728	32.09
713.912	31.76
714.096	31.65
714.28	31.7
714.464	32.14
714.648	32.08
714.832	32.45
715.016	32.48
715.2	32.46
715.384	32.47
715.568	32.95
715.752	32.59
715.936	33.21
716.12	33.19
716.304	33.74
716.488	33.22
716.671	33.19
716.855	33.21
717.039	33.12
717.223	33.53
717.407	33.27
717.59	33.04
717.774	33.28
717.958	32.67
718.142	32.49
718.325	32.32
718.509	32.4
718.693	32.49
718.877	32.04
719.06	31.5
719.244	31.52
719.428	31.39
719.611	31.19
719.795	31.63
719.978	32.11
720.162	32.27
720.345	32.19
720.529	32.35
720.713	32.43
720.896	32.51
721.08	33.26
721.263	32.79
721.446	32.78
721.63	33.18
721.813	32.51
721.997	32.1
722.18	31.85
722.364	31.92
722.547	31.7
722.73	31.33
722.914	31.33
723.097	31.15
723.28	31.35
723.464	31.11
723.647	31.26
723.83	31
724.013	30.96
724.197	31.64
724.38	31.73
724.563	31.84
724.746	31.79
724.929	32
725.112	32.06
725.296	31.58
725.479	32.14
725.662	31.57
725.845	32.13
726.028	32.39
726.211	31.98
726.394	31.88
726.577	32.15
726.76	32.52
726.943	32.53
727.126	32.74
727.309	32.96
727.492	33
727.675	33.4
727.858	33.33
728.041	33.44
728.224	33.51
728.407	33.52
728.589	33.36
728.772	33.3
728.955	33.44
729.138	33.33
729.321	33.6
729.503	33.6
729.686	33.35
729.869	33.01
730.052	32.69
730.234	33
730.417	32.84
730.6	33.1
730.782	33.49
730.965	33.33
731.148	33.05
731.33	33.01
731.513	33.06
731.695	33.22
731.878	33.81
732.061	33.94
732.243	34.03
732.426	34.06
732.608	33.96
732.791	33.81
732.973	33.93
733.156	33.92
733.338	33.85
733.52	33.72
733.703	33.92
733.885	33.75
734.068	33.81
734.25	34.26
734.432	34.21
734.615	33.95
734.797	33.67
734.979	33.61
735.162	33.79
735.344	33.77
735.526	33.53
735.708	33.77
735.891	34.31
736.073	34.5
736.255	33.84
736.437	34
736.619	34.17
736.802	34.24
736.984	34.65
737.166	34.59
737.348	34.97
737.53	35.04
737.712	34.59
737.894	34.36
738.076	34.24
738.258	34.23
738.44	34.28
738.622	34.39
738.804	34.33
738.986	33.81
739.168	33.49
739.35	33.49
739.532	33.56
739.714	34.19
739.896	33.5
740.078	33.52
740.259	32.85
740.441	33.45
740.623	33.51
740.805	33.14
740.987	32.93
741.168	32.89
741.35	32.54
741.532	33.16
741.714	32.29
741.895	32.78
742.077	32.77
742.259	32.92
742.44	32.28
742.622	32.44
742.804	33.07
742.985	33.85
743.167	34.34
743.348	34.48
743.53	33.66
743.711	34.39
743.893	34.29
744.075	34.13
744.256	34.48
744.438	34.49
744.619	33.8
744.8	33.75
744.982	33.06
745.163	33.08
745.345	32.97
745.526	33.52
745.707	33.26
745.889	32.67
746.07	32.23
746.252	32.56
746.433	33.13
746.614	33.2
746.795	33.46
746.977	33.26
747.158	33.45
747.339	34.33
747.52	34.47
747.702	34.28
747.883	34.41
748.064	34.38
748.245	34.45
748.426	33.83
748.607	34.01
748.788	33.49
748.97	34.23
749.151	33.96
749.332	33.45
749.513	33.27
749.694	33.25
749.875	34.12
750.056	35.03
750.237	34.22
750.418	34.16
750.599	34
750.78	33.47
750.96	33.29
751.141	33.86
751.322	33.27
751.503	32.94
751.684	33.44
751.865	32.53
752.046	32.41
752.226	33.31
752.407	32.7
752.588	33.3
752.769	34.76
752.949	34.63
753.13	34.08
753.311	34.43
753.492	34.33
753.672	33.77
753.853	34.49
754.034	34.14
754.214	33.88
754.395	34.7
754.575	34.78
754.756	34.28
754.937	34.38
755.117	34.52
755.298	34.24
755.478	34.57
755.659	34.05
755.839	32.84
756.02	33.19
756.2	33.07
756.381	32.82
756.561	32.67
756.741	32.25
756.922	32.02
757.102	31.86
757.283	31.4
757.463	31.41
757.643	32.57
757.823	33.98
758.004	33.74
758.184	33.12
758.364	33.82
758.545	33.19
758.725	33.26
758.905	34.1
759.085	34.46
759.265	34.43
759.446	34.47
759.626	34.43
759.806	33.55
759.986	33.46
760.166	34.07
760.346	32.98
760.526	33.38
760.706	33.21
760.886	32.5
761.066	32.84
761.246	33.89
761.426	33.74
761.606	33.41
761.786	34.09
761.966	33.93
762.146	33.94
762.326	35
762.506	35.02
762.686	35.19
762.866	34.97
763.046	34.68
763.225	34.37
763.405	34.31
763.585	34.19
763.765	34.02
763.945	34.25
764.124	34.39
764.304	34.02
764.484	34.57
764.664	34.65
764.843	35.1
765.023	35.27
765.203	34.96
765.382	35.25
765.562	35.31
765.741	35.89
765.921	35.94
766.101	36.32
766.28	36.13
766.46	35.37
766.639	35.22
766.819	35.42
766.998	34.86
767.178	35.22
767.357	35.55
767.537	35.28
767.716	34.58
767.896	34.76
768.075	33.99
768.254	33.58
768.434	34.16
768.613	34.05
768.792	33.22
768.972	33.6
769.151	33.33
769.33	32.3
769.51	32.86
769.689	33.07
769.868	32.92
770.047	32.86
770.226	33.59
770.406	33.6
770.585	34.19
770.764	34.62
770.943	34.23
771.122	34.13
771.301	34.84
771.48	35.23
771.66	34.57
771.839	34.56
772.018	34.91
772.197	34.27
772.376	34.14
772.555	33.62
772.734	33.49
772.913	33.34
773.092	33.03
773.271	33.37
773.449	33.52
773.628	33.85
773.807	34.04
773.986	33.84
774.165	34.85
774.344	34.79
774.523	35.28
774.701	35
774.88	35.57
775.059	36.25
775.238	36.17
775.417	36.07
775.595	36.41
775.774	35.74
775.953	35.49
776.131	34.49
776.31	34.19
776.489	32.84
776.667	33.38
776.846	33.27
777.025	34.05
777.203	33.47
777.382	33.33
777.56	33.06
777.739	33.05
777.917	33.89
778.096	34.71
778.274	34.58
778.453	35.98
778.631	36.27
778.81	36.05
778.988	35.51
779.166	35.22
779.345	35.95
779.523	35.96
779.702	36.36
779.88	36.3
780.058	36.07
780.237	36.62
780.415	35.91
780.593	35.3
780.771	35.62
780.95	36.51
781.128	37.31
781.306	36.48
781.484	37.08
781.662	36.44
781.841	36.13
782.019	36.01
782.197	35.48
782.375	35.54
782.553	36.24
782.731	36.5
782.909	35.39
783.087	35.71
783.265	36.22
783.443	36.01
783.621	36.23
783.799	36.34
783.977	36.32
784.155	36.39
784.333	36.38
784.511	35.97
784.689	35.78
784.867	35.96
785.045	35.04
785.223	35.13
785.4	35.1
785.578	36.28
785.756	36.7
785.934	36.44
786.112	37.02
786.289	37.56
786.467	37.46
786.645	37.33
786.823	37.46
787	37.92
787.178	36.84
787.356	36.11
787.533	35.49
787.711	35.77
787.889	36.59
788.066	35.72
788.244	35.85
788.421	37.07
788.599	37.15
788.776	36.44
788.954	36.49
789.131	36.79
789.309	37.01
789.486	36.15
789.664	35.93
789.841	35.46
790.019	35.15
790.196	35.09
790.373	34.39
790.551	34.9
790.728	35.36
790.906	35.21
791.083	34.69
791.26	35.22
791.437	37.15
791.615	36.36
791.792	36.4
791.969	36.8
792.146	36.74
792.324	36.96
792.501	36.46
792.678	36.11
792.855	36.23
793.032	37
793.209	36.95
793.387	36.25
793.564	36.78
793.741	35.96
793.918	36.29
794.095	35.43
794.272	34.29
794.449	33.47
794.626	34.98
794.803	34.79
794.98	34.39
795.157	34.05
795.334	34.37
795.511	33.3
795.688	34.65
795.864	34.25
796.041	36.1
796.218	36.59
796.395	37.13
796.572	36.28
796.749	37.49
796.925	37.11
797.102	37.23
797.279	36.78
797.456	37.23
797.632	36.04
797.809	36.61
797.986	36.46
798.162	36.45
798.339	37.49
798.516	37.43
798.692	35.5
798.869	36.85
799.046	36.91
799.222	37.1
799.399	37.38
799.575	38.79
799.752	37.64
799.928	36.56
800.105	36.37
800.281	35.96
800.458	36.13
800.634	36.96
800.811	36.12
800.987	34.82
801.163	34.86
801.34	35.99
801.516	34.79
801.692	36.33
801.869	36.15
802.045	36.21
802.221	35.86
802.398	35.5
802.574	35.14
802.75	34.95
802.926	35.63
803.103	35.66
803.279	33.47
803.455	32.67
803.631	32.78
803.807	32.83
803.983	33.35
804.16	32.6
804.336	32.41
804.512	31.51
804.688	32.28
804.864	33.19
805.04	32.52
805.216	33.38
805.392	34.21
805.568	33.74
805.744	35.08
805.92	34.58
806.096	35.58
806.272	36.18
806.448	38.55
806.623	37.5
806.799	38.26
806.975	37.96
807.151	37.74
807.327	36.78
807.503	35.92
807.678	34.76
807.854	34.35
808.03	33.56
808.206	33.51
808.381	31.97
808.557	31.34
808.733	29.91
808.908	30.52
809.084	31.65
809.26	33.07
809.435	34.27
809.611	34.34
809.787	34.28
809.962	34.36
810.138	34.09
810.313	33.87
810.489	36.29
810.664	35.83
810.84	33.97
811.015	32.95
811.191	33.94
811.366	33.08
811.542	32.8
811.717	33.27
811.892	33.5
812.068	33.73
812.243	33.81
812.419	32.28
812.594	32.35
812.769	34.07
812.944	35
813.12	33.46
813.295	33.35
813.47	33.83
813.645	34.2
813.821	34.29
813.996	34.7
814.171	35.98
814.346	36.22
814.521	36.58
814.697	38.28
814.872	37.35
815.047	37.76
815.222	39.74
815.397	39.49
815.572	39.14
815.747	39.02
815.922	38
816.097	37.42
816.272	37.71
816.447	38.07
816.622	37.36
816.797	37
816.972	37.28
817.147	34.96
817.322	34.62
817.496	34.64
817.671	35.12
817.846	34
818.021	34.11
818.196	33.59
818.371	33.72
818.545	32.69
818.72	33.17
818.895	32.96
819.069	33.67
819.244	33.91
819.419	34.13
819.594	32.96
819.768	34.04
819.943	33.64
820.117	34.77
820.292	34.59
820.467	34.92
820.641	34.63
820.816	34.05
820.99	33.78
821.165	33.8
821.339	33.9
821.514	34.3
821.688	34.32
821.863	34.17
822.037	33.71
822.212	33.99
822.386	33.86
822.56	34.18
822.735	34.28
822.909	34.53
823.084	34.66
823.258	34.53
823.432	34.66
823.606	34.6
823.781	34.84
823.955	34.99
824.129	34.84
824.303	35.2
824.478	35.22
824.652	35.42
824.826	35.65
825	35.25
825.174	35.08
825.348	34.53
825.523	34.99
825.697	34.92
825.871	34.75
826.045	34.44
826.219	33.85
826.393	33.83
826.567	33.86
826.741	33.71
826.915	33.61
827.089	33.85
827.263	34.38
827.437	33.57
827.611	33.76
827.784	33.91
827.958	34.38
828.132	34.57
828.306	34.35
828.48	34.23
828.654	34.43
828.827	35.42
829.001	35.59
829.175	35.47
829.349	36.37
829.522	36.48
829.696	37.25
829.87	36.87
830.044	37.22
830.217	37.42
830.391	37.88
830.565	37.27
830.738	36.54
830.912	36.3
831.085	35.61
831.259	35.38
831.432	34.36
831.606	32.99
831.779	32.07
831.953	32.61
832.126	31.52
832.3	32.23
832.473	33.26
832.647	33.24
832.82	33.5
832.994	33.62
833.167	34.35
833.34	34.47
833.514	35.16
833.687	35.3
833.86	35.2
834.034	35.64
834.207	34.99
834.38	33.87
834.553	33.97
834.727	33.94
834.9	34.32
835.073	33.18
835.246	34.31
835.419	34.33
835.593	35.1
835.766	34.95
835.939	35.57
836.112	36.19
836.285	37.32
836.458	38.72
836.631	38.7
836.804	39.42
836.977	40.52
837.15	40.74
837.323	39.49
837.496	40.23
837.669	40.55
837.842	39.9
838.015	39.78
838.188	39.74
838.361	36.25
838.533	35.09
838.706	33.73
838.879	32.42
839.052	30.31
839.225	31.32
839.398	30.71
839.57	30.33
839.743	31.76
839.916	31.02
840.088	30.95
840.261	34.14
840.434	36.41
840.607	35.67
840.779	37.19
840.952	37.59
841.124	35.87
841.297	35.24
841.47	36.3
841.642	34.67
841.815	36.84
841.987	36.86
842.16	35.31
842.332	34.68
842.505	35.95
842.677	33.99
842.85	33.68
843.022	37.14
843.194	39.05
843.367	39.03
843.539	38.88
843.712	38.16
843.884	37.46
844.056	40.07
844.229	40.04
844.401	39.95
844.573	40.83
844.745	39.46
844.918	39.33
845.09	37.08
845.262	38.57
845.434	39.3
845.606	38.7
845.779	36.78
845.951	35.41
846.123	33.64
846.295	35.15
846.467	36.53
846.639	38.25
846.811	38.36
846.983	41.1
847.155	39.12
847.327	40.16
847.499	38.57
847.671	42.59
847.843	37.96
848.015	38.93
848.187	37.27
848.359	36.57
848.531	36.76
848.703	34.72
848.875	31.92
849.047	31.33
849.218	31.66
849.39	32.82
849.562	29.25
849.734	30.97
849.905	30.47
850.077	28.27
850.249	23.38
850.421	24.63
850.592	24.58
850.764	25.48
850.936	23.43
851.107	23.18
851.279	20.29
851.451	26.49
851.622	26.34
851.794	24.23
851.965	29.22
852.137	36.28
852.308	33.97
852.48	38.01
852.651	38.36
852.823	44.18
852.994	39.91
853.166	41.2
853.337	37.72
853.509	40.2
853.68	46.74
853.851	44.74
854.023	44.22
854.194	42.67
854.365	40.25
854.537	40.06
854.708	38.22
854.879	43.6
855.05	47.5
855.222	51.3
855.393	52.53
855.564	50.01
855.735	50.92
855.906	50.35
856.078	51.6
856.249	51.99
856.42	52.93
856.591	52.88
856.762	51.66
856.933	46.18
857.104	43.33
857.275	44.33
857.446	42.59
857.617	42.43
857.788	44.04
857.959	47.52
858.13	45.55
858.301	42.09
858.472	37.36
858.643	38.36
858.814	42.02
858.985	41.85
859.155	39.71
859.326	39.9
859.497	38.91
859.668	40.18
859.839	39.12
860.009	40.8
860.18	46.26
860.351	52.63
860.522	50.01
860.692	46.36
860.863	45.62
861.034	45.99
861.204	46.88
861.375	48.61
861.546	45.1
861.716	43.44
861.887	44.41
862.057	40.57
862.228	37.86
862.398	36.62
862.569	39.76
862.739	43.69
862.91	43.25
863.08	43.12
863.251	40.87
863.421	40.42
863.592	41.83
863.762	39.83
863.932	41.63
864.103	40.61
864.273	45.55
864.443	43.09
864.614	42.81
864.784	43.03
864.954	41.04
865.125	44.78
865.295	45.48
865.465	47.19
865.635	45.45
865.805	48.77
865.976	47.58
866.146	45.35
866.316	48.55
866.486	49.66
866.656	51.8
866.826	49.58
866.996	46.54
867.166	48.55
867.336	46.39
867.506	46.41
867.676	40.49
867.846	44.45
868.016	45.34
868.186	42.63
868.356	37.53
868.526	35.54
868.696	38.04
868.866	42.52
869.036	38.58
869.206	40.01
869.376	44.6
869.545	43.67
869.715	42.7
869.885	38.1
870.055	42.24
870.224	42.01
870.394	42.12
870.564	47.94
870.734	42.45
870.903	43.04
871.073	41.3
871.243	38.27
871.412	39.16
871.582	37.63
871.751	37.6
871.921	34.95
872.091	36.44
872.26	31.9
872.43	27.35
872.599	27.04
872.769	30.2
872.938	31.37
873.108	34.84
873.277	36.24
873.446	37.26
873.616	37.92
873.785	41.75
873.955	39.13
874.124	44.28
874.293	49.4
874.463	49.21
874.632	47.86
874.801	47.91
874.971	45.46
875.14	47.67
875.309	49.36
875.478	50.03
875.647	45.67
875.817	44.98
875.986	43.48
876.155	39.28
876.324	42.28
876.493	42.23
876.662	40.29
876.831	38.7
877	35.87
877.17	33.53
877.339	33.05
877.508	36.48
877.677	40.95
877.846	38.73
878.015	40.4
878.184	37.3
878.352	37.5
878.521	36.55
878.69	35.76
878.859	36.29
879.028	39.26
879.197	39.01
879.366	34.34
879.534	32.08
879.703	35.09
879.872	33.92
880.041	33.52
880.21	32.55
880.378	33.98
880.547	32.99
880.716	33.55
880.884	32.85
881.053	32.82
881.222	34.05
881.39	35
881.559	34.56
881.727	34.29
881.896	34.62
882.065	34.81
882.233	34.18
882.402	34.87
882.57	34.7
882.739	34.21
882.907	34.24
883.076	34.43
883.244	34.59
883.412	34.73
883.581	35.5
883.749	35.69
883.918	35.53
884.086	36.12
884.254	36.27
884.423	36.34
884.591	37.15
884.759	36.75
884.927	35.36
885.096	34.68
885.264	34.82
885.432	33.84
885.6	33.28
885.769	33.32
885.937	33.82
886.105	34.7
886.273	34.61
886.441	35.02
886.609	37.48
886.777	40.33
886.945	41.21
887.113	41.25
887.281	43.03
887.449	45.35
887.617	48.28
887.785	48.22
887.953	44.59
888.121	45.25
888.289	44.77
888.457	45.62
888.625	46.39
888.793	44.92
888.961	45.13
889.129	43.66
889.296	44.46
889.464	43.09
889.632	42.65
889.8	48.95
889.967	50.26
890.135	51.73
