Data from 2938460_Reflection_2.txt Node
Date: Wed Jun 17 14:03:54 EDT 2015
User: robert
Spectrometer: USB4E03002
Autoset integration time: false
Trigger mode: 4
Integration Time (sec): 1.000000E-1
Scans to average: 10
Electric dark correction enabled: true
Nonlinearity correction enabled: false
Boxcar width: 5
Stray light correction enabled: false
XAxis mode: Wavelengths
Stop averaging: false
Number of Pixels in Spectrum: 3648
>>>>>Begin Spectral Data<<<<<
177.575	-98.89
177.794	-171.39
178.014	-56.55
178.233	-273.88
178.452	268.43
178.672	230.98
178.891	68.01
179.11	-51.68
179.33	1408.85
179.549	-6501.23
179.768	-698.11
179.987	-163.89
180.207	-908.17
180.426	-225.04
180.645	235.67
180.864	181.14
181.084	183.48
181.303	177.62
181.522	163.7
181.741	258.95
181.96	165.23
182.179	187.9
182.398	133.04
182.618	111.01
182.837	132.63
183.056	363.4
183.275	269.54
183.494	301.69
183.713	266.22
183.932	1734.93
184.151	563.91
184.37	314.68
184.589	159.55
184.808	159.82
185.027	373.79
185.246	262.53
185.465	213.29
185.684	212.33
185.903	247.73
186.122	209.92
186.341	134.19
186.56	133.2
186.779	182.36
186.998	197.81
187.216	135.15
187.435	131.05
187.654	117.4
187.873	115.22
188.092	118.01
188.311	116.1
188.53	127.39
188.748	147.52
188.967	147.53
189.186	150.43
189.405	209.92
189.623	159.88
189.842	236.04
190.061	-1602
190.28	-120.95
190.498	-121.34
190.717	-527.36
190.936	-139.1
191.154	-193.01
191.373	-254.75
191.592	-1392.88
191.81	225.62
192.029	-678.92
192.248	1117.67
192.466	456.07
192.685	144.98
192.904	153.91
193.122	145.47
193.341	158.07
193.559	137.65
193.778	120.46
193.996	159.14
194.215	179.86
194.433	168.85
194.652	146.6
194.87	135.13
195.089	149.17
195.307	141.12
195.526	340.34
195.744	215.77
195.963	178.57
196.181	190.98
196.399	138.52
196.618	147.85
196.836	158.84
197.055	161.21
197.273	173.51
197.491	157.27
197.71	159.47
197.928	146.74
198.146	159.2
198.365	172.39
198.583	161.2
198.801	130.45
199.019	121.57
199.238	113.45
199.456	103.41
199.674	123.07
199.892	123.29
200.111	104.29
200.329	93.71
200.547	111.32
200.765	126.32
200.983	108.14
201.202	138.67
201.42	146.8
201.638	151.17
201.856	134.53
202.074	95.48
202.292	55.55
202.51	74.78
202.728	75.88
202.946	69.74
203.165	73.16
203.383	82.53
203.601	83.75
203.819	84.56
204.037	62.84
204.255	74.84
204.473	69.29
204.691	118.82
204.909	122.63
205.127	90.75
205.345	85.07
205.562	74.39
205.78	110.38
205.998	117.05
206.216	106.04
206.434	104
206.652	98.9
206.87	96.99
207.088	92.74
207.306	84.02
207.523	97.43
207.741	104.82
207.959	103.63
208.177	67.41
208.395	59.23
208.612	62.38
208.83	74.08
209.048	81.57
209.266	77.78
209.483	71.47
209.701	59.24
209.919	68.1
210.136	83.85
210.354	75.1
210.572	79.37
210.79	77.3
211.007	84.7
211.225	69.36
211.442	63.98
211.66	77.19
211.878	66.01
212.095	71.82
212.313	60.82
212.53	47.4
212.748	59.93
212.966	52.84
213.183	63.63
213.401	50.84
213.618	70.2
213.836	80.04
214.053	72.2
214.271	81.71
214.488	74.92
214.705	87.1
214.923	85.71
215.14	76.6
215.358	70.61
215.575	71.71
215.793	73.61
216.01	60.52
216.227	48.75
216.445	65.48
216.662	67.99
216.879	76.32
217.097	60.56
217.314	59.98
217.531	72.31
217.749	72.3
217.966	73.87
218.183	67.29
218.4	57.97
218.618	52.5
218.835	9.39
219.052	6
219.269	-11.71
219.487	-4.29
219.704	7.35
219.921	3.16
220.138	-2.48
220.355	-18.84
220.572	0.01
220.79	3.39
221.007	22.48
221.224	30.11
221.441	28.19
221.658	30.88
221.875	42.19
222.092	39.31
222.309	36.15
222.526	42.8
222.743	48.39
222.96	45.68
223.177	44.78
223.394	34.31
223.611	30.9
223.828	35.39
224.045	34.31
224.262	27.28
224.479	25.14
224.696	26.34
224.913	24.46
225.13	23.84
225.347	22.37
225.564	22.86
225.781	21.31
225.997	21.46
226.214	21.98
226.431	19.86
226.648	20.66
226.865	19.3
227.082	19.3
227.298	19.3
227.515	18.5
227.732	17.14
227.949	17.08
228.165	17.28
228.382	16.67
228.599	15.16
228.816	14.69
229.032	13.04
229.249	13.25
229.466	13.7
229.682	13.11
229.899	13.38
230.116	14.37
230.332	12.69
230.549	12.37
230.765	12.1
230.982	13.26
231.199	15.49
231.415	17.35
231.632	17.86
231.848	17.55
232.065	16.96
232.281	14.92
232.498	14.26
232.714	15.4
232.931	16.26
233.147	18.84
233.364	14.8
233.58	15.1
233.797	15.45
234.013	15.37
234.23	15.14
234.446	16.87
234.662	19.31
234.879	18.67
235.095	19.31
235.312	20.3
235.528	19.43
235.744	21.18
235.961	20.43
236.177	18.37
236.393	19.35
236.61	19.34
236.826	17.92
237.042	16.35
237.258	20.3
237.475	20.03
237.691	19.24
237.907	16.81
238.123	16.81
238.339	16.54
238.556	18.78
238.772	18.04
238.988	17.54
239.204	15.62
239.42	15.92
239.636	15.19
239.853	14.49
240.069	14.67
240.285	14.15
240.501	14.32
240.717	14.44
240.933	13.85
241.149	13.17
241.365	13.39
241.581	13.93
241.797	13.64
242.013	12.21
242.229	12.19
242.445	11.44
242.661	11.76
242.877	12.07
243.093	10.79
243.309	9.97
243.525	10.28
243.741	9.44
243.957	9.61
244.173	9.42
244.388	9.82
244.604	9.97
244.82	10.07
245.036	10.48
245.252	9.88
245.468	10.16
245.683	10.4
245.899	10.54
246.115	10.74
246.331	10.58
246.547	10.75
246.762	11.03
246.978	11.03
247.194	11.08
247.409	11.29
247.625	11.71
247.841	11.66
248.057	11.56
248.272	11.33
248.488	11.77
248.703	11.77
248.919	12.09
249.135	11.58
249.35	12
249.566	12.44
249.782	11.35
249.997	11.15
250.213	11.01
250.428	11.33
250.644	11.47
250.859	11.07
251.075	12.03
251.29	11.58
251.506	11.74
251.721	11.55
251.937	11.08
252.152	11.63
252.368	12.19
252.583	13.34
252.798	13.25
253.014	13.47
253.229	13.63
253.445	13.36
253.66	14.3
253.875	13.8
254.091	14.58
254.306	14.81
254.521	14.94
254.737	13.84
254.952	13.22
255.167	12.59
255.383	11.9
255.598	10.78
255.813	10.12
256.028	9.58
256.244	9.98
256.459	9.04
256.674	8.51
256.889	8.81
257.104	8.37
257.32	8.45
257.535	8.32
257.75	8.43
257.965	8.4
258.18	8.31
258.395	8.22
258.61	7.92
258.826	8.04
259.041	8.55
259.256	8.11
259.471	8.37
259.686	8.03
259.901	8.22
260.116	8.04
260.331	8.41
260.546	8.36
260.761	8.18
260.976	8.96
261.191	8.91
261.406	8.44
261.621	8.75
261.836	8.91
262.05	8.99
262.265	8.97
262.48	8.6
262.695	7.92
262.91	8.78
263.125	8.23
263.34	7.63
263.555	7.36
263.769	7.08
263.984	6.43
264.199	6.62
264.414	6.7
264.629	7.4
264.843	7.85
265.058	7.65
265.273	7.66
265.488	8.36
265.702	8.34
265.917	8.86
266.132	9.18
266.346	9.69
266.561	9.74
266.776	10.52
266.99	9.95
267.205	9.89
267.42	10.03
267.634	9.8
267.849	9.47
268.063	9.68
268.278	10.14
268.492	10.01
268.707	9.2
268.922	9.03
269.136	8.26
269.351	8.06
269.565	7.88
269.78	7.63
269.994	7.64
270.209	7.65
270.423	7.39
270.637	6.78
270.852	6.89
271.066	7.52
271.281	7.5
271.495	7.56
271.709	7.69
271.924	8
272.138	7.82
272.353	7.73
272.567	7.88
272.781	7.75
272.996	7.65
273.21	7.57
273.424	7.48
273.638	7.18
273.853	7.2
274.067	6.99
274.281	7.16
274.495	7.99
274.71	7.88
274.924	7.22
275.138	7
275.352	6.69
275.566	6.27
275.781	6.26
275.995	6.5
276.209	6.19
276.423	6.38
276.637	5.54
276.851	5.11
277.065	4.94
277.279	5.71
277.493	6.36
277.707	7.16
277.921	7.18
278.135	6.56
278.349	6.82
278.563	7.62
278.777	7.58
278.991	7.63
279.205	8.07
279.419	7.96
279.633	8.05
279.847	8.09
280.061	7.64
280.275	7.97
280.489	8.52
280.703	8.6
280.917	8.05
281.131	8.42
281.344	8.56
281.558	8.31
281.772	8.47
281.986	8.18
282.2	7.82
282.414	7.81
282.627	7.35
282.841	7.13
283.055	6.95
283.269	7.28
283.482	6.9
283.696	6.71
283.91	6.55
284.123	6.52
284.337	6.67
284.551	6.76
284.764	6.64
284.978	6.89
285.192	7.12
285.405	7.37
285.619	7.54
285.833	7.71
286.046	7.56
286.26	8.12
286.473	8.11
286.687	8.51
286.9	8.78
287.114	8.59
287.327	8.35
287.541	7.92
287.754	7.65
287.968	7.23
288.181	6.97
288.395	7.69
288.608	7.37
288.822	6.93
289.035	6.46
289.248	6.22
289.462	6.6
289.675	6.87
289.889	6.86
290.102	6.66
290.315	6.4
290.529	6.83
290.742	6.22
290.955	6.56
291.169	6.6
291.382	6.81
291.595	6.84
291.808	6.7
292.022	6.48
292.235	6.31
292.448	6.95
292.661	7.34
292.875	6.97
293.088	7.6
293.301	7.23
293.514	7.31
293.727	7.31
293.94	7.35
294.153	7.87
294.367	7.84
294.58	7.96
294.793	7.48
295.006	7.65
295.219	7.84
295.432	7.63
295.645	7.74
295.858	7.82
296.071	7.62
296.284	7.5
296.497	7.12
296.71	7.28
296.923	7.82
297.136	7.78
297.349	7.82
297.562	7.75
297.775	7.68
297.988	7.76
298.201	7.77
298.414	7.46
298.626	7.28
298.839	7.54
299.052	7.03
299.265	6.48
299.478	6.49
299.691	6.25
299.903	5.95
300.116	6.04
300.329	5.66
300.542	6.06
300.755	6.43
300.967	7.01
301.18	6.87
301.393	7.17
301.605	6.95
301.818	7
302.031	6.92
302.243	6.83
302.456	7.07
302.669	7.05
302.881	7.21
303.094	7.16
303.307	6.82
303.519	7.25
303.732	7.61
303.944	7.91
304.157	8.17
304.37	8.3
304.582	9.04
304.795	8.89
305.007	9.08
305.22	8.85
305.432	9.03
305.645	8.86
305.857	8.67
306.069	8.69
306.282	8.31
306.494	8.3
306.707	8.65
306.919	7.69
307.132	7.71
307.344	7.44
307.556	7.71
307.769	7.68
307.981	7.86
308.193	7.45
308.406	6.99
308.618	7.41
308.83	7.36
309.043	6.71
309.255	7.15
309.467	6.88
309.679	7.14
309.892	7.1
310.104	6.88
310.316	7.05
310.528	7.39
310.74	7.39
310.953	7.19
311.165	6.79
311.377	7
311.589	7.03
311.801	7.69
312.013	7.64
312.225	7.34
312.437	7.71
312.649	7.61
312.862	7.02
313.074	7.23
313.286	7.24
313.498	7.62
313.71	7.89
313.922	7.88
314.134	7.03
314.346	7.09
314.558	7.39
314.77	7.63
314.982	7.56
315.193	7.92
315.405	7.66
315.617	7.53
315.829	7.93
316.041	7.97
316.253	7.79
316.465	8.5
316.677	8.51
316.888	8.5
317.1	8.21
317.312	8.32
317.524	8.38
317.736	9.02
317.947	9.58
318.159	9.58
318.371	9.37
318.583	9.87
318.794	9.61
319.006	9.72
319.218	9.71
319.43	9.76
319.641	9.83
319.853	9.6
320.064	9.66
320.276	9.3
320.488	8.42
320.699	8.6
320.911	8.1
321.123	7.99
321.334	8.06
321.546	8.23
321.757	8.72
321.969	9.11
322.18	9.2
322.392	9.01
322.603	9.16
322.815	9.81
323.026	10.11
323.238	10.29
323.449	10.35
323.661	9.81
323.872	9.86
324.083	9.47
324.295	9.24
324.506	9.36
324.718	9.37
324.929	9.67
325.14	10.16
325.352	10
325.563	10.49
325.774	10.71
325.986	11.38
326.197	10.68
326.408	10.84
326.62	10.68
326.831	10.88
327.042	10.86
327.253	11.02
327.464	10.46
327.676	10.37
327.887	10
328.098	9.72
328.309	10.03
328.52	10.5
328.732	10.58
328.943	10.68
329.154	10.17
329.365	10.14
329.576	9.41
329.787	9.89
329.998	9.89
330.209	10.09
330.42	10.08
330.631	9.9
330.842	10.32
331.053	9.46
331.264	9.29
331.475	9.36
331.686	9.81
331.897	9.82
332.108	9.4
332.319	9.78
332.53	9.16
332.741	9.32
332.952	8.89
333.163	8.57
333.374	8.95
333.585	9.06
333.795	9.66
334.006	9.27
334.217	9.55
334.428	9.58
334.639	9.2
334.849	9.73
335.06	9.48
335.271	9.4
335.482	9.09
335.692	9.64
335.903	9.59
336.114	9.22
336.325	9.11
336.535	9.01
336.746	9.02
336.957	9.13
337.167	9.13
337.378	9.43
337.589	9.47
337.799	9.55
338.01	9.49
338.22	9.48
338.431	9.69
338.642	9.76
338.852	9.92
339.063	9.83
339.273	9.69
339.484	9.49
339.694	8.98
339.905	9.21
340.115	9.84
340.326	9.75
340.536	10.09
340.746	9.78
340.957	9.9
341.167	9.96
341.378	9.7
341.588	9.91
341.799	10.24
342.009	10.3
342.219	10.13
342.43	9.52
342.64	9.31
342.85	9.01
343.061	8.84
343.271	8.81
343.481	8.66
343.691	8.73
343.902	8.15
344.112	7.75
344.322	7.92
344.532	7.74
344.743	7.73
344.953	7.86
345.163	8
345.373	8.09
345.583	8.24
345.793	8.15
346.004	8.52
346.214	8.97
346.424	9.27
346.634	9.24
346.844	9.51
347.054	9.32
347.264	9.54
347.474	9.41
347.684	9.27
347.894	8.91
348.104	9.12
348.314	9.24
348.524	8.92
348.734	8.89
348.944	8.91
349.154	8.86
349.364	8.87
349.574	8.09
349.784	7.79
349.994	8.22
350.204	8.47
350.413	8.78
350.623	8.54
350.833	9.06
351.043	8.5
351.253	8.51
351.463	8.22
351.672	8.49
351.882	9.04
352.092	8.89
352.302	8.71
352.511	8.44
352.721	7.83
352.931	7.46
353.141	7.17
353.35	7.62
353.56	7.6
353.77	7.74
353.979	7.64
354.189	7.43
354.399	7.52
354.608	7.28
354.818	7.47
355.027	7.55
355.237	7.74
355.447	7.85
355.656	7.73
355.866	7.75
356.075	7.9
356.285	7.86
356.494	7.73
356.704	7.87
356.913	8
357.123	7.87
357.332	7.63
357.542	7.55
357.751	7.5
357.96	7.45
358.17	7.31
358.379	7.24
358.589	7.17
358.798	6.91
359.007	6.91
359.217	7.17
359.426	7.05
359.635	7.3
359.845	7.43
360.054	7.42
360.263	7.38
360.472	7.45
360.682	7.48
360.891	7.74
361.1	8
361.309	8.12
361.519	7.99
361.728	8.03
361.937	8.11
362.146	8.32
362.355	8.18
362.564	8.36
362.774	8.28
362.983	7.99
363.192	7.64
363.401	7.62
363.61	7.29
363.819	7.41
364.028	7.28
364.237	7
364.446	6.66
364.655	6.59
364.864	6.54
365.073	6.61
365.282	6.8
365.491	7.02
365.7	6.87
365.909	7.02
366.118	7.21
366.327	7.09
366.536	7.28
366.745	7.35
366.954	7.4
367.162	7.06
367.371	7.07
367.58	7.02
367.789	6.95
367.998	6.91
368.207	6.98
368.415	6.38
368.624	6.72
368.833	6.4
369.042	5.89
369.25	6.06
369.459	6.71
369.668	6.76
369.877	6.64
370.085	6.71
370.294	6.7
370.503	6.63
370.711	7.12
370.92	7.09
371.129	7.22
371.337	7.55
371.546	7.44
371.754	7.26
371.963	7.17
372.171	7.1
372.38	6.93
372.589	7.25
372.797	7.23
373.006	6.73
373.214	6.69
373.423	6.69
373.631	6.75
373.84	6.78
374.048	6.59
374.256	6.59
374.465	6.85
374.673	6.89
374.882	6.81
375.09	6.69
375.298	6.68
375.507	6.52
375.715	6.63
375.923	6.54
376.132	6.44
376.34	6.23
376.548	6.2
376.757	6.11
376.965	6.24
377.173	6.28
377.381	6.57
377.59	6.64
377.798	6.98
378.006	6.88
378.214	7.06
378.423	6.99
378.631	7.05
378.839	6.96
379.047	6.8
379.255	6.76
379.463	6.47
379.671	6.26
379.879	6.24
380.088	6.12
380.296	6.22
380.504	6.23
380.712	6.47
380.92	6.48
381.128	6.91
381.336	6.97
381.544	6.64
381.752	6.72
381.96	6.73
382.168	6.84
382.376	6.71
382.584	6.57
382.791	6.68
382.999	6.69
383.207	6.48
383.415	6.24
383.623	6.36
383.831	6.63
384.039	6.66
384.247	6.78
384.454	6.57
384.662	6.63
384.87	6.64
385.078	6.51
385.285	6.18
385.493	6.46
385.701	6.4
385.909	6.41
386.116	6.46
386.324	6.17
386.532	5.81
386.739	5.72
386.947	5.74
387.155	5.82
387.362	5.82
387.57	5.88
387.778	5.86
387.985	5.76
388.193	5.71
388.4	5.47
388.608	5.91
388.816	5.83
389.023	6.05
389.231	5.69
389.438	5.57
389.646	5.44
389.853	5.4
390.061	5.23
390.268	5.17
390.475	5.32
390.683	5.41
390.89	5.33
391.098	5.57
391.305	5.5
391.512	5.58
391.72	5.61
391.927	5.51
392.135	5.42
392.342	5.43
392.549	5.59
392.756	5.46
392.964	5.43
393.171	5.42
393.378	5.2
393.586	5.18
393.793	5.31
394	5.19
394.207	5.35
394.414	5.47
394.622	5.56
394.829	5.52
395.036	5.39
395.243	5.46
395.45	5.6
395.657	5.92
395.864	5.97
396.072	6.08
396.279	6.11
396.486	5.87
396.693	6
396.9	5.95
397.107	5.93
397.314	6.29
397.521	6.14
397.728	6.02
397.935	6.13
398.142	6.03
398.349	5.98
398.556	6.17
398.763	6.26
398.97	6.2
399.177	6.46
399.383	6.54
399.59	6.13
399.797	6.22
400.004	6.18
400.211	6.06
400.418	6.23
400.625	6.18
400.831	5.86
401.038	5.91
401.245	6.03
401.452	6.01
401.658	5.83
401.865	6.08
402.072	5.95
402.279	5.98
402.485	5.91
402.692	5.94
402.899	5.94
403.105	6.09
403.312	6.07
403.519	5.95
403.725	5.76
403.932	5.8
404.138	5.64
404.345	5.7
404.552	5.57
404.758	5.69
404.965	5.55
405.171	5.57
405.378	5.68
405.584	5.8
405.791	5.79
405.997	5.94
406.204	6.17
406.41	6.3
406.617	6.27
406.823	6.47
407.029	6.4
407.236	6.49
407.442	6.49
407.649	6.6
407.855	6.32
408.061	6.39
408.268	6.25
408.474	5.95
408.68	5.76
408.887	5.96
409.093	5.96
409.299	5.97
409.505	5.89
409.712	5.9
409.918	5.61
410.124	5.81
410.33	5.75
410.537	5.78
410.743	5.86
410.949	6.06
411.155	5.93
411.361	5.73
411.567	5.64
411.773	5.67
411.98	5.78
412.186	5.72
412.392	5.73
412.598	5.74
412.804	5.55
413.01	5.56
413.216	5.36
413.422	5.44
413.628	5.5
413.834	5.4
414.04	5.23
414.246	4.99
414.452	5.11
414.658	5.12
414.864	5.11
415.07	5.29
415.275	5.32
415.481	5.35
415.687	5.29
415.893	5.31
416.099	5.26
416.305	5.44
416.511	5.64
416.716	5.64
416.922	5.68
417.128	5.8
417.334	5.78
417.539	5.8
417.745	5.84
417.951	5.85
418.157	5.89
418.362	5.93
418.568	5.84
418.774	5.76
418.979	5.84
419.185	5.82
419.391	5.63
419.596	5.63
419.802	5.59
420.008	5.59
420.213	5.52
420.419	5.6
420.624	5.55
420.83	5.53
421.035	5.52
421.241	5.58
421.446	5.51
421.652	5.61
421.857	5.56
422.063	5.58
422.268	5.52
422.474	5.63
422.679	5.57
422.885	5.61
423.09	5.56
423.295	5.57
423.501	5.41
423.706	5.45
423.911	5.47
424.117	5.58
424.322	5.49
424.527	5.56
424.733	5.52
424.938	5.47
425.143	5.59
425.349	5.66
425.554	5.65
425.759	5.8
425.964	5.81
426.169	5.79
426.375	5.75
426.58	6.01
426.785	5.97
426.99	5.96
427.195	6
427.4	5.87
427.605	6.03
427.811	6.03
428.016	5.85
428.221	5.83
428.426	5.79
428.631	5.76
428.836	5.53
429.041	5.62
429.246	5.57
429.451	5.63
429.656	5.76
429.861	5.65
430.066	5.82
430.271	5.94
430.476	6
430.681	6.06
430.886	6.01
431.09	6.05
431.295	6
431.5	6.07
431.705	5.97
431.91	5.98
432.115	5.95
432.32	5.8
432.524	5.67
432.729	5.63
432.934	5.62
433.139	5.69
433.343	5.8
433.548	5.91
433.753	5.88
433.958	5.91
434.162	5.81
434.367	5.82
434.572	5.82
434.776	5.81
434.981	5.71
435.186	5.57
435.39	5.61
435.595	5.57
435.799	5.44
436.004	5.53
436.209	5.37
436.413	5.35
436.618	5.32
436.822	5.26
437.027	5.35
437.231	5.41
437.436	5.46
437.64	5.43
437.845	5.4
438.049	5.47
438.253	5.44
438.458	5.47
438.662	5.58
438.867	5.65
439.071	5.76
439.275	5.73
439.48	5.65
439.684	5.68
439.888	5.65
440.093	5.72
440.297	5.66
440.501	5.63
440.706	5.73
440.91	5.75
441.114	5.76
441.318	5.7
441.523	5.73
441.727	5.92
441.931	6.12
442.135	6.08
442.339	5.93
442.543	5.98
442.748	5.92
442.952	5.86
443.156	5.68
443.36	5.64
443.564	5.68
443.768	5.65
443.972	5.56
444.176	5.4
444.38	5.42
444.584	5.42
444.788	5.34
444.992	5.33
445.196	5.35
445.4	5.39
445.604	5.29
445.808	5.34
446.012	5.37
446.216	5.31
446.42	5.33
446.624	5.29
446.828	5.29
447.032	5.3
447.235	5.37
447.439	5.33
447.643	5.39
447.847	5.58
448.051	5.6
448.254	5.63
448.458	5.74
448.662	5.76
448.866	5.78
449.069	5.74
449.273	5.76
449.477	5.8
449.681	5.84
449.884	5.79
450.088	5.77
450.292	5.75
450.495	5.64
450.699	5.74
450.902	5.74
451.106	5.76
451.31	5.83
451.513	5.89
451.717	5.77
451.92	5.74
452.124	5.66
452.327	5.6
452.531	5.56
452.734	5.55
452.938	5.34
453.141	5.32
453.345	5.3
453.548	5.31
453.752	5.31
453.955	5.47
454.158	5.39
454.362	5.49
454.565	5.59
454.769	5.6
454.972	5.76
455.175	5.93
455.379	5.83
455.582	5.96
455.785	5.95
455.988	5.92
456.192	5.75
456.395	5.81
456.598	5.84
456.801	5.71
457.005	5.62
457.208	5.49
457.411	5.38
457.614	5.39
457.817	5.28
458.021	5.22
458.224	5.34
458.427	5.33
458.63	5.4
458.833	5.36
459.036	5.43
459.239	5.45
459.442	5.46
459.645	5.44
459.848	5.43
460.051	5.52
460.254	5.65
460.457	5.49
460.66	5.63
460.863	5.67
461.066	5.75
461.269	5.71
461.472	5.78
461.675	5.77
461.878	5.79
462.081	6.01
462.284	5.92
462.486	5.79
462.689	5.76
462.892	5.59
463.095	5.5
463.298	5.47
463.5	5.5
463.703	5.36
463.906	5.42
464.109	5.34
464.311	5.2
464.514	5.29
464.717	5.45
464.92	5.54
465.122	5.62
465.325	5.68
465.528	5.65
465.73	5.72
465.933	5.8
466.135	5.79
466.338	5.93
466.541	5.92
466.743	5.79
466.946	5.71
467.148	5.61
467.351	5.53
467.553	5.5
467.756	5.52
467.958	5.41
468.161	5.41
468.363	5.44
468.566	5.31
468.768	5.31
468.971	5.36
469.173	5.35
469.375	5.38
469.578	5.34
469.78	5.42
469.983	5.46
470.185	5.49
470.387	5.51
470.59	5.54
470.792	5.57
470.994	5.56
471.196	5.6
471.399	5.58
471.601	5.62
471.803	5.78
472.005	5.66
472.208	5.52
472.41	5.49
472.612	5.45
472.814	5.39
473.016	5.54
473.218	5.58
473.421	5.53
473.623	5.6
473.825	5.62
474.027	5.56
474.229	5.59
474.431	5.66
474.633	5.67
474.835	5.69
475.037	5.67
475.239	5.6
475.441	5.63
475.643	5.6
475.845	5.55
476.047	5.51
476.249	5.49
476.451	5.51
476.653	5.5
476.855	5.59
477.057	5.57
477.258	5.55
477.46	5.49
477.662	5.52
477.864	5.54
478.066	5.48
478.268	5.53
478.469	5.6
478.671	5.5
478.873	5.54
479.075	5.36
479.276	5.32
479.478	5.32
479.68	5.43
479.882	5.32
480.083	5.3
480.285	5.38
480.487	5.32
480.688	5.28
480.89	5.35
481.091	5.3
481.293	5.33
481.495	5.32
481.696	5.33
481.898	5.31
482.099	5.34
482.301	5.35
482.502	5.32
482.704	5.3
482.905	5.3
483.107	5.29
483.308	5.29
483.51	5.29
483.711	5.34
483.913	5.34
484.114	5.34
484.315	5.28
484.517	5.26
484.718	5.25
484.92	5.28
485.121	5.27
485.322	5.24
485.524	5.26
485.725	5.27
485.926	5.23
486.127	5.25
486.329	5.26
486.53	5.32
486.731	5.35
486.932	5.38
487.134	5.36
487.335	5.4
487.536	5.4
487.737	5.39
487.938	5.4
488.139	5.4
488.341	5.39
488.542	5.37
488.743	5.37
488.944	5.34
489.145	5.35
489.346	5.42
489.547	5.45
489.748	5.46
489.949	5.48
490.15	5.5
490.351	5.5
490.552	5.51
490.753	5.51
490.954	5.51
491.155	5.49
491.356	5.48
491.557	5.45
491.758	5.43
491.959	5.5
492.159	5.45
492.36	5.45
492.561	5.53
492.762	5.53
492.963	5.55
493.164	5.46
493.364	5.51
493.565	5.54
493.766	5.55
493.967	5.5
494.167	5.35
494.368	5.34
494.569	5.31
494.769	5.22
494.97	5.17
495.171	5.22
495.371	5.37
495.572	5.46
495.773	5.44
495.973	5.45
496.174	5.54
496.375	5.66
496.575	5.67
496.776	5.68
496.976	5.76
497.177	5.83
497.377	5.8
497.578	5.78
497.778	5.71
497.979	5.7
498.179	5.65
498.38	5.54
498.58	5.55
498.78	5.61
498.981	5.62
499.181	5.57
499.382	5.6
499.582	5.58
499.782	5.58
499.983	5.69
500.183	5.72
500.383	5.8
500.584	5.81
500.784	5.79
500.984	5.78
501.184	5.74
501.385	5.72
501.585	5.69
501.785	5.73
501.985	5.67
502.185	5.68
502.386	5.69
502.586	5.65
502.786	5.86
502.986	5.85
503.186	5.88
503.386	5.88
503.586	5.94
503.786	6
503.987	6.12
504.187	6.23
504.387	6.19
504.587	6.23
504.787	6.25
504.987	6.09
505.187	6.08
505.387	6.2
505.587	6.35
505.786	6.42
505.986	6.46
506.186	6.36
506.386	6.4
506.586	6.41
506.786	6.35
506.986	6.4
507.186	6.5
507.386	6.56
507.585	6.51
507.785	6.49
507.985	6.41
508.185	6.4
508.384	6.45
508.584	6.39
508.784	6.4
508.984	6.49
509.183	6.52
509.383	6.49
509.583	6.5
509.782	6.56
509.982	6.53
510.182	6.6
510.381	6.62
510.581	6.6
510.781	6.72
510.98	6.73
511.18	6.69
511.379	6.69
511.579	6.67
511.778	6.65
511.978	6.53
512.177	6.54
512.377	6.57
512.576	6.55
512.776	6.56
512.975	6.55
513.175	6.57
513.374	6.62
513.573	6.69
513.773	6.82
513.972	6.82
514.172	6.95
514.371	7.03
514.57	7.11
514.77	7.12
514.969	7.18
515.168	7.14
515.367	7.17
515.567	7.18
515.766	7.09
515.965	7.05
516.164	7.07
516.364	7.09
516.563	7.04
516.762	6.94
516.961	6.98
517.16	6.92
517.359	6.89
517.559	6.9
517.758	6.95
517.957	7.01
518.156	7.04
518.355	7.05
518.554	7.04
518.753	7.11
518.952	7.19
519.151	7.18
519.35	7.26
519.549	7.32
519.748	7.34
519.947	7.37
520.146	7.3
520.345	7.29
520.544	7.27
520.743	7.34
520.942	7.34
521.141	7.33
521.339	7.45
521.538	7.49
521.737	7.48
521.936	7.5
522.135	7.45
522.333	7.5
522.532	7.56
522.731	7.68
522.93	7.69
523.129	7.69
523.327	7.67
523.526	7.59
523.725	7.61
523.923	7.59
524.122	7.63
524.321	7.7
524.519	7.77
524.718	7.79
524.917	7.77
525.115	7.75
525.314	7.72
525.512	7.75
525.711	7.79
525.909	7.8
526.108	7.85
526.306	7.83
526.505	7.83
526.703	7.83
526.902	7.84
527.1	7.84
527.299	7.88
527.497	7.88
527.696	7.87
527.894	7.89
528.092	7.88
528.291	7.89
528.489	7.91
528.688	7.89
528.886	7.9
529.084	7.9
529.283	7.94
529.481	7.92
529.679	8
529.877	8.08
530.076	8.07
530.274	8.14
530.472	8.2
530.67	8.22
530.869	8.22
531.067	8.25
531.265	8.26
531.463	8.27
531.661	8.32
531.859	8.32
532.057	8.37
532.255	8.39
532.454	8.36
532.652	8.38
532.85	8.44
533.048	8.52
533.246	8.55
533.444	8.55
533.642	8.59
533.84	8.6
534.038	8.65
534.236	8.59
534.434	8.61
534.632	8.64
534.83	8.71
535.027	8.72
535.225	8.7
535.423	8.71
535.621	8.79
535.819	8.78
536.017	8.75
536.215	8.8
536.412	8.91
536.61	8.95
536.808	8.98
537.006	8.96
537.203	9.03
537.401	9.09
537.599	9.13
537.797	9.17
537.994	9.23
538.192	9.36
538.39	9.31
538.587	9.26
538.785	9.3
538.983	9.3
539.18	9.34
539.378	9.3
539.575	9.36
539.773	9.42
539.97	9.43
540.168	9.46
540.366	9.46
540.563	9.47
540.761	9.48
540.958	9.51
541.155	9.57
541.353	9.56
541.55	9.57
541.748	9.56
541.945	9.54
542.143	9.56
542.34	9.57
542.537	9.59
542.735	9.64
542.932	9.72
543.129	9.75
543.327	9.8
543.524	9.84
543.721	9.89
543.919	9.93
544.116	10
544.313	10.06
544.51	10.13
544.708	10.13
544.905	10.18
545.102	10.22
545.299	10.24
545.496	10.31
545.693	10.34
545.891	10.39
546.088	10.4
546.285	10.37
546.482	10.37
546.679	10.38
546.876	10.49
547.073	10.51
547.27	10.49
547.467	10.57
547.664	10.6
547.861	10.71
548.058	10.82
548.255	10.82
548.452	10.97
548.649	11.14
548.846	11.22
549.043	11.24
549.24	11.23
549.437	11.35
549.633	11.33
549.83	11.33
550.027	11.29
550.224	11.29
550.421	11.45
550.618	11.44
550.814	11.41
551.011	11.41
551.208	11.48
551.405	11.57
551.601	11.64
551.798	11.73
551.995	11.68
552.191	11.73
552.388	11.64
552.585	11.73
552.781	11.8
552.978	11.87
553.175	11.96
553.371	11.98
553.568	11.96
553.764	12.02
553.961	11.97
554.157	12.12
554.354	12.17
554.55	12.43
554.747	12.39
554.943	12.36
555.14	12.39
555.336	12.46
555.533	12.6
555.729	12.75
555.926	12.76
556.122	12.88
556.318	12.93
556.515	13.06
556.711	13.04
556.907	13.15
557.104	13.19
557.3	13.3
557.496	13.14
557.693	13.17
557.889	13.14
558.085	13.12
558.281	13.19
558.478	13.17
558.674	13.3
558.87	13.31
559.066	13.31
559.262	13.44
559.459	13.41
559.655	13.67
559.851	13.66
560.047	13.76
560.243	14.01
560.439	13.98
560.635	14.22
560.831	14.2
561.027	14.29
561.223	14.33
561.419	14.32
561.615	14.46
561.811	14.56
562.007	14.67
562.203	14.73
562.399	14.72
562.595	14.8
562.791	14.93
562.987	15.05
563.183	15.15
563.379	15.27
563.575	15.4
563.771	15.47
563.966	15.46
564.162	15.57
564.358	15.61
564.554	15.57
564.75	15.68
564.945	15.55
565.141	15.52
565.337	15.5
565.533	15.59
565.728	15.66
565.924	15.68
566.12	15.78
566.315	15.9
566.511	15.93
566.707	16.14
566.902	16.19
567.098	16.34
567.293	16.54
567.489	16.67
567.684	16.74
567.88	16.74
568.076	16.77
568.271	16.87
568.467	16.86
568.662	17.06
568.858	17.08
569.053	17.12
569.248	17.24
569.444	17.22
569.639	17.32
569.835	17.32
570.03	17.5
570.225	17.6
570.421	17.61
570.616	17.64
570.812	17.74
571.007	17.7
571.202	17.87
571.397	17.92
571.593	18.01
571.788	18.05
571.983	18.13
572.178	18.19
572.374	18.35
572.569	18.35
572.764	18.46
572.959	18.47
573.154	18.62
573.35	18.69
573.545	18.72
573.74	18.8
573.935	18.88
574.13	18.99
574.325	18.97
574.52	19.06
574.715	19.25
574.91	19.24
575.105	19.33
575.3	19.41
575.495	19.39
575.69	19.41
575.885	19.58
576.08	19.62
576.275	19.68
576.47	19.62
576.665	19.59
576.86	19.52
577.055	19.55
577.25	19.65
577.444	19.75
577.639	19.85
577.834	19.93
578.029	19.82
578.224	19.81
578.418	19.92
578.613	20.19
578.808	20.3
579.003	20.42
579.197	20.51
579.392	20.5
579.587	20.55
579.781	20.57
579.976	20.72
580.171	20.86
580.365	20.97
580.56	21
580.755	21.05
580.949	21.05
581.144	21.18
581.338	21.23
581.533	21.24
581.727	21.36
581.922	21.4
582.116	21.39
582.311	21.34
582.505	21.5
582.7	21.52
582.894	21.68
583.089	21.64
583.283	21.7
583.478	21.93
583.672	21.98
583.866	21.85
584.061	21.98
584.255	22.05
584.449	22.16
584.644	22.23
584.838	22.27
585.032	22.12
585.226	22.29
585.421	22.29
585.615	22.14
585.809	22.33
586.003	22.42
586.198	22.47
586.392	22.6
586.586	22.61
586.78	22.65
586.974	22.67
587.168	22.8
587.363	22.75
587.557	22.68
587.751	22.8
587.945	22.8
588.139	22.9
588.333	22.96
588.527	22.97
588.721	23.05
588.915	22.95
589.109	23.03
589.303	23.05
589.497	23.08
589.691	23.26
589.885	23.41
590.079	23.3
590.273	23.36
590.466	23.4
590.66	23.48
590.854	23.53
591.048	23.73
591.242	23.72
591.436	23.78
591.629	23.84
591.823	23.87
592.017	23.88
592.211	23.99
592.404	23.92
592.598	23.89
592.792	23.78
592.986	23.91
593.179	23.89
593.373	23.92
593.567	23.99
593.76	23.97
593.954	24.07
594.147	24.11
594.341	24.17
594.535	24.25
594.728	24.3
594.922	24.45
595.115	24.41
595.309	24.4
595.502	24.52
595.696	24.53
595.889	24.65
596.083	24.65
596.276	24.73
596.47	24.81
596.663	24.83
596.856	24.86
597.05	24.81
597.243	24.81
597.437	24.87
597.63	24.91
597.823	24.94
598.017	24.94
598.21	24.95
598.403	24.83
598.596	24.81
598.79	24.93
598.983	25.05
599.176	25.07
599.369	25.19
599.563	25.21
599.756	25.19
599.949	25.09
600.142	25.24
600.335	25.32
600.528	25.41
600.722	25.49
600.915	25.52
601.108	25.7
601.301	25.94
601.494	25.89
601.687	25.91
601.88	26.04
602.073	26.07
602.266	26.08
602.459	26
602.652	25.85
602.845	25.82
603.038	25.67
603.231	25.6
603.424	25.49
603.617	25.55
603.809	25.55
604.002	25.37
604.195	25.46
604.388	25.39
604.581	25.47
604.774	25.54
604.966	25.59
605.159	25.64
605.352	25.52
605.545	25.6
605.737	25.73
605.93	25.85
606.123	26.08
606.316	26.01
606.508	26.06
606.701	26.1
606.894	26.14
607.086	26.17
607.279	26.19
607.471	26.2
607.664	26.22
607.857	26.2
608.049	26.26
608.242	26.16
608.434	26.16
608.627	26.2
608.819	26.28
609.012	26.32
609.204	26.36
609.397	26.53
609.589	26.57
609.782	26.43
609.974	26.31
610.166	26.31
610.359	26.42
610.551	26.61
610.743	26.69
610.936	26.58
611.128	26.61
611.32	26.54
611.513	26.46
611.705	26.45
611.897	26.57
612.09	26.78
612.282	26.73
612.474	26.75
612.666	26.73
612.858	26.75
613.051	26.77
613.243	26.7
613.435	26.73
613.627	26.6
613.819	26.66
614.011	26.89
614.203	26.74
614.395	26.89
614.588	27.05
614.78	27.14
614.972	27.09
615.164	27.04
615.356	27.22
615.548	27.27
615.74	27.52
615.932	27.61
616.124	27.27
616.315	27.51
616.507	27.51
616.699	27.26
616.891	27.15
617.083	27.18
617.275	27.19
617.467	27.05
617.659	27.2
617.85	27.29
618.042	27.33
618.234	27.47
618.426	27.32
618.618	27.27
618.809	27.32
619.001	27.39
619.193	27.42
619.384	27.44
619.576	27.54
619.768	27.45
619.959	27.38
620.151	27.53
620.343	27.54
620.534	27.62
620.726	27.49
620.917	27.58
621.109	27.55
621.301	27.45
621.492	27.7
621.684	27.8
621.875	27.83
622.067	27.74
622.258	27.56
622.45	27.58
622.641	27.46
622.832	27.53
623.024	27.47
623.215	27.48
623.407	27.56
623.598	27.36
623.789	27.22
623.981	26.93
624.172	27.14
624.363	27.19
624.555	27.45
624.746	27.62
624.937	27.68
625.129	27.74
625.32	27.77
625.511	27.95
625.702	27.95
625.893	27.95
626.085	28.15
626.276	28.11
626.467	28.22
626.658	28.01
626.849	27.93
627.04	27.87
627.231	27.88
627.422	27.9
627.614	27.83
627.805	28.02
627.996	28.16
628.187	28.19
628.378	28.1
628.569	27.99
628.76	28.14
628.951	28.09
629.142	28.05
629.332	28.01
629.523	28.13
629.714	28
629.905	27.96
630.096	27.86
630.287	27.87
630.478	27.84
630.669	27.86
630.859	27.84
631.05	27.87
631.241	28.04
631.432	28.11
631.623	28.08
631.813	28.01
632.004	27.97
632.195	27.9
632.385	27.94
632.576	28.09
632.767	28.07
632.957	28.14
633.148	28.32
633.339	28.21
633.529	28.09
633.72	27.97
633.91	28.15
634.101	27.99
634.292	28.12
634.482	28.17
634.673	28.18
634.863	28.31
635.054	28.17
635.244	28.06
635.435	28.08
635.625	28.16
635.815	28.18
636.006	28.23
636.196	28.26
636.387	28.27
636.577	28.19
636.767	28.28
636.958	27.99
637.148	27.87
637.338	27.79
637.529	28.05
637.719	28.14
637.909	28.26
638.099	28.27
638.29	28.47
638.48	28.51
638.67	28.6
638.86	28.49
639.05	28.52
639.241	28.64
639.431	28.7
639.621	28.65
639.811	28.66
640.001	28.77
640.191	28.84
640.381	28.89
640.571	29.01
640.761	28.86
640.951	28.76
641.141	29.13
641.331	29.15
641.521	29.25
641.711	29.12
641.901	29
642.091	28.83
642.281	28.54
642.471	28.45
642.661	28.33
642.851	28.7
643.041	28.85
643.231	28.66
643.42	28.72
643.61	28.72
643.8	28.76
643.99	28.83
644.18	28.82
644.369	28.97
644.559	28.99
644.749	29.03
644.939	28.79
645.128	28.67
645.318	28.8
645.508	28.9
645.697	28.94
645.887	28.89
646.076	28.84
646.266	29.04
646.456	29.16
646.645	29.42
646.835	29.52
647.024	29.46
647.214	29.68
647.403	29.51
647.593	29.42
647.782	29.3
647.972	29.31
648.161	29.42
648.351	29.24
648.54	29
648.73	29
648.919	28.85
649.108	28.91
649.298	28.98
649.487	29.08
649.677	29.05
649.866	29
650.055	29.24
650.244	29.14
650.434	29.23
650.623	29.49
650.812	29.26
651.002	29.39
651.191	29.46
651.38	29.18
651.569	29.11
651.758	28.99
651.947	29.13
652.137	29.13
652.326	29.34
652.515	29.24
652.704	29.27
652.893	29.4
653.082	29.37
653.271	29.42
653.46	29.49
653.649	29.57
653.838	29.96
654.027	29.93
654.216	29.74
654.405	29.61
654.594	29.83
654.783	29.78
654.972	29.81
655.161	30.02
655.35	30.01
655.539	30.21
655.728	30.27
655.916	30.07
656.105	30.09
656.294	30.23
656.483	30.25
656.672	30.06
656.86	29.78
657.049	30
657.238	29.64
657.427	29.49
657.615	29.45
657.804	29.54
657.993	29.72
658.181	29.88
658.37	29.93
658.559	30.14
658.747	29.98
658.936	30.19
659.125	30
659.313	30.2
659.502	30.33
659.69	30.14
659.879	30.07
660.067	29.99
660.256	29.87
660.444	29.79
660.633	29.74
660.821	29.97
661.01	30.02
661.198	30.12
661.387	30.13
661.575	30.13
661.763	30.37
661.952	30.36
662.14	30.14
662.328	30.07
662.517	30
662.705	29.75
662.893	29.8
663.082	29.74
663.27	29.85
663.458	29.86
663.646	30.05
663.834	29.94
664.023	29.81
664.211	29.89
664.399	29.95
664.587	29.99
664.775	29.93
664.963	29.8
665.152	29.61
665.34	29.51
665.528	29.53
665.716	29.47
665.904	29.52
666.092	29.7
666.28	29.77
666.468	29.82
666.656	29.89
666.844	30.12
667.032	30.52
667.22	30.61
667.408	30.59
667.596	30.79
667.784	30.89
667.971	30.76
668.159	30.65
668.347	30.77
668.535	30.86
668.723	30.66
668.911	30.37
669.098	30.17
669.286	30.41
669.474	30.58
669.662	30.67
669.849	30.5
670.037	30.75
670.225	30.92
670.413	31
670.6	30.83
670.788	30.99
670.976	31.31
671.163	31.39
671.351	31.09
671.538	30.91
671.726	30.48
671.913	30.49
672.101	30.41
672.289	30.51
672.476	30.2
672.664	30.31
672.851	30.32
673.039	30.3
673.226	30.23
673.413	30.43
673.601	30.42
673.788	30.49
673.976	30.32
674.163	30.56
674.35	30.66
674.538	30.9
674.725	31
674.912	30.93
675.1	30.99
675.287	30.95
675.474	30.78
675.662	30.8
675.849	31
676.036	30.99
676.223	30.93
676.411	30.74
676.598	30.75
676.785	30.86
676.972	30.76
677.159	30.74
677.346	30.97
677.533	31.37
677.721	31.29
677.908	31.27
678.095	31.47
678.282	31.2
678.469	31.08
678.656	31.15
678.843	31.21
679.03	31.42
679.217	31.51
679.404	31.47
679.591	31.11
679.778	31.06
679.964	31.18
680.151	31.02
680.338	31.07
680.525	31.28
680.712	31.16
680.899	31.04
681.086	31.02
681.272	30.78
681.459	30.86
681.646	30.98
681.833	31.05
682.02	30.99
682.206	31.2
682.393	31.28
682.58	31.09
682.766	30.98
682.953	31.02
683.14	31.09
683.326	31.48
683.513	31.38
683.7	31.52
683.886	31.5
684.073	31.21
684.259	31.22
684.446	31.46
684.632	31.64
684.819	31.77
685.005	31.5
685.192	31.74
685.378	31.8
685.565	31.81
685.751	31.75
685.938	31.81
686.124	32.2
686.31	32.11
686.497	32.18
686.683	32.24
686.87	32.13
687.056	32.34
687.242	31.9
687.429	31.82
687.615	31.64
687.801	31.79
687.987	31.86
688.174	31.44
688.36	31.86
688.546	31.86
688.732	31.85
688.918	32.09
689.105	32.12
689.291	32.24
689.477	32.24
689.663	32.55
689.849	32.43
690.035	32.28
690.221	32.59
690.407	32.5
690.593	32.26
690.779	32.31
690.965	32.1
691.151	32.19
691.337	32.1
691.523	31.78
691.709	31.73
691.895	31.68
692.081	32
692.267	31.94
692.453	31.81
692.639	31.69
692.825	31.51
693.011	31.64
693.196	31.51
693.382	31.62
693.568	31.41
693.754	31.48
693.94	31.52
694.125	31.15
694.311	31.25
694.497	30.98
694.682	31.35
694.868	31.47
695.054	31.32
695.239	31.61
695.425	31.17
695.611	31.75
695.796	31.69
695.982	31.87
696.168	32.03
696.353	32.02
696.539	32.41
696.724	32.39
696.91	32.23
697.095	32.37
697.281	32.13
697.466	32.51
697.652	32.37
697.837	32.42
698.023	32.46
698.208	32.36
698.393	32.43
698.579	32.15
698.764	32.17
698.949	32.37
699.135	32.44
699.32	32.57
699.505	32.67
699.691	32.71
699.876	32.38
700.061	32.02
700.246	31.87
700.432	31.59
700.617	31.79
700.802	31.47
700.987	31.23
701.172	31.59
701.358	31.3
701.543	31.24
701.728	30.99
701.913	31.17
702.098	31.53
702.283	31.82
702.468	31.79
702.653	31.78
702.838	32.18
703.023	32.29
703.208	31.77
703.393	32.05
703.578	31.9
703.763	32.39
703.948	32.54
704.133	32.16
704.318	32.29
704.503	32.72
704.688	32.65
704.873	32.39
705.057	32.55
705.242	32.85
705.427	32.54
705.612	32.4
705.797	32.06
705.981	31.82
706.166	32.09
706.351	32.38
706.536	32.31
706.72	31.91
706.905	32.18
707.09	31.78
707.274	31.79
707.459	32.23
707.644	32.52
707.828	32.84
708.013	32.84
708.197	33.23
708.382	32.82
708.567	32.33
708.751	32.63
708.936	32.58
709.12	32.99
709.305	32.49
709.489	32.6
709.673	32.17
709.858	32.05
710.042	32.2
710.227	31.78
710.411	32.17
710.596	32.46
710.78	32.69
710.964	32.42
711.149	32.36
711.333	32.51
711.517	32.13
711.702	32.44
711.886	32.31
712.07	32.46
712.254	32.72
712.438	32.53
712.623	32.76
712.807	32.63
712.991	33.04
713.175	32.95
713.359	33.06
713.544	32.97
713.728	33.11
713.912	32.92
714.096	33.02
714.28	32.71
714.464	32.72
714.648	32.57
714.832	32.74
715.016	32.65
715.2	32.87
715.384	33
715.568	33.04
715.752	32.51
715.936	32.99
716.12	32.72
716.304	33.23
716.488	33.11
716.671	32.91
716.855	32.72
717.039	32.65
717.223	32.08
717.407	31.99
717.59	32.29
717.774	32.57
717.958	32.4
718.142	32.65
718.325	32.41
718.509	32.68
718.693	32.89
718.877	32.65
719.06	32.61
719.244	33.25
719.428	33.15
719.611	33.45
719.795	34.1
719.978	33.85
720.162	33.62
720.345	33.98
720.529	33.54
720.713	33.6
720.896	33.98
721.08	33.72
721.263	33.64
721.446	33.52
721.63	33
721.813	32.07
721.997	32.24
722.18	32.73
722.364	32.65
722.547	32.67
722.73	32.89
722.914	32.92
723.097	33.11
723.28	32.96
723.464	32.74
723.647	32.47
723.83	32.82
724.013	33
724.197	32.27
724.38	31.89
724.563	32.39
724.746	32.21
724.929	32.15
725.112	32.2
725.296	32.09
725.479	32.5
725.662	32.93
725.845	33.42
726.028	33.29
726.211	33.7
726.394	33.85
726.577	33.32
726.76	33.74
726.943	33.79
727.126	33.48
727.309	33.75
727.492	33.96
727.675	33.94
727.858	33.47
728.041	33.4
728.224	33.37
728.407	32.85
728.589	33.05
728.772	32.43
728.955	32.8
729.138	32.53
729.321	32.15
729.503	32.26
729.686	32.36
729.869	32.65
730.052	32.94
730.234	33.13
730.417	33.52
730.6	33.7
730.782	33.89
730.965	33.46
731.148	34.49
731.33	34.86
731.513	34.65
731.695	34.66
731.878	34.9
732.061	35
732.243	35.31
732.426	35.36
732.608	35.12
732.791	35.35
732.973	35.43
733.156	35.1
733.338	35.12
733.52	35.09
733.703	34.87
733.885	34.3
734.068	33.89
734.25	33.43
734.432	32.91
734.615	32.57
734.797	32.34
734.979	31.83
735.162	31.32
735.344	31.08
735.526	31.02
735.708	31.02
735.891	31.58
736.073	31.23
736.255	31
736.437	30.81
736.619	31.26
736.802	30.91
736.984	31.18
737.166	31.76
737.348	31.79
737.53	32.05
737.712	32.29
737.894	31.82
738.076	32.1
738.258	32.36
738.44	32.76
738.622	33.2
738.804	33.76
738.986	33.94
739.168	33.49
739.35	33.38
739.532	33.44
739.714	33.4
739.896	33.44
740.078	33.66
740.259	33.69
740.441	34.07
740.623	33.31
740.805	33.44
740.987	33.05
741.168	32.96
741.35	32.94
741.532	32.5
741.714	32.72
741.895	32.57
742.077	31.93
742.259	31.47
742.44	31.19
742.622	31.91
742.804	31.66
742.985	31.61
743.167	31.67
743.348	31.4
743.53	31.49
743.711	31.14
743.893	31.05
744.075	31.61
744.256	31.81
744.438	32.54
744.619	32.13
744.8	32.03
744.982	32.75
745.163	33.11
745.345	33.83
745.526	34.19
745.707	34.68
745.889	35.43
746.07	35.27
746.252	35.11
746.433	34.15
746.614	34.94
746.795	34.72
746.977	34.66
747.158	34.1
747.339	33.86
747.52	33.85
747.702	33.33
747.883	32.59
748.064	32.58
748.245	33.18
748.426	34.39
748.607	33.68
748.788	34.18
748.97	34.11
749.151	35.22
749.332	35.84
749.513	35.99
749.694	35.96
749.875	36.89
750.056	36.73
750.237	36.07
750.418	35.15
750.599	35.04
750.78	34.65
750.96	35.1
751.141	34.47
751.322	33.77
751.503	33.52
751.684	33.31
751.865	32.41
752.046	33.25
752.226	33.49
752.407	33.66
752.588	34.04
752.769	34.74
752.949	34.21
753.13	35.14
753.311	35.25
753.492	35.07
753.672	35.13
753.853	35.44
754.034	34.79
754.214	34.95
754.395	34.98
754.575	35.08
754.756	34.37
754.937	34.48
755.117	34.03
755.298	33.87
755.478	33.48
755.659	33.87
755.839	34.19
756.02	34.65
756.2	35.08
756.381	34.94
756.561	34.82
756.741	34.93
756.922	34.23
757.102	33.43
757.283	33.66
757.463	33.74
757.643	34.01
757.823	33.33
758.004	33.06
758.184	31.76
758.364	32.31
758.545	32.5
758.725	32.07
758.905	32.63
759.085	32.78
759.265	32.34
759.446	32.44
759.626	32.42
759.806	33.14
759.986	33.23
760.166	34.22
760.346	33.92
760.526	33.62
760.706	34.44
760.886	34.09
761.066	34.13
761.246	34.28
761.426	34.27
761.606	33.39
761.786	32.8
761.966	33.39
762.146	33.43
762.326	33.41
762.506	33.5
762.686	33.4
762.866	33.86
763.046	34.15
763.225	34.68
763.405	34.82
763.585	35.6
763.765	35.54
763.945	34.8
764.124	34.91
764.304	34.96
764.484	35.16
764.664	35.02
764.843	34.63
765.023	35.03
765.203	34.24
765.382	33.8
765.562	33.3
765.741	34.01
765.921	35.1
766.101	35
766.28	34.81
766.46	34.61
766.639	35.04
766.819	35.36
766.998	35.11
767.178	35.62
767.357	36.31
767.537	36.63
767.716	36.19
767.896	35.47
768.075	35.19
768.254	35.22
768.434	35.5
768.613	35.01
768.792	34.78
768.972	34.26
769.151	34.39
769.33	34.72
769.51	34.44
769.689	34.79
769.868	35.16
770.047	35.57
770.226	35.2
770.406	34.89
770.585	34.7
770.764	34.69
770.943	35.35
771.122	34.72
771.301	34.23
771.48	35
771.66	34.74
771.839	33.74
772.018	34.13
772.197	34.14
772.376	34.57
772.555	35.18
772.734	35.83
772.913	35.11
773.092	35.85
773.271	35.5
773.449	34.91
773.628	34.58
773.807	35.53
773.986	35.01
774.165	35.86
774.344	36.16
774.523	35.25
774.701	35.27
774.88	35.8
775.059	35.83
775.238	36.19
775.417	36.36
775.595	36.78
775.774	36.37
775.953	35.83
776.131	36.41
776.31	35.57
776.489	36.42
776.667	35.95
776.846	35.69
777.025	34.74
777.203	34.07
777.382	34.73
777.56	34.67
777.739	34.08
777.917	34.65
778.096	33.66
778.274	33.44
778.453	33.19
778.631	33.48
778.81	32.85
778.988	34.16
779.166	35.07
779.345	34.34
779.523	34.98
779.702	35.97
779.88	35.98
780.058	35.84
780.237	35.99
780.415	36.31
780.593	35.64
780.771	35.55
780.95	34.57
781.128	34.06
781.306	33.85
781.484	33.46
781.662	31.78
781.841	31.14
782.019	31.69
782.197	32.03
782.375	31.06
782.553	32.65
782.731	32.86
782.909	33.03
783.087	33.86
783.265	33.85
783.443	33.74
783.621	35.19
783.799	36.09
783.977	36.14
784.155	35.55
784.333	36.52
784.511	34.96
784.689	34.19
784.867	34.17
785.045	33.05
785.223	33.63
785.4	33.52
785.578	32.85
785.756	31.67
785.934	30.4
786.112	32.41
786.289	31.8
786.467	31.15
786.645	32.73
786.823	31.97
787	31.98
787.178	31.28
787.356	31.13
787.533	31.51
787.711	31.68
787.889	33.43
788.066	31.67
788.244	31.93
788.421	32.48
788.599	31.85
788.776	32.76
788.954	32.89
789.131	33.24
789.309	34.42
789.486	35.56
789.664	36.89
789.841	36.78
790.019	37.17
790.196	37.32
790.373	37.9
790.551	38.25
790.728	37.69
790.906	38.65
791.083	37.68
791.26	36.29
791.437	35.22
791.615	33.85
791.792	32.85
791.969	32.9
792.146	32.97
792.324	32.45
792.501	32.55
792.678	34.31
792.855	34.05
793.032	35.59
793.209	37.14
793.387	37.23
793.564	37.99
793.741	38.53
793.918	38.69
794.095	39.01
794.272	39.57
794.449	39.6
794.626	38.72
794.803	37.56
794.98	36.88
795.157	36.16
795.334	36.1
795.511	35.73
795.688	35.22
795.864	34.81
796.041	34.32
796.218	34.52
796.395	34.59
796.572	34.08
796.749	34.72
796.925	34.44
797.102	34.92
797.279	34.1
797.456	34.14
797.632	34.1
797.809	33.76
797.986	34.07
798.162	34.32
798.339	34.25
798.516	34.94
798.692	35.52
798.869	36.41
799.046	34.55
799.222	36.5
799.399	36.53
799.575	37.54
799.752	37.2
799.928	36.67
800.105	35.31
800.281	35.3
800.458	34.16
800.634	33.3
800.811	32.57
800.987	34.07
801.163	31.84
801.34	31.71
801.516	30.84
801.692	31.48
801.869	31.55
802.045	32.78
802.221	32.5
802.398	33.02
802.574	33.34
802.75	32.2
802.926	31.56
803.103	33.02
803.279	34.07
803.455	34.81
803.631	35.32
803.807	34.94
803.983	33.75
804.16	34.06
804.336	33.75
804.512	33.76
804.688	34.94
804.864	35.87
805.04	34.48
805.216	33.11
805.392	32.83
805.568	34.15
805.744	35.51
805.92	35.81
806.096	35.87
806.272	36.74
806.448	37.33
806.623	38.1
806.799	37.81
806.975	39.32
807.151	39.63
807.327	38.47
807.503	36.37
807.678	35.29
807.854	36.33
808.03	36.58
808.206	36.21
808.381	35.44
808.557	35.28
808.733	36
808.908	35.6
809.084	36.05
809.26	37.37
809.435	37.12
809.611	37.47
809.787	35.63
809.962	35.24
810.138	34.9
810.313	35.67
810.489	34.99
810.664	33.52
810.84	33.34
811.015	34.11
811.191	34
811.366	34.41
811.542	34.55
811.717	34.82
811.892	35.21
812.068	35.96
812.243	35.04
812.419	36.23
812.594	36.43
812.769	36.5
812.944	35.14
813.12	34.27
813.295	35.37
813.47	34.87
813.645	35.63
813.821	35.02
813.996	35.56
814.171	35.23
814.346	34.88
814.521	35.78
814.697	36.23
814.872	36.7
815.047	37.36
815.222	37.9
815.397	38.58
815.572	37.68
815.747	37.05
815.922	37.82
816.097	38.11
816.272	37.09
816.447	36.6
816.622	37.11
816.797	37.88
816.972	38.69
817.147	37.82
817.322	37.48
817.496	38.63
817.671	40.42
817.846	38.68
818.021	37.59
818.196	37.1
818.371	35.57
818.545	34.97
818.72	35.73
818.895	35.2
819.069	34.68
819.244	35.04
819.419	34.93
819.594	34.4
819.768	34.44
819.943	36.17
820.117	37.17
820.292	38.25
820.467	38.08
820.641	37.22
820.816	37.42
820.99	37.25
821.165	36.78
821.339	36.63
821.514	36.48
821.688	36.48
821.863	36.16
822.037	35.78
822.212	35.56
822.386	35.39
822.56	35.16
822.735	34.82
822.909	34.58
823.084	34.75
823.258	34.63
823.432	34.67
823.606	34.5
823.781	34.58
823.955	34.77
824.129	34.69
824.303	35.13
824.478	35.22
824.652	35.37
824.826	35.74
825	35.36
825.174	35.24
825.348	34.9
825.523	34.73
825.697	34.64
825.871	34.27
826.045	34.32
826.219	34.12
826.393	34.29
826.567	34.17
826.741	34.59
826.915	34.87
827.089	35.61
827.263	35.34
827.437	35.21
827.611	35.29
827.784	35.2
827.958	35.31
828.132	34.53
828.306	34.52
828.48	34.87
828.654	34.47
828.827	33.88
829.001	33.34
829.175	34.41
829.349	35.04
829.522	34.96
829.696	35.4
829.87	36.05
830.044	37.94
830.217	38.99
830.391	38.42
830.565	38.03
830.738	39.88
830.912	40.07
831.085	39.14
831.259	39.4
831.432	37.85
831.606	38.44
831.779	36.88
831.953	35.55
832.126	34.14
832.3	34.59
832.473	35.39
832.647	34.39
832.82	33.81
832.994	34.14
833.167	34.47
833.34	35.4
833.514	35.65
833.687	35.72
833.86	36.39
834.034	36.51
834.207	36.95
834.38	36.27
834.553	36.78
834.727	37.24
834.9	37.58
835.073	37.75
835.246	38.28
835.419	38.25
835.593	38.83
835.766	38.47
835.939	39.53
836.112	39.93
836.285	40.38
836.458	39.78
836.631	39.95
836.804	39.53
836.977	39.05
837.15	38.49
837.323	37.91
837.496	36.61
837.669	34.66
837.842	34.54
838.015	32.9
838.188	33.26
838.361	32.94
838.533	33.96
838.706	35.62
838.879	34.56
839.052	32.52
839.225	31.9
839.398	33.66
839.57	35.76
839.743	35.71
839.916	35.37
840.088	36.2
840.261	36.1
840.434	34.84
840.607	32.42
840.779	33.94
840.952	36.06
841.124	37.94
841.297	36.11
841.47	34.79
841.642	33.47
841.815	35
841.987	35.02
842.16	35.62
842.332	34.98
842.505	34.27
842.677	33.08
842.85	33.21
843.022	31.1
843.194	32.66
843.367	35.71
843.539	36
843.712	32.51
843.884	30.21
844.056	27.12
844.229	27.93
844.401	32.72
844.573	34.32
844.745	34.31
844.918	36.27
845.09	35.87
845.262	34.8
845.434	34.9
845.606	39.28
845.779	42.71
845.951	45.12
846.123	43.97
846.295	42.86
846.467	39.79
846.639	42.61
846.811	45.37
846.983	45.63
847.155	46
847.327	47.48
847.499	45.41
847.671	42.84
847.843	43.3
848.015	42.34
848.187	40.73
848.359	44.03
848.531	40.14
848.703	35.92
848.875	37.09
849.047	35.02
849.218	33.71
849.39	37.64
849.562	36.85
849.734	37.83
849.905	39.09
850.077	41.62
850.249	40.66
850.421	37.65
850.592	35.07
850.764	31.83
850.936	31.49
851.107	33.58
851.279	31.3
851.451	35.53
851.622	34.61
851.794	36.48
851.965	31.99
852.137	30.21
852.308	34.46
852.48	36.45
852.651	35.49
852.823	36.43
852.994	33.97
853.166	33.58
853.337	31.25
853.509	32.24
853.68	31.87
853.851	35.35
854.023	34.9
854.194	37.08
854.365	37.73
854.537	38.33
854.708	39
854.879	40.62
855.05	42.98
855.222	45.89
855.393	44.86
855.564	42.85
855.735	45.86
855.906	45.87
856.078	45.43
856.249	49.76
856.42	51.63
856.591	50.95
856.762	51.15
856.933	47.17
857.104	43.51
857.275	45.95
857.446	45.65
857.617	44.62
857.788	49.01
857.959	48.22
858.13	45.6
858.301	46.89
858.472	48.42
858.643	48
858.814	49.42
858.985	49.52
859.155	50.09
859.326	53.07
859.497	50.3
859.668	47.16
859.839	42.52
860.009	43.08
860.18	40.49
860.351	38.43
860.522	40.79
860.692	40.94
860.863	43.38
861.034	42.95
861.204	40.96
861.375	41.6
861.546	44.26
861.716	49.54
861.887	49.27
862.057	49.93
862.228	50.79
862.398	50.01
862.569	50.26
862.739	47.91
862.91	45.11
863.08	43.57
863.251	40.06
863.421	34.9
863.592	33.76
863.762	31.46
863.932	33.87
864.103	34.47
864.273	32.43
864.443	31.17
864.614	29.94
864.784	31.51
864.954	34.65
865.125	40.45
865.295	41.13
865.465	41.68
865.635	42.07
865.805	41.37
865.976	38.06
866.146	36.03
866.316	33.64
866.486	34.77
866.656	37.68
866.826	38.16
866.996	35.54
867.166	39.69
867.336	42.7
867.506	44.5
867.676	46.33
867.846	47.43
868.016	46.42
868.186	51.57
868.356	52.91
868.526	46.74
868.696	48.61
868.866	48.05
869.036	46.52
869.206	39.94
869.376	42.61
869.545	37.71
869.715	40.19
869.885	42.14
870.055	35.58
870.224	37.59
870.394	39.13
870.564	37.77
870.734	39.66
870.903	37.65
871.073	39.98
871.243	37.84
871.412	41.5
871.582	42.26
871.751	46.27
871.921	52.31
872.091	49.29
872.26	51.34
872.43	50.77
872.599	47.78
872.769	50.18
872.938	47.11
873.108	47.23
873.277	45.48
873.446	45.34
873.616	42.17
873.785	44.77
873.955	41.57
874.124	39.71
874.293	36.85
874.463	38.57
874.632	38.27
874.801	41.31
874.971	40.86
875.14	42.99
875.309	42.17
875.478	44.5
875.647	37.31
875.817	41.44
875.986	43.24
876.155	47.29
876.324	49.36
876.493	47.73
876.662	45.7
876.831	44.4
877	41.2
877.17	41.63
877.339	41.14
877.508	43.43
877.677	46.1
877.846	47.75
878.015	44.75
878.184	44.01
878.352	44.49
878.521	44.09
878.69	44.3
878.859	45.14
879.028	46.69
879.197	46.16
879.366	43.22
879.534	39.83
879.703	38.86
879.872	39.51
880.041	37
880.21	36.38
880.378	38.13
880.547	37.12
880.716	36.97
880.884	35.49
881.053	34.37
881.222	35.7
881.39	35.92
881.559	35.67
881.727	35.54
881.896	35.23
882.065	35.92
882.233	35.65
882.402	36.26
882.57	36.26
882.739	36.17
882.907	37.15
883.076	36.98
883.244	36.46
883.412	36.67
883.581	36.82
883.749	38.14
883.918	38.18
884.086	37.9
884.254	38.18
884.423	37.46
884.591	37.95
884.759	37.05
884.927	37.27
885.096	37.87
885.264	38.12
885.432	38.38
885.6	37.21
885.769	36.13
885.937	35.8
886.105	35.46
886.273	37.06
886.441	36
886.609	38.55
886.777	37.01
886.945	38.3
887.113	37.78
887.281	36.52
887.449	35.44
887.617	33.82
887.785	36.5
887.953	36.16
888.121	36.82
888.289	38.52
888.457	34.7
888.625	32.69
888.793	33.27
888.961	32.89
889.129	36.28
889.296	35.99
889.464	39.19
889.632	37.06
889.8	34.9
889.967	33.44
890.135	30.73
