Data from 2938461_Reflection_1.txt Node
Date: Wed Jun 17 14:00:55 EDT 2015
User: robert
Spectrometer: USB4E03002
Autoset integration time: false
Trigger mode: 4
Integration Time (sec): 1.000000E-1
Scans to average: 10
Electric dark correction enabled: true
Nonlinearity correction enabled: false
Boxcar width: 5
Stray light correction enabled: false
XAxis mode: Wavelengths
Stop averaging: false
Number of Pixels in Spectrum: 3648
>>>>>Begin Spectral Data<<<<<
177.575	-223.8
177.794	-414.75
178.014	-252.56
178.233	-622.72
178.452	634.82
178.672	523.33
178.891	-55.45
179.11	-367.37
179.33	4079.17
179.549	-8208.64
179.768	-681.34
179.987	-150.22
180.207	-843.47
180.426	-196.67
180.645	233.02
180.864	185.64
181.084	161.16
181.303	168.72
181.522	142.4
181.741	235.98
181.96	240.66
182.179	302.84
182.398	275.41
182.618	198.12
182.837	226.76
183.056	711.39
183.275	452.86
183.494	548.61
183.713	463.38
183.932	4037.61
184.151	1487.17
184.37	720.19
184.589	327.59
184.808	297.38
185.027	987.2
185.246	522.22
185.465	319.01
185.684	348.74
185.903	359.75
186.122	267.88
186.341	157.5
186.56	150.8
186.779	200.28
186.998	293.27
187.216	175.93
187.435	155.69
187.654	159.82
187.873	162.47
188.092	188.2
188.311	183.09
188.53	194.04
188.748	213.5
188.967	220.13
189.186	244.1
189.405	292.18
189.623	273.96
189.842	497.43
190.061	-3704.8
190.28	-269.38
190.498	-219.18
190.717	-1294.63
190.936	-495.02
191.154	-357.94
191.373	-359.61
191.592	-1877.1
191.81	402.47
192.029	-1028.26
192.248	1282.49
192.466	519.15
192.685	167.52
192.904	198.68
193.122	203.55
193.341	232.11
193.559	227.15
193.778	187.35
193.996	220.59
194.215	250.29
194.433	221.2
194.652	214.7
194.87	192.04
195.089	212.72
195.307	220.38
195.526	415.76
195.744	342.65
195.963	277.9
196.181	283.17
196.399	196.88
196.618	187.87
196.836	190.93
197.055	191.96
197.273	190.19
197.491	162.13
197.71	133.77
197.928	127.02
198.146	105.43
198.365	127.65
198.583	115.32
198.801	129.47
199.019	142.26
199.238	141.96
199.456	148.75
199.674	143.31
199.892	187.28
200.111	201.71
200.329	246.27
200.547	205.97
200.765	148.99
200.983	178.23
201.202	175.44
201.42	164.66
201.638	187.21
201.856	171.03
202.074	152.11
202.292	138.55
202.51	147.32
202.728	124.82
202.946	148.28
203.165	156.28
203.383	119.5
203.601	120.39
203.819	122.95
204.037	134.65
204.255	100.09
204.473	105.98
204.691	115.29
204.909	130.21
205.127	98.43
205.345	97.88
205.562	109.56
205.78	145.8
205.998	173.64
206.216	186.17
206.434	131.43
206.652	170.31
206.87	172.33
207.088	184.84
207.306	191.98
207.523	214.8
207.741	207.17
207.959	204.42
208.177	213.6
208.395	166.59
208.612	157.09
208.83	186.05
209.048	147.31
209.266	140.37
209.483	130
209.701	110.85
209.919	105.6
210.136	117.26
210.354	104.59
210.572	87.19
210.79	91.39
211.007	100.21
211.225	88.16
211.442	104.39
211.66	104.66
211.878	104.82
212.095	183.95
212.313	185.36
212.53	168.43
212.748	179.83
212.966	208.18
213.183	213.06
213.401	173.7
213.618	150.6
213.836	151.11
214.053	137.64
214.271	121.86
214.488	61.67
214.705	68.32
214.923	74.22
215.14	79.01
215.358	83.89
215.575	81.62
215.793	93.71
216.01	108.67
216.227	106.51
216.445	99.97
216.662	123.14
216.879	108.85
217.097	100.93
217.314	107.01
217.531	118.29
217.749	109.55
217.966	105.37
218.183	100.92
218.4	97.79
218.618	79.66
218.835	80.07
219.052	50.42
219.269	54.19
219.487	57.65
219.704	39.11
219.921	29.37
220.138	22.9
220.355	26.67
220.572	28.13
220.79	31.59
221.007	46.51
221.224	53.35
221.441	49.85
221.658	45.22
221.875	47.21
222.092	46.94
222.309	52.27
222.526	64.21
222.743	64.21
222.96	66.71
223.177	64.32
223.394	58.01
223.611	52.15
223.828	59.6
224.045	61.29
224.262	55.67
224.479	51.03
224.696	49.74
224.913	42.77
225.13	38.7
225.347	34.79
225.564	34.38
225.781	30.16
225.997	30.42
226.214	27.86
226.431	23.9
226.648	23.19
226.865	22.75
227.082	21.79
227.298	21.29
227.515	21.36
227.732	20.71
227.949	19.67
228.165	19.95
228.382	18.3
228.599	17.36
228.816	18.24
229.032	18.25
229.249	18.23
229.466	17.67
229.682	17.57
229.899	18.33
230.116	19.3
230.332	18.26
230.549	17.67
230.765	20.32
230.982	21.27
231.199	23.43
231.415	22.89
231.632	23.96
231.848	26.65
232.065	26.84
232.281	25.85
232.498	24.24
232.714	26.87
232.931	28.84
233.147	29.51
233.364	28.17
233.58	28.91
233.797	30.46
234.013	31.09
234.23	27.3
234.446	28.68
234.662	26.91
234.879	28.04
235.095	27.69
235.312	28.29
235.528	28.47
235.744	28.14
235.961	26.7
236.177	24.66
236.393	25.64
236.61	25.51
236.826	23.28
237.042	26.01
237.258	26.96
237.475	26.08
237.691	25.21
237.907	23.24
238.123	23.86
238.339	23.05
238.556	24.23
238.772	22.95
238.988	23.28
239.204	21.98
239.42	20.87
239.636	20.16
239.853	20.36
240.069	20.01
240.285	18.61
240.501	17.96
240.717	17.11
240.933	16.69
241.149	15.64
241.365	16.18
241.581	17.04
241.797	17.16
242.013	16.5
242.229	15.84
242.445	15.25
242.661	15.97
242.877	16.74
243.093	16.64
243.309	16.44
243.525	16.06
243.741	14.02
243.957	13.08
244.173	12.54
244.388	12.36
244.604	11.93
244.82	11.73
245.036	11.81
245.252	11.29
245.468	11.55
245.683	11.86
245.899	12.27
246.115	12.81
246.331	12.91
246.547	12.74
246.762	13
246.978	13.15
247.194	13.98
247.409	14.03
247.625	14.04
247.841	14.27
248.057	13.71
248.272	14.06
248.488	13.66
248.703	13.24
248.919	13.44
249.135	13.39
249.35	14.17
249.566	13.51
249.782	12.67
249.997	13.62
250.213	13.16
250.428	12.55
250.644	12.13
250.859	12.94
251.075	13.34
251.29	13.67
251.506	13.89
251.721	13.47
251.937	13.08
252.152	13.8
252.368	13.98
252.583	15.16
252.798	16.69
253.014	17.69
253.229	17.75
253.445	18.07
253.66	18.81
253.875	18.47
254.091	19.35
254.306	19.07
254.521	18.87
254.737	17.37
254.952	16.09
255.167	15.09
255.383	14.71
255.598	13.81
255.813	12.57
256.028	12.06
256.244	11.9
256.459	10.9
256.674	10.79
256.889	10.74
257.104	10.22
257.32	10.05
257.535	9.66
257.75	9.25
257.965	9.24
258.18	9.32
258.395	9.21
258.61	8.88
258.826	9.01
259.041	9.12
259.256	9.02
259.471	9.32
259.686	9.34
259.901	9.91
260.116	9.94
260.331	10.14
260.546	10.35
260.761	10.24
260.976	10.75
261.191	10.64
261.406	10.54
261.621	10.75
261.836	10.73
262.05	11.01
262.265	10.54
262.48	10.96
262.695	10.27
262.91	10.27
263.125	9.9
263.34	10.03
263.555	9.51
263.769	9.82
263.984	9.21
264.199	10.56
264.414	10.79
264.629	10.82
264.843	10.61
265.058	10.69
265.273	10.88
265.488	11.11
265.702	10.96
265.917	11.25
266.132	11.17
266.346	11.38
266.561	10.74
266.776	10.83
266.99	10.78
267.205	10.15
267.42	10.15
267.634	10.11
267.849	10.44
268.063	10.41
268.278	11.05
268.492	10.75
268.707	10.83
268.922	10.25
269.136	9.61
269.351	9.71
269.565	10.06
269.78	9.71
269.994	9.73
270.209	9.56
270.423	9.69
270.637	9.14
270.852	9.28
271.066	9.56
271.281	9.73
271.495	9.66
271.709	9.85
271.924	9.93
272.138	9.99
272.353	9.88
272.567	9.87
272.781	9.6
272.996	9.73
273.21	10.02
273.424	9.92
273.638	9.75
273.853	9.98
274.067	9.31
274.281	9.48
274.495	9.81
274.71	10.14
274.924	9.92
275.138	10.02
275.352	9.58
275.566	9.37
275.781	9.37
275.995	10.07
276.209	9.85
276.423	10.5
276.637	10.01
276.851	10.21
277.065	9.98
277.279	10.87
277.493	11.44
277.707	11.69
277.921	11.47
278.135	10.96
278.349	10.49
278.563	10.65
278.777	9.94
278.991	10.21
279.205	9.96
279.419	9.8
279.633	8.6
279.847	8.23
280.061	8.72
280.275	8.68
280.489	9.29
280.703	9.27
280.917	9.13
281.131	9.5
281.344	9.57
281.558	9.09
281.772	9.07
281.986	9.34
282.2	9.17
282.414	8.76
282.627	8.79
282.841	8.36
283.055	8.16
283.269	8.54
283.482	8.67
283.696	8.47
283.91	8.89
284.123	9.02
284.337	9.12
284.551	9.19
284.764	9.4
284.978	9.6
285.192	9.71
285.405	9.97
285.619	9.94
285.833	9.73
286.046	9.43
286.26	9.91
286.473	9.57
286.687	9.78
286.9	9.67
287.114	9.24
287.327	8.79
287.541	8.78
287.754	8.63
287.968	7.94
288.181	7.43
288.395	8.27
288.608	7.72
288.822	7.56
289.035	7.2
289.248	7.34
289.462	7.74
289.675	8.03
289.889	8.17
290.102	7.98
290.315	8.37
290.529	9.26
290.742	8.9
290.955	9.24
291.169	9.58
291.382	10.22
291.595	10.35
291.808	10.43
292.022	10.07
292.235	9.83
292.448	10.53
292.661	10.55
292.875	10.14
293.088	10.12
293.301	10.18
293.514	9.96
293.727	9.78
293.94	9.49
294.153	9.47
294.367	9.49
294.58	9.23
294.793	8.8
295.006	9.18
295.219	9.46
295.432	9.28
295.645	9.11
295.858	9.46
296.071	9.4
296.284	9.35
296.497	9.2
296.71	9.38
296.923	10
297.136	9.92
297.349	9.79
297.562	9.62
297.775	9.81
297.988	10.09
298.201	10.11
298.414	9.91
298.626	10.26
298.839	10.5
299.052	10.43
299.265	9.78
299.478	10.03
299.691	10.1
299.903	9.96
300.116	10.23
300.329	9.82
300.542	9.63
300.755	9.73
300.967	9.81
301.18	9.34
301.393	9.29
301.605	9.43
301.818	9.55
302.031	9.56
302.243	9.49
302.456	9.58
302.669	9.38
302.881	9.66
303.094	9.29
303.307	9.11
303.519	9.9
303.732	10.19
303.944	10.31
304.157	10.35
304.37	10.26
304.582	10.7
304.795	10.48
305.007	11.06
305.22	11.11
305.432	11.43
305.645	11.28
305.857	11.02
306.069	11.06
306.282	11.07
306.494	11.44
306.707	11.9
306.919	11.78
307.132	11.75
307.344	11.66
307.556	11.87
307.769	12.08
307.981	12.25
308.193	12.1
308.406	11.63
308.618	12.01
308.83	11.65
309.043	11.04
309.255	11.06
309.467	10.77
309.679	10.59
309.892	10.21
310.104	10.01
310.316	10.19
310.528	10.26
310.74	10.5
310.953	10.05
311.165	9.98
311.377	10.09
311.589	10.14
311.801	10.42
312.013	10.72
312.225	10.24
312.437	10.73
312.649	10.55
312.862	10.28
313.074	10.51
313.286	10.46
313.498	10.59
313.71	11.04
313.922	11.03
314.134	11.02
314.346	10.57
314.558	11.43
314.77	11.31
314.982	11.61
315.193	12.21
315.405	11.82
315.617	11.96
315.829	11.84
316.041	11.9
316.253	11.74
316.465	11.88
316.677	12.32
316.888	12.31
317.1	12.11
317.312	12.25
317.524	12.04
317.736	12.72
317.947	12.33
318.159	12.54
318.371	12.6
318.583	13.07
318.794	13.64
319.006	14.25
319.218	13.98
319.43	14.07
319.641	14.05
319.853	14.01
320.064	13.88
320.276	14.49
320.488	14.58
320.699	14.23
320.911	13.54
321.123	12.62
321.334	11.94
321.546	12.17
321.757	12.41
321.969	12.46
322.18	12.43
322.392	12.13
322.603	12.07
322.815	11.9
323.026	11.69
323.238	12.14
323.449	12.32
323.661	12.27
323.872	12.08
324.083	11.91
324.295	11.79
324.506	11.54
324.718	11.37
324.929	11.91
325.14	11.86
325.352	11.95
325.563	12.18
325.774	12.57
325.986	13.04
326.197	13.2
326.408	13.29
326.62	13.08
326.831	13.74
327.042	14
327.253	13.91
327.464	14.01
327.676	13.94
327.887	13.57
328.098	13.2
328.309	13.27
328.52	13.13
328.732	13.05
328.943	12.99
329.154	12.27
329.365	12.43
329.576	12.05
329.787	12.24
329.998	12.49
330.209	12.35
330.42	12.34
330.631	12.07
330.842	12.16
331.053	11.73
331.264	11.44
331.475	11.65
331.686	11.87
331.897	11.47
332.108	11.45
332.319	11.47
332.53	11.42
332.741	11.58
332.952	11.34
333.163	11.4
333.374	11.96
333.585	12.38
333.795	12.69
334.006	12.44
334.217	12.94
334.428	13.16
334.639	13.25
334.849	13.55
335.06	13.4
335.271	13.23
335.482	12.75
335.692	12.55
335.903	12.36
336.114	11.89
336.325	12.12
336.535	11.91
336.746	11.93
336.957	11.76
337.167	12.06
337.378	12.37
337.589	12.4
337.799	12.39
338.01	12.75
338.22	12.87
338.431	12.72
338.642	12.59
338.852	12.42
339.063	12.23
339.273	12.05
339.484	11.44
339.694	11.06
339.905	11.26
340.115	11.82
340.326	11.62
340.536	11.71
340.746	12.14
340.957	11.8
341.167	11.83
341.378	11.5
341.588	11.77
341.799	12.1
342.009	12.25
342.219	12.01
342.43	11.76
342.64	11.51
342.85	11.62
343.061	11.32
343.271	11.67
343.481	11.59
343.691	11.27
343.902	10.78
344.112	10.46
344.322	10.51
344.532	10.61
344.743	10.38
344.953	10.34
345.163	9.98
345.373	9.98
345.583	9.51
345.793	9.47
346.004	10.1
346.214	10.37
346.424	10.45
346.634	10.3
346.844	10.06
347.054	10.54
347.264	10.77
347.474	10.93
347.684	10.74
347.894	10.69
348.104	10.87
348.314	10.71
348.524	10.79
348.734	10.64
348.944	10.59
349.154	10.89
349.364	10.28
349.574	9.72
349.784	9.57
349.994	9.99
350.204	10.03
350.413	10.27
350.623	10.28
350.833	10.33
351.043	10.34
351.253	10.19
351.463	9.78
351.672	10.11
351.882	10.64
352.092	10.87
352.302	10.53
352.511	10.73
352.721	10.6
352.931	10.48
353.141	10.03
353.35	10.38
353.56	10.43
353.77	10.44
353.979	10.33
354.189	9.93
354.399	9.51
354.608	9.44
354.818	9.49
355.027	9.24
355.237	9.12
355.447	9.13
355.656	8.89
355.866	9.12
356.075	9.28
356.285	9.3
356.494	9.49
356.704	9.63
356.913	9.49
357.123	9.24
357.332	8.83
357.542	8.65
357.751	8.8
357.96	8.65
358.17	8.36
358.379	8.34
358.589	8.59
358.798	8.6
359.007	8.54
359.217	8.61
359.426	8.68
359.635	9.03
359.845	9.12
360.054	9.12
360.263	9.22
360.472	9.22
360.682	9.15
360.891	8.99
361.1	9.04
361.309	8.94
361.519	9.18
361.728	9.04
361.937	9.1
362.146	9.31
362.355	9.22
362.564	9.37
362.774	9.3
362.983	9.21
363.192	9.1
363.401	8.63
363.61	8.68
363.819	8.67
364.028	8.71
364.237	8.34
364.446	7.86
364.655	7.82
364.864	7.77
365.073	7.91
365.282	7.96
365.491	8.08
365.7	8.38
365.909	8.28
366.118	8.35
366.327	8.31
366.536	8.83
366.745	9.12
366.954	9.16
367.162	8.69
367.371	8.73
367.58	8.92
367.789	8.65
367.998	8.29
368.207	8.55
368.415	8.33
368.624	8.38
368.833	8.16
369.042	7.92
369.25	8.13
369.459	8.59
369.668	8.48
369.877	8.16
370.085	8.24
370.294	8.46
370.503	8.01
370.711	8.3
370.92	8.22
371.129	8.15
371.337	8.27
371.546	8.05
371.754	8.07
371.963	8.01
372.171	8.01
372.38	8.04
372.589	8.14
372.797	8.51
373.006	7.92
373.214	8.32
373.423	8.16
373.631	8.13
373.84	8.23
374.048	8.11
374.256	8.12
374.465	8.35
374.673	8.45
374.882	8.53
375.09	8.49
375.298	8.41
375.507	8.23
375.715	8.37
375.923	8.47
376.132	8.4
376.34	8.14
376.548	8.07
376.757	8.12
376.965	8.02
377.173	7.77
377.381	7.84
377.59	8.15
377.798	7.93
378.006	7.89
378.214	7.77
378.423	7.85
378.631	7.9
378.839	7.95
379.047	7.55
379.255	7.68
379.463	7.41
379.671	7.05
379.879	6.96
380.088	7.19
380.296	7.07
380.504	7.26
380.712	7.24
380.92	7.26
381.128	7.34
381.336	7.5
381.544	7.17
381.752	7.39
381.96	7.45
382.168	7.31
382.376	7.22
382.584	7.15
382.791	7.13
382.999	7.18
383.207	7.01
383.415	7.04
383.623	7.11
383.831	7.25
384.039	7.37
384.247	7.46
384.454	7.38
384.662	7.41
384.87	7.41
385.078	7.4
385.285	7.09
385.493	7.23
385.701	6.98
385.909	6.86
386.116	6.91
386.324	6.46
386.532	6.44
386.739	6.47
386.947	6.44
387.155	6.6
387.362	6.33
387.57	6.37
387.778	6.33
387.985	6.39
388.193	6.35
388.4	6.19
388.608	6.6
388.816	6.36
389.023	6.36
389.231	6.34
389.438	6.21
389.646	6.16
389.853	6.05
390.061	6
390.268	6.06
390.475	6.13
390.683	6.15
390.89	6
391.098	6.11
391.305	6.12
391.512	5.99
391.72	6.1
391.927	6.13
392.135	5.97
392.342	6.17
392.549	5.96
392.756	5.95
392.964	5.99
393.171	6.15
393.378	6.19
393.586	6.23
393.793	6.31
394	6.24
394.207	6.35
394.414	6.64
394.622	6.42
394.829	6.48
395.036	6.41
395.243	6.42
395.45	6.29
395.657	6.18
395.864	6.02
396.072	5.97
396.279	5.76
396.486	5.62
396.693	5.72
396.9	5.63
397.107	5.78
397.314	6.03
397.521	5.79
397.728	5.76
397.935	6.12
398.142	6.25
398.349	6.17
398.556	6.52
398.763	6.44
398.97	6.52
399.177	6.68
399.383	6.56
399.59	6.31
399.797	6.41
400.004	6.46
400.211	6.18
400.418	6.29
400.625	6.48
400.831	6.02
401.038	6.04
401.245	6.04
401.452	5.92
401.658	5.83
401.865	5.93
402.072	5.85
402.279	5.81
402.485	5.74
402.692	5.75
402.899	5.63
403.105	5.74
403.312	5.81
403.519	5.77
403.725	5.73
403.932	5.88
404.138	5.73
404.345	5.91
404.552	6.04
404.758	6.18
404.965	6.08
405.171	6.01
405.378	6.17
405.584	6.17
405.791	5.89
405.997	6.01
406.204	5.98
406.41	6.1
406.617	5.82
406.823	5.82
407.029	5.84
407.236	5.95
407.442	6.12
407.649	6.08
407.855	5.91
408.061	6.02
408.268	5.94
408.474	5.88
408.68	5.8
408.887	6.03
409.093	5.78
409.299	5.65
409.505	5.56
409.712	5.5
409.918	5.42
410.124	5.62
410.33	5.53
410.537	5.46
410.743	5.58
410.949	5.69
411.155	5.63
411.361	5.63
411.567	5.67
411.773	5.54
411.98	5.63
412.186	5.52
412.392	5.46
412.598	5.54
412.804	5.56
413.01	5.39
413.216	5.47
413.422	5.46
413.628	5.52
413.834	5.47
414.04	5.46
414.246	5.26
414.452	5.42
414.658	5.35
414.864	5.39
415.07	5.42
415.275	5.36
415.481	5.24
415.687	5.18
415.893	5.21
416.099	5.11
416.305	5.01
416.511	5.18
416.716	5.12
416.922	5.2
417.128	5.16
417.334	5.23
417.539	5.26
417.745	5.24
417.951	5.27
418.157	5.31
418.362	5.32
418.568	5.39
418.774	5.23
418.979	5.29
419.185	5.19
419.391	5.16
419.596	5.13
419.802	5.1
420.008	5.14
420.213	5.13
420.419	5.06
420.624	5.05
420.83	5.01
421.035	5.01
421.241	4.99
421.446	5.04
421.652	5
421.857	4.97
422.063	4.95
422.268	4.86
422.474	4.92
422.679	4.97
422.885	4.98
423.09	4.96
423.295	4.93
423.501	4.88
423.706	4.87
423.911	4.9
424.117	5.02
424.322	5.03
424.527	5.03
424.733	5.02
424.938	4.97
425.143	5.04
425.349	5.12
425.554	5.21
425.759	5.16
425.964	5.16
426.169	5.19
426.375	5.04
426.58	5.11
426.785	5.18
426.99	5.12
427.195	5.13
427.4	4.97
427.605	4.98
427.811	4.97
428.016	5.01
428.221	5.09
428.426	5.01
428.631	5.13
428.836	5.19
429.041	5.11
429.246	5.08
429.451	5.15
429.656	5.19
429.861	5.21
430.066	5.36
430.271	5.44
430.476	5.38
430.681	5.37
430.886	5.28
431.09	5.27
431.295	5.3
431.5	5.23
431.705	5.16
431.91	5.32
432.115	5.28
432.32	5.03
432.524	4.91
432.729	4.9
432.934	5.02
433.139	4.94
433.343	4.9
433.548	4.93
433.753	5.02
433.958	5.04
434.162	4.95
434.367	4.99
434.572	5.16
434.776	5.2
434.981	5.11
435.186	4.89
435.39	4.94
435.595	4.9
435.799	4.82
436.004	4.8
436.209	4.69
436.413	4.64
436.618	4.53
436.822	4.42
437.027	4.45
437.231	4.59
437.436	4.65
437.64	4.72
437.845	4.7
438.049	4.81
438.253	4.82
438.458	4.79
438.662	4.83
438.867	4.92
439.071	5.09
439.275	5.06
439.48	4.99
439.684	5.04
439.888	4.93
440.093	4.99
440.297	4.92
440.501	4.85
440.706	4.91
440.91	4.94
441.114	4.88
441.318	4.7
441.523	4.73
441.727	4.83
441.931	5.02
442.135	5.11
442.339	5.06
442.543	5.14
442.748	5.27
442.952	5.35
443.156	5.31
443.36	5.29
443.564	5.35
443.768	5.28
443.972	5.2
444.176	5.06
444.38	4.97
444.584	4.86
444.788	4.77
444.992	4.65
445.196	4.58
445.4	4.56
445.604	4.5
445.808	4.49
446.012	4.54
446.216	4.49
446.42	4.42
446.624	4.45
446.828	4.51
447.032	4.47
447.235	4.52
447.439	4.53
447.643	4.57
447.847	4.71
448.051	4.75
448.254	4.76
448.458	4.89
448.662	4.93
448.866	4.94
449.069	4.95
449.273	4.99
449.477	5.02
449.681	5.02
449.884	5.06
450.088	5.04
450.292	5.11
450.495	5
450.699	4.98
450.902	5.02
451.106	4.98
451.31	4.99
451.513	5.05
451.717	5.02
451.92	4.95
452.124	4.82
452.327	4.74
452.531	4.67
452.734	4.72
452.938	4.68
453.141	4.68
453.345	4.66
453.548	4.58
453.752	4.59
453.955	4.64
454.158	4.71
454.362	4.74
454.565	4.74
454.769	4.77
454.972	4.87
455.175	4.91
455.379	4.84
455.582	5.01
455.785	5.1
455.988	5.09
456.192	4.97
456.395	4.94
456.598	5
456.801	5.01
457.005	4.89
457.208	4.84
457.411	4.76
457.614	4.7
457.817	4.61
458.021	4.57
458.224	4.63
458.427	4.62
458.63	4.63
458.833	4.63
459.036	4.63
459.239	4.66
459.442	4.6
459.645	4.52
459.848	4.51
460.051	4.57
460.254	4.65
460.457	4.55
460.66	4.69
460.863	4.72
461.066	4.77
461.269	4.77
461.472	4.79
461.675	4.8
461.878	4.94
462.081	5.13
462.284	5.15
462.486	5.06
462.689	5.04
462.892	5
463.095	4.94
463.298	4.89
463.5	4.97
463.703	4.9
463.906	5.04
464.109	4.98
464.311	4.91
464.514	4.9
464.717	5.02
464.92	4.98
465.122	4.99
465.325	5.06
465.528	5.04
465.73	5.06
465.933	5.03
466.135	4.96
466.338	5.03
466.541	4.98
466.743	4.87
466.946	4.9
467.148	4.94
467.351	4.97
467.553	4.97
467.756	4.99
467.958	4.88
468.161	4.99
468.363	5
468.566	5.02
468.768	5.03
468.971	5.07
469.173	5.02
469.375	4.92
469.578	4.74
469.78	4.81
469.983	4.75
470.185	4.79
470.387	4.77
470.59	4.85
470.792	4.79
470.994	4.87
471.196	4.89
471.399	4.8
471.601	4.97
471.803	5.08
472.005	4.96
472.208	4.9
472.41	4.84
472.612	4.82
472.814	4.7
473.016	4.75
473.218	4.77
473.421	4.8
473.623	4.88
473.825	4.8
474.027	4.78
474.229	4.75
474.431	4.85
474.633	4.94
474.835	4.87
475.037	4.87
475.239	4.85
475.441	4.83
475.643	4.82
475.845	4.76
476.047	4.75
476.249	4.64
476.451	4.65
476.653	4.62
476.855	4.55
477.057	4.51
477.258	4.48
477.46	4.45
477.662	4.4
477.864	4.43
478.066	4.45
478.268	4.47
478.469	4.6
478.671	4.56
478.873	4.64
479.075	4.58
479.276	4.65
479.478	4.72
479.68	4.76
479.882	4.69
480.083	4.6
480.285	4.65
480.487	4.56
480.688	4.51
480.89	4.52
481.091	4.45
481.293	4.47
481.495	4.44
481.696	4.43
481.898	4.42
482.099	4.4
482.301	4.41
482.502	4.37
482.704	4.35
482.905	4.33
483.107	4.33
483.308	4.32
483.51	4.29
483.711	4.29
483.913	4.26
484.114	4.26
484.315	4.26
484.517	4.24
484.718	4.27
484.92	4.28
485.121	4.28
485.322	4.31
485.524	4.32
485.725	4.39
485.926	4.36
486.127	4.43
486.329	4.44
486.53	4.44
486.731	4.46
486.932	4.46
487.134	4.49
487.335	4.51
487.536	4.5
487.737	4.49
487.938	4.44
488.139	4.47
488.341	4.43
488.542	4.4
488.743	4.43
488.944	4.43
489.145	4.42
489.346	4.43
489.547	4.47
489.748	4.45
489.949	4.48
490.15	4.51
490.351	4.51
490.552	4.52
490.753	4.54
490.954	4.53
491.155	4.53
491.356	4.51
491.557	4.52
491.758	4.52
491.959	4.57
492.159	4.56
492.36	4.6
492.561	4.68
492.762	4.64
492.963	4.65
493.164	4.62
493.364	4.68
493.565	4.71
493.766	4.67
493.967	4.66
494.167	4.61
494.368	4.54
494.569	4.48
494.769	4.47
494.97	4.47
495.171	4.49
495.371	4.57
495.572	4.61
495.773	4.6
495.973	4.62
496.174	4.67
496.375	4.75
496.575	4.75
496.776	4.81
496.976	4.78
497.177	4.79
497.377	4.77
497.578	4.8
497.778	4.73
497.979	4.81
498.179	4.81
498.38	4.78
498.58	4.76
498.78	4.85
498.981	4.85
499.181	4.81
499.382	4.88
499.582	4.84
499.782	4.86
499.983	4.93
500.183	4.94
500.383	4.95
500.584	4.99
500.784	4.91
500.984	4.86
501.184	4.74
501.385	4.77
501.585	4.79
501.785	4.85
501.985	4.79
502.185	4.72
502.386	4.73
502.586	4.68
502.786	4.72
502.986	4.82
503.186	4.86
503.386	4.89
503.586	4.99
503.786	5.01
503.987	5.07
504.187	5.04
504.387	5.13
504.587	5.15
504.787	5.19
504.987	5.14
505.187	5.17
505.387	5.23
505.587	5.35
505.786	5.39
505.986	5.37
506.186	5.39
506.386	5.44
506.586	5.4
506.786	5.39
506.986	5.48
507.186	5.48
507.386	5.52
507.585	5.52
507.785	5.51
507.985	5.42
508.185	5.49
508.384	5.43
508.584	5.42
508.784	5.5
508.984	5.5
509.183	5.53
509.383	5.53
509.583	5.57
509.782	5.63
509.982	5.64
510.182	5.71
510.381	5.7
510.581	5.69
510.781	5.75
510.98	5.69
511.18	5.72
511.379	5.69
511.579	5.72
511.778	5.65
511.978	5.53
512.177	5.56
512.377	5.62
512.576	5.58
512.776	5.63
512.975	5.63
513.175	5.74
513.374	5.82
513.573	5.91
513.773	5.96
513.972	6.02
514.172	6.16
514.371	6.22
514.57	6.2
514.77	6.31
514.969	6.33
515.168	6.36
515.367	6.38
515.567	6.32
515.766	6.32
515.965	6.35
516.164	6.35
516.364	6.39
516.563	6.34
516.762	6.35
516.961	6.33
517.16	6.37
517.359	6.31
517.559	6.32
517.758	6.29
517.957	6.33
518.156	6.28
518.355	6.32
518.554	6.33
518.753	6.39
518.952	6.35
519.151	6.38
519.35	6.41
519.549	6.5
519.748	6.53
519.947	6.68
520.146	6.64
520.345	6.77
520.544	6.79
520.743	6.88
520.942	6.85
521.141	6.96
521.339	7.07
521.538	7.09
521.737	7.01
521.936	7.13
522.135	7.12
522.333	7.18
522.532	7.18
522.731	7.29
522.93	7.27
523.129	7.3
523.327	7.26
523.526	7.26
523.725	7.28
523.923	7.35
524.122	7.33
524.321	7.34
524.519	7.39
524.718	7.43
524.917	7.41
525.115	7.42
525.314	7.49
525.512	7.52
525.711	7.56
525.909	7.63
526.108	7.74
526.306	7.73
526.505	7.74
526.703	7.75
526.902	7.73
527.1	7.71
527.299	7.69
527.497	7.69
527.696	7.73
527.894	7.71
528.092	7.72
528.291	7.69
528.489	7.69
528.688	7.72
528.886	7.71
529.084	7.73
529.283	7.74
529.481	7.77
529.679	7.83
529.877	7.85
530.076	7.86
530.274	7.91
530.472	7.98
530.67	8.06
530.869	8.08
531.067	8.12
531.265	8.18
531.463	8.24
531.661	8.31
531.859	8.32
532.057	8.35
532.255	8.4
532.454	8.36
532.652	8.37
532.85	8.41
533.048	8.47
533.246	8.51
533.444	8.54
533.642	8.64
533.84	8.69
534.038	8.71
534.236	8.78
534.434	8.85
534.632	8.9
534.83	8.93
535.027	8.94
535.225	8.91
535.423	8.93
535.621	9
535.819	8.95
536.017	8.92
536.215	8.99
536.412	9.02
536.61	9.02
536.808	9.06
537.006	9.08
537.203	9.11
537.401	9.12
537.599	9.21
537.797	9.19
537.994	9.21
538.192	9.4
538.39	9.4
538.587	9.41
538.785	9.49
538.983	9.53
539.18	9.6
539.378	9.63
539.575	9.72
539.773	9.74
539.97	9.75
540.168	9.79
540.366	9.73
540.563	9.69
540.761	9.7
540.958	9.72
541.155	9.75
541.353	9.73
541.55	9.71
541.748	9.71
541.945	9.73
542.143	9.74
542.34	9.72
542.537	9.8
542.735	9.87
542.932	9.91
543.129	9.93
543.327	9.95
543.524	10.06
543.721	10.13
543.919	10.17
544.116	10.17
544.313	10.27
544.51	10.38
544.708	10.38
544.905	10.45
545.102	10.51
545.299	10.49
545.496	10.54
545.693	10.51
545.891	10.56
546.088	10.62
546.285	10.66
546.482	10.65
546.679	10.68
546.876	10.73
547.073	10.82
547.27	10.82
547.467	10.88
547.664	11
547.861	11.08
548.058	11.09
548.255	11.15
548.452	11.28
548.649	11.44
548.846	11.48
549.043	11.58
549.24	11.53
549.437	11.7
549.633	11.91
549.83	11.95
550.027	12.05
550.224	12.18
550.421	12.28
550.618	12.26
550.814	12.24
551.011	12.26
551.208	12.25
551.405	12.4
551.601	12.35
551.798	12.32
551.995	12.26
552.191	12.26
552.388	12.12
552.585	12.14
552.781	12.2
552.978	12.25
553.175	12.4
553.371	12.44
553.568	12.44
553.764	12.56
553.961	12.51
554.157	12.7
554.354	12.74
554.55	12.91
554.747	12.91
554.943	12.87
555.14	12.87
555.336	12.82
555.533	12.93
555.729	13.01
555.926	13.08
556.122	13.17
556.318	13.2
556.515	13.3
556.711	13.38
556.907	13.48
557.104	13.62
557.3	13.69
557.496	13.7
557.693	13.74
557.889	13.8
558.085	13.73
558.281	13.78
558.478	13.78
558.674	13.91
558.87	13.87
559.066	13.89
559.262	14
559.459	14.02
559.655	14.23
559.851	14.22
560.047	14.24
560.243	14.38
560.439	14.49
560.635	14.55
560.831	14.52
561.027	14.57
561.223	14.65
561.419	14.59
561.615	14.69
561.811	14.73
562.007	14.8
562.203	14.91
562.399	14.85
562.595	14.89
562.791	15.1
562.987	15.17
563.183	15.33
563.379	15.4
563.575	15.49
563.771	15.6
563.966	15.61
564.162	15.76
564.358	15.78
564.554	15.83
564.75	15.87
564.945	15.77
565.141	15.83
565.337	15.86
565.533	15.99
565.728	15.97
565.924	15.93
566.12	15.98
566.315	15.97
566.511	16
566.707	16.27
566.902	16.34
567.098	16.42
567.293	16.5
567.489	16.53
567.684	16.54
567.88	16.68
568.076	16.85
568.271	16.98
568.467	17.06
568.662	17.19
568.858	17.13
569.053	17.18
569.248	17.28
569.444	17.27
569.639	17.36
569.835	17.44
570.03	17.58
570.225	17.57
570.421	17.52
570.616	17.59
570.812	17.72
571.007	17.77
571.202	17.96
571.397	18.08
571.593	18.21
571.788	18.27
571.983	18.33
572.178	18.45
572.374	18.58
572.569	18.73
572.764	18.79
572.959	18.7
573.154	18.75
573.35	18.72
573.545	18.76
573.74	18.81
573.935	18.84
574.13	18.9
574.325	18.77
574.52	18.86
574.715	18.87
574.91	18.92
575.105	19.03
575.3	19.05
575.495	19.12
575.69	19.13
575.885	19.2
576.08	19.25
576.275	19.34
576.47	19.45
576.665	19.41
576.86	19.41
577.055	19.42
577.25	19.62
577.444	19.83
577.639	19.81
577.834	19.89
578.029	19.98
578.224	20.14
578.418	20.1
578.613	20.22
578.808	20.28
579.003	20.41
579.197	20.55
579.392	20.51
579.587	20.58
579.781	20.77
579.976	20.88
580.171	20.87
580.365	20.88
580.56	21
580.755	21.06
580.949	21.2
581.144	21.25
581.338	21.17
581.533	21.31
581.727	21.3
581.922	21.36
582.116	21.35
582.311	21.5
582.505	21.72
582.7	21.81
582.894	21.91
583.089	21.93
583.283	22.13
583.478	22.32
583.672	22.21
583.866	22.25
584.061	22.17
584.255	22.25
584.449	22.29
584.644	22.25
584.838	22.29
585.032	22.31
585.226	22.4
585.421	22.44
585.615	22.39
585.809	22.52
586.003	22.6
586.198	22.73
586.392	22.87
586.586	22.86
586.78	22.91
586.974	22.9
587.168	22.89
587.363	22.85
587.557	22.88
587.751	23.06
587.945	23.14
588.139	23.22
588.333	23.37
588.527	23.29
588.721	23.4
588.915	23.24
589.109	23.28
589.303	23.39
589.497	23.47
589.691	23.49
589.885	23.4
590.079	23.34
590.273	23.26
590.466	23.16
590.66	23.15
590.854	23.07
591.048	23.22
591.242	23.32
591.436	23.4
591.629	23.47
591.823	23.51
592.017	23.78
592.211	24.02
592.404	24.18
592.598	24.17
592.792	24.26
592.986	24.33
593.179	24.31
593.373	24.4
593.567	24.43
593.76	24.41
593.954	24.49
594.147	24.58
594.341	24.56
594.535	24.64
594.728	24.77
594.922	24.81
595.115	24.92
595.309	25.08
595.502	25.05
595.696	25
595.889	25.04
596.083	24.99
596.276	24.98
596.47	24.93
596.663	24.9
596.856	24.99
597.05	25.09
597.243	25.1
597.437	25.14
597.63	25.17
597.823	25.28
598.017	25.35
598.21	25.37
598.403	25.23
598.596	25.36
598.79	25.44
598.983	25.49
599.176	25.42
599.369	25.55
599.563	25.62
599.756	25.68
599.949	25.6
600.142	25.66
600.335	25.87
600.528	25.93
600.722	25.94
600.915	26.05
601.108	26.04
601.301	26.12
601.494	26.12
601.687	26.08
601.88	26.12
602.073	26.27
602.266	26.22
602.459	26.19
602.652	26.1
602.845	26.11
603.038	25.95
603.231	25.97
603.424	25.96
603.617	25.85
603.809	25.75
604.002	25.71
604.195	25.59
604.388	25.54
604.581	25.61
604.774	25.85
604.966	25.86
605.159	25.89
605.352	25.84
605.545	25.86
605.737	26.03
605.93	26.21
606.123	26.24
606.316	26.43
606.508	26.68
606.701	26.72
606.894	26.59
607.086	26.71
607.279	26.65
607.471	26.63
607.664	26.7
607.857	26.83
608.049	26.91
608.242	26.93
608.434	26.8
608.627	26.62
608.819	26.53
609.012	26.51
609.204	26.44
609.397	26.62
609.589	26.61
609.782	26.53
609.974	26.4
610.166	26.42
610.359	26.47
610.551	26.62
610.743	26.87
610.936	27.01
611.128	27.09
611.32	27.14
611.513	27.03
611.705	27.26
611.897	27.35
612.09	27.5
612.282	27.57
612.474	27.71
612.666	27.83
612.858	27.93
613.051	27.95
613.243	27.97
613.435	27.88
613.627	28.04
613.819	28.05
614.011	28.25
614.203	28.18
614.395	28.02
614.588	27.9
614.78	27.89
614.972	27.68
615.164	27.68
615.356	27.82
615.548	27.94
615.74	27.98
615.932	28.03
616.124	27.69
616.315	27.94
616.507	28.11
616.699	28.23
616.891	28.09
617.083	28.29
617.275	28.3
617.467	28.3
617.659	28.36
617.85	28.36
618.042	28.17
618.234	28.43
618.426	28.08
618.618	27.99
618.809	27.85
619.001	28.07
619.193	27.98
619.384	28.01
619.576	28.13
619.768	28.05
619.959	28.13
620.151	28.39
620.343	28.4
620.534	28.45
620.726	28.54
620.917	28.7
621.109	28.48
621.301	28.26
621.492	28.32
621.684	28.1
621.875	28.31
622.067	28.18
622.258	28.13
622.45	28.09
622.641	28.02
622.832	28.08
623.024	27.99
623.215	28.08
623.407	28.34
623.598	28.12
623.789	28.29
623.981	28.17
624.172	28.49
624.363	28.36
624.555	28.4
624.746	28.42
624.937	28.38
625.129	28.43
625.32	28.48
625.511	28.57
625.702	28.6
625.893	28.54
626.085	28.78
626.276	28.62
626.467	28.74
626.658	28.77
626.849	28.79
627.04	28.76
627.231	28.84
627.422	28.89
627.614	28.9
627.805	29.12
627.996	29.15
628.187	28.99
628.378	28.95
628.569	28.96
628.76	28.99
628.951	28.96
629.142	28.96
629.332	28.82
629.523	28.88
629.714	28.8
629.905	28.65
630.096	28.49
630.287	28.42
630.478	28.37
630.669	28.41
630.859	28.57
631.05	28.78
631.241	28.69
631.432	28.87
631.623	28.86
631.813	28.69
632.004	28.73
632.195	28.78
632.385	28.74
632.576	29.02
632.767	29.04
632.957	29.04
633.148	29.13
633.339	29.24
633.529	29.1
633.72	29.16
633.91	29.41
634.101	29.46
634.292	29.61
634.482	29.77
634.673	29.52
634.863	29.7
635.054	29.58
635.244	29.45
635.435	29.44
635.625	29.52
635.815	29.46
636.006	29.27
636.196	29.19
636.387	29.19
636.577	29.2
636.767	29.36
636.958	29.04
637.148	29
637.338	29
637.529	29.11
637.719	29.25
637.909	29.36
638.099	29.65
638.29	29.7
638.48	29.9
638.67	29.94
638.86	29.97
639.05	30.01
639.241	30.06
639.431	29.96
639.621	30.1
639.811	30.07
640.001	29.76
640.191	29.67
640.381	29.67
640.571	29.42
640.761	29.23
640.951	29.11
641.141	29.24
641.331	29.27
641.521	29.54
641.711	29.44
641.901	29.37
642.091	29.65
642.281	29.59
642.471	29.52
642.661	29.65
642.851	30.03
643.041	30.24
643.231	30.13
643.42	30.16
643.61	30.03
643.8	29.86
643.99	29.87
644.18	29.81
644.369	29.88
644.559	30.12
644.749	30.14
644.939	30.01
645.128	29.8
645.318	29.92
645.508	30.24
645.697	30.31
645.887	30.33
646.076	30.41
646.266	30.6
646.456	30.86
646.645	30.83
646.835	30.98
647.024	31.08
647.214	31.26
647.403	31.35
647.593	31.06
647.782	31.1
647.972	31.14
648.161	31.44
648.351	31.28
648.54	30.92
648.73	31.02
648.919	30.85
649.108	30.59
649.298	30.58
649.487	30.62
649.677	30.56
649.866	30.64
650.055	30.94
650.244	30.68
650.434	30.75
650.623	31.14
650.812	30.96
651.002	31.02
651.191	31.14
651.38	31.23
651.569	31.22
651.758	31.24
651.947	31.22
652.137	31.2
652.326	31.18
652.515	31.2
652.704	30.99
652.893	31.27
653.082	31.3
653.271	31.22
653.46	31.23
653.649	31.19
653.838	31.26
654.027	31.12
654.216	30.92
654.405	31.02
654.594	31.11
654.783	31.25
654.972	31.2
655.161	31.4
655.35	31.55
655.539	31.49
655.728	31.53
655.916	31.68
656.105	31.72
656.294	31.98
656.483	32.15
656.672	32.02
656.86	31.83
657.049	31.69
657.238	31.46
657.427	31.52
657.615	31.64
657.804	31.7
657.993	31.62
658.181	31.74
658.37	31.65
658.559	31.48
658.747	31.5
658.936	31.64
659.125	31.34
659.313	31.48
659.502	31.35
659.69	31.21
659.879	31.23
660.067	31.1
660.256	31.15
660.444	31.21
660.633	31.28
660.821	31.42
661.01	31.18
661.198	31.76
661.387	32.02
661.575	32.12
661.763	32.27
661.952	32.21
662.14	32.29
662.328	32.27
662.517	32.31
662.705	32.02
662.893	32
663.082	32.25
663.27	32.15
663.458	31.84
663.646	32.09
663.834	32.25
664.023	32.22
664.211	32.34
664.399	32.31
664.587	32.13
664.775	32.52
664.963	32.46
665.152	32.38
665.34	32.71
665.528	32.74
665.716	32.61
665.904	32.33
666.092	32.54
666.28	32.55
666.468	32.43
666.656	32.41
666.844	32.27
667.032	32.32
667.22	32.28
667.408	32.05
667.596	31.97
667.784	31.89
667.971	31.96
668.159	31.74
668.347	31.58
668.535	31.59
668.723	31.74
668.911	32.03
669.098	31.91
669.286	32.12
669.474	32.25
669.662	32.48
669.849	32.51
670.037	32.72
670.225	32.81
670.413	32.96
670.6	33.03
670.788	32.94
670.976	32.77
671.163	32.66
671.351	32.29
671.538	32.3
671.726	32.21
671.913	32.25
672.101	32.03
672.289	32.17
672.476	32.13
672.664	32.14
672.851	32.06
673.039	32.17
673.226	32.45
673.413	32.85
673.601	32.98
673.788	32.64
673.976	32.65
674.163	32.64
674.35	32.39
674.538	32.4
674.725	32.21
674.912	32.2
675.1	32.35
675.287	32.32
675.474	32.38
675.662	32.1
675.849	32.86
676.036	32.81
676.223	32.83
676.411	33.01
676.598	32.88
676.785	33.41
676.972	33.68
677.159	33.47
677.346	33.65
677.533	33.56
677.721	33.5
677.908	33.19
678.095	33.15
678.282	33.16
678.469	33.17
678.656	33.67
678.843	33.6
679.03	33.45
679.217	33.51
679.404	33.51
679.591	33.31
679.778	33.42
679.964	33.47
680.151	33.47
680.338	33.58
680.525	33.92
680.712	33.47
680.899	33.24
681.086	33.45
681.272	33.33
681.459	33.33
681.646	33.5
681.833	33.63
682.02	33.4
682.206	33.42
682.393	33.04
682.58	32.77
682.766	32.91
682.953	33.04
683.14	32.92
683.326	33.28
683.513	33.24
683.7	33.37
683.886	33.33
684.073	33.29
684.259	33.33
684.446	33.72
684.632	33.69
684.819	33.86
685.005	33.69
685.192	33.6
685.378	33.46
685.565	33.53
685.751	33.59
685.938	33.52
686.124	33.99
686.31	33.99
686.497	34.29
686.683	34.41
686.87	34.12
687.056	34.3
687.242	34.37
687.429	34.18
687.615	33.95
687.801	33.72
687.987	33.72
688.174	33.35
688.36	33.73
688.546	33.47
688.732	33.29
688.918	33.31
689.105	33.55
689.291	33.65
689.477	33.53
689.663	33.93
689.849	34.28
690.035	34.07
690.221	34.21
690.407	34.37
690.593	34.2
690.779	34.19
690.965	34.33
691.151	34.3
691.337	34.05
691.523	34.14
691.709	34.01
691.895	33.73
692.081	33.97
692.267	33.95
692.453	33.73
692.639	33.91
692.825	34.08
693.011	34.26
693.196	34.05
693.382	34.27
693.568	34.11
693.754	34.26
693.94	34.1
694.125	34.01
694.311	34.06
694.497	33.76
694.682	33.72
694.868	33.86
695.054	33.82
695.239	33.98
695.425	33.95
695.611	34.16
695.796	34.11
695.982	34.32
696.168	34.34
696.353	34.26
696.539	34.54
696.724	34.49
696.91	34.04
697.095	34.01
697.281	33.94
697.466	33.95
697.652	34.07
697.837	34.11
698.023	34.17
698.208	34.12
698.393	34.01
698.579	33.77
698.764	33.83
698.949	34.16
699.135	34.23
699.32	34.26
699.505	34.33
699.691	34.23
699.876	33.93
700.061	33.86
700.246	33.97
700.432	34.04
700.617	33.96
700.802	34.09
700.987	34.28
701.172	34.61
701.358	34.21
701.543	34.21
701.728	34.25
701.913	34.27
702.098	34.21
702.283	34.28
702.468	34.36
702.653	34.69
702.838	34.82
703.023	34.54
703.208	34.33
703.393	34.9
703.578	35.38
703.763	35.34
703.948	35.46
704.133	35.61
704.318	35.75
704.503	35.94
704.688	36.16
704.873	35.64
705.057	35.55
705.242	35.56
705.427	35.12
705.612	34.76
705.797	34.51
705.981	34.64
706.166	34.4
706.351	34.49
706.536	34.5
706.72	34.33
706.905	34.75
707.09	35.05
707.274	34.85
707.459	35.25
707.644	35.28
707.828	35.83
708.013	35.56
708.197	35.81
708.382	35.68
708.567	35.37
708.751	35.31
708.936	35.36
709.12	35.01
709.305	34.74
709.489	34.56
709.673	34.28
709.858	34.01
710.042	34.29
710.227	34.26
710.411	34.1
710.596	34.19
710.78	34.23
710.964	34.03
711.149	34.37
711.333	34.38
711.517	34.34
711.702	34.48
711.886	34.65
712.07	34.54
712.254	34.29
712.438	34.41
712.623	34.53
712.807	34.62
712.991	34.66
713.175	34.61
713.359	35.27
713.544	35.02
713.728	35.29
713.912	34.91
714.096	35.04
714.28	35.39
714.464	35.54
714.648	35.43
714.832	35.21
715.016	34.93
715.2	34.65
715.384	34.46
715.568	34.75
715.752	34.12
715.936	34.74
716.12	34.58
716.304	34.72
716.488	34.88
716.671	34.83
716.855	35.28
717.039	35.39
717.223	35.45
717.407	35.21
717.59	35.75
717.774	36.09
717.958	35.86
718.142	36.09
718.325	35.97
718.509	36.13
718.693	36.29
718.877	35.74
719.06	36.06
719.244	36.23
719.428	36.33
719.611	36.06
719.795	36.53
719.978	36.71
720.162	36.35
720.345	36.22
720.529	35.88
720.713	35.98
720.896	36.47
721.08	36.18
721.263	36.08
721.446	35.97
721.63	35.52
721.813	35.01
721.997	34.81
722.18	35.36
722.364	35.17
722.547	35.01
722.73	35.14
722.914	34.79
723.097	34.83
723.28	34.5
723.464	34.53
723.647	34.61
723.83	34.59
724.013	34.92
724.197	34.52
724.38	34.42
724.563	34.67
724.746	34.73
724.929	35.15
725.112	35.08
725.296	35.22
725.479	35.13
725.662	35.37
725.845	36.04
726.028	35.42
726.211	35.61
726.394	36.31
726.577	35.79
726.76	35.58
726.943	35.47
727.126	35.87
727.309	36.55
727.492	36.87
727.675	36.73
727.858	36.46
728.041	36.99
728.224	36.91
728.407	36.35
728.589	36.83
728.772	37.05
728.955	37.02
729.138	36.49
729.321	36
729.503	36.13
729.686	36.46
729.869	36.43
730.052	36.74
730.234	36.81
730.417	37.12
730.6	36.89
730.782	37.15
730.965	36.9
731.148	37.34
731.33	37.7
731.513	37.5
731.695	37.54
731.878	37.68
732.061	36.82
732.243	37.07
732.426	37.34
732.608	37.13
732.791	36.44
732.973	36.49
733.156	36.18
733.338	36.16
733.52	35.87
733.703	35.39
733.885	35.12
734.068	35.27
734.25	35.05
734.432	34.19
734.615	34.16
734.797	34.54
734.979	34.28
735.162	34.02
735.344	33.75
735.526	34.26
735.708	34.65
735.891	34.79
736.073	34.91
736.255	34.74
736.437	34.95
736.619	35.06
736.802	34.91
736.984	35.42
737.166	36.19
737.348	36.09
737.53	35.86
737.712	35.76
737.894	35.66
738.076	35.34
738.258	35.7
738.44	35.52
738.622	35.87
738.804	36.39
738.986	36.1
739.168	35.83
739.35	35.82
739.532	35.96
739.714	36.05
739.896	35.38
740.078	35.6
740.259	35.48
740.441	36.23
740.623	35.97
740.805	36.29
740.987	36.34
741.168	36.29
741.35	36.51
741.532	36.18
741.714	36.19
741.895	36.99
742.077	36.68
742.259	35.95
742.44	35.48
742.622	35.75
742.804	35.35
742.985	35.48
743.167	35.27
743.348	35.05
743.53	35.3
743.711	34.95
743.893	34.79
744.075	35.52
744.256	35.88
744.438	36.05
744.619	35.53
744.8	34.61
744.982	34.51
745.163	35.34
745.345	35.97
745.526	36.56
745.707	36.83
745.889	37.12
746.07	36.86
746.252	37.49
746.433	37.37
746.614	38.05
746.795	38.47
746.977	38.7
747.158	38.05
747.339	37.92
747.52	37.24
747.702	37.18
747.883	36.94
748.064	37.22
748.245	36.68
748.426	36.67
748.607	36.36
748.788	36.68
748.97	36.63
749.151	36.68
749.332	36.69
749.513	37.04
749.694	36.2
749.875	36.72
750.056	36.2
750.237	36.29
750.418	36.44
750.599	36.14
750.78	35.89
750.96	35.65
751.141	35.49
751.322	35.19
751.503	34.6
751.684	35.94
751.865	35.17
752.046	35.8
752.226	35.77
752.407	35.33
752.588	35.65
752.769	36.25
752.949	36.39
753.13	36.81
753.311	37.39
753.492	37.1
753.672	36.75
753.853	37.05
754.034	36.33
754.214	36.52
754.395	36.96
754.575	37.27
754.756	37.02
754.937	36.8
755.117	37.28
755.298	36.09
755.478	36.81
755.659	36.94
755.839	37.62
756.02	38.35
756.2	38.15
756.381	37.63
756.561	37.54
756.741	37.97
756.922	37.68
757.102	37.29
757.283	38.35
757.463	37.52
757.643	37.62
757.823	36.73
758.004	36.1
758.184	36.03
758.364	36.7
758.545	37.12
758.725	36.19
758.905	36.79
759.085	36.25
759.265	35.61
759.446	36.19
759.626	35.89
759.806	36.14
759.986	36.32
760.166	35.88
760.346	36.35
760.526	35.87
760.706	36.2
760.886	35.85
761.066	35.65
761.246	35.6
761.426	35.27
761.606	35.11
761.786	34.86
761.966	34.96
762.146	35.3
762.326	35.05
762.506	34.96
762.686	34.88
762.866	35.27
763.046	35.89
763.225	36.22
763.405	36.42
763.585	36.82
763.765	36.54
763.945	36.22
764.124	36.56
764.304	36.48
764.484	36.9
764.664	36.72
764.843	36.4
765.023	36.35
765.203	36.25
765.382	36.26
765.562	35.48
765.741	36.14
765.921	36.95
766.101	37.06
766.28	37.01
766.46	36.68
766.639	36.47
766.819	36.5
766.998	36.51
767.178	36.6
767.357	36.44
767.537	37.01
767.716	37.21
767.896	36.57
768.075	35.72
768.254	35.19
768.434	35.39
768.613	36.26
768.792	36.34
768.972	36.37
769.151	35.51
769.33	35.88
769.51	36.04
769.689	35.73
769.868	36.29
770.047	37.31
770.226	37.52
770.406	37.32
770.585	37.48
770.764	37.93
770.943	37.67
771.122	38.29
771.301	38.61
771.48	38.75
771.66	38.99
771.839	38.73
772.018	38.12
772.197	38.42
772.376	38.59
772.555	38.71
772.734	38.66
772.913	37.82
773.092	37.36
773.271	37.01
773.449	36.76
773.628	36.04
773.807	36.71
773.986	36.52
774.165	36.68
774.344	36.89
774.523	36.04
774.701	35.74
774.88	36.82
775.059	37.35
775.238	37.66
775.417	37.56
775.595	38.19
775.774	37.35
775.953	37.73
776.131	37.86
776.31	36.98
776.489	36.82
776.667	36.87
776.846	36.29
777.025	35.95
777.203	36.32
777.382	36.68
777.56	36.6
777.739	36.61
777.917	37.31
778.096	37.2
778.274	37.44
778.453	38.35
778.631	38
778.81	38.67
778.988	39.64
779.166	39.34
779.345	39.37
779.523	39.17
779.702	39.93
779.88	39.52
780.058	39.66
780.237	40.13
780.415	40.19
780.593	40.08
780.771	39.71
780.95	38.23
781.128	37.95
781.306	37.84
781.484	37.74
781.662	36.55
781.841	35.16
782.019	34.89
782.197	34.41
782.375	32.92
782.553	33.27
782.731	33.12
782.909	34.16
783.087	34.64
783.265	34.5
783.443	34.93
783.621	35.26
783.799	37
783.977	37.65
784.155	37.68
784.333	39.53
784.511	39.45
784.689	39.78
784.867	40.05
785.045	38.84
785.223	39.56
785.4	40.17
785.578	40.5
785.756	39.58
785.934	38.48
786.112	39.94
786.289	38.14
786.467	38.34
786.645	39.32
786.823	38.61
787	39.38
787.178	38.39
787.356	37.71
787.533	37.3
787.711	38
787.889	38.94
788.066	37.57
788.244	38.48
788.421	37.91
788.599	37.25
788.776	37.51
788.954	36.55
789.131	36.59
789.309	37.31
789.486	38.18
789.664	38.02
789.841	37.46
790.019	38.02
790.196	38.13
790.373	38.25
790.551	39.03
790.728	38.65
790.906	39.79
791.083	40.43
791.26	39.4
791.437	38.91
791.615	38.51
791.792	39.72
791.969	39.3
792.146	39.84
792.324	39.7
792.501	39.84
792.678	41.53
792.855	41.3
793.032	40.43
793.209	40.39
793.387	40.91
793.564	41.32
793.741	40.06
793.918	39.81
794.095	38.81
794.272	38.51
794.449	37.9
794.626	37.69
794.803	37.34
794.98	37.38
795.157	37.55
795.334	37.44
795.511	37.2
795.688	36.85
795.864	37.5
796.041	38.54
796.218	40.05
796.395	39.27
796.572	38.57
796.749	39.03
796.925	39.01
797.102	39.74
797.279	39.18
797.456	39.45
797.632	39.25
797.809	38.76
797.986	38.87
798.162	38.67
798.339	37.72
798.516	37.54
798.692	37.7
798.869	38.33
799.046	37.51
799.222	37.34
799.399	37.2
799.575	38.31
799.752	38.06
799.928	36.94
800.105	37.02
800.281	39.08
800.458	38.43
800.634	38.4
800.811	37.81
800.987	37.93
801.163	37.94
801.34	37.44
801.516	37.44
801.692	37.77
801.869	37.05
802.045	36.16
802.221	35.91
802.398	36.62
802.574	35.59
802.75	35.67
802.926	35.66
803.103	35.61
803.279	36.64
803.455	36.66
803.631	37.14
803.807	39.06
803.983	39.01
804.16	38.5
804.336	39.76
804.512	41.62
804.688	42.54
804.864	42.73
805.04	43.5
805.216	42.53
805.392	43.05
805.568	42.74
805.744	41.59
805.92	42.77
806.096	42.51
806.272	42.19
806.448	41.29
806.623	40.4
806.799	40.58
806.975	40.53
807.151	41.31
807.327	40.72
807.503	40.02
807.678	39.96
807.854	40.66
808.03	41.26
808.206	40.21
808.381	39.75
808.557	39.65
808.733	40.51
808.908	40.58
809.084	40.62
809.26	39.94
809.435	40.05
809.611	41.3
809.787	38.46
809.962	38.48
810.138	39
810.313	39.51
810.489	40.72
810.664	40.82
810.84	39.97
811.015	39.67
811.191	39.99
811.366	40.46
811.542	39.59
811.717	41.56
811.892	41.66
812.068	41.27
812.243	40.69
812.419	40.32
812.594	38.41
812.769	39.1
812.944	38.96
813.12	38.43
813.295	39.88
813.47	39.85
813.645	39.47
813.821	38.53
813.996	40.24
814.171	40.95
814.346	42.74
814.521	43.29
814.697	44.24
814.872	44.85
815.047	44.79
815.222	45.23
815.397	44.97
815.572	44.59
815.747	44.76
815.922	43.28
816.097	42.42
816.272	40.23
816.447	39.45
816.622	38.11
816.797	37.36
816.972	38.35
817.147	36.93
817.322	37.09
817.496	36.59
817.671	36.89
817.846	35.86
818.021	35.21
818.196	35.65
818.371	36.83
818.545	37.48
818.72	37.72
818.895	37.91
819.069	37.29
819.244	37.42
819.419	38.1
819.594	37.67
819.768	37.79
819.943	38.97
820.117	38.64
820.292	38.12
820.467	37.37
820.641	37.14
820.816	37.13
820.99	37.21
821.165	36.74
821.339	36.27
821.514	36.43
821.688	36.52
821.863	36.24
822.037	36.21
822.212	36.23
822.386	36.19
822.56	35.87
822.735	35.2
822.909	35.18
823.084	35.44
823.258	35.45
823.432	35.31
823.606	35.19
823.781	35.16
823.955	35.2
824.129	35.02
824.303	35.29
824.478	35.71
824.652	36.13
824.826	36.11
825	35.64
825.174	35.76
825.348	35.69
825.523	35.71
825.697	35.44
825.871	35.54
826.045	35.71
826.219	36.03
826.393	35.79
826.567	35.95
826.741	36.12
826.915	36.48
827.089	36.98
827.263	37.12
827.437	36.97
827.611	37.37
827.784	37.21
827.958	37.13
828.132	36.25
828.306	36.6
828.48	36.58
828.654	36.51
828.827	36.29
829.001	36.33
829.175	36.67
829.349	37.81
829.522	37.62
829.696	37.9
829.87	38.88
830.044	40.28
830.217	41.02
830.391	41.37
830.565	41.91
830.738	43.74
830.912	42.86
831.085	43.32
831.259	43.32
831.432	42.59
831.606	42.77
831.779	41.15
831.953	40.26
832.126	39.64
832.3	39.94
832.473	39.75
832.647	38.35
832.82	38.28
832.994	37.59
833.167	37.07
833.34	37.73
833.514	37.03
833.687	37.28
833.86	37.33
834.034	37.19
834.207	37.15
834.38	36.69
834.553	37.23
834.727	37.4
834.9	37.08
835.073	37.04
835.246	37.65
835.419	38.05
835.593	38.78
835.766	38.72
835.939	39.67
836.112	39.64
836.285	39.85
836.458	39.69
836.631	40
836.804	41.15
836.977	41.44
837.15	39.95
837.323	39.22
837.496	38.01
837.669	36.68
837.842	35.9
838.015	37.1
838.188	36.87
838.361	37.16
838.533	37.61
838.706	38.36
838.879	37.74
839.052	37.84
839.225	38.68
839.398	40.35
839.57	42.59
839.743	43.08
839.916	41.59
840.088	43.86
840.261	42.77
840.434	42.07
840.607	39.6
840.779	39.45
840.952	40.82
841.124	40.81
841.297	39.87
841.47	39.11
841.642	38.78
841.815	38.04
841.987	34.85
842.16	35.47
842.332	36.09
842.505	37.67
842.677	40.52
842.85	42.13
843.022	43.22
843.194	43.83
843.367	44.31
843.539	43.29
843.712	43.51
843.884	46.69
844.056	47.62
844.229	49.04
844.401	50.59
844.573	48.86
844.745	47.24
844.918	46.55
845.09	46.24
845.262	45.93
845.434	45.95
845.606	49.29
845.779	48.32
845.951	49
846.123	44.54
846.295	44.57
846.467	44.23
846.639	44.88
846.811	45.65
846.983	44.77
847.155	48.02
847.327	48.95
847.499	46.72
847.671	46.74
847.843	45.22
848.015	45.14
848.187	45
848.359	47.29
848.531	45.03
848.703	47.3
848.875	50.7
849.047	46.35
849.218	46.74
849.39	46.66
849.562	43.19
849.734	42.87
849.905	48.4
850.077	49.16
850.249	45.86
850.421	46.2
850.592	41.78
850.764	39.59
850.936	41.91
851.107	43.07
851.279	44.54
851.451	49.13
851.622	51.78
851.794	48.14
851.965	46.06
852.137	51.04
852.308	52.68
852.48	56.91
852.651	57.71
852.823	56.42
852.994	55.28
853.166	53.92
853.337	49.57
853.509	49.95
853.68	50.53
853.851	51.46
854.023	51.2
854.194	50.89
854.365	49.55
854.537	46.98
854.708	52.35
854.879	56.24
855.05	57.17
855.222	62.09
855.393	63.59
855.564	65.29
855.735	65.38
855.906	67.08
856.078	65.51
856.249	69.44
856.42	71.98
856.591	65
856.762	61.13
856.933	62.13
857.104	55.35
857.275	54.76
857.446	53.8
857.617	55.33
857.788	55.72
857.959	57.48
858.13	52.95
858.301	53.92
858.472	55.23
858.643	54.83
858.814	54.5
858.985	57.1
859.155	55.04
859.326	55.19
859.497	56.57
859.668	52.48
859.839	54.35
860.009	53.06
860.18	49.99
860.351	47.38
860.522	49.99
860.692	50.29
860.863	49.67
861.034	51.42
861.204	50.65
861.375	46.85
861.546	48.32
861.716	48.01
861.887	50.75
862.057	52.66
862.228	54.57
862.398	51.4
862.569	51.97
862.739	58.87
862.91	57.28
863.08	54.99
863.251	59.31
863.421	58.95
863.592	58.08
863.762	60.48
863.932	59.04
864.103	60.28
864.273	64.43
864.443	66.11
864.614	63.49
864.784	66.39
864.954	71.9
865.125	68.37
865.295	67.6
865.465	63.74
865.635	62.64
865.805	66.67
865.976	62.05
866.146	60
866.316	54.78
866.486	52.6
866.656	60.03
866.826	59.93
866.996	57.94
867.166	60.62
867.336	64.27
867.506	65.05
867.676	61.66
867.846	63.09
868.016	61.38
868.186	65.03
868.356	65.99
868.526	50.84
868.696	52.79
868.866	56.48
869.036	59.37
869.206	59.13
869.376	56.48
869.545	58.47
869.715	62.82
869.885	62.79
870.055	59.45
870.224	61.36
870.394	63.53
870.564	59.1
870.734	59.55
870.903	54.28
871.073	55.86
871.243	55.69
871.412	54.66
871.582	55.54
871.751	58.29
871.921	60.94
872.091	63
872.26	62.74
872.43	58.97
872.599	58.51
872.769	55.29
872.938	49.65
873.108	52.63
873.277	51.94
873.446	53.05
873.616	49.9
873.785	52.92
873.955	47.97
874.124	48.98
874.293	49.99
874.463	49.65
874.632	49.13
874.801	51.7
874.971	49.42
875.14	52.54
875.309	49.49
875.478	51.27
875.647	46.94
875.817	48.57
875.986	51.19
876.155	55.95
876.324	55.05
876.493	59.7
876.662	59.27
876.831	58.27
877	58.77
877.17	60.08
877.339	61.45
877.508	62.93
877.677	65.37
877.846	63.26
878.015	60.55
878.184	58.74
878.352	55.97
878.521	54.28
878.69	55.96
878.859	55.25
879.028	51.77
879.197	48.31
879.366	46.35
879.534	44.87
879.703	46.08
879.872	46.67
880.041	48.3
880.21	46.91
880.378	49.78
880.547	48.35
880.716	46.33
880.884	45.25
881.053	44.74
881.222	44.81
881.39	43.5
881.559	42.3
881.727	40.93
881.896	39.1
882.065	38.92
882.233	37.15
882.402	37.1
882.57	37.2
882.739	37.45
882.907	38.01
883.076	36.92
883.244	37.08
883.412	37.47
883.581	37.88
883.749	38.46
883.918	39.12
884.086	39.6
884.254	39.91
884.423	39.94
884.591	40.62
884.759	39.46
884.927	41.93
885.096	41.86
885.264	43.11
885.432	43.8
885.6	45.02
885.769	44.38
885.937	44.97
886.105	46.29
886.273	47.84
886.441	49.3
886.609	51.94
886.777	50.47
886.945	51.71
887.113	49.64
887.281	49.87
887.449	49.64
887.617	48.88
887.785	51.24
887.953	50.19
888.121	49.59
888.289	45.04
888.457	46.89
888.625	44.01
888.793	43.39
888.961	44.94
889.129	43.87
889.296	43.15
889.464	47.55
889.632	44.95
889.8	42.78
889.967	40.18
890.135	43.67
