Data from 2938454_Reflection_3.txt Node
Date: Fri Jun 19 17:51:46 EDT 2015
User: robert
Spectrometer: USB4E03002
Autoset integration time: false
Trigger mode: 4
Integration Time (sec): 1.000000E-1
Scans to average: 10
Electric dark correction enabled: true
Nonlinearity correction enabled: false
Boxcar width: 5
Stray light correction enabled: false
XAxis mode: Wavelengths
Stop averaging: false
Number of Pixels in Spectrum: 3648
>>>>>Begin Spectral Data<<<<<
177.575	-407.46
177.794	-87.51
178.014	-100.22
178.233	-9.55
178.452	19.07
178.672	-105.67
178.891	131.26
179.11	-406.95
179.33	-251.13
179.549	-127.16
179.768	-75.22
179.987	-81.76
180.207	-80.51
180.426	-178.4
180.645	-72.67
180.864	-209.52
181.084	504.44
181.303	159.58
181.522	103.36
181.741	150.59
181.96	85.64
182.179	72.98
182.398	60.56
182.618	63.01
182.837	53.68
183.056	32.45
183.275	3.11
183.494	12.68
183.713	19.6
183.932	7.51
184.151	-19.96
184.37	-39.04
184.589	-29.78
184.808	-30.82
185.027	-66.52
185.246	10.57
185.465	42.03
185.684	-10300
185.903	75.63
186.122	77.11
186.341	84.31
186.56	20.87
186.779	18.79
186.998	40.92
187.216	81.79
187.435	82.35
187.654	116.98
187.873	137.02
188.092	104.1
188.311	120.31
188.53	154.73
188.748	201.78
188.967	156.31
189.186	110.17
189.405	130.35
189.623	-2169.84
189.842	-100.61
190.061	5.92
190.28	-86.77
190.498	35.74
190.717	78.28
190.936	42.63
191.154	100
191.373	17.39
191.592	-18.46
191.81	-127.44
192.029	-139.16
192.248	6.53
192.466	77.98
192.685	43.03
192.904	58.39
193.122	134.17
193.341	-323.63
193.559	100
193.778	-1218.44
193.996	20.18
194.215	4.04
194.433	-43.89
194.652	458.86
194.87	243.15
195.089	412.14
195.307	228.53
195.526	866.36
195.744	-241.4
195.963	-142250
196.181	-246.3
196.399	-0.46
196.618	27.84
196.836	48.22
197.055	37
197.273	48.34
197.491	0.6
197.71	-3.19
197.928	-31.23
198.146	-52.86
198.365	-26.98
198.583	-54.69
198.801	-170.73
199.019	-383.24
199.238	-238.22
199.456	-25.7
199.674	-20.89
199.892	-227.52
200.111	-19.14
200.329	-40.69
200.547	-36.47
200.765	26.07
200.983	13.04
201.202	-0.47
201.42	22.93
201.638	50.45
201.856	123.75
202.074	176.05
202.292	163.32
202.51	114.12
202.728	188.66
202.946	900.45
203.165	3931.58
203.383	-514.13
203.601	-35.98
203.819	-92.13
204.037	229.16
204.255	167.91
204.473	49.54
204.691	101.28
204.909	113.34
205.127	41.97
205.345	15.99
205.562	27.22
205.78	22.96
205.998	58.77
206.216	132.39
206.434	-64.75
206.652	178.79
206.87	107.52
207.088	1098.15
207.306	125.87
207.523	69.84
207.741	55.32
207.959	65.04
208.177	67.53
208.395	61.88
208.612	76.21
208.83	58.38
209.048	62.4
209.266	61.84
209.483	29.9
209.701	37.51
209.919	41.15
210.136	48.61
210.354	62.78
210.572	54.8
210.79	95.9
211.007	60.28
211.225	51.23
211.442	45.48
211.66	54.54
211.878	54.28
212.095	53.05
212.313	43.24
212.53	30.98
212.748	26
212.966	21.82
213.183	7.36
213.401	21.47
213.618	28.39
213.836	45.24
214.053	14.24
214.271	-34.68
214.488	-0.28
214.705	34.44
214.923	31.55
215.14	-11.42
215.358	-4.24
215.575	-1.31
215.793	-6.98
216.01	20.84
216.227	-17.76
216.445	-36.94
216.662	28.73
216.879	16.82
217.097	35.62
217.314	47.93
217.531	47.16
217.749	37.1
217.966	30.66
218.183	20.21
218.4	13.3
218.618	3.96
218.835	9.05
219.052	14.62
219.269	6.55
219.487	-14.96
219.704	-25.34
219.921	-23.18
220.138	-20.45
220.355	-8.57
220.572	-16.79
220.79	-13.1
221.007	-9.47
221.224	-7.67
221.441	-25.29
221.658	-16.91
221.875	-18.91
222.092	-33
222.309	-15.78
222.526	-13.83
222.743	-14.28
222.96	-1.93
223.177	-5.65
223.394	-2.55
223.611	-0.6
223.828	10.12
224.045	14.87
224.262	13.46
224.479	21.2
224.696	17.85
224.913	19.43
225.13	15.22
225.347	15.37
225.564	14.35
225.781	13.72
225.997	12.85
226.214	10.77
226.431	7.86
226.648	8.41
226.865	7.1
227.082	5.95
227.298	5.9
227.515	6.48
227.732	5.77
227.949	6.1
228.165	6.87
228.382	7.86
228.599	5.79
228.816	5.14
229.032	4.1
229.249	4.85
229.466	5.12
229.682	3.71
229.899	3.14
230.116	2.43
230.332	3.16
230.549	2.28
230.765	0.6
230.982	3.28
231.199	6.22
231.415	8.54
231.632	7
231.848	8.12
232.065	10.16
232.281	10.11
232.498	10.1
232.714	9.82
232.931	10.92
233.147	9.47
233.364	9.52
233.58	8.08
233.797	7.7
234.013	8.06
234.23	6.03
234.446	5.96
234.662	4.92
234.879	2.54
235.095	0.98
235.312	2.74
235.528	4.16
235.744	1.65
235.961	1.79
236.177	0.46
236.393	-0.56
236.61	2.21
236.826	2.84
237.042	3.53
237.258	3.3
237.475	4.71
237.691	1.54
237.907	3.34
238.123	4.22
238.339	4.67
238.556	7.01
238.772	7.48
238.988	6.23
239.204	5.53
239.42	8.02
239.636	9.91
239.853	9.45
240.069	9.44
240.285	8.5
240.501	8.49
240.717	8.47
240.933	7.71
241.149	8.51
241.365	8.49
241.581	8.78
241.797	8.1
242.013	8.19
242.229	8.24
242.445	8.91
242.661	8.55
242.877	9.08
243.093	8.73
243.309	8.43
243.525	7.51
243.741	8.38
243.957	7.92
244.173	6.96
244.388	5.83
244.604	6.26
244.82	6.31
245.036	6.15
245.252	6.32
245.468	6.25
245.683	6.23
245.899	6.4
246.115	5.84
246.331	5.7
246.547	5.87
246.762	5.67
246.978	5.81
247.194	5.97
247.409	6.24
247.625	6.21
247.841	6.36
248.057	6.13
248.272	5.49
248.488	5.68
248.703	5.67
248.919	5.81
249.135	6.68
249.35	5.97
249.566	4.25
249.782	4.77
249.997	4.6
250.213	4.89
250.428	5.15
250.644	5.56
250.859	5.23
251.075	5.19
251.29	5.08
251.506	5.19
251.721	4.67
251.937	5.71
252.152	5.19
252.368	4.91
252.583	4.59
252.798	5.7
253.014	6.04
253.229	5.95
253.445	4.82
253.66	2.92
253.875	2.95
254.091	2.09
254.306	0.99
254.521	0.85
254.737	0.46
254.952	0.19
255.167	-0.23
255.383	-0.16
255.598	0.68
255.813	1.86
256.028	3.24
256.244	3.31
256.459	4.28
256.674	4.39
256.889	4.21
257.104	4.4
257.32	4.29
257.535	3.99
257.75	3.65
257.965	3.39
258.18	3.49
258.395	3.96
258.61	4.23
258.826	4.11
259.041	3.82
259.256	4.01
259.471	3.69
259.686	3.85
259.901	3.63
260.116	3.77
260.331	4.45
260.546	4.81
260.761	4.22
260.976	4.07
261.191	4.58
261.406	5.65
261.621	5.12
261.836	5.71
262.05	5.75
262.265	7.67
262.48	8.04
262.695	8.1
262.91	7.98
263.125	7.74
263.34	7.36
263.555	6.09
263.769	4.6
263.984	5.98
264.199	5.77
264.414	6.08
264.629	4.46
264.843	4.1
265.058	3.36
265.273	3.22
265.488	3.62
265.702	3.28
265.917	4.39
266.132	4.49
266.346	3.8
266.561	4.26
266.776	3.78
266.99	3.93
267.205	3.95
267.42	3.99
267.634	3.3
267.849	3
268.063	3.24
268.278	2.62
268.492	3.01
268.707	3.39
268.922	2.79
269.136	2.77
269.351	2.51
269.565	2.79
269.78	3.02
269.994	3.04
270.209	3.23
270.423	3.46
270.637	3.75
270.852	4.04
271.066	3.56
271.281	4.12
271.495	4.54
271.709	4.92
271.924	4.58
272.138	4.85
272.353	5.5
272.567	5.76
272.781	5.7
272.996	5.37
273.21	5.24
273.424	5.84
273.638	5.19
273.853	4.96
274.067	4.46
274.281	4.38
274.495	3.72
274.71	3.59
274.924	3.38
275.138	3.19
275.352	3.62
275.566	4.33
275.781	3.48
275.995	4.46
276.209	4.75
276.423	4.73
276.637	4.62
276.851	4.85
277.065	5.1
277.279	5.33
277.493	5.08
277.707	4.62
277.921	3.89
278.135	3.88
278.349	2.93
278.563	2.54
278.777	3.43
278.991	3.65
279.205	3.59
279.419	2.78
279.633	3.01
279.847	2.98
280.061	2.88
280.275	3.09
280.489	3.37
280.703	3.89
280.917	3.49
281.131	2.71
281.344	3.3
281.558	2.84
281.772	3.18
281.986	2.81
282.2	3.38
282.414	3.58
282.627	3.94
282.841	3.98
283.055	3.95
283.269	4.39
283.482	5.08
283.696	4.95
283.91	5.6
284.123	5.64
284.337	5.55
284.551	5.2
284.764	5.04
284.978	4.73
285.192	5.16
285.405	5.11
285.619	5.37
285.833	5.68
286.046	5.55
286.26	5.38
286.473	5.76
286.687	5.58
286.9	5.89
287.114	6.15
287.327	6.21
287.541	5.33
287.754	5.13
287.968	4.81
288.181	4.28
288.395	4.01
288.608	3.97
288.822	3.57
289.035	3.94
289.248	3.48
289.462	3.38
289.675	3.44
289.889	3.81
290.102	4.09
290.315	4.02
290.529	4.01
290.742	4.4
290.955	4.8
291.169	4.72
291.382	4.94
291.595	5.32
291.808	5.83
292.022	6.06
292.235	6.31
292.448	6.25
292.661	6.33
292.875	6.68
293.088	6.55
293.301	6.51
293.514	6.5
293.727	6.61
293.94	6.91
294.153	6.61
294.367	6.62
294.58	7.01
294.793	6.73
295.006	6.85
295.219	6.36
295.432	6.65
295.645	6.33
295.858	7.07
296.071	6.65
296.284	6.77
296.497	7.24
296.71	7.19
296.923	6.71
297.136	7.12
297.349	6.83
297.562	7.18
297.775	6.61
297.988	6.91
298.201	6.45
298.414	6.73
298.626	6.64
298.839	6.07
299.052	6
299.265	5.98
299.478	5.61
299.691	5.52
299.903	5.89
300.116	6.48
300.329	6.51
300.542	6.43
300.755	6.34
300.967	6.13
301.18	6.12
301.393	6.13
301.605	6.49
301.818	6.61
302.031	7.01
302.243	6.55
302.456	6.04
302.669	5.66
302.881	5.66
303.094	5.46
303.307	5.82
303.519	6.21
303.732	6.07
303.944	6.08
304.157	6.41
304.37	6.42
304.582	6.45
304.795	6.64
305.007	7.14
305.22	7.15
305.432	7.48
305.645	6.77
305.857	6.9
306.069	7.74
306.282	7.18
306.494	6.86
306.707	7.29
306.919	7.32
307.132	7.85
307.344	7.62
307.556	7.74
307.769	8.29
307.981	8.83
308.193	8.34
308.406	7.74
308.618	8.04
308.83	8.12
309.043	8.13
309.255	8.18
309.467	8.21
309.679	8.25
309.892	7.95
310.104	7.46
310.316	7.58
310.528	8.03
310.74	7.92
310.953	8.45
311.165	8.72
311.377	9
311.589	9.4
311.801	9.4
312.013	10.08
312.225	10.41
312.437	10.8
312.649	11.01
312.862	10.65
313.074	11.35
313.286	11.5
313.498	11.32
313.71	11.01
313.922	10.57
314.134	11.05
314.346	10.04
314.558	10.08
314.77	9.79
314.982	9.23
315.193	9.9
315.405	10.06
315.617	9.84
315.829	10.53
316.041	10.64
316.253	11.12
316.465	11.04
316.677	11.46
316.888	11.85
317.1	11.76
317.312	12.05
317.524	11.15
317.736	10.75
317.947	11.56
318.159	11.1
318.371	11.38
318.583	10.9
318.794	10.75
319.006	10.66
319.218	10.65
319.43	10.92
319.641	11.35
319.853	12.03
320.064	12.8
320.276	12.11
320.488	11.86
320.699	10.76
320.911	11.22
321.123	10.84
321.334	11.81
321.546	12.03
321.757	12.33
321.969	12.44
322.18	12.95
322.392	12.72
322.603	12.07
322.815	12.64
323.026	13.44
323.238	13.51
323.449	13.71
323.661	14.03
323.872	13.78
324.083	13.72
324.295	12.98
324.506	12.65
324.718	12.78
324.929	13.18
325.14	13.32
325.352	13.78
325.563	14.09
325.774	14.86
325.986	14.79
326.197	15.4
326.408	15.91
326.62	16.86
326.831	17.43
327.042	16.9
327.253	17.53
327.464	17.72
327.676	17.41
327.887	17.72
328.098	17.61
328.309	17.59
328.52	17.97
328.732	18.23
328.943	18.79
329.154	19.21
329.365	20.16
329.576	20.55
329.787	20.53
329.998	21.25
330.209	21.48
330.42	21.85
330.631	22.47
330.842	22.86
331.053	22.93
331.264	22.73
331.475	23.02
331.686	23.31
331.897	23.64
332.108	24.14
332.319	24.26
332.53	24.78
332.741	25.44
332.952	25.91
333.163	26.18
333.374	26.24
333.585	26.36
333.795	26.14
334.006	26.13
334.217	26.22
334.428	26.32
334.639	26.25
334.849	25.91
335.06	25.97
335.271	25.89
335.482	25.31
335.692	25.65
335.903	25.06
336.114	24.84
336.325	25.12
336.535	25.27
336.746	25.2
336.957	25.35
337.167	25.49
337.378	24.99
337.589	25.06
337.799	25.06
338.01	25.08
338.22	26.21
338.431	26.81
338.642	27.22
338.852	27.24
339.063	27.45
339.273	27.66
339.484	27.45
339.694	27.27
339.905	26.78
340.115	26.67
340.326	26.57
340.536	26.13
340.746	26.26
340.957	25.17
341.167	24.79
341.378	24.47
341.588	23.91
341.799	23.89
342.009	23.99
342.219	23.93
342.43	23.88
342.64	24.13
342.85	24.16
343.061	23.78
343.271	24.48
343.481	24.44
343.691	24.66
343.902	25.42
344.112	25.49
344.322	25.4
344.532	25.32
344.743	25.83
344.953	25.82
345.163	25.57
345.373	25.56
345.583	25.43
345.793	25.53
346.004	25.56
346.214	25.68
346.424	25.96
346.634	26.1
346.844	26.26
347.054	25.59
347.264	25.46
347.474	26.22
347.684	26.58
347.894	26.7
348.104	27.11
348.314	26.72
348.524	25.78
348.734	25.8
348.944	26.21
349.154	26.44
349.364	26.76
349.574	25.97
349.784	25.35
349.994	25.4
350.204	25.24
350.413	24.91
350.623	25.24
350.833	25.47
351.043	25.45
351.253	24.64
351.463	24.4
351.672	24.54
351.882	25.39
352.092	25.34
352.302	25.27
352.511	25.14
352.721	24.81
352.931	24.49
353.141	24.74
353.35	24.72
353.56	24.97
353.77	24.58
353.979	24.11
354.189	23.86
354.399	24.34
354.608	23.93
354.818	23.75
355.027	23.77
355.237	24.03
355.447	24.32
355.656	24.06
355.866	23.86
356.075	24.25
356.285	24.48
356.494	24.22
356.704	23.61
356.913	23.51
357.123	23.46
357.332	23.54
357.542	23.5
357.751	22.89
357.96	23.3
358.17	23.42
358.379	23.37
358.589	23.71
358.798	23.87
359.007	24.01
359.217	24.15
359.426	24.18
359.635	24.53
359.845	24.46
360.054	24.23
360.263	23.94
360.472	24.05
360.682	23.69
360.891	23.07
361.1	23.02
361.309	23.05
361.519	22.91
361.728	23.07
361.937	22.63
362.146	22.44
362.355	22.66
362.564	22.45
362.774	22.29
362.983	22.56
363.192	22.76
363.401	22.5
363.61	22.6
363.819	22.76
364.028	22.66
364.237	22.26
364.446	22.2
364.655	22.06
364.864	22.2
365.073	22.24
365.282	21.8
365.491	21.75
365.7	22.08
365.909	21.86
366.118	21.64
366.327	21.5
366.536	21.9
366.745	21.79
366.954	21.71
367.162	21.28
367.371	20.93
367.58	21.28
367.789	20.98
367.998	20.51
368.207	20.2
368.415	20
368.624	20.12
368.833	19.8
369.042	19.84
369.25	20
369.459	20
369.668	20.05
369.877	19.79
370.085	19.97
370.294	20.13
370.503	20.05
370.711	19.97
370.92	19.65
371.129	19.68
371.337	19.58
371.546	19.37
371.754	19.1
371.963	19.03
372.171	18.63
372.38	18.45
372.589	18.61
372.797	18.5
373.006	18.65
373.214	18.65
373.423	18.46
373.631	18.38
373.84	18.3
374.048	18.35
374.256	18.17
374.465	18.58
374.673	18.64
374.882	18.24
375.09	18.19
375.298	17.92
375.507	17.93
375.715	17.98
375.923	17.95
376.132	17.59
376.34	17.5
376.548	17.44
376.757	17.18
376.965	17.22
377.173	17.4
377.381	17.62
377.59	17.91
377.798	17.92
378.006	18.11
378.214	18.41
378.423	18.31
378.631	18.49
378.839	18.68
379.047	18.65
379.255	18.17
379.463	17.72
379.671	17.53
379.879	17.13
380.088	16.78
380.296	16.4
380.504	16.12
380.712	16.32
380.92	16.15
381.128	15.91
381.336	15.67
381.544	15.52
381.752	15.58
381.96	15.62
382.168	15.45
382.376	15.53
382.584	15.28
382.791	15.19
382.999	15
383.207	14.93
383.415	14.97
383.623	14.99
383.831	15.35
384.039	15.32
384.247	15.26
384.454	15.03
384.662	14.7
384.87	14.71
385.078	14.31
385.285	14.3
385.493	14.23
385.701	13.94
385.909	13.84
386.116	13.63
386.324	13.36
386.532	13.06
386.739	13.16
386.947	13.1
387.155	13.01
387.362	13.2
387.57	13.19
387.778	13.32
387.985	13.28
388.193	13.24
388.4	13
388.608	12.96
388.816	13.17
389.023	13.05
389.231	13.02
389.438	12.97
389.646	12.77
389.853	12.58
390.061	12.33
390.268	12.32
390.475	12.34
390.683	12.45
390.89	12.38
391.098	12.21
391.305	12.2
391.512	12.07
391.72	12.02
391.927	12.14
392.135	12.17
392.342	12.17
392.549	12.16
392.756	12.22
392.964	12.02
393.171	12.16
393.378	12.14
393.586	12.04
393.793	12.03
394	12
394.207	11.79
394.414	11.68
394.622	11.7
394.829	11.49
395.036	11.37
395.243	11.28
395.45	11.22
395.657	11.01
395.864	11.09
396.072	11.23
396.279	11.13
396.486	11.05
396.693	11.16
396.9	10.92
397.107	10.83
397.314	10.59
397.521	10.51
397.728	10.38
397.935	10.4
398.142	10.24
398.349	10.22
398.556	10.17
398.763	10.19
398.97	10.02
399.177	10.17
399.383	10.26
399.59	10.35
399.797	10.4
400.004	10.25
400.211	10.24
400.418	10.32
400.625	10.11
400.831	9.98
401.038	10.01
401.245	10.07
401.452	9.86
401.658	9.87
401.865	9.86
402.072	9.7
402.279	9.83
402.485	9.74
402.692	9.71
402.899	9.68
403.105	9.85
403.312	9.78
403.519	9.81
403.725	9.84
403.932	9.89
404.138	9.78
404.345	9.9
404.552	9.84
404.758	10.01
404.965	10.11
405.171	10.1
405.378	9.98
405.584	9.97
405.791	9.94
405.997	9.97
406.204	9.84
406.41	9.83
406.617	9.95
406.823	9.94
407.029	9.82
407.236	9.77
407.442	9.77
407.649	9.72
407.855	9.72
408.061	9.52
408.268	9.56
408.474	9.46
408.68	9.42
408.887	9.37
409.093	9.41
409.299	9.39
409.505	9.38
409.712	9.35
409.918	9.37
410.124	9.3
410.33	9.45
410.537	9.2
410.743	9.25
410.949	9.56
411.155	9.48
411.361	9.5
411.567	9.55
411.773	9.39
411.98	9.4
412.186	9.58
412.392	9.44
412.598	9.4
412.804	9.53
413.01	9.45
413.216	9.24
413.422	9.31
413.628	9.31
413.834	9.15
414.04	9.26
414.246	9.28
414.452	9.18
414.658	9.25
414.864	9.32
415.07	9.31
415.275	9.34
415.481	9.36
415.687	9.3
415.893	9.16
416.099	9.2
416.305	9.15
416.511	9.21
416.716	9.18
416.922	9.2
417.128	9.09
417.334	9.03
417.539	8.9
417.745	8.81
417.951	8.8
418.157	8.81
418.362	8.86
418.568	8.75
418.774	8.64
418.979	8.56
419.185	8.58
419.391	8.6
419.596	8.68
419.802	8.77
420.008	8.77
420.213	8.82
420.419	8.84
420.624	8.75
420.83	8.72
421.035	8.73
421.241	8.72
421.446	8.68
421.652	8.65
421.857	8.57
422.063	8.52
422.268	8.48
422.474	8.34
422.679	8.29
422.885	8.29
423.09	8.36
423.295	8.39
423.501	8.43
423.706	8.35
423.911	8.26
424.117	8.27
424.322	8.29
424.527	8.32
424.733	8.33
424.938	8.27
425.143	8.3
425.349	8.31
425.554	8.22
425.759	8.25
425.964	8.33
426.169	8.34
426.375	8.33
426.58	8.31
426.785	8.37
426.99	8.41
427.195	8.5
427.4	8.38
427.605	8.31
427.811	8.3
428.016	8.12
428.221	8.09
428.426	8.22
428.631	8.24
428.836	8.22
429.041	8.2
429.246	8.1
429.451	8.08
429.656	8.02
429.861	8.09
430.066	8.09
430.271	8.13
430.476	8.14
430.681	8.14
430.886	8.11
431.09	8.15
431.295	8.15
431.5	8.27
431.705	8.27
431.91	8.35
432.115	8.33
432.32	8.36
432.524	8.44
432.729	8.48
432.934	8.55
433.139	8.55
433.343	8.58
433.548	8.52
433.753	8.52
433.958	8.43
434.162	8.48
434.367	8.55
434.572	8.59
434.776	8.6
434.981	8.54
435.186	8.34
435.39	8.37
435.595	8.35
435.799	8.44
436.004	8.44
436.209	8.47
436.413	8.39
436.618	8.2
436.822	8.19
437.027	8.12
437.231	8.1
437.436	8.08
437.64	8.05
437.845	8.05
438.049	7.96
438.253	7.85
438.458	8
438.662	8.03
438.867	8.17
439.071	8.13
439.275	8.12
439.48	8.1
439.684	8.19
439.888	8.18
440.093	8.16
440.297	8.17
440.501	8.25
440.706	8.13
440.91	8.1
441.114	8.02
441.318	8.05
441.523	8.04
441.727	8.07
441.931	7.99
442.135	8.05
442.339	8.06
442.543	8.14
442.748	8.13
442.952	8.13
443.156	8.18
443.36	8.11
443.564	8.12
443.768	8.13
443.972	8.19
444.176	8.28
444.38	8.2
444.584	8.12
444.788	8.03
444.992	7.98
445.196	7.99
445.4	7.93
445.604	7.99
445.808	8.02
446.012	7.95
446.216	7.88
446.42	7.76
446.624	7.78
446.828	7.87
447.032	7.93
447.235	7.92
447.439	7.86
447.643	7.81
447.847	7.75
448.051	7.64
448.254	7.73
448.458	7.73
448.662	7.67
448.866	7.67
449.069	7.57
449.273	7.42
449.477	7.49
449.681	7.51
449.884	7.59
450.088	7.58
450.292	7.56
450.495	7.48
450.699	7.55
450.902	7.69
451.106	7.63
451.31	7.57
451.513	7.69
451.717	7.68
451.92	7.7
452.124	7.66
452.327	7.71
452.531	7.73
452.734	7.72
452.938	7.57
453.141	7.54
453.345	7.58
453.548	7.66
453.752	7.69
453.955	7.64
454.158	7.67
454.362	7.67
454.565	7.7
454.769	7.7
454.972	7.77
455.175	7.89
455.379	7.9
455.582	7.86
455.785	7.86
455.988	7.81
456.192	7.77
456.395	7.64
456.598	7.64
456.801	7.62
457.005	7.7
457.208	7.71
457.411	7.68
457.614	7.63
457.817	7.59
458.021	7.59
458.224	7.59
458.427	7.64
458.63	7.67
458.833	7.73
459.036	7.67
459.239	7.62
459.442	7.57
459.645	7.56
459.848	7.54
460.051	7.66
460.254	7.67
460.457	7.71
460.66	7.65
460.863	7.69
461.066	7.61
461.269	7.72
461.472	7.63
461.675	7.73
461.878	7.79
462.081	7.89
462.284	7.8
462.486	7.74
462.689	7.66
462.892	7.69
463.095	7.73
463.298	7.7
463.5	7.68
463.703	7.77
463.906	7.76
464.109	7.69
464.311	7.59
464.514	7.61
464.717	7.66
464.92	7.64
465.122	7.53
465.325	7.6
465.528	7.6
465.73	7.61
465.933	7.59
466.135	7.51
466.338	7.63
466.541	7.84
466.743	7.94
466.946	7.94
467.148	8.04
467.351	8.25
467.553	8.13
467.756	8.31
467.958	8.3
468.161	8.3
468.363	8.34
468.566	8.3
468.768	8.13
468.971	8.09
469.173	8.17
469.375	8.2
469.578	8.05
469.78	8.09
469.983	7.99
470.185	8
470.387	8.13
470.59	8.16
470.792	8.19
470.994	8.3
471.196	8.35
471.399	8.35
471.601	8.27
471.803	8.46
472.005	8.45
472.208	8.52
472.41	8.53
472.612	8.58
472.814	8.58
473.016	8.41
473.218	8.31
473.421	8.26
473.623	8.12
473.825	8.18
474.027	7.98
474.229	8.05
474.431	7.96
474.633	7.93
474.835	7.92
475.037	7.89
475.239	8.06
475.441	8.12
475.643	8.11
475.845	8.15
476.047	8.16
476.249	8.21
476.451	8.21
476.653	8.19
476.855	8.24
477.057	8.18
477.258	8.23
477.46	8.2
477.662	8.18
477.864	8.2
478.066	8.31
478.268	8.22
478.469	8.31
478.671	8.37
478.873	8.39
479.075	8.29
479.276	8.36
479.478	8.26
479.68	8.2
479.882	8.16
480.083	8.1
480.285	8.1
480.487	8.14
480.688	8.14
480.89	8.06
481.091	8.1
481.293	8.12
481.495	8.08
481.696	8.13
481.898	8.14
482.099	8.13
482.301	8.14
482.502	8.1
482.704	8.11
482.905	8.08
483.107	8.09
483.308	8.07
483.51	8.06
483.711	8.05
483.913	8.03
484.114	8.03
484.315	8.03
484.517	8.07
484.718	8.07
484.92	8.05
485.121	8.05
485.322	8.08
485.524	8.12
485.725	8.18
485.926	8.19
486.127	8.2
486.329	8.22
486.53	8.2
486.731	8.19
486.932	8.2
487.134	8.21
487.335	8.24
487.536	8.21
487.737	8.18
487.938	8.14
488.139	8.12
488.341	8.16
488.542	8.14
488.743	8.16
488.944	8.1
489.145	8.11
489.346	8.09
489.547	8.13
489.748	8.14
489.949	8.13
490.15	8.16
490.351	8.2
490.552	8.17
490.753	8.21
490.954	8.21
491.155	8.26
491.356	8.27
491.557	8.28
491.758	8.28
491.959	8.27
492.159	8.32
492.36	8.36
492.561	8.36
492.762	8.43
492.963	8.43
493.164	8.5
493.364	8.54
493.565	8.53
493.766	8.57
493.967	8.58
494.167	8.67
494.368	8.66
494.569	8.63
494.769	8.71
494.97	8.73
495.171	8.76
495.371	8.78
495.572	8.75
495.773	8.79
495.973	8.82
496.174	8.83
496.375	8.77
496.575	8.79
496.776	8.83
496.976	8.8
497.177	8.85
497.377	8.86
497.578	8.9
497.778	9.01
497.979	9.04
498.179	9.06
498.38	9.15
498.58	9.26
498.78	9.33
498.981	9.4
499.181	9.38
499.382	9.38
499.582	9.42
499.782	9.41
499.983	9.43
500.183	9.47
500.383	9.51
500.584	9.5
500.784	9.5
500.984	9.53
501.184	9.5
501.385	9.59
501.585	9.62
501.785	9.72
501.985	9.84
502.185	9.87
502.386	9.91
502.586	9.97
502.786	10.07
502.986	10.15
503.186	10.26
503.386	10.29
503.586	10.32
503.786	10.41
503.987	10.39
504.187	10.48
504.387	10.52
504.587	10.67
504.787	10.71
504.987	10.72
505.187	10.71
505.387	10.65
505.587	10.78
505.786	10.89
505.986	10.93
506.186	11.04
506.386	10.94
506.586	10.98
506.786	10.93
506.986	11.06
507.186	11.06
507.386	11.14
507.585	11.29
507.785	11.37
507.985	11.43
508.185	11.49
508.384	11.56
508.584	11.74
508.784	11.78
508.984	11.83
509.183	11.88
509.383	11.98
509.583	12.08
509.782	12.09
509.982	12.09
510.182	12.16
510.381	12.22
510.581	12.25
510.781	12.26
510.98	12.36
511.18	12.5
511.379	12.5
511.579	12.56
511.778	12.63
511.978	12.6
512.177	12.67
512.377	12.76
512.576	12.81
512.776	12.88
512.975	13.03
513.175	13.11
513.374	13.19
513.573	13.36
513.773	13.47
513.972	13.54
514.172	13.73
514.371	13.82
514.57	13.84
514.77	14.01
514.969	14.07
515.168	14.15
515.367	14.18
515.567	14.18
515.766	14.22
515.965	14.31
516.164	14.36
516.364	14.37
516.563	14.42
516.762	14.44
516.961	14.49
517.16	14.59
517.359	14.59
517.559	14.73
517.758	14.78
517.957	14.8
518.156	14.87
518.355	14.95
518.554	15.08
518.753	15.18
518.952	15.33
519.151	15.45
519.35	15.49
519.549	15.68
519.748	15.71
519.947	15.93
520.146	16.06
520.345	16.05
520.544	16.14
520.743	16.26
520.942	16.36
521.141	16.35
521.339	16.42
521.538	16.54
521.737	16.68
521.936	16.8
522.135	16.92
522.333	16.97
522.532	17.05
522.731	17.11
522.93	17.15
523.129	17.19
523.327	17.34
523.526	17.33
523.725	17.34
523.923	17.24
524.122	17.23
524.321	17.2
524.519	17.28
524.718	17.4
524.917	17.46
525.115	17.51
525.314	17.64
525.512	17.72
525.711	17.79
525.909	17.88
526.108	17.99
526.306	18.04
526.505	18.06
526.703	18.09
526.902	18.11
527.1	18.15
527.299	18.19
527.497	18.19
527.696	18.2
527.894	18.22
528.092	18.21
528.291	18.25
528.489	18.32
528.688	18.39
528.886	18.45
529.084	18.51
529.283	18.56
529.481	18.68
529.679	18.78
529.877	18.83
530.076	18.96
530.274	19.09
530.472	19.15
530.67	19.22
530.869	19.29
531.067	19.31
531.265	19.28
531.463	19.35
531.661	19.25
531.859	19.25
532.057	19.25
532.255	19.25
532.454	19.26
532.652	19.3
532.85	19.32
533.048	19.32
533.246	19.39
533.444	19.51
533.642	19.51
533.84	19.66
534.038	19.77
534.236	19.88
534.434	19.91
534.632	20.07
534.83	20.12
535.027	20.19
535.225	20.19
535.423	20.25
535.621	20.3
535.819	20.32
536.017	20.33
536.215	20.34
536.412	20.35
536.61	20.41
536.808	20.33
537.006	20.42
537.203	20.43
537.401	20.52
537.599	20.53
537.797	20.46
537.994	20.62
538.192	20.68
538.39	20.58
538.587	20.65
538.785	20.73
538.983	20.82
539.18	20.75
539.378	20.77
539.575	20.78
539.773	20.8
539.97	20.85
540.168	20.8
540.366	20.86
540.563	20.93
540.761	20.91
540.958	20.91
541.155	20.92
541.353	20.99
541.55	21.01
541.748	21.05
541.945	21.15
542.143	21.23
542.34	21.3
542.537	21.26
542.735	21.4
542.932	21.46
543.129	21.5
543.327	21.6
543.524	21.64
543.721	21.68
543.919	21.74
544.116	21.72
544.313	21.74
544.51	21.79
544.708	21.83
544.905	21.81
545.102	21.86
545.299	21.92
545.496	21.86
545.693	21.91
545.891	21.94
546.088	21.91
546.285	21.86
546.482	21.82
546.679	21.83
546.876	21.93
547.073	21.96
547.27	22.03
547.467	22.01
547.664	22
547.861	21.96
548.058	22.12
548.255	22.19
548.452	22.35
548.649	22.45
548.846	22.65
549.043	22.71
549.24	22.78
549.437	22.84
549.633	22.95
549.83	23.05
550.027	23.2
550.224	23.24
550.421	23.33
550.618	23.35
550.814	23.41
551.011	23.35
551.208	23.3
551.405	23.34
551.601	23.41
551.798	23.42
551.995	23.5
552.191	23.5
552.388	23.45
552.585	23.55
552.781	23.59
552.978	23.62
553.175	23.71
553.371	23.83
553.568	23.89
553.764	23.9
553.961	23.99
554.157	24.01
554.354	24.08
554.55	24.21
554.747	24.26
554.943	24.3
555.14	24.38
555.336	24.37
555.533	24.31
555.729	24.27
555.926	24.25
556.122	24.33
556.318	24.46
556.515	24.55
556.711	24.47
556.907	24.45
557.104	24.48
557.3	24.43
557.496	24.41
557.693	24.58
557.889	24.67
558.085	24.78
558.281	24.83
558.478	24.82
558.674	24.86
558.87	24.84
559.066	24.89
559.262	25.02
559.459	25.12
559.655	25.21
559.851	25.22
560.047	25.26
560.243	25.37
560.439	25.35
560.635	25.33
560.831	25.28
561.027	25.4
561.223	25.44
561.419	25.49
561.615	25.48
561.811	25.49
562.007	25.56
562.203	25.63
562.399	25.53
562.595	25.59
562.791	25.76
562.987	25.86
563.183	25.97
563.379	25.95
563.575	25.93
563.771	26.01
563.966	26.08
564.162	25.97
564.358	26.03
564.554	26.06
564.75	26.06
564.945	25.93
565.141	26
565.337	25.92
565.533	25.97
565.728	26.06
565.924	25.97
566.12	26
566.315	26.16
566.511	26.09
566.707	26.23
566.902	26.32
567.098	26.53
567.293	26.53
567.489	26.66
567.684	26.72
567.88	26.63
568.076	26.81
568.271	26.89
568.467	26.89
568.662	26.89
568.858	26.83
569.053	26.76
569.248	26.72
569.444	26.7
569.639	26.75
569.835	26.8
570.03	26.84
570.225	26.88
570.421	26.88
570.616	26.88
570.812	26.94
571.007	27
571.202	27.09
571.397	27.11
571.593	27.22
571.788	27.29
571.983	27.27
572.178	27.37
572.374	27.51
572.569	27.6
572.764	27.76
572.959	27.78
573.154	27.83
573.35	27.83
573.545	27.97
573.74	28
573.935	27.95
574.13	28.06
574.325	28.1
574.52	28.08
574.715	28.12
574.91	28.16
575.105	28.33
575.3	28.4
575.495	28.55
575.69	28.58
575.885	28.58
576.08	28.69
576.275	28.76
576.47	28.8
576.665	28.87
576.86	28.92
577.055	28.84
577.25	28.75
577.444	28.78
577.639	28.8
577.834	28.8
578.029	28.94
578.224	29.1
578.418	29.22
578.613	29.24
578.808	29.29
579.003	29.33
579.197	29.38
579.392	29.69
579.587	29.81
579.781	29.84
579.976	29.86
580.171	29.87
580.365	29.71
580.56	29.62
580.755	29.6
580.949	29.62
581.144	29.69
581.338	29.62
581.533	29.41
581.727	29.36
581.922	29.32
582.116	29.33
582.311	29.36
582.505	29.4
582.7	29.53
582.894	29.73
583.089	29.71
583.283	29.65
583.478	29.83
583.672	29.93
583.866	29.9
584.061	30.02
584.255	30.04
584.449	29.92
584.644	29.92
584.838	29.92
585.032	29.71
585.226	29.7
585.421	29.7
585.615	29.87
585.809	29.85
586.003	30.05
586.198	30.03
586.392	30.2
586.586	30.33
586.78	30.42
586.974	30.36
587.168	30.43
587.363	30.5
587.557	30.58
587.751	30.45
587.945	30.59
588.139	30.55
588.333	30.51
588.527	30.32
588.721	30.31
588.915	30.31
589.109	30.45
589.303	30.56
589.497	30.56
589.691	30.66
589.885	30.78
590.079	30.89
590.273	30.82
590.466	30.83
590.66	30.91
590.854	30.94
591.048	30.86
591.242	30.8
591.436	30.76
591.629	30.63
591.823	30.61
592.017	30.54
592.211	30.36
592.404	30.38
592.598	30.41
592.792	30.49
592.986	30.5
593.179	30.52
593.373	30.55
593.567	30.54
593.76	30.74
593.954	30.67
594.147	30.71
594.341	30.81
594.535	30.93
594.728	30.93
594.922	30.99
595.115	30.83
595.309	30.9
595.502	30.95
595.696	31.07
595.889	31.07
596.083	31.06
596.276	31.16
596.47	31.12
596.663	31.05
596.856	31.06
597.05	31.11
597.243	31.38
597.437	31.41
597.63	31.35
597.823	31.21
598.017	31.27
598.21	31.42
598.403	31.44
598.596	31.43
598.79	31.49
598.983	31.6
599.176	31.67
599.369	31.57
599.563	31.75
599.756	31.85
599.949	31.94
600.142	32.01
600.335	32
600.528	31.79
600.722	31.86
600.915	31.9
601.108	32.03
601.301	31.99
601.494	31.99
601.687	31.85
601.88	31.93
602.073	31.95
602.266	31.91
602.459	31.85
602.652	32.01
602.845	32.02
603.038	32.01
603.231	31.83
603.424	31.81
603.617	31.8
603.809	31.73
604.002	31.61
604.195	31.72
604.388	31.81
604.581	31.8
604.774	31.84
604.966	31.82
605.159	31.65
605.352	31.58
605.545	31.57
605.737	31.63
605.93	31.75
606.123	31.86
606.316	31.8
606.508	31.59
606.701	31.67
606.894	31.55
607.086	31.77
607.279	31.86
607.471	32.08
607.664	32.1
607.857	32.17
608.049	32.16
608.242	32.12
608.434	32.11
608.627	32.19
608.819	32.15
609.012	32.18
609.204	32.05
609.397	32.06
609.589	32.07
609.782	32.1
609.974	32
610.166	32.06
610.359	32.08
610.551	32.07
610.743	31.99
610.936	32.09
611.128	32.12
611.32	32.1
611.513	32.25
611.705	32.39
611.897	32.28
612.09	32.34
612.282	32.32
612.474	32.39
612.666	32.51
612.858	32.56
613.051	32.36
613.243	32.45
613.435	32.58
613.627	32.76
613.819	32.63
614.011	32.84
614.203	33.05
614.395	33.02
614.588	32.94
614.78	32.75
614.972	32.87
615.164	32.99
615.356	32.89
615.548	32.8
615.74	32.67
615.932	32.54
616.124	32.42
616.315	32.35
616.507	32.48
616.699	32.63
616.891	32.55
617.083	32.58
617.275	32.74
617.467	32.92
617.659	32.87
617.85	32.83
618.042	32.95
618.234	32.94
618.426	32.8
618.618	32.75
618.809	32.7
619.001	32.9
619.193	32.91
619.384	32.81
619.576	32.67
619.768	32.62
619.959	32.48
620.151	32.54
620.343	32.55
620.534	32.45
620.726	32.55
620.917	32.5
621.109	32.32
621.301	32.2
621.492	32.19
621.684	32.11
621.875	32.32
622.067	32.5
622.258	32.39
622.45	32.43
622.641	32.63
622.832	32.65
623.024	32.77
623.215	33
623.407	32.97
623.598	33.06
623.789	33.23
623.981	33.06
624.172	33.21
624.363	33.29
624.555	33.17
624.746	33.15
624.937	33.1
625.129	33.05
625.32	33.12
625.511	33.23
625.702	33.24
625.893	33.04
626.085	33.08
626.276	32.89
626.467	32.8
626.658	32.87
626.849	32.79
627.04	32.75
627.231	32.68
627.422	32.55
627.614	32.47
627.805	32.46
627.996	32.59
628.187	32.52
628.378	32.59
628.569	32.83
628.76	32.64
628.951	32.74
629.142	32.83
629.332	32.84
629.523	32.88
629.714	32.87
629.905	32.76
630.096	32.98
630.287	33.06
630.478	33.05
630.669	32.92
630.859	33.39
631.05	33.31
631.241	33.04
631.432	32.98
631.623	33.04
631.813	32.99
632.004	33.04
632.195	32.84
632.385	32.79
632.576	32.83
632.767	32.87
632.957	32.61
633.148	32.8
633.339	32.97
633.529	33.11
633.72	33.07
633.91	33.17
634.101	33.03
634.292	33.04
634.482	33.19
634.673	33.16
634.863	32.98
635.054	33.19
635.244	33.17
635.435	33.12
635.625	33.1
635.815	33.13
636.006	33.09
636.196	33.2
636.387	33.08
636.577	33.05
636.767	32.91
636.958	33.09
637.148	32.87
637.338	32.69
637.529	32.77
637.719	32.89
637.909	33.04
638.099	33.25
638.29	33.35
638.48	33.38
638.67	33.36
638.86	33.52
639.05	33.41
639.241	33.6
639.431	33.72
639.621	33.7
639.811	33.57
640.001	33.4
640.191	33.4
640.381	33.29
640.571	33.31
640.761	33.27
640.951	33.39
641.141	33.43
641.331	33.13
641.521	33.12
641.711	33.2
641.901	33.21
642.091	33.05
642.281	32.84
642.471	32.76
642.661	32.86
642.851	33.1
643.041	33.07
643.231	33.16
643.42	33.21
643.61	33.17
643.8	33.14
643.99	33.4
644.18	33.39
644.369	33.38
644.559	33.67
644.749	33.64
644.939	33.55
645.128	33.67
645.318	33.75
645.508	33.96
645.697	34.02
645.887	34.04
646.076	33.66
646.266	33.8
646.456	33.87
646.645	33.89
646.835	33.95
647.024	33.97
647.214	33.87
647.403	33.63
647.593	33.62
647.782	33.85
647.972	33.93
648.161	33.99
648.351	34.11
648.54	34.03
648.73	33.9
648.919	33.85
649.108	33.9
649.298	33.97
649.487	33.89
649.677	33.84
649.866	33.63
650.055	33.36
650.244	33.52
650.434	33.58
650.623	33.65
650.812	33.54
651.002	33.59
651.191	33.48
651.38	33.34
651.569	33.59
651.758	33.6
651.947	33.64
652.137	33.84
652.326	33.89
652.515	33.66
652.704	33.64
652.893	33.84
653.082	33.96
653.271	33.84
653.46	33.81
653.649	33.77
653.838	33.88
654.027	33.65
654.216	33.43
654.405	33.24
654.594	33.35
654.783	33.45
654.972	33.44
655.161	33.35
655.35	33.53
655.539	33.5
655.728	33.36
655.916	33.38
656.105	33.31
656.294	33.61
656.483	33.58
656.672	33.63
656.86	33.57
657.049	33.57
657.238	33.56
657.427	33.37
657.615	33.38
657.804	33.3
657.993	33.23
658.181	33.3
658.37	33.37
658.559	33.36
658.747	33.32
658.936	33.23
659.125	33.23
659.313	33.07
659.502	33.26
659.69	33.35
659.879	33.52
660.067	33.45
660.256	33.69
660.444	33.58
660.633	33.69
660.821	33.81
661.01	33.92
661.198	34.03
661.387	34
661.575	33.97
661.763	34.15
661.952	34.05
662.14	34.23
662.328	34.04
662.517	33.88
662.705	33.97
662.893	33.88
663.082	33.84
663.27	33.56
663.458	33.85
663.646	34.06
663.834	33.69
664.023	33.8
664.211	33.6
664.399	33.69
664.587	33.74
664.775	33.63
664.963	33.72
665.152	33.5
665.34	33.63
665.528	33.66
665.716	33.4
665.904	33.69
666.092	33.62
666.28	33.72
666.468	33.7
666.656	33.75
666.844	33.81
667.032	33.69
667.22	34.1
667.408	34.06
667.596	33.91
667.784	33.96
667.971	33.74
668.159	33.78
668.347	33.93
668.535	33.9
668.723	33.85
668.911	33.92
669.098	33.66
669.286	33.68
669.474	33.71
669.662	33.78
669.849	33.92
670.037	34.14
670.225	34.13
670.413	34.08
670.6	34.12
670.788	34.13
670.976	34.17
671.163	34.42
671.351	34.2
671.538	34.42
671.726	34.41
671.913	34.34
672.101	34.25
672.289	34.41
672.476	34.35
672.664	34.25
672.851	34.21
673.039	34.1
673.226	34.14
673.413	34.1
673.601	34.04
673.788	34.23
673.976	34.22
674.163	34.29
674.35	34.28
674.538	34.35
674.725	34.51
674.912	34.88
675.1	34.77
675.287	34.8
675.474	34.7
675.662	34.63
675.849	34.43
676.036	34.4
676.223	34.09
676.411	34.03
676.598	34.05
676.785	34.39
676.972	34.24
677.159	34.38
677.346	34.44
677.533	34.49
677.721	34.34
677.908	34.11
678.095	34.04
678.282	34.33
678.469	34.42
678.656	34.4
678.843	34.15
679.03	33.95
679.217	33.94
679.404	34.14
679.591	34.15
679.778	34.22
679.964	34.6
680.151	34.61
680.338	34.38
680.525	34.26
680.712	34.4
680.899	34.41
681.086	34.72
681.272	34.89
681.459	34.66
681.646	34.63
681.833	34.79
682.02	34.6
682.206	34.93
682.393	35.34
682.58	35.33
682.766	34.9
682.953	34.78
683.14	34.63
683.326	34.54
683.513	34.76
683.7	34.89
683.886	34.75
684.073	35.1
684.259	34.78
684.446	34.54
684.632	34.65
684.819	34.68
685.005	34.71
685.192	34.62
685.378	34.44
685.565	34.23
685.751	34.3
685.938	34.42
686.124	34.05
686.31	34.05
686.497	34.23
686.683	34.61
686.87	34.8
687.056	34.72
687.242	34.84
687.429	35.18
687.615	35.27
687.801	35.04
687.987	34.98
688.174	35.27
688.36	35.04
688.546	35.18
688.732	34.95
688.918	35.26
689.105	35.34
689.291	35.48
689.477	35.29
689.663	35.18
689.849	35.45
690.035	35.41
690.221	35.14
690.407	35.38
690.593	34.93
690.779	34.73
690.965	34.39
691.151	34.55
691.337	34.58
691.523	34.74
691.709	34.57
691.895	34.56
692.081	34.54
692.267	34.64
692.453	34.57
692.639	34.69
692.825	34.6
693.011	34.49
693.196	34.38
693.382	33.72
693.568	33.54
693.754	33.71
693.94	33.93
694.125	33.95
694.311	33.96
694.497	33.61
694.682	33.71
694.868	33.97
695.054	34.17
695.239	34.11
695.425	34.51
695.611	34.54
695.796	34.42
695.982	34.17
696.168	34.3
696.353	34.52
696.539	34.96
696.724	34.92
696.91	34.78
697.095	34.48
697.281	34.33
697.466	34.36
697.652	34.42
697.837	34.39
698.023	34.49
698.208	34.35
698.393	34.1
698.579	33.99
698.764	33.92
698.949	33.66
699.135	33.9
699.32	33.82
699.505	33.82
699.691	33.51
699.876	33.41
700.061	33.37
700.246	33.54
700.432	33.54
700.617	33.75
700.802	33.62
700.987	33.89
701.172	33.89
701.358	34.17
701.543	34.05
701.728	34.15
701.913	34.26
702.098	34.29
702.283	34.24
702.468	34.33
702.653	34.02
702.838	34.36
703.023	34.24
703.208	34.17
703.393	34.5
703.578	34.46
703.763	34.45
703.948	34.65
704.133	34.65
704.318	34.34
704.503	34.51
704.688	34.36
704.873	33.96
705.057	34.09
705.242	33.72
705.427	33.29
705.612	33.57
705.797	33.68
705.981	33.98
706.166	33.8
706.351	33.75
706.536	33.61
706.72	33.99
706.905	34.14
707.09	34.2
707.274	34.8
707.459	34.75
707.644	34.35
707.828	34.33
708.013	33.95
708.197	33.93
708.382	34.16
708.567	34.49
708.751	34.12
708.936	34.14
709.12	34.06
709.305	33.89
709.489	34.01
709.673	34.51
709.858	34.59
710.042	34.53
710.227	34.4
710.411	34.25
710.596	34.04
710.78	33.98
710.964	33.98
711.149	34.35
711.333	34.37
711.517	34.29
711.702	33.83
711.886	33.83
712.07	33.97
712.254	34.31
712.438	34.47
712.623	34.4
712.807	34.69
712.991	34.75
713.175	34.65
713.359	34.59
713.544	34.75
713.728	35
713.912	35
714.096	34.88
714.28	34.58
714.464	34.7
714.648	34.4
714.832	34.44
715.016	34.01
715.2	33.84
715.384	33.86
715.568	33.86
715.752	33.79
715.936	33.51
716.12	33.36
716.304	33.25
716.488	33.09
716.671	33.29
716.855	33.16
717.039	34.04
717.223	33.73
717.407	33.61
717.59	33.48
717.774	33.68
717.958	34.04
718.142	34.56
718.325	34.71
718.509	34.54
718.693	34.44
718.877	34.26
719.06	33.91
719.244	34.2
719.428	34.28
719.611	34.78
719.795	34.25
719.978	34.01
720.162	33.8
720.345	33.9
720.529	34.35
720.713	34.47
720.896	34.87
721.08	34.57
721.263	34.83
721.446	34.87
721.63	34.85
721.813	34.89
721.997	35.31
722.18	35.33
722.364	35.53
722.547	35.51
722.73	35.04
722.914	34.97
723.097	34.61
723.28	34.27
723.464	34.19
723.647	33.73
723.83	34.38
724.013	33.83
724.197	33.41
724.38	33.08
724.563	32.91
724.746	33.8
724.929	33.88
725.112	34.41
725.296	34.72
725.479	34.71
725.662	34.89
725.845	34.4
726.028	34.59
726.211	34.91
726.394	35.03
726.577	34.96
726.76	33.99
726.943	33.62
727.126	33.71
727.309	33.38
727.492	33.32
727.675	33.03
727.858	33.2
728.041	33.69
728.224	33.76
728.407	34.04
728.589	34
728.772	34.75
728.955	34.94
729.138	34.7
729.321	34.92
729.503	34.98
729.686	35.27
729.869	35.19
730.052	34.86
730.234	34.56
730.417	34.71
730.6	34.73
730.782	34.63
730.965	34.81
731.148	34.9
731.33	34.83
731.513	34.99
731.695	34.7
731.878	34.87
732.061	34.47
732.243	34.7
732.426	34.21
732.608	34.06
732.791	34.07
732.973	33.81
733.156	33.86
733.338	33.85
733.52	33.9
733.703	34.08
733.885	33.79
734.068	34.03
734.25	34.17
734.432	34.59
734.615	34.86
734.797	34.56
734.979	34.12
735.162	34.27
735.344	34.02
735.526	33.76
735.708	33.84
735.891	34.33
736.073	34.35
736.255	34.21
736.437	33.79
736.619	33.69
736.802	33.63
736.984	34.3
737.166	33.86
737.348	34.26
737.53	33.99
737.712	33.74
737.894	33.24
738.076	33.24
738.258	33.51
738.44	33.43
738.622	33.38
738.804	33.87
738.986	34.09
739.168	33.91
739.35	33.79
739.532	34.14
739.714	34.14
739.896	34.97
740.078	34.94
740.259	34.24
740.441	34.61
740.623	34.73
740.805	34.63
740.987	34.52
741.168	35.13
741.35	35.38
741.532	35.66
741.714	36.05
741.895	35
742.077	35.41
742.259	36.06
742.44	35.67
742.622	35.4
742.804	35.31
742.985	34.95
743.167	34.62
743.348	34.42
743.53	33.81
743.711	33.5
743.893	33.89
744.075	33.58
744.256	33.28
744.438	33.78
744.619	33.67
744.8	33.99
744.982	33.91
745.163	33.95
745.345	33.61
745.526	33.78
745.707	33.9
745.889	34.11
746.07	34.36
746.252	34.11
746.433	33.86
746.614	34.29
746.795	34.39
746.977	34.1
747.158	34.11
747.339	34.66
747.52	34.76
747.702	34.46
747.883	34.8
748.064	34.61
748.245	35.22
748.426	35.03
748.607	34.59
748.788	34.37
748.97	35.12
749.151	35.24
749.332	34.91
749.513	34.59
749.694	34.84
749.875	34.18
750.056	34.5
750.237	34.62
750.418	35.18
750.599	35.7
750.78	35.81
750.96	35.85
751.141	36.13
751.322	36.09
751.503	36.3
751.684	36.33
751.865	36.05
752.046	35.6
752.226	35.45
752.407	35.38
752.588	35.7
752.769	35.33
752.949	35.31
753.13	35.67
753.311	35.63
753.492	36.06
753.672	36.28
753.853	36.53
754.034	36.73
754.214	36.72
754.395	36.23
754.575	36.26
754.756	35.79
754.937	35.35
755.117	34.89
755.298	35.21
755.478	35
755.659	35.18
755.839	35.01
756.02	35.14
756.2	35.06
756.381	34.78
756.561	34.02
756.741	34.48
756.922	35.1
757.102	35.25
757.283	35.17
757.463	35.06
757.643	34.37
757.823	34.31
758.004	33.79
758.184	33.28
758.364	33.43
758.545	33.89
758.725	33.97
758.905	33.15
759.085	33.19
759.265	33.21
759.446	33.28
759.626	33.08
759.806	33.44
759.986	33.64
760.166	34.11
760.346	34.07
760.526	33.74
760.706	33.56
760.886	33.91
761.066	33.92
761.246	33.75
761.426	34.25
761.606	34.68
761.786	34.49
761.966	34.3
762.146	34.25
762.326	34.47
762.506	34.63
762.686	34.73
762.866	34.77
763.046	34.62
763.225	34.67
763.405	34.59
763.585	34.4
763.765	34.4
763.945	34.64
764.124	34.82
764.304	34.85
764.484	35.08
764.664	34.74
764.843	34.57
765.023	34.5
765.203	34.46
765.382	34.09
765.562	34.68
765.741	34.66
765.921	34.53
766.101	34
766.28	33.65
766.46	33.18
766.639	33.71
766.819	33.51
766.998	33.55
767.178	33.43
767.357	33.08
767.537	32.16
767.716	31.86
767.896	31.69
768.075	32.24
768.254	32.16
768.434	32.06
768.613	31.65
768.792	32.09
768.972	32.23
769.151	32.86
769.33	33.67
769.51	34.41
769.689	34.73
769.868	34.88
770.047	33.87
770.226	34.19
770.406	34.63
770.585	35.41
770.764	34.76
770.943	35.31
771.122	34.32
771.301	33.63
771.48	33.8
771.66	34.55
771.839	33.82
772.018	34.37
772.197	34.29
772.376	33.68
772.555	32.42
772.734	32.66
772.913	32.08
773.092	32.73
773.271	33.25
773.449	32.42
773.628	31.89
773.807	32.71
773.986	32.72
774.165	33.13
774.344	34.22
774.523	35.11
774.701	35.91
774.88	36.53
775.059	36.2
775.238	36.38
775.417	37.27
775.595	37.18
775.774	37.61
775.953	37.19
776.131	37.12
776.31	36.73
776.489	36.7
776.667	35.83
776.846	35.46
777.025	35.99
777.203	35.55
777.382	35.45
777.56	35.19
777.739	34.7
777.917	36.06
778.096	36.05
778.274	35.4
778.453	35.25
778.631	35.32
778.81	34.81
778.988	34.83
779.166	34.84
779.345	34.51
779.523	34.26
779.702	33.93
779.88	32.86
780.058	33.43
780.237	33.87
780.415	33.44
780.593	33.8
780.771	34.14
780.95	34.03
781.128	33.43
781.306	33.4
781.484	34.75
781.662	35.02
781.841	35.56
782.019	34.57
782.197	34.49
782.375	36.17
782.553	36.81
782.731	36.16
782.909	36.07
783.087	37.03
783.265	36.51
783.443	36.57
783.621	36.46
783.799	35.77
783.977	35.57
784.155	34.94
784.333	34.59
784.511	33.71
784.689	35.19
784.867	35.07
785.045	34.76
785.223	35.5
785.4	34.41
785.578	35.2
785.756	36.11
785.934	37.22
786.112	37.69
786.289	36.54
786.467	37.3
786.645	36.24
786.823	35.94
787	36.35
787.178	35.74
787.356	35.97
787.533	35.41
787.711	35.14
787.889	34.64
788.066	34.7
788.244	35.07
788.421	34.81
788.599	34.38
788.776	35.05
788.954	35.01
789.131	35.43
789.309	35.5
789.486	35.5
789.664	35.12
789.841	34.91
790.019	35
790.196	34.63
790.373	34.99
790.551	35.78
790.728	34.58
790.906	34.21
791.083	34.58
791.26	34.69
791.437	34.76
791.615	34.23
791.792	34.7
791.969	35.12
792.146	35.37
792.324	34.18
792.501	34.14
792.678	34.97
792.855	35.05
793.032	34.57
793.209	34.68
793.387	35.31
793.564	35.63
793.741	35.42
793.918	34.73
794.095	35.29
794.272	35.53
794.449	35.51
794.626	35.98
794.803	35.74
794.98	34.59
795.157	33.78
795.334	32.91
795.511	34.05
795.688	34.11
795.864	34.24
796.041	33.78
796.218	34.15
796.395	33.82
796.572	33.49
796.749	34.28
796.925	35.5
797.102	35.99
797.279	35.97
797.456	35.1
797.632	34.73
797.809	34.25
797.986	34.4
798.162	34.65
798.339	34.76
798.516	34.66
798.692	33.25
798.869	33.02
799.046	33.08
799.222	33.93
799.399	33.93
799.575	34.39
799.752	34.8
799.928	34.88
800.105	33.94
800.281	34.35
800.458	33.8
800.634	34.58
800.811	34.76
800.987	35.05
801.163	34.61
801.34	34.97
801.516	34.65
801.692	35.64
801.869	35.62
802.045	35.24
802.221	35.23
802.398	35.96
802.574	35.42
802.75	35.75
802.926	35.89
803.103	35.15
803.279	34.35
803.455	33.13
803.631	32.63
803.807	32.2
803.983	34.21
804.16	33.5
804.336	33.06
804.512	33.68
804.688	32.58
804.864	31.83
805.04	32.15
805.216	33.15
805.392	35.13
805.568	34.78
805.744	34.51
805.92	33.25
806.096	34.74
806.272	34.85
806.448	35.92
806.623	37.34
806.799	38.64
806.975	38.89
807.151	39.48
807.327	38.99
807.503	38.73
807.678	38.82
807.854	40.71
808.03	39.56
808.206	39.38
808.381	38.28
808.557	37.82
808.733	36.38
808.908	36.36
809.084	34.77
809.26	34.7
809.435	35.28
809.611	34.73
809.787	32.59
809.962	31.21
810.138	30.56
810.313	29.94
810.489	29.9
810.664	30.22
810.84	30.28
811.015	30.95
811.191	32.1
811.366	31.37
811.542	31.95
811.717	32.4
811.892	33.6
812.068	33.47
812.243	33.41
812.419	33.54
812.594	33.85
812.769	33.9
812.944	34.49
813.12	32.88
813.295	32.88
813.47	31.23
813.645	31.19
813.821	29.62
813.996	31.99
814.171	33.16
814.346	32
814.521	32.24
814.697	31.26
814.872	30.66
815.047	29.97
815.222	29.61
815.397	30.89
815.572	31.08
815.747	32.4
815.922	31.94
816.097	30.8
816.272	32.05
816.447	30.98
816.622	32.54
816.797	33.19
816.972	33.33
817.147	34.52
817.322	35.11
817.496	35.86
817.671	35.73
817.846	34.35
818.021	35.62
818.196	35.14
818.371	36.08
818.545	35.82
818.72	34.99
818.895	35.55
819.069	35.22
819.244	35.01
819.419	34.07
819.594	34.09
819.768	33.93
819.943	33.05
820.117	32.82
820.292	32.97
820.467	32.68
820.641	32.79
820.816	32.74
820.99	32.67
821.165	33.3
821.339	33.52
821.514	33.61
821.688	33.94
821.863	34.12
822.037	34.28
822.212	34.18
822.386	34.12
822.56	33.94
822.735	34.04
822.909	33.95
823.084	33.69
823.258	33.69
823.432	33.73
823.606	33.53
823.781	33.31
823.955	33.06
824.129	32.93
824.303	33.3
824.478	33.47
824.652	33.17
824.826	33.54
825	33.83
825.174	33.94
825.348	33.41
825.523	33.84
825.697	34.24
825.871	34.48
826.045	34.22
826.219	33.78
826.393	33.66
826.567	34.05
826.741	33.7
826.915	33.48
827.089	33.58
827.263	34.09
827.437	33.85
827.611	33.72
827.784	33.75
827.958	33.63
828.132	33.33
828.306	33.74
828.48	33.71
828.654	33.82
828.827	33.28
829.001	33.01
829.175	33.3
829.349	33.48
829.522	33.37
829.696	32.72
829.87	32.94
830.044	34.53
830.217	34.38
830.391	34.04
830.565	33.83
830.738	34.63
830.912	34.2
831.085	33.15
831.259	32.84
831.432	33.03
831.606	34.13
831.779	34.61
831.953	33.53
832.126	34.57
832.3	33.72
832.473	34.03
832.647	33.27
832.82	32.82
832.994	33.17
833.167	32.61
833.34	32.74
833.514	32.66
833.687	32.45
833.86	32.75
834.034	32.21
834.207	33.67
834.38	34.4
834.553	34.49
834.727	35.18
834.9	35.02
835.073	35.72
835.246	35.23
835.419	35.47
835.593	35.89
835.766	35.69
835.939	35.89
836.112	34.4
836.285	33.82
836.458	33.36
836.631	33.08
836.804	33.93
836.977	33.78
837.15	34.97
837.323	33.84
837.496	32.63
837.669	32.44
837.842	31.93
838.015	33.02
838.188	32.75
838.361	33.94
838.533	34.12
838.706	33.37
838.879	33.02
839.052	31.2
839.225	31.23
839.398	33.46
839.57	34.34
839.743	35.69
839.916	34.37
840.088	34.86
840.261	34.9
840.434	35.52
840.607	36.26
840.779	37.1
840.952	37.82
841.124	38.17
841.297	35.6
841.47	34.09
841.642	32.07
841.815	34.02
841.987	32.97
842.16	32.31
842.332	32.37
842.505	30.64
842.677	30.89
842.85	32.86
843.022	34.42
843.194	36.45
843.367	39.89
843.539	42.22
843.712	39.85
843.884	42.28
844.056	45.43
844.229	42.99
844.401	45.72
844.573	41.21
844.745	38.59
844.918	39.1
845.09	39.37
845.262	37.08
845.434	34.04
845.606	34.29
845.779	30.53
845.951	28.38
846.123	29.8
846.295	30.55
846.467	34.01
846.639	34.25
846.811	33.55
846.983	32.03
847.155	31.53
847.327	30
847.499	34.92
847.671	38.51
847.843	38.19
848.015	41.04
848.187	39.09
848.359	35.6
848.531	36.55
848.703	33.68
848.875	34.64
849.047	34.02
849.218	37.46
849.39	33.69
849.562	27.97
849.734	27.13
849.905	23.46
850.077	26.99
850.249	30.79
850.421	30.6
850.592	30.78
850.764	28.17
850.936	27.35
851.107	23
851.279	26.14
851.451	28.17
851.622	29.78
851.794	32.69
851.965	28.71
852.137	25.94
852.308	25.7
852.48	26.18
852.651	30.67
852.823	30.53
852.994	36.38
853.166	32.61
853.337	30.75
853.509	30.41
853.68	33.72
853.851	35.77
854.023	38.96
854.194	42.27
854.365	42.58
854.537	39.41
854.708	42.98
854.879	35.84
855.05	39.26
855.222	39.7
855.393	39.79
855.564	36.83
855.735	35.34
855.906	35.63
856.078	31.05
856.249	34.35
856.42	33.85
856.591	32.6
856.762	36.61
856.933	35.28
857.104	37.2
857.275	41.03
857.446	39.54
857.617	37.9
857.788	34.25
857.959	35.31
858.13	33.08
858.301	34.39
858.472	30.58
858.643	32.82
858.814	36.36
858.985	37.11
859.155	31.45
859.326	31.96
859.497	34.72
859.668	35.85
859.839	36.51
860.009	34.87
860.18	34.11
860.351	37.09
860.522	31.39
860.692	23.4
860.863	20.29
861.034	25.63
861.204	23.85
861.375	21.71
861.546	23.28
861.716	22.39
861.887	24.02
862.057	21.83
862.228	18.79
862.398	23.13
862.569	28.13
862.739	35
862.91	26.98
863.08	27.99
863.251	29.38
863.421	31.7
863.592	33.57
863.762	35
863.932	37.8
864.103	39.19
864.273	38.34
864.443	39.62
864.614	40.39
864.784	43.24
864.954	48.65
865.125	47.42
865.295	43.01
865.465	44.85
865.635	39.37
865.805	36.16
865.976	35.78
866.146	35.95
866.316	38.96
866.486	36.05
866.656	34.88
866.826	30.07
866.996	32.29
867.166	35.27
867.336	34.18
867.506	33.38
867.676	35.55
867.846	37.73
868.016	36.69
868.186	35.77
868.356	32.97
868.526	35.85
868.696	33.55
868.866	33.54
869.036	29.47
869.206	25.7
869.376	29.74
869.545	29.34
869.715	28.44
869.885	27.81
870.055	22.83
870.224	25.69
870.394	23.39
870.564	26.87
870.734	25.73
870.903	24.86
871.073	22.73
871.243	25.28
871.412	32.14
871.582	34.7
871.751	37.31
871.921	40.18
872.091	40.56
872.26	39.38
872.43	36.45
872.599	35.14
872.769	33.2
872.938	36.18
873.108	32.72
873.277	32.01
873.446	25.99
873.616	24.73
873.785	20.06
873.955	18.39
874.124	19.99
874.293	23.23
874.463	19.59
874.632	22.89
874.801	26.43
874.971	28.73
875.14	26.34
875.309	28.32
875.478	30.84
875.647	35.92
875.817	34.24
875.986	32.97
876.155	28.95
876.324	31.61
876.493	35.78
876.662	33.59
876.831	31.3
877	32.06
877.17	35.68
877.339	32.52
877.508	26.21
877.677	25.45
877.846	26.57
878.015	29.95
878.184	28.49
878.352	28.39
878.521	27.22
878.69	27.93
878.859	26.99
879.028	25.78
879.197	27.33
879.366	31.16
879.534	33.33
879.703	33.05
879.872	32.91
880.041	33.49
880.21	32.17
880.378	33.28
880.547	33.79
880.716	34.15
880.884	34.03
881.053	33.79
881.222	34.45
881.39	33.76
881.559	35.14
881.727	34.78
881.896	35.17
882.065	35.77
882.233	35.54
882.402	34.42
882.57	33.62
882.739	33.57
882.907	33.57
883.076	33.44
883.244	33.21
883.412	31.84
883.581	31.73
883.749	31.52
883.918	30.62
884.086	30.61
884.254	32.79
884.423	34.05
884.591	34.38
884.759	35.19
884.927	34.15
885.096	35.8
885.264	37.03
885.432	38
885.6	36.9
885.769	38.68
885.937	38.27
886.105	35.65
886.273	34.74
886.441	33.52
886.609	32.32
886.777	34.25
886.945	32.88
887.113	32.55
887.281	30.33
887.449	33
887.617	29.48
887.785	30.6
887.953	33.3
888.121	34.03
888.289	37.85
888.457	35.31
888.625	35.69
888.793	37.13
888.961	37.78
889.129	41.75
889.296	38.56
889.464	42.2
889.632	43.34
889.8	42.62
889.967	42.1
890.135	36.67
