Data from 2938472_Reflection_2.txt Node
Date: Wed Jun 17 13:29:22 EDT 2015
User: robert
Spectrometer: USB4E03002
Autoset integration time: false
Trigger mode: 4
Integration Time (sec): 1.000000E-1
Scans to average: 10
Electric dark correction enabled: true
Nonlinearity correction enabled: false
Boxcar width: 5
Stray light correction enabled: false
XAxis mode: Wavelengths
Stop averaging: false
Number of Pixels in Spectrum: 3648
>>>>>Begin Spectral Data<<<<<
177.575	39.48
177.794	37.78
178.014	19.07
178.233	19.5
178.452	34.01
178.672	29.54
178.891	9.3
179.11	77.18
179.33	69.86
179.549	61
179.768	48.24
179.987	42.42
180.207	40.62
180.426	38.87
180.645	20.21
180.864	25.8
181.084	31.64
181.303	68.37
181.522	-52.53
181.741	27.58
181.96	6.8
182.179	-9.49
182.398	-16.21
182.618	-25.42
182.837	-54.71
183.056	-110.99
183.275	-179.52
183.494	-127.77
183.713	-178.53
183.932	-101.1
184.151	-153.11
184.37	-180.23
184.589	-143
184.808	-52.67
185.027	-70.95
185.246	-77.7
185.465	-70.37
185.684	-57.26
185.903	-114.85
186.122	-39.05
186.341	-614.06
186.56	-439.38
186.779	41.11
186.998	-454.84
187.216	123.51
187.435	349
187.654	-2617.44
187.873	144.86
188.092	42.93
188.311	162.58
188.53	86.36
188.748	13.95
188.967	-385.93
189.186	233.29
189.405	12419.35
189.623	-313.36
189.842	-93.46
190.061	-43.47
190.28	-90.4
190.498	228.37
190.717	1647.93
190.936	-1745.96
191.154	-959.38
191.373	-404.32
191.592	-257.46
191.81	-279.23
192.029	-466.92
192.248	-673.76
192.466	842.92
192.685	1498.78
192.904	-113.18
193.122	-230.83
193.341	-270
193.559	-273.61
193.778	-188.77
193.996	-195.71
194.215	-1206.91
194.433	-203.23
194.652	-242.71
194.87	-48.25
195.089	-99.38
195.307	-1194.07
195.526	-346.86
195.744	-370.72
195.963	-186.47
196.181	-111.79
196.399	-58.14
196.618	0.72
196.836	-15.81
197.055	35.71
197.273	-30.47
197.491	49.11
197.71	58.94
197.928	-55.85
198.146	-87.92
198.365	-29.43
198.583	-2591.2
198.801	143.5
199.019	261.14
199.238	307.8
199.456	236.52
199.674	351.45
199.892	1139.43
200.111	689.01
200.329	-271.11
200.547	-2602.74
200.765	401.91
200.983	239.04
201.202	-148.09
201.42	-237.89
201.638	-145.35
201.856	-52.12
202.074	-43.47
202.292	-219.33
202.51	-127.05
202.728	-71.01
202.946	-74.74
203.165	-14.7
203.383	-5.37
203.601	-19.66
203.819	-44.55
204.037	-95.41
204.255	-242.82
204.473	-4739.86
204.691	-197.16
204.909	-592.39
205.127	-580.61
205.345	-957.56
205.562	-294.75
205.78	-480.29
205.998	1094.64
206.216	1135.88
206.434	1177.68
206.652	-250.41
206.87	-190.31
207.088	-299.58
207.306	-186.22
207.523	-80.15
207.741	-66.05
207.959	-87.53
208.177	-34.08
208.395	-21.38
208.612	-30.98
208.83	20.67
209.048	15.08
209.266	43.57
209.483	43.75
209.701	23.5
209.919	8.47
210.136	34
210.354	1.8
210.572	-26.51
210.79	-43.46
211.007	-53.93
211.225	-73.9
211.442	-95.85
211.66	-92.86
211.878	-108.05
212.095	-124.45
212.313	-97.1
212.53	-93.3
212.748	-80.47
212.966	-60.86
213.183	-76.64
213.401	-82.86
213.618	-82.59
213.836	-85.07
214.053	-128.53
214.271	-197.01
214.488	-148.7
214.705	-138.95
214.923	-246.84
215.14	-213.35
215.358	-197.07
215.575	-208.53
215.793	-670.46
216.01	-197.48
216.227	-99.54
216.445	-52.95
216.662	-30.31
216.879	-37.39
217.097	-34.44
217.314	-22
217.531	-4.32
217.749	-7.35
217.966	-3.9
218.183	20.77
218.4	-1.21
218.618	-5.33
218.835	0.91
219.052	5.91
219.269	7.06
219.487	-12.14
219.704	-18.34
219.921	-37.47
220.138	-30.82
220.355	-21.92
220.572	-26.41
220.79	-9.63
221.007	-10.89
221.224	-17.22
221.441	-23.18
221.658	-23.2
221.875	-19.77
222.092	-10.56
222.309	-15.58
222.526	-26.41
222.743	-31.38
222.96	-18.4
223.177	-17.67
223.394	-18.24
223.611	-19.15
223.828	-10.85
224.045	-10.06
224.262	-6.39
224.479	-6.45
224.696	-2.86
224.913	-0.19
225.13	0.02
225.347	-1.71
225.564	1.3
225.781	3.99
225.997	3.61
226.214	5.01
226.431	7.58
226.648	7.79
226.865	8.31
227.082	9.17
227.298	10.19
227.515	11.44
227.732	11.83
227.949	10.7
228.165	9.46
228.382	12.01
228.599	12.03
228.816	11.45
229.032	10.64
229.249	10.84
229.466	10.05
229.682	9.41
229.899	7.33
230.116	6.65
230.332	6.48
230.549	7.51
230.765	5.87
230.982	3.19
231.199	1.49
231.415	2.3
231.632	0.12
231.848	2.43
232.065	1.51
232.281	2.92
232.498	3
232.714	2.52
232.931	2.23
233.147	0.82
233.364	1.45
233.58	1.18
233.797	2.02
234.013	1.7
234.23	0.66
234.446	0.18
234.662	1.85
234.879	2.05
235.095	6.08
235.312	5.05
235.528	5.26
235.744	4.97
235.961	7.15
236.177	6.5
236.393	6.41
236.61	6.88
236.826	6.64
237.042	5.14
237.258	5.84
237.475	4.14
237.691	6.31
237.907	6.46
238.123	9.07
238.339	8.87
238.556	9.07
238.772	10.17
238.988	9.19
239.204	8.83
239.42	9.28
239.636	9.13
239.853	8.81
240.069	8.27
240.285	8.45
240.501	7.06
240.717	7.18
240.933	7.16
241.149	6.84
241.365	7.27
241.581	8.18
241.797	8.52
242.013	8.31
242.229	8.55
242.445	8.63
242.661	8.91
242.877	10.61
243.093	10.77
243.309	10.87
243.525	11.45
243.741	11.73
243.957	10.62
244.173	10.21
244.388	9.45
244.604	9.09
244.82	9.69
245.036	9.39
245.252	8.94
245.468	8.63
245.683	8.86
245.899	8.26
246.115	8.34
246.331	8.44
246.547	8.36
246.762	8.75
246.978	8.8
247.194	8.15
247.409	8.2
247.625	7.85
247.841	8.15
248.057	7.24
248.272	7.91
248.488	7.28
248.703	7.61
248.919	7.62
249.135	7.43
249.35	7.42
249.566	8.29
249.782	7.31
249.997	8.27
250.213	8.01
250.428	8.95
250.644	8.6
250.859	9.03
251.075	8.38
251.29	7.67
251.506	7.95
251.721	8.14
251.937	7.36
252.152	7.77
252.368	8.17
252.583	7.71
252.798	7.95
253.014	8.08
253.229	7.67
253.445	7.46
253.66	8.44
253.875	7.67
254.091	6.44
254.306	6.24
254.521	7.74
254.737	6.22
254.952	6.18
255.167	5.04
255.383	6.14
255.598	6.45
255.813	6.82
256.028	6.75
256.244	6.7
256.459	7.26
256.674	7.56
256.889	6.4
257.104	6.25
257.32	7.34
257.535	7.61
257.75	7.03
257.965	6.69
258.18	6.58
258.395	6.58
258.61	7.07
258.826	6.74
259.041	6.48
259.256	6.78
259.471	7.07
259.686	6.31
259.901	6.28
260.116	6.46
260.331	7.01
260.546	7.1
260.761	6.9
260.976	6.43
261.191	7.3
261.406	7.57
261.621	6.92
261.836	6.03
262.05	5.92
262.265	6.33
262.48	5.61
262.695	4.92
262.91	4.71
263.125	5.44
263.34	5.78
263.555	4.58
263.769	4.87
263.984	5.04
264.199	5.47
264.414	4.94
264.629	5.11
264.843	5.87
265.058	5.87
265.273	6.07
265.488	5.81
265.702	5.65
265.917	5.85
266.132	5.38
266.346	5.43
266.561	5.36
266.776	6.05
266.99	5.49
267.205	5.09
267.42	5.41
267.634	5.98
267.849	5.44
268.063	5.12
268.278	5.5
268.492	6.23
268.707	6.35
268.922	6.47
269.136	5.86
269.351	5.81
269.565	5.68
269.78	5.1
269.994	4.69
270.209	5.19
270.423	5.29
270.637	5.51
270.852	5.23
271.066	5.19
271.281	5.3
271.495	5.71
271.709	5.69
271.924	5.68
272.138	5.9
272.353	6.07
272.567	5.46
272.781	5.21
272.996	4.69
273.21	4.53
273.424	4.3
273.638	4.6
273.853	4.77
274.067	4.7
274.281	4.7
274.495	4.5
274.71	4.56
274.924	4.93
275.138	4.89
275.352	5.36
275.566	5.19
275.781	5.69
275.995	4.92
276.209	4.9
276.423	4.5
276.637	4.29
276.851	3.8
277.065	2.74
277.279	3.21
277.493	4.01
277.707	3.37
277.921	3.68
278.135	3.64
278.349	3.57
278.563	3.21
278.777	3.62
278.991	3.87
279.205	4.7
279.419	5.16
279.633	4.66
279.847	4.59
280.061	4.89
280.275	5.15
280.489	4.77
280.703	5.46
280.917	5.68
281.131	5.71
281.344	5.8
281.558	5.63
281.772	5.45
281.986	5.4
282.2	4.97
282.414	4.62
282.627	4.32
282.841	4.63
283.055	4.51
283.269	4.46
283.482	4.56
283.696	4.4
283.91	4.58
284.123	4.94
284.337	5.23
284.551	5.49
284.764	5.8
284.978	5.97
285.192	5.69
285.405	5.79
285.619	5.98
285.833	5.98
286.046	6.58
286.26	6.11
286.473	6.33
286.687	5.86
286.9	5.65
287.114	5.74
287.327	5.86
287.541	6.55
287.754	6.44
287.968	6.38
288.181	5.99
288.395	5.52
288.608	5.82
288.822	5.71
289.035	6.27
289.248	6.34
289.462	6.36
289.675	6.09
289.889	5.87
290.102	5.61
290.315	5.67
290.529	6.15
290.742	6.41
290.955	6.53
291.169	6.27
291.382	5.84
291.595	6.15
291.808	6.23
292.022	6.62
292.235	6.77
292.448	6.49
292.661	6.48
292.875	6.34
293.088	6.36
293.301	6.33
293.514	6.49
293.727	6.43
293.94	6.13
294.153	6.43
294.367	6.68
294.58	6.54
294.793	7.01
295.006	7.36
295.219	7.6
295.432	7.66
295.645	7.82
295.858	7.99
296.071	8.4
296.284	8.69
296.497	8.88
296.71	8.59
296.923	8.5
297.136	8.43
297.349	8.5
297.562	8.41
297.775	8.53
297.988	8.47
298.201	8.38
298.414	8.17
298.626	8.02
298.839	7.7
299.052	7.8
299.265	7.94
299.478	8.14
299.691	7.74
299.903	7.77
300.116	7.62
300.329	7.45
300.542	7.29
300.755	7.38
300.967	7.4
301.18	7.65
301.393	7.88
301.605	8.35
301.818	8.24
302.031	8.24
302.243	8.21
302.456	8.32
302.669	8.47
302.881	8.59
303.094	8.77
303.307	8.72
303.519	8.05
303.732	8.28
303.944	7.87
304.157	7.66
304.37	8.03
304.582	7.53
304.795	7.37
305.007	7.79
305.22	7.73
305.432	7.32
305.645	7.31
305.857	7.54
306.069	7.61
306.282	7.59
306.494	8.04
306.707	8.16
306.919	8.99
307.132	8.7
307.344	8.78
307.556	8.98
307.769	9.32
307.981	9.52
308.193	9.23
308.406	8.56
308.618	8.44
308.83	8.41
309.043	8.21
309.255	7.93
309.467	7.91
309.679	7.62
309.892	7.22
310.104	6.95
310.316	6.73
310.528	7.4
310.74	7.68
310.953	7.98
311.165	7.91
311.377	7.88
311.589	7.93
311.801	8.36
312.013	7.95
312.225	8.48
312.437	8.41
312.649	8.38
312.862	8.09
313.074	7.95
313.286	7.91
313.498	7.65
313.71	7.45
313.922	7.33
314.134	7.25
314.346	7.31
314.558	7.05
314.77	7.01
314.982	7.52
315.193	7.2
315.405	6.67
315.617	6.51
315.829	6.54
316.041	6.83
316.253	6.96
316.465	7.03
316.677	7.27
316.888	7.55
317.1	8.03
317.312	7.88
317.524	7.67
317.736	8.1
317.947	8.18
318.159	8.34
318.371	7.81
318.583	7.51
318.794	7.27
319.006	7.39
319.218	6.98
319.43	6.94
319.641	7.12
319.853	7.4
320.064	7.78
320.276	7.52
320.488	7.44
320.699	7.54
320.911	8.11
321.123	8.12
321.334	8.33
321.546	8.71
321.757	7.91
321.969	7.11
322.18	6.91
322.392	6.53
322.603	6.61
322.815	6.33
323.026	6.68
323.238	6.51
323.449	6.63
323.661	6.59
323.872	6.63
324.083	7.54
324.295	8.09
324.506	8.24
324.718	8.21
324.929	8.37
325.14	8.58
325.352	8.4
325.563	8.73
325.774	8.9
325.986	8.91
326.197	8.78
326.408	8.56
326.62	8.12
326.831	7.92
327.042	8.18
327.253	8.08
327.464	8.16
327.676	8.38
327.887	7.49
328.098	7.69
328.309	7.52
328.52	7.44
328.732	7.31
328.943	7.7
329.154	8.01
329.365	7.69
329.576	7.79
329.787	7.92
329.998	7.66
330.209	8.43
330.42	7.68
330.631	7.68
330.842	7.9
331.053	8.3
331.264	8.03
331.475	8.09
331.686	8.14
331.897	8.11
332.108	8.15
332.319	8.42
332.53	8.13
332.741	8.31
332.952	8.15
333.163	7.74
333.374	7.54
333.585	7.56
333.795	7.93
334.006	7.97
334.217	7.82
334.428	7.74
334.639	7.62
334.849	7.9
335.06	7.82
335.271	7.84
335.482	8.42
335.692	8.53
335.903	8.51
336.114	7.66
336.325	7.85
336.535	8.19
336.746	7.9
336.957	8.02
337.167	7.75
337.378	7.61
337.589	7.64
337.799	6.99
338.01	6.8
338.22	7.35
338.431	7.41
338.642	7
338.852	6.65
339.063	6.95
339.273	6.22
339.484	6.14
339.694	6.56
339.905	6.67
340.115	6.97
340.326	6.73
340.536	6.54
340.746	6.76
340.957	6.99
341.167	6.82
341.378	6.69
341.588	7.06
341.799	7.11
342.009	7
342.219	7.03
342.43	6.96
342.64	7.25
342.85	7.18
343.061	7.23
343.271	7.39
343.481	7.96
343.691	8.1
343.902	8.25
344.112	8.35
344.322	8.66
344.532	8.46
344.743	8.73
344.953	8.67
345.163	8.78
345.373	8.72
345.583	8.45
345.793	8.39
346.004	8.48
346.214	8.19
346.424	8.01
346.634	7.56
346.844	7.82
347.054	7.43
347.264	7.48
347.474	7.3
347.684	7.49
347.894	7.58
348.104	7.42
348.314	7.53
348.524	7.9
348.734	8.04
348.944	8.05
349.154	7.89
349.364	8.03
349.574	7.63
349.784	7.72
349.994	7.67
350.204	7.54
350.413	7.23
350.623	6.98
350.833	6.68
351.043	6.57
351.253	6.74
351.463	6.51
351.672	6.47
351.882	6.51
352.092	6.04
352.302	6.2
352.511	6.1
352.721	6.41
352.931	6.15
353.141	6.48
353.35	6.31
353.56	6.14
353.77	6.19
353.979	6.04
354.189	6.4
354.399	6.54
354.608	6.52
354.818	6.94
355.027	6.86
355.237	6.79
355.447	6.4
355.656	6.44
355.866	6.3
356.075	6.57
356.285	6.51
356.494	6.54
356.704	6.53
356.913	6.61
357.123	6.31
357.332	6.02
357.542	6.14
357.751	6.38
357.96	6.61
358.17	6.81
358.379	6.85
358.589	7
358.798	6.72
359.007	6.73
359.217	6.55
359.426	6.7
359.635	6.83
359.845	6.88
360.054	6.79
360.263	6.57
360.472	6.58
360.682	6.45
360.891	6.4
361.1	6.49
361.309	6.4
361.519	6.26
361.728	6.07
361.937	6.04
362.146	6.09
362.355	6.06
362.564	6.41
362.774	6.28
362.983	6.09
363.192	5.94
363.401	5.91
363.61	5.99
363.819	6.01
364.028	5.94
364.237	6.07
364.446	5.93
364.655	5.83
364.864	5.42
365.073	5.29
365.282	5.27
365.491	5.39
365.7	5.39
365.909	5.47
366.118	5.53
366.327	5.61
366.536	5.69
366.745	5.71
366.954	5.88
367.162	5.88
367.371	6.01
367.58	6.17
367.789	6.18
367.998	6.17
368.207	6.16
368.415	5.76
368.624	5.81
368.833	5.55
369.042	5.47
369.25	5.36
369.459	5.49
369.668	5.29
369.877	5.22
370.085	5.13
370.294	4.85
370.503	4.96
370.711	5.39
370.92	5.22
371.129	5.13
371.337	5.27
371.546	4.99
371.754	4.84
371.963	5.05
372.171	5.35
372.38	5.29
372.589	5.4
372.797	5.03
373.006	4.96
373.214	5.49
373.423	5.42
373.631	5.44
373.84	5.68
374.048	6.1
374.256	5.97
374.465	5.55
374.673	5.62
374.882	5.68
375.09	5.88
375.298	5.85
375.507	5.66
375.715	5.99
375.923	5.86
376.132	5.86
376.34	5.62
376.548	5.72
376.757	5.78
376.965	5.6
377.173	5.52
377.381	5.48
377.59	5.36
377.798	5.28
378.006	4.87
378.214	4.99
378.423	5.08
378.631	4.83
378.839	4.86
379.047	4.96
379.255	5.16
379.463	5.29
379.671	5.2
379.879	5.24
380.088	5.09
380.296	5.23
380.504	4.79
380.712	4.74
380.92	4.81
381.128	4.72
381.336	4.81
381.544	4.78
381.752	4.52
381.96	4.71
382.168	4.71
382.376	4.64
382.584	4.54
382.791	4.76
382.999	4.85
383.207	4.91
383.415	5.01
383.623	5.02
383.831	4.91
384.039	4.96
384.247	4.87
384.454	4.89
384.662	4.95
384.87	5.1
385.078	5.09
385.285	4.97
385.493	4.88
385.701	4.78
385.909	4.5
386.116	4.55
386.324	4.52
386.532	4.37
386.739	4.28
386.947	4.36
387.155	4.27
387.362	4.29
387.57	4.22
387.778	4.2
387.985	4.22
388.193	4.33
388.4	4.26
388.608	4.51
388.816	4.48
389.023	4.6
389.231	4.38
389.438	4.49
389.646	4.48
389.853	4.58
390.061	4.54
390.268	4.55
390.475	4.49
390.683	4.5
390.89	4.33
391.098	4.43
391.305	4.38
391.512	4.43
391.72	4.16
391.927	4.04
392.135	3.95
392.342	3.84
392.549	3.79
392.756	3.71
392.964	3.81
393.171	3.73
393.378	3.68
393.586	3.81
393.793	3.77
394	3.86
394.207	3.96
394.414	3.8
394.622	4.03
394.829	3.98
395.036	4.02
395.243	3.93
395.45	3.87
395.657	3.96
395.864	3.78
396.072	3.96
396.279	4.01
396.486	4
396.693	4.16
396.9	4.08
397.107	4.16
397.314	4.2
397.521	4.1
397.728	4.22
397.935	4.01
398.142	3.8
398.349	3.66
398.556	3.74
398.763	3.77
398.97	3.64
399.177	3.52
399.383	3.39
399.59	3.39
399.797	3.66
400.004	3.55
400.211	3.47
400.418	3.8
400.625	3.98
400.831	3.8
401.038	3.73
401.245	3.91
401.452	3.99
401.658	4.11
401.865	4.15
402.072	3.98
402.279	4.07
402.485	4.09
402.692	4.03
402.899	3.87
403.105	4.01
403.312	4.19
403.519	4.17
403.725	4.23
403.932	4.11
404.138	3.98
404.345	3.93
404.552	3.86
404.758	3.93
404.965	3.87
405.171	3.99
405.378	3.8
405.584	3.74
405.791	3.73
405.997	3.59
406.204	3.46
406.41	3.59
406.617	3.56
406.823	3.67
407.029	3.66
407.236	3.69
407.442	3.62
407.649	3.69
407.855	3.57
408.061	3.48
408.268	3.38
408.474	3.61
408.68	3.46
408.887	3.57
409.093	3.44
409.299	3.51
409.505	3.42
409.712	3.26
409.918	3.53
410.124	3.62
410.33	3.57
410.537	3.64
410.743	3.63
410.949	3.62
411.155	3.66
411.361	3.76
411.567	3.82
411.773	3.89
411.98	3.95
412.186	3.65
412.392	3.53
412.598	3.57
412.804	3.62
413.01	3.53
413.216	3.68
413.422	3.59
413.628	3.64
413.834	3.65
414.04	3.59
414.246	3.58
414.452	3.65
414.658	3.72
414.864	3.7
415.07	3.81
415.275	3.89
415.481	3.67
415.687	3.81
415.893	3.74
416.099	3.7
416.305	3.72
416.511	3.74
416.716	3.68
416.922	3.67
417.128	3.68
417.334	3.62
417.539	3.53
417.745	3.66
417.951	3.52
418.157	3.58
418.362	3.48
418.568	3.45
418.774	3.41
418.979	3.4
419.185	3.28
419.391	3.37
419.596	3.25
419.802	3.28
420.008	3.34
420.213	3.36
420.419	3.29
420.624	3.34
420.83	3.3
421.035	3.32
421.241	3.39
421.446	3.46
421.652	3.41
421.857	3.51
422.063	3.53
422.268	3.48
422.474	3.39
422.679	3.41
422.885	3.41
423.09	3.47
423.295	3.44
423.501	3.46
423.706	3.42
423.911	3.33
424.117	3.21
424.322	3.16
424.527	3.04
424.733	3.02
424.938	2.99
425.143	3.02
425.349	3.03
425.554	3.17
425.759	3.05
425.964	3.11
426.169	3.1
426.375	3.33
426.58	3.2
426.785	3.29
426.99	3.35
427.195	3.32
427.4	3.24
427.605	3.14
427.811	3.01
428.016	2.99
428.221	2.97
428.426	3.07
428.631	3.06
428.836	3.25
429.041	3.26
429.246	3.36
429.451	3.34
429.656	3.36
429.861	3.43
430.066	3.4
430.271	3.46
430.476	3.46
430.681	3.41
430.886	3.32
431.09	3.29
431.295	3.25
431.5	3.16
431.705	3.22
431.91	3.24
432.115	3.19
432.32	3.09
432.524	3.01
432.729	3.01
432.934	2.93
433.139	2.97
433.343	2.9
433.548	2.97
433.753	2.97
433.958	3.07
434.162	2.98
434.367	3.05
434.572	3.04
434.776	3.03
434.981	3
435.186	3.09
435.39	3.03
435.595	3.04
435.799	2.93
436.004	2.88
436.209	2.83
436.413	2.81
436.618	2.7
436.822	2.9
437.027	2.95
437.231	2.9
437.436	2.86
437.64	2.85
437.845	2.87
438.049	2.83
438.253	2.9
438.458	2.91
438.662	2.98
438.867	3.03
439.071	3
439.275	3
439.48	3.02
439.684	3.06
439.888	3.05
440.093	3.1
440.297	3.17
440.501	3.16
440.706	3.14
440.91	3.14
441.114	3.17
441.318	3.09
441.523	3.04
441.727	3.14
441.931	3.08
442.135	3.02
442.339	2.96
442.543	2.85
442.748	2.79
442.952	2.75
443.156	2.7
443.36	2.68
443.564	2.74
443.768	2.78
443.972	2.79
444.176	2.79
444.38	2.85
444.584	2.91
444.788	3.01
444.992	3.05
445.196	3.03
445.4	3.07
445.604	2.95
445.808	2.9
446.012	2.88
446.216	2.84
446.42	2.82
446.624	2.79
446.828	2.79
447.032	2.71
447.235	2.69
447.439	2.76
447.643	2.76
447.847	2.91
448.051	2.9
448.254	2.94
448.458	2.95
448.662	2.99
448.866	2.98
449.069	2.84
449.273	2.88
449.477	2.9
449.681	2.86
449.884	2.98
450.088	2.95
450.292	2.92
450.495	2.93
450.699	2.94
450.902	2.99
451.106	3.06
451.31	3.1
451.513	3.15
451.717	3.07
451.92	3.08
452.124	2.93
452.327	2.9
452.531	2.92
452.734	2.93
452.938	2.76
453.141	2.76
453.345	2.78
453.548	2.8
453.752	2.79
453.955	2.78
454.158	2.68
454.362	2.68
454.565	2.77
454.769	2.86
454.972	2.85
455.175	3.01
455.379	2.93
455.582	2.82
455.785	2.79
455.988	2.74
456.192	2.73
456.395	2.79
456.598	2.8
456.801	2.77
457.005	2.71
457.208	2.75
457.411	2.7
457.614	2.68
457.817	2.76
458.021	2.81
458.224	2.82
458.427	2.83
458.63	2.86
458.833	2.9
459.036	2.84
459.239	2.83
459.442	2.79
459.645	2.84
459.848	2.95
460.051	2.97
460.254	2.92
460.457	2.94
460.66	2.99
460.863	2.94
461.066	2.93
461.269	3
461.472	3.06
461.675	2.9
461.878	2.79
462.081	2.81
462.284	2.83
462.486	2.86
462.689	2.91
462.892	2.92
463.095	2.96
463.298	2.95
463.5	3.05
463.703	3.13
463.906	3.29
464.109	3.41
464.311	3.32
464.514	3.14
464.717	3.16
464.92	3.19
465.122	3.16
465.325	3.16
465.528	3.25
465.73	3.11
465.933	3.05
466.135	2.93
466.338	2.85
466.541	2.77
466.743	2.86
466.946	2.86
467.148	2.82
467.351	2.8
467.553	2.73
467.756	2.67
467.958	2.64
468.161	2.5
468.363	2.59
468.566	2.67
468.768	2.8
468.971	2.85
469.173	2.84
469.375	2.84
469.578	2.74
469.78	2.67
469.983	2.54
470.185	2.53
470.387	2.59
470.59	2.58
470.792	2.54
470.994	2.52
471.196	2.39
471.399	2.49
471.601	2.44
471.803	2.56
472.005	2.69
472.208	2.71
472.41	2.83
472.612	2.9
472.814	2.86
473.016	2.88
473.218	2.86
473.421	2.97
473.623	2.85
473.825	3.01
474.027	3.03
474.229	2.97
474.431	3.05
474.633	3.06
474.835	3.03
475.037	3.12
475.239	3.05
475.441	3.05
475.643	3.05
475.845	3.12
476.047	3.04
476.249	3.03
476.451	3.05
476.653	3.09
476.855	3.08
477.057	3.01
477.258	3.03
477.46	3.07
477.662	3.05
477.864	2.97
478.066	3
478.268	3.1
478.469	3.16
478.671	3.14
478.873	3.08
479.075	3.04
479.276	3.1
479.478	3.06
479.68	3.04
479.882	3.12
480.083	3.15
480.285	3.09
480.487	3.01
480.688	2.99
480.89	3
481.091	2.99
481.293	2.97
481.495	2.99
481.696	3
481.898	3
482.099	2.94
482.301	2.92
482.502	2.91
482.704	2.9
482.905	2.9
483.107	2.91
483.308	2.91
483.51	2.93
483.711	2.9
483.913	2.89
484.114	2.89
484.315	2.88
484.517	2.91
484.718	2.9
484.92	2.92
485.121	2.9
485.322	2.88
485.524	2.85
485.725	2.85
485.926	2.85
486.127	2.85
486.329	2.84
486.53	2.88
486.731	2.86
486.932	2.88
487.134	2.86
487.335	2.89
487.536	2.88
487.737	2.88
487.938	2.85
488.139	2.87
488.341	2.87
488.542	2.87
488.743	2.87
488.944	2.89
489.145	2.88
489.346	2.89
489.547	2.87
489.748	2.85
489.949	2.89
490.15	2.9
490.351	2.9
490.552	2.92
490.753	2.94
490.954	2.93
491.155	2.93
491.356	2.95
491.557	2.96
491.758	2.96
491.959	2.92
492.159	2.92
492.36	2.9
492.561	2.89
492.762	2.91
492.963	2.89
493.164	2.92
493.364	2.94
493.565	2.89
493.766	2.85
493.967	2.85
494.167	2.98
494.368	3.01
494.569	3.08
494.769	3.15
494.97	3.11
495.171	3.1
495.371	3.05
495.572	3.04
495.773	3.14
495.973	3.22
496.174	3.21
496.375	3.18
496.575	3.16
496.776	3.16
496.976	3.2
497.177	3.14
497.377	3.25
497.578	3.25
497.778	3.2
497.979	3.13
498.179	3.16
498.38	3.25
498.58	3.22
498.78	3.25
498.981	3.21
499.181	3.17
499.382	3.3
499.582	3.28
499.782	3.28
499.983	3.35
500.183	3.39
500.383	3.3
500.584	3.29
500.784	3.4
500.984	3.41
501.184	3.51
501.385	3.51
501.585	3.48
501.785	3.37
501.985	3.46
502.185	3.45
502.386	3.47
502.586	3.53
502.786	3.45
502.986	3.4
503.186	3.44
503.386	3.46
503.586	3.5
503.786	3.49
503.987	3.55
504.187	3.6
504.387	3.62
504.587	3.58
504.787	3.61
504.987	3.72
505.187	3.77
505.387	3.74
505.587	3.62
505.786	3.6
505.986	3.65
506.186	3.63
506.386	3.59
506.586	3.73
506.786	3.7
506.986	3.68
507.186	3.62
507.386	3.68
507.585	3.72
507.785	3.83
507.985	3.75
508.185	3.73
508.384	3.75
508.584	3.75
508.784	3.67
508.984	3.75
509.183	3.71
509.383	3.77
509.583	3.74
509.782	3.74
509.982	3.73
510.182	3.82
510.381	3.89
510.581	3.93
510.781	3.94
510.98	3.94
511.18	4.01
511.379	4.14
511.579	4.17
511.778	4.2
511.978	4.24
512.177	4.26
512.377	4.29
512.576	4.3
512.776	4.37
512.975	4.44
513.175	4.54
513.374	4.5
513.573	4.51
513.773	4.49
513.972	4.5
514.172	4.52
514.371	4.61
514.57	4.71
514.77	4.76
514.969	4.73
515.168	4.71
515.367	4.74
515.567	4.85
515.766	4.8
515.965	4.85
516.164	4.89
516.364	4.91
516.563	4.81
516.762	4.85
516.961	4.85
517.16	4.86
517.359	4.87
517.559	4.84
517.758	4.84
517.957	4.89
518.156	4.87
518.355	4.87
518.554	4.89
518.753	4.98
518.952	4.94
519.151	4.97
519.35	5.05
519.549	5.09
519.748	5.1
519.947	5.15
520.146	5.21
520.345	5.34
520.544	5.4
520.743	5.5
520.942	5.52
521.141	5.62
521.339	5.66
521.538	5.63
521.737	5.74
521.936	5.76
522.135	5.7
522.333	5.63
522.532	5.64
522.731	5.64
522.93	5.66
523.129	5.68
523.327	5.64
523.526	5.65
523.725	5.63
523.923	5.6
524.122	5.67
524.321	5.64
524.519	5.73
524.718	5.73
524.917	5.75
525.115	5.75
525.314	5.74
525.512	5.75
525.711	5.79
525.909	5.85
526.108	5.86
526.306	5.89
526.505	5.96
526.703	5.95
526.902	5.98
527.1	6.01
527.299	6.02
527.497	6.08
527.696	6.09
527.894	6.16
528.092	6.24
528.291	6.28
528.489	6.33
528.688	6.4
528.886	6.46
529.084	6.5
529.283	6.56
529.481	6.61
529.679	6.61
529.877	6.66
530.076	6.63
530.274	6.53
530.472	6.52
530.67	6.48
530.869	6.45
531.067	6.46
531.265	6.46
531.463	6.44
531.661	6.46
531.859	6.5
532.057	6.54
532.255	6.58
532.454	6.69
532.652	6.77
532.85	6.85
533.048	6.87
533.246	6.89
533.444	6.95
533.642	7.03
533.84	7.04
534.038	7.1
534.236	7.11
534.434	7.12
534.632	7.07
534.83	7.04
535.027	7.05
535.225	7.06
535.423	7.11
535.621	7.04
535.819	7.07
536.017	7.22
536.215	7.19
536.412	7.17
536.61	7.14
536.808	7.14
537.006	7.13
537.203	7.1
537.401	7.11
537.599	7.13
537.797	7.27
537.994	7.25
538.192	7.12
538.39	7.17
538.587	7.3
538.785	7.37
538.983	7.44
539.18	7.5
539.378	7.55
539.575	7.58
539.773	7.58
539.97	7.57
540.168	7.61
540.366	7.68
540.563	7.69
540.761	7.72
540.958	7.76
541.155	7.79
541.353	7.81
541.55	7.79
541.748	7.87
541.945	7.88
542.143	7.9
542.34	7.89
542.537	7.93
542.735	7.96
542.932	7.92
543.129	7.9
543.327	7.91
543.524	7.94
543.721	8.03
543.919	8.01
544.116	8.04
544.313	8.06
544.51	8.09
544.708	8.13
544.905	8.18
545.102	8.21
545.299	8.25
545.496	8.2
545.693	8.22
545.891	8.2
546.088	8.2
546.285	8.25
546.482	8.34
546.679	8.39
546.876	8.42
547.073	8.47
547.27	8.51
547.467	8.68
547.664	8.77
547.861	8.84
548.058	8.91
548.255	8.99
548.452	9.03
548.649	8.92
548.846	9.03
549.043	9.04
549.24	9.05
549.437	9.07
549.633	9
549.83	9.02
550.027	8.99
550.224	9.08
550.421	9.08
550.618	9.18
550.814	9.31
551.011	9.3
551.208	9.29
551.405	9.34
551.601	9.44
551.798	9.51
551.995	9.63
552.191	9.65
552.388	9.69
552.585	9.88
552.781	9.92
552.978	9.9
553.175	9.99
553.371	10.06
553.568	10.04
553.764	10.03
553.961	10.05
554.157	10
554.354	10.17
554.55	10.21
554.747	10.2
554.943	10.24
555.14	10.31
555.336	10.34
555.533	10.37
555.729	10.48
555.926	10.61
556.122	10.56
556.318	10.64
556.515	10.6
556.711	10.66
556.907	10.72
557.104	10.8
557.3	10.93
557.496	11.01
557.693	11.01
557.889	11.13
558.085	11.11
558.281	11.22
558.478	11.22
558.674	11.3
558.87	11.32
559.066	11.36
559.262	11.36
559.459	11.37
559.655	11.37
559.851	11.58
560.047	11.58
560.243	11.67
560.439	11.81
560.635	11.89
560.831	11.93
561.027	11.97
561.223	11.97
561.419	12
561.615	12.01
561.811	12.03
562.007	12.01
562.203	11.99
562.399	11.93
562.595	11.95
562.791	12.05
562.987	12.2
563.183	12.3
563.379	12.34
563.575	12.46
563.771	12.54
563.966	12.7
564.162	12.8
564.358	12.97
564.554	13.12
564.75	13.15
564.945	13.21
565.141	13.27
565.337	13.23
565.533	13.28
565.728	13.27
565.924	13.35
566.12	13.28
566.315	13.31
566.511	13.32
566.707	13.38
566.902	13.49
567.098	13.55
567.293	13.64
567.489	13.75
567.684	13.85
567.88	14
568.076	14.07
568.271	14.23
568.467	14.29
568.662	14.37
568.858	14.5
569.053	14.62
569.248	14.69
569.444	14.61
569.639	14.69
569.835	14.75
570.03	14.78
570.225	14.78
570.421	14.82
570.616	14.94
570.812	15.01
571.007	14.96
571.202	15.01
571.397	15.06
571.593	15.07
571.788	15.14
571.983	15.14
572.178	15.18
572.374	15.2
572.569	15.23
572.764	15.16
572.959	15.16
573.154	15.27
573.35	15.28
573.545	15.32
573.74	15.47
573.935	15.55
574.13	15.63
574.325	15.77
574.52	15.88
574.715	15.94
574.91	15.98
575.105	16.11
575.3	16.15
575.495	16.1
575.69	16.16
575.885	16.13
576.08	16.06
576.275	16.15
576.47	16.11
576.665	16.2
576.86	16.22
577.055	16.29
577.25	16.37
577.444	16.47
577.639	16.62
577.834	16.65
578.029	16.66
578.224	16.86
578.418	16.9
578.613	16.95
578.808	17.07
579.003	17.31
579.197	17.4
579.392	17.42
579.587	17.29
579.781	17.3
579.976	17.37
580.171	17.53
580.365	17.62
580.56	17.53
580.755	17.54
580.949	17.48
581.144	17.39
581.338	17.39
581.533	17.4
581.727	17.47
581.922	17.49
582.116	17.49
582.311	17.51
582.505	17.45
582.7	17.69
582.894	17.79
583.089	17.85
583.283	17.73
583.478	17.9
583.672	18.08
583.866	18.22
584.061	18.33
584.255	18.33
584.449	18.48
584.644	18.46
584.838	18.36
585.032	18.39
585.226	18.48
585.421	18.7
585.615	18.75
585.809	18.69
586.003	18.74
586.198	18.76
586.392	18.89
586.586	18.89
586.78	18.95
586.974	19.04
587.168	19.12
587.363	19.2
587.557	19.23
587.751	19.21
587.945	19.19
588.139	19.2
588.333	19.26
588.527	19.29
588.721	19.24
588.915	19.23
589.109	19.33
589.303	19.3
589.497	19.24
589.691	19.37
589.885	19.36
590.079	19.43
590.273	19.53
590.466	19.73
590.66	19.9
590.854	19.96
591.048	20.08
591.242	20.07
591.436	20.1
591.629	20.03
591.823	20.08
592.017	20.05
592.211	20.15
592.404	20.21
592.598	20.09
592.792	20.04
592.986	20.15
593.179	20.17
593.373	20.19
593.567	20.34
593.76	20.55
593.954	20.67
594.147	20.85
594.341	20.95
594.535	20.93
594.728	21.01
594.922	21.01
595.115	21.18
595.309	21.14
595.502	21.17
595.696	21.17
595.889	21.14
596.083	21.05
596.276	21.02
596.47	20.94
596.663	21.01
596.856	20.97
597.05	21.04
597.243	21.04
597.437	21.22
597.63	21.26
597.823	21.3
598.017	21.4
598.21	21.36
598.403	21.46
598.596	21.54
598.79	21.6
598.983	21.72
599.176	21.7
599.369	21.44
599.563	21.5
599.756	21.46
599.949	21.43
600.142	21.37
600.335	21.42
600.528	21.59
600.722	21.63
600.915	21.49
601.108	21.55
601.301	21.75
601.494	22.04
601.687	22.04
601.88	22.2
602.073	22.3
602.266	22.44
602.459	22.55
602.652	22.41
602.845	22.32
603.038	22.51
603.231	22.63
603.424	22.5
603.617	22.44
603.809	22.43
604.002	22.44
604.195	22.4
604.388	22.32
604.581	22.37
604.774	22.49
604.966	22.63
605.159	22.47
605.352	22.29
605.545	22.38
605.737	22.31
605.93	22.31
606.123	22.38
606.316	22.43
606.508	22.56
606.701	22.54
606.894	22.52
607.086	22.55
607.279	22.62
607.471	22.65
607.664	22.82
607.857	22.91
608.049	22.85
608.242	22.71
608.434	22.76
608.627	22.78
608.819	22.78
609.012	22.79
609.204	22.88
609.397	23.05
609.589	23.21
609.782	23.08
609.974	23.04
610.166	23.35
610.359	23.58
610.551	23.63
610.743	23.69
610.936	23.79
611.128	23.73
611.32	23.62
611.513	23.69
611.705	23.48
611.897	23.5
612.09	23.54
612.282	23.51
612.474	23.51
612.666	23.43
612.858	23.16
613.051	23.15
613.243	23.28
613.435	23.37
613.627	23.16
613.819	23.32
614.011	23.51
614.203	23.54
614.395	23.31
614.588	23.29
614.78	23.37
614.972	23.47
615.164	23.65
615.356	23.57
615.548	23.64
615.74	23.72
615.932	23.64
616.124	23.77
616.315	23.91
616.507	24.02
616.699	24.03
616.891	24.11
617.083	24.06
617.275	24
617.467	24.13
617.659	24.07
617.85	24.16
618.042	24.31
618.234	24.09
618.426	24.21
618.618	24.26
618.809	24.21
619.001	24.12
619.193	24.5
619.384	24.5
619.576	24.51
619.768	24.65
619.959	24.52
620.151	24.45
620.343	24.48
620.534	24.3
620.726	24.28
620.917	24.22
621.109	24.31
621.301	24.23
621.492	24.14
621.684	24.18
621.875	24.15
622.067	24.35
622.258	24.51
622.45	24.43
622.641	24.41
622.832	24.31
623.024	24.42
623.215	24.33
623.407	24.35
623.598	24.57
623.789	24.47
623.981	24.48
624.172	24.47
624.363	24.38
624.555	24.63
624.746	24.7
624.937	24.97
625.129	25.11
625.32	25.37
625.511	25.35
625.702	25.22
625.893	25.35
626.085	25.23
626.276	25.2
626.467	25.39
626.658	25.33
626.849	25.29
627.04	25.26
627.231	25.19
627.422	25.04
627.614	25.06
627.805	25.11
627.996	25.12
628.187	25.16
628.378	25.37
628.569	25.22
628.76	25.23
628.951	25.38
629.142	25.23
629.332	25.23
629.523	25.28
629.714	25.21
629.905	25.39
630.096	25.56
630.287	25.67
630.478	25.58
630.669	25.67
630.859	25.8
631.05	25.88
631.241	26.06
631.432	26.19
631.623	26.15
631.813	26.24
632.004	26.19
632.195	26.03
632.385	26.11
632.576	26.07
632.767	26.13
632.957	26.02
633.148	25.9
633.339	25.92
633.529	25.94
633.72	26.12
633.91	26.03
634.101	25.97
634.292	25.97
634.482	25.83
634.673	25.68
634.863	25.68
635.054	25.72
635.244	25.84
635.435	25.73
635.625	25.77
635.815	25.63
636.006	25.87
636.196	25.88
636.387	25.84
636.577	26.07
636.767	26.39
636.958	26.44
637.148	26.64
637.338	26.74
637.529	26.8
637.719	26.81
637.909	26.99
638.099	26.98
638.29	27.03
638.48	27.1
638.67	27.14
638.86	27.04
639.05	27.02
639.241	26.84
639.431	26.8
639.621	27.02
639.811	27.08
640.001	26.97
640.191	26.87
640.381	27.05
640.571	27.14
640.761	27.23
640.951	27.23
641.141	27.02
641.331	27.09
641.521	26.98
641.711	26.73
641.901	26.61
642.091	26.73
642.281	26.61
642.471	26.54
642.661	26.38
642.851	26.24
643.041	26.45
643.231	26.59
643.42	26.64
643.61	26.92
643.8	27.01
643.99	27
644.18	26.85
644.369	27.16
644.559	27.21
644.749	27.61
644.939	27.71
645.128	27.5
645.318	27.7
645.508	27.92
645.697	27.77
645.887	27.81
646.076	27.91
646.266	28.16
646.456	28.04
646.645	28.13
646.835	27.85
647.024	27.93
647.214	28.11
647.403	28.08
647.593	27.93
647.782	28.13
647.972	27.96
648.161	27.89
648.351	27.78
648.54	27.73
648.73	27.67
648.919	27.71
649.108	27.54
649.298	27.57
649.487	27.62
649.677	27.58
649.866	27.42
650.055	27.67
650.244	27.84
650.434	28.01
650.623	28.15
650.812	28.06
651.002	27.96
651.191	27.99
651.38	27.79
651.569	27.84
651.758	27.82
651.947	27.85
652.137	27.76
652.326	27.58
652.515	27.48
652.704	27.51
652.893	27.56
653.082	27.78
653.271	27.79
653.46	28
653.649	27.95
653.838	28.15
654.027	28.02
654.216	28.21
654.405	28.43
654.594	28.52
654.783	28.57
654.972	28.82
655.161	28.88
655.35	28.88
655.539	28.67
655.728	28.61
655.916	28.47
656.105	28.68
656.294	28.73
656.483	28.7
656.672	28.64
656.86	28.69
657.049	28.62
657.238	28.51
657.427	28.85
657.615	29.14
657.804	29.19
657.993	29.36
658.181	29.29
658.37	29.2
658.559	29.3
658.747	29.22
658.936	29.22
659.125	29.3
659.313	29.41
659.502	29.19
659.69	29.19
659.879	29.13
660.067	29.05
660.256	29.31
660.444	29.27
660.633	29.32
660.821	29.62
661.01	29.61
661.198	29.52
661.387	29.51
661.575	29.44
661.763	29.34
661.952	29.38
662.14	29.52
662.328	29.2
662.517	29.3
662.705	29.15
662.893	29.02
663.082	29.09
663.27	29.21
663.458	29.33
663.646	29.43
663.834	29.32
664.023	29.29
664.211	29.11
664.399	29.3
664.587	29.38
664.775	29.21
664.963	29.15
665.152	29.09
665.34	28.86
665.528	28.68
665.716	28.79
665.904	28.96
666.092	29.26
666.28	29.2
666.468	29.1
666.656	29.28
666.844	29.59
667.032	29.73
667.22	29.85
667.408	29.75
667.596	29.96
667.784	30.1
667.971	30.01
668.159	29.92
668.347	29.87
668.535	29.88
668.723	29.62
668.911	29.59
669.098	29.64
669.286	29.52
669.474	29.72
669.662	29.86
669.849	29.7
670.037	29.8
670.225	29.9
670.413	30.26
670.6	30.46
670.788	30.38
670.976	30.37
671.163	30.41
671.351	30.35
671.538	30.71
671.726	30.4
671.913	30.52
672.101	30.34
672.289	30.2
672.476	29.9
672.664	29.65
672.851	29.78
673.039	29.75
673.226	29.56
673.413	29.46
673.601	29.14
673.788	29.07
673.976	29.01
674.163	29.5
674.35	29.38
674.538	29.55
674.725	29.95
674.912	30.16
675.1	30.25
675.287	30.55
675.474	31.02
675.662	31.21
675.849	31.31
676.036	31.29
676.223	31.13
676.411	31.29
676.598	31.19
676.785	31.22
676.972	31.23
677.159	31.34
677.346	31.36
677.533	31.2
677.721	31.15
677.908	31.39
678.095	31.31
678.282	31.29
678.469	31.43
678.656	31.71
678.843	31.74
679.03	31.82
679.217	31.79
679.404	31.67
679.591	31.84
679.778	31.72
679.964	31.72
680.151	31.66
680.338	31.6
680.525	31.6
680.712	31.47
680.899	31.27
681.086	31.03
681.272	31
681.459	31.12
681.646	31.17
681.833	31.39
682.02	31.18
682.206	31.5
682.393	31.43
682.58	31.63
682.766	31.14
682.953	31.37
683.14	31.65
683.326	31.7
683.513	31.83
683.7	31.71
683.886	31.65
684.073	31.98
684.259	31.93
684.446	32.13
684.632	31.74
684.819	32.28
685.005	32.03
685.192	32.04
685.378	32.16
685.565	31.71
685.751	31.77
685.938	31.54
686.124	31.24
686.31	31.32
686.497	31.09
686.683	31.27
686.87	31.48
687.056	31.3
687.242	31.21
687.429	31.02
687.615	31.32
687.801	31.05
687.987	31.5
688.174	31.65
688.36	31.66
688.546	31.97
688.732	32.16
688.918	32.15
689.105	32.44
689.291	32.15
689.477	32.49
689.663	32.55
689.849	32.74
690.035	32.45
690.221	32.68
690.407	32.66
690.593	32.3
690.779	32.37
690.965	32.33
691.151	32.52
691.337	32.68
691.523	32.66
691.709	32.6
691.895	32.66
692.081	32.68
692.267	32.59
692.453	32.65
692.639	33.08
692.825	32.72
693.011	32.44
693.196	32.24
693.382	32.5
693.568	32.32
693.754	32.3
693.94	32.18
694.125	32.2
694.311	32.24
694.497	32.38
694.682	32.35
694.868	32.31
695.054	32.5
695.239	32.84
695.425	32.89
695.611	32.81
695.796	32.84
695.982	33.11
696.168	33.34
696.353	33.12
696.539	33.03
696.724	32.93
696.91	33.1
697.095	33.11
697.281	33.2
697.466	33.29
697.652	33.46
697.837	33.49
698.023	33.29
698.208	33.24
698.393	33.54
698.579	33.57
698.764	33.63
698.949	33.61
699.135	33.72
699.32	33.51
699.505	33.38
699.691	33.31
699.876	33.23
700.061	33.3
700.246	33.08
700.432	32.61
700.617	32.5
700.802	32.6
700.987	32.57
701.172	32.39
701.358	32.36
701.543	32.25
701.728	32.39
701.913	32.6
702.098	32.69
702.283	32.62
702.468	32.97
702.653	32.97
702.838	32.67
703.023	32.56
703.208	32.41
703.393	32.4
703.578	32.53
703.763	31.99
703.948	31.83
704.133	31.95
704.318	32.21
704.503	31.95
704.688	31.94
704.873	32.2
705.057	32.18
705.242	32.51
705.427	32.61
705.612	32.63
705.797	32.91
705.981	33.08
706.166	33.09
706.351	33.4
706.536	33.32
706.72	33.08
706.905	32.98
707.09	33.24
707.274	33.36
707.459	33.64
707.644	33.63
707.828	33.93
708.013	33.65
708.197	33.59
708.382	33.43
708.567	33.77
708.751	34.04
708.936	34.33
709.12	34.36
709.305	34.3
709.489	33.88
709.673	33.86
709.858	33.55
710.042	34.13
710.227	33.81
710.411	33.66
710.596	33.73
710.78	33.92
710.964	33.96
711.149	33.93
711.333	34.02
711.517	33.83
711.702	33.93
711.886	33.75
712.07	33.22
712.254	33.55
712.438	33.81
712.623	34
712.807	33.68
712.991	33.53
713.175	33.73
713.359	33.49
713.544	33.71
713.728	33.64
713.912	34.01
714.096	34.01
714.28	34.14
714.464	34.04
714.648	33.65
714.832	33.7
715.016	33.81
715.2	33.8
715.384	34.32
715.568	34.49
715.752	34.52
715.936	34.36
716.12	34.73
716.304	34.45
716.488	34.35
716.671	34.18
716.855	34.68
717.039	34.36
717.223	34.09
717.407	33.55
717.59	33.55
717.774	33.58
717.958	33.62
718.142	33.64
718.325	33.98
718.509	33.99
718.693	34.12
718.877	33.4
719.06	33.69
719.244	33.88
719.428	34.03
719.611	33.67
719.795	33.76
719.978	33.88
720.162	33.65
720.345	33.03
720.529	33.08
720.713	33.51
720.896	34.2
721.08	33.73
721.263	33.82
721.446	33.81
721.63	34.07
721.813	33.8
721.997	33.83
722.18	33.63
722.364	34.18
722.547	33.98
722.73	33.49
722.914	33.18
723.097	33.05
723.28	32.81
723.464	32.72
723.647	32.55
723.83	32.57
724.013	32.6
724.197	33.07
724.38	32.54
724.563	32.97
724.746	33.47
724.929	33.58
725.112	33.7
725.296	33.72
725.479	33.72
725.662	34.15
725.845	34.13
726.028	34.49
726.211	34.46
726.394	34.56
726.577	34.39
726.76	34.63
726.943	34.29
727.126	34.96
727.309	34.86
727.492	34.9
727.675	34.46
727.858	34.52
728.041	34.38
728.224	34.04
728.407	34.37
728.589	33.77
728.772	33.51
728.955	34.06
729.138	33.5
729.321	33.66
729.503	33.46
729.686	33.86
729.869	33.67
730.052	33.67
730.234	33.9
730.417	33.87
730.6	34.26
730.782	34.04
730.965	33.8
731.148	34.42
731.33	34.5
731.513	34.89
731.695	34.81
731.878	35.2
732.061	34.8
732.243	34.45
732.426	35.02
732.608	35.67
732.791	36
732.973	36.02
733.156	35.69
733.338	35.87
733.52	35.73
733.703	35.6
733.885	35.48
734.068	35.41
734.25	35.31
734.432	34.44
734.615	33.83
734.797	33.88
734.979	33.86
735.162	33.59
735.344	33.63
735.526	33.28
735.708	33.36
735.891	33.57
736.073	33.44
736.255	33.79
736.437	33.98
736.619	34.31
736.802	33.93
736.984	33.63
737.166	33.63
737.348	33.3
737.53	33.22
737.712	33.07
737.894	32.82
738.076	33.04
738.258	33.09
738.44	33.58
738.622	33.71
738.804	34.05
738.986	34.51
739.168	35.17
739.35	34.96
739.532	35.33
739.714	35.69
739.896	35.74
740.078	35.92
740.259	36.24
740.441	35.95
740.623	35.45
740.805	35.21
740.987	35.41
741.168	35
741.35	34.98
741.532	35.33
741.714	34.88
741.895	35.06
742.077	34.87
742.259	34.03
742.44	33.93
742.622	34.07
742.804	34.03
742.985	33.6
743.167	33.54
743.348	33.62
743.53	33.38
743.711	33.44
743.893	32.93
744.075	33.14
744.256	33.29
744.438	33.35
744.619	33.86
744.8	34.02
744.982	33.75
745.163	33.44
745.345	33.67
745.526	33.63
745.707	33.86
745.889	33.84
746.07	33.47
746.252	34.11
746.433	33.52
746.614	33.09
746.795	33.08
746.977	33.35
747.158	33.88
747.339	34.41
747.52	34.4
747.702	34.62
747.883	35.16
748.064	35.41
748.245	35.31
748.426	36.18
748.607	36.54
748.788	36.29
748.97	36.04
749.151	35.49
749.332	34.68
749.513	35
749.694	34.82
749.875	35.05
750.056	35.15
750.237	35.12
750.418	34.62
750.599	33.98
750.78	33.84
750.96	34.13
751.141	34.5
751.322	34.58
751.503	34.4
751.684	34.86
751.865	34.67
752.046	34.16
752.226	33.18
752.407	33.43
752.588	34.04
752.769	33.69
752.949	33.67
753.13	33.49
753.311	33.6
753.492	33.6
753.672	33.93
753.853	33.36
754.034	33.2
754.214	34.25
754.395	34.14
754.575	33.76
754.756	34.47
754.937	34.53
755.117	34.37
755.298	34.28
755.478	33.96
755.659	33.31
755.839	33.79
756.02	34.06
756.2	33.81
756.381	33.73
756.561	33.97
756.741	33.55
756.922	34.23
757.102	34.05
757.283	34.06
757.463	34.33
757.643	33.91
757.823	34.16
758.004	34.92
758.184	34.91
758.364	34.85
758.545	34.25
758.725	34.64
758.905	33.76
759.085	34.17
759.265	34.01
759.446	33.35
759.626	33.57
759.806	33.43
759.986	32.75
760.166	32.77
760.346	33.12
760.526	33.37
760.706	33.65
760.886	33.65
761.066	34.03
761.246	35.02
761.426	35.4
761.606	35.52
761.786	35.79
761.966	35.71
762.146	35.7
762.326	35.28
762.506	35.27
762.686	35.18
762.866	35.37
763.046	35.26
763.225	34.48
763.405	34.38
763.585	34.36
763.765	33.99
763.945	34.19
764.124	34.18
764.304	34.46
764.484	34.59
764.664	34.4
764.843	34.37
765.023	34.37
765.203	34.77
765.382	34.73
765.562	34.8
765.741	34.94
765.921	35.1
766.101	35.01
766.28	34.84
766.46	34.87
766.639	35.48
766.819	35.69
766.998	36.18
767.178	36.14
767.357	36.32
767.537	36.5
767.716	36.29
767.896	36.37
768.075	36.71
768.254	37.17
768.434	37.24
768.613	35.78
768.792	34.83
768.972	34.02
769.151	34.41
769.33	34.25
769.51	33.77
769.689	34.09
769.868	34.51
770.047	34.32
770.226	34.21
770.406	34.08
770.585	35.3
770.764	35.45
770.943	35.72
771.122	34.69
771.301	35.12
771.48	34.68
771.66	33.33
771.839	32.48
772.018	32.52
772.197	32.25
772.376	31.73
772.555	31.59
772.734	32.89
772.913	32.53
773.092	33.05
773.271	32.68
773.449	33.83
773.628	35.27
773.807	35.64
773.986	34.79
774.165	34.68
774.344	35.2
774.523	34.96
774.701	33.9
774.88	33.74
775.059	33.74
775.238	34.29
775.417	33.73
775.595	32.96
775.774	32.56
775.953	32.94
776.131	33.02
776.31	32.98
776.489	33.4
776.667	33.25
776.846	33.91
777.025	33.67
777.203	32.79
777.382	32.42
777.56	32.62
777.739	32.8
777.917	33.28
778.096	33.65
778.274	33.95
778.453	33.84
778.631	34.79
778.81	34.57
778.988	35.15
779.166	35.35
779.345	35.83
779.523	36.2
779.702	36.27
779.88	35.76
780.058	35.57
780.237	34.8
780.415	34.87
780.593	35.03
780.771	35.15
780.95	34.7
781.128	35.01
781.306	34.66
781.484	34.05
781.662	34.24
781.841	34.31
782.019	33.45
782.197	34.3
782.375	34.22
782.553	33.24
782.731	33.63
782.909	33.35
783.087	33.91
783.265	34.41
783.443	35
783.621	36.04
783.799	36.86
783.977	37.84
784.155	37.3
784.333	37.24
784.511	38.03
784.689	37.64
784.867	38.34
785.045	38.37
785.223	38.13
785.4	38.39
785.578	37.1
785.756	37.21
785.934	36.94
786.112	37.19
786.289	36.99
786.467	36.49
786.645	36.25
786.823	35.67
787	34.99
787.178	35.22
787.356	35.08
787.533	35.75
787.711	35.04
787.889	34.96
788.066	35.59
788.244	35.75
788.421	35.15
788.599	35.82
788.776	36.29
788.954	36.84
789.131	37.09
789.309	36.35
789.486	36.37
789.664	36.7
789.841	36.72
790.019	35.54
790.196	35.51
790.373	35.65
790.551	34.51
790.728	33.91
790.906	33.55
791.083	33.02
791.26	33.81
791.437	33.5
791.615	33.66
791.792	33.39
791.969	33.37
792.146	33.33
792.324	34.33
792.501	34.83
792.678	34.51
792.855	34.37
793.032	32.69
793.209	32.29
793.387	32.43
793.564	33.57
793.741	33.99
793.918	33.55
794.095	34.15
794.272	33.27
794.449	32.69
794.626	33.9
794.803	34.26
794.98	35.95
795.157	36.02
795.334	35.36
795.511	33.66
795.688	33.8
795.864	34.23
796.041	33.66
796.218	33.85
796.395	34.26
796.572	33.82
796.749	33.5
796.925	32.6
797.102	32.23
797.279	32.24
797.456	33.09
797.632	32.09
797.809	33.15
797.986	33.33
798.162	33.74
798.339	34.27
798.516	34.88
798.692	35.69
798.869	35.86
799.046	36.11
799.222	35.9
799.399	35.21
799.575	36.56
799.752	36.26
799.928	35.62
800.105	35.8
800.281	35.25
800.458	34.73
800.634	33.55
800.811	34.56
800.987	33.85
801.163	34.33
801.34	34.59
801.516	33.4
801.692	33.2
801.869	33.51
802.045	33.54
802.221	33.59
802.398	33.42
802.574	33.44
802.75	32.1
802.926	33.72
803.103	33.03
803.279	32.38
803.455	33.09
803.631	32.47
803.807	33.14
803.983	32.94
804.16	32.87
804.336	33.85
804.512	33.37
804.688	33.99
804.864	33.14
805.04	33.7
805.216	34.67
805.392	33.77
805.568	34.92
805.744	34.84
805.92	33.52
806.096	33.62
806.272	31.96
806.448	33.57
806.623	34.03
806.799	34.02
806.975	33.67
807.151	33.93
807.327	35.56
807.503	34.21
807.678	33.76
807.854	35.07
808.03	34.51
808.206	36.45
808.381	35.31
808.557	35.49
808.733	35.93
808.908	35.65
809.084	35.34
809.26	34.06
809.435	33.88
809.611	32.71
809.787	31.89
809.962	32.71
810.138	31.71
810.313	31.91
810.489	31.4
810.664	31.34
810.84	31.32
811.015	31.05
811.191	31.71
811.366	33.51
811.542	34.02
811.717	34.15
811.892	33.75
812.068	33.43
812.243	32.88
812.419	33.16
812.594	33.57
812.769	33.94
812.944	34.16
813.12	32.44
813.295	31.3
813.47	32.5
813.645	32.75
813.821	33.47
813.996	33.72
814.171	34.41
814.346	34.58
814.521	34.95
814.697	35.77
814.872	34.73
815.047	37.32
815.222	37.98
815.397	36.14
815.572	36.49
815.747	36.59
815.922	36.84
816.097	36.6
816.272	36.35
816.447	35.97
816.622	35.26
816.797	36.13
816.972	34.96
817.147	35.07
817.322	36.88
817.496	36.93
817.671	35.92
817.846	35.1
818.021	35.07
818.196	34.08
818.371	33.58
818.545	34.44
818.72	35.41
818.895	35.27
819.069	34.56
819.244	33.51
819.419	33.57
819.594	34.45
819.768	34.32
819.943	34.51
820.117	34.84
820.292	34.87
820.467	34.66
820.641	34.68
820.816	35.18
820.99	35.57
821.165	35.86
821.339	35.9
821.514	35.8
821.688	36
821.863	36.25
822.037	36.43
822.212	36.66
822.386	36.74
822.56	36.47
822.735	36.23
822.909	36.36
823.084	36.53
823.258	36.57
823.432	36.47
823.606	36.54
823.781	36.61
823.955	36.87
824.129	36.85
824.303	36.48
824.478	36.7
824.652	36.68
824.826	36.58
825	36.38
825.174	36.26
825.348	36.27
825.523	36.14
825.697	35.55
825.871	35.26
826.045	34.85
826.219	35.33
826.393	35.47
826.567	35.41
826.741	35.43
826.915	35.3
827.089	35.72
827.263	35.98
827.437	36.25
827.611	36.39
827.784	37.17
827.958	37.54
828.132	37.78
828.306	37.62
828.48	38.53
828.654	38.5
828.827	38.56
829.001	37.95
829.175	37.22
829.349	36.45
829.522	36.39
829.696	34.78
829.87	34.27
830.044	33.54
830.217	33.07
830.391	32.38
830.565	31.37
830.738	30.74
830.912	29.58
831.085	30.21
831.259	30.16
831.432	30.48
831.606	31.68
831.779	32.49
831.953	32.4
832.126	31.73
832.3	31.6
832.473	32.1
832.647	32.6
832.82	32.6
832.994	32.88
833.167	33.65
833.34	33.97
833.514	33.01
833.687	33.07
833.86	33.5
834.034	34.04
834.207	33.79
834.38	33.72
834.553	34.04
834.727	35.9
834.9	36.2
835.073	36.36
835.246	36.7
835.419	37.13
835.593	36.71
835.766	35.81
835.939	36.42
836.112	35.86
836.285	35.44
836.458	35.82
836.631	35.41
836.804	35.37
836.977	35.61
837.15	34.76
837.323	35.62
837.496	35.54
837.669	37.12
837.842	36.49
838.015	37.4
838.188	38.96
838.361	38.76
838.533	38.06
838.706	37.35
838.879	35.72
839.052	34.92
839.225	34.94
839.398	35.07
839.57	34.38
839.743	33.97
839.916	32.82
840.088	31.62
840.261	30.38
840.434	29.94
840.607	30.18
840.779	31.11
840.952	30.21
841.124	29.2
841.297	28.31
841.47	29.21
841.642	29.77
841.815	30.39
841.987	30.59
842.16	31.49
842.332	30
842.505	29.26
842.677	29.31
842.85	31.27
843.022	29.31
843.194	31.02
843.367	27.77
843.539	26.06
843.712	28.98
843.884	28.92
844.056	30.33
844.229	32.1
844.401	30.38
844.573	28.91
844.745	25.52
844.918	29.03
845.09	25.87
845.262	29.57
845.434	30.37
845.606	23.8
845.779	23.74
845.951	24.13
846.123	20.87
846.295	22.79
846.467	21.14
846.639	26.17
846.811	23.42
846.983	24.9
847.155	24.09
847.327	25.82
847.499	31.06
847.671	31.2
847.843	26.45
848.015	31.42
848.187	33.6
848.359	37.01
848.531	32.03
848.703	33.55
848.875	33.82
849.047	32.45
849.218	31.16
849.39	29.18
849.562	28.37
849.734	31.45
849.905	32.06
850.077	30.97
850.249	28.68
850.421	28.18
850.592	28.51
850.764	26.67
850.936	26.06
851.107	24.52
851.279	25.92
851.451	28.68
851.622	27.25
851.794	26.36
851.965	23.39
852.137	25.75
852.308	30.8
852.48	29.9
852.651	30.91
852.823	35.81
852.994	37.95
853.166	34.82
853.337	33.52
853.509	33.64
853.68	33.86
853.851	37.11
854.023	37.13
854.194	30.01
854.365	29.18
854.537	27.11
854.708	25.47
854.879	25.05
855.05	23.87
855.222	23.49
855.393	25.3
855.564	26.78
855.735	25.29
855.906	25.75
856.078	31.52
856.249	32.2
856.42	33.1
856.591	31.08
856.762	30.9
856.933	28.52
857.104	29.52
857.275	27.38
857.446	22.32
857.617	18.91
857.788	19.93
857.959	23.04
858.13	27.71
858.301	28.22
858.472	29.27
858.643	31.44
858.814	37.15
858.985	33.69
859.155	31.24
859.326	37.61
859.497	40.69
859.668	38.06
859.839	37.74
860.009	32.32
860.18	34.57
860.351	28.76
860.522	27.31
860.692	26.57
860.863	31.59
861.034	34.11
861.204	29.88
861.375	25.52
861.546	24.41
861.716	17.63
861.887	16.77
862.057	17.22
862.228	23.64
862.398	21.28
862.569	23.43
862.739	17.6
862.91	14.48
863.08	9.42
863.251	14.37
863.421	12.96
863.592	17.48
863.762	22.07
863.932	21.91
864.103	23.4
864.273	26.17
864.443	22.8
864.614	24.57
864.784	27.94
864.954	33.31
865.125	35.3
865.295	37.48
865.465	38.72
865.635	38.08
865.805	33.78
865.976	32.71
866.146	35.54
866.316	37.54
866.486	37.33
866.656	31.14
866.826	23.05
866.996	20.79
867.166	21.49
867.336	18.91
867.506	23.12
867.676	25.77
867.846	30.39
868.016	24.61
868.186	24.63
868.356	23.28
868.526	29.33
868.696	34.6
868.866	28.55
869.036	27
869.206	26.68
869.376	20.54
869.545	24.34
869.715	22.2
869.885	23.33
870.055	24.13
870.224	24.25
870.394	24.15
870.564	22.36
870.734	30.05
870.903	28.02
871.073	27.3
871.243	28.99
871.412	22.16
871.582	19.31
871.751	21.85
871.921	22.06
872.091	21.75
872.26	21.18
872.43	20.39
872.599	21.16
872.769	22.92
872.938	25.75
873.108	24.3
873.277	22.23
873.446	21.18
873.616	17.58
873.785	14.07
873.955	16.97
874.124	15.96
874.293	19.06
874.463	13.85
874.632	18.69
874.801	17.13
874.971	19.58
875.14	25.81
875.309	26.21
875.478	29.96
875.647	32.28
875.817	31.06
875.986	31.79
876.155	31.27
876.324	32.83
876.493	29.4
876.662	33.59
876.831	35.87
877	34.45
877.17	36.11
877.339	35.82
877.508	36.31
877.677	39.43
877.846	37.77
878.015	33.84
878.184	35.64
878.352	35.19
878.521	32.65
878.69	30.82
878.859	29.38
879.028	27.5
879.197	25.44
879.366	21.94
879.534	20.49
879.703	22.8
879.872	25.7
880.041	27.01
880.21	28.73
880.378	29.45
880.547	29.66
880.716	31.23
880.884	32.5
881.053	32.99
881.222	35.84
881.39	34.94
881.559	34.39
881.727	34.36
881.896	34.5
882.065	34.15
882.233	34.27
882.402	34.55
882.57	34.53
882.739	33.85
882.907	34.7
883.076	34.06
883.244	34.96
883.412	34.56
883.581	35.14
883.749	34.49
883.918	34.53
884.086	33.77
884.254	34.04
884.423	34.67
884.591	34.9
884.759	34.04
884.927	33.24
885.096	32.25
885.264	34.01
885.432	33.15
885.6	32.91
885.769	32.5
885.937	34.27
886.105	34.3
886.273	32.78
886.441	33.75
886.609	33.74
886.777	34.61
886.945	36.92
887.113	39.04
887.281	36.51
887.449	36.42
887.617	38.12
887.785	36.42
887.953	36.64
888.121	34.52
888.289	34.12
888.457	33.76
888.625	29.83
888.793	26.07
888.961	18.2
889.129	21.64
889.296	25.48
889.464	23.25
889.632	22.43
889.8	16.43
889.967	21.02
890.135	17.83
