Data from 2938488_Reflection_1.txt Node
Date: Wed Jun 17 00:52:22 EDT 2015
User: robert
Spectrometer: USB4E03002
Autoset integration time: false
Trigger mode: 4
Integration Time (sec): 1.000000E-1
Scans to average: 10
Electric dark correction enabled: true
Nonlinearity correction enabled: false
Boxcar width: 5
Stray light correction enabled: false
XAxis mode: Wavelengths
Stop averaging: false
Number of Pixels in Spectrum: 3648
>>>>>Begin Spectral Data<<<<<
177.575	-292.55
177.794	646.72
178.014	-8.21
178.233	-28.07
178.452	-13.27
178.672	-105.24
178.891	24.65
179.11	100.76
179.33	174.95
179.549	221.48
179.768	109.91
179.987	164.9
180.207	109.11
180.426	155.82
180.645	185.1
180.864	372.01
181.084	155.83
181.303	152.99
181.522	115.22
181.741	74.45
181.96	72.29
182.179	743.16
182.398	-2103.33
182.618	-153.21
182.837	-172.18
183.056	-205.69
183.275	-328.05
183.494	-345.19
183.713	-690.19
183.932	-348.91
184.151	266.95
184.37	1620.06
184.589	6000
184.808	-895.65
185.027	-184.81
185.246	505.95
185.465	21.39
185.684	55.27
185.903	51.05
186.122	47.83
186.341	63.15
186.56	83.6
186.779	135.23
186.998	313.08
187.216	251.53
187.435	181.57
187.654	535.19
187.873	-610.76
188.092	-620.53
188.311	5602.35
188.53	-533.61
188.748	-109.83
188.967	-207.42
189.186	-763.81
189.405	-418.75
189.623	-224.82
189.842	-7.99
190.061	-56.72
190.28	14.72
190.498	250.11
190.717	78.81
190.936	-59.55
191.154	-117.15
191.373	-262.2
191.592	-789.25
191.81	-615.72
192.029	-60.1
192.248	-114.98
192.466	-25.35
192.685	83.36
192.904	1470.97
193.122	97.86
193.341	58
193.559	32.54
193.778	-22.62
193.996	-63.24
194.215	-34.46
194.433	15.93
194.652	-16.87
194.87	30.23
195.089	84.42
195.307	258.61
195.526	-827.66
195.744	-33.42
195.963	23.79
196.181	39.64
196.399	34.06
196.618	18.19
196.836	77.71
197.055	35.38
197.273	12.92
197.491	18.13
197.71	-52.21
197.928	-106.14
198.146	341.44
198.365	223.92
198.583	399.57
198.801	-240
199.019	-198.09
199.238	684.61
199.456	-9437.5
199.674	-1910.92
199.892	287.27
200.111	308.15
200.329	173.59
200.547	442.91
200.765	360.68
200.983	758.9
201.202	315.35
201.42	454.8
201.638	15465.63
201.856	446.28
202.074	173.12
202.292	251.36
202.51	186.75
202.728	-534.32
202.946	-148.05
203.165	-1078.41
203.383	-163.11
203.601	-366.56
203.819	-620.53
204.037	-312.98
204.255	522.71
204.473	187.15
204.691	199.77
204.909	165.6
205.127	418.8
205.345	-205.47
205.562	-477.74
205.78	-38.94
205.998	-133.37
206.216	440.16
206.434	76.2
206.652	71.81
206.87	99.39
207.088	43.05
207.306	41.39
207.523	20.55
207.741	-5.43
207.959	116.49
208.177	-161.46
208.395	-65.36
208.612	1042.99
208.83	-101.4
209.048	-91.71
209.266	-85.5
209.483	-56.85
209.701	-147.19
209.919	-65.79
210.136	-105.88
210.354	-59.74
210.572	-28.49
210.79	-48.77
211.007	-2.01
211.225	8.73
211.442	18
211.66	45.39
211.878	39.15
212.095	25.93
212.313	11.13
212.53	-1.89
212.748	-15.87
212.966	-12.6
213.183	-17.63
213.401	-26.1
213.618	-58.96
213.836	-62.12
214.053	-132.41
214.271	-101.87
214.488	-65.36
214.705	-68.71
214.923	-36.12
215.14	1.3
215.358	-9.97
215.575	-17.67
215.793	-10.04
216.01	0.89
216.227	27.27
216.445	28.27
216.662	0.54
216.879	0.05
217.097	-2.77
217.314	-13.37
217.531	-43.92
217.749	-27.34
217.966	-11.93
218.183	-10.84
218.4	-22.52
218.618	-30.63
218.835	-17.71
219.052	-20.23
219.269	-24.36
219.487	-18.26
219.704	1.01
219.921	11.44
220.138	-14.67
220.355	-14.1
220.572	-21.37
220.79	-20.54
221.007	-23.61
221.224	-28.13
221.441	-17.61
221.658	-14.01
221.875	-19.82
222.092	-20.7
222.309	-6.78
222.526	-5.72
222.743	-4.25
222.96	-1.91
223.177	-2.03
223.394	-3.07
223.611	-1.85
223.828	-6.99
224.045	-9.21
224.262	-4.43
224.479	-6.7
224.696	-7.43
224.913	1.66
225.13	2.02
225.347	3.2
225.564	6.37
225.781	8.09
225.997	9.21
226.214	11.01
226.431	11.79
226.648	13.14
226.865	13.23
227.082	12.36
227.298	11.12
227.515	10.59
227.732	9.89
227.949	9.77
228.165	9.25
228.382	8.66
228.599	9.13
228.816	9.08
229.032	8.53
229.249	8.49
229.466	8.14
229.682	8.09
229.899	9.64
230.116	8.88
230.332	9.42
230.549	10.05
230.765	10.46
230.982	7.74
231.199	6.68
231.415	2.73
231.632	4
231.848	4.78
232.065	5.7
232.281	6.96
232.498	8.07
232.714	7.53
232.931	8.41
233.147	8.97
233.364	10.89
233.58	12
233.797	10.93
234.013	10.44
234.23	9.89
234.446	8.72
234.662	5.24
234.879	6.75
235.095	5.32
235.312	5.88
235.528	6.26
235.744	0.96
235.961	0.11
236.177	1.58
236.393	0.27
236.61	0.4
236.826	-1.98
237.042	-2.48
237.258	-2.57
237.475	-0.11
237.691	-1.18
237.907	-1.5
238.123	2.85
238.339	4.19
238.556	7.06
238.772	7.17
238.988	7.12
239.204	9.34
239.42	10.46
239.636	10.52
239.853	10.27
240.069	10.8
240.285	10.9
240.501	10.8
240.717	10.1
240.933	10.1
241.149	9.63
241.365	9.56
241.581	8.55
241.797	8
242.013	7.8
242.229	7.05
242.445	7
242.661	6.8
242.877	5.86
243.093	7.09
243.309	6.25
243.525	7.09
243.741	7.32
243.957	8.25
244.173	9.07
244.388	9.23
244.604	9.66
244.82	8.99
245.036	8.87
245.252	9.24
245.468	8.93
245.683	9.02
245.899	8.9
246.115	9.28
246.331	9.2
246.547	8.56
246.762	8.54
246.978	8.32
247.194	8.53
247.409	8.95
247.625	8.95
247.841	8.92
248.057	9.1
248.272	9.21
248.488	8.56
248.703	8.72
248.919	9.03
249.135	8.04
249.35	8.35
249.566	8.39
249.782	7.66
249.997	7.89
250.213	7.97
250.428	7.77
250.644	8.25
250.859	8.02
251.075	7.42
251.29	7.88
251.506	8.15
251.721	8.1
251.937	8.31
252.152	9.11
252.368	8.83
252.583	8.95
252.798	9.81
253.014	9.3
253.229	10.28
253.445	10.33
253.66	10.09
253.875	10.58
254.091	10.6
254.306	9.03
254.521	7.97
254.737	8.49
254.952	8.03
255.167	6.55
255.383	5.08
255.598	5.24
255.813	5.62
256.028	6.09
256.244	6.29
256.459	6.38
256.674	6.95
256.889	6.73
257.104	6.27
257.32	6.38
257.535	6.44
257.75	7.33
257.965	6.96
258.18	7.24
258.395	6.99
258.61	6.89
258.826	6.67
259.041	6.25
259.256	6.28
259.471	6.54
259.686	6.4
259.901	6.16
260.116	5.76
260.331	5.69
260.546	4.93
260.761	4.87
260.976	4.22
261.191	3.69
261.406	4.93
261.621	5.17
261.836	3.99
262.05	3.89
262.265	4.93
262.48	5.86
262.695	5.76
262.91	6.09
263.125	5.88
263.34	5.8
263.555	6.46
263.769	5.15
263.984	4.25
264.199	5.18
264.414	4.76
264.629	4.83
264.843	3.88
265.058	4.3
265.273	4.87
265.488	4.99
265.702	5.88
265.917	5.91
266.132	6.31
266.346	6.76
266.561	6.79
266.776	6.99
266.99	6.49
267.205	6.85
267.42	6.71
267.634	6.16
267.849	6.6
268.063	6.82
268.278	6.58
268.492	6.45
268.707	6.44
268.922	6.64
269.136	6.81
269.351	6.99
269.565	6.86
269.78	6.62
269.994	6.91
270.209	6.84
270.423	6.51
270.637	6.93
270.852	6.51
271.066	6.35
271.281	6.72
271.495	6.66
271.709	6.35
271.924	6.06
272.138	6.28
272.353	6.09
272.567	5.66
272.781	5.59
272.996	5.09
273.21	5.63
273.424	5.41
273.638	4.52
273.853	4.62
274.067	4.98
274.281	5.27
274.495	5.24
274.71	5.81
274.924	6.22
275.138	6.49
275.352	6.77
275.566	6.51
275.781	7.33
275.995	7.75
276.209	8.23
276.423	8.51
276.637	8.26
276.851	8.34
277.065	7.72
277.279	6.92
277.493	6.88
277.707	7.12
277.921	7.44
278.135	6.7
278.349	6.33
278.563	6.01
278.777	5.16
278.991	5.63
279.205	5.27
279.419	5.49
279.633	5.68
279.847	5.37
280.061	5.27
280.275	5.32
280.489	5.6
280.703	5.75
280.917	5.47
281.131	6.23
281.344	6.03
281.558	6.19
281.772	5.68
281.986	5.98
282.2	5.73
282.414	5.22
282.627	4.88
282.841	4.56
283.055	4.56
283.269	4.79
283.482	4.39
283.696	4.23
283.91	4.35
284.123	4.72
284.337	4.88
284.551	5.04
284.764	5.38
284.978	5.72
285.192	5.88
285.405	5.31
285.619	5.21
285.833	5.36
286.046	5.85
286.26	5.85
286.473	5.64
286.687	5.67
286.9	6.18
287.114	5.81
287.327	5.28
287.541	5.38
287.754	5.76
287.968	4.96
288.181	4.86
288.395	4.19
288.608	4
288.822	4.12
289.035	4.01
289.248	3.33
289.462	3.54
289.675	4
289.889	4.24
290.102	4.36
290.315	5.26
290.529	5.32
290.742	5.58
290.955	5.75
291.169	5.79
291.382	5.84
291.595	5.88
291.808	5.93
292.022	5.37
292.235	5.16
292.448	5.09
292.661	5.02
292.875	4.94
293.088	5.25
293.301	5.36
293.514	5.41
293.727	4.95
293.94	4.98
294.153	4.75
294.367	4.97
294.58	4.95
294.793	4.81
295.006	4.47
295.219	4.72
295.432	4.58
295.645	4.3
295.858	4.29
296.071	4.21
296.284	4.62
296.497	4.6
296.71	4.64
296.923	4.7
297.136	4.95
297.349	5.27
297.562	4.76
297.775	4.89
297.988	5.34
298.201	5.36
298.414	5.66
298.626	5.56
298.839	5.79
299.052	5.86
299.265	5.75
299.478	5.57
299.691	5.51
299.903	5.88
300.116	5.61
300.329	5.62
300.542	5.45
300.755	5.55
300.967	5.26
301.18	5.01
301.393	5.19
301.605	5.12
301.818	5.45
302.031	5.48
302.243	5.4
302.456	5.54
302.669	5.03
302.881	5.06
303.094	5.17
303.307	5.12
303.519	5.13
303.732	4.72
303.944	4.7
304.157	4.63
304.37	4.52
304.582	5.07
304.795	5.22
305.007	5.35
305.22	5.6
305.432	5.45
305.645	5.93
305.857	6.01
306.069	5.99
306.282	5.75
306.494	5.52
306.707	5.64
306.919	5.46
307.132	5.38
307.344	5.28
307.556	5.32
307.769	6.03
307.981	5.64
308.193	5.63
308.406	5.85
308.618	6.3
308.83	6.18
309.043	6.24
309.255	6.48
309.467	6.44
309.679	6.76
309.892	6.65
310.104	6.11
310.316	6.34
310.528	6.47
310.74	6.47
310.953	6.52
311.165	6.7
311.377	6.34
311.589	5.83
311.801	5.79
312.013	6
312.225	5.94
312.437	5.54
312.649	5.4
312.862	5.7
313.074	5.54
313.286	4.86
313.498	4.4
313.71	5.21
313.922	5.27
314.134	5.47
314.346	5.13
314.558	4.85
314.77	4.91
314.982	4.99
315.193	4.89
315.405	5.3
315.617	6.08
315.829	6.67
316.041	6.27
316.253	6.17
316.465	6.92
316.677	6.86
316.888	7.56
317.1	7.9
317.312	7.48
317.524	7.59
317.736	7.48
317.947	6.72
318.159	6.34
318.371	6.56
318.583	7.06
318.794	6.32
319.006	6.94
319.218	6.19
319.43	6.17
319.641	6.33
319.853	6.33
320.064	5.3
320.276	5.84
320.488	6.08
320.699	5.6
320.911	5.24
321.123	5.4
321.334	4.2
321.546	4.37
321.757	4.35
321.969	4.66
322.18	4.37
322.392	5.26
322.603	5.39
322.815	5.45
323.026	5.69
323.238	6
323.449	5.71
323.661	6.02
323.872	6.61
324.083	7.17
324.295	6.79
324.506	6.71
324.718	6.3
324.929	6.03
325.14	6.18
325.352	5.98
325.563	5.73
325.774	5.42
325.986	5.85
326.197	5.2
326.408	4.92
326.62	5.67
326.831	5.74
327.042	6.14
327.253	6.06
327.464	6.06
327.676	6.49
327.887	6.51
328.098	6.85
328.309	6.53
328.52	6.62
328.732	6.41
328.943	5.82
329.154	5.78
329.365	6.04
329.576	6.23
329.787	6.17
329.998	6.38
330.209	5.71
330.42	6.17
330.631	6.47
330.842	7.11
331.053	7.26
331.264	7.41
331.475	7.63
331.686	7.15
331.897	7.33
332.108	7.28
332.319	7.05
332.53	8.36
332.741	8.09
332.952	8
333.163	7.91
333.374	7.71
333.585	7.69
333.795	7.45
334.006	7.81
334.217	7.39
334.428	7.28
334.639	7.27
334.849	6.63
335.06	6.5
335.271	6.66
335.482	6.53
335.692	6.49
335.903	6.42
336.114	6.29
336.325	6.14
336.535	6.63
336.746	6.64
336.957	6.28
337.167	6.06
337.378	5.89
337.589	6.15
337.799	5.82
338.01	6.36
338.22	6.5
338.431	6.36
338.642	6.47
338.852	5.96
339.063	6.1
339.273	6.54
339.484	6.51
339.694	6.61
339.905	6.77
340.115	7
340.326	6.23
340.536	6.12
340.746	6.52
340.957	6.26
341.167	6.69
341.378	6.6
341.588	6.19
341.799	6.23
342.009	6.14
342.219	5.32
342.43	5.11
342.64	5.35
342.85	5.25
343.061	4.95
343.271	5.55
343.481	5.38
343.691	5.81
343.902	6
344.112	6.04
344.322	6.16
344.532	6.21
344.743	6.46
344.953	6.56
345.163	6.77
345.373	7.1
345.583	6.56
345.793	6.33
346.004	5.79
346.214	5.92
346.424	5.93
346.634	5.81
346.844	5.95
347.054	5.76
347.264	5.48
347.474	5.29
347.684	5.19
347.894	5.24
348.104	5.58
348.314	5.91
348.524	5.76
348.734	6.22
348.944	6.31
349.154	6.22
349.364	6.16
349.574	6.49
349.784	6.37
349.994	6.32
350.204	6.21
350.413	6.31
350.623	5.82
350.833	5.64
351.043	4.82
351.253	4.74
351.463	4.93
351.672	5.11
351.882	4.88
352.092	4.93
352.302	5.02
352.511	5.3
352.721	5.15
352.931	5.23
353.141	5.17
353.35	5.69
353.56	5.78
353.77	5.65
353.979	5.5
354.189	5.62
354.399	5.59
354.608	5.56
354.818	5.39
355.027	5.21
355.237	5.39
355.447	5.89
355.656	5.89
355.866	6.02
356.075	5.84
356.285	6.07
356.494	6.17
356.704	6.35
356.913	6.45
357.123	6.44
357.332	6.5
357.542	6.32
357.751	5.86
357.96	5.93
358.17	5.7
358.379	6.08
358.589	6.06
358.798	5.88
359.007	5.89
359.217	5.88
359.426	5.88
359.635	5.72
359.845	5.8
360.054	6.07
360.263	5.89
360.472	5.87
360.682	5.64
360.891	5.42
361.1	5.49
361.309	5.52
361.519	5.59
361.728	5.6
361.937	5.89
362.146	5.93
362.355	5.71
362.564	5.65
362.774	5.49
362.983	5.47
363.192	5.52
363.401	5.4
363.61	5.52
363.819	5.28
364.028	5.38
364.237	5.25
364.446	5.3
364.655	5.38
364.864	5.62
365.073	5.85
365.282	5.77
365.491	6.02
365.7	6.07
365.909	5.72
366.118	5.85
366.327	6.09
366.536	5.92
366.745	5.92
366.954	5.82
367.162	5.75
367.371	5.81
367.58	6.07
367.789	5.97
367.998	5.9
368.207	6.07
368.415	5.62
368.624	5.26
368.833	5.38
369.042	5.08
369.25	5.35
369.459	5.3
369.668	5.45
369.877	5.25
370.085	5.15
370.294	5.09
370.503	5.24
370.711	5.8
370.92	5.76
371.129	5.96
371.337	6.33
371.546	5.89
371.754	5.73
371.963	5.6
372.171	5.71
372.38	5.65
372.589	5.87
372.797	5.64
373.006	5.49
373.214	5.54
373.423	5.64
373.631	5.52
373.84	5.75
374.048	5.65
374.256	5.61
374.465	5.55
374.673	5.54
374.882	5.56
375.09	5.42
375.298	5.38
375.507	5.18
375.715	4.89
375.923	4.75
376.132	4.79
376.34	4.76
376.548	4.79
376.757	4.84
376.965	4.8
377.173	4.75
377.381	5.02
377.59	5.08
377.798	5.09
378.006	4.99
378.214	5.04
378.423	4.85
378.631	5.08
378.839	5.09
379.047	4.98
379.255	4.81
379.463	4.74
379.671	4.77
379.879	4.63
380.088	4.74
380.296	4.8
380.504	5.02
380.712	5.14
380.92	5.29
381.128	5.11
381.336	4.93
381.544	5.13
381.752	5.29
381.96	4.93
382.168	5.04
382.376	5.07
382.584	5.14
382.791	5.1
382.999	4.95
383.207	4.78
383.415	4.76
383.623	4.88
383.831	4.79
384.039	4.64
384.247	4.72
384.454	4.62
384.662	4.54
384.87	4.8
385.078	4.55
385.285	4.58
385.493	4.38
385.701	4.42
385.909	4.4
386.116	4.45
386.324	4.6
386.532	4.84
386.739	5.11
386.947	5.15
387.155	5.03
387.362	5.06
387.57	5.08
387.778	5.07
387.985	5.33
388.193	5.54
388.4	5.65
388.608	5.44
388.816	5.29
389.023	4.97
389.231	4.92
389.438	4.89
389.646	4.85
389.853	5.07
390.061	5.17
390.268	4.95
390.475	4.8
390.683	4.89
390.89	4.98
391.098	5.06
391.305	5.22
391.512	5.39
391.72	5.28
391.927	5.43
392.135	5.24
392.342	5.3
392.549	5.33
392.756	5.27
392.964	5.23
393.171	5.3
393.378	5.16
393.586	5.03
393.793	5.01
394	4.87
394.207	4.9
394.414	4.94
394.622	5.04
394.829	5.13
395.036	5.3
395.243	5.3
395.45	5.15
395.657	5.15
395.864	5.31
396.072	5.11
396.279	5.16
396.486	5.07
396.693	5.04
396.9	4.96
397.107	4.76
397.314	4.67
397.521	4.56
397.728	4.66
397.935	4.83
398.142	4.67
398.349	4.86
398.556	4.95
398.763	4.74
398.97	4.58
399.177	4.46
399.383	4.56
399.59	4.47
399.797	4.46
400.004	4.25
400.211	4.09
400.418	3.92
400.625	3.73
400.831	3.85
401.038	3.98
401.245	3.99
401.452	4.12
401.658	4.13
401.865	4.13
402.072	4.16
402.279	4.26
402.485	4.33
402.692	4.59
402.899	4.69
403.105	4.51
403.312	4.64
403.519	4.83
403.725	4.85
403.932	4.88
404.138	4.8
404.345	4.71
404.552	4.72
404.758	4.84
404.965	4.67
405.171	4.64
405.378	4.75
405.584	4.73
405.791	4.64
405.997	4.52
406.204	4.43
406.41	4.7
406.617	4.88
406.823	4.74
407.029	4.61
407.236	4.59
407.442	4.55
407.649	4.66
407.855	4.52
408.061	4.6
408.268	4.49
408.474	4.58
408.68	4.35
408.887	4.22
409.093	4.27
409.299	4.34
409.505	4.41
409.712	4.45
409.918	4.42
410.124	4.38
410.33	4.38
410.537	4.66
410.743	4.78
410.949	4.8
411.155	4.8
411.361	4.93
411.567	4.91
411.773	4.89
411.98	4.85
412.186	4.66
412.392	4.6
412.598	4.64
412.804	4.49
413.01	4.4
413.216	4.6
413.422	4.71
413.628	4.65
413.834	4.51
414.04	4.49
414.246	4.53
414.452	4.62
414.658	4.7
414.864	4.65
415.07	4.66
415.275	4.59
415.481	4.59
415.687	4.58
415.893	4.59
416.099	4.53
416.305	4.47
416.511	4.51
416.716	4.52
416.922	4.66
417.128	4.57
417.334	4.6
417.539	4.7
417.745	4.7
417.951	4.67
418.157	4.71
418.362	4.73
418.568	4.79
418.774	4.75
418.979	4.75
419.185	4.65
419.391	4.69
419.596	4.65
419.802	4.56
420.008	4.52
420.213	5.22
420.419	5.22
420.624	5.2
420.83	5.19
421.035	5.26
421.241	5.28
421.446	5.3
421.652	5.31
421.857	5.29
422.063	5.35
422.268	5.39
422.474	4.72
422.679	4.63
422.885	4.67
423.09	4.74
423.295	4.71
423.501	4.67
423.706	4.71
423.911	4.67
424.117	4.8
424.322	4.77
424.527	4.68
424.733	4.73
424.938	4.76
425.143	4.81
425.349	4.76
425.554	4.74
425.759	4.84
425.964	4.8
426.169	4.87
426.375	4.7
426.58	4.75
426.785	4.82
426.99	4.86
427.195	4.75
427.4	4.68
427.605	4.71
427.811	4.78
428.016	4.73
428.221	4.7
428.426	4.65
428.631	4.67
428.836	4.67
429.041	4.73
429.246	4.56
429.451	4.69
429.656	4.87
429.861	4.89
430.066	4.82
430.271	4.83
430.476	4.91
430.681	4.87
430.886	5
431.09	4.96
431.295	4.96
431.5	5.06
431.705	5
431.91	4.88
432.115	4.87
432.32	4.89
432.524	4.82
432.729	4.73
432.934	4.85
433.139	4.86
433.343	4.99
433.548	4.85
433.753	4.86
433.958	4.97
434.162	4.91
434.367	4.83
434.572	4.78
434.776	4.89
434.981	4.89
435.186	4.82
435.39	4.78
435.595	4.68
435.799	4.89
436.004	4.84
436.209	4.84
436.413	4.82
436.618	4.85
436.822	4.93
437.027	4.93
437.231	5.04
437.436	5.02
437.64	4.91
437.845	4.85
438.049	4.78
438.253	4.78
438.458	4.81
438.662	4.9
438.867	4.96
439.071	4.96
439.275	4.88
439.48	4.86
439.684	4.89
439.888	4.98
440.093	5.03
440.297	5.03
440.501	5.07
440.706	5.1
440.91	5.02
441.114	5.02
441.318	5
441.523	5.02
441.727	4.99
441.931	4.96
442.135	4.96
442.339	4.95
442.543	4.97
442.748	4.94
442.952	4.89
443.156	4.99
443.36	5
443.564	4.99
443.768	4.96
443.972	5
444.176	5.09
444.38	5.01
444.584	4.96
444.788	5.01
444.992	4.99
445.196	5.01
445.4	4.93
445.604	4.92
445.808	4.96
446.012	4.97
446.216	4.96
446.42	4.85
446.624	4.85
446.828	4.84
447.032	4.71
447.235	4.71
447.439	4.66
447.643	4.79
447.847	4.78
448.051	4.72
448.254	4.7
448.458	4.63
448.662	4.7
448.866	4.69
449.069	4.68
449.273	4.76
449.477	4.73
449.681	4.68
449.884	4.47
450.088	4.5
450.292	4.42
450.495	4.43
450.699	4.55
450.902	4.53
451.106	4.65
451.31	4.67
451.513	4.63
451.717	4.67
451.92	4.76
452.124	4.83
452.327	4.8
452.531	4.77
452.734	4.8
452.938	4.82
453.141	4.82
453.345	4.77
453.548	4.87
453.752	4.8
453.955	4.78
454.158	4.71
454.362	4.71
454.565	4.72
454.769	4.76
454.972	4.68
455.175	4.58
455.379	4.55
455.582	4.59
455.785	4.55
455.988	4.65
456.192	4.61
456.395	4.69
456.598	4.78
456.801	4.75
457.005	4.83
457.208	4.91
457.411	4.89
457.614	4.92
457.817	4.88
458.021	4.77
458.224	4.78
458.427	4.79
458.63	4.75
458.833	4.74
459.036	4.74
459.239	4.8
459.442	4.74
459.645	4.74
459.848	4.66
460.051	4.64
460.254	4.75
460.457	4.76
460.66	4.84
460.863	4.95
461.066	4.94
461.269	4.88
461.472	4.84
461.675	4.85
461.878	4.93
462.081	5.1
462.284	5.16
462.486	5.16
462.689	5.1
462.892	5.02
463.095	4.76
463.298	4.68
463.5	4.77
463.703	4.78
463.906	4.8
464.109	4.69
464.311	4.69
464.514	4.63
464.717	4.76
464.92	4.8
465.122	4.75
465.325	4.95
465.528	5.06
465.73	5.02
465.933	5.04
466.135	5.08
466.338	5.09
466.541	5.06
466.743	5.05
466.946	4.99
467.148	4.98
467.351	5.12
467.553	5.11
467.756	5.1
467.958	5.14
468.161	4.99
468.363	5.01
468.566	5.11
468.768	5.18
468.971	5.31
469.173	5.16
469.375	5.12
469.578	5.09
469.78	4.92
469.983	4.85
470.185	4.81
470.387	4.95
470.59	4.88
470.792	4.79
470.994	4.82
471.196	4.7
471.399	4.8
471.601	4.89
471.803	4.93
472.005	5.07
472.208	5.15
472.41	5.21
472.612	5.19
472.814	5.15
473.016	5.2
473.218	5.09
473.421	5.12
473.623	5.25
473.825	5.21
474.027	5.14
474.229	5.19
474.431	5.07
474.633	5.01
474.835	5.04
475.037	5.08
475.239	5.05
475.441	4.97
475.643	4.98
475.845	4.92
476.047	4.92
476.249	4.92
476.451	4.87
476.653	4.97
476.855	5
477.057	4.98
477.258	5.02
477.46	4.98
477.662	5.01
477.864	5
478.066	5.01
478.268	5.01
478.469	4.94
478.671	4.93
478.873	4.84
479.075	4.81
479.276	4.78
479.478	4.84
479.68	4.88
479.882	4.89
480.083	4.82
480.285	4.82
480.487	4.84
480.688	4.89
480.89	4.93
481.091	4.92
481.293	4.92
481.495	4.93
481.696	4.92
481.898	4.93
482.099	4.95
482.301	5
482.502	5
482.704	4.97
482.905	4.98
483.107	4.96
483.308	5
483.51	5.02
483.711	5.05
483.913	5.05
484.114	5.04
484.315	5.02
484.517	5.04
484.718	5.03
484.92	5.06
485.121	5.04
485.322	5.03
485.524	5.03
485.725	5.04
485.926	5
486.127	4.98
486.329	4.99
486.53	5.01
486.731	4.98
486.932	5
487.134	5.01
487.335	5.05
487.536	5.07
487.737	5.06
487.938	5.05
488.139	5.04
488.341	5.08
488.542	5.08
488.743	5.01
488.944	5.03
489.145	5.01
489.346	4.99
489.547	4.89
489.748	4.91
489.949	4.91
490.15	4.87
490.351	4.94
490.552	4.93
490.753	4.97
490.954	5.03
491.155	5.01
491.356	5.05
491.557	5.02
491.758	5.05
491.959	5.02
492.159	5.02
492.36	5.11
492.561	5.05
492.762	5.1
492.963	5.07
493.164	5.09
493.364	5.08
493.565	5.01
493.766	5.01
493.967	5.07
494.167	5.14
494.368	5.23
494.569	5.07
494.769	5
494.97	4.94
495.171	5
495.371	5.07
495.572	5.12
495.773	5.1
495.973	5.15
496.174	5.14
496.375	5.1
496.575	5.14
496.776	5.29
496.976	5.33
497.177	5.33
497.377	5.28
497.578	5.22
497.778	5.19
497.979	5.25
498.179	5.33
498.38	5.36
498.58	5.39
498.78	5.33
498.981	5.33
499.181	5.34
499.382	5.42
499.582	5.46
499.782	5.51
499.983	5.6
500.183	5.62
500.383	5.57
500.584	5.58
500.784	5.61
500.984	5.59
501.184	5.53
501.385	5.53
501.585	5.49
501.785	5.53
501.985	5.5
502.185	5.49
502.386	5.55
502.586	5.58
502.786	5.56
502.986	5.6
503.186	5.67
503.386	5.75
503.586	5.78
503.786	5.81
503.987	5.77
504.187	5.83
504.387	5.82
504.587	5.78
504.787	5.79
504.987	5.85
505.187	5.85
505.387	5.87
505.587	5.88
505.786	5.89
505.986	5.92
506.186	5.88
506.386	5.85
506.586	5.96
506.786	5.97
506.986	5.95
507.186	5.95
507.386	5.93
507.585	5.97
507.785	5.9
507.985	5.94
508.185	6
508.384	6.05
508.584	6.08
508.784	5.99
508.984	6.04
509.183	6.09
509.383	6.13
509.583	6.14
509.782	6.09
509.982	6.17
510.182	6.27
510.381	6.26
510.581	6.27
510.781	6.36
510.98	6.44
511.18	6.54
511.379	6.54
511.579	6.57
511.778	6.64
511.978	6.72
512.177	6.74
512.377	6.69
512.576	6.71
512.776	6.76
512.975	6.68
513.175	6.65
513.374	6.53
513.573	6.52
513.773	6.52
513.972	6.51
514.172	6.5
514.371	6.55
514.57	6.57
514.77	6.53
514.969	6.58
515.168	6.63
515.367	6.66
515.567	6.68
515.766	6.76
515.965	6.78
516.164	6.82
516.364	6.8
516.563	6.82
516.762	6.82
516.961	6.93
517.16	6.98
517.359	6.96
517.559	7
517.758	7.08
517.957	7.06
518.156	7.15
518.355	7.16
518.554	7.18
518.753	7.19
518.952	7.25
519.151	7.2
519.35	7.13
519.549	7.2
519.748	7.2
519.947	7.2
520.146	7.28
520.345	7.19
520.544	7.17
520.743	7.16
520.942	7.23
521.141	7.23
521.339	7.24
521.538	7.38
521.737	7.43
521.936	7.49
522.135	7.52
522.333	7.51
522.532	7.6
522.731	7.65
522.93	7.78
523.129	7.78
523.327	7.75
523.526	7.83
523.725	7.77
523.923	7.8
524.122	7.75
524.321	7.72
524.519	7.73
524.718	7.75
524.917	7.74
525.115	7.71
525.314	7.73
525.512	7.77
525.711	7.81
525.909	7.82
526.108	7.8
526.306	7.82
526.505	7.87
526.703	7.91
526.902	7.93
527.1	7.97
527.299	8.04
527.497	8.06
527.696	8.09
527.894	8.1
528.092	8.16
528.291	8.19
528.489	8.2
528.688	8.26
528.886	8.27
529.084	8.29
529.283	8.34
529.481	8.32
529.679	8.33
529.877	8.37
530.076	8.34
530.274	8.32
530.472	8.33
530.67	8.36
530.869	8.3
531.067	8.33
531.265	8.33
531.463	8.29
531.661	8.27
531.859	8.35
532.057	8.38
532.255	8.42
532.454	8.42
532.652	8.42
532.85	8.47
533.048	8.54
533.246	8.59
533.444	8.59
533.642	8.65
533.84	8.7
534.038	8.65
534.236	8.65
534.434	8.67
534.632	8.75
534.83	8.74
535.027	8.84
535.225	8.83
535.423	8.83
535.621	8.87
535.819	8.86
536.017	8.96
536.215	9.01
536.412	9.05
536.61	9.06
536.808	9.02
537.006	9.15
537.203	9.11
537.401	9.09
537.599	9.14
537.797	9.17
537.994	9.26
538.192	9.2
538.39	9.24
538.587	9.24
538.785	9.33
538.983	9.33
539.18	9.37
539.378	9.38
539.575	9.46
539.773	9.5
539.97	9.52
540.168	9.57
540.366	9.6
540.563	9.62
540.761	9.68
540.958	9.72
541.155	9.82
541.353	9.85
541.55	9.88
541.748	9.9
541.945	9.9
542.143	9.95
542.34	9.96
542.537	9.98
542.735	9.92
542.932	9.98
543.129	9.92
543.327	9.96
543.524	9.91
543.721	9.97
543.919	10.03
544.116	10.09
544.313	10.07
544.51	10.13
544.708	10.14
544.905	10.25
545.102	10.24
545.299	10.31
545.496	10.23
545.693	10.34
545.891	10.4
546.088	10.43
546.285	10.44
546.482	10.47
546.679	10.43
546.876	10.49
547.073	10.61
547.27	10.65
547.467	10.66
547.664	10.69
547.861	10.72
548.058	10.77
548.255	10.69
548.452	10.77
548.649	10.79
548.846	10.88
549.043	10.93
549.24	10.87
549.437	10.76
549.633	10.79
549.83	10.83
550.027	10.86
550.224	10.88
550.421	10.98
550.618	10.97
550.814	11.18
551.011	11.23
551.208	11.23
551.405	11.32
551.601	11.5
551.798	11.61
551.995	11.65
552.191	11.65
552.388	11.64
552.585	11.79
552.781	11.8
552.978	11.76
553.175	11.83
553.371	11.94
553.568	11.97
553.764	11.93
553.961	11.93
554.157	12.1
554.354	12.11
554.55	12.2
554.747	12.07
554.943	12.13
555.14	12.17
555.336	12.15
555.533	12.19
555.729	12.3
555.926	12.4
556.122	12.38
556.318	12.36
556.515	12.36
556.711	12.32
556.907	12.48
557.104	12.55
557.3	12.55
557.496	12.57
557.693	12.62
557.889	12.47
558.085	12.42
558.281	12.52
558.478	12.51
558.674	12.65
558.87	12.74
559.066	12.74
559.262	12.81
559.459	12.81
559.655	12.97
559.851	12.96
560.047	13.1
560.243	13.22
560.439	13.23
560.635	13.31
560.831	13.24
561.027	13.27
561.223	13.33
561.419	13.2
561.615	13.3
561.811	13.22
562.007	13.31
562.203	13.38
562.399	13.45
562.595	13.57
562.791	13.66
562.987	13.71
563.183	13.78
563.379	13.83
563.575	14.04
563.771	14.09
563.966	14.07
564.162	14.21
564.358	14.29
564.554	14.27
564.75	14.37
564.945	14.33
565.141	14.4
565.337	14.46
565.533	14.45
565.728	14.5
565.924	14.44
566.12	14.64
566.315	14.54
566.511	14.54
566.707	14.6
566.902	14.54
567.098	14.62
567.293	14.63
567.489	14.67
567.684	14.72
567.88	14.76
568.076	14.85
568.271	14.77
568.467	14.86
568.662	14.86
568.858	14.92
569.053	14.95
569.248	14.99
569.444	15.12
569.639	15.15
569.835	15.27
570.03	15.17
570.225	15.39
570.421	15.48
570.616	15.56
570.812	15.66
571.007	15.75
571.202	15.77
571.397	15.85
571.593	15.96
571.788	15.93
571.983	15.89
572.178	15.99
572.374	15.88
572.569	15.94
572.764	15.98
572.959	15.89
573.154	15.82
573.35	15.87
573.545	15.9
573.74	15.84
573.935	15.91
574.13	15.94
574.325	15.99
574.52	15.96
574.715	15.84
574.91	15.77
575.105	15.85
575.3	15.94
575.495	15.98
575.69	15.96
575.885	15.88
576.08	15.87
576.275	15.96
576.47	16.16
576.665	16.27
576.86	16.43
577.055	16.56
577.25	16.69
577.444	16.67
577.639	16.64
577.834	16.69
578.029	16.92
578.224	16.82
578.418	16.81
578.613	16.69
578.808	16.67
579.003	16.69
579.197	16.68
579.392	16.58
579.587	16.65
579.781	16.72
579.976	16.76
580.171	16.74
580.365	17.02
580.56	17.08
580.755	17
580.949	17.11
581.144	17.1
581.338	17.17
581.533	17.19
581.727	17.24
581.922	17.25
582.116	17.22
582.311	17.25
582.505	17.21
582.7	17.12
582.894	17.18
583.089	17.21
583.283	17.21
583.478	17.08
583.672	17.19
583.866	17.28
584.061	17.37
584.255	17.34
584.449	17.27
584.644	17.41
584.838	17.56
585.032	17.67
585.226	17.61
585.421	17.71
585.615	17.82
585.809	17.81
586.003	17.71
586.198	17.69
586.392	17.85
586.586	17.95
586.78	17.83
586.974	17.97
587.168	18.08
587.363	18.24
587.557	18.24
587.751	18.31
587.945	18.35
588.139	18.56
588.333	18.56
588.527	18.72
588.721	18.71
588.915	18.9
589.109	18.86
589.303	18.85
589.497	18.79
589.691	18.82
589.885	18.88
590.079	18.84
590.273	18.75
590.466	18.77
590.66	18.6
590.854	18.55
591.048	18.44
591.242	18.43
591.436	18.45
591.629	18.49
591.823	18.55
592.017	18.43
592.211	18.48
592.404	18.39
592.598	18.45
592.792	18.45
592.986	18.59
593.179	18.55
593.373	18.61
593.567	18.59
593.76	18.64
593.954	18.62
594.147	18.77
594.341	18.78
594.535	18.9
594.728	19
594.922	19.05
595.115	19.06
595.309	19.18
595.502	19.15
595.696	19.13
595.889	19.14
596.083	19.12
596.276	19.05
596.47	19.17
596.663	19.19
596.856	19.12
597.05	19.18
597.243	19.06
597.437	18.9
597.63	18.87
597.823	18.87
598.017	18.86
598.21	18.82
598.403	18.85
598.596	18.67
598.79	18.57
598.983	18.57
599.176	18.54
599.369	18.61
599.563	18.75
599.756	18.83
599.949	18.87
600.142	18.93
600.335	19
600.528	19.04
600.722	19.1
600.915	19.23
601.108	19.32
601.301	19.29
601.494	19.37
601.687	19.29
601.88	19.34
602.073	19.38
602.266	19.31
602.459	19.3
602.652	19.37
602.845	19.35
603.038	19.37
603.231	19.36
603.424	19.41
603.617	19.48
603.809	19.6
604.002	19.49
604.195	19.55
604.388	19.57
604.581	19.63
604.774	19.53
604.966	19.52
605.159	19.41
605.352	19.48
605.545	19.52
605.737	19.41
605.93	19.38
606.123	19.41
606.316	19.4
606.508	19.47
606.701	19.4
606.894	19.44
607.086	19.52
607.279	19.53
607.471	19.56
607.664	19.62
607.857	19.74
608.049	19.7
608.242	19.75
608.434	19.72
608.627	19.67
608.819	19.74
609.012	19.78
609.204	19.89
609.397	20.01
609.589	19.98
609.782	20.08
609.974	20
610.166	20.06
610.359	20.05
610.551	20.14
610.743	20.2
610.936	20.22
611.128	20.24
611.32	20.2
611.513	20.29
611.705	20.4
611.897	20.21
612.09	20.3
612.282	20.33
612.474	20.34
612.666	20.33
612.858	20.42
613.051	20.45
613.243	20.45
613.435	20.42
613.627	20.18
613.819	19.99
614.011	20.04
614.203	20.19
614.395	20.08
614.588	20.16
614.78	20.18
614.972	20.22
615.164	20.39
615.356	20.61
615.548	20.68
615.74	20.78
615.932	20.9
616.124	21.09
616.315	21.13
616.507	21.52
616.699	21.39
616.891	21.26
617.083	21.16
617.275	21.07
617.467	20.88
617.659	20.77
617.85	20.76
618.042	20.77
618.234	20.8
618.426	20.5
618.618	20.35
618.809	20.55
619.001	20.65
619.193	20.73
619.384	20.72
619.576	20.83
619.768	20.9
619.959	21.11
620.151	21.02
620.343	20.93
620.534	21.13
620.726	21.17
620.917	21.15
621.109	21.1
621.301	21.19
621.492	21.28
621.684	21.25
621.875	21.58
622.067	21.53
622.258	21.74
622.45	21.66
622.641	21.61
622.832	21.62
623.024	21.63
623.215	21.67
623.407	21.37
623.598	21.35
623.789	21.19
623.981	20.9
624.172	20.76
624.363	20.63
624.555	20.6
624.746	20.52
624.937	20.53
625.129	20.43
625.32	20.59
625.511	20.78
625.702	20.66
625.893	20.75
626.085	20.99
626.276	21.08
626.467	21.16
626.658	21.16
626.849	21.23
627.04	21.05
627.231	21.11
627.422	21.04
627.614	21.03
627.805	20.99
627.996	21.1
628.187	20.94
628.378	20.96
628.569	20.94
628.76	21.05
628.951	21.06
629.142	21.07
629.332	21.27
629.523	21.36
629.714	21.5
629.905	21.7
630.096	21.8
630.287	21.96
630.478	21.95
630.669	21.89
630.859	21.82
631.05	21.69
631.241	21.88
631.432	21.61
631.623	21.57
631.813	21.45
632.004	21.56
632.195	21.54
632.385	21.43
632.576	21.44
632.767	21.52
632.957	21.51
633.148	21.83
633.339	21.81
633.529	22.03
633.72	22.02
633.91	22.07
634.101	22.1
634.292	21.96
634.482	21.91
634.673	22.08
634.863	22.04
635.054	22.21
635.244	22.18
635.435	22.24
635.625	22.13
635.815	22.21
636.006	22.09
636.196	22.16
636.387	22.23
636.577	22.39
636.767	22.31
636.958	22.5
637.148	22.33
637.338	22.23
637.529	22.26
637.719	22.17
637.909	22.09
638.099	22.42
638.29	22.13
638.48	22.08
638.67	22.35
638.86	22.39
639.05	22.34
639.241	22.48
639.431	22.43
639.621	22.37
639.811	22.66
640.001	22.67
640.191	22.62
640.381	22.67
640.571	22.73
640.761	22.18
640.951	22.09
641.141	22.19
641.331	22.09
641.521	22.13
641.711	22.27
641.901	22.22
642.091	22.2
642.281	22
642.471	22.05
642.661	22.05
642.851	22.33
643.041	22.32
643.231	22.11
643.42	22.21
643.61	22.41
643.8	22.3
643.99	22.2
644.18	22.36
644.369	22.31
644.559	22.52
644.749	22.65
644.939	22.65
645.128	22.8
645.318	22.93
645.508	23
645.697	22.73
645.887	22.72
646.076	22.78
646.266	22.56
646.456	22.76
646.645	22.45
646.835	22.6
647.024	22.44
647.214	22.44
647.403	22.51
647.593	22.34
647.782	22.46
647.972	22.49
648.161	22.46
648.351	22.78
648.54	22.84
648.73	23.09
648.919	23.23
649.108	23.49
649.298	23.37
649.487	23.18
649.677	23.28
649.866	23.3
650.055	23.41
650.244	23.37
650.434	23.28
650.623	23.26
650.812	23.11
651.002	22.91
651.191	22.79
651.38	22.85
651.569	23.02
651.758	22.95
651.947	22.96
652.137	23.17
652.326	23.23
652.515	23.48
652.704	23.26
652.893	23.44
653.082	23.34
653.271	23.31
653.46	23.29
653.649	23.37
653.838	23.63
654.027	23.81
654.216	23.59
654.405	23.54
654.594	23.2
654.783	23.56
654.972	23.59
655.161	23.51
655.35	23.48
655.539	23.68
655.728	23.67
655.916	23.66
656.105	23.36
656.294	23.48
656.483	23.59
656.672	23.42
656.86	23.33
657.049	23.34
657.238	23.48
657.427	23.68
657.615	23.52
657.804	23.49
657.993	23.45
658.181	23.55
658.37	23.54
658.559	23.5
658.747	23.64
658.936	23.73
659.125	23.37
659.313	23.4
659.502	23.25
659.69	23.26
659.879	23.21
660.067	23.29
660.256	23.23
660.444	23.15
660.633	23.3
660.821	23.25
661.01	23.07
661.198	23.57
661.387	23.56
661.575	23.64
661.763	23.74
661.952	23.59
662.14	23.61
662.328	23.72
662.517	23.81
662.705	23.73
662.893	24
663.082	24.2
663.27	23.96
663.458	23.94
663.646	23.93
663.834	24.11
664.023	24.33
664.211	24.15
664.399	24.4
664.587	24.49
664.775	24.54
664.963	24.29
665.152	24.3
665.34	24.41
665.528	24.33
665.716	24.33
665.904	24.19
666.092	24.26
666.28	24.45
666.468	24.2
666.656	24.22
666.844	24.41
667.032	24.6
667.22	24.4
667.408	24.45
667.596	24.53
667.784	24.45
667.971	24.36
668.159	24.55
668.347	24.61
668.535	24.68
668.723	24.59
668.911	24.33
669.098	24.21
669.286	24.17
669.474	24.11
669.662	24.21
669.849	24.34
670.037	24.55
670.225	24.45
670.413	24.07
670.6	24.28
670.788	24.16
670.976	24.23
671.163	24.36
671.351	24.49
671.538	24.57
671.726	24.57
671.913	24.54
672.101	24.31
672.289	24.35
672.476	24.49
672.664	24.34
672.851	24.37
673.039	24.26
673.226	24.11
673.413	24.22
673.601	24.1
673.788	24.15
673.976	24
674.163	24.07
674.35	23.93
674.538	23.99
674.725	24.17
674.912	24.5
675.1	24.7
675.287	24.93
675.474	24.91
675.662	25.17
675.849	25.26
676.036	25.61
676.223	25.52
676.411	25.54
676.598	25.6
676.785	25.59
676.972	25.47
677.159	25.45
677.346	25.33
677.533	25.23
677.721	25.33
677.908	25.34
678.095	25.15
678.282	25.48
678.469	25.65
678.656	25.74
678.843	25.72
679.03	25.57
679.217	25.6
679.404	25.72
679.591	25.96
679.778	26.01
679.964	25.67
680.151	25.86
680.338	25.6
680.525	25.44
680.712	25.08
680.899	25.27
681.086	25.51
681.272	25.5
681.459	25.32
681.646	25.13
681.833	25.12
682.02	25.2
682.206	25.17
682.393	25.28
682.58	25.24
682.766	25.43
682.953	25.22
683.14	25.05
683.326	25.26
683.513	25.52
683.7	25.88
683.886	25.56
684.073	25.7
684.259	25.51
684.446	25.66
684.632	25.84
684.819	25.72
685.005	25.67
685.192	25.66
685.378	25.4
685.565	25.4
685.751	25.22
685.938	25.45
686.124	25.65
686.31	25.85
686.497	25.73
686.683	25.67
686.87	26.15
687.056	26.34
687.242	26.31
687.429	26.44
687.615	26.43
687.801	26.43
687.987	26.21
688.174	25.93
688.36	25.76
688.546	25.67
688.732	25.54
688.918	25.49
689.105	25.37
689.291	25.47
689.477	25.44
689.663	25.45
689.849	25.37
690.035	25.49
690.221	25.53
690.407	25.9
690.593	25.96
690.779	25.99
690.965	25.87
691.151	25.82
691.337	25.74
691.523	25.72
691.709	25.64
691.895	25.87
692.081	25.88
692.267	26.15
692.453	25.95
692.639	25.86
692.825	26
693.011	25.92
693.196	25.93
693.382	26.1
693.568	26.11
693.754	25.83
693.94	25.76
694.125	25.98
694.311	26.05
694.497	25.97
694.682	25.98
694.868	26.04
695.054	25.99
695.239	25.89
695.425	26.04
695.611	26.17
695.796	26.6
695.982	26.53
696.168	26.25
696.353	26.23
696.539	26.07
696.724	26.03
696.91	25.85
697.095	26.07
697.281	26.25
697.466	26.16
697.652	26.15
697.837	26.2
698.023	26.36
698.208	26.37
698.393	26.37
698.579	26.54
698.764	26.68
698.949	26.64
699.135	26.71
699.32	26.76
699.505	26.71
699.691	26.94
699.876	26.78
700.061	26.65
700.246	26.78
700.432	26.42
700.617	26.28
700.802	26.31
700.987	26.7
701.172	26.72
701.358	26.31
701.543	26.38
701.728	26.2
701.913	26.47
702.098	26.52
702.283	26.71
702.468	27.24
702.653	27.35
702.838	27.46
703.023	27.45
703.208	27.19
703.393	27.66
703.578	27.73
703.763	27.5
703.948	27.28
704.133	27.33
704.318	27.15
704.503	26.66
704.688	26.91
704.873	26.95
705.057	26.98
705.242	27.01
705.427	27.07
705.612	27.05
705.797	26.99
705.981	27.22
706.166	27.19
706.351	27.01
706.536	27.18
706.72	27.16
706.905	27.07
707.09	27.24
707.274	27.18
707.459	27.25
707.644	27.73
707.828	27.68
708.013	27.42
708.197	27.39
708.382	27.12
708.567	27.49
708.751	27.66
708.936	27.78
709.12	27.73
709.305	27.88
709.489	27.54
709.673	27.13
709.858	27.21
710.042	27.27
710.227	27.03
710.411	27.54
710.596	27.48
710.78	27.26
710.964	27.03
711.149	26.96
711.333	26.98
711.517	27.16
711.702	26.99
711.886	27.03
712.07	26.9
712.254	27.3
712.438	27.16
712.623	27.03
712.807	27.04
712.991	27.3
713.175	27.24
713.359	27.19
713.544	27.25
713.728	27.41
713.912	27.41
714.096	27.75
714.28	27.7
714.464	28.03
714.648	28.14
714.832	28.26
715.016	28.15
715.2	28.02
715.384	28.06
715.568	28.16
715.752	27.95
715.936	27.82
716.12	27.68
716.304	27.47
716.488	27.33
716.671	27.44
716.855	27.27
717.039	27.34
717.223	27.31
717.407	27.47
717.59	27.3
717.774	27.24
717.958	27.68
718.142	27.64
718.325	27.59
718.509	26.87
718.693	26.83
718.877	27.07
719.06	27.33
719.244	27.95
719.428	27.6
719.611	27.58
719.795	27.91
719.978	27.51
720.162	27.6
720.345	27.89
720.529	28.4
720.713	28.27
720.896	28.2
721.08	27.89
721.263	27.25
721.446	27.28
721.63	27.09
721.813	26.93
721.997	27.21
722.18	27.16
722.364	27.05
722.547	27.24
722.73	27.47
722.914	27.22
723.097	27.19
723.28	27.52
723.464	27.6
723.647	27.92
723.83	28.38
724.013	28.71
724.197	28.78
724.38	29.21
724.563	29.07
724.746	28.81
724.929	29.09
725.112	28.98
725.296	28.82
725.479	28.97
725.662	29.14
725.845	29.13
726.028	28.69
726.211	28.71
726.394	28.42
726.577	28.82
726.76	28.93
726.943	28.92
727.126	28.79
727.309	28.98
727.492	28.98
727.675	28.61
727.858	28.15
728.041	28.6
728.224	28.5
728.407	28.38
728.589	28.23
728.772	28.32
728.955	28.41
729.138	28.7
729.321	28.56
729.503	28.29
729.686	28.29
729.869	28.23
730.052	27.75
730.234	27.8
730.417	27.76
730.6	27.41
730.782	27.28
730.965	26.95
731.148	27.22
731.33	27.5
731.513	27.76
731.695	27.97
731.878	28.08
732.061	27.95
732.243	28.03
732.426	28.04
732.608	28.34
732.791	28.46
732.973	28.93
733.156	28.99
733.338	29.06
733.52	29.29
733.703	29.49
733.885	29.45
734.068	29.71
734.25	29.24
734.432	29.52
734.615	29.43
734.797	29.23
734.979	29.34
735.162	29.27
735.344	28.9
735.526	28.42
735.708	28.08
735.891	28.91
736.073	28.82
736.255	29.23
736.437	29.23
736.619	29.34
736.802	29.17
736.984	28.74
737.166	28.65
737.348	28.72
737.53	29.03
737.712	29.1
737.894	28.25
738.076	28.19
738.258	28.03
738.44	28.34
738.622	28.27
738.804	28.67
738.986	28.73
739.168	29.19
739.35	29.37
739.532	29.37
739.714	29.27
739.896	29.4
740.078	29.39
740.259	29.58
740.441	29.32
740.623	29.22
740.805	29.12
740.987	29.6
741.168	28.58
741.35	27.73
741.532	28.17
741.714	28.23
741.895	28.72
742.077	28.99
742.259	29.24
742.44	29
742.622	29.11
742.804	28.92
742.985	28.3
743.167	28.47
743.348	29.4
743.53	28.8
743.711	28.68
743.893	29.04
744.075	29.15
744.256	29.53
744.438	29.91
744.619	29.98
744.8	29.85
744.982	29.91
745.163	30.45
745.345	30.05
745.526	30.45
745.707	30.5
745.889	30.04
746.07	30.19
746.252	30
746.433	29.33
746.614	29.3
746.795	29.41
746.977	29.04
747.158	28.64
747.339	28.43
747.52	28.07
747.702	28.16
747.883	27.82
748.064	27.59
748.245	27.32
748.426	28.34
748.607	27.9
748.788	27.74
748.97	28.14
749.151	28.55
749.332	28.92
749.513	28.83
749.694	28.19
749.875	28.44
750.056	28.33
750.237	28.4
750.418	27.76
750.599	27.96
750.78	27.57
750.96	27.93
751.141	27.64
751.322	27.78
751.503	27.4
751.684	28.14
751.865	27.71
752.046	27.4
752.226	26.73
752.407	27.04
752.588	27.79
752.769	28.46
752.949	27.9
753.13	27.68
753.311	28
753.492	28.39
753.672	28.23
753.853	28.94
754.034	30.01
754.214	30.02
754.395	29.52
754.575	28.68
754.756	29.13
754.937	29.46
755.117	29.43
755.298	28.86
755.478	28.54
755.659	28.99
755.839	28.29
756.02	27.41
756.2	28.04
756.381	28.29
756.561	28.74
756.741	27.86
756.922	27.88
757.102	27.97
757.283	28.34
757.463	28.74
757.643	28.62
757.823	28.88
758.004	29.04
758.184	28.84
758.364	28.82
758.545	29.09
758.725	30.16
758.905	30.41
759.085	30.83
759.265	30.52
759.446	30.77
759.626	30.58
759.806	30.82
759.986	31.16
760.166	31.82
760.346	31.76
760.526	31.63
760.706	30.59
760.886	29.92
761.066	29.89
761.246	29.89
761.426	29.41
761.606	28.93
761.786	29
761.966	28.63
762.146	28.16
762.326	28.31
762.506	28.25
762.686	28.57
762.866	29.18
763.046	29.28
763.225	29.59
763.405	29.87
763.585	30.37
763.765	30.25
763.945	30.17
764.124	30.24
764.304	30.45
764.484	30.14
764.664	30.2
764.843	29.88
765.023	30.26
765.203	29.92
765.382	29.56
765.562	29.44
765.741	29.46
765.921	29.69
766.101	29.98
766.28	29.75
766.46	29.89
766.639	30.14
766.819	30.33
766.998	29.69
767.178	29.81
767.357	30.12
767.537	29.72
767.716	30.1
767.896	30.9
768.075	31.21
768.254	31.1
768.434	32.05
768.613	32.5
768.792	31.78
768.972	32.06
769.151	31.82
769.33	31.64
769.51	32.64
769.689	31.77
769.868	31.24
770.047	30.55
770.226	30.5
770.406	29.81
770.585	29.37
770.764	30.18
770.943	29.98
771.122	30.16
771.301	30.95
771.48	30.09
771.66	30.74
771.839	30.29
772.018	30.67
772.197	30.78
772.376	31.37
772.555	30.93
772.734	30.36
772.913	29.98
773.092	29.76
773.271	29.38
773.449	29.81
773.628	29.15
773.807	29.08
773.986	28.47
774.165	28.5
774.344	28.19
774.523	28.39
774.701	28.18
774.88	27.99
775.059	28.65
775.238	28.72
775.417	29.06
775.595	29.82
775.774	29.82
775.953	30.27
776.131	30.48
776.31	30.41
776.489	30.85
776.667	31.25
776.846	31.75
777.025	31.66
777.203	30.54
777.382	31.34
777.56	31.03
777.739	31.3
777.917	31.3
778.096	30.85
778.274	30.15
778.453	30.26
778.631	30.67
778.81	30.72
778.988	31.73
779.166	32.52
779.345	31.32
779.523	31.58
779.702	31.8
779.88	31.66
780.058	31.97
780.237	32.38
780.415	32.12
780.593	32.16
780.771	31.92
780.95	31
781.128	30.77
781.306	30.77
781.484	31.05
781.662	30.95
781.841	30.4
782.019	30.37
782.197	30.78
782.375	30.84
782.553	31.05
782.731	31.24
782.909	31.38
783.087	32.66
783.265	31.75
783.443	32.22
783.621	32.81
783.799	33.72
783.977	33.75
784.155	32.57
784.333	32.37
784.511	31.59
784.689	31.09
784.867	30.48
785.045	29.93
785.223	30.72
785.4	30.17
785.578	29.07
785.756	29.54
785.934	29.74
786.112	30.41
786.289	30.82
786.467	30.99
786.645	31.07
786.823	31.22
787	31.18
787.178	31.27
787.356	30.3
787.533	30.96
787.711	29.39
787.889	28.78
788.066	28.92
788.244	28.84
788.421	29.34
788.599	29.89
788.776	29.81
788.954	29.83
789.131	29.71
789.309	30.25
789.486	29.5
789.664	30.87
789.841	32.02
790.019	32.71
790.196	31.83
790.373	31.8
790.551	31.99
790.728	31.44
790.906	30.12
791.083	30.53
791.26	30.42
791.437	30.4
791.615	30.16
791.792	30.01
791.969	30.06
792.146	31.38
792.324	31.11
792.501	29.58
792.678	30.02
792.855	32.1
793.032	31.14
793.209	31.95
793.387	33.31
793.564	32.38
793.741	31.95
793.918	31.16
794.095	30.22
794.272	30.62
794.449	31.79
794.626	31.8
794.803	30.51
794.98	31.18
795.157	30.9
795.334	31.04
795.511	31.71
795.688	31.5
795.864	31.26
796.041	31.43
796.218	30.97
796.395	31.14
796.572	31.81
796.749	31.67
796.925	33.57
797.102	33.6
797.279	33.05
797.456	33.49
797.632	33.24
797.809	33.14
797.986	33.6
798.162	33.61
798.339	33
798.516	32.19
798.692	32.15
798.869	29.44
799.046	28.31
799.222	27.86
799.399	26.94
799.575	27.39
799.752	27.58
799.928	27.16
800.105	27.32
800.281	28.25
800.458	28.72
800.634	29.23
800.811	30.41
800.987	31.08
801.163	31.64
801.34	32.07
801.516	31.75
801.692	31.46
801.869	32.3
802.045	32.45
802.221	31.55
802.398	31.01
802.574	30.98
802.75	32.31
802.926	31.96
803.103	32.26
803.279	31.34
803.455	31.73
803.631	32.58
803.807	31.12
803.983	32.14
804.16	33.16
804.336	33.68
804.512	34.11
804.688	31.89
804.864	31.47
805.04	30.65
805.216	30.62
805.392	30.46
805.568	29.97
805.744	30.04
805.92	28.42
806.096	27.61
806.272	27.08
806.448	28.21
806.623	29.08
806.799	30.87
806.975	31.01
807.151	32.1
807.327	31.97
807.503	32.44
807.678	33.32
807.854	32.89
808.03	33.36
808.206	33.73
808.381	31.67
808.557	31.46
808.733	30.12
808.908	30.16
809.084	28.98
809.26	29.19
809.435	28.35
809.611	28.24
809.787	29.73
809.962	28.83
810.138	28.83
810.313	29.32
810.489	29.15
810.664	28.76
810.84	27.37
811.015	28.13
811.191	29.23
811.366	29.68
811.542	29.38
811.717	29.37
811.892	31.07
812.068	30.37
812.243	30.98
812.419	30.46
812.594	30.14
812.769	30.16
812.944	30.45
813.12	28.83
813.295	27.64
813.47	27.9
813.645	27.06
813.821	25.38
813.996	26.15
814.171	25.73
814.346	26.42
814.521	28.27
814.697	29.62
814.872	28.6
815.047	29.75
815.222	32.69
815.397	32.15
815.572	32.56
815.747	31.62
815.922	30.86
816.097	29.72
816.272	30.57
816.447	30.16
816.622	30.51
816.797	31.79
816.972	31.74
817.147	29.49
817.322	28.79
817.496	28.21
817.671	29.2
817.846	28.97
818.021	30.51
818.196	29.83
818.371	30.26
818.545	30.97
818.72	30.51
818.895	30.56
819.069	31.06
819.244	32.3
819.419	32.89
819.594	32.69
819.768	33.79
819.943	33.71
820.117	34.08
820.292	33.88
820.467	33.4
820.641	33.27
820.816	33.61
820.99	33.51
821.165	33.25
821.339	33.04
821.514	32.9
821.688	33
821.863	33.03
822.037	32.99
822.212	33.11
822.386	32.81
822.56	32.99
822.735	32.71
822.909	33.05
823.084	33.18
823.258	33.16
823.432	33.49
823.606	33.41
823.781	33.43
823.955	33.26
824.129	32.89
824.303	33.13
824.478	32.95
824.652	32.78
824.826	32.53
825	32.37
825.174	32.52
825.348	32.31
825.523	31.9
825.697	31.46
825.871	31.47
826.045	31.75
826.219	31.76
826.393	31.97
826.567	32.21
826.741	31.95
826.915	32.37
827.089	32.02
827.263	32.56
827.437	32.73
827.611	32.98
827.784	33.31
827.958	33.36
828.132	33.47
828.306	33.38
828.48	33.37
828.654	33.41
828.827	32.92
829.001	33.67
829.175	32.92
829.349	33.25
829.522	32.81
829.696	32
829.87	31.59
830.044	31.47
830.217	32.31
830.391	32.71
830.565	32.84
830.738	33.35
830.912	31.8
831.085	32.27
831.259	31.28
831.432	32.09
831.606	33
831.779	33.63
831.953	33.87
832.126	32.82
832.3	32.78
832.473	32.59
832.647	32.46
832.82	33.4
832.994	33.14
833.167	33.45
833.34	33.22
833.514	32.99
833.687	32.3
833.86	31.93
834.034	31.64
834.207	31.5
834.38	31.35
834.553	30.42
834.727	29.9
834.9	29.62
835.073	29.51
835.246	28.7
835.419	28.99
835.593	29.25
835.766	30.41
835.939	31.56
836.112	31.2
836.285	31.42
836.458	32.76
836.631	32.32
836.804	31.77
836.977	32.3
837.15	33.62
837.323	32.62
837.496	32.16
837.669	30.41
837.842	28.4
838.015	26.75
838.188	27.14
838.361	25.93
838.533	27.16
838.706	28.16
838.879	28.24
839.052	28.27
839.225	29.54
839.398	31.46
839.57	32.19
839.743	32.88
839.916	35.53
840.088	35.27
840.261	34.93
840.434	34.77
840.607	34.04
840.779	33.67
840.952	32.13
841.124	30.54
841.297	28.45
841.47	28.93
841.642	29.47
841.815	29.39
841.987	28.55
842.16	29.48
842.332	30.07
842.505	32.04
842.677	31.5
842.85	33.63
843.022	35.67
843.194	36.69
843.367	33.92
843.539	32.43
843.712	29.78
843.884	30.81
844.056	29.78
844.229	30.17
844.401	27.85
844.573	29.98
844.745	29.61
844.918	28.48
845.09	30.4
845.262	32.73
845.434	33
845.606	34.03
845.779	31.02
845.951	32.22
846.123	29.84
846.295	32.03
846.467	28.25
846.639	29.26
846.811	28.64
846.983	27.35
847.155	25.96
847.327	28.44
847.499	28.94
847.671	30.46
847.843	31.29
848.015	32.39
848.187	29.39
848.359	29.82
848.531	29.8
848.703	27.57
848.875	27.22
849.047	29.85
849.218	29.61
849.39	28.21
849.562	24.14
849.734	24.84
849.905	24.41
850.077	28.46
850.249	25.89
850.421	22.62
850.592	23.33
850.764	23.9
850.936	21.19
851.107	20.49
851.279	22.36
851.451	24.72
851.622	20.74
851.794	22.76
851.965	17.16
852.137	19.71
852.308	22.08
852.48	25.51
852.651	25.1
852.823	26.08
852.994	26.07
853.166	27.91
853.337	32.03
853.509	33.78
853.68	32.4
853.851	38.84
854.023	42.39
854.194	46.7
854.365	43.19
854.537	41.6
854.708	40.39
854.879	37.36
855.05	32.72
855.222	28.78
855.393	29.46
855.564	30.72
855.735	26.67
855.906	24.1
856.078	20.71
856.249	18.99
856.42	23.03
856.591	21.3
856.762	23.82
856.933	27.62
857.104	29.81
857.275	30.1
857.446	27.16
857.617	28.03
857.788	26.76
857.959	20.87
858.13	24.44
858.301	17.99
858.472	19.36
858.643	15.75
858.814	12.89
858.985	13.23
859.155	13.89
859.326	18.95
859.497	18.11
859.668	24.65
859.839	29.49
860.009	28.33
860.18	32.29
860.351	29.25
860.522	28.08
860.692	28.12
860.863	30.51
861.034	28.7
861.204	24.52
861.375	23.91
861.546	22.12
861.716	23.72
861.887	26.11
862.057	29.26
862.228	32.24
862.398	37.39
862.569	38.49
862.739	32.08
862.91	29.82
863.08	27.94
863.251	32.72
863.421	26.55
863.592	28.76
863.762	21.95
863.932	20.71
864.103	23.24
864.273	22.64
864.443	24.43
864.614	29.92
864.784	31.08
864.954	33.2
865.125	32.35
865.295	42.79
865.465	42.32
865.635	46.51
865.805	47.97
865.976	43.29
866.146	44.05
866.316	42.33
866.486	37.26
866.656	37.03
866.826	38.84
866.996	39.89
867.166	35.53
867.336	35.86
867.506	35.18
867.676	35.83
867.846	40.32
868.016	37.85
868.186	37.94
868.356	40.29
868.526	40.34
868.696	34.62
868.866	32.73
869.036	32.95
869.206	27.36
869.376	29.93
869.545	25.77
869.715	24.81
869.885	28.52
870.055	28.75
870.224	30.46
870.394	31.86
870.564	38.69
870.734	35.43
870.903	35.93
871.073	41.66
871.243	38.63
871.412	41.51
871.582	44.59
871.751	38.76
871.921	43.1
872.091	39.32
872.26	40.78
872.43	41.04
872.599	39.66
872.769	30.71
872.938	23.32
873.108	23.15
873.277	23.88
873.446	22.45
873.616	22.28
873.785	18.13
873.955	20.75
874.124	19.45
874.293	18.57
874.463	22.59
874.632	27.33
874.801	32.1
874.971	37.55
875.14	37.46
875.309	33.52
875.478	36
875.647	38.32
875.817	42.63
875.986	40.6
876.155	39.48
876.324	37.5
876.493	42.04
876.662	37.74
876.831	33.89
877	35.47
877.17	37.15
877.339	38.61
877.508	37.84
877.677	34.94
877.846	35.11
878.015	36.2
878.184	32.59
878.352	28.46
878.521	34.97
878.69	33.7
878.859	30.3
879.028	33.29
879.197	30.45
879.366	29.43
879.534	31.7
879.703	33.18
879.872	32.36
880.041	34.51
880.21	34.84
880.378	33.23
880.547	33.78
880.716	34.58
880.884	34.7
881.053	35.3
881.222	35.45
881.39	35.03
881.559	35.96
881.727	36.71
881.896	35.8
882.065	34.93
882.233	34.97
882.402	35.51
882.57	35.09
882.739	35.25
882.907	35.14
883.076	35.4
883.244	35.3
883.412	34.13
883.581	32.13
883.749	32.42
883.918	32.98
884.086	33.4
884.254	32.51
884.423	32.71
884.591	31.81
884.759	33.12
884.927	32.93
885.096	32.31
885.264	32.5
885.432	34.36
885.6	34.01
885.769	35.34
885.937	34.89
886.105	34.65
886.273	35.15
886.441	34.85
886.609	32.99
886.777	32.36
886.945	31.24
887.113	31.63
887.281	34.28
887.449	34.83
887.617	32.09
887.785	33.95
887.953	33.56
888.121	32.77
888.289	32.04
888.457	31.13
888.625	30.65
888.793	32.51
888.961	29.29
889.129	25.86
889.296	28.01
889.464	27.84
889.632	25.69
889.8	26.61
889.967	26.38
890.135	27.99
