Data from 2938736__Reflection_02.txt Node
Date: Sun Mar 15 18:16:07 EDT 2015
User: robert
Spectrometer: USB4E03002
Autoset integration time: false
Trigger mode: 4
Integration Time (sec): 1.000000E-1
Scans to average: 10
Electric dark correction enabled: false
Nonlinearity correction enabled: false
Boxcar width: 5
Stray light correction enabled: false
XAxis mode: Wavelengths
Stop averaging: false
Number of Pixels in Spectrum: 3648
>>>>>Begin Spectral Data<<<<<
177.575	360
177.794	310.36
178.014	227.84
178.233	262.57
178.452	251.39
178.672	248.68
178.891	185.32
179.11	150.75
179.33	-177.97
179.549	-161.4
179.768	-5420
179.987	-545.16
180.207	-355
180.426	43.26
180.645	167.65
180.864	243.75
181.084	137.68
181.303	236.05
181.522	187.89
181.741	97.85
181.96	123.22
182.179	103.93
182.398	89.03
182.618	200.34
182.837	291.4
183.056	421.47
183.275	516
183.494	1510.64
183.713	2679.17
183.932	-552.58
184.151	-435
184.37	-341.18
184.589	-315.63
184.808	-84
185.027	-348
185.246	1431.25
185.465	1645.45
185.684	552.46
185.903	117.48
186.122	111.01
186.341	77.66
186.56	67.28
186.779	57.84
186.998	70.98
187.216	83.94
187.435	83.5
187.654	73.95
187.873	82.39
188.092	90.47
188.311	89.17
188.53	103.14
188.748	140.39
188.967	100.23
189.186	120.03
189.405	119.83
189.623	81.04
189.842	102.99
190.061	70.88
190.28	59.13
190.498	53.08
190.717	47.17
190.936	15.53
191.154	32.46
191.373	89.05
191.592	153.33
191.81	185.12
192.029	176.73
192.248	165.45
192.466	174.49
192.685	169.27
192.904	156.45
193.122	257.14
193.341	184.51
193.559	131.32
193.778	68.71
193.996	60.05
194.215	15.84
194.433	-17.12
194.652	13.13
194.87	19.96
195.089	17.3
195.307	51.81
195.526	37.7
195.744	68.5
195.963	50.38
196.181	322
196.399	1142.86
196.618	-1037.5
196.836	-3157.14
197.055	-27.27
197.273	23.04
197.491	46.96
197.71	60.85
197.928	94.98
198.146	77.93
198.365	-138.98
198.583	242.86
198.801	135.47
199.019	91.63
199.238	93.3
199.456	123.82
199.674	81.02
199.892	82.46
200.111	66.92
200.329	137.01
200.547	108.43
200.765	-26.74
200.983	39.86
201.202	-93.22
201.42	39.71
201.638	-1525
201.856	257.89
202.074	2933.33
202.292	5.88
202.51	167.39
202.728	137.5
202.946	-102.04
203.165	-185.71
203.383	155.81
203.601	-59.57
203.819	-60
204.037	-100
204.255	-56.61
204.473	-43.75
204.691	-45.16
204.909	-6.05
205.127	42.18
205.345	55
205.562	10.38
205.78	10.32
205.998	-1.85
206.216	53.51
206.434	198.21
206.652	317.31
206.87	458.93
207.088	112.24
207.306	225.81
207.523	114.89
207.741	95.35
207.959	78.95
208.177	47.6
208.395	29.74
208.612	36.39
208.83	39.88
209.048	38.07
209.266	41.48
209.483	20.24
209.701	33.22
209.919	14.63
210.136	24.63
210.354	24.21
210.572	13.59
210.79	31.55
211.007	19.66
211.225	24.95
211.442	59.19
211.66	65.16
211.878	53.16
212.095	-45.37
212.313	-59.54
212.53	-88.93
212.748	-89.24
212.966	-65.45
213.183	-53.95
213.401	-18.37
213.618	-44.43
213.836	-74.66
214.053	-95.26
214.271	-124.36
214.488	3.3
214.705	68.67
214.923	56.95
215.14	51.12
215.358	45.95
215.575	6.5
215.793	-26.12
216.01	-18.82
216.227	1.85
216.445	-18.68
216.662	11.46
216.879	23.69
217.097	-2.63
217.314	15.95
217.531	19.97
217.749	29.39
217.966	49.07
218.183	61.64
218.4	57.01
218.618	33.28
218.835	50.35
219.052	30.97
219.269	38.3
219.487	22.46
219.704	28.93
219.921	26
220.138	30.7
220.355	25.61
220.572	22.08
220.79	26.56
221.007	30.09
221.224	26.88
221.441	38.74
221.658	40.58
221.875	47.98
222.092	42.69
222.309	30.98
222.526	28.34
222.743	30.04
222.96	29.89
223.177	25.95
223.394	32.13
223.611	38.37
223.828	33.78
224.045	25.22
224.262	27.32
224.479	22.86
224.696	24.74
224.913	25.66
225.13	24.82
225.347	21.9
225.564	20.01
225.781	14.39
225.997	10.37
226.214	9.28
226.431	9.21
226.648	6.51
226.865	7.9
227.082	8.13
227.298	7.39
227.515	7.08
227.732	6.87
227.949	8.03
228.165	6.88
228.382	6.33
228.599	6.88
228.816	7.19
229.032	6.65
229.249	6.06
229.466	6.24
229.682	5.4
229.899	4.27
230.116	3.35
230.332	2.59
230.549	3.96
230.765	4.32
230.982	3.99
231.199	1.79
231.415	1.27
231.632	2.1
231.848	1.67
232.065	0.57
232.281	0.28
232.498	2.09
232.714	1.74
232.931	-0.45
233.147	-1.28
233.364	-1.72
233.58	1.91
233.797	3.06
234.013	2.21
234.23	2.11
234.446	2.33
234.662	5.29
234.879	3.75
235.095	5.25
235.312	6.36
235.528	8.15
235.744	7.59
235.961	5.84
236.177	5.73
236.393	6.96
236.61	9.38
236.826	9.09
237.042	7.51
237.258	8.62
237.475	9.05
237.691	8.84
237.907	8.23
238.123	5.16
238.339	5.1
238.556	6.33
238.772	5.39
238.988	5.13
239.204	8.54
239.42	9.55
239.636	8.75
239.853	5.84
240.069	4.73
240.285	3.59
240.501	5.51
240.717	5.45
240.933	4.46
241.149	4.86
241.365	3.6
241.581	2.66
241.797	2.94
242.013	2.71
242.229	3.74
242.445	4.64
242.661	4.34
242.877	4.77
243.093	4.79
243.309	5.26
243.525	4.58
243.741	5.62
243.957	6.53
244.173	5.47
244.388	6.69
244.604	7.09
244.82	6.61
245.036	7.14
245.252	6.37
245.468	6.38
245.683	6.42
245.899	6.75
246.115	6.29
246.331	5.81
246.547	5.99
246.762	5.87
246.978	5.78
247.194	5.76
247.409	5.78
247.625	6.04
247.841	5.73
248.057	5.54
248.272	5.35
248.488	5.3
248.703	5
248.919	5.34
249.135	5.07
249.35	4.99
249.566	5.43
249.782	5.51
249.997	5.38
250.213	5.68
250.428	5.36
250.644	5.09
250.859	5.11
251.075	5.45
251.29	4.96
251.506	5.02
251.721	5.05
251.937	4.57
252.152	4.5
252.368	4.13
252.583	4.55
252.798	4.44
253.014	4.61
253.229	5.29
253.445	5.82
253.66	6.52
253.875	6.26
254.091	4.83
254.306	5.03
254.521	5.85
254.737	5.59
254.952	4.65
255.167	6
255.383	6
255.598	6.41
255.813	5.17
256.028	3.97
256.244	4.95
256.459	5.49
256.674	4.94
256.889	4.4
257.104	5.39
257.32	6.09
257.535	5.19
257.75	5.33
257.965	4.58
258.18	4.86
258.395	5.54
258.61	5.32
258.826	5
259.041	4.64
259.256	4.74
259.471	4.52
259.686	4.07
259.901	3.96
260.116	4
260.331	4
260.546	3.99
260.761	3.54
260.976	3.11
261.191	3.5
261.406	3.65
261.621	3.15
261.836	2.61
262.05	2.49
262.265	2.76
262.48	2.64
262.695	1.62
262.91	1.66
263.125	1.34
263.34	1.79
263.555	2.15
263.769	1.68
263.984	1.32
264.199	1.82
264.414	1.2
264.629	1.38
264.843	1.27
265.058	1.51
265.273	1.18
265.488	1.16
265.702	1.05
265.917	0.1
266.132	1.06
266.346	1.56
266.561	1.63
266.776	2.89
266.99	3.08
267.205	2.87
267.42	3.4
267.634	3.3
267.849	3.7
268.063	4.14
268.278	4.97
268.492	4.42
268.707	4.57
268.922	5.06
269.136	4.54
269.351	4.2
269.565	4.15
269.78	4.35
269.994	4.83
270.209	4.73
270.423	4.48
270.637	3.77
270.852	4.15
271.066	4.39
271.281	3.94
271.495	4.35
271.709	3.77
271.924	4.18
272.138	3.68
272.353	3.26
272.567	3.27
272.781	3.22
272.996	3.24
273.21	3.14
273.424	2.71
273.638	2.69
273.853	2.47
274.067	3.09
274.281	3.19
274.495	3.47
274.71	3.78
274.924	3.74
275.138	3.72
275.352	4.23
275.566	4.05
275.781	4.3
275.995	4.38
276.209	4.17
276.423	4.28
276.637	4.12
276.851	4.18
277.065	4.2
277.279	4.21
277.493	4.12
277.707	3.42
277.921	3.04
278.135	3.16
278.349	3.16
278.563	3.55
278.777	3.26
278.991	2.63
279.205	3.13
279.419	2.84
279.633	2.82
279.847	2.61
280.061	2.72
280.275	3.6
280.489	3.23
280.703	3.31
280.917	2.87
281.131	2.85
281.344	3.43
281.558	3.23
281.772	3.36
281.986	3.32
282.2	3.3
282.414	3.25
282.627	2.94
282.841	2.55
283.055	2.38
283.269	2.57
283.482	2.75
283.696	2.46
283.91	2.48
284.123	2.45
284.337	2.5
284.551	2.67
284.764	3.02
284.978	3.25
285.192	3.66
285.405	3.89
285.619	3.49
285.833	3.56
286.046	3.53
286.26	3.3
286.473	3.3
286.687	3.36
286.9	3.7
287.114	3.8
287.327	3.69
287.541	3.57
287.754	3.24
287.968	3.93
288.181	3.63
288.395	3.9
288.608	3.64
288.822	3.7
289.035	3.84
289.248	3.42
289.462	3.25
289.675	3.15
289.889	3.51
290.102	3.53
290.315	3.36
290.529	3.49
290.742	3.55
290.955	4.16
291.169	4.07
291.382	3.89
291.595	3.95
291.808	3.85
292.022	3.73
292.235	3.17
292.448	3.59
292.661	3.33
292.875	3.84
293.088	3.5
293.301	3.1
293.514	2.92
293.727	3.05
293.94	2.88
294.153	2.69
294.367	2.6
294.58	2.73
294.793	2.38
295.006	2.51
295.219	2.11
295.432	2.3
295.645	2.48
295.858	2.5
296.071	2.36
296.284	2.7
296.497	3.13
296.71	3.33
296.923	3.56
297.136	3.65
297.349	3.99
297.562	4.05
297.775	4.24
297.988	4.38
298.201	4.52
298.414	4.77
298.626	4.73
298.839	4.66
299.052	4.87
299.265	4.59
299.478	4.71
299.691	4.14
299.903	3.93
300.116	3.34
300.329	3.17
300.542	3.33
300.755	3.14
300.967	2.99
301.18	2.86
301.393	2.55
301.605	3.09
301.818	2.73
302.031	2.8
302.243	3.08
302.456	3.64
302.669	3.64
302.881	3.48
303.094	3.57
303.307	3.34
303.519	3.67
303.732	4
303.944	3.77
304.157	4.33
304.37	4.56
304.582	4.29
304.795	4.34
305.007	4.14
305.22	4.59
305.432	4.34
305.645	4.69
305.857	4.79
306.069	4.82
306.282	4.77
306.494	4.72
306.707	4.95
306.919	5.13
307.132	4.82
307.344	5.24
307.556	5.32
307.769	5.64
307.981	5.79
308.193	5.39
308.406	5.28
308.618	5.41
308.83	5.53
309.043	5.38
309.255	5.56
309.467	5.72
309.679	5.76
309.892	5.35
310.104	5.55
310.316	5.64
310.528	5.64
310.74	5.32
310.953	5.51
311.165	5.36
311.377	5.23
311.589	5.12
311.801	5.52
312.013	5.54
312.225	5.96
312.437	5.72
312.649	5.64
312.862	5.61
313.074	5.76
313.286	5.56
313.498	5.67
313.71	5.99
313.922	6.16
314.134	5.29
314.346	4.87
314.558	4.52
314.77	4.85
314.982	4.2
315.193	4.01
315.405	4.64
315.617	4.84
315.829	5.05
316.041	4.52
316.253	4.27
316.465	4.91
316.677	5.37
316.888	5.42
317.1	5.1
317.312	5.73
317.524	6.07
317.736	5.43
317.947	5.19
318.159	5.43
318.371	5.79
318.583	6.19
318.794	5.88
319.006	5.82
319.218	6.57
319.43	6.91
319.641	7.16
319.853	7.37
320.064	7.57
320.276	8.21
320.488	7.8
320.699	8.2
320.911	8.01
321.123	8.27
321.334	7.85
321.546	7.51
321.757	7.21
321.969	7.29
322.18	7.44
322.392	7.64
322.603	7.68
322.815	8.01
323.026	7.99
323.238	8.28
323.449	8.44
323.661	9.36
323.872	9.21
324.083	9.5
324.295	9.54
324.506	9.5
324.718	9.68
324.929	9.74
325.14	9.89
325.352	10.03
325.563	10.46
325.774	10.35
325.986	10.34
326.197	10.82
326.408	10.73
326.62	11.07
326.831	10.85
327.042	11.28
327.253	11.18
327.464	11.25
327.676	11.23
327.887	11.21
328.098	11.39
328.309	11.38
328.52	11.16
328.732	11.58
328.943	11.29
329.154	11.95
329.365	11.64
329.576	11.6
329.787	11.92
329.998	12.67
330.209	12.89
330.42	12.68
330.631	12.6
330.842	12.98
331.053	12.87
331.264	13.3
331.475	13.42
331.686	13.62
331.897	13.57
332.108	13.01
332.319	12.18
332.53	11.82
332.741	12.5
332.952	12.73
333.163	12.71
333.374	13.07
333.585	13.04
333.795	13.13
334.006	13.15
334.217	13.43
334.428	13.59
334.639	14.34
334.849	14.17
335.06	13.82
335.271	13.46
335.482	13.58
335.692	13.25
335.903	13.08
336.114	13.07
336.325	13
336.535	12.88
336.746	13.02
336.957	12.83
337.167	12.99
337.378	12.9
337.589	13.18
337.799	12.83
338.01	13.33
338.22	13.53
338.431	13.37
338.642	13.66
338.852	13.76
339.063	13.41
339.273	13.05
339.484	13.09
339.694	13.33
339.905	12.97
340.115	12.9
340.326	12.62
340.536	12.39
340.746	12.42
340.957	11.79
341.167	11.8
341.378	12.23
341.588	12.05
341.799	11.96
342.009	11.68
342.219	11.92
342.43	12.04
342.64	11.87
342.85	11.89
343.061	11.84
343.271	12.13
343.481	12.19
343.691	12.02
343.902	12.03
344.112	12.36
344.322	12.56
344.532	12.2
344.743	12.37
344.953	12.12
345.163	12.23
345.373	11.92
345.583	11.99
345.793	11.88
346.004	11.76
346.214	11.88
346.424	11.78
346.634	11.49
346.844	11.74
347.054	11.68
347.264	12.1
347.474	11.62
347.684	12.08
347.894	11.99
348.104	11.8
348.314	11.75
348.524	11.81
348.734	11.44
348.944	11.44
349.154	11.56
349.364	11.22
349.574	10.84
349.784	11.14
349.994	10.82
350.204	10.52
350.413	10.48
350.623	10.36
350.833	10.35
351.043	10.39
351.253	10.66
351.463	10.3
351.672	10.27
351.882	10.65
352.092	10.7
352.302	10.76
352.511	11.02
352.721	11.29
352.931	11.54
353.141	11.37
353.35	11.32
353.56	11.46
353.77	11.38
353.979	11.74
354.189	11.45
354.399	11.22
354.608	11.31
354.818	11.44
355.027	11.55
355.237	11.71
355.447	12
355.656	12.19
355.866	11.99
356.075	12.37
356.285	12.09
356.494	11.97
356.704	12.03
356.913	12.17
357.123	12.01
357.332	12
357.542	11.92
357.751	12.07
357.96	12.29
358.17	12.27
358.379	12.25
358.589	12.29
358.798	12.39
359.007	12.64
359.217	12.46
359.426	12.35
359.635	12.33
359.845	12.27
360.054	12.23
360.263	11.95
360.472	11.9
360.682	12.17
360.891	12.26
361.1	12.21
361.309	12.23
361.519	12.16
361.728	12.28
361.937	12.02
362.146	11.78
362.355	11.64
362.564	11.62
362.774	11.76
362.983	11.39
363.192	11.4
363.401	11.63
363.61	11.5
363.819	11.66
364.028	11.6
364.237	11.7
364.446	11.92
364.655	11.75
364.864	11.76
365.073	11.53
365.282	11.54
365.491	11.4
365.7	11.18
365.909	11.13
366.118	11
366.327	10.98
366.536	11.04
366.745	10.96
366.954	11.07
367.162	10.97
367.371	10.89
367.58	11.05
367.789	10.87
367.998	10.93
368.207	10.63
368.415	10.77
368.624	10.71
368.833	10.56
369.042	10.55
369.25	10.39
369.459	10.36
369.668	10.58
369.877	10.26
370.085	10.39
370.294	10.08
370.503	10.18
370.711	10.02
370.92	10.23
371.129	10.4
371.337	10.48
371.546	10.44
371.754	10.61
371.963	10.58
372.171	10.66
372.38	10.93
372.589	10.97
372.797	11.28
373.006	11.14
373.214	10.96
373.423	10.91
373.631	10.77
373.84	10.8
374.048	10.68
374.256	10.63
374.465	10.63
374.673	10.29
374.882	10.43
375.09	10.22
375.298	10.48
375.507	10.24
375.715	10.33
375.923	10.47
376.132	10.7
376.34	10.59
376.548	10.68
376.757	10.5
376.965	10.61
377.173	10.55
377.381	10.56
377.59	10.33
377.798	10.5
378.006	10.36
378.214	10.21
378.423	9.82
378.631	9.7
378.839	9.52
379.047	9.6
379.255	9.25
379.463	8.94
379.671	8.85
379.879	8.79
380.088	8.7
380.296	8.62
380.504	8.63
380.712	8.8
380.92	8.95
381.128	9.05
381.336	8.88
381.544	9.08
381.752	9.17
381.96	9.13
382.168	9.14
382.376	9.16
382.584	9.25
382.791	9.13
382.999	9.05
383.207	8.73
383.415	8.61
383.623	8.7
383.831	8.76
384.039	8.93
384.247	9.15
384.454	9.2
384.662	9.01
384.87	8.58
385.078	8.52
385.285	8.55
385.493	8.85
385.701	8.76
385.909	8.54
386.116	8.55
386.324	8.62
386.532	8.2
386.739	8.07
386.947	8.18
387.155	8.42
387.362	8.34
387.57	8.32
387.778	8.52
387.985	8.56
388.193	8.69
388.4	8.51
388.608	8.23
388.816	8.28
389.023	8.08
389.231	7.82
389.438	7.78
389.646	7.92
389.853	8.11
390.061	7.86
390.268	7.74
390.475	7.64
390.683	7.75
390.89	7.79
391.098	7.83
391.305	7.64
391.512	7.78
391.72	7.61
391.927	7.51
392.135	7.23
392.342	6.99
392.549	6.9
392.756	7.17
392.964	6.86
393.171	6.91
393.378	7.01
393.586	7.09
393.793	7
394	7.12
394.207	7
394.414	7.01
394.622	7.07
394.829	7
395.036	6.8
395.243	6.66
395.45	6.41
395.657	5.99
395.864	6.14
396.072	6.23
396.279	6.01
396.486	6.11
396.693	6.04
396.9	6.04
397.107	5.89
397.314	5.71
397.521	5.86
397.728	6.02
397.935	6.14
398.142	6.06
398.349	5.83
398.556	5.94
398.763	5.88
398.97	6.03
399.177	5.95
399.383	5.99
399.59	6.19
399.797	6.25
400.004	6.3
400.211	6.19
400.418	6.12
400.625	6.4
400.831	6.28
401.038	6.2
401.245	5.9
401.452	6.06
401.658	6.16
401.865	6.13
402.072	6.09
402.279	6.07
402.485	6.17
402.692	6.19
402.899	5.77
403.105	5.74
403.312	5.71
403.519	5.67
403.725	5.54
403.932	5.48
404.138	5.37
404.345	5.34
404.552	5.37
404.758	5.46
404.965	5.44
405.171	5.58
405.378	5.6
405.584	5.7
405.791	5.85
405.997	5.85
406.204	5.93
406.41	5.81
406.617	6.01
406.823	5.77
407.029	5.78
407.236	5.93
407.442	6.1
407.649	6.12
407.855	6.13
408.061	6.16
408.268	5.96
408.474	5.9
408.68	5.9
408.887	5.91
409.093	5.84
409.299	5.66
409.505	5.45
409.712	5.25
409.918	5.09
410.124	4.98
410.33	4.77
410.537	5
410.743	5.03
410.949	5.04
411.155	4.82
411.361	4.94
411.567	4.87
411.773	4.88
411.98	4.99
412.186	5.23
412.392	5.24
412.598	5.33
412.804	5.38
413.01	5.3
413.216	5.37
413.422	5.25
413.628	5.14
413.834	5.12
414.04	5.16
414.246	5.31
414.452	5.25
414.658	5.23
414.864	5.32
415.07	5.02
415.275	4.89
415.481	4.9
415.687	4.96
415.893	5.04
416.099	5.2
416.305	5.08
416.511	4.84
416.716	4.84
416.922	4.74
417.128	4.7
417.334	4.81
417.539	4.82
417.745	4.88
417.951	4.93
418.157	4.86
418.362	4.78
418.568	4.85
418.774	4.89
418.979	4.8
419.185	4.88
419.391	4.83
419.596	4.77
419.802	4.7
420.008	4.58
420.213	4.64
420.419	4.55
420.624	4.54
420.83	4.56
421.035	4.52
421.241	4.54
421.446	4.44
421.652	4.37
421.857	4.32
422.063	4.39
422.268	4.43
422.474	4.33
422.679	4.49
422.885	4.46
423.09	4.45
423.295	4.49
423.501	4.48
423.706	4.62
423.911	4.68
424.117	4.65
424.322	4.68
424.527	4.67
424.733	4.71
424.938	4.6
425.143	4.69
425.349	4.65
425.554	4.52
425.759	4.6
425.964	4.6
426.169	4.57
426.375	4.62
426.58	4.62
426.785	4.59
426.99	4.52
427.195	4.53
427.4	4.51
427.605	4.44
427.811	4.57
428.016	4.46
428.221	4.34
428.426	4.39
428.631	4.33
428.836	4.32
429.041	4.41
429.246	4.47
429.451	4.59
429.656	4.39
429.861	4.34
430.066	4.32
430.271	4.28
430.476	4.18
430.681	4.11
430.886	4.24
431.09	4.26
431.295	4.23
431.5	4.24
431.705	4.15
431.91	4.28
432.115	4.35
432.32	4.19
432.524	4.21
432.729	4.44
432.934	4.58
433.139	4.53
433.343	4.52
433.548	4.45
433.753	4.38
433.958	4.5
434.162	4.46
434.367	4.56
434.572	4.68
434.776	4.77
434.981	4.52
435.186	4.42
435.39	4.32
435.595	4.37
435.799	4.4
436.004	4.29
436.209	4.11
436.413	4.11
436.618	4.04
436.822	4.03
437.027	3.94
437.231	4.05
437.436	4.05
437.64	4.2
437.845	4.14
438.049	4.18
438.253	4.27
438.458	4.37
438.662	4.39
438.867	4.46
439.071	4.45
439.275	4.5
439.48	4.56
439.684	4.54
439.888	4.5
440.093	4.42
440.297	4.37
440.501	4.31
440.706	4.28
440.91	4.24
441.114	4.18
441.318	4.21
441.523	4.18
441.727	4.05
441.931	3.98
442.135	4.02
442.339	4.11
442.543	4.1
442.748	4.09
442.952	4.19
443.156	4.15
443.36	4.17
443.564	4.21
443.768	4.3
443.972	4.32
444.176	4.36
444.38	4.33
444.584	4.34
444.788	4.4
444.992	4.48
445.196	4.37
445.4	4.4
445.604	4.38
445.808	4.22
446.012	4.14
446.216	4.11
446.42	4.05
446.624	4.14
446.828	4.09
447.032	4.09
447.235	4.07
447.439	4.07
447.643	4.08
447.847	4.06
448.051	4.19
448.254	4.17
448.458	4.28
448.662	4.34
448.866	4.18
449.069	4.11
449.273	4.09
449.477	4.19
449.681	4.15
449.884	4.15
450.088	4.11
450.292	4.14
450.495	4.12
450.699	4.05
450.902	4.04
451.106	4.08
451.31	4.09
451.513	4
451.717	3.93
451.92	3.95
452.124	3.96
452.327	4.12
452.531	4.03
452.734	4.02
452.938	4.05
453.141	4.04
453.345	4.01
453.548	4.14
453.752	4.26
453.955	4.22
454.158	4.24
454.362	4.25
454.565	4.11
454.769	4.17
454.972	4.3
455.175	4.2
455.379	4.27
455.582	4.36
455.785	4.3
455.988	4.16
456.192	4.12
456.395	4.12
456.598	4.08
456.801	4.02
457.005	3.95
457.208	3.87
457.411	3.94
457.614	3.91
457.817	3.9
458.021	3.82
458.224	3.92
458.427	3.93
458.63	3.96
458.833	3.89
459.036	3.95
459.239	3.94
459.442	3.88
459.645	3.94
459.848	3.97
460.051	3.91
460.254	3.88
460.457	3.88
460.66	3.93
460.863	3.96
461.066	4.05
461.269	3.99
461.472	4
461.675	4.05
461.878	4.06
462.081	3.99
462.284	3.94
462.486	4.06
462.689	4.05
462.892	4.01
463.095	3.97
463.298	3.9
463.5	3.88
463.703	3.85
463.906	3.83
464.109	3.78
464.311	3.85
464.514	4.04
464.717	3.95
464.92	3.86
465.122	3.91
465.325	3.98
465.528	3.96
465.73	4.09
465.933	4.13
466.135	4.21
466.338	4.21
466.541	4.13
466.743	4.08
466.946	4.17
467.148	4.16
467.351	3.97
467.553	3.94
467.756	3.91
467.958	3.9
468.161	3.9
468.363	3.88
468.566	3.88
468.768	3.89
468.971	3.89
469.173	3.95
469.375	4.06
469.578	4.22
469.78	4.09
469.983	4.12
470.185	4.14
470.387	4.07
470.59	4.06
470.792	4.03
470.994	4.1
471.196	4.16
471.399	4.01
471.601	3.95
471.803	4.03
472.005	4.21
472.208	4.27
472.41	4.33
472.612	4.36
472.814	4.36
473.016	4.4
473.218	4.37
473.421	4.24
473.623	4.23
473.825	4.26
474.027	4.16
474.229	4.04
474.431	3.98
474.633	3.83
474.835	3.77
475.037	3.74
475.239	3.7
475.441	3.63
475.643	3.66
475.845	3.75
476.047	3.65
476.249	3.73
476.451	3.67
476.653	3.71
476.855	3.76
477.057	3.86
477.258	3.9
477.46	3.97
477.662	4.11
477.864	4.1
478.066	4.16
478.268	4.24
478.469	4.33
478.671	4.39
478.873	4.42
479.075	4.48
479.276	4.44
479.478	4.44
479.68	4.37
479.882	4.27
480.083	4.29
480.285	4.24
480.487	4.25
480.688	4.09
480.89	4.17
481.091	4.18
481.293	4.14
481.495	4.14
481.696	4.11
481.898	4.13
482.099	4.18
482.301	4.16
482.502	4.16
482.704	4.15
482.905	4.16
483.107	4.1
483.308	4.08
483.51	4.11
483.711	4.11
483.913	4.11
484.114	4.14
484.315	4.16
484.517	4.18
484.718	4.19
484.92	4.21
485.121	4.21
485.322	4.25
485.524	4.26
485.725	4.24
485.926	4.26
486.127	4.28
486.329	4.25
486.53	4.24
486.731	4.27
486.932	4.25
487.134	4.24
487.335	4.27
487.536	4.26
487.737	4.27
487.938	4.31
488.139	4.29
488.341	4.28
488.542	4.28
488.743	4.29
488.944	4.24
489.145	4.22
489.346	4.24
489.547	4.19
489.748	4.23
489.949	4.28
490.15	4.26
490.351	4.25
490.552	4.25
490.753	4.25
490.954	4.19
491.155	4.22
491.356	4.26
491.557	4.27
491.758	4.29
491.959	4.27
492.159	4.21
492.36	4.18
492.561	4.2
492.762	4.22
492.963	4.23
493.164	4.28
493.364	4.23
493.565	4.19
493.766	4.17
493.967	4.16
494.167	4.16
494.368	4.18
494.569	4.23
494.769	4.31
494.97	4.32
495.171	4.34
495.371	4.25
495.572	4.35
495.773	4.33
495.973	4.31
496.174	4.32
496.375	4.34
496.575	4.23
496.776	4.28
496.976	4.3
497.177	4.28
497.377	4.23
497.578	4.31
497.778	4.25
497.979	4.29
498.179	4.3
498.38	4.33
498.58	4.26
498.78	4.31
498.981	4.24
499.181	4.16
499.382	4.09
499.582	4.11
499.782	4.07
499.983	4.08
500.183	4.09
500.383	4.11
500.584	4.16
500.784	4.27
500.984	4.28
501.184	4.25
501.385	4.31
501.585	4.48
501.785	4.52
501.985	4.61
502.185	4.62
502.386	4.68
502.586	4.55
502.786	4.42
502.986	4.47
503.186	4.52
503.386	4.63
503.586	4.57
503.786	4.61
503.987	4.64
504.187	4.62
504.387	4.73
504.587	4.68
504.787	4.79
504.987	4.86
505.187	4.86
505.387	4.87
505.587	4.99
505.786	5.08
505.986	5.03
506.186	5.16
506.386	5.24
506.586	5.26
506.786	5.38
506.986	5.3
507.186	5.28
507.386	5.26
507.585	5.33
507.785	5.15
507.985	5.14
508.185	5.09
508.384	5.09
508.584	5.11
508.784	5.1
508.984	5.17
509.183	5.26
509.383	5.35
509.583	5.46
509.782	5.51
509.982	5.61
510.182	5.65
510.381	5.67
510.581	5.63
510.781	5.7
510.98	5.72
511.18	5.74
511.379	5.84
511.579	5.95
511.778	5.96
511.978	5.99
512.177	6.11
512.377	6.18
512.576	6.25
512.776	6.21
512.975	6.08
513.175	6.16
513.374	6.23
513.573	6.22
513.773	6.25
513.972	6.33
514.172	6.29
514.371	6.26
514.57	6.3
514.77	6.51
514.969	6.66
515.168	6.91
515.367	6.99
515.567	6.92
515.766	7
515.965	7.08
516.164	7.14
516.364	7.3
516.563	7.49
516.762	7.56
516.961	7.61
517.16	7.74
517.359	7.77
517.559	7.86
517.758	8
517.957	8.04
518.156	8.06
518.355	8.18
518.554	8.3
518.753	8.38
518.952	8.49
519.151	8.43
519.35	8.49
519.549	8.58
519.748	8.53
519.947	8.61
520.146	8.75
520.345	8.88
520.544	8.87
520.743	8.92
520.942	8.88
521.141	8.88
521.339	9.17
521.538	9.27
521.737	9.39
521.936	9.59
522.135	9.68
522.333	9.8
522.532	9.86
522.731	10.03
522.93	10.19
523.129	10.38
523.327	10.56
523.526	10.6
523.725	10.67
523.923	10.73
524.122	10.9
524.321	11.05
524.519	11.13
524.718	11.22
524.917	11.31
525.115	11.3
525.314	11.42
525.512	11.51
525.711	11.59
525.909	11.75
526.108	11.86
526.306	11.94
526.505	12.05
526.703	12.13
526.902	12.24
527.1	12.3
527.299	12.42
527.497	12.48
527.696	12.54
527.894	12.67
528.092	12.7
528.291	12.78
528.489	12.86
528.688	12.88
528.886	13
529.084	13.1
529.283	13.2
529.481	13.3
529.679	13.43
529.877	13.55
530.076	13.63
530.274	13.74
530.472	13.9
530.67	14
530.869	14.18
531.067	14.29
531.265	14.43
531.463	14.59
531.661	14.7
531.859	14.78
532.057	14.86
532.255	14.95
532.454	15.08
532.652	15.11
532.85	15.19
533.048	15.31
533.246	15.39
533.444	15.46
533.642	15.52
533.84	15.65
534.038	15.78
534.236	15.91
534.434	16.07
534.632	16.16
534.83	16.26
535.027	16.45
535.225	16.54
535.423	16.69
535.621	16.79
535.819	17.05
536.017	17.13
536.215	17.19
536.412	17.31
536.61	17.39
536.808	17.54
537.006	17.7
537.203	17.79
537.401	17.95
537.599	18.04
537.797	18.28
537.994	18.27
538.192	18.45
538.39	18.58
538.587	18.72
538.785	18.93
538.983	19.08
539.18	19.27
539.378	19.51
539.575	19.62
539.773	19.8
539.97	19.91
540.168	20.09
540.366	20.21
540.563	20.38
540.761	20.52
540.958	20.6
541.155	20.72
541.353	20.79
541.55	20.84
541.748	20.95
541.945	21.05
542.143	21.12
542.34	21.25
542.537	21.36
542.735	21.44
542.932	21.56
543.129	21.66
543.327	21.89
543.524	22.2
543.721	22.54
543.919	22.88
544.116	23.22
544.313	23.52
544.51	23.83
544.708	24.21
544.905	24.6
545.102	24.89
545.299	25.24
545.496	25.39
545.693	25.55
545.891	25.59
546.088	25.53
546.285	25.56
546.482	25.55
546.679	25.46
546.876	25.35
547.073	25.2
547.27	25.16
547.467	25.05
547.664	24.99
547.861	24.82
548.058	24.71
548.255	24.7
548.452	24.56
548.649	24.56
548.846	24.45
549.043	24.35
549.24	24.34
549.437	24.22
549.633	24.11
549.83	23.95
550.027	23.9
550.224	23.78
550.421	23.81
550.618	23.77
550.814	23.76
551.011	23.8
551.208	23.88
551.405	23.94
551.601	23.86
551.798	23.89
551.995	23.91
552.191	23.75
552.388	23.64
552.585	23.58
552.781	23.6
552.978	23.56
553.175	23.63
553.371	23.52
553.568	23.41
553.764	23.57
553.961	23.59
554.157	23.66
554.354	23.8
554.55	24.05
554.747	24.05
554.943	24.07
555.14	24.16
555.336	24.02
555.533	24.11
555.729	24.15
555.926	24.02
556.122	24.07
556.318	24.05
556.515	24.1
556.711	24.11
556.907	24.15
557.104	24.18
557.3	24.12
557.496	24.14
557.693	24.17
557.889	24.12
558.085	24.23
558.281	24.34
558.478	24.39
558.674	24.48
558.87	24.51
559.066	24.53
559.262	24.5
559.459	24.61
559.655	24.79
559.851	24.92
560.047	25.15
560.243	25.25
560.439	25.11
560.635	25.1
560.831	25.02
561.027	25.11
561.223	25.09
561.419	25.06
561.615	25.16
561.811	25.2
562.007	25.04
562.203	24.95
562.399	24.99
562.595	25.08
562.791	25.21
562.987	25.22
563.183	25.17
563.379	25.22
563.575	25.38
563.771	25.39
563.966	25.28
564.162	25.35
564.358	25.44
564.554	25.33
564.75	25.38
564.945	25.34
565.141	25.26
565.337	25.22
565.533	25.29
565.728	25.37
565.924	25.16
566.12	25.27
566.315	25.36
566.511	25.35
566.707	25.3
566.902	25.39
567.098	25.46
567.293	25.69
567.489	25.68
567.684	25.83
567.88	25.9
568.076	26.11
568.271	26.19
568.467	26.22
568.662	26.22
568.858	26.41
569.053	26.32
569.248	26.21
569.444	26.19
569.639	26.19
569.835	26.04
570.03	25.92
570.225	25.85
570.421	25.73
570.616	25.82
570.812	25.83
571.007	25.81
571.202	25.9
571.397	25.96
571.593	26.02
571.788	26.18
571.983	26.32
572.178	26.35
572.374	26.35
572.569	26.4
572.764	26.34
572.959	26.39
573.154	26.45
573.35	26.47
573.545	26.5
573.74	26.41
573.935	26.29
574.13	26.2
574.325	26.23
574.52	26.28
574.715	26.42
574.91	26.4
575.105	26.46
575.3	26.62
575.495	26.6
575.69	26.77
575.885	26.94
576.08	27.08
576.275	27.28
576.47	27.39
576.665	27.61
576.86	27.55
577.055	27.74
577.25	27.9
577.444	27.93
577.639	28.16
577.834	28.19
578.029	28.33
578.224	28.57
578.418	28.69
578.613	28.86
578.808	28.88
579.003	29.2
579.197	29.33
579.392	29.39
579.587	29.42
579.781	29.5
579.976	29.45
580.171	29.41
580.365	29.32
580.56	29.13
580.755	29.05
580.949	29.02
581.144	28.84
581.338	28.71
581.533	28.67
581.727	28.81
581.922	28.74
582.116	28.91
582.311	28.85
582.505	29
582.7	29.22
582.894	29.23
583.089	29.42
583.283	29.57
583.478	29.61
583.672	29.64
583.866	29.48
584.061	29.52
584.255	29.44
584.449	29.53
584.644	29.45
584.838	29.42
585.032	29.68
585.226	29.53
585.421	29.56
585.615	29.7
585.809	29.87
586.003	29.97
586.198	30.12
586.392	30.27
586.586	30.51
586.78	30.56
586.974	30.54
587.168	30.41
587.363	30.57
587.557	30.47
587.751	30.38
587.945	30.28
588.139	30.17
588.333	30.02
588.527	29.93
588.721	29.86
588.915	29.75
589.109	29.69
589.303	29.6
589.497	29.54
589.691	29.55
589.885	29.63
590.079	29.7
590.273	29.75
590.466	29.85
590.66	29.97
590.854	29.97
591.048	30.15
591.242	30.33
591.436	30.52
591.629	30.69
591.823	30.89
592.017	31.05
592.211	31.23
592.404	31.29
592.598	31.21
592.792	31.18
592.986	31.17
593.179	31.13
593.373	30.94
593.567	30.86
593.76	30.65
593.954	30.5
594.147	30.33
594.341	30.21
594.535	30.21
594.728	29.99
594.922	29.82
595.115	29.73
595.309	29.7
595.502	29.64
595.696	29.54
595.889	29.52
596.083	29.45
596.276	29.39
596.47	29.31
596.663	29.23
596.856	29.41
597.05	29.49
597.243	29.65
597.437	29.69
597.63	29.92
597.823	30.12
598.017	30.23
598.21	30.29
598.403	30.58
598.596	30.8
598.79	31.02
598.983	31
599.176	31.13
599.369	30.98
599.563	30.93
599.756	30.88
599.949	30.69
600.142	30.48
600.335	30.57
600.528	30.26
600.722	30.04
600.915	29.86
601.108	29.95
601.301	29.82
601.494	29.92
601.687	29.96
601.88	29.91
602.073	29.81
602.266	29.91
602.459	29.72
602.652	29.81
602.845	29.8
603.038	29.83
603.231	29.81
603.424	29.87
603.617	29.66
603.809	29.58
604.002	29.47
604.195	29.65
604.388	29.7
604.581	29.84
604.774	29.83
604.966	29.82
605.159	29.87
605.352	29.79
605.545	29.78
605.737	29.9
605.93	30.14
606.123	30.2
606.316	30.14
606.508	30.24
606.701	30.38
606.894	30.58
607.086	30.64
607.279	30.9
607.471	31.16
607.664	31.36
607.857	31.82
608.049	32.15
608.242	32.86
608.434	33.74
608.627	34.62
608.819	35.53
609.012	36.6
609.204	37.88
609.397	39.21
609.589	40.92
609.782	42.59
609.974	44.34
610.166	46.02
610.359	47.62
610.551	49.05
610.743	50.12
610.936	51.24
611.128	52.13
611.32	52.81
611.513	53.27
611.705	53.04
611.897	52.88
612.09	52.34
612.282	51.67
612.474	50.81
612.666	49.92
612.858	49.09
613.051	48.12
613.243	47.28
613.435	46.4
613.627	45.4
613.819	44.95
614.011	44.26
614.203	43.61
614.395	42.78
614.588	42.21
614.78	41.57
614.972	40.96
615.164	40.41
615.356	39.51
615.548	38.77
615.74	38.27
615.932	37.43
616.124	36.81
616.315	36.14
616.507	35.61
616.699	34.94
616.891	34.52
617.083	34.01
617.275	33.63
617.467	33.33
617.659	33.35
617.85	32.93
618.042	32.9
618.234	32.72
618.426	32.39
618.618	32.49
618.809	32.42
619.001	32.3
619.193	32.42
619.384	32.27
619.576	32.42
619.768	32.15
619.959	32.18
620.151	32.09
620.343	32.2
620.534	32.32
620.726	32.45
620.917	32.52
621.109	32.47
621.301	32.51
621.492	32.88
621.684	32.88
621.875	33.08
622.067	33.06
622.258	33.18
622.45	33.24
622.641	33.38
622.832	33.24
623.024	33.47
623.215	33.62
623.407	33.56
623.598	33.4
623.789	33.59
623.981	33.55
624.172	33.75
624.363	33.83
624.555	33.81
624.746	33.82
624.937	33.81
625.129	33.72
625.32	33.74
625.511	33.86
625.702	33.82
625.893	33.63
626.085	33.54
626.276	33.61
626.467	33.47
626.658	33.43
626.849	33.37
627.04	33.36
627.231	33.44
627.422	33.35
627.614	33.3
627.805	33.29
627.996	33.37
628.187	33.59
628.378	33.52
628.569	33.66
628.76	33.68
628.951	33.8
629.142	34.08
629.332	34.25
629.523	34.52
629.714	34.78
629.905	35.08
630.096	35.21
630.287	35.33
630.478	35.27
630.669	35.34
630.859	35.21
631.05	35.19
631.241	35.08
631.432	34.98
631.623	34.46
631.813	34.05
632.004	33.84
632.195	33.48
632.385	33.09
632.576	32.84
632.767	32.69
632.957	32.57
633.148	32.5
633.339	32.07
633.529	31.89
633.72	31.93
633.91	31.77
634.101	31.52
634.292	31.45
634.482	31.41
634.673	31.68
634.863	31.4
635.054	31.47
635.244	31.29
635.435	31.32
635.625	31.15
635.815	30.99
636.006	31.16
636.196	31.22
636.387	31.34
636.577	31.29
636.767	31.01
636.958	31.22
637.148	31.09
637.338	31.14
637.529	31.07
637.719	30.89
637.909	31.1
638.099	31.08
638.29	31.1
638.48	30.88
638.67	30.9
638.86	30.91
639.05	30.66
639.241	30.75
639.431	30.67
639.621	30.77
639.811	31.11
640.001	31.15
640.191	31.41
640.381	31.27
640.571	31.48
640.761	31.54
640.951	31.48
641.141	31.47
641.331	31.48
641.521	31.53
641.711	31.45
641.901	31.05
642.091	31.18
642.281	30.75
642.471	30.55
642.661	30.7
642.851	30.56
643.041	30.75
643.231	31.02
643.42	30.94
643.61	30.9
643.8	31.15
643.99	31.36
644.18	31.21
644.369	31.38
644.559	31.7
644.749	31.51
644.939	31.56
645.128	31.32
645.318	31.39
645.508	31.63
645.697	31.53
645.887	31.45
646.076	31.56
646.266	31.68
646.456	31.57
646.645	31.51
646.835	31.54
647.024	31.54
647.214	31.61
647.403	31.44
647.593	31.27
647.782	31.27
647.972	31.43
648.161	31.46
648.351	31.19
648.54	31.48
648.73	31.59
648.919	31.55
649.108	31.66
649.298	31.88
649.487	31.94
649.677	32.07
649.866	32.08
650.055	32.04
650.244	32.12
650.434	32.4
650.623	32.28
650.812	32.38
651.002	32.39
651.191	32.39
651.38	32.46
651.569	32.45
651.758	32.29
651.947	32.4
652.137	32.09
652.326	32
652.515	31.81
652.704	31.79
652.893	31.48
653.082	31.46
653.271	31.44
653.46	31.05
653.649	31.1
653.838	31.15
654.027	31.22
654.216	31.57
654.405	31.57
654.594	31.57
654.783	31.54
654.972	31.64
655.161	31.74
655.35	31.89
655.539	32.13
655.728	31.98
655.916	32.04
656.105	31.85
656.294	31.71
656.483	31.6
656.672	31.6
656.86	31.71
657.049	31.83
657.238	31.55
657.427	31.49
657.615	31.52
657.804	31.58
657.993	31.38
658.181	31.35
658.37	31.34
658.559	31.5
658.747	31.65
658.936	31.47
659.125	31.31
659.313	31.42
659.502	31.47
659.69	31.35
659.879	31.36
660.067	31.41
660.256	31.36
660.444	31.31
660.633	31.19
660.821	31.08
661.01	31.26
661.198	31.47
661.387	31.79
661.575	31.91
661.763	32
661.952	32.31
662.14	32.38
662.328	32.61
662.517	32.7
662.705	32.79
662.893	32.93
663.082	32.76
663.27	32.72
663.458	32.57
663.646	32.45
663.834	32.18
664.023	32.13
664.211	32.21
664.399	32.2
664.587	32.41
664.775	32.43
664.963	32.31
665.152	32.38
665.34	32.39
665.528	32.66
665.716	32.88
665.904	33.25
666.092	33.23
666.28	33.37
666.468	33.31
666.656	33.15
666.844	33.02
667.032	33.15
667.22	33.23
667.408	33.1
667.596	32.45
667.784	32.2
667.971	32.37
668.159	31.91
668.347	31.67
668.535	31.86
668.723	31.92
668.911	32
669.098	31.99
669.286	32.21
669.474	32.2
669.662	32.32
669.849	32.07
670.037	31.97
670.225	32.15
670.413	32.4
670.6	32.37
670.788	32.17
670.976	32.17
671.163	32.07
671.351	32.09
671.538	32.35
671.726	32.66
671.913	32.79
672.101	32.5
672.289	32.61
672.476	32.6
672.664	32.94
672.851	32.91
673.039	33.02
673.226	32.94
673.413	32.56
673.601	32.14
673.788	31.83
673.976	31.95
674.163	32.06
674.35	31.76
674.538	31.32
674.725	31.39
674.912	31.48
675.1	31.42
675.287	31.55
675.474	31.49
675.662	31.95
675.849	31.99
676.036	32.07
676.223	32.07
676.411	32.41
676.598	32.73
676.785	32.2
676.972	32.35
677.159	32.26
677.346	32.39
677.533	32.5
677.721	32.3
677.908	32.49
678.095	32.56
678.282	32.41
678.469	32.14
678.656	31.77
678.843	32.02
679.03	32.11
679.217	32.06
679.404	31.92
679.591	31.85
679.778	31.77
679.964	31.88
680.151	31.66
680.338	31.74
680.525	32.03
680.712	32.23
680.899	32.26
681.086	31.99
681.272	32.08
681.459	31.65
681.646	31.68
681.833	31.8
682.02	31.63
682.206	31.66
682.393	31.87
682.58	31.8
682.766	31.98
682.953	31.8
683.14	31.96
683.326	31.85
683.513	32.45
683.7	32.38
683.886	32.22
684.073	32.06
684.259	32.06
684.446	32
684.632	32.09
684.819	32.04
685.005	32.14
685.192	32.26
685.378	32.34
685.565	32.4
685.751	32.48
685.938	32.62
686.124	32.72
686.31	33.24
686.497	33.43
686.683	33.25
686.87	33.14
687.056	33.08
687.242	32.82
687.429	33.06
687.615	32.96
687.801	32.99
687.987	33.15
688.174	33.11
688.36	32.8
688.546	32.68
688.732	32.72
688.918	33.01
689.105	33.21
689.291	33.45
689.477	33.36
689.663	33.53
689.849	33.55
690.035	33.5
690.221	33.34
690.407	33.19
690.593	33.09
690.779	33.14
690.965	32.86
691.151	32.72
691.337	32.44
691.523	32.41
691.709	32.4
691.895	32.68
692.081	32.74
692.267	32.89
692.453	33.28
692.639	33.32
692.825	33.47
693.011	33.45
693.196	33.29
693.382	33.7
693.568	33.6
693.754	33.23
693.94	33.1
694.125	32.71
694.311	32.92
694.497	32.86
694.682	32.78
694.868	32.38
695.054	32.81
695.239	32.82
695.425	32.68
695.611	32.86
695.796	32.8
695.982	32.4
696.168	32.63
696.353	32.55
696.539	32.24
696.724	32.08
696.91	32.24
697.095	31.87
697.281	31.63
697.466	31.47
697.652	31.37
697.837	31.63
698.023	31.76
698.208	31.61
698.393	31.53
698.579	31.59
698.764	31.89
698.949	31.91
699.135	31.83
699.32	32.09
699.505	32.23
699.691	32.17
699.876	31.91
700.061	32
700.246	32.15
700.432	32.24
700.617	32.33
700.802	32.38
700.987	32.75
701.172	32.79
701.358	32.79
701.543	33.04
701.728	33.45
701.913	33.51
702.098	33.73
702.283	33.95
702.468	34.08
702.653	34.04
702.838	34.01
703.023	34.03
703.208	34.79
703.393	34.76
703.578	35.16
703.763	35.04
703.948	35.7
704.133	36.2
704.318	36.48
704.503	36.46
704.688	36.94
704.873	37.41
705.057	37.39
705.242	37.27
705.427	38.1
705.612	37.76
705.797	38.01
705.981	38.53
706.166	38.75
706.351	38.96
706.536	39.87
706.72	40.1
706.905	40.35
707.09	40.55
707.274	40.62
707.459	40.6
707.644	41.08
707.828	41.44
708.013	40.97
708.197	40.55
708.382	40.66
708.567	40.53
708.751	40.15
708.936	39.6
709.12	39.41
709.305	39.48
709.489	38.99
709.673	38.48
709.858	37.92
710.042	37.95
710.227	38.12
710.411	37.8
710.596	37.51
710.78	37.97
710.964	37.9
711.149	38.3
711.333	38.42
711.517	38.69
711.702	39.07
711.886	39.21
712.07	39.14
712.254	38.69
712.438	38.8
712.623	38.88
712.807	37.83
712.991	37.81
713.175	36.72
713.359	36.37
713.544	36.09
713.728	35.5
713.912	35.29
714.096	34.88
714.28	34.5
714.464	34.06
714.648	33.51
714.832	33.96
715.016	33.64
715.2	33.88
715.384	33.37
715.568	33.1
715.752	32.56
715.936	32.32
716.12	31.88
716.304	31.81
716.488	32
716.671	32.06
716.855	31.39
717.039	31.54
717.223	31.37
717.407	31.38
717.59	31.26
717.774	31.58
717.958	31.58
718.142	31.42
718.325	31.56
718.509	31.2
718.693	31.01
718.877	30.97
719.06	30.37
719.244	30.55
719.428	30.82
719.611	30.94
719.795	31.02
719.978	31.48
720.162	32.42
720.345	33.1
720.529	32.88
720.713	32.99
720.896	33.43
721.08	33.73
721.263	33.77
721.446	33.66
721.63	33.47
721.813	33.62
721.997	32.73
722.18	32.62
722.364	32.48
722.547	31.87
722.73	31.93
722.914	32.12
723.097	32.28
723.28	32.29
723.464	32.13
723.647	32.44
723.83	32.58
724.013	33.04
724.197	32.81
724.38	32.76
724.563	33.49
724.746	33.53
724.929	33.43
725.112	33.6
725.296	33.83
725.479	33.98
725.662	33.54
725.845	33.12
726.028	33.05
726.211	33.11
726.394	32.58
726.577	32.35
726.76	32.52
726.943	31.97
727.126	31.82
727.309	32
727.492	31.77
727.675	31.82
727.858	31.57
728.041	31.76
728.224	32.06
728.407	32
728.589	32.2
728.772	31.41
728.955	32.4
729.138	32.94
729.321	32.41
729.503	32.54
729.686	32.92
729.869	33.46
730.052	33.03
730.234	32.71
730.417	32.71
730.6	32.84
730.782	33.72
730.965	33.51
731.148	33.22
731.33	32.84
731.513	32.93
731.695	32.77
731.878	32.22
732.061	33.13
732.243	33.29
732.426	33.48
732.608	33.56
732.791	33.65
732.973	33.14
733.156	32.71
733.338	33.27
733.52	33.47
733.703	33.52
733.885	34.1
734.068	33.93
734.25	34.07
734.432	33.99
734.615	33.76
734.797	33.65
734.979	33.35
735.162	33.44
735.344	33.37
735.526	33.09
735.708	32.98
735.891	33.15
736.073	32.56
736.255	32.39
736.437	32.5
736.619	33.11
736.802	32.62
736.984	33.11
737.166	33.34
737.348	33.36
737.53	33.44
737.712	33.54
737.894	33.65
738.076	32.89
738.258	33.03
738.44	32.66
738.622	32.54
738.804	32.89
738.986	33.11
739.168	32.88
739.35	32.28
739.532	32.42
739.714	32.57
739.896	31.98
740.078	33.01
740.259	33.3
740.441	33.65
740.623	33.35
740.805	33.4
740.987	33.43
741.168	34.03
741.35	34.56
741.532	34.51
741.714	34.59
741.895	34.51
742.077	35.07
742.259	34.65
742.44	34.78
742.622	34.96
742.804	35.08
742.985	35.31
743.167	34.69
743.348	35.32
743.53	35.24
743.711	35.25
743.893	36
744.075	35.03
744.256	34.71
744.438	35.21
744.619	35.12
744.8	35.01
744.982	33.93
745.163	34.75
745.345	34.09
745.526	34.62
745.707	35
745.889	35.08
746.07	35.15
746.252	35.27
746.433	35.02
746.614	34.95
746.795	35.33
746.977	36.58
747.158	36.46
747.339	37.12
747.52	36.57
747.702	35.82
747.883	35.48
748.064	35.48
748.245	36.43
748.426	36.22
748.607	36.64
748.788	35.88
748.97	35.74
749.151	35.44
749.332	35.32
749.513	35.52
749.694	36.98
749.875	36.97
750.056	37.47
750.237	36.21
750.418	37.28
750.599	36.57
750.78	37.38
750.96	36.68
751.141	37.09
751.322	36.41
751.503	36.2
751.684	35.06
751.865	35.51
752.046	34.92
752.226	35.15
752.407	33.34
752.588	33.61
752.769	33.54
752.949	34.29
753.13	33.81
753.311	33.89
753.492	33.89
753.672	34.34
753.853	33.68
754.034	34.43
754.214	34.74
754.395	34.98
754.575	35.51
754.756	35.34
754.937	35.11
755.117	35.52
755.298	35.45
755.478	35.53
755.659	35.06
755.839	35.77
756.02	35.27
756.2	34.81
756.381	35.07
756.561	33.73
756.741	33.53
756.922	33.12
757.102	32.64
757.283	33.61
757.463	33.07
757.643	32.63
757.823	31.72
758.004	31.68
758.184	32.23
758.364	31.71
758.545	32.97
758.725	32.9
758.905	32.41
759.085	31.87
759.265	31.28
759.446	31.5
759.626	31.29
759.806	31.52
759.986	31.03
760.166	30.51
760.346	30.29
760.526	30.11
760.706	30.11
760.886	30.41
761.066	30.83
761.246	30.62
761.426	30.17
761.606	30.98
761.786	30.53
761.966	30.69
762.146	31.27
762.326	32.03
762.506	31.85
762.686	31.6
762.866	31.62
763.046	31.63
763.225	31.55
763.405	31.64
763.585	31.26
763.765	31.26
763.945	31.66
764.124	31.14
764.304	31.09
764.484	30.92
764.664	30.83
764.843	31.04
765.023	31.09
765.203	31.47
765.382	31.75
765.562	32.12
765.741	32.52
765.921	32.6
766.101	32.6
766.28	32.53
766.46	32.71
766.639	33.16
766.819	32.78
766.998	32.99
767.178	32.7
767.357	33
767.537	33.04
767.716	33.8
767.896	34.21
768.075	34.84
768.254	35.01
768.434	35.37
768.613	36.43
768.792	36.99
768.972	36.9
769.151	37.83
769.33	38.44
769.51	39.25
769.689	38.55
769.868	38.44
770.047	38.73
770.226	38.3
770.406	38.31
770.585	37.22
770.764	37.96
770.943	37.92
771.122	36.64
771.301	36.49
771.48	35.51
771.66	35.75
771.839	35.7
772.018	36.35
772.197	37.66
772.376	39.05
772.555	39.38
772.734	39.31
772.913	38.6
773.092	39.29
773.271	39.56
773.449	39.34
773.628	40.03
773.807	39.26
773.986	37.89
774.165	36.95
774.344	35.8
774.523	36.08
774.701	36.11
774.88	37.3
775.059	36.65
775.238	36.64
775.417	36.6
775.595	36.33
775.774	35.93
775.953	36.22
776.131	36.87
776.31	36.88
776.489	35.07
776.667	33.83
776.846	33.43
777.025	33.16
777.203	33.01
777.382	34.21
777.56	33.55
777.739	35.18
777.917	36.43
778.096	35.17
778.274	35.38
778.453	35.99
778.631	36.56
778.81	37.27
778.988	38.45
779.166	39.18
779.345	38.1
779.523	38.22
779.702	37.27
779.88	35.57
780.058	36.47
780.237	35.86
780.415	36.11
780.593	34.63
780.771	34.66
780.95	33.4
781.128	32.47
781.306	33.11
781.484	32.3
781.662	32.48
781.841	33.2
782.019	33.71
782.197	32.62
782.375	33.01
782.553	33.37
782.731	33.23
782.909	33.93
783.087	35.52
783.265	34.42
783.443	35
783.621	35.6
783.799	35.64
783.977	35.07
784.155	35.3
784.333	35.28
784.511	37.53
784.689	38.31
784.867	38.46
785.045	36.72
785.223	37.71
785.4	38.25
785.578	37.87
785.756	37.5
785.934	37.03
786.112	38.76
786.289	38.48
786.467	36.86
786.645	35
786.823	34.13
787	34.15
787.178	33.65
787.356	32.76
787.533	32.76
787.711	31.93
787.889	31.76
788.066	30.88
788.244	32.29
788.421	32.46
788.599	32.89
788.776	33.49
788.954	32.97
789.131	33.34
789.309	33.86
789.486	33.81
789.664	33.75
789.841	33.64
790.019	33.21
790.196	31.32
790.373	31.62
790.551	31.82
790.728	30.82
790.906	30.64
791.083	30.32
791.26	30.85
791.437	29.84
791.615	31.73
791.792	31.52
791.969	31.35
792.146	33.25
792.324	32.86
792.501	32.75
792.678	33.34
792.855	34.63
793.032	35.06
793.209	35.34
793.387	36.32
793.564	34.55
793.741	36.26
793.918	36.14
794.095	34.31
794.272	35.7
794.449	34.47
794.626	36.7
794.803	35.95
794.98	35.46
795.157	34.65
795.334	34.97
795.511	35.79
795.688	36.46
795.864	36.6
796.041	36.77
796.218	34.5
796.395	35.64
796.572	33.27
796.749	33.83
796.925	34.25
797.102	34.17
797.279	33.55
797.456	34.21
797.632	33.46
797.809	33.79
797.986	34.28
798.162	35.78
798.339	35.54
798.516	36.81
798.692	36.53
798.869	36.33
799.046	36.39
799.222	36.35
799.399	36.51
799.575	35.34
799.752	35.45
799.928	35.43
800.105	35.18
800.281	36.52
800.458	36.26
800.634	35.9
800.811	35.16
800.987	34.86
801.163	35.46
801.34	33.31
801.516	33.79
801.692	32.81
801.869	33.42
802.045	33.69
802.221	32.62
802.398	31.33
802.574	29.48
802.75	30.09
802.926	31.5
803.103	30
803.279	29.99
803.455	30.06
803.631	31.43
803.807	30.91
803.983	32.41
804.16	31.67
804.336	31.98
804.512	33.29
804.688	33.42
804.864	31.73
805.04	33.08
805.216	32.84
805.392	31.56
805.568	30.18
805.744	29.13
805.92	26.44
806.096	25.74
806.272	26.13
806.448	27.71
806.623	26.74
806.799	26.14
806.975	25.07
807.151	27.04
807.327	27.66
807.503	28.56
807.678	28.9
807.854	30.03
808.03	29.99
808.206	30.92
808.381	31.02
808.557	31.35
808.733	31.82
808.908	32.13
809.084	31.78
809.26	33.35
809.435	34.59
809.611	34.49
809.787	33.34
809.962	34.54
810.138	33.02
810.313	32.02
810.489	32.59
810.664	33.81
810.84	34.02
811.015	33
811.191	31.37
811.366	29.87
811.542	31.34
811.717	32.17
811.892	33
812.068	33.02
812.243	32.3
812.419	31.81
812.594	30.97
812.769	30.45
812.944	31.4
813.12	31.53
813.295	31.55
813.47	30.87
813.645	31.49
813.821	29.92
813.996	30.99
814.171	31.46
814.346	31.96
814.521	32.48
814.697	31.44
814.872	31.2
815.047	31.46
815.222	31.54
815.397	31.48
815.572	30.78
815.747	30.61
815.922	29.6
816.097	29.52
816.272	30.71
816.447	29.32
816.622	31.73
816.797	32.38
816.972	33.05
817.147	34
817.322	33.5
817.496	35.2
817.671	34.86
817.846	35.28
818.021	34.15
818.196	31.12
818.371	30.91
818.545	30.23
818.72	30.63
818.895	29.72
819.069	29.63
819.244	28.7
819.419	26.74
819.594	27.62
819.768	28.61
819.943	29.71
820.117	30.56
820.292	31.41
820.467	30.57
820.641	29.81
820.816	29.61
820.99	29
821.165	29.25
821.339	29.28
821.514	29.53
821.688	29.25
821.863	29.29
822.037	28.97
822.212	28.58
822.386	28.99
822.56	28.84
822.735	28.98
822.909	29.15
823.084	29.29
823.258	29.19
823.432	28.91
823.606	28.77
823.781	28.67
823.955	28.89
824.129	29.46
824.303	28.95
824.478	29.24
824.652	29.28
824.826	28.62
825	28.34
825.174	28.7
825.348	28.76
825.523	28.59
825.697	28.67
825.871	28.62
826.045	28.44
826.219	29.13
826.393	29.45
826.567	29.6
826.741	30.15
826.915	30.38
827.089	30.12
827.263	29.97
827.437	29.99
827.611	30.02
827.784	30.16
827.958	29.48
828.132	29.39
828.306	28.91
828.48	28.59
828.654	28.75
828.827	28.71
829.001	29.44
829.175	30.09
829.349	30.21
829.522	29.61
829.696	29.41
829.87	29.62
830.044	29.64
830.217	30.34
830.391	29.64
830.565	30.58
830.738	29.39
830.912	27.81
831.085	27.37
831.259	28.64
831.432	29.93
831.606	31.47
831.779	31.68
831.953	30.43
832.126	31.26
832.3	31.94
832.473	30.89
832.647	32.1
832.82	32.69
832.994	32.89
833.167	31.61
833.34	31.28
833.514	30.18
833.687	30.88
833.86	31.86
834.034	31.39
834.207	31.78
834.38	31.35
834.553	31.81
834.727	32.29
834.9	30.72
835.073	30.83
835.246	30.76
835.419	31.05
835.593	31.04
835.766	30.68
835.939	30.51
836.112	29.82
836.285	29.69
836.458	29.08
836.631	28.06
836.804	30.5
836.977	31.79
837.15	32.4
837.323	33.45
837.496	31.67
837.669	31.28
837.842	30.98
838.015	31.81
838.188	32.8
838.361	31.72
838.533	33.57
838.706	35.24
838.879	35.2
839.052	34.89
839.225	34.72
839.398	37.38
839.57	38.79
839.743	39.99
839.916	40.52
840.088	41.85
840.261	42.67
840.434	40.74
840.607	37.62
840.779	37.2
840.952	35.78
841.124	34.99
841.297	35.19
841.47	34.06
841.642	35.18
841.815	36.77
841.987	35.38
842.16	34.68
842.332	34.51
842.505	35.79
842.677	35.57
842.85	36.64
843.022	40.74
843.194	41.73
843.367	42.66
843.539	39.74
843.712	37.38
843.884	42.06
844.056	42.45
844.229	44.51
844.401	45.29
844.573	46.48
844.745	48.46
844.918	46.27
845.09	42.54
845.262	41.05
845.434	39.9
845.606	37.98
845.779	33.67
845.951	33.24
846.123	32.26
846.295	34.3
846.467	36.43
846.639	35.79
846.811	35.47
846.983	38.29
847.155	38.16
847.327	40.82
847.499	42.45
847.671	38.78
847.843	38.53
848.015	40.82
848.187	37.56
848.359	33.16
848.531	36.84
848.703	34.19
848.875	33.93
849.047	34.19
849.218	31.54
849.39	30.45
849.562	33.4
849.734	34.03
849.905	31.94
850.077	36.7
850.249	40.11
850.421	36.03
850.592	37.48
850.764	37.68
850.936	41.72
851.107	43.34
851.279	40.12
851.451	40.59
851.622	38.21
851.794	39.56
851.965	36.91
852.137	36.9
852.308	38.65
852.48	35.59
852.651	37.21
852.823	35.77
852.994	35.77
853.166	39.6
853.337	40.38
853.509	41.43
853.68	41.77
853.851	42.22
854.023	42.21
854.194	42.6
854.365	44.58
854.537	40.8
854.708	38.56
854.879	37.27
855.05	39.64
855.222	38.32
855.393	39.99
855.564	41.42
855.735	41.67
855.906	40.29
856.078	36.14
856.249	34.77
856.42	34.29
856.591	36.09
856.762	37.66
856.933	31.19
857.104	30.16
857.275	28.41
857.446	26.01
857.617	23.07
857.788	26.59
857.959	28.6
858.13	31.11
858.301	32.89
858.472	29.97
858.643	29.89
858.814	37.45
858.985	38.58
859.155	38.1
859.326	34.84
859.497	34.24
859.668	30.63
859.839	32.3
860.009	32.42
860.18	30.09
860.351	28.77
860.522	32.99
860.692	30.89
860.863	26.2
861.034	30.27
861.204	33.28
861.375	33.84
861.546	36.25
861.716	33.03
861.887	35.81
862.057	37.92
862.228	39.68
862.398	35.16
862.569	37.45
862.739	44.2
862.91	41.88
863.08	40.26
863.251	40.79
863.421	38.47
863.592	41.73
863.762	35.74
863.932	32.15
864.103	36.92
864.273	36.97
864.443	34.54
864.614	30.65
864.784	29.38
864.954	38.15
865.125	45.97
865.295	46.84
865.465	47
865.635	49.96
865.805	56.1
865.976	51.27
866.146	50.13
866.316	44.75
866.486	45.12
866.656	47.41
866.826	45.09
866.996	39.98
867.166	38.03
867.336	37.84
867.506	38.96
867.676	37.92
867.846	36.22
868.016	38.74
868.186	43.33
868.356	42.86
868.526	42.24
868.696	35.53
868.866	33.32
869.036	32.19
869.206	31.54
869.376	31.04
869.545	27.74
869.715	27.52
869.885	24.9
870.055	23.9
870.224	24.93
870.394	21.93
870.564	25.91
870.734	30.37
870.903	35.24
871.073	31.18
871.243	28.06
871.412	31.01
871.582	34.63
871.751	36.82
871.921	40.42
872.091	37.47
872.26	39.12
872.43	42.34
872.599	33.98
872.769	28.05
872.938	29.13
873.108	33.66
873.277	37.63
873.446	37.72
873.616	34.84
873.785	39.17
873.955	35.58
874.124	37.34
874.293	33.57
874.463	40.51
874.632	44.14
874.801	53.47
874.971	47.35
875.14	44.13
875.309	43.27
875.478	48.17
875.647	40.18
875.817	41.19
875.986	39.41
876.155	35.43
876.324	32.63
876.493	32.14
876.662	26.72
876.831	28.26
877	28.52
877.17	27.83
877.339	22.75
877.508	25.43
877.677	29.7
877.846	25.46
878.015	34.38
878.184	33.68
878.352	33.76
878.521	33.73
878.69	33.67
878.859	34.87
879.028	34.8
879.197	36.33
879.366	36.32
879.534	34.1
879.703	33.71
879.872	29.44
880.041	26.91
880.21	25.52
880.378	25.53
880.547	27.62
880.716	26.96
880.884	26.71
881.053	27.35
881.222	27.47
881.39	26.82
881.559	27.77
881.727	28.27
881.896	28.44
882.065	28.24
882.233	28.28
882.402	27.49
882.57	28.05
882.739	27.64
882.907	27.17
883.076	26.19
883.244	26.36
883.412	26.54
883.581	26.25
883.749	27.1
883.918	27.93
884.086	27.39
884.254	26.54
884.423	25.35
884.591	25.98
884.759	26.78
884.927	27.72
885.096	29.13
885.264	29.23
885.432	30.4
885.6	30.5
885.769	30.67
885.937	32.44
886.105	34.75
886.273	37.17
886.441	39.53
886.609	39.19
886.777	39.05
886.945	38.12
887.113	36.25
887.281	34.77
887.449	34.51
887.617	35.1
887.785	34.51
887.953	37.83
888.121	38.8
888.289	37.52
888.457	38.59
888.625	41.43
888.793	42.51
888.961	47.45
889.129	51.73
889.296	51.81
889.464	51.84
889.632	52.88
889.8	51.23
889.967	48.52
890.135	48.96
