Data from 2938722__Reflection_03.txt Node
Date: Tue Mar 17 10:37:14 EDT 2015
User: robert
Spectrometer: USB4E03002
Autoset integration time: false
Trigger mode: 4
Integration Time (sec): 1.000000E-1
Scans to average: 10
Electric dark correction enabled: false
Nonlinearity correction enabled: false
Boxcar width: 5
Stray light correction enabled: false
XAxis mode: Wavelengths
Stop averaging: false
Number of Pixels in Spectrum: 3648
>>>>>Begin Spectral Data<<<<<
177.575	352.13
177.794	634.48
178.014	1121.21
178.233	-442.66
178.452	-340.24
178.672	-1111.76
178.891	-321.71
179.11	-220.87
179.33	-81.86
179.549	-530.56
179.768	-137.3
179.987	-390.24
180.207	-157.84
180.426	2025
180.645	264.59
180.864	471.43
181.084	1650
181.303	-1723.64
181.522	-585.29
181.741	2328.26
181.96	-633.13
182.179	-619.13
182.398	-654.45
182.618	-9214.29
182.837	-1721.54
183.056	990.48
183.275	509.9
183.494	1026.03
183.713	272
183.932	270.39
184.151	405.44
184.37	135.33
184.589	92.49
184.808	61.51
185.027	93.46
185.246	116.22
185.465	79.94
185.684	57.14
185.903	74.69
186.122	40.05
186.341	25.34
186.56	44.55
186.779	90.05
186.998	99.23
187.216	-108.85
187.435	-529.41
187.654	212.77
187.873	635.56
188.092	1035.48
188.311	-1825
188.53	-550.62
188.748	-160.48
188.967	-134.14
189.186	-252.24
189.405	-995.45
189.623	596
189.842	240
190.061	272.83
190.28	390.6
190.498	348.99
190.717	300.74
190.936	207.54
191.154	188.55
191.373	149.64
191.592	132.93
191.81	140.33
192.029	143.46
192.248	131.84
192.466	125.13
192.685	128.6
192.904	142.95
193.122	162.15
193.341	191.74
193.559	212.2
193.778	407.95
193.996	395.45
194.215	465.54
194.433	290.44
194.652	383.33
194.87	592.95
195.089	336.69
195.307	219.1
195.526	235
195.744	256.84
195.963	280
196.181	314.72
196.399	307.69
196.618	281.66
196.836	647.87
197.055	468.46
197.273	283.57
197.491	433.33
197.71	2891.67
197.928	860
198.146	1161.9
198.365	373.1
198.583	551.41
198.801	395.33
199.019	637.7
199.238	324.3
199.456	271.54
199.674	688.04
199.892	302.47
200.111	432.96
200.329	429.67
200.547	202.62
200.765	220.9
200.983	172.41
201.202	190.83
201.42	169.62
201.638	136.01
201.856	136.36
202.074	108.94
202.292	268.48
202.51	214.61
202.728	300
202.946	-896.3
203.165	-4140
203.383	13900
203.601	602.3
203.819	1669.23
204.037	-5000
204.255	-635.96
204.473	997.3
204.691	301.38
204.909	233.1
205.127	201.42
205.345	126.53
205.562	312.43
205.78	290.7
205.998	575.28
206.216	433.98
206.434	2382.35
206.652	508.54
206.87	-721.95
207.088	1438.24
207.306	355.62
207.523	-5036.36
207.741	-5530
207.959	381.94
208.177	226.9
208.395	166.35
208.612	251.14
208.83	138.41
209.048	204.03
209.266	331.19
209.483	316.67
209.701	507.02
209.919	117.28
210.136	143.97
210.354	160.11
210.572	151.45
210.79	241.79
211.007	174.13
211.225	339.91
211.442	202.84
211.66	150.83
211.878	178.69
212.095	157.01
212.313	171.5
212.53	124.07
212.748	106.35
212.966	110.8
213.183	112.26
213.401	108.77
213.618	102.17
213.836	99.61
214.053	102.95
214.271	80.45
214.488	95.05
214.705	68.11
214.923	92.25
215.14	179.7
215.358	148.29
215.575	141.77
215.793	133.33
216.01	58.31
216.227	39.66
216.445	22.88
216.662	54.17
216.879	58.26
217.097	61.67
217.314	83.33
217.531	75.38
217.749	64.79
217.966	80.48
218.183	74.94
218.4	117.37
218.618	109.04
218.835	129.97
219.052	101.36
219.269	90.16
219.487	100.88
219.704	87.43
219.921	96.35
220.138	114.05
220.355	60.23
220.572	65.16
220.79	38.24
221.007	42.98
221.224	23.16
221.441	42.21
221.658	45.51
221.875	50.52
222.092	43.52
222.309	38.21
222.526	33.76
222.743	46.24
222.96	45.67
223.177	49.67
223.394	48.71
223.611	48.41
223.828	47.86
224.045	44.81
224.262	39.14
224.479	41.39
224.696	37.83
224.913	33.73
225.13	26.53
225.347	21.67
225.564	21.36
225.781	21.56
225.997	21.47
226.214	19.65
226.431	16.46
226.648	15.78
226.865	11.08
227.082	11.65
227.298	9.94
227.515	11.02
227.732	9.28
227.949	7.92
228.165	7.42
228.382	6.14
228.599	5.39
228.816	6.05
229.032	4.46
229.249	4.75
229.466	4.88
229.682	5.25
229.899	5.24
230.116	6.24
230.332	6.54
230.549	6.04
230.765	7.66
230.982	7.07
231.199	7.56
231.415	9.12
231.632	7.65
231.848	7.22
232.065	8.18
232.281	6.28
232.498	6.05
232.714	8.37
232.931	8.49
233.147	6.22
233.364	8.73
233.58	7.59
233.797	8.63
234.013	9.69
234.23	9.51
234.446	8.94
234.662	9.12
234.879	6.98
235.095	5.02
235.312	5.42
235.528	6.2
235.744	3.85
235.961	4.05
236.177	2.4
236.393	4.74
236.61	4.96
236.826	5.46
237.042	6.13
237.258	7.76
237.475	6.99
237.691	5.41
237.907	3.94
238.123	4.43
238.339	4.02
238.556	5.52
238.772	4.7
238.988	2.72
239.204	2.4
239.42	2.72
239.636	2.96
239.853	2.37
240.069	3.2
240.285	4.3
240.501	3.13
240.717	2.58
240.933	2.61
241.149	2
241.365	2.98
241.581	3.84
241.797	3.73
242.013	3.78
242.229	3.97
242.445	4.24
242.661	4.4
242.877	5.57
243.093	6.18
243.309	5.5
243.525	5.78
243.741	6.09
243.957	6.02
244.173	5.97
244.388	5.57
244.604	5.8
244.82	5.56
245.036	5.01
245.252	5.01
245.468	5.06
245.683	5.69
245.899	5.48
246.115	5.54
246.331	5
246.547	5.28
246.762	5.35
246.978	5.37
247.194	5.56
247.409	6.03
247.625	5.71
247.841	5.39
248.057	5.17
248.272	5.24
248.488	4.89
248.703	4.79
248.919	4.54
249.135	4.32
249.35	3.94
249.566	3.02
249.782	1.61
249.997	1.81
250.213	1.55
250.428	1.08
250.644	0.94
250.859	1.25
251.075	2.03
251.29	2.43
251.506	3.3
251.721	4.09
251.937	4.63
252.152	5.41
252.368	4.8
252.583	5.42
252.798	5.66
253.014	5.28
253.229	5.91
253.445	5
253.66	5.41
253.875	5.1
254.091	4.41
254.306	4.22
254.521	3.36
254.737	3.48
254.952	2.67
255.167	3.61
255.383	4.33
255.598	3.04
255.813	3.37
256.028	3.41
256.244	3.61
256.459	3.74
256.674	4.03
256.889	3.88
257.104	4.75
257.32	4.6
257.535	4.09
257.75	3.55
257.965	4.17
258.18	4.48
258.395	4.38
258.61	4.35
258.826	4.34
259.041	4.3
259.256	4.82
259.471	4.4
259.686	4.32
259.901	4.33
260.116	4.75
260.331	4.59
260.546	4.6
260.761	4.39
260.976	4.2
261.191	4.49
261.406	4.28
261.621	4.01
261.836	4.18
262.05	4.51
262.265	4.07
262.48	3.74
262.695	3.59
262.91	3.71
263.125	3.47
263.34	3.45
263.555	3.3
263.769	3.66
263.984	3.12
264.199	3.44
264.414	3.48
264.629	4.31
264.843	4.21
265.058	4.4
265.273	4.57
265.488	5.16
265.702	5.32
265.917	4.61
266.132	4.93
266.346	5.59
266.561	5.1
266.776	5.3
266.99	4.73
267.205	4.39
267.42	4.32
267.634	3.61
267.849	3.32
268.063	3.05
268.278	3.47
268.492	2.9
268.707	2.72
268.922	2.9
269.136	3.04
269.351	3.45
269.565	4.07
269.78	3.28
269.994	3.57
270.209	3.38
270.423	3.85
270.637	3.42
270.852	3.63
271.066	3.91
271.281	3.86
271.495	3.76
271.709	3.73
271.924	3.7
272.138	4
272.353	3.85
272.567	4.33
272.781	4.1
272.996	4.52
273.21	4.25
273.424	4.42
273.638	4.16
273.853	3.61
274.067	3.88
274.281	3.49
274.495	3.45
274.71	3.44
274.924	2.84
275.138	2.59
275.352	2.4
275.566	2.6
275.781	1.78
275.995	1.73
276.209	1.57
276.423	1.25
276.637	1.81
276.851	2.51
277.065	3.13
277.279	3
277.493	3.16
277.707	3.19
277.921	3.12
278.135	2.94
278.349	3.37
278.563	3.61
278.777	3.71
278.991	3.58
279.205	3.4
279.419	3
279.633	3.29
279.847	3.65
280.061	3.49
280.275	4.21
280.489	4.65
280.703	4.3
280.917	4.62
281.131	4.74
281.344	4.58
281.558	4.44
281.772	4.8
281.986	4.61
282.2	4.31
282.414	4.41
282.627	4.44
282.841	4.44
283.055	4.36
283.269	4.15
283.482	3.91
283.696	3.79
283.91	3.52
284.123	3.39
284.337	3.41
284.551	3.38
284.764	3.37
284.978	3.04
285.192	3.04
285.405	3.24
285.619	3.47
285.833	3.51
286.046	3.48
286.26	3.64
286.473	3.57
286.687	4.06
286.9	4.13
287.114	4.25
287.327	4.43
287.541	4.02
287.754	4.02
287.968	3.56
288.181	3.64
288.395	4.12
288.608	4.38
288.822	4.6
289.035	4.26
289.248	4.41
289.462	4.2
289.675	3.87
289.889	4.42
290.102	4.23
290.315	4.37
290.529	4.29
290.742	3.92
290.955	3.65
291.169	3.28
291.382	3.31
291.595	3.53
291.808	3.5
292.022	3.64
292.235	3.53
292.448	3.99
292.661	4.33
292.875	4.83
293.088	5.26
293.301	5.23
293.514	5.58
293.727	5.58
293.94	5.48
294.153	5.5
294.367	5.66
294.58	5.66
294.793	5.6
295.006	5.75
295.219	5.48
295.432	5.28
295.645	5.24
295.858	5.42
296.071	5.26
296.284	5.09
296.497	5.2
296.71	5.29
296.923	5.36
297.136	5.45
297.349	5.11
297.562	5.04
297.775	5.15
297.988	5.24
298.201	5.06
298.414	5.11
298.626	5.05
298.839	5.24
299.052	5.14
299.265	5.19
299.478	5.08
299.691	5.53
299.903	5.78
300.116	5.66
300.329	5.53
300.542	5.68
300.755	6
300.967	6.21
301.18	6
301.393	6.03
301.605	5.66
301.818	5.61
302.031	5.42
302.243	5.4
302.456	5.72
302.669	6.41
302.881	6.43
303.094	6.56
303.307	6.65
303.519	6.39
303.732	6.62
303.944	6.8
304.157	6.96
304.37	7.32
304.582	7.48
304.795	7.22
305.007	6.82
305.22	7.11
305.432	6.97
305.645	7.07
305.857	8.03
306.069	7.86
306.282	8.02
306.494	7.84
306.707	7.72
306.919	7.6
307.132	7.38
307.344	7.58
307.556	7.52
307.769	7.38
307.981	7.13
308.193	6.62
308.406	6.5
308.618	6.12
308.83	6.31
309.043	6.27
309.255	6.33
309.467	6.68
309.679	6.57
309.892	6.01
310.104	6.16
310.316	6.49
310.528	6.39
310.74	6.53
310.953	7.02
311.165	7
311.377	7.03
311.589	7.2
311.801	7.32
312.013	7.23
312.225	7.67
312.437	7.88
312.649	7.58
312.862	7.73
313.074	7.55
313.286	7.43
313.498	7.78
313.71	7.65
313.922	7.61
314.134	7.4
314.346	7.66
314.558	7.71
314.77	7.75
314.982	8.02
315.193	7.96
315.405	8.38
315.617	8.46
315.829	8.28
316.041	8.43
316.253	8.57
316.465	8.84
316.677	8.51
316.888	8.63
317.1	8.3
317.312	8.58
317.524	8.8
317.736	8.58
317.947	8.82
318.159	9.06
318.371	9.24
318.583	8.91
318.794	9.19
319.006	9.68
319.218	9.84
319.43	9.86
319.641	9.45
319.853	9.59
320.064	9.5
320.276	9.47
320.488	9.01
320.699	8.77
320.911	8.97
321.123	8.98
321.334	8.74
321.546	8.51
321.757	8.49
321.969	9
322.18	8.7
322.392	8.93
322.603	8.44
322.815	8.39
323.026	8.41
323.238	8.5
323.449	7.92
323.661	8.07
323.872	7.93
324.083	7.94
324.295	7.93
324.506	8.2
324.718	8.25
324.929	8.84
325.14	9.05
325.352	9.29
325.563	8.99
325.774	9.14
325.986	9.2
326.197	9.37
326.408	9.45
326.62	9.31
326.831	9.3
327.042	9.27
327.253	9.11
327.464	8.9
327.676	8.77
327.887	8.87
328.098	9.17
328.309	9
328.52	8.86
328.732	9.07
328.943	9.05
329.154	9.35
329.365	9.94
329.576	10.12
329.787	10.29
329.998	10.24
330.209	10.41
330.42	10.46
330.631	10.57
330.842	10.69
331.053	10.34
331.264	10.9
331.475	10.87
331.686	10.53
331.897	10.57
332.108	10.83
332.319	10.77
332.53	10.64
332.741	10.33
332.952	10.46
333.163	9.89
333.374	10.26
333.585	9.65
333.795	9.5
334.006	8.9
334.217	8.72
334.428	8.82
334.639	8.93
334.849	8.91
335.06	8.88
335.271	8.68
335.482	9.14
335.692	9.04
335.903	9.08
336.114	8.78
336.325	9.34
336.535	9.28
336.746	9.08
336.957	8.9
337.167	9.15
337.378	9.24
337.589	9.54
337.799	9.81
338.01	9.87
338.22	9.91
338.431	10.45
338.642	10.35
338.852	10.77
339.063	10.82
339.273	11.16
339.484	10.82
339.694	10.7
339.905	10.57
340.115	10.5
340.326	10.49
340.536	10.85
340.746	10.39
340.957	10.65
341.167	10.26
341.378	10.07
341.588	10.27
341.799	10.53
342.009	10.66
342.219	10.78
342.43	10.51
342.64	10.34
342.85	9.76
343.061	9.92
343.271	9.38
343.481	9.18
343.691	9.48
343.902	9.3
344.112	9.28
344.322	9.22
344.532	8.79
344.743	8.95
344.953	9.13
345.163	9.4
345.373	9.28
345.583	9.66
345.793	10.03
346.004	9.74
346.214	9.58
346.424	9.65
346.634	9.81
346.844	10.04
347.054	9.85
347.264	9.84
347.474	9.74
347.684	9.7
347.894	9.49
348.104	9
348.314	9.35
348.524	9.59
348.734	9.47
348.944	9.13
349.154	9.01
349.364	9.21
349.574	8.88
349.784	8.98
349.994	9.33
350.204	9.56
350.413	9.7
350.623	9.34
350.833	9.03
351.043	8.84
351.253	9.36
351.463	9.6
351.672	9.37
351.882	9.75
352.092	9.87
352.302	9.46
352.511	9.28
352.721	9.24
352.931	9.51
353.141	9.47
353.35	9.27
353.56	9.07
353.77	9.05
353.979	9.22
354.189	9.03
354.399	8.85
354.608	8.85
354.818	8.87
355.027	9.11
355.237	8.94
355.447	9.19
355.656	9.35
355.866	9.27
356.075	9.31
356.285	9.19
356.494	9.18
356.704	9.07
356.913	9.06
357.123	9.07
357.332	8.69
357.542	8.43
357.751	8.24
357.96	8.17
358.17	8.06
358.379	7.82
358.589	7.87
358.798	7.89
359.007	7.88
359.217	7.94
359.426	7.68
359.635	7.96
359.845	8.27
360.054	8.42
360.263	8.44
360.472	8.49
360.682	8.4
360.891	8.43
361.1	8.41
361.309	8.39
361.519	8.32
361.728	8.49
361.937	8.57
362.146	8.54
362.355	8.34
362.564	8.38
362.774	8.37
362.983	8.53
363.192	8.67
363.401	8.57
363.61	8.53
363.819	8.61
364.028	8.45
364.237	8.28
364.446	8.09
364.655	8.26
364.864	8.3
365.073	8.19
365.282	8.26
365.491	8.11
365.7	8
365.909	8.21
366.118	8.12
366.327	8.3
366.536	8.14
366.745	8.38
366.954	8.47
367.162	8.17
367.371	8.14
367.58	8.11
367.789	7.89
367.998	7.8
368.207	7.89
368.415	7.94
368.624	7.94
368.833	8.07
369.042	7.93
369.25	7.64
369.459	8.04
369.668	8.12
369.877	7.94
370.085	8.14
370.294	8.46
370.503	8.42
370.711	8.29
370.92	8.31
371.129	8.3
371.337	8.25
371.546	8.26
371.754	8.08
371.963	8.06
372.171	8.04
372.38	7.93
372.589	7.92
372.797	7.64
373.006	7.7
373.214	7.59
373.423	7.45
373.631	7.31
373.84	7.54
374.048	7.72
374.256	7.74
374.465	8
374.673	8.22
374.882	8.13
375.09	8.12
375.298	8.11
375.507	8.08
375.715	8.08
375.923	8.19
376.132	8.16
376.34	8.04
376.548	7.87
376.757	7.66
376.965	7.38
377.173	7.11
377.381	7.24
377.59	7.44
377.798	7.55
378.006	7.59
378.214	7.54
378.423	7.47
378.631	7.4
378.839	7.56
379.047	7.52
379.255	7.5
379.463	7.98
379.671	7.96
379.879	7.7
380.088	7.58
380.296	7.56
380.504	7.62
380.712	7.57
380.92	7.47
381.128	7.53
381.336	7.62
381.544	7.61
381.752	7.29
381.96	7.41
382.168	7.31
382.376	7.29
382.584	7.34
382.791	7.18
382.999	7.1
383.207	7.08
383.415	6.96
383.623	6.89
383.831	6.77
384.039	6.8
384.247	6.33
384.454	6.34
384.662	6.3
384.87	6.31
385.078	6.2
385.285	6.24
385.493	6.37
385.701	6.32
385.909	6.36
386.116	6.52
386.324	6.51
386.532	6.58
386.739	6.53
386.947	6.42
387.155	6.45
387.362	6.56
387.57	6.41
387.778	6.51
387.985	6.43
388.193	6.26
388.4	6.23
388.608	6.45
388.816	6.46
389.023	6.44
389.231	6.46
389.438	6.18
389.646	6.14
389.853	6.2
390.061	5.91
390.268	5.93
390.475	5.91
390.683	6.12
390.89	5.67
391.098	5.63
391.305	5.75
391.512	5.76
391.72	5.86
391.927	5.79
392.135	5.91
392.342	5.85
392.549	5.86
392.756	6.03
392.964	5.92
393.171	6.11
393.378	6.03
393.586	6.05
393.793	5.89
394	5.83
394.207	5.9
394.414	5.73
394.622	5.8
394.829	5.75
395.036	5.63
395.243	5.48
395.45	5.41
395.657	5.6
395.864	5.49
396.072	5.71
396.279	5.94
396.486	5.92
396.693	5.96
396.9	5.99
397.107	6
397.314	5.67
397.521	5.54
397.728	5.49
397.935	5.45
398.142	5.32
398.349	5.17
398.556	4.92
398.763	5.02
398.97	4.99
399.177	4.93
399.383	4.89
399.59	5.07
399.797	5.12
400.004	5.22
400.211	5.1
400.418	5.28
400.625	5.39
400.831	5.53
401.038	5.32
401.245	5.3
401.452	5.32
401.658	5.24
401.865	5.29
402.072	5.48
402.279	5.37
402.485	5.4
402.692	5.44
402.899	5.31
403.105	5.31
403.312	5.38
403.519	5.39
403.725	5.37
403.932	5.57
404.138	5.49
404.345	5.31
404.552	5.29
404.758	5.27
404.965	5.07
405.171	5.24
405.378	5.11
405.584	5.08
405.791	5.04
405.997	5.16
406.204	4.95
406.41	5.1
406.617	5.16
406.823	5.19
407.029	5.12
407.236	5.2
407.442	5.2
407.649	5.23
407.855	5.27
408.061	5.21
408.268	5.12
408.474	5.21
408.68	5.06
408.887	4.94
409.093	5.02
409.299	5.07
409.505	5.03
409.712	4.84
409.918	4.81
410.124	4.73
410.33	4.76
410.537	4.67
410.743	4.5
410.949	4.53
411.155	4.6
411.361	4.56
411.567	4.69
411.773	4.79
411.98	4.72
412.186	4.83
412.392	4.9
412.598	4.79
412.804	4.88
413.01	5.01
413.216	5.17
413.422	5.07
413.628	5.08
413.834	4.92
414.04	4.9
414.246	4.84
414.452	4.79
414.658	4.75
414.864	4.78
415.07	4.75
415.275	4.81
415.481	4.69
415.687	4.9
415.893	4.84
416.099	4.84
416.305	4.93
416.511	4.94
416.716	4.91
416.922	4.94
417.128	4.9
417.334	4.87
417.539	4.8
417.745	4.81
417.951	4.58
418.157	4.7
418.362	4.69
418.568	4.62
418.774	4.68
418.979	4.6
419.185	4.48
419.391	4.49
419.596	4.42
419.802	4.3
420.008	4.27
420.213	4.42
420.419	4.34
420.624	4.25
420.83	4.21
421.035	4.13
421.241	4.17
421.446	4.22
421.652	4.22
421.857	4.27
422.063	4.35
422.268	4.4
422.474	4.32
422.679	4.22
422.885	4.32
423.09	4.3
423.295	4.33
423.501	4.34
423.706	4.35
423.911	4.39
424.117	4.36
424.322	4.43
424.527	4.41
424.733	4.44
424.938	4.48
425.143	4.42
425.349	4.48
425.554	4.51
425.759	4.52
425.964	4.54
426.169	4.52
426.375	4.53
426.58	4.52
426.785	4.46
426.99	4.45
427.195	4.54
427.4	4.62
427.605	4.45
427.811	4.43
428.016	4.4
428.221	4.35
428.426	4.39
428.631	4.38
428.836	4.38
429.041	4.45
429.246	4.48
429.451	4.52
429.656	4.48
429.861	4.61
430.066	4.62
430.271	4.66
430.476	4.66
430.681	4.56
430.886	4.63
431.09	4.51
431.295	4.49
431.5	4.48
431.705	4.47
431.91	4.44
432.115	4.39
432.32	4.46
432.524	4.39
432.729	4.34
432.934	4.34
433.139	4.27
433.343	4.32
433.548	4.37
433.753	4.32
433.958	4.28
434.162	4.38
434.367	4.49
434.572	4.4
434.776	4.42
434.981	4.49
435.186	4.62
435.39	4.73
435.595	4.7
435.799	4.69
436.004	4.59
436.209	4.57
436.413	4.47
436.618	4.48
436.822	4.42
437.027	4.47
437.231	4.46
437.436	4.4
437.64	4.39
437.845	4.44
438.049	4.31
438.253	4.38
438.458	4.32
438.662	4.35
438.867	4.35
439.071	4.45
439.275	4.47
439.48	4.43
439.684	4.41
439.888	4.25
440.093	4.28
440.297	4.26
440.501	4.28
440.706	4.3
440.91	4.3
441.114	4.23
441.318	4.2
441.523	4.12
441.727	4.18
441.931	4.16
442.135	4.26
442.339	4.21
442.543	4.33
442.748	4.33
442.952	4.34
443.156	4.29
443.36	4.24
443.564	4.18
443.768	4.18
443.972	4.23
444.176	4.21
444.38	4.22
444.584	4.23
444.788	4.18
444.992	4.22
445.196	4.28
445.4	4.36
445.604	4.39
445.808	4.43
446.012	4.49
446.216	4.44
446.42	4.46
446.624	4.52
446.828	4.53
447.032	4.47
447.235	4.43
447.439	4.4
447.643	4.4
447.847	4.45
448.051	4.44
448.254	4.4
448.458	4.38
448.662	4.35
448.866	4.33
449.069	4.38
449.273	4.46
449.477	4.44
449.681	4.45
449.884	4.39
450.088	4.34
450.292	4.43
450.495	4.4
450.699	4.32
450.902	4.4
451.106	4.31
451.31	4.22
451.513	4.26
451.717	4.37
451.92	4.34
452.124	4.25
452.327	4.21
452.531	4.1
452.734	4.16
452.938	4.2
453.141	4.26
453.345	4.29
453.548	4.3
453.752	4.22
453.955	4.18
454.158	4.19
454.362	4.2
454.565	4.25
454.769	4.22
454.972	4.25
455.175	4.3
455.379	4.14
455.582	4.23
455.785	4.16
455.988	4.26
456.192	4.14
456.395	4.13
456.598	4.18
456.801	4.19
457.005	4.28
457.208	4.28
457.411	4.18
457.614	4.22
457.817	4.18
458.021	4.2
458.224	4.18
458.427	4.3
458.63	4.31
458.833	4.35
459.036	4.29
459.239	4.2
459.442	4.11
459.645	4.12
459.848	4.13
460.051	4.08
460.254	4.13
460.457	4.04
460.66	3.98
460.863	3.97
461.066	3.91
461.269	3.99
461.472	4.04
461.675	4.07
461.878	4.09
462.081	4.06
462.284	4.15
462.486	4.15
462.689	4.17
462.892	4.24
463.095	4.23
463.298	4.3
463.5	4.18
463.703	4.21
463.906	4.3
464.109	4.3
464.311	4.28
464.514	4.21
464.717	4.06
464.92	4.14
465.122	4.12
465.325	4.15
465.528	4.16
465.73	4.23
465.933	4.2
466.135	4.17
466.338	4.24
466.541	4.34
466.743	4.32
466.946	4.41
467.148	4.37
467.351	4.33
467.553	4.22
467.756	4.21
467.958	4.11
468.161	4.21
468.363	4.16
468.566	4.16
468.768	4.01
468.971	4.08
469.173	4.2
469.375	4.25
469.578	4.3
469.78	4.46
469.983	4.47
470.185	4.46
470.387	4.31
470.59	4.38
470.792	4.31
470.994	4.48
471.196	4.35
471.399	4.29
471.601	4.23
471.803	4.21
472.005	4.11
472.208	4.1
472.41	4.11
472.612	4.17
472.814	4.14
473.016	4.17
473.218	4.08
473.421	4.11
473.623	4.12
473.825	4.2
474.027	4.15
474.229	4.22
474.431	4.22
474.633	4.34
474.835	4.34
475.037	4.43
475.239	4.51
475.441	4.49
475.643	4.57
475.845	4.49
476.047	4.49
476.249	4.63
476.451	4.64
476.653	4.58
476.855	4.49
477.057	4.54
477.258	4.48
477.46	4.4
477.662	4.47
477.864	4.38
478.066	4.35
478.268	4.2
478.469	4.11
478.671	4.02
478.873	4.02
479.075	4.08
479.276	4.14
479.478	4.25
479.68	4.23
479.882	4.15
480.083	4.22
480.285	4.27
480.487	4.42
480.688	4.39
480.89	4.43
481.091	4.47
481.293	4.51
481.495	4.38
481.696	4.23
481.898	4.19
482.099	4.13
482.301	4.08
482.502	4
482.704	3.95
482.905	3.92
483.107	3.9
483.308	3.89
483.51	3.85
483.711	3.85
483.913	3.86
484.114	3.88
484.315	3.9
484.517	3.93
484.718	3.97
484.92	3.96
485.121	3.97
485.322	3.99
485.524	4
485.725	3.99
485.926	4.03
486.127	4
486.329	4
486.53	3.98
486.731	3.93
486.932	3.92
487.134	3.94
487.335	3.97
487.536	3.95
487.737	3.93
487.938	3.93
488.139	3.91
488.341	3.93
488.542	3.92
488.743	3.93
488.944	3.99
489.145	4
489.346	4
489.547	3.98
489.748	3.99
489.949	4.03
490.15	4.05
490.351	4.04
490.552	4.06
490.753	4.05
490.954	4.02
491.155	4
491.356	3.96
491.557	3.98
491.758	4
491.959	4.01
492.159	4.02
492.36	4.07
492.561	4.09
492.762	4.08
492.963	4.07
493.164	4.15
493.364	4.21
493.565	4.29
493.766	4.28
493.967	4.24
494.167	4.29
494.368	4.28
494.569	4.26
494.769	4.28
494.97	4.27
495.171	4.32
495.371	4.32
495.572	4.28
495.773	4.22
495.973	4.24
496.174	4.31
496.375	4.26
496.575	4.2
496.776	4.18
496.976	4.18
497.177	4.23
497.377	4.22
497.578	4.28
497.778	4.24
497.979	4.35
498.179	4.39
498.38	4.39
498.58	4.45
498.78	4.53
498.981	4.54
499.181	4.59
499.382	4.63
499.582	4.73
499.782	4.63
499.983	4.73
500.183	4.7
500.383	4.67
500.584	4.74
500.784	4.85
500.984	4.89
501.184	4.94
501.385	4.96
501.585	4.98
501.785	4.92
501.985	4.99
502.185	5.03
502.386	5
502.586	5.07
502.786	5.1
502.986	5.01
503.186	5.01
503.386	5.07
503.586	5.05
503.786	5.02
503.987	5.07
504.187	5.1
504.387	5.06
504.587	5.12
504.787	5.09
504.987	5.08
505.187	5.15
505.387	5.11
505.587	5.12
505.786	5.26
505.986	5.29
506.186	5.39
506.386	5.47
506.586	5.42
506.786	5.29
506.986	5.43
507.186	5.37
507.386	5.4
507.585	5.5
507.785	5.41
507.985	5.38
508.185	5.37
508.384	5.34
508.584	5.29
508.784	5.35
508.984	5.46
509.183	5.34
509.383	5.41
509.583	5.41
509.782	5.43
509.982	5.49
510.182	5.4
510.381	5.48
510.581	5.44
510.781	5.46
510.98	5.49
511.18	5.49
511.379	5.52
511.579	5.55
511.778	5.6
511.978	5.67
512.177	5.74
512.377	5.77
512.576	5.8
512.776	5.83
512.975	5.93
513.175	6.06
513.374	6.22
513.573	6.35
513.773	6.41
513.972	6.4
514.172	6.4
514.371	6.4
514.57	6.53
514.77	6.57
514.969	6.68
515.168	6.69
515.367	6.61
515.567	6.58
515.766	6.54
515.965	6.47
516.164	6.53
516.364	6.61
516.563	6.71
516.762	6.68
516.961	6.71
517.16	6.72
517.359	6.81
517.559	6.83
517.758	6.82
517.957	6.89
518.156	6.99
518.355	6.98
518.554	6.93
518.753	6.93
518.952	6.99
519.151	7.03
519.35	7.05
519.549	7.11
519.748	7.18
519.947	7.3
520.146	7.3
520.345	7.44
520.544	7.47
520.743	7.58
520.942	7.65
521.141	7.69
521.339	7.74
521.538	7.86
521.737	7.84
521.936	7.93
522.135	7.94
522.333	8.05
522.532	8.02
522.731	8.13
522.93	8.15
523.129	8.17
523.327	8.2
523.526	8.25
523.725	8.2
523.923	8.2
524.122	8.25
524.321	8.27
524.519	8.31
524.718	8.25
524.917	8.31
525.115	8.37
525.314	8.37
525.512	8.45
525.711	8.4
525.909	8.45
526.108	8.42
526.306	8.42
526.505	8.48
526.703	8.39
526.902	8.43
527.1	8.38
527.299	8.32
527.497	8.35
527.696	8.35
527.894	8.34
528.092	8.32
528.291	8.33
528.489	8.33
528.688	8.34
528.886	8.41
529.084	8.42
529.283	8.48
529.481	8.54
529.679	8.57
529.877	8.6
530.076	8.69
530.274	8.78
530.472	8.87
530.67	8.98
530.869	9.01
531.067	9.09
531.265	9.15
531.463	9.2
531.661	9.22
531.859	9.24
532.057	9.26
532.255	9.29
532.454	9.32
532.652	9.39
532.85	9.36
533.048	9.36
533.246	9.31
533.444	9.29
533.642	9.27
533.84	9.3
534.038	9.35
534.236	9.43
534.434	9.45
534.632	9.49
534.83	9.45
535.027	9.47
535.225	9.51
535.423	9.55
535.621	9.64
535.819	9.71
536.017	9.75
536.215	9.77
536.412	9.76
536.61	9.77
536.808	9.75
537.006	9.76
537.203	9.83
537.401	9.79
537.599	9.87
537.797	9.95
537.994	9.95
538.192	9.98
538.39	9.97
538.587	9.97
538.785	10.05
538.983	10.07
539.18	10.1
539.378	10.08
539.575	10.17
539.773	10.11
539.97	10.09
540.168	10.1
540.366	10.09
540.563	10.02
540.761	10
540.958	9.97
541.155	9.99
541.353	9.96
541.55	9.98
541.748	9.97
541.945	10.01
542.143	9.98
542.34	10
542.537	10.03
542.735	10.09
542.932	10.15
543.129	10.19
543.327	10.25
543.524	10.33
543.721	10.36
543.919	10.43
544.116	10.47
544.313	10.52
544.51	10.52
544.708	10.58
544.905	10.62
545.102	10.63
545.299	10.64
545.496	10.65
545.693	10.65
545.891	10.6
546.088	10.63
546.285	10.66
546.482	10.74
546.679	10.77
546.876	10.69
547.073	10.77
547.27	10.76
547.467	10.74
547.664	10.79
547.861	10.82
548.058	10.87
548.255	10.87
548.452	10.87
548.649	10.88
548.846	11.08
549.043	11.24
549.24	11.2
549.437	11.28
549.633	11.35
549.83	11.44
550.027	11.48
550.224	11.53
550.421	11.73
550.618	11.77
550.814	11.71
551.011	11.58
551.208	11.52
551.405	11.49
551.601	11.43
551.798	11.38
551.995	11.34
552.191	11.34
552.388	11.39
552.585	11.21
552.781	11.16
552.978	11.27
553.175	11.26
553.371	11.32
553.568	11.43
553.764	11.58
553.961	11.64
554.157	11.51
554.354	11.69
554.55	11.62
554.747	11.71
554.943	11.84
555.14	11.86
555.336	11.96
555.533	11.91
555.729	11.91
555.926	11.89
556.122	11.91
556.318	12
556.515	11.83
556.711	12.04
556.907	12.04
557.104	12.02
557.3	12
557.496	11.96
557.693	12.05
557.889	12.02
558.085	11.93
558.281	11.98
558.478	12.12
558.674	12.33
558.87	12.21
559.066	12.27
559.262	12.2
559.459	12.15
559.655	12.16
559.851	12.18
560.047	12.18
560.243	12.16
560.439	12.17
560.635	12.19
560.831	12.13
561.027	12.17
561.223	12.08
561.419	12.2
561.615	12.23
561.811	12.23
562.007	12.23
562.203	12.25
562.399	12.31
562.595	12.33
562.791	12.32
562.987	12.33
563.183	12.27
563.379	12.41
563.575	12.34
563.771	12.34
563.966	12.32
564.162	12.37
564.358	12.37
564.554	12.42
564.75	12.42
564.945	12.29
565.141	12.16
565.337	12.15
565.533	12.08
565.728	12.08
565.924	12.06
566.12	12.02
566.315	11.89
566.511	11.97
566.707	11.94
566.902	11.87
567.098	11.91
567.293	11.98
567.489	11.97
567.684	11.93
567.88	11.91
568.076	11.88
568.271	11.94
568.467	12.03
568.662	12.01
568.858	11.95
569.053	11.96
569.248	12.04
569.444	11.98
569.639	12.03
569.835	12.02
570.03	11.95
570.225	11.93
570.421	11.79
570.616	11.73
570.812	11.76
571.007	11.74
571.202	11.83
571.397	11.74
571.593	11.84
571.788	11.85
571.983	11.88
572.178	11.91
572.374	12
572.569	12.13
572.764	12.25
572.959	12.18
573.154	12.29
573.35	12.17
573.545	12.2
573.74	12.08
573.935	12.07
574.13	12.06
574.325	12.06
574.52	12
574.715	11.99
574.91	11.87
575.105	11.86
575.3	11.83
575.495	11.89
575.69	11.91
575.885	11.94
576.08	11.95
576.275	12.01
576.47	11.99
576.665	12.04
576.86	12.06
577.055	12.14
577.25	12.23
577.444	12.15
577.639	12.25
577.834	12.16
578.029	12.45
578.224	12.45
578.418	12.37
578.613	12.44
578.808	12.45
579.003	12.59
579.197	12.66
579.392	12.67
579.587	12.95
579.781	12.9
579.976	12.95
580.171	12.72
580.365	12.71
580.56	12.78
580.755	12.78
580.949	12.82
581.144	12.75
581.338	12.7
581.533	12.7
581.727	12.49
581.922	12.48
582.116	12.42
582.311	12.48
582.505	12.48
582.7	12.49
582.894	12.63
583.089	12.57
583.283	12.39
583.478	12.36
583.672	12.38
583.866	12.37
584.061	12.47
584.255	12.78
584.449	12.7
584.644	12.65
584.838	12.64
585.032	12.6
585.226	12.62
585.421	12.72
585.615	12.75
585.809	12.7
586.003	12.77
586.198	12.8
586.392	12.62
586.586	12.67
586.78	12.79
586.974	12.79
587.168	12.83
587.363	12.71
587.557	12.74
587.751	12.78
587.945	12.8
588.139	12.81
588.333	12.65
588.527	12.67
588.721	12.68
588.915	12.55
589.109	12.53
589.303	12.38
589.497	12.49
589.691	12.47
589.885	12.32
590.079	12.45
590.273	12.28
590.466	12.46
590.66	12.47
590.854	12.42
591.048	12.51
591.242	12.68
591.436	12.61
591.629	12.69
591.823	12.8
592.017	12.96
592.211	12.83
592.404	12.98
592.598	12.87
592.792	12.79
592.986	12.81
593.179	12.84
593.373	12.69
593.567	12.87
593.76	12.79
593.954	12.76
594.147	12.76
594.341	12.73
594.535	12.74
594.728	12.78
594.922	12.83
595.115	12.85
595.309	12.74
595.502	12.59
595.696	12.52
595.889	12.53
596.083	12.5
596.276	12.46
596.47	12.51
596.663	12.42
596.856	12.37
597.05	12.35
597.243	12.33
597.437	12.44
597.63	12.53
597.823	12.61
598.017	12.65
598.21	12.7
598.403	12.71
598.596	12.67
598.79	12.76
598.983	12.86
599.176	12.93
599.369	13.04
599.563	13.04
599.756	13.12
599.949	13.28
600.142	13.32
600.335	13.35
600.528	13.45
600.722	13.57
600.915	13.58
601.108	13.51
601.301	13.67
601.494	13.42
601.687	13.37
601.88	13.38
602.073	13.21
602.266	13.12
602.459	13.18
602.652	13.19
602.845	13.17
603.038	13.14
603.231	13.07
603.424	12.99
603.617	13.09
603.809	13.12
604.002	13.08
604.195	13.13
604.388	13.14
604.581	13.16
604.774	13.06
604.966	13.02
605.159	13.05
605.352	13.09
605.545	13.07
605.737	13.06
605.93	13.09
606.123	13.24
606.316	13.18
606.508	13.21
606.701	13.09
606.894	13.19
607.086	13.15
607.279	13.21
607.471	13.25
607.664	13.33
607.857	13.36
608.049	13.33
608.242	13.1
608.434	13.18
608.627	13.05
608.819	13.04
609.012	12.85
609.204	12.95
609.397	12.99
609.589	13.1
609.782	13.08
609.974	13.22
610.166	13.23
610.359	13.3
610.551	13.25
610.743	13.39
610.936	13.53
611.128	13.84
611.32	14.06
611.513	13.97
611.705	13.95
611.897	13.79
612.09	13.78
612.282	13.88
612.474	14.01
612.666	14.19
612.858	14.28
613.051	14.34
613.243	14.09
613.435	13.91
613.627	13.94
613.819	13.84
614.011	14.23
614.203	14.08
614.395	14.11
614.588	14.11
614.78	14.06
614.972	14.33
615.164	14.12
615.356	14.25
615.548	14.18
615.74	14.43
615.932	14.49
616.124	14.23
616.315	14.33
616.507	14.19
616.699	14.19
616.891	14.28
617.083	13.88
617.275	13.99
617.467	14.1
617.659	14.17
617.85	13.83
618.042	13.91
618.234	14.03
618.426	14.12
618.618	14.31
618.809	14.37
619.001	14.23
619.193	14.41
619.384	14.61
619.576	14.62
619.768	14.49
619.959	14.69
620.151	14.83
620.343	14.87
620.534	14.68
620.726	14.66
620.917	14.41
621.109	14.41
621.301	14.38
621.492	14.18
621.684	14.03
621.875	14.08
622.067	14.14
622.258	14.08
622.45	14.01
622.641	14.28
622.832	14.09
623.024	14.3
623.215	14.24
623.407	14.06
623.598	14.04
623.789	14.06
623.981	14.05
624.172	13.85
624.363	13.89
624.555	13.83
624.746	13.67
624.937	13.73
625.129	13.75
625.32	13.75
625.511	13.99
625.702	13.78
625.893	13.84
626.085	13.83
626.276	13.85
626.467	13.54
626.658	13.42
626.849	13.25
627.04	13.21
627.231	13.25
627.422	13.26
627.614	13.08
627.805	13.18
627.996	13.18
628.187	13.17
628.378	13.32
628.569	13.44
628.76	13.6
628.951	13.78
629.142	13.84
629.332	13.79
629.523	13.82
629.714	13.86
629.905	14.14
630.096	14.21
630.287	14.4
630.478	14.31
630.669	14.41
630.859	14.46
631.05	14.5
631.241	14.56
631.432	14.55
631.623	14.55
631.813	14.64
632.004	14.58
632.195	14.36
632.385	14.3
632.576	14.39
632.767	14.32
632.957	14.36
633.148	14.37
633.339	14.24
633.529	14.19
633.72	14.09
633.91	14.01
634.101	13.91
634.292	13.94
634.482	13.9
634.673	13.88
634.863	13.97
635.054	13.86
635.244	13.79
635.435	13.77
635.625	13.9
635.815	14.13
636.006	14.2
636.196	14.28
636.387	14.24
636.577	14.25
636.767	14.31
636.958	14.36
637.148	14.41
637.338	14.55
637.529	14.74
637.719	14.65
637.909	14.71
638.099	14.65
638.29	14.41
638.48	14.49
638.67	14.43
638.86	14.4
639.05	14.41
639.241	14.36
639.431	14.08
639.621	14.18
639.811	14.16
640.001	14.15
640.191	14.23
640.381	14.55
640.571	14.61
640.761	14.64
640.951	14.42
641.141	14.28
641.331	14.51
641.521	14.68
641.711	14.7
641.901	14.72
642.091	14.7
642.281	14.78
642.471	14.66
642.661	14.63
642.851	14.68
643.041	14.8
643.231	14.94
643.42	14.87
643.61	15.16
643.8	15.01
643.99	15.04
644.18	14.85
644.369	14.79
644.559	14.83
644.749	14.81
644.939	14.85
645.128	15.04
645.318	15
645.508	14.98
645.697	14.77
645.887	14.77
646.076	14.85
646.266	14.93
646.456	15.04
646.645	15.02
646.835	15.32
647.024	15.36
647.214	15.18
647.403	15.24
647.593	15.23
647.782	15.28
647.972	15.34
648.161	15.29
648.351	15.32
648.54	15.42
648.73	15.4
648.919	15.17
649.108	15.14
649.298	15.13
649.487	15.15
649.677	15.17
649.866	15.14
650.055	15.22
650.244	15.39
650.434	15.3
650.623	15.23
650.812	15.35
651.002	15.5
651.191	15.5
651.38	15.78
651.569	15.77
651.758	15.67
651.947	15.66
652.137	15.65
652.326	15.4
652.515	15.49
652.704	15.54
652.893	15.58
653.082	15.21
653.271	15.36
653.46	15.23
653.649	15.33
653.838	15.22
654.027	15.42
654.216	15.52
654.405	15.74
654.594	15.66
654.783	15.58
654.972	15.43
655.161	15.7
655.35	15.26
655.539	15
655.728	14.75
655.916	14.98
656.105	14.93
656.294	14.68
656.483	14.64
656.672	14.77
656.86	14.58
657.049	14.61
657.238	14.65
657.427	14.79
657.615	14.99
657.804	15.16
657.993	14.98
658.181	14.75
658.37	14.79
658.559	14.57
658.747	14.6
658.936	14.6
659.125	14.87
659.313	14.66
659.502	14.74
659.69	14.71
659.879	14.64
660.067	14.63
660.256	14.64
660.444	14.78
660.633	14.79
660.821	14.73
661.01	14.79
661.198	14.46
661.387	14.68
661.575	14.67
661.763	14.68
661.952	14.89
662.14	15.18
662.328	15.3
662.517	15.3
662.705	15.58
662.893	15.52
663.082	15.69
663.27	15.91
663.458	15.89
663.646	15.89
663.834	16.03
664.023	15.75
664.211	15.64
664.399	15.74
664.587	15.52
664.775	15.66
664.963	15.87
665.152	15.76
665.34	15.64
665.528	15.61
665.716	15.67
665.904	15.35
666.092	15.46
666.28	15.47
666.468	15.53
666.656	15.66
666.844	15.62
667.032	15.78
667.22	15.9
667.408	15.9
667.596	15.93
667.784	16.05
667.971	16.09
668.159	15.93
668.347	16.09
668.535	16.3
668.723	16.23
668.911	16
669.098	15.83
669.286	15.9
669.474	15.8
669.662	16.02
669.849	15.9
670.037	16.2
670.225	16.21
670.413	16.25
670.6	15.89
670.788	16.18
670.976	16.44
671.163	16.43
671.351	16.53
671.538	16.65
671.726	16.55
671.913	16.51
672.101	16.09
672.289	16.46
672.476	16.48
672.664	16.35
672.851	16.24
673.039	15.99
673.226	16.16
673.413	15.86
673.601	15.96
673.788	16.05
673.976	16.35
674.163	16.71
674.35	16.74
674.538	16.65
674.725	16.95
674.912	16.92
675.1	16.93
675.287	16.66
675.474	16.84
675.662	16.69
675.849	16.53
676.036	16.2
676.223	16.28
676.411	16.07
676.598	15.84
676.785	15.76
676.972	16.02
677.159	15.97
677.346	15.94
677.533	15.92
677.721	15.93
677.908	15.91
678.095	16.13
678.282	15.76
678.469	15.62
678.656	15.68
678.843	15.68
679.03	15.37
679.217	15.62
679.404	15.41
679.591	15.21
679.778	15.2
679.964	15.17
680.151	15.17
680.338	15.48
680.525	15.56
680.712	15.87
680.899	15.72
681.086	15.86
681.272	15.79
681.459	15.93
681.646	16.06
681.833	15.95
682.02	16.02
682.206	15.87
682.393	15.77
682.58	15.91
682.766	15.89
682.953	16.04
683.14	15.94
683.326	15.9
683.513	16.12
683.7	16.1
683.886	16.31
684.073	16.23
684.259	16.17
684.446	16.29
684.632	16.15
684.819	15.88
685.005	15.97
685.192	16.05
685.378	16.14
685.565	16.14
685.751	16.21
685.938	16.04
686.124	16.17
686.31	16.48
686.497	16.46
686.683	16.4
686.87	16.35
687.056	16.18
687.242	16.03
687.429	15.92
687.615	16.04
687.801	15.79
687.987	16.08
688.174	16.16
688.36	15.93
688.546	15.79
688.732	16.13
688.918	15.93
689.105	16.22
689.291	16.3
689.477	16.22
689.663	15.97
689.849	16.17
690.035	15.96
690.221	16.02
690.407	16.13
690.593	16.21
690.779	16.43
690.965	16.83
691.151	16.53
691.337	16.62
691.523	16.77
691.709	17.12
691.895	17.05
692.081	17.16
692.267	17.03
692.453	17.08
692.639	17.12
692.825	16.52
693.011	16.46
693.196	16.96
693.382	17.01
693.568	17.18
693.754	17.14
693.94	17.42
694.125	17.67
694.311	17.79
694.497	17.88
694.682	17.65
694.868	17.95
695.054	18.16
695.239	17.76
695.425	17.7
695.611	17.65
695.796	17.38
695.982	16.99
696.168	16.8
696.353	16.54
696.539	16.27
696.724	16.29
696.91	16.22
697.095	15.85
697.281	15.76
697.466	15.59
697.652	15.42
697.837	15.54
698.023	15.67
698.208	15.51
698.393	15.42
698.579	15.41
698.764	15.44
698.949	15.26
699.135	15.44
699.32	15.67
699.505	15.69
699.691	15.74
699.876	15.78
700.061	15.94
700.246	16.17
700.432	16.53
700.617	16.67
700.802	16.66
700.987	16.89
701.172	16.91
701.358	16.92
701.543	17.14
701.728	17.14
701.913	17.16
702.098	17.05
702.283	17.16
702.468	17.08
702.653	17.15
702.838	17.04
703.023	17.33
703.208	17.54
703.393	17.58
703.578	17.82
703.763	18.56
703.948	18.81
704.133	19.34
704.318	19.41
704.503	19.69
704.688	19.97
704.873	20.4
705.057	20.87
705.242	20.59
705.427	20.32
705.612	19.85
705.797	19.15
705.981	19.34
706.166	19.1
706.351	19.26
706.536	19.08
706.72	18.74
706.905	18.88
707.09	18.22
707.274	18.37
707.459	18.48
707.644	18.72
707.828	19.29
708.013	18.75
708.197	18.47
708.382	18.07
708.567	17.88
708.751	17.9
708.936	17.47
709.12	17.25
709.305	17.03
709.489	16.95
709.673	16.87
709.858	16.72
710.042	16.71
710.227	16.93
710.411	16.89
710.596	17.36
710.78	17.73
710.964	18.31
711.149	18.3
711.333	18.48
711.517	18.69
711.702	18.97
711.886	18.58
712.07	18.81
712.254	18.65
712.438	18.88
712.623	18.41
712.807	18.25
712.991	18.1
713.175	18.4
713.359	18.46
713.544	18.26
713.728	18.06
713.912	18.18
714.096	18.32
714.28	18.06
714.464	17.93
714.648	18.08
714.832	18.06
715.016	17.77
715.2	17.72
715.384	17.55
715.568	17.71
715.752	17.48
715.936	17.3
716.12	17.16
716.304	17.39
716.488	17.3
716.671	17.03
716.855	16.83
717.039	16.95
717.223	16.89
717.407	17.15
717.59	17.01
717.774	17.48
717.958	18.07
718.142	17.98
718.325	18.23
718.509	18.3
718.693	18.32
718.877	18.36
719.06	18.13
719.244	18.39
719.428	18.34
719.611	18.83
719.795	18.57
719.978	18.25
720.162	18.55
720.345	18.21
720.529	18.19
720.713	18.55
720.896	18.87
721.08	19.39
721.263	19.33
721.446	19.27
721.63	18.83
721.813	19.15
721.997	19.21
722.18	18.81
722.364	18.83
722.547	19.08
722.73	18.49
722.914	18.18
723.097	18.36
723.28	18
723.464	17.9
723.647	17.86
723.83	17.43
724.013	17.68
724.197	17.43
724.38	17.46
724.563	17.4
724.746	18.3
724.929	18.12
725.112	17.83
725.296	17.93
725.479	18.14
725.662	17.91
725.845	18.27
726.028	17.99
726.211	18.59
726.394	18.92
726.577	18.95
726.76	18.6
726.943	18.91
727.126	18.35
727.309	18.6
727.492	18.81
727.675	19.04
727.858	19.07
728.041	18.7
728.224	18.71
728.407	18.16
728.589	18.31
728.772	17.97
728.955	18.16
729.138	17.78
729.321	17.44
729.503	17.2
729.686	16.92
729.869	16.68
730.052	16.83
730.234	16.05
730.417	16.25
730.6	16.07
730.782	16.05
730.965	16.03
731.148	17.18
731.33	16.93
731.513	16.52
731.695	16.96
731.878	17.19
732.061	17.36
732.243	18.11
732.426	18.49
732.608	18.23
732.791	18.72
732.973	18.67
733.156	18.4
733.338	18.88
733.52	19.57
733.703	19.26
733.885	19.19
734.068	19.32
734.25	18.63
734.432	18.75
734.615	18.68
734.797	18.55
734.979	18.17
735.162	18.01
735.344	17.49
735.526	17.23
735.708	17.42
735.891	17.07
736.073	16.55
736.255	17.49
736.437	17.2
736.619	18.39
736.802	18.95
736.984	18.88
737.166	18.97
737.348	19.17
737.53	18.75
737.712	18.94
737.894	18.89
738.076	19.25
738.258	19.01
738.44	19.1
738.622	18.78
738.804	18.43
738.986	18.96
739.168	18.95
739.35	19.42
739.532	19.37
739.714	18.8
739.896	19.08
740.078	19.51
740.259	19.58
740.441	19.48
740.623	19.81
740.805	19.48
740.987	19.24
741.168	19.01
741.35	19.19
741.532	19.35
741.714	19.79
741.895	20.09
742.077	19.72
742.259	19.81
742.44	20.12
742.622	19.18
742.804	19.05
742.985	18.86
743.167	19.24
743.348	19.03
743.53	19.24
743.711	19.25
743.893	18.96
744.075	19.21
744.256	19.26
744.438	19.05
744.619	19.37
744.8	19.98
744.982	20.06
745.163	20.16
745.345	19.85
745.526	20.16
745.707	20.68
745.889	20.32
746.07	20.33
746.252	20.13
746.433	20.5
746.614	20.43
746.795	19.83
746.977	19.95
747.158	20.34
747.339	20.71
747.52	20.86
747.702	20.48
747.883	21.12
748.064	20.55
748.245	20.64
748.426	20.84
748.607	20.68
748.788	20.87
748.97	20.95
749.151	20.58
749.332	20.33
749.513	20.12
749.694	20.85
749.875	20.65
750.056	21.31
750.237	20.99
750.418	20.38
750.599	20.92
750.78	21.04
750.96	21.23
751.141	21.19
751.322	21.39
751.503	21.17
751.684	20.56
751.865	19.72
752.046	18.99
752.226	18.85
752.407	18.43
752.588	18.35
752.769	18.34
752.949	18
753.13	18.74
753.311	18.39
753.492	19.03
753.672	18.45
753.853	19.37
754.034	19.64
754.214	20.31
754.395	21.12
754.575	21.15
754.756	21.9
754.937	21.79
755.117	21.26
755.298	21.91
755.478	21.38
755.659	22.09
755.839	22.08
756.02	22.32
756.2	21.97
756.381	21.45
756.561	20.95
756.741	20.07
756.922	20.34
757.102	19.72
757.283	19.32
757.463	18.91
757.643	18.28
757.823	18.24
758.004	18.15
758.184	17.57
758.364	17.53
758.545	17.31
758.725	17.41
758.905	17.02
759.085	16.48
759.265	16.74
759.446	16.32
759.626	16.13
759.806	15.99
759.986	14.98
760.166	14.95
760.346	14.26
760.526	14.74
760.706	14.75
760.886	14.12
761.066	14.94
761.246	14.55
761.426	15.52
761.606	16.26
761.786	16.11
761.966	17.15
762.146	17.59
762.326	18.39
762.506	18.2
762.686	17.89
762.866	17.88
763.046	17.53
763.225	17.74
763.405	17.14
763.585	16.92
763.765	16.51
763.945	16.26
764.124	16.11
764.304	15.89
764.484	15.85
764.664	15.76
764.843	16.48
765.023	17.26
765.203	16.94
765.382	17.56
765.562	17.71
765.741	18.55
765.921	18.73
766.101	18.87
766.28	18.9
766.46	18.96
766.639	19.61
766.819	19.52
766.998	18.36
767.178	18.65
767.357	18.32
767.537	18.53
767.716	18.54
767.896	18.63
768.075	19.03
768.254	19.51
768.434	19.26
768.613	19.77
768.792	20.3
768.972	21.63
769.151	21.73
769.33	22.55
769.51	23.1
769.689	23.61
769.868	23.83
770.047	23.79
770.226	23.97
770.406	24.31
770.585	24.09
770.764	24.16
770.943	23.71
771.122	23.84
771.301	23.35
771.48	22.63
771.66	22.21
771.839	23.36
772.018	23.41
772.197	23.44
772.376	23.61
772.555	23.52
772.734	22.95
772.913	23.46
773.092	23.14
773.271	22.78
773.449	23.97
773.628	23.95
773.807	22.63
773.986	22.29
774.165	22.38
774.344	21.91
774.523	22.14
774.701	21.86
774.88	21.93
775.059	23
775.238	23.04
775.417	21.58
775.595	21.16
775.774	20.64
775.953	20.41
776.131	19.5
776.31	21.03
776.489	20.79
776.667	20.29
776.846	19.66
777.025	18.82
777.203	19.47
777.382	19.39
777.56	18.63
777.739	19.48
777.917	20.5
778.096	21.54
778.274	20.35
778.453	20.59
778.631	20.63
778.81	21.07
778.988	21.01
779.166	21.45
779.345	22.65
779.523	23.52
779.702	23.99
779.88	23.52
780.058	24.01
780.237	25.04
780.415	25.54
780.593	26.61
780.771	26.65
780.95	26.63
781.128	26.01
781.306	25.63
781.484	26.74
781.662	25.9
781.841	25.69
782.019	24.37
782.197	23.27
782.375	22.69
782.553	21.96
782.731	21.65
782.909	21.92
783.087	21.83
783.265	21.28
783.443	20.62
783.621	21.53
783.799	22.08
783.977	22.38
784.155	22.48
784.333	22.45
784.511	23.05
784.689	23.39
784.867	22.95
785.045	23.18
785.223	23.48
785.4	23.4
785.578	22.34
785.756	21.76
785.934	21.32
786.112	21.3
786.289	20.8
786.467	20.42
786.645	18.96
786.823	19
787	19.03
787.178	18.31
787.356	18.34
787.533	18.62
787.711	19.56
787.889	19.53
788.066	19.09
788.244	19.4
788.421	19.87
788.599	20.4
788.776	21.65
788.954	21
789.131	21.71
789.309	21.24
789.486	20.51
789.664	20.41
789.841	20.87
790.019	21.52
790.196	21.05
790.373	20.64
790.551	22.18
790.728	22.13
790.906	23.34
791.083	22.52
791.26	22.29
791.437	23.14
791.615	21.54
791.792	21.72
791.969	22.5
792.146	22.46
792.324	22.73
792.501	21.72
792.678	21.43
792.855	20.44
793.032	20.56
793.209	20.61
793.387	20.9
793.564	22.25
793.741	22.32
793.918	21.8
794.095	23.14
794.272	22.48
794.449	23.31
794.626	22.46
794.803	23.31
794.98	23.64
795.157	23.43
795.334	23.4
795.511	23.4
795.688	22.39
795.864	22.53
796.041	21.52
796.218	22.21
796.395	21.38
796.572	21.44
796.749	21.2
796.925	21.63
797.102	22.12
797.279	22.37
797.456	22.4
797.632	22.79
797.809	22.29
797.986	22.81
798.162	23.02
798.339	22.94
798.516	22.61
798.692	21.88
798.869	21.19
799.046	21.18
799.222	20.4
799.399	20.5
799.575	20.71
799.752	20.08
799.928	19.15
800.105	19.17
800.281	19.11
800.458	20.11
800.634	19.85
800.811	20.66
800.987	21.14
801.163	21.07
801.34	20.48
801.516	22.01
801.692	23.37
801.869	24.1
802.045	24.69
802.221	25.18
802.398	24.33
802.574	25.43
802.75	25.14
802.926	24.89
803.103	25.28
803.279	25.02
803.455	24.18
803.631	23.13
803.807	22.13
803.983	21.53
804.16	20.23
804.336	20.73
804.512	19.5
804.688	20.18
804.864	20.27
805.04	19.69
805.216	19.71
805.392	19.16
805.568	18.83
805.744	20.63
805.92	19.63
806.096	21.36
806.272	21.32
806.448	22.03
806.623	22.77
806.799	22.56
806.975	23.14
807.151	25.22
807.327	24.88
807.503	25.46
807.678	24.16
807.854	24.91
808.03	23.34
808.206	24.16
808.381	23.91
808.557	23.01
808.733	23.29
808.908	24.24
809.084	21.54
809.26	21.28
809.435	20.87
809.611	21.3
809.787	21.31
809.962	22.54
810.138	20.55
810.313	21.1
810.489	20.56
810.664	20.21
810.84	19.44
811.015	19.33
811.191	20.15
811.366	22.59
811.542	21.52
811.717	21.58
811.892	21.56
812.068	23.06
812.243	22
812.419	21.7
812.594	21.61
812.769	20.69
812.944	22.92
813.12	22.21
813.295	21.89
813.47	21.95
813.645	21.41
813.821	21.38
813.996	21.3
814.171	22.03
814.346	22.15
814.521	22.43
814.697	22.86
814.872	21.12
815.047	22.31
815.222	21.09
815.397	21.06
815.572	20.48
815.747	19.39
815.922	18.7
816.097	18.51
816.272	20.14
816.447	20
816.622	19.96
816.797	20.43
816.972	17.55
817.147	16.55
817.322	17.6
817.496	17.27
817.671	16.91
817.846	15.59
818.021	15.88
818.196	13.62
818.371	14.2
818.545	14.95
818.72	14.58
818.895	16.4
819.069	17.66
819.244	17.94
819.419	18.63
819.594	19.6
819.768	20.78
819.943	20.67
820.117	20.81
820.292	19.57
820.467	18.53
820.641	17.74
820.816	17.3
820.99	16.19
821.165	15.6
821.339	14.73
821.514	14.31
821.688	13.95
821.863	13.8
822.037	13.69
822.212	13.75
822.386	13.6
822.56	13.72
822.735	13.72
822.909	13.86
823.084	13.95
823.258	14.36
823.432	14.53
823.606	14.66
823.781	14.74
823.955	14.91
824.129	14.81
824.303	15.04
824.478	15.34
824.652	15.33
824.826	15.35
825	15.3
825.174	15.53
825.348	15.55
825.523	15.62
825.697	15.42
825.871	15.28
826.045	15.48
826.219	15.55
826.393	15.32
826.567	15.7
826.741	15.63
826.915	15.74
827.089	15.62
827.263	14.97
827.437	14.96
827.611	15.32
827.784	15.49
827.958	15.56
828.132	15.83
828.306	16.19
828.48	15.8
828.654	16.14
828.827	15.97
829.001	15.98
829.175	16.41
829.349	16.57
829.522	16.61
829.696	16.87
829.87	17
830.044	16.79
830.217	15.79
830.391	15.6
830.565	14.7
830.738	15.66
830.912	16.43
831.085	16.57
831.259	15.88
831.432	14.58
831.606	15.08
831.779	14.31
831.953	14.75
832.126	15.56
832.3	16.24
832.473	17.11
832.647	16.08
832.82	15.27
832.994	14.77
833.167	15.74
833.34	16.14
833.514	15.82
833.687	17.14
833.86	17.06
834.034	16.77
834.207	16.66
834.38	17.11
834.553	17.62
834.727	17.56
834.9	18.15
835.073	18.31
835.246	18.42
835.419	18.53
835.593	17.45
835.766	17.19
835.939	17.7
836.112	18.44
836.285	18.32
836.458	17.45
836.631	17.96
836.804	19.27
836.977	18.27
837.15	18.23
837.323	17.82
837.496	18.51
837.669	19.18
837.842	19.51
838.015	19.15
838.188	18.49
838.361	19.95
838.533	19.88
838.706	20.08
838.879	21.79
839.052	22.21
839.225	22.33
839.398	22.34
839.57	22.59
839.743	21.23
839.916	20.15
840.088	20.86
840.261	20.89
840.434	20.93
840.607	19.23
840.779	17.66
840.952	16.35
841.124	16.42
841.297	17.38
841.47	17.53
841.642	18.75
841.815	20.25
841.987	20.87
842.16	23.17
842.332	24.29
842.505	26.26
842.677	26.27
842.85	29.1
843.022	31.38
843.194	31.66
843.367	33.36
843.539	34.15
843.712	34.74
843.884	33.71
844.056	33.47
844.229	33.17
844.401	32.35
844.573	32.68
844.745	32.79
844.918	32.51
845.09	31.1
845.262	30.79
845.434	29.6
845.606	26.22
845.779	29.37
845.951	28.4
846.123	26.56
846.295	27.06
846.467	32.23
846.639	34.57
846.811	31.53
846.983	31.44
847.155	32.61
847.327	33.87
847.499	34.14
847.671	27.27
847.843	26.86
848.015	29.74
848.187	28.48
848.359	25.27
848.531	24.18
848.703	27.33
848.875	31.87
849.047	31.04
849.218	32.62
849.39	33.24
849.562	38.39
849.734	36.5
849.905	36.64
850.077	38.25
850.249	38.32
850.421	35.61
850.592	33.67
850.764	28.65
850.936	25.59
851.107	21.67
851.279	23.49
851.451	23.38
851.622	22.68
851.794	22.51
851.965	21.59
852.137	22.02
852.308	27.44
852.48	28.06
852.651	33
852.823	35.35
852.994	35.2
853.166	38.13
853.337	35.11
853.509	37.48
853.68	31.79
853.851	29.23
854.023	26.71
854.194	20.49
854.365	23.74
854.537	21.29
854.708	20.01
854.879	22.51
855.05	19.34
855.222	21.83
855.393	25.46
855.564	30.53
855.735	30.9
855.906	32.15
856.078	33.57
856.249	31.9
856.42	30.12
856.591	28.57
856.762	29.83
856.933	34.1
857.104	31.88
857.275	27.03
857.446	25.89
857.617	31.18
857.788	29.61
857.959	26.32
858.13	25.67
858.301	31.1
858.472	32.63
858.643	29.69
858.814	27.16
858.985	27.17
859.155	28.92
859.326	29.02
859.497	30.21
859.668	31.28
859.839	36.6
860.009	36
860.18	35.09
860.351	37.89
860.522	35.9
860.692	38.53
860.863	42.6
861.034	47.68
861.204	47.22
861.375	47.66
861.546	48.57
861.716	49.28
861.887	53.3
862.057	49.46
862.228	44.68
862.398	46.81
862.569	46.79
862.739	46.81
862.91	38.73
863.08	38.65
863.251	32.06
863.421	30.64
863.592	35.96
863.762	31.76
863.932	31.75
864.103	34.43
864.273	34.82
864.443	35.62
864.614	33.34
864.784	29.29
864.954	29.18
865.125	31.37
865.295	31.49
865.465	26.49
865.635	27.41
865.805	26.62
865.976	24.35
866.146	23.22
866.316	20.15
866.486	21.7
866.656	25.75
866.826	24.65
866.996	23.67
867.166	27.12
867.336	24.6
867.506	23.18
867.676	24.88
867.846	25.47
868.016	26.64
868.186	29.19
868.356	26.96
868.526	26.47
868.696	30.75
868.866	29.46
869.036	27.19
869.206	27.35
869.376	34.47
869.545	35.51
869.715	33.39
869.885	32.76
870.055	31.51
870.224	33.36
870.394	35.84
870.564	37.58
870.734	43.93
870.903	48.09
871.073	47.91
871.243	44.18
871.412	45.16
871.582	46.72
871.751	46.64
871.921	41.67
872.091	45.89
872.26	44.58
872.43	36.09
872.599	30.46
872.769	27.7
872.938	29.2
873.108	28.37
873.277	30.22
873.446	32.39
873.616	31.88
873.785	36.59
873.955	33.91
874.124	38.07
874.293	37.47
874.463	37.62
874.632	35.47
874.801	32.73
874.971	33.53
875.14	29.39
875.309	25.42
875.478	24.06
875.647	20.05
875.817	14.5
875.986	10.66
876.155	16.4
876.324	22.32
876.493	19.38
876.662	20.24
876.831	19.61
877	19.49
877.17	24.72
877.339	31.83
877.508	35.54
877.677	36.04
877.846	34.52
878.015	37.64
878.184	33.9
878.352	35.95
878.521	30.55
878.69	29.88
878.859	29.37
879.028	27.47
879.197	25.1
879.366	23.45
879.534	21.19
879.703	19.96
879.872	16.37
880.041	15.27
880.21	16.43
880.378	18.75
880.547	16.04
880.716	15.29
880.884	14.91
881.053	14.52
881.222	14.36
881.39	15.45
881.559	15.32
881.727	15.68
881.896	16.1
882.065	15.3
882.233	15.46
882.402	16.64
882.57	16.96
882.739	16.54
882.907	16.56
883.076	16.39
883.244	16.05
883.412	15.79
883.581	16.24
883.749	16.32
883.918	16.83
884.086	16.36
884.254	16.08
884.423	15.58
884.591	16.55
884.759	15.81
884.927	16.52
885.096	17.59
885.264	19.22
885.432	19.39
885.6	18.7
885.769	18.85
885.937	19.85
886.105	21.14
886.273	21.1
886.441	22.73
886.609	25.38
886.777	25.86
886.945	25.37
887.113	26.52
887.281	27.76
887.449	28.7
887.617	29.45
887.785	30.89
887.953	30.23
888.121	28.57
888.289	24.62
888.457	27.03
888.625	25.85
888.793	28.81
888.961	23
889.129	13.86
889.296	17.33
889.464	17.06
889.632	14.68
889.8	9.95
889.967	15.61
890.135	17.07
