Data from 2938805__Reflection_03.txt Node
Date: Thu Mar 12 22:17:40 EDT 2015
User: robert
Spectrometer: USB4E03002
Autoset integration time: false
Trigger mode: 4
Integration Time (sec): 1.000000E-1
Scans to average: 10
Electric dark correction enabled: false
Nonlinearity correction enabled: false
Boxcar width: 5
Stray light correction enabled: false
XAxis mode: Wavelengths
Stop averaging: false
Number of Pixels in Spectrum: 3648
>>>>>Begin Spectral Data<<<<<
177.575	-717.39
177.794	-1812.12
178.014	-868.6
178.233	-1269.7
178.452	-729.91
178.672	-794.49
178.891	11390
179.11	754.66
179.33	606.76
179.549	371.92
179.768	890.83
179.987	474.61
180.207	701.3
180.426	660.37
180.645	475.82
180.864	262.69
181.084	244.2
181.303	234.58
181.522	304.51
181.741	253.17
181.96	341.86
182.179	329.92
182.398	488.84
182.618	896.85
182.837	1021.87
183.056	-3037.5
183.275	-154.65
183.494	-172.34
183.713	-212.66
183.932	-242.5
184.151	-127
184.37	-198.32
184.589	-343.01
184.808	-357.49
185.027	716.91
185.246	433.74
185.465	395.63
185.684	288.8
185.903	302.04
186.122	396.21
186.341	1033.88
186.56	594.52
186.779	361.86
186.998	404.45
187.216	373.1
187.435	698.74
187.654	545.81
187.873	392.28
188.092	432.95
188.311	300.89
188.53	380.11
188.748	251.84
188.967	214.73
189.186	279.06
189.405	296.98
189.623	295.83
189.842	366.15
190.061	626.44
190.28	-2786.96
190.498	-7323.53
190.717	-1525
190.936	1148.96
191.154	946.03
191.373	762.3
191.592	499.36
191.81	578.75
192.029	465.68
192.248	491.81
192.466	344.85
192.685	331.34
192.904	465.36
193.122	692.55
193.341	663.84
193.559	425.38
193.778	8881.82
193.996	-391.97
194.215	-550.66
194.433	-756.1
194.652	-915.69
194.87	-338.17
195.089	-658.17
195.307	-1275
195.526	-21100
195.744	-961.36
195.963	-703.47
196.181	-914.07
196.399	-1401.11
196.618	-510.34
196.836	-267.79
197.055	-414.01
197.273	-3687.8
197.491	2275.81
197.71	759.59
197.928	1068.6
198.146	373.86
198.365	316.51
198.583	236.86
198.801	203.45
199.019	156.84
199.238	162.29
199.456	166.45
199.674	181.71
199.892	201.98
200.111	294.97
200.329	274.19
200.547	346.53
200.765	427.87
200.983	857.02
201.202	2991.43
201.42	1241.18
201.638	1418.92
201.856	321.55
202.074	273.63
202.292	310.12
202.51	256.04
202.728	281.68
202.946	307.75
203.165	268.93
203.383	287.69
203.601	247.29
203.819	327.65
204.037	292.59
204.255	556.64
204.473	789.03
204.691	376.21
204.909	245.05
205.127	207.62
205.345	179.64
205.562	194.71
205.78	174.92
205.998	177.56
206.216	181.15
206.434	200.17
206.652	176.03
206.87	201
207.088	240.93
207.306	198.48
207.523	235.45
207.741	273.4
207.959	227.93
208.177	225.3
208.395	166.7
208.612	132.81
208.83	130.41
209.048	127.06
209.266	108.41
209.483	109.4
209.701	138.1
209.919	145.01
210.136	140.29
210.354	168.34
210.572	137.51
210.79	155.19
211.007	139.74
211.225	121.97
211.442	131.33
211.66	153.81
211.878	130.73
212.095	66.07
212.313	65.76
212.53	61.39
212.748	44
212.966	44.91
213.183	47.3
213.401	59.33
213.618	57.69
213.836	55.29
214.053	42.52
214.271	57.97
214.488	122.37
214.705	121.64
214.923	120.61
215.14	167.01
215.358	162.94
215.575	185.85
215.793	172.63
216.01	162.86
216.227	149.73
216.445	137.27
216.662	136.72
216.879	161.13
217.097	140.12
217.314	117.9
217.531	123.22
217.749	142.54
217.966	131.97
218.183	133.64
218.4	125
218.618	128.56
218.835	139.24
219.052	126.18
219.269	103.35
219.487	108.02
219.704	120.03
219.921	95.34
220.138	68.47
220.355	64.73
220.572	72.82
220.79	76.2
221.007	78.44
221.224	78.09
221.441	75.76
221.658	72.09
221.875	69.53
222.092	64.68
222.309	65.01
222.526	63.17
222.743	64.95
222.96	58.48
223.177	51.63
223.394	48.11
223.611	45.51
223.828	45.93
224.045	46.64
224.262	45.92
224.479	46.43
224.696	37.68
224.913	38.38
225.13	37.21
225.347	36.6
225.564	36.6
225.781	35.15
225.997	31.71
226.214	28.47
226.431	26.22
226.648	22.9
226.865	19.02
227.082	20.07
227.298	17.57
227.515	16.75
227.732	13.62
227.949	13.21
228.165	11.82
228.382	11.25
228.599	10.66
228.816	11.29
229.032	11.11
229.249	11.73
229.466	11.53
229.682	11.62
229.899	11.06
230.116	11.71
230.332	11.97
230.549	11.64
230.765	12.53
230.982	13.24
231.199	12.31
231.415	12.25
231.632	12.49
231.848	13.03
232.065	14.38
232.281	14.93
232.498	15.34
232.714	13.39
232.931	16.46
233.147	14.24
233.364	13.97
233.58	14.1
233.797	13.78
234.013	13.78
234.23	14.1
234.446	13.65
234.662	15.31
234.879	15.82
235.095	17.3
235.312	17.53
235.528	19.08
235.744	18.89
235.961	18.31
236.177	17.3
236.393	17.16
236.61	16.32
236.826	17.03
237.042	16.15
237.258	15.23
237.475	14.87
237.691	12.82
237.907	14.29
238.123	16.43
238.339	17.19
238.556	17.79
238.772	18.09
238.988	17.7
239.204	15.99
239.42	16.27
239.636	15.79
239.853	14.05
240.069	12.94
240.285	10.95
240.501	9.55
240.717	9.27
240.933	9.21
241.149	9.43
241.365	9.56
241.581	9.55
241.797	9.46
242.013	9.48
242.229	9.96
242.445	10.44
242.661	10.92
242.877	11.15
243.093	11.5
243.309	11.69
243.525	10.98
243.741	11.07
243.957	11.84
244.173	11.9
244.388	11.84
244.604	12.38
244.82	12.47
245.036	12.39
245.252	11.96
245.468	10.98
245.683	10.46
245.899	10.17
246.115	9.91
246.331	9.21
246.547	8.68
246.762	8.62
246.978	8.07
247.194	7.72
247.409	7.64
247.625	7.7
247.841	7.91
248.057	8.19
248.272	8.55
248.488	8.44
248.703	8.67
248.919	8.82
249.135	9.11
249.35	9.78
249.566	9.94
249.782	10.07
249.997	9.93
250.213	10.27
250.428	9.55
250.644	9.1
250.859	9.57
251.075	9.37
251.29	9.85
251.506	10.05
251.721	10.31
251.937	10.76
252.152	10.77
252.368	10.93
252.583	10.91
252.798	11.01
253.014	10.87
253.229	10.92
253.445	11.41
253.66	11.76
253.875	10.95
254.091	10.28
254.306	10.76
254.521	10.19
254.737	10.01
254.952	10.11
255.167	11.78
255.383	12.86
255.598	12.45
255.813	11.73
256.028	11.13
256.244	11.78
256.459	12.19
256.674	11.4
256.889	11.38
257.104	10.96
257.32	10.88
257.535	9.6
257.75	8.41
257.965	8.37
258.18	8.24
258.395	8.12
258.61	7.68
258.826	7.31
259.041	7.31
259.256	7.44
259.471	7.36
259.686	6.91
259.901	6.89
260.116	6.99
260.331	7.12
260.546	7.04
260.761	7.09
260.976	7.28
261.191	7.29
261.406	6.88
261.621	7.07
261.836	6.87
262.05	7.2
262.265	7.36
262.48	7.89
262.695	7.8
262.91	7.98
263.125	7.75
263.34	7.34
263.555	8.08
263.769	8.46
263.984	8.7
264.199	9.05
264.414	8.81
264.629	8.65
264.843	8.03
265.058	7.74
265.273	7.79
265.488	7.83
265.702	7.98
265.917	7.63
266.132	7.67
266.346	6.74
266.561	6.78
266.776	7.31
266.99	7.17
267.205	7.78
267.42	8.18
267.634	8.11
267.849	8.3
268.063	8.29
268.278	8.48
268.492	8.56
268.707	8.78
268.922	8.67
269.136	8.33
269.351	8.54
269.565	8.24
269.78	7.93
269.994	8.27
270.209	8.25
270.423	8.39
270.637	7.81
270.852	7.48
271.066	7.38
271.281	7.61
271.495	7.37
271.709	7.45
271.924	7.39
272.138	7.13
272.353	6.82
272.567	6.61
272.781	6.2
272.996	6.57
273.21	6.75
273.424	6.95
273.638	7.13
273.853	7.31
274.067	7.08
274.281	7.07
274.495	7.15
274.71	7.22
274.924	7.23
275.138	7.83
275.352	7.6
275.566	7.35
275.781	7.36
275.995	7.36
276.209	7.55
276.423	7.78
276.637	7.17
276.851	7.22
277.065	7.21
277.279	7.35
277.493	7.33
277.707	7.54
277.921	8.05
278.135	7.85
278.349	7.55
278.563	7.56
278.777	7.29
278.991	7.88
279.205	8.11
279.419	8
279.633	7.87
279.847	7.76
280.061	7.72
280.275	7.52
280.489	7.44
280.703	7.31
280.917	6.62
281.131	6.72
281.344	6.8
281.558	6.42
281.772	6.76
281.986	6.69
282.2	6.62
282.414	6.43
282.627	6.19
282.841	6.32
283.055	6.29
283.269	6.45
283.482	6.31
283.696	6.47
283.91	6.72
284.123	6.39
284.337	6.26
284.551	6.33
284.764	6.25
284.978	6.06
285.192	5.96
285.405	5.97
285.619	5.92
285.833	5.89
286.046	5.61
286.26	5.66
286.473	5.75
286.687	6.06
286.9	5.83
287.114	5.85
287.327	6.3
287.541	6.46
287.754	6.45
287.968	7.01
288.181	7.28
288.395	7.02
288.608	6.85
288.822	6.81
289.035	6.47
289.248	6.57
289.462	6.71
289.675	6.66
289.889	6.46
290.102	6.35
290.315	6.23
290.529	6.3
290.742	6.62
290.955	6.63
291.169	6.76
291.382	6.73
291.595	6.86
291.808	7
292.022	6.99
292.235	7.2
292.448	7.4
292.661	7.32
292.875	7.02
293.088	7.02
293.301	7.02
293.514	7.08
293.727	7.39
293.94	7.3
294.153	6.97
294.367	7.14
294.58	7.27
294.793	7.3
295.006	7.19
295.219	7.36
295.432	7.43
295.645	7.53
295.858	7.49
296.071	7.49
296.284	7.28
296.497	7.38
296.71	7.24
296.923	6.75
297.136	6.86
297.349	6.73
297.562	6.88
297.775	6.63
297.988	6.83
298.201	6.64
298.414	6.68
298.626	7.02
298.839	7.04
299.052	6.93
299.265	7.44
299.478	7.19
299.691	7.5
299.903	7.2
300.116	7.36
300.329	6.98
300.542	7.27
300.755	7
300.967	6.91
301.18	7.18
301.393	7.38
301.605	7.29
301.818	7.6
302.031	7.43
302.243	7.75
302.456	7.99
302.669	8.04
302.881	7.96
303.094	8.03
303.307	7.97
303.519	7.67
303.732	7.44
303.944	7.25
304.157	7.24
304.37	7.45
304.582	6.95
304.795	6.82
305.007	7.02
305.22	6.59
305.432	6.71
305.645	6.89
305.857	6.85
306.069	7.2
306.282	7.32
306.494	7.14
306.707	7.26
306.919	7.75
307.132	7.67
307.344	7.76
307.556	8.16
307.769	8.16
307.981	8.12
308.193	8.51
308.406	8.61
308.618	8.69
308.83	8.83
309.043	8.7
309.255	8.67
309.467	8.62
309.679	8.6
309.892	8.77
310.104	8.66
310.316	8.54
310.528	8.45
310.74	8.5
310.953	8.67
311.165	8.65
311.377	8.76
311.589	8.85
311.801	8.89
312.013	8.63
312.225	8.6
312.437	8.78
312.649	8.75
312.862	8.59
313.074	8.55
313.286	8.3
313.498	8.42
313.71	8.32
313.922	8.25
314.134	8.55
314.346	8.68
314.558	8.53
314.77	8.76
314.982	8.83
315.193	8.94
315.405	8.82
315.617	8.94
315.829	8.84
316.041	9.23
316.253	9.09
316.465	9.17
316.677	9.34
316.888	9.73
317.1	9.89
317.312	9.97
317.524	10.16
317.736	10.28
317.947	10.67
318.159	10.75
318.371	10.47
318.583	10.79
318.794	10.81
319.006	10.96
319.218	10.89
319.43	10.97
319.641	11.31
319.853	11.36
320.064	11.27
320.276	11.32
320.488	11.36
320.699	11.91
320.911	11.83
321.123	11.62
321.334	11.56
321.546	11.87
321.757	11.43
321.969	11.28
322.18	11.37
322.392	11.71
322.603	11.55
322.815	11.81
323.026	11.12
323.238	11.28
323.449	11.44
323.661	11.38
323.872	10.93
324.083	10.84
324.295	10.55
324.506	10.11
324.718	9.89
324.929	9.9
325.14	9.66
325.352	9.81
325.563	9.46
325.774	9.56
325.986	9.33
326.197	9.49
326.408	9.52
326.62	9.96
326.831	10.2
327.042	10.26
327.253	10.25
327.464	10.27
327.676	10.67
327.887	11.14
328.098	11.23
328.309	11.47
328.52	11.55
328.732	11.79
328.943	11.76
329.154	11.84
329.365	12.16
329.576	12.1
329.787	12.4
329.998	12.19
330.209	12.45
330.42	12.63
330.631	12.99
330.842	13.2
331.053	13.47
331.264	13.33
331.475	13.54
331.686	13.32
331.897	13.41
332.108	13.14
332.319	13.17
332.53	13.02
332.741	13.22
332.952	12.87
333.163	12.57
333.374	12.41
333.585	12.33
333.795	12.11
334.006	11.98
334.217	11.82
334.428	12.06
334.639	11.81
334.849	11.54
335.06	11.13
335.271	11.47
335.482	11.67
335.692	11.67
335.903	11.74
336.114	11.74
336.325	12.02
336.535	11.98
336.746	11.66
336.957	12.01
337.167	11.94
337.378	11.99
337.589	11.61
337.799	11.88
338.01	11.77
338.22	11.66
338.431	11.73
338.642	11.59
338.852	11.84
339.063	11.85
339.273	11.49
339.484	11.45
339.694	10.88
339.905	10.8
340.115	10.25
340.326	10.43
340.536	10.49
340.746	10.46
340.957	10.24
341.167	10.01
341.378	10.05
341.588	10.32
341.799	10.16
342.009	10.41
342.219	10.75
342.43	10.9
342.64	10.68
342.85	11.01
343.061	11.09
343.271	11.39
343.481	11.25
343.691	11.48
343.902	11.14
344.112	11.32
344.322	11.26
344.532	11.15
344.743	10.93
344.953	11.26
345.163	10.98
345.373	10.77
345.583	10.57
345.793	10.7
346.004	10.96
346.214	10.83
346.424	10.63
346.634	10.86
346.844	10.8
347.054	10.97
347.264	10.65
347.474	10.65
347.684	10.71
347.894	10.8
348.104	11.21
348.314	10.78
348.524	10.94
348.734	11.32
348.944	11.46
349.154	11.37
349.364	11.48
349.574	11.43
349.784	11.61
349.994	11.42
350.204	11.3
350.413	11.07
350.623	11.15
350.833	11.4
351.043	11.21
351.253	10.78
351.463	10.91
351.672	10.71
351.882	10.57
352.092	10.16
352.302	10.17
352.511	10.16
352.721	10.28
352.931	10.12
353.141	10.04
353.35	10.17
353.56	10.34
353.77	10.34
353.979	10.32
354.189	10.63
354.399	10.81
354.608	10.93
354.818	11.09
355.027	10.92
355.237	10.81
355.447	10.66
355.656	10.66
355.866	10.43
356.075	10.39
356.285	10.44
356.494	10.07
356.704	9.8
356.913	9.79
357.123	9.5
357.332	9.36
357.542	9.53
357.751	9.55
357.96	9.62
358.17	9.59
358.379	9.78
358.589	9.89
358.798	9.98
359.007	10.22
359.217	10.13
359.426	10.05
359.635	10.16
359.845	10.08
360.054	10.05
360.263	9.82
360.472	9.97
360.682	9.67
360.891	9.43
361.1	9.3
361.309	9.2
361.519	9.34
361.728	9.41
361.937	9.33
362.146	9.22
362.355	9.28
362.564	9.38
362.774	9.26
362.983	9.23
363.192	9.33
363.401	9.48
363.61	9.28
363.819	9.22
364.028	9.24
364.237	9.14
364.446	9.1
364.655	8.98
364.864	8.9
365.073	8.76
365.282	9.08
365.491	8.97
365.7	9.03
365.909	9.37
366.118	9.3
366.327	9.47
366.536	9.66
366.745	9.86
366.954	9.71
367.162	9.71
367.371	9.91
367.58	9.79
367.789	9.94
367.998	9.92
368.207	9.97
368.415	10.01
368.624	9.81
368.833	9.68
369.042	9.75
369.25	9.87
369.459	9.6
369.668	9.21
369.877	8.98
370.085	8.78
370.294	8.64
370.503	8.49
370.711	8.55
370.92	8.67
371.129	8.72
371.337	8.64
371.546	8.54
371.754	8.56
371.963	8.79
372.171	8.98
372.38	9.01
372.589	9.01
372.797	8.98
373.006	8.81
373.214	8.71
373.423	8.6
373.631	8.45
373.84	8.54
374.048	8.6
374.256	8.71
374.465	8.5
374.673	8.42
374.882	8.55
375.09	8.37
375.298	8.21
375.507	8.15
375.715	8.32
375.923	8.3
376.132	8.16
376.34	8.17
376.548	8.18
376.757	8.19
376.965	8.29
377.173	8.19
377.381	8.34
377.59	8.5
377.798	8.6
378.006	8.38
378.214	8.54
378.423	8.82
378.631	8.97
378.839	8.83
379.047	8.89
379.255	8.79
379.463	8.81
379.671	8.8
379.879	8.84
380.088	8.84
380.296	8.92
380.504	8.56
380.712	8.27
380.92	8.04
381.128	8.05
381.336	7.93
381.544	7.77
381.752	7.84
381.96	7.88
382.168	7.75
382.376	7.73
382.584	7.6
382.791	7.75
382.999	8
383.207	7.92
383.415	7.82
383.623	7.74
383.831	7.85
384.039	7.49
384.247	7.56
384.454	7.42
384.662	7.39
384.87	7.25
385.078	7.27
385.285	7.11
385.493	7.29
385.701	7.37
385.909	7.37
386.116	7.2
386.324	7.22
386.532	7
386.739	7.11
386.947	7.05
387.155	7.03
387.362	7.1
387.57	6.93
387.778	6.73
387.985	6.86
388.193	7.02
388.4	7.19
388.608	7.41
388.816	7.33
389.023	7.16
389.231	7.03
389.438	7.03
389.646	6.81
389.853	6.88
390.061	6.89
390.268	6.78
390.475	6.72
390.683	6.65
390.89	6.61
391.098	6.6
391.305	6.62
391.512	6.59
391.72	6.7
391.927	6.69
392.135	6.65
392.342	6.53
392.549	6.42
392.756	6.33
392.964	6.29
393.171	6.19
393.378	6.26
393.586	6.25
393.793	6.33
394	6.18
394.207	6.36
394.414	6.27
394.622	6.46
394.829	6.48
395.036	6.37
395.243	6.46
395.45	6.47
395.657	6.4
395.864	6.45
396.072	6.33
396.279	6.37
396.486	6.17
396.693	6.12
396.9	5.89
397.107	5.89
397.314	5.99
397.521	5.79
397.728	5.84
397.935	5.67
398.142	5.64
398.349	5.68
398.556	5.74
398.763	5.63
398.97	5.74
399.177	5.84
399.383	5.89
399.59	5.75
399.797	5.82
400.004	5.64
400.211	5.75
400.418	5.91
400.625	6
400.831	5.98
401.038	6.01
401.245	6
401.452	5.97
401.658	6.02
401.865	6.17
402.072	6.16
402.279	6.41
402.485	6.29
402.692	6.22
402.899	6.18
403.105	6.12
403.312	6.21
403.519	6.21
403.725	6.23
403.932	6.14
404.138	5.91
404.345	5.95
404.552	5.67
404.758	5.83
404.965	5.71
405.171	5.53
405.378	5.41
405.584	5.4
405.791	5.43
405.997	5.3
406.204	5.28
406.41	5.33
406.617	5.35
406.823	5.41
407.029	5.35
407.236	5.48
407.442	5.51
407.649	5.69
407.855	5.78
408.061	5.7
408.268	5.73
408.474	5.74
408.68	5.83
408.887	5.76
409.093	5.88
409.299	5.91
409.505	5.82
409.712	5.83
409.918	5.75
410.124	5.69
410.33	5.77
410.537	5.82
410.743	5.82
410.949	5.89
411.155	5.99
411.361	5.96
411.567	5.87
411.773	5.93
411.98	5.92
412.186	5.83
412.392	5.82
412.598	5.75
412.804	5.82
413.01	5.79
413.216	5.72
413.422	5.68
413.628	5.51
413.834	5.55
414.04	5.52
414.246	5.42
414.452	5.46
414.658	5.34
414.864	5.38
415.07	5.35
415.275	5.41
415.481	5.43
415.687	5.39
415.893	5.58
416.099	5.52
416.305	5.4
416.511	5.61
416.716	5.64
416.922	5.6
417.128	5.48
417.334	5.48
417.539	5.4
417.745	5.31
417.951	5.3
418.157	5.21
418.362	5.19
418.568	5.21
418.774	5.11
418.979	5.03
419.185	5
419.391	4.98
419.596	4.91
419.802	4.9
420.008	4.92
420.213	5.33
420.419	5.32
420.624	5.22
420.83	5.27
421.035	5.19
421.241	5.3
421.446	5.38
421.652	5.35
421.857	5.38
422.063	5.37
422.268	5.3
422.474	4.88
422.679	4.87
422.885	4.97
423.09	4.85
423.295	4.79
423.501	4.67
423.706	4.58
423.911	4.64
424.117	4.56
424.322	4.57
424.527	4.64
424.733	4.62
424.938	4.6
425.143	4.57
425.349	4.64
425.554	4.8
425.759	4.83
425.964	4.88
426.169	4.95
426.375	5.07
426.58	5.09
426.785	5.08
426.99	5.12
427.195	5.18
427.4	5.12
427.605	5.03
427.811	5.02
428.016	5.03
428.221	5.03
428.426	4.82
428.631	4.81
428.836	4.65
429.041	4.58
429.246	4.58
429.451	4.5
429.656	4.56
429.861	4.68
430.066	4.64
430.271	4.68
430.476	4.68
430.681	4.75
430.886	4.56
431.09	4.8
431.295	4.83
431.5	4.74
431.705	4.81
431.91	4.8
432.115	4.77
432.32	4.81
432.524	4.76
432.729	4.76
432.934	4.72
433.139	4.74
433.343	4.69
433.548	4.72
433.753	4.74
433.958	4.74
434.162	4.81
434.367	4.85
434.572	4.79
434.776	4.84
434.981	4.79
435.186	4.72
435.39	4.82
435.595	4.85
435.799	4.77
436.004	4.86
436.209	4.83
436.413	4.76
436.618	4.66
436.822	4.63
437.027	4.52
437.231	4.63
437.436	4.67
437.64	4.65
437.845	4.55
438.049	4.68
438.253	4.58
438.458	4.57
438.662	4.55
438.867	4.59
439.071	4.5
439.275	4.57
439.48	4.51
439.684	4.54
439.888	4.51
440.093	4.55
440.297	4.44
440.501	4.45
440.706	4.41
440.91	4.38
441.114	4.39
441.318	4.46
441.523	4.41
441.727	4.33
441.931	4.43
442.135	4.44
442.339	4.46
442.543	4.59
442.748	4.55
442.952	4.59
443.156	4.7
443.36	4.7
443.564	4.69
443.768	4.69
443.972	4.74
444.176	4.6
444.38	4.56
444.584	4.51
444.788	4.44
444.992	4.46
445.196	4.46
445.4	4.44
445.604	4.38
445.808	4.48
446.012	4.44
446.216	4.36
446.42	4.38
446.624	4.41
446.828	4.29
447.032	4.26
447.235	4.27
447.439	4.26
447.643	4.31
447.847	4.36
448.051	4.29
448.254	4.36
448.458	4.43
448.662	4.43
448.866	4.41
449.069	4.53
449.273	4.49
449.477	4.57
449.681	4.56
449.884	4.46
450.088	4.46
450.292	4.43
450.495	4.51
450.699	4.46
450.902	4.48
451.106	4.6
451.31	4.59
451.513	4.65
451.717	4.52
451.92	4.56
452.124	4.61
452.327	4.57
452.531	4.53
452.734	4.51
452.938	4.49
453.141	4.5
453.345	4.35
453.548	4.38
453.752	4.37
453.955	4.31
454.158	4.21
454.362	4.18
454.565	4.23
454.769	4.37
454.972	4.27
455.175	4.29
455.379	4.22
455.582	4.17
455.785	4.27
455.988	4.32
456.192	4.42
456.395	4.53
456.598	4.62
456.801	4.49
457.005	4.38
457.208	4.36
457.411	4.36
457.614	4.36
457.817	4.45
458.021	4.35
458.224	4.34
458.427	4.28
458.63	4.19
458.833	4.1
459.036	4.22
459.239	4.15
459.442	4.25
459.645	4.24
459.848	4.27
460.051	4.32
460.254	4.33
460.457	4.32
460.66	4.35
460.863	4.45
461.066	4.44
461.269	4.42
461.472	4.57
461.675	4.53
461.878	4.57
462.081	4.55
462.284	4.48
462.486	4.54
462.689	4.46
462.892	4.5
463.095	4.45
463.298	4.45
463.5	4.45
463.703	4.3
463.906	4.44
464.109	4.45
464.311	4.49
464.514	4.58
464.717	4.63
464.92	4.73
465.122	4.71
465.325	4.72
465.528	4.74
465.73	4.67
465.933	4.67
466.135	4.49
466.338	4.5
466.541	4.54
466.743	4.5
466.946	4.36
467.148	4.41
467.351	4.47
467.553	4.55
467.756	4.54
467.958	4.51
468.161	4.54
468.363	4.56
468.566	4.6
468.768	4.55
468.971	4.44
469.173	4.42
469.375	4.32
469.578	4.2
469.78	4.14
469.983	4.21
470.185	4.35
470.387	4.35
470.59	4.33
470.792	4.22
470.994	4.26
471.196	4.42
471.399	4.41
471.601	4.52
471.803	4.58
472.005	4.61
472.208	4.58
472.41	4.53
472.612	4.53
472.814	4.6
473.016	4.71
473.218	4.73
473.421	4.71
473.623	4.62
473.825	4.58
474.027	4.69
474.229	4.57
474.431	4.57
474.633	4.63
474.835	4.62
475.037	4.69
475.239	4.72
475.441	4.59
475.643	4.6
475.845	4.76
476.047	4.77
476.249	4.7
476.451	4.69
476.653	4.68
476.855	4.47
477.057	4.48
477.258	4.36
477.46	4.31
477.662	4.39
477.864	4.32
478.066	4.28
478.268	4.24
478.469	4.16
478.671	4.21
478.873	4.23
479.075	4.37
479.276	4.36
479.478	4.4
479.68	4.45
479.882	4.39
480.083	4.38
480.285	4.36
480.487	4.39
480.688	4.42
480.89	4.38
481.091	4.32
481.293	4.25
481.495	4.2
481.696	4.23
481.898	4.16
482.099	4.22
482.301	4.18
482.502	4.14
482.704	4.12
482.905	4.06
483.107	4.04
483.308	4.02
483.51	4.03
483.711	4.03
483.913	4
484.114	3.99
484.315	3.95
484.517	3.94
484.718	3.96
484.92	3.93
485.121	3.96
485.322	3.97
485.524	4.01
485.725	4
485.926	4.04
486.127	4.02
486.329	4.02
486.53	4.03
486.731	4.04
486.932	4.02
487.134	4.05
487.335	4.05
487.536	4.04
487.737	4.02
487.938	4.03
488.139	4.02
488.341	4.02
488.542	4.02
488.743	4.03
488.944	4.06
489.145	4.06
489.346	4.06
489.547	4.03
489.748	4.09
489.949	4.09
490.15	4.08
490.351	4.04
490.552	4.05
490.753	4.08
490.954	4.06
491.155	4.04
491.356	4.1
491.557	4.07
491.758	4.12
491.959	4.09
492.159	4.06
492.36	4.03
492.561	4.04
492.762	4.09
492.963	4.06
493.164	4.09
493.364	4.12
493.565	4.06
493.766	4.14
493.967	4.1
494.167	4.11
494.368	4.15
494.569	4.26
494.769	4.26
494.97	4.26
495.171	4.34
495.371	4.31
495.572	4.28
495.773	4.22
495.973	4.17
496.174	4.22
496.375	4.28
496.575	4.22
496.776	4.23
496.976	4.3
497.177	4.23
497.377	4.17
497.578	4.15
497.778	4.12
497.979	4.22
498.179	4.26
498.38	4.23
498.58	4.16
498.78	4.22
498.981	4.14
499.181	4.13
499.382	4.22
499.582	4.32
499.782	4.45
499.983	4.58
500.183	4.62
500.383	4.64
500.584	4.7
500.784	4.79
500.984	4.89
501.184	4.98
501.385	4.96
501.585	5
501.785	5.02
501.985	4.92
502.185	4.84
502.386	4.82
502.586	4.83
502.786	4.8
502.986	4.79
503.186	4.76
503.386	4.68
503.586	4.72
503.786	4.74
503.987	4.71
504.187	4.78
504.387	4.77
504.587	4.83
504.787	4.79
504.987	4.87
505.187	4.81
505.387	4.82
505.587	4.82
505.786	4.91
505.986	4.91
506.186	4.93
506.386	4.92
506.586	5.04
506.786	4.98
506.986	5.02
507.186	5.04
507.386	5
507.585	5.06
507.785	5.05
507.985	4.98
508.185	4.93
508.384	4.92
508.584	4.97
508.784	5.09
508.984	5.12
509.183	5.16
509.383	5.13
509.583	5.23
509.782	5.17
509.982	5.29
510.182	5.36
510.381	5.43
510.581	5.43
510.781	5.39
510.98	5.3
511.18	5.4
511.379	5.46
511.579	5.48
511.778	5.5
511.978	5.6
512.177	5.63
512.377	5.57
512.576	5.59
512.776	5.72
512.975	5.76
513.175	5.79
513.374	5.73
513.573	5.75
513.773	5.85
513.972	5.98
514.172	6.04
514.371	6.04
514.57	6.13
514.77	6.09
514.969	6.05
515.168	6.07
515.367	6.1
515.567	6.16
515.766	6.2
515.965	6.18
516.164	6.13
516.364	6.21
516.563	6.28
516.762	6.3
516.961	6.42
517.16	6.47
517.359	6.57
517.559	6.59
517.758	6.59
517.957	6.62
518.156	6.69
518.355	6.73
518.554	6.68
518.753	6.71
518.952	6.75
519.151	6.77
519.35	6.78
519.549	6.83
519.748	6.85
519.947	6.86
520.146	6.88
520.345	6.88
520.544	6.94
520.743	7.01
520.942	7.02
521.141	7.05
521.339	7.07
521.538	7.14
521.737	7.09
521.936	7.16
522.135	7.3
522.333	7.32
522.532	7.41
522.731	7.44
522.93	7.49
523.129	7.58
523.327	7.58
523.526	7.64
523.725	7.57
523.923	7.7
524.122	7.73
524.321	7.77
524.519	7.75
524.718	7.79
524.917	7.82
525.115	7.85
525.314	7.88
525.512	8
525.711	8.02
525.909	8.16
526.108	8.2
526.306	8.21
526.505	8.29
526.703	8.41
526.902	8.44
527.1	8.49
527.299	8.56
527.497	8.65
527.696	8.64
527.894	8.68
528.092	8.67
528.291	8.66
528.489	8.7
528.688	8.66
528.886	8.62
529.084	8.61
529.283	8.56
529.481	8.54
529.679	8.47
529.877	8.53
530.076	8.56
530.274	8.54
530.472	8.56
530.67	8.58
530.869	8.69
531.067	8.81
531.265	8.93
531.463	9.14
531.661	9.2
531.859	9.28
532.057	9.33
532.255	9.38
532.454	9.52
532.652	9.63
532.85	9.73
533.048	9.75
533.246	9.77
533.444	9.75
533.642	9.7
533.84	9.77
534.038	9.81
534.236	9.79
534.434	9.84
534.632	9.84
534.83	9.81
535.027	9.86
535.225	9.98
535.423	10.05
535.621	10.15
535.819	10.22
536.017	10.27
536.215	10.35
536.412	10.43
536.61	10.45
536.808	10.49
537.006	10.55
537.203	10.59
537.401	10.58
537.599	10.62
537.797	10.68
537.994	10.83
538.192	10.92
538.39	10.95
538.587	11.05
538.785	11.13
538.983	11.32
539.18	11.53
539.378	11.6
539.575	11.68
539.773	11.75
539.97	11.78
540.168	11.84
540.366	11.95
540.563	12.01
540.761	12
540.958	12.07
541.155	12.05
541.353	12.01
541.55	12
541.748	12
541.945	12.06
542.143	12.09
542.34	12.09
542.537	12.05
542.735	12.09
542.932	12.15
543.129	12.17
543.327	12.28
543.524	12.37
543.721	12.44
543.919	12.54
544.116	12.6
544.313	12.74
544.51	12.91
544.708	13.05
544.905	13.16
545.102	13.35
545.299	13.45
545.496	13.52
545.693	13.6
545.891	13.72
546.088	13.81
546.285	13.91
546.482	13.89
546.679	13.86
546.876	13.78
547.073	13.8
547.27	13.75
547.467	13.78
547.664	13.77
547.861	13.82
548.058	13.85
548.255	13.83
548.452	13.86
548.649	14.01
548.846	14.08
549.043	14.3
549.24	14.39
549.437	14.51
549.633	14.59
549.83	14.69
550.027	14.81
550.224	14.85
550.421	14.96
550.618	15.03
550.814	15.19
551.011	15.25
551.208	15.28
551.405	15.39
551.601	15.59
551.798	15.57
551.995	15.66
552.191	15.59
552.388	15.73
552.585	15.73
552.781	15.73
552.978	15.64
553.175	15.73
553.371	15.83
553.568	15.82
553.764	15.79
553.961	15.96
554.157	16.01
554.354	16.14
554.55	16.09
554.747	16.22
554.943	16.33
555.14	16.49
555.336	16.58
555.533	16.68
555.729	16.71
555.926	16.77
556.122	16.86
556.318	16.96
556.515	17.05
556.711	17.12
556.907	17.22
557.104	17.35
557.3	17.38
557.496	17.44
557.693	17.51
557.889	17.57
558.085	17.69
558.281	17.79
558.478	17.86
558.674	17.98
558.87	18.18
559.066	18.28
559.262	18.37
559.459	18.54
559.655	18.71
559.851	18.77
560.047	18.84
560.243	18.94
560.439	19.09
560.635	19.15
560.831	19.1
561.027	19.22
561.223	19.33
561.419	19.36
561.615	19.22
561.811	19.25
562.007	19.37
562.203	19.57
562.399	19.51
562.595	19.39
562.791	19.49
562.987	19.71
563.183	19.68
563.379	19.8
563.575	19.9
563.771	20.15
563.966	20.23
564.162	20.23
564.358	20.41
564.554	20.56
564.75	20.7
564.945	20.83
565.141	20.94
565.337	21.06
565.533	21.06
565.728	21.17
565.924	21.19
566.12	21.24
566.315	21.36
566.511	21.35
566.707	21.41
566.902	21.44
567.098	21.46
567.293	21.47
567.489	21.45
567.684	21.56
567.88	21.61
568.076	21.72
568.271	21.73
568.467	21.75
568.662	21.89
568.858	21.93
569.053	22.12
569.248	22.24
569.444	22.33
569.639	22.56
569.835	22.6
570.03	22.65
570.225	22.74
570.421	22.89
570.616	22.98
570.812	23.05
571.007	23.08
571.202	23.14
571.397	23.11
571.593	23.25
571.788	23.29
571.983	23.35
572.178	23.4
572.374	23.48
572.569	23.52
572.764	23.59
572.959	23.63
573.154	23.72
573.35	23.75
573.545	23.88
573.74	23.88
573.935	23.79
574.13	23.91
574.325	23.93
574.52	24.1
574.715	24.15
574.91	24.26
575.105	24.3
575.3	24.43
575.495	24.48
575.69	24.6
575.885	24.67
576.08	24.9
576.275	24.96
576.47	25.11
576.665	25.1
576.86	25.29
577.055	25.3
577.25	25.38
577.444	25.55
577.639	25.62
577.834	25.64
578.029	25.79
578.224	25.96
578.418	26.04
578.613	26.08
578.808	26.08
579.003	26.11
579.197	26.13
579.392	26.19
579.587	26.1
579.781	26.26
579.976	26.25
580.171	26.3
580.365	26.12
580.56	26.34
580.755	26.47
580.949	26.45
581.144	26.42
581.338	26.51
581.533	26.63
581.727	26.66
581.922	26.58
582.116	26.7
582.311	26.61
582.505	26.61
582.7	26.49
582.894	26.52
583.089	26.65
583.283	26.81
583.478	26.85
583.672	26.79
583.866	26.95
584.061	27.01
584.255	26.92
584.449	27.05
584.644	26.96
584.838	27.09
585.032	27.07
585.226	27.11
585.421	27.08
585.615	27.15
585.809	27.24
586.003	27.3
586.198	27.47
586.392	27.52
586.586	27.48
586.78	27.71
586.974	27.76
587.168	27.85
587.363	27.79
587.557	27.72
587.751	27.76
587.945	27.69
588.139	27.67
588.333	27.72
588.527	27.88
588.721	27.9
588.915	28.04
589.109	27.97
589.303	28.13
589.497	28.2
589.691	28.22
589.885	28.15
590.079	28.25
590.273	28.2
590.466	28.2
590.66	28.17
590.854	28.26
591.048	28.32
591.242	28.31
591.436	28.24
591.629	28.29
591.823	28.49
592.017	28.8
592.211	28.8
592.404	29.02
592.598	28.87
592.792	28.81
592.986	28.73
593.179	28.71
593.373	28.64
593.567	28.72
593.76	28.74
593.954	28.66
594.147	28.46
594.341	28.42
594.535	28.18
594.728	28.39
594.922	28.5
595.115	28.71
595.309	28.64
595.502	28.63
595.696	28.55
595.889	28.55
596.083	28.55
596.276	28.53
596.47	28.61
596.663	28.57
596.856	28.56
597.05	28.64
597.243	28.62
597.437	28.64
597.63	28.75
597.823	28.76
598.017	28.81
598.21	28.84
598.403	28.92
598.596	28.97
598.79	29.29
598.983	29.29
599.176	29.33
599.369	29.29
599.563	29.35
599.756	29.37
599.949	29.35
600.142	29.42
600.335	29.48
600.528	29.54
600.722	29.66
600.915	29.6
601.108	29.68
601.301	29.43
601.494	29.42
601.687	29.46
601.88	29.57
602.073	29.72
602.266	29.56
602.459	29.42
602.652	29.41
602.845	29.26
603.038	29.09
603.231	29.09
603.424	29.18
603.617	29.27
603.809	29.28
604.002	29.18
604.195	29.14
604.388	29.36
604.581	29.49
604.774	29.56
604.966	29.58
605.159	29.66
605.352	29.73
605.545	29.78
605.737	29.71
605.93	29.7
606.123	29.74
606.316	29.66
606.508	29.54
606.701	29.54
606.894	29.44
607.086	29.7
607.279	29.95
607.471	29.89
607.664	29.96
607.857	30.05
608.049	30.37
608.242	30.54
608.434	30.89
608.627	31.16
608.819	31.43
609.012	31.78
609.204	31.97
609.397	32.2
609.589	32.6
609.782	33.18
609.974	33.66
610.166	33.88
610.359	34.38
610.551	34.73
610.743	35.07
610.936	35.45
611.128	35.86
611.32	36.02
611.513	36.19
611.705	36.21
611.897	36.05
612.09	35.91
612.282	35.74
612.474	35.49
612.666	35.17
612.858	34.87
613.051	34.53
613.243	34.17
613.435	33.89
613.627	33.81
613.819	33.67
614.011	33.53
614.203	33.5
614.395	33.52
614.588	33.36
614.78	33.38
614.972	33.2
615.164	33.18
615.356	33.15
615.548	33.06
615.74	32.81
615.932	32.6
616.124	32.35
616.315	31.92
616.507	31.75
616.699	31.58
616.891	31.32
617.083	31.27
617.275	31.02
617.467	30.8
617.659	30.96
617.85	30.88
618.042	30.97
618.234	30.89
618.426	31
618.618	31.1
618.809	31.23
619.001	31.29
619.193	31.26
619.384	31.24
619.576	31.23
619.768	31.04
619.959	30.88
620.151	30.84
620.343	30.79
620.534	30.86
620.726	30.72
620.917	30.53
621.109	30.54
621.301	30.7
621.492	30.96
621.684	30.99
621.875	30.95
622.067	31.22
622.258	31.26
622.45	31.51
622.641	31.48
622.832	31.47
623.024	31.56
623.215	31.6
623.407	31.47
623.598	31.33
623.789	31.25
623.981	31.36
624.172	31.19
624.363	31.17
624.555	31.17
624.746	31.13
624.937	31.17
625.129	31.14
625.32	31.02
625.511	31
625.702	31.03
625.893	31.09
626.085	31.07
626.276	31.01
626.467	31.03
626.658	30.99
626.849	31.1
627.04	31.07
627.231	31.1
627.422	31.28
627.614	31.18
627.805	31.12
627.996	31.12
628.187	31.03
628.378	31.14
628.569	31.16
628.76	31.23
628.951	31.28
629.142	31.36
629.332	31.41
629.523	31.37
629.714	31.57
629.905	31.66
630.096	31.88
630.287	32.09
630.478	32.07
630.669	31.93
630.859	31.93
631.05	31.74
631.241	31.71
631.432	31.71
631.623	31.69
631.813	31.58
632.004	31.54
632.195	31.48
632.385	31.25
632.576	31.37
632.767	31.42
632.957	31.37
633.148	31.54
633.339	31.42
633.529	31.45
633.72	31.42
633.91	31.57
634.101	31.54
634.292	31.41
634.482	31.49
634.673	31.33
634.863	31.21
635.054	31.08
635.244	31.01
635.435	30.97
635.625	30.87
635.815	30.95
636.006	30.95
636.196	31.01
636.387	30.9
636.577	31.08
636.767	31.08
636.958	31.28
637.148	31.34
637.338	31.28
637.529	31.34
637.719	31.33
637.909	31.18
638.099	31.02
638.29	30.93
638.48	31.06
638.67	30.87
638.86	30.87
639.05	30.9
639.241	31.07
639.431	31.03
639.621	31.02
639.811	31.07
640.001	30.93
640.191	31.09
640.381	31.12
640.571	30.84
640.761	30.83
640.951	30.73
641.141	30.63
641.331	30.48
641.521	30.4
641.711	30.59
641.901	30.59
642.091	30.82
642.281	30.6
642.471	30.62
642.661	30.83
642.851	30.87
643.041	31.1
643.231	31.1
643.42	31.19
643.61	31.39
643.8	31.4
643.99	31.37
644.18	31.38
644.369	31.59
644.559	31.55
644.749	31.59
644.939	31.58
645.128	31.72
645.318	31.7
645.508	31.73
645.697	31.49
645.887	31.39
646.076	31.45
646.266	31.29
646.456	31.32
646.645	31.28
646.835	31.18
647.024	30.94
647.214	30.88
647.403	30.75
647.593	30.63
647.782	30.73
647.972	30.81
648.161	30.87
648.351	31.01
648.54	30.96
648.73	31.19
648.919	31.18
649.108	31.58
649.298	31.51
649.487	31.61
649.677	31.52
649.866	31.6
650.055	31.56
650.244	31.4
650.434	31.52
650.623	31.39
650.812	31.29
651.002	31.48
651.191	31.28
651.38	31.23
651.569	31.36
651.758	31.44
651.947	31.55
652.137	31.53
652.326	31.75
652.515	31.68
652.704	31.72
652.893	31.66
653.082	31.51
653.271	31.72
653.46	31.71
653.649	31.39
653.838	31.39
654.027	31.35
654.216	31.22
654.405	31.12
654.594	31.19
654.783	31.33
654.972	31.23
655.161	31.14
655.35	30.77
655.539	30.73
655.728	30.87
655.916	31.14
656.105	31.09
656.294	31.09
656.483	31.14
656.672	30.95
656.86	30.7
657.049	30.74
657.238	30.63
657.427	30.92
657.615	30.97
657.804	31.21
657.993	30.98
658.181	30.95
658.37	30.95
658.559	30.84
658.747	30.92
658.936	31.1
659.125	31.24
659.313	31.28
659.502	31.2
659.69	31.35
659.879	31.15
660.067	31.15
660.256	31.2
660.444	31.27
660.633	31.46
660.821	31.5
661.01	31.56
661.198	31.39
661.387	31.59
661.575	31.58
661.763	31.37
661.952	31.44
662.14	31.6
662.328	31.6
662.517	31.6
662.705	31.29
662.893	31.12
663.082	31.21
663.27	31.43
663.458	31.44
663.646	31.78
663.834	31.88
664.023	31.92
664.211	31.91
664.399	31.89
664.587	31.9
664.775	32.25
664.963	32.46
665.152	32.32
665.34	32.13
665.528	32.03
665.716	31.87
665.904	31.71
666.092	31.88
666.28	31.7
666.468	31.55
666.656	31.54
666.844	31.46
667.032	31.29
667.22	31.48
667.408	31.7
667.596	31.83
667.784	31.54
667.971	31.74
668.159	31.58
668.347	31.84
668.535	32.07
668.723	32.24
668.911	32.22
669.098	32.05
669.286	31.62
669.474	31.38
669.662	31.52
669.849	31.57
670.037	31.66
670.225	31.41
670.413	31.31
670.6	30.95
670.788	30.97
670.976	30.88
671.163	31.22
671.351	31.33
671.538	31.64
671.726	31.34
671.913	31.36
672.101	31.13
672.289	31.38
672.476	31.19
672.664	31.31
672.851	31.17
673.039	31.24
673.226	31.29
673.413	31.37
673.601	31.19
673.788	31.46
673.976	31.42
674.163	31.57
674.35	31.78
674.538	32.01
674.725	32.06
674.912	32.01
675.1	32.1
675.287	31.97
675.474	32.01
675.662	32
675.849	31.99
676.036	32.25
676.223	32.15
676.411	31.87
676.598	31.7
676.785	31.67
676.972	31.66
677.159	31.49
677.346	31.46
677.533	31.46
677.721	31.6
677.908	31.37
678.095	31.19
678.282	31.06
678.469	31.04
678.656	31.32
678.843	31.49
679.03	31.74
679.217	31.92
679.404	31.75
679.591	31.68
679.778	31.49
679.964	31.54
680.151	31.43
680.338	31.6
680.525	31.49
680.712	31.25
680.899	31.26
681.086	31.05
681.272	30.72
681.459	30.76
681.646	30.86
681.833	30.78
682.02	30.61
682.206	30.84
682.393	30.76
682.58	31.05
682.766	31.26
682.953	31.31
683.14	31.47
683.326	31.63
683.513	31.89
683.7	32.02
683.886	31.88
684.073	32.08
684.259	31.87
684.446	31.8
684.632	31.52
684.819	31.18
685.005	31.04
685.192	31.04
685.378	31.26
685.565	31.16
685.751	31
685.938	31.25
686.124	31.16
686.31	31.21
686.497	31.39
686.683	31.54
686.87	31.72
687.056	31.88
687.242	31.67
687.429	31.34
687.615	31.43
687.801	31.57
687.987	31.49
688.174	31.56
688.36	31.87
688.546	31.85
688.732	31.96
688.918	31.94
689.105	31.65
689.291	31.78
689.477	32.03
689.663	31.85
689.849	31.63
690.035	31.74
690.221	31.64
690.407	31.42
690.593	31.4
690.779	31.35
690.965	31.55
691.151	31.59
691.337	31.55
691.523	31.34
691.709	31.36
691.895	31.36
692.081	31.49
692.267	31.92
692.453	32.11
692.639	31.93
692.825	31.97
693.011	31.71
693.196	31.6
693.382	31.52
693.568	31.91
693.754	31.62
693.94	31.81
694.125	31.42
694.311	30.99
694.497	30.52
694.682	30.81
694.868	30.9
695.054	31.23
695.239	31.36
695.425	31.45
695.611	31.38
695.796	31.7
695.982	31.39
696.168	31.76
696.353	31.58
696.539	31.81
696.724	31.59
696.91	31.47
697.095	31.26
697.281	31.28
697.466	31.38
697.652	31.05
697.837	30.7
698.023	30.73
698.208	30.41
698.393	30.28
698.579	30.33
698.764	30.31
698.949	30.21
699.135	30.09
699.32	30.14
699.505	29.84
699.691	30
699.876	30.18
700.061	30.45
700.246	30.66
700.432	31.11
700.617	30.91
700.802	30.79
700.987	31.02
701.172	31.02
701.358	30.86
701.543	30.87
701.728	30.76
701.913	30.67
702.098	30.61
702.283	30.87
702.468	30.75
702.653	31.04
702.838	31.52
703.023	31.22
703.208	31.12
703.393	31.25
703.578	31.46
703.763	31.4
703.948	31.5
704.133	31.4
704.318	31.11
704.503	31.18
704.688	30.89
704.873	30.79
705.057	31.2
705.242	31.42
705.427	31.53
705.612	32.04
705.797	32.32
705.981	32.4
706.166	32.4
706.351	32.54
706.536	32.93
706.72	33.26
706.905	33.25
707.09	33.21
707.274	33.45
707.459	33.48
707.644	33.38
707.828	33.64
708.013	34.17
708.197	33.81
708.382	33.85
708.567	33.37
708.751	33.26
708.936	33.32
709.12	33.16
709.305	32.96
709.489	32.9
709.673	32.79
709.858	32.72
710.042	32.43
710.227	32.72
710.411	32.52
710.596	32.79
710.78	32.76
710.964	32.8
711.149	33.07
711.333	33.16
711.517	33.04
711.702	33.1
711.886	33.03
712.07	33.13
712.254	32.91
712.438	32.75
712.623	32.5
712.807	32.35
712.991	32.18
713.175	31.68
713.359	31.45
713.544	31.31
713.728	31.16
713.912	30.87
714.096	30.41
714.28	30.59
714.464	30.71
714.648	30.43
714.832	30.21
715.016	30
715.2	30.17
715.384	30.23
715.568	30.55
715.752	30.48
715.936	30.49
716.12	30.55
716.304	30.74
716.488	30.53
716.671	30.98
716.855	30.94
717.039	31.27
717.223	31.19
717.407	31.24
717.59	31.22
717.774	31.16
717.958	31.78
718.142	31.83
718.325	31.26
718.509	31.81
718.693	31.49
718.877	32.03
719.06	31.78
719.244	31.55
719.428	31.1
719.611	30.73
719.795	31.23
719.978	30.43
720.162	30.97
720.345	31.39
720.529	30.88
720.713	31.23
720.896	31.18
721.08	31.37
721.263	31.95
721.446	32.47
721.63	32.87
721.813	32.17
721.997	32.11
722.18	31.87
722.364	31.69
722.547	32.21
722.73	32.5
722.914	32.13
723.097	31.79
723.28	31.65
723.464	31.39
723.647	31.15
723.83	31.41
724.013	32.19
724.197	31.85
724.38	31.83
724.563	31.64
724.746	31.54
724.929	31.89
725.112	32.43
725.296	32.25
725.479	32.51
725.662	32.8
725.845	33.06
726.028	32.74
726.211	32.76
726.394	32.6
726.577	32.31
726.76	32.06
726.943	31.89
727.126	31.77
727.309	31.81
727.492	31.44
727.675	31.34
727.858	30.94
728.041	30.94
728.224	31.03
728.407	31.47
728.589	31.49
728.772	30.83
728.955	30.83
729.138	30.8
729.321	30.21
729.503	30.73
729.686	30.86
729.869	30.97
730.052	30.73
730.234	30.57
730.417	29.88
730.6	30.3
730.782	30.63
730.965	30.29
731.148	30.22
731.33	30.67
731.513	30.47
731.695	30.27
731.878	30.13
732.061	29.69
732.243	29.89
732.426	30.32
732.608	30.36
732.791	30.42
732.973	30.74
733.156	30.53
733.338	30.63
733.52	30.72
733.703	30.83
733.885	30.96
734.068	31.66
734.25	31.79
734.432	31.77
734.615	31.48
734.797	31.62
734.979	31.43
735.162	31.61
735.344	32.04
735.526	32.04
735.708	31.8
735.891	31.54
736.073	31.16
736.255	31.47
736.437	31.67
736.619	31.72
736.802	31.61
736.984	32.17
737.166	31.98
737.348	31.56
737.53	31.78
737.712	31.98
737.894	32.94
738.076	33.35
738.258	32.65
738.44	32.58
738.622	32.12
738.804	32.61
738.986	31.91
739.168	31.75
739.35	31.3
739.532	31.01
739.714	31.23
739.896	30.97
740.078	31.21
740.259	31.36
740.441	30.98
740.623	31.06
740.805	30.24
740.987	30.82
741.168	30.91
741.35	31.29
741.532	31.4
741.714	30.59
741.895	29.98
742.077	29.73
742.259	29.22
742.44	29.66
742.622	30.16
742.804	30.45
742.985	30.1
743.167	29.95
743.348	30.62
743.53	30.84
743.711	30.75
743.893	30.47
744.075	30.56
744.256	31.17
744.438	31.34
744.619	31.42
744.8	31.17
744.982	30.9
745.163	30.89
745.345	30.2
745.526	30.08
745.707	31.06
745.889	31.62
746.07	30.68
746.252	30.83
746.433	31.3
746.614	31.67
746.795	31.69
746.977	32.33
747.158	32.86
747.339	32.76
747.52	32.4
747.702	31.73
747.883	31
748.064	32.21
748.245	31.82
748.426	31.16
748.607	30.53
748.788	31.05
748.97	30.46
749.151	30.48
749.332	30.37
749.513	30.89
749.694	31.62
749.875	32.55
750.056	31.84
750.237	32.34
750.418	32.98
750.599	32.56
750.78	32.67
750.96	33.16
751.141	33.1
751.322	33.07
751.503	32.84
751.684	32.82
751.865	32.58
752.046	32.72
752.226	32.74
752.407	32.19
752.588	32.35
752.769	32.66
752.949	32.85
753.13	32.79
753.311	32.77
753.492	32.42
753.672	31.55
753.853	31.43
754.034	31.15
754.214	30.11
754.395	29.87
754.575	30.03
754.756	29.42
754.937	29.48
755.117	29.45
755.298	30.12
755.478	30.41
755.659	30.61
755.839	30.98
756.02	31.45
756.2	31.91
756.381	31.82
756.561	31.87
756.741	31.98
756.922	31.91
757.102	31.61
757.283	31.28
757.463	31.37
757.643	31.55
757.823	31.59
758.004	31.35
758.184	31.6
758.364	31.39
758.545	31.66
758.725	31.46
758.905	31.2
759.085	31.71
759.265	31.51
759.446	31.29
759.626	31.64
759.806	31.49
759.986	31.42
760.166	31.23
760.346	32.01
760.526	32.04
760.706	32.22
760.886	32.46
761.066	32.36
761.246	32.7
761.426	32.84
761.606	32.16
761.786	32.27
761.966	32.47
762.146	32.41
762.326	32.04
762.506	31.44
762.686	31.08
762.866	30.99
763.046	31.04
763.225	30.94
763.405	30.86
763.585	31.03
763.765	30.54
763.945	30.15
764.124	30.34
764.304	30.23
764.484	30.52
764.664	30.63
764.843	30.45
765.023	30.4
765.203	30.53
765.382	30.31
765.562	30.34
765.741	30.6
765.921	30.63
766.101	30.61
766.28	30.57
766.46	30.32
766.639	30.81
766.819	31.22
766.998	31.09
767.178	30.53
767.357	30.43
767.537	30.3
767.716	30.42
767.896	30.7
768.075	30.86
768.254	31.11
768.434	31.15
768.613	30.92
768.792	30.26
768.972	30.29
769.151	29.82
769.33	29.6
769.51	29.86
769.689	29.18
769.868	28.84
770.047	28.88
770.226	28.68
770.406	29.31
770.585	29.28
770.764	29.15
770.943	29.33
771.122	30.41
771.301	31.49
771.48	31.31
771.66	32.56
771.839	33.1
772.018	32.81
772.197	32.77
772.376	32.74
772.555	32.47
772.734	33.46
772.913	33.65
773.092	33.18
773.271	33.06
773.449	32.18
773.628	31.45
773.807	30.55
773.986	30.56
774.165	30.86
774.344	30.25
774.523	30.37
774.701	31.07
774.88	30.8
775.059	31.03
775.238	31.72
775.417	33.05
775.595	33.66
775.774	34.93
775.953	35.16
776.131	35.22
776.31	35.1
776.489	35.26
776.667	34.1
776.846	33.93
777.025	34.55
777.203	34.05
777.382	34.48
777.56	33.77
777.739	34.15
777.917	33.63
778.096	33.38
778.274	33.92
778.453	34.05
778.631	33.84
778.81	33.85
778.988	33.21
779.166	33.44
779.345	33.1
779.523	33.59
779.702	32.89
779.88	32.42
780.058	33.15
780.237	33.24
780.415	32.59
780.593	32.58
780.771	33.08
780.95	32.42
781.128	31.91
781.306	31.63
781.484	31.1
781.662	30.8
781.841	30.61
782.019	29.98
782.197	29.67
782.375	30.42
782.553	30.47
782.731	30.15
782.909	31.47
783.087	30.84
783.265	30.47
783.443	30.38
783.621	29.76
783.799	30.76
783.977	30.92
784.155	32.34
784.333	32.63
784.511	33.23
784.689	32.7
784.867	32.63
785.045	32.93
785.223	33.85
785.4	34.04
785.578	35.66
785.756	36.53
785.934	35.29
786.112	33.39
786.289	32.89
786.467	32.24
786.645	33
786.823	32.13
787	31.86
787.178	30.88
787.356	31.23
787.533	30.44
787.711	29.67
787.889	30.54
788.066	31.26
788.244	32.04
788.421	31.84
788.599	30.72
788.776	31.29
788.954	31.53
789.131	32.35
789.309	32.36
789.486	31.74
789.664	31.29
789.841	31.58
790.019	30.86
790.196	29.52
790.373	29.58
790.551	31.06
790.728	30.93
790.906	31.14
791.083	30.63
791.26	30.11
791.437	30.98
791.615	31.84
791.792	32.57
791.969	33.11
792.146	33.83
792.324	34.27
792.501	33.74
792.678	33.81
792.855	34.09
793.032	34.06
793.209	33.95
793.387	32.95
793.564	33.53
793.741	32.53
793.918	32.38
794.095	32.54
794.272	33.18
794.449	33.65
794.626	34.24
794.803	34.74
794.98	35.19
795.157	35.55
795.334	35.82
795.511	34.9
795.688	35.3
795.864	35.88
796.041	35.69
796.218	35.25
796.395	34.63
796.572	35.02
796.749	34.78
796.925	34.57
797.102	34.5
797.279	34.45
797.456	34.09
797.632	33.49
797.809	33.58
797.986	33.64
798.162	33.08
798.339	32.69
798.516	31.24
798.692	31.25
798.869	30.86
799.046	30.41
799.222	31.13
799.399	31.72
799.575	32.47
799.752	31.65
799.928	31.28
800.105	30.7
800.281	30.86
800.458	31.98
800.634	31.32
800.811	30.68
800.987	31.63
801.163	32.12
801.34	32.79
801.516	32.85
801.692	32.83
801.869	33.13
802.045	35.32
802.221	35.82
802.398	35.9
802.574	36.66
802.75	38.17
802.926	38.37
803.103	38.29
803.279	37.05
803.455	36.57
803.631	37.35
803.807	37.68
803.983	36.58
804.16	36.06
804.336	35.88
804.512	34.79
804.688	34.3
804.864	34.69
805.04	33.9
805.216	34.64
805.392	35.29
805.568	35.28
805.744	35.71
805.92	37.1
806.096	37.4
806.272	36.98
806.448	37.41
806.623	37.89
806.799	37.02
806.975	37.5
807.151	37.76
807.327	37.37
807.503	36.29
807.678	33.98
807.854	32.55
808.03	33.67
808.206	33.08
808.381	33.81
808.557	33.69
808.733	33.85
808.908	34.06
809.084	33.47
809.26	33.71
809.435	33.54
809.611	35.59
809.787	35.94
809.962	35.01
810.138	35.39
810.313	33.38
810.489	33.27
810.664	32.84
810.84	33.28
811.015	34.12
811.191	34.62
811.366	35.95
811.542	34.77
811.717	34.38
811.892	36.04
812.068	35.58
812.243	35.61
812.419	35.65
812.594	37.23
812.769	37
812.944	36.95
813.12	35.67
813.295	36.2
813.47	36.9
813.645	38.54
813.821	35.94
813.996	36.45
814.171	38.67
814.346	39.35
814.521	38.31
814.697	38.03
814.872	36.84
815.047	36.55
815.222	34.76
815.397	35.8
815.572	33.75
815.747	34.27
815.922	34.76
816.097	33.06
816.272	31.38
816.447	31.8
816.622	32.28
816.797	33.15
816.972	33.89
817.147	35.48
817.322	35.07
817.496	35.92
817.671	35.74
817.846	35.68
818.021	35.98
818.196	37.41
818.371	36.8
818.545	35.41
818.72	34.65
818.895	34.07
819.069	32.69
819.244	31.93
819.419	30.98
819.594	30.91
819.768	30.25
819.943	31.53
820.117	30.61
820.292	29.93
820.467	29.6
820.641	29.01
820.816	28.74
820.99	28.46
821.165	28.45
821.339	28.3
821.514	28.39
821.688	28.15
821.863	27.39
822.037	27.2
822.212	26.98
822.386	26.76
822.56	26.75
822.735	26.56
822.909	26.53
823.084	26.21
823.258	26.13
823.432	25.92
823.606	25.94
823.781	26.04
823.955	26.06
824.129	26.12
824.303	26.47
824.478	26.48
824.652	26.85
824.826	27.05
825	27.52
825.174	27.86
825.348	27.67
825.523	27.71
825.697	28.56
825.871	28.79
826.045	28.82
826.219	28.26
826.393	28.83
826.567	28.49
826.741	28.62
826.915	27.77
827.089	27.22
827.263	27.48
827.437	27.19
827.611	26.23
827.784	26
827.958	26.52
828.132	27
828.306	26.74
828.48	26.9
828.654	27.16
828.827	28.02
829.001	28.61
829.175	28.6
829.349	29.79
829.522	30.69
829.696	31.64
829.87	31.53
830.044	31.28
830.217	33.4
830.391	33.75
830.565	33.49
830.738	33.92
830.912	33.9
831.085	34.81
831.259	34.57
831.432	34.37
831.606	33.9
831.779	34.47
831.953	35.19
832.126	31.92
832.3	32.53
832.473	32.15
832.647	31.46
832.82	31.8
832.994	31.52
833.167	30.47
833.34	29.89
833.514	29.53
833.687	29.11
833.86	29.02
834.034	29.18
834.207	29.07
834.38	28.56
834.553	29.16
834.727	29.2
834.9	28.45
835.073	29.1
835.246	30.08
835.419	30.33
835.593	30.28
835.766	30.18
835.939	30.32
836.112	29.93
836.285	30.02
836.458	29.69
836.631	30.11
836.804	32.25
836.977	32.86
837.15	30.84
837.323	31.13
837.496	31.52
837.669	32.32
837.842	34.37
838.015	34.7
838.188	36.6
838.361	37.5
838.533	37.52
838.706	36.46
838.879	34.38
839.052	37.69
839.225	37.59
839.398	38.37
839.57	38.07
839.743	37.75
839.916	38.5
840.088	39.01
840.261	38.52
840.434	39.23
840.607	38.83
840.779	39.73
840.952	39.12
841.124	39.36
841.297	37.86
841.47	37.43
841.642	37.15
841.815	36.23
841.987	34.56
842.16	35.84
842.332	35.13
842.505	36.86
842.677	37.97
842.85	36.72
843.022	38.41
843.194	39.34
843.367	40.75
843.539	41.96
843.712	42.48
843.884	42.66
844.056	44.44
844.229	47.49
844.401	48.64
844.573	49.16
844.745	49.39
844.918	45.21
845.09	46.55
845.262	45.67
845.434	45.36
845.606	45.82
845.779	48.14
845.951	45.05
846.123	41.43
846.295	37.78
846.467	38.32
846.639	40.83
846.811	42.57
846.983	43.46
847.155	47.07
847.327	46.47
847.499	49
847.671	47.13
847.843	49.62
848.015	49.92
848.187	53.73
848.359	52.47
848.531	53.91
848.703	56.14
848.875	52.68
849.047	50.45
849.218	50.22
849.39	49.56
849.562	51.54
849.734	50.09
849.905	51.04
850.077	54.64
850.249	56.39
850.421	52.21
850.592	54.08
850.764	58.42
850.936	59.62
851.107	62.74
851.279	60.96
851.451	60.6
851.622	62.47
851.794	60.92
851.965	55.66
852.137	55.27
852.308	59.76
852.48	61.16
852.651	59.5
852.823	57.66
852.994	56.61
853.166	59.52
853.337	62.78
853.509	60.48
853.68	62.43
853.851	65.17
854.023	68.37
854.194	65.92
854.365	63.49
854.537	62.11
854.708	63.8
854.879	63.45
855.05	62.69
855.222	62.24
855.393	61.4
855.564	61.67
855.735	60.72
855.906	60.92
856.078	61.73
856.249	61.67
856.42	62.95
856.591	67.7
856.762	70.99
856.933	72.3
857.104	69.68
857.275	73.37
857.446	73.26
857.617	72.62
857.788	68.02
857.959	68.39
858.13	67.94
858.301	68.26
858.472	64.26
858.643	60.16
858.814	55.44
858.985	55.24
859.155	53.13
859.326	55.69
859.497	55.93
859.668	56.84
859.839	53.73
860.009	52.76
860.18	55.5
860.351	49.02
860.522	51.13
860.692	57.3
860.863	60.17
861.034	57.83
861.204	51.64
861.375	50.6
861.546	51.82
861.716	54.17
861.887	57.26
862.057	56.03
862.228	61.77
862.398	59.67
862.569	53.78
862.739	52.14
862.91	54.4
863.08	62.45
863.251	58.96
863.421	59.42
863.592	59.93
863.762	59.31
863.932	56.98
864.103	53.5
864.273	52.83
864.443	54.67
864.614	54.78
864.784	56.02
864.954	46.93
865.125	49.74
865.295	49.91
865.465	45.52
865.635	44.59
865.805	45.45
865.976	48.57
866.146	47.51
866.316	46.57
866.486	46.08
866.656	42.21
866.826	48.54
866.996	48.31
867.166	48.19
867.336	50.75
867.506	48.12
867.676	43.63
867.846	45.64
868.016	48.04
868.186	46.4
868.356	45.9
868.526	49.68
868.696	56
868.866	60.71
869.036	58.7
869.206	59.8
869.376	62.15
869.545	67.41
869.715	61.42
869.885	62.16
870.055	62.59
870.224	63.08
870.394	62.95
870.564	61.37
870.734	62.13
870.903	62.71
871.073	60.43
871.243	60.81
871.412	59.67
871.582	59.41
871.751	63.54
871.921	63.47
872.091	62.81
872.26	61.07
872.43	54.14
872.599	54.39
872.769	55.36
872.938	55.61
873.108	54.35
873.277	52.8
873.446	54.52
873.616	51.86
873.785	53.57
873.955	56
874.124	56.38
874.293	55.55
874.463	49.4
874.632	44.03
874.801	49.29
874.971	49.48
875.14	51.58
875.309	51.11
875.478	50.34
875.647	53.74
875.817	54.49
875.986	59.5
876.155	64.82
876.324	68.77
876.493	69.49
876.662	66.84
876.831	69.43
877	71.83
877.17	70.31
877.339	68.16
877.508	63.54
877.677	60.43
877.846	56.72
878.015	54.77
878.184	48.4
878.352	48.56
878.521	46.64
878.69	42.27
878.859	41.34
879.028	44.25
879.197	44.21
879.366	43.19
879.534	44
879.703	40.91
879.872	36.39
880.041	37.36
880.21	36.47
880.378	37.22
880.547	35.84
880.716	34.16
880.884	31.48
881.053	30.58
881.222	30.14
881.39	28.93
881.559	28.79
881.727	28.94
881.896	28.79
882.065	28.47
882.233	27.65
882.402	28.13
882.57	28.37
882.739	28.9
882.907	28.71
883.076	27.73
883.244	28.26
883.412	28.35
883.581	29.16
883.749	29.42
883.918	29.48
884.086	30.51
884.254	29.71
884.423	29.58
884.591	29.57
884.759	31.19
884.927	33.52
885.096	33.52
885.264	36
885.432	35.28
885.6	35.96
885.769	38.48
885.937	37.49
886.105	40.6
886.273	40.71
886.441	42.46
886.609	41.55
886.777	40.65
886.945	44.77
887.113	45.63
887.281	47.48
887.449	47.28
887.617	44.83
887.785	46.64
887.953	47.03
888.121	47.17
888.289	47.31
888.457	47.29
888.625	45.17
888.793	39.07
888.961	41.7
889.129	39.72
889.296	40.36
889.464	41.17
889.632	40.45
889.8	39.11
889.967	40.85
890.135	39.97
