Data from 2938764__Reflection_01.txt Node
Date: Fri Mar 13 16:27:28 EDT 2015
User: robert
Spectrometer: USB4E03002
Autoset integration time: false
Trigger mode: 4
Integration Time (sec): 1.000000E-1
Scans to average: 10
Electric dark correction enabled: false
Nonlinearity correction enabled: false
Boxcar width: 5
Stray light correction enabled: false
XAxis mode: Wavelengths
Stop averaging: false
Number of Pixels in Spectrum: 3648
>>>>>Begin Spectral Data<<<<<
177.575	-108.33
177.794	-1000
178.014	-119.23
178.233	-20.13
178.452	-74.77
178.672	-57.91
178.891	0.51
179.11	13.77
179.33	2.42
179.549	-46.67
179.768	-19.39
179.987	-54.2
180.207	-32.2
180.426	-59.16
180.645	-380
180.864	-1176.19
181.084	315.73
181.303	318.39
181.522	105.31
181.741	77.4
181.96	158.51
182.179	84.07
182.398	107.85
182.618	66.79
182.837	66.28
183.056	73.54
183.275	21.91
183.494	25
183.713	19.19
183.932	27.39
184.151	21.62
184.37	30.66
184.589	46.76
184.808	49.17
185.027	52.04
185.246	33.3
185.465	10.32
185.684	23.24
185.903	-1.59
186.122	15.33
186.341	3.21
186.56	106.38
186.779	104.5
186.998	10.53
187.216	166.67
187.435	-56.35
187.654	420
187.873	32
188.092	2000
188.311	210.78
188.53	115.67
188.748	136.27
188.967	118.08
189.186	61.38
189.405	58.25
189.623	78.83
189.842	72.03
190.061	132.03
190.28	115.61
190.498	92.06
190.717	95.45
190.936	125.41
191.154	53.71
191.373	45.13
191.592	70.45
191.81	38.24
192.029	111.33
192.248	111.97
192.466	23.94
192.685	31.71
192.904	49.85
193.122	84.8
193.341	77.1
193.559	198.97
193.778	330
193.996	522.22
194.215	-297.56
194.433	103.45
194.652	-249.3
194.87	-134.24
195.089	-1221.05
195.307	394.64
195.526	-876.47
195.744	275.25
195.963	201.44
196.181	135.74
196.399	161.56
196.618	146.78
196.836	166.57
197.055	97.54
197.273	96.52
197.491	158.2
197.71	145.3
197.928	114.82
198.146	118.04
198.365	97.52
198.583	109.26
198.801	77.75
199.019	77.91
199.238	79.95
199.456	90.03
199.674	97.15
199.892	84.55
200.111	76.28
200.329	72.13
200.547	57.85
200.765	25.14
200.983	6.71
201.202	79.31
201.42	143.12
201.638	100.62
201.856	121.02
202.074	60.19
202.292	96.28
202.51	79.78
202.728	74.18
202.946	73.09
203.165	94.02
203.383	79.65
203.601	42.74
203.819	-8.54
204.037	-26.63
204.255	-10.35
204.473	-6.69
204.691	-32.63
204.909	-6.59
205.127	21.36
205.345	6.5
205.562	-20.6
205.78	29.71
205.998	57.4
206.216	72.66
206.434	97.84
206.652	107.69
206.87	163.27
207.088	223.22
207.306	934.92
207.523	466.96
207.741	429.55
207.959	278.53
208.177	269.42
208.395	117.65
208.612	73.09
208.83	66.43
209.048	66.73
209.266	46.67
209.483	10.81
209.701	-3.91
209.919	16.72
210.136	18.8
210.354	49.26
210.572	42.88
210.79	50.34
211.007	75.23
211.225	84.54
211.442	95.28
211.66	111.66
211.878	92.16
212.095	83.37
212.313	44.23
212.53	43.41
212.748	29.85
212.966	46.04
213.183	44.97
213.401	30.71
213.618	18.49
213.836	16.54
214.053	6.47
214.271	24.56
214.488	32.12
214.705	78.98
214.923	74.05
215.14	89.73
215.358	56.17
215.575	37.85
215.793	31.49
216.01	14.29
216.227	9.77
216.445	5.66
216.662	-4.7
216.879	-10.02
217.097	-3.08
217.314	-1.94
217.531	1.63
217.749	4.74
217.966	5.79
218.183	7.03
218.4	11.13
218.618	8.27
218.835	12.93
219.052	16.33
219.269	32.9
219.487	33.09
219.704	24.72
219.921	19.73
220.138	17.71
220.355	0.67
220.572	2.24
220.79	16.02
221.007	14.15
221.224	6.02
221.441	-3.89
221.658	-11.55
221.875	-13.68
222.092	-11.78
222.309	-6.37
222.526	-3.67
222.743	-0.34
222.96	0.72
223.177	-2.25
223.394	-4.14
223.611	2.45
223.828	2.54
224.045	4.86
224.262	4.04
224.479	9.82
224.696	10.53
224.913	9.71
225.13	10.26
225.347	16.11
225.564	11.87
225.781	12.46
225.997	12.24
226.214	14.98
226.431	12.23
226.648	10.14
226.865	11.32
227.082	10.99
227.298	11.16
227.515	11.33
227.732	8.23
227.949	8.78
228.165	8.78
228.382	7.54
228.599	7.35
228.816	8.69
229.032	8.79
229.249	7.4
229.466	7.05
229.682	7.37
229.899	7.15
230.116	6.48
230.332	6.98
230.549	6.78
230.765	6.68
230.982	6.71
231.199	6.73
231.415	7.66
231.632	8.82
231.848	9.65
232.065	10.3
232.281	10.61
232.498	13.28
232.714	12.37
232.931	13.04
233.147	15.23
233.364	13.58
233.58	9.46
233.797	8.13
234.013	7.76
234.23	5.88
234.446	4.4
234.662	4.24
234.879	2.86
235.095	2.87
235.312	3.51
235.528	0.95
235.744	1.85
235.961	3.39
236.177	3.24
236.393	4.56
236.61	5.83
236.826	6.75
237.042	8.22
237.258	9.27
237.475	9.88
237.691	8.22
237.907	7.76
238.123	8.83
238.339	10.38
238.556	11.48
238.772	10.07
238.988	9.61
239.204	8.36
239.42	6.77
239.636	6.37
239.853	5.14
240.069	6.16
240.285	7.24
240.501	7.71
240.717	7.16
240.933	7.08
241.149	6.02
241.365	5.96
241.581	5.67
241.797	5.64
242.013	5.8
242.229	5.91
242.445	5.66
242.661	5.94
242.877	5.77
243.093	5.2
243.309	4.91
243.525	5.65
243.741	6.06
243.957	6.58
244.173	6.74
244.388	6.72
244.604	6.77
244.82	7.35
245.036	7.25
245.252	6.91
245.468	7.36
245.683	7.29
245.899	7.11
246.115	6.77
246.331	6.53
246.547	6.55
246.762	6.24
246.978	6.73
247.194	6.37
247.409	6.49
247.625	6.58
247.841	6.61
248.057	6.38
248.272	6.29
248.488	5.89
248.703	5.94
248.919	5.75
249.135	5.3
249.35	4.6
249.566	4.78
249.782	4.01
249.997	3.21
250.213	3.15
250.428	3.06
250.644	4
250.859	4.76
251.075	4.72
251.29	4.47
251.506	5.35
251.721	5.18
251.937	5.2
252.152	5.01
252.368	5.07
252.583	5.02
252.798	5.81
253.014	5.62
253.229	6.06
253.445	6.06
253.66	6.29
253.875	6.42
254.091	6.37
254.306	6.35
254.521	6.85
254.737	7.87
254.952	6.88
255.167	6.16
255.383	5.06
255.598	4.51
255.813	3.86
256.028	4.96
256.244	4.66
256.459	4.83
256.674	4.13
256.889	4.23
257.104	4.3
257.32	5.62
257.535	4.89
257.75	4.88
257.965	4.39
258.18	4.78
258.395	4.34
258.61	4.15
258.826	4.34
259.041	4.14
259.256	4.17
259.471	3.71
259.686	3.65
259.901	4.02
260.116	4.13
260.331	4.11
260.546	3.88
260.761	3.96
260.976	4.07
261.191	3.83
261.406	4.42
261.621	4.51
261.836	4.75
262.05	4.42
262.265	4.14
262.48	3.99
262.695	4.26
262.91	4.38
263.125	4.11
263.34	4.55
263.555	4.68
263.769	4.31
263.984	3.73
264.199	3.71
264.414	3.9
264.629	3.76
264.843	3.59
265.058	4.21
265.273	4.35
265.488	4.39
265.702	3.99
265.917	4.1
266.132	4.19
266.346	4.71
266.561	4.17
266.776	4.35
266.99	4.3
267.205	4
267.42	3.48
267.634	3.39
267.849	3.39
268.063	3.69
268.278	3.82
268.492	3.04
268.707	2.47
268.922	3.04
269.136	3.12
269.351	3.22
269.565	3.51
269.78	3.78
269.994	3.9
270.209	3.98
270.423	3.75
270.637	3.52
270.852	4.15
271.066	4.43
271.281	4.21
271.495	4.18
271.709	4.19
271.924	3.99
272.138	3.98
272.353	3.85
272.567	3.75
272.781	4.04
272.996	3.8
273.21	3.8
273.424	3.68
273.638	3.64
273.853	3.36
274.067	3.84
274.281	4.12
274.495	3.8
274.71	3.74
274.924	3.59
275.138	3.13
275.352	3.32
275.566	2.96
275.781	3.12
275.995	2.99
276.209	3.11
276.423	2.85
276.637	2.78
276.851	2.7
277.065	2.95
277.279	2.61
277.493	2.29
277.707	2.33
277.921	2.4
278.135	2.27
278.349	2.32
278.563	2.94
278.777	2.82
278.991	3.06
279.205	3.15
279.419	2.64
279.633	3.44
279.847	3.79
280.061	3.72
280.275	3.64
280.489	3.58
280.703	4
280.917	3.34
281.131	3.01
281.344	2.61
281.558	2.64
281.772	2.92
281.986	2.66
282.2	2.65
282.414	2.65
282.627	3.07
282.841	3.22
283.055	3.24
283.269	3.41
283.482	3.31
283.696	3.6
283.91	3.82
284.123	3.65
284.337	3.5
284.551	3.53
284.764	3.64
284.978	3.44
285.192	3.26
285.405	3.3
285.619	3.2
285.833	3.52
286.046	3.52
286.26	3.16
286.473	3.34
286.687	3.53
286.9	3.58
287.114	3.57
287.327	3.5
287.541	3.38
287.754	3.24
287.968	3.48
288.181	3.37
288.395	3.15
288.608	3.65
288.822	3.57
289.035	3.53
289.248	3.02
289.462	3.09
289.675	3.26
289.889	3.7
290.102	3.31
290.315	3.14
290.529	3.18
290.742	3.3
290.955	3.08
291.169	2.97
291.382	2.78
291.595	2.87
291.808	2.84
292.022	2.3
292.235	1.85
292.448	2.31
292.661	2.23
292.875	2.35
293.088	2.14
293.301	2.11
293.514	2.29
293.727	2.31
293.94	2.6
294.153	2.62
294.367	2.85
294.58	3.15
294.793	3.06
295.006	3.19
295.219	2.88
295.432	2.91
295.645	2.65
295.858	2.76
296.071	2.77
296.284	2.89
296.497	3.03
296.71	3.06
296.923	3.05
297.136	3.24
297.349	3.27
297.562	3.42
297.775	3.49
297.988	3.85
298.201	3.87
298.414	4.22
298.626	4.15
298.839	4.1
299.052	4.03
299.265	4.13
299.478	3.82
299.691	3.71
299.903	3.97
300.116	3.78
300.329	3.69
300.542	3.47
300.755	3.18
300.967	2.83
301.18	2.76
301.393	3.18
301.605	2.86
301.818	2.62
302.031	2.5
302.243	2.27
302.456	2.5
302.669	2.46
302.881	2.82
303.094	2.81
303.307	3.15
303.519	2.97
303.732	2.67
303.944	3.04
304.157	3.65
304.37	3.64
304.582	3.75
304.795	3.81
305.007	4.22
305.22	4.25
305.432	4.08
305.645	4.23
305.857	4.39
306.069	4.87
306.282	4.74
306.494	4.61
306.707	4.84
306.919	4.58
307.132	4.51
307.344	3.95
307.556	3.84
307.769	4.25
307.981	3.96
308.193	4.21
308.406	3.98
308.618	4.11
308.83	3.88
309.043	3.66
309.255	3.81
309.467	3.8
309.679	3.76
309.892	3.78
310.104	3.68
310.316	3.91
310.528	3.82
310.74	3.83
310.953	3.91
311.165	4.17
311.377	4.29
311.589	4.32
311.801	4.44
312.013	4.5
312.225	4.88
312.437	5.15
312.649	5.15
312.862	5.01
313.074	5.09
313.286	4.84
313.498	4.87
313.71	5.02
313.922	5.15
314.134	5.27
314.346	5.4
314.558	4.91
314.77	4.94
314.982	4.83
315.193	4.73
315.405	4.6
315.617	4.66
315.829	4.57
316.041	4.93
316.253	4.63
316.465	4.61
316.677	4.73
316.888	4.97
317.1	4.61
317.312	4.7
317.524	4.89
317.736	5.21
317.947	5.04
318.159	5.27
318.371	5
318.583	5.6
318.794	5.51
319.006	5.77
319.218	5.42
319.43	5.59
319.641	5.97
319.853	6.64
320.064	6.68
320.276	7.29
320.488	6.8
320.699	6.86
320.911	6.5
321.123	6.77
321.334	6.54
321.546	7
321.757	7.45
321.969	7.2
322.18	7.07
322.392	6.54
322.603	6.42
322.815	7.05
323.026	6.82
323.238	6.6
323.449	6.61
323.661	6.54
323.872	6.32
324.083	6.2
324.295	6.48
324.506	6.37
324.718	6.57
324.929	6.63
325.14	6.75
325.352	7.1
325.563	7.36
325.774	7.65
325.986	7.91
326.197	8.09
326.408	8
326.62	8.11
326.831	7.96
327.042	8.49
327.253	8.61
327.464	8.69
327.676	8.93
327.887	9.07
328.098	9.29
328.309	9.78
328.52	10.07
328.732	10.19
328.943	10.31
329.154	10.37
329.365	10.5
329.576	10.88
329.787	10.86
329.998	10.98
330.209	10.91
330.42	10.88
330.631	10.96
330.842	10.76
331.053	10.94
331.264	10.83
331.475	11.28
331.686	11.53
331.897	11.23
332.108	11.29
332.319	11.23
332.53	11.27
332.741	11.2
332.952	10.99
333.163	10.98
333.374	11.22
333.585	11.63
333.795	11.33
334.006	10.94
334.217	11.24
334.428	11.4
334.639	11.18
334.849	11.54
335.06	11.58
335.271	11.6
335.482	12.08
335.692	11.59
335.903	11.48
336.114	12.12
336.325	12.29
336.535	12.05
336.746	12.06
336.957	12.05
337.167	12.07
337.378	12.35
337.589	12.47
337.799	12.23
338.01	12.76
338.22	12.49
338.431	12.27
338.642	12.22
338.852	12.46
339.063	12.34
339.273	12.83
339.484	12.55
339.694	12.25
339.905	12.18
340.115	12.53
340.326	12.29
340.536	12.66
340.746	12.72
340.957	12.93
341.167	12.92
341.378	12.81
341.588	12.51
341.799	12.74
342.009	12.68
342.219	12.91
342.43	12.45
342.64	12.57
342.85	12.33
343.061	12.44
343.271	12.14
343.481	12.11
343.691	12.26
343.902	12.38
344.112	12.45
344.322	12.49
344.532	12.18
344.743	12.48
344.953	12.29
345.163	12.21
345.373	12.13
345.583	12.33
345.793	12.21
346.004	12.15
346.214	12.25
346.424	12.15
346.634	12.29
346.844	12.42
347.054	12.18
347.264	12.5
347.474	12.43
347.684	12.23
347.894	12.31
348.104	12.54
348.314	12.41
348.524	11.89
348.734	11.65
348.944	11.37
349.154	11.12
349.364	11.15
349.574	10.83
349.784	11.1
349.994	10.87
350.204	10.75
350.413	10.63
350.623	10.65
350.833	10.89
351.043	11.31
351.253	11.22
351.463	11.25
351.672	11.31
351.882	11.37
352.092	11.36
352.302	11.74
352.511	11.8
352.721	11.78
352.931	12.1
353.141	12.09
353.35	11.84
353.56	12.14
353.77	12.12
353.979	12.17
354.189	12.34
354.399	12.43
354.608	12.78
354.818	12.51
355.027	12.5
355.237	12.32
355.447	12.51
355.656	12.68
355.866	12.63
356.075	12.68
356.285	12.55
356.494	12.33
356.704	12.17
356.913	11.95
357.123	12.08
357.332	11.97
357.542	11.87
357.751	11.79
357.96	11.72
358.17	11.58
358.379	11.74
358.589	11.7
358.798	11.73
359.007	11.68
359.217	11.41
359.426	11.34
359.635	11.27
359.845	11.28
360.054	11.3
360.263	11.13
360.472	11.17
360.682	10.97
360.891	10.82
361.1	10.75
361.309	10.82
361.519	10.92
361.728	10.67
361.937	10.63
362.146	10.53
362.355	10.5
362.564	10.5
362.774	10.68
362.983	10.62
363.192	10.74
363.401	10.8
363.61	10.63
363.819	10.56
364.028	10.57
364.237	10.55
364.446	10.72
364.655	10.5
364.864	10.52
365.073	10.18
365.282	10.42
365.491	10.26
365.7	10.44
365.909	10.6
366.118	10.48
366.327	10.6
366.536	10.71
366.745	10.6
366.954	10.84
367.162	10.93
367.371	11.02
367.58	11.02
367.789	11.32
367.998	10.95
368.207	10.92
368.415	10.9
368.624	10.97
368.833	10.54
369.042	10.42
369.25	10.28
369.459	10.23
369.668	10.1
369.877	9.93
370.085	9.62
370.294	9.85
370.503	9.7
370.711	9.63
370.92	9.54
371.129	10.21
371.337	10.31
371.546	10.45
371.754	10.13
371.963	10.18
372.171	10.14
372.38	10.21
372.589	10.15
372.797	10.4
373.006	10.62
373.214	10.87
373.423	10.65
373.631	10.67
373.84	10.47
374.048	10.73
374.256	10.58
374.465	10.5
374.673	10.56
374.882	10.47
375.09	10.37
375.298	10.06
375.507	9.95
375.715	9.95
375.923	9.83
376.132	9.73
376.34	9.72
376.548	9.87
376.757	10.01
376.965	10
377.173	10.01
377.381	9.96
377.59	10
377.798	10.03
378.006	9.8
378.214	9.72
378.423	9.66
378.631	9.57
378.839	9.49
379.047	9.26
379.255	9.37
379.463	9.42
379.671	9.17
379.879	9.23
380.088	9.12
380.296	9.37
380.504	9.52
380.712	9.72
380.92	9.69
381.128	9.62
381.336	9.62
381.544	9.37
381.752	9.15
381.96	9.2
382.168	9.09
382.376	8.98
382.584	8.87
382.791	8.77
382.999	8.78
383.207	9.02
383.415	8.98
383.623	9.05
383.831	9.01
384.039	9.24
384.247	9.35
384.454	9.41
384.662	9.43
384.87	9.37
385.078	9.31
385.285	9.07
385.493	8.92
385.701	8.8
385.909	8.56
386.116	8.67
386.324	8.36
386.532	8.24
386.739	8.29
386.947	8.39
387.155	8.23
387.362	8.43
387.57	8.5
387.778	8.38
387.985	8.56
388.193	8.73
388.4	8.42
388.608	8.52
388.816	8.39
389.023	8.29
389.231	8.38
389.438	8.53
389.646	8.25
389.853	8
390.061	8.13
390.268	7.94
390.475	8.04
390.683	8.28
390.89	8.13
391.098	8.26
391.305	8.14
391.512	7.99
391.72	7.84
391.927	7.94
392.135	7.9
392.342	7.81
392.549	7.93
392.756	7.67
392.964	7.51
393.171	7.62
393.378	7.58
393.586	7.68
393.793	7.62
394	7.78
394.207	7.78
394.414	8.02
394.622	7.98
394.829	7.95
395.036	8.04
395.243	8.02
395.45	7.98
395.657	8.06
395.864	8.01
396.072	7.91
396.279	7.82
396.486	7.74
396.693	7.57
396.9	7.46
397.107	7.54
397.314	7.59
397.521	7.64
397.728	7.75
397.935	7.59
398.142	7.67
398.349	7.76
398.556	7.52
398.763	7.74
398.97	7.79
399.177	7.88
399.383	7.72
399.59	7.62
399.797	7.59
400.004	7.5
400.211	7.51
400.418	7.42
400.625	7.31
400.831	7.63
401.038	7.46
401.245	7.44
401.452	7.33
401.658	7.26
401.865	7.32
402.072	7.49
402.279	7.44
402.485	7.33
402.692	7.53
402.899	7.55
403.105	7.26
403.312	7.16
403.519	7.19
403.725	7.29
403.932	7.42
404.138	7.33
404.345	7.15
404.552	7.17
404.758	7.26
404.965	7.08
405.171	7
405.378	7.05
405.584	7.11
405.791	7.08
405.997	7.04
406.204	7.05
406.41	7.14
406.617	7.23
406.823	7.23
407.029	7.18
407.236	7.07
407.442	7
407.649	7.12
407.855	7.16
408.061	7.13
408.268	7.15
408.474	7.08
408.68	7.15
408.887	7.19
409.093	7.18
409.299	7.32
409.505	7.23
409.712	7.27
409.918	7.2
410.124	7.06
410.33	7.04
410.537	6.89
410.743	6.87
410.949	6.59
411.155	6.38
411.361	6.45
411.567	6.18
411.773	6.51
411.98	6.7
412.186	6.72
412.392	6.7
412.598	6.57
412.804	6.76
413.01	6.78
413.216	7.01
413.422	7.07
413.628	7.08
413.834	7.41
414.04	7.17
414.246	7
414.452	6.96
414.658	6.97
414.864	7.1
415.07	7.1
415.275	7.13
415.481	7.17
415.687	7.22
415.893	7.05
416.099	6.85
416.305	6.79
416.511	6.79
416.716	6.71
416.922	6.71
417.128	6.71
417.334	6.66
417.539	6.64
417.745	6.67
417.951	6.67
418.157	6.62
418.362	6.76
418.568	6.88
418.774	6.95
418.979	7.02
419.185	7.01
419.391	6.98
419.596	6.98
419.802	6.93
420.008	6.84
420.213	7.49
420.419	7.53
420.624	7.37
420.83	7.34
421.035	7.33
421.241	7.26
421.446	7.26
421.652	7.24
421.857	7.21
422.063	7.23
422.268	7.25
422.474	6.63
422.679	6.62
422.885	6.52
423.09	6.48
423.295	6.49
423.501	6.52
423.706	6.59
423.911	6.62
424.117	6.6
424.322	6.54
424.527	6.48
424.733	6.46
424.938	6.47
425.143	6.58
425.349	6.61
425.554	6.5
425.759	6.47
425.964	6.41
426.169	6.41
426.375	6.41
426.58	6.45
426.785	6.48
426.99	6.52
427.195	6.49
427.4	6.65
427.605	6.6
427.811	6.61
428.016	6.72
428.221	6.71
428.426	6.72
428.631	6.75
428.836	6.73
429.041	6.7
429.246	6.65
429.451	6.66
429.656	6.55
429.861	6.62
430.066	6.71
430.271	6.64
430.476	6.59
430.681	6.61
430.886	6.54
431.09	6.57
431.295	6.56
431.5	6.59
431.705	6.62
431.91	6.59
432.115	6.56
432.32	6.49
432.524	6.48
432.729	6.52
432.934	6.49
433.139	6.54
433.343	6.43
433.548	6.47
433.753	6.45
433.958	6.49
434.162	6.63
434.367	6.68
434.572	6.65
434.776	6.74
434.981	6.81
435.186	6.77
435.39	6.86
435.595	7.02
435.799	6.91
436.004	6.99
436.209	6.95
436.413	6.81
436.618	6.76
436.822	6.86
437.027	6.88
437.231	6.83
437.436	6.85
437.64	6.8
437.845	6.81
438.049	6.96
438.253	6.96
438.458	7.02
438.662	7.03
438.867	7.02
439.071	6.96
439.275	6.88
439.48	6.89
439.684	6.93
439.888	6.9
440.093	6.84
440.297	6.82
440.501	6.77
440.706	6.66
440.91	6.67
441.114	6.75
441.318	6.8
441.523	6.8
441.727	6.86
441.931	6.83
442.135	6.84
442.339	6.88
442.543	6.8
442.748	6.83
442.952	6.95
443.156	7.06
443.36	7.03
443.564	7.06
443.768	7.12
443.972	7.12
444.176	7.07
444.38	7.09
444.584	7.13
444.788	7.11
444.992	7.13
445.196	7.1
445.4	7.02
445.604	7
445.808	6.98
446.012	6.96
446.216	6.92
446.42	6.93
446.624	6.99
446.828	6.92
447.032	6.99
447.235	6.96
447.439	6.96
447.643	6.96
447.847	6.97
448.051	7
448.254	7.05
448.458	7.02
448.662	7.02
448.866	6.92
449.069	6.96
449.273	6.92
449.477	6.98
449.681	6.97
449.884	7
450.088	6.95
450.292	6.86
450.495	6.78
450.699	6.78
450.902	6.84
451.106	6.91
451.31	6.93
451.513	7.06
451.717	7.13
451.92	7.11
452.124	7.04
452.327	7.09
452.531	7.16
452.734	7.12
452.938	7.05
453.141	7.04
453.345	7.02
453.548	7
453.752	6.81
453.955	6.67
454.158	6.72
454.362	6.77
454.565	6.75
454.769	6.75
454.972	6.69
455.175	6.77
455.379	6.72
455.582	6.74
455.785	6.73
455.988	6.87
456.192	6.8
456.395	6.77
456.598	6.75
456.801	6.73
457.005	6.76
457.208	6.91
457.411	6.99
457.614	7.06
457.817	7.04
458.021	7.05
458.224	7.04
458.427	7.05
458.63	7.02
458.833	7.08
459.036	7.15
459.239	7.12
459.442	6.99
459.645	7
459.848	6.96
460.051	6.99
460.254	7
460.457	7.02
460.66	7.08
460.863	7.16
461.066	7.11
461.269	7.04
461.472	7.08
461.675	7.17
461.878	7.15
462.081	7.1
462.284	7.03
462.486	6.95
462.689	6.99
462.892	6.99
463.095	6.88
463.298	6.81
463.5	6.83
463.703	6.84
463.906	6.86
464.109	6.86
464.311	6.98
464.514	6.96
464.717	7.05
464.92	6.95
465.122	7.06
465.325	7.06
465.528	7.15
465.73	7.16
465.933	7.12
466.135	7.15
466.338	7.09
466.541	7.02
466.743	7.04
466.946	7.02
467.148	7.12
467.351	7.06
467.553	6.98
467.756	6.97
467.958	7.08
468.161	7.05
468.363	7.06
468.566	7.06
468.768	7.18
468.971	7.3
469.173	7.4
469.375	7.34
469.578	7.41
469.78	7.5
469.983	7.37
470.185	7.36
470.387	7.4
470.59	7.38
470.792	7.47
470.994	7.49
471.196	7.41
471.399	7.41
471.601	7.33
471.803	7.24
472.005	7.31
472.208	7.46
472.41	7.41
472.612	7.38
472.814	7.32
473.016	7.33
473.218	7.29
473.421	7.27
473.623	7.19
473.825	7.23
474.027	7.21
474.229	7.23
474.431	7.24
474.633	7.2
474.835	7.16
475.037	7.25
475.239	7.2
475.441	7.11
475.643	7.15
475.845	7.14
476.047	7.13
476.249	7.18
476.451	7.24
476.653	7.19
476.855	7.25
477.057	7.32
477.258	7.3
477.46	7.32
477.662	7.37
477.864	7.39
478.066	7.36
478.268	7.37
478.469	7.28
478.671	7.23
478.873	7.19
479.075	7.2
479.276	7.13
479.478	7.04
479.68	7.08
479.882	7.03
480.083	6.95
480.285	6.95
480.487	6.89
480.688	6.99
480.89	6.98
481.091	7
481.293	6.95
481.495	6.96
481.696	7.02
481.898	6.99
482.099	7.01
482.301	7.04
482.502	7.06
482.704	7.06
482.905	7.02
483.107	6.99
483.308	7.01
483.51	7.04
483.711	7.04
483.913	7.03
484.114	7.03
484.315	7.04
484.517	7.01
484.718	7.01
484.92	7.03
485.121	7.05
485.322	7.06
485.524	7.06
485.725	7.07
485.926	7.09
486.127	7.1
486.329	7.15
486.53	7.1
486.731	7.1
486.932	7.1
487.134	7.08
487.335	7.1
487.536	7.09
487.737	7.09
487.938	7.09
488.139	7.07
488.341	7.08
488.542	7.02
488.743	7.05
488.944	7.1
489.145	7.12
489.346	7.18
489.547	7.12
489.748	7.19
489.949	7.18
490.15	7.13
490.351	7.12
490.552	7.11
490.753	7.17
490.954	7.18
491.155	7.18
491.356	7.22
491.557	7.18
491.758	7.24
491.959	7.2
492.159	7.23
492.36	7.3
492.561	7.38
492.762	7.42
492.963	7.41
493.164	7.4
493.364	7.43
493.565	7.36
493.766	7.4
493.967	7.39
494.167	7.41
494.368	7.42
494.569	7.38
494.769	7.39
494.97	7.4
495.171	7.38
495.371	7.48
495.572	7.48
495.773	7.58
495.973	7.65
496.174	7.68
496.375	7.65
496.575	7.59
496.776	7.64
496.976	7.64
497.177	7.61
497.377	7.67
497.578	7.69
497.778	7.73
497.979	7.7
498.179	7.68
498.38	7.72
498.58	7.83
498.78	7.93
498.981	7.97
499.181	8
499.382	8.09
499.582	8.14
499.782	8.19
499.983	8.26
500.183	8.32
500.383	8.3
500.584	8.28
500.784	8.32
500.984	8.33
501.184	8.46
501.385	8.45
501.585	8.41
501.785	8.31
501.985	8.3
502.185	8.34
502.386	8.39
502.586	8.52
502.786	8.59
502.986	8.62
503.186	8.7
503.386	8.67
503.586	8.66
503.786	8.72
503.987	8.87
504.187	8.93
504.387	8.88
504.587	8.88
504.787	8.82
504.987	8.87
505.187	8.79
505.387	8.78
505.587	8.76
505.786	8.88
505.986	8.96
506.186	9
506.386	8.93
506.586	9.09
506.786	9.08
506.986	9.17
507.186	9.19
507.386	9.4
507.585	9.45
507.785	9.53
507.985	9.47
508.185	9.52
508.384	9.57
508.584	9.64
508.784	9.65
508.984	9.69
509.183	9.73
509.383	9.84
509.583	9.85
509.782	9.88
509.982	9.84
510.182	9.96
510.381	9.95
510.581	9.95
510.781	10
510.98	10.07
511.18	10.17
511.379	10.16
511.579	10.19
511.778	10.23
511.978	10.26
512.177	10.4
512.377	10.53
512.576	10.56
512.776	10.57
512.975	10.63
513.175	10.57
513.374	10.62
513.573	10.79
513.773	10.78
513.972	10.79
514.172	10.89
514.371	10.96
514.57	10.89
514.77	10.96
514.969	11.02
515.168	11.1
515.367	11.25
515.567	11.33
515.766	11.34
515.965	11.52
516.164	11.59
516.364	11.67
516.563	11.71
516.762	11.84
516.961	11.84
517.16	11.96
517.359	12.05
517.559	12.11
517.758	12.19
517.957	12.2
518.156	12.23
518.355	12.31
518.554	12.39
518.753	12.45
518.952	12.5
519.151	12.67
519.35	12.75
519.549	12.77
519.748	12.77
519.947	12.77
520.146	12.86
520.345	12.84
520.544	12.9
520.743	12.95
520.942	13
521.141	13.1
521.339	13.23
521.538	13.36
521.737	13.48
521.936	13.72
522.135	13.78
522.333	13.87
522.532	13.95
522.731	13.99
522.93	14.08
523.129	14.18
523.327	14.24
523.526	14.17
523.725	14.21
523.923	14.3
524.122	14.38
524.321	14.53
524.519	14.63
524.718	14.73
524.917	14.84
525.115	14.88
525.314	14.93
525.512	14.91
525.711	15.07
525.909	15.12
526.108	15.14
526.306	15.14
526.505	15.26
526.703	15.32
526.902	15.38
527.1	15.41
527.299	15.43
527.497	15.5
527.696	15.61
527.894	15.62
528.092	15.65
528.291	15.69
528.489	15.75
528.688	15.79
528.886	15.82
529.084	15.84
529.283	15.88
529.481	15.96
529.679	15.99
529.877	15.99
530.076	16.04
530.274	16.09
530.472	16.16
530.67	16.18
530.869	16.22
531.067	16.3
531.265	16.39
531.463	16.49
531.661	16.58
531.859	16.67
532.057	16.75
532.255	16.81
532.454	16.9
532.652	16.95
532.85	17.04
533.048	17.07
533.246	17.15
533.444	17.21
533.642	17.2
533.84	17.23
534.038	17.27
534.236	17.34
534.434	17.36
534.632	17.42
534.83	17.5
535.027	17.56
535.225	17.62
535.423	17.64
535.621	17.73
535.819	17.86
536.017	17.91
536.215	17.97
536.412	18.07
536.61	18.15
536.808	18.18
537.006	18.16
537.203	18.2
537.401	18.29
537.599	18.37
537.797	18.42
537.994	18.46
538.192	18.54
538.39	18.49
538.587	18.55
538.785	18.63
538.983	18.78
539.18	18.99
539.378	19.11
539.575	19.19
539.773	19.28
539.97	19.35
540.168	19.44
540.366	19.53
540.563	19.65
540.761	19.66
540.958	19.71
541.155	19.75
541.353	19.75
541.55	19.76
541.748	19.79
541.945	19.78
542.143	19.81
542.34	19.83
542.537	19.85
542.735	19.91
542.932	20.03
543.129	20.12
543.327	20.17
543.524	20.26
543.721	20.37
543.919	20.45
544.116	20.66
544.313	20.77
544.51	20.97
544.708	21.09
544.905	21.24
545.102	21.29
545.299	21.37
545.496	21.51
545.693	21.67
545.891	21.7
546.088	21.75
546.285	21.76
546.482	21.81
546.679	21.8
546.876	21.88
547.073	21.84
547.27	21.86
547.467	21.79
547.664	21.76
547.861	21.62
548.058	21.63
548.255	21.57
548.452	21.59
548.649	21.58
548.846	21.56
549.043	21.43
549.24	21.44
549.437	21.46
549.633	21.49
549.83	21.46
550.027	21.43
550.224	21.46
550.421	21.53
550.618	21.47
550.814	21.52
551.011	21.52
551.208	21.62
551.405	21.68
551.601	21.72
551.798	21.8
551.995	21.88
552.191	21.9
552.388	21.98
552.585	22.02
552.781	22.02
552.978	21.97
553.175	21.97
553.371	21.99
553.568	21.97
553.764	21.95
553.961	21.97
554.157	21.88
554.354	22.01
554.55	22.02
554.747	22.03
554.943	22.11
555.14	22.18
555.336	22.21
555.533	22.16
555.729	22.23
555.926	22.38
556.122	22.32
556.318	22.4
556.515	22.44
556.711	22.3
556.907	22.28
557.104	22.34
557.3	22.39
557.496	22.41
557.693	22.65
557.889	22.55
558.085	22.52
558.281	22.65
558.478	22.78
558.674	22.71
558.87	22.86
559.066	22.88
559.262	22.84
559.459	22.84
559.655	22.88
559.851	22.83
560.047	22.88
560.243	22.81
560.439	22.77
560.635	22.64
560.831	22.67
561.027	22.75
561.223	22.89
561.419	22.85
561.615	23.02
561.811	23.03
562.007	22.99
562.203	23.04
562.399	23.04
562.595	23.2
562.791	23.35
562.987	23.5
563.183	23.5
563.379	23.57
563.575	23.69
563.771	23.62
563.966	23.68
564.162	23.77
564.358	23.8
564.554	23.91
564.75	23.87
564.945	23.89
565.141	23.83
565.337	23.79
565.533	23.86
565.728	23.85
565.924	23.86
566.12	23.91
566.315	23.92
566.511	23.97
566.707	23.93
566.902	23.91
567.098	23.87
567.293	23.91
567.489	24.04
567.684	23.98
567.88	24.03
568.076	24.02
568.271	24.05
568.467	24.07
568.662	24.13
568.858	24.28
569.053	24.32
569.248	24.41
569.444	24.44
569.639	24.43
569.835	24.39
570.03	24.39
570.225	24.41
570.421	24.42
570.616	24.46
570.812	24.35
571.007	24.48
571.202	24.54
571.397	24.53
571.593	24.53
571.788	24.59
571.983	24.71
572.178	24.76
572.374	24.8
572.569	24.76
572.764	24.81
572.959	24.94
573.154	24.87
573.35	24.86
573.545	24.82
573.74	24.97
573.935	24.94
574.13	24.87
574.325	24.89
574.52	24.96
574.715	25.07
574.91	25.12
575.105	25.16
575.3	25.15
575.495	25.28
575.69	25.36
575.885	25.36
576.08	25.48
576.275	25.57
576.47	25.75
576.665	25.87
576.86	25.95
577.055	25.96
577.25	26.09
577.444	26.32
577.639	26.37
577.834	26.63
578.029	26.67
578.224	26.85
578.418	27.02
578.613	27.03
578.808	27.06
579.003	27.03
579.197	27.18
579.392	27.01
579.587	27.08
579.781	27.07
579.976	27.09
580.171	27
580.365	26.89
580.56	26.9
580.755	26.75
580.949	26.77
581.144	26.87
581.338	26.87
581.533	27.02
581.727	27.02
581.922	27.06
582.116	27.01
582.311	27.21
582.505	27.39
582.7	27.49
582.894	27.64
583.089	27.52
583.283	27.54
583.478	27.62
583.672	27.59
583.866	27.53
584.061	27.56
584.255	27.49
584.449	27.51
584.644	27.41
584.838	27.41
585.032	27.42
585.226	27.75
585.421	27.85
585.615	27.75
585.809	27.94
586.003	28.12
586.198	28.22
586.392	28.36
586.586	28.47
586.78	28.47
586.974	28.36
587.168	28.53
587.363	28.38
587.557	28.37
587.751	28.48
587.945	28.22
588.139	28.13
588.333	28.09
588.527	28.05
588.721	27.87
588.915	27.82
589.109	27.77
589.303	27.72
589.497	27.74
589.691	27.68
589.885	27.61
590.079	27.7
590.273	27.74
590.466	27.82
590.66	27.8
590.854	27.87
591.048	27.99
591.242	28.21
591.436	28.26
591.629	28.35
591.823	28.42
592.017	28.47
592.211	28.67
592.404	28.64
592.598	28.6
592.792	28.89
592.986	28.86
593.179	28.8
593.373	28.72
593.567	28.73
593.76	28.67
593.954	28.7
594.147	28.58
594.341	28.54
594.535	28.46
594.728	28.35
594.922	28.22
595.115	28.26
595.309	28.26
595.502	28.23
595.696	28.09
595.889	28.01
596.083	28.01
596.276	28.08
596.47	28.03
596.663	28.08
596.856	28.26
597.05	28.27
597.243	28.4
597.437	28.39
597.63	28.38
597.823	28.46
598.017	28.55
598.21	28.49
598.403	28.62
598.596	28.74
598.79	28.88
598.983	28.79
599.176	28.75
599.369	28.69
599.563	28.81
599.756	28.94
599.949	29
600.142	29.07
600.335	29.13
600.528	29
600.722	28.89
600.915	28.7
601.108	28.69
601.301	28.7
601.494	28.55
601.687	28.51
601.88	28.44
602.073	28.3
602.266	28.24
602.459	28.27
602.652	28.27
602.845	28.2
603.038	28.21
603.231	28.2
603.424	28.13
603.617	28.34
603.809	28.25
604.002	28.22
604.195	28.32
604.388	28.41
604.581	28.46
604.774	28.49
604.966	28.65
605.159	28.58
605.352	28.68
605.545	28.77
605.737	28.64
605.93	28.71
606.123	28.76
606.316	28.83
606.508	28.82
606.701	28.89
606.894	29.07
607.086	29.03
607.279	29.28
607.471	29.49
607.664	29.69
607.857	30.14
608.049	30.51
608.242	30.84
608.434	31.33
608.627	31.91
608.819	32.53
609.012	33.25
609.204	34.1
609.397	35.04
609.589	35.88
609.782	36.79
609.974	37.69
610.166	38.69
610.359	39.87
610.551	40.65
610.743	41.22
610.936	41.9
611.128	42.38
611.32	42.76
611.513	42.93
611.705	42.96
611.897	42.93
612.09	42.63
612.282	42.28
612.474	41.62
612.666	41.12
612.858	40.66
613.051	40.01
613.243	39.45
613.435	38.74
613.627	38.44
613.819	38.01
614.011	37.46
614.203	37.09
614.395	36.71
614.588	36.35
614.78	35.88
614.972	35.82
615.164	35.51
615.356	34.98
615.548	34.82
615.74	34.4
615.932	33.99
616.124	33.71
616.315	33.29
616.507	32.97
616.699	32.73
616.891	32.75
617.083	32.26
617.275	32.15
617.467	32.14
617.659	31.94
617.85	31.86
618.042	31.72
618.234	31.77
618.426	31.81
618.618	31.74
618.809	31.64
619.001	31.42
619.193	31.39
619.384	31.26
619.576	31.11
619.768	31.07
619.959	31
620.151	31.04
620.343	30.93
620.534	30.94
620.726	30.94
620.917	31.11
621.109	31.25
621.301	31.4
621.492	31.36
621.684	31.62
621.875	31.75
622.067	31.84
622.258	31.99
622.45	31.98
622.641	31.89
622.832	32.05
623.024	31.96
623.215	31.98
623.407	31.91
623.598	31.98
623.789	31.84
623.981	31.86
624.172	31.58
624.363	31.37
624.555	31.55
624.746	31.56
624.937	31.33
625.129	31.26
625.32	31.24
625.511	31.33
625.702	31.13
625.893	31.27
626.085	31.1
626.276	31.07
626.467	31.07
626.658	31
626.849	31.03
627.04	31.11
627.231	31.14
627.422	31.08
627.614	31.07
627.805	31.18
627.996	31.04
628.187	31.18
628.378	31.44
628.569	31.55
628.76	31.57
628.951	31.91
629.142	32.12
629.332	32.3
629.523	32.46
629.714	32.65
629.905	32.83
630.096	32.94
630.287	33.08
630.478	33.1
630.669	33.29
630.859	33.49
631.05	33.05
631.241	32.7
631.432	32.49
631.623	32.27
631.813	32.16
632.004	31.96
632.195	31.8
632.385	31.46
632.576	31.22
632.767	30.84
632.957	30.59
633.148	30.59
633.339	30.69
633.529	30.57
633.72	30.61
633.91	30.34
634.101	30.19
634.292	30.12
634.482	30.2
634.673	30.16
634.863	30.18
635.054	29.99
635.244	29.93
635.435	29.91
635.625	29.86
635.815	29.81
636.006	29.73
636.196	29.83
636.387	29.88
636.577	29.86
636.767	29.95
636.958	30.11
637.148	30.27
637.338	30.32
637.529	30.3
637.719	30.37
637.909	30.4
638.099	30.46
638.29	30.42
638.48	30.43
638.67	30.44
638.86	30.5
639.05	30.22
639.241	30.44
639.431	30.45
639.621	30.19
639.811	30.18
640.001	30.14
640.191	30.32
640.381	30.34
640.571	30.44
640.761	30.28
640.951	30.11
641.141	30.17
641.331	29.86
641.521	29.85
641.711	30.18
641.901	30.19
642.091	30.26
642.281	30.31
642.471	30.48
642.661	30.5
642.851	30.48
643.041	30.72
643.231	30.72
643.42	30.81
643.61	30.61
643.8	30.46
643.99	30.55
644.18	30.57
644.369	30.38
644.559	30.26
644.749	30.22
644.939	30.38
645.128	30.3
645.318	30.4
645.508	30.32
645.697	30.61
645.887	30.8
646.076	30.91
646.266	30.72
646.456	30.91
646.645	31.2
646.835	31.28
647.024	31.37
647.214	31.3
647.403	31.2
647.593	31.58
647.782	31.35
647.972	31.24
648.161	31.07
648.351	31.27
648.54	31.15
648.73	30.9
648.919	30.79
649.108	30.87
649.298	31.08
649.487	31.2
649.677	31.06
649.866	31.36
650.055	31.44
650.244	31.62
650.434	31.67
650.623	31.67
650.812	31.73
651.002	31.84
651.191	31.9
651.38	31.77
651.569	31.79
651.758	31.68
651.947	31.57
652.137	31.56
652.326	31.66
652.515	31.75
652.704	31.82
652.893	31.73
653.082	31.68
653.271	31.59
653.46	31.49
653.649	31.5
653.838	31.59
654.027	31.79
654.216	31.79
654.405	31.74
654.594	31.58
654.783	31.14
654.972	31.15
655.161	31.16
655.35	31.22
655.539	31.34
655.728	31.32
655.916	31.33
656.105	31.19
656.294	31.1
656.483	31.1
656.672	31.16
656.86	31.54
657.049	31.59
657.238	31.47
657.427	31.25
657.615	31.35
657.804	31.36
657.993	31.23
658.181	31.23
658.37	31.21
658.559	31
658.747	30.99
658.936	30.98
659.125	30.9
659.313	31.01
659.502	31.14
659.69	30.97
659.879	30.99
660.067	31.16
660.256	31.07
660.444	31.26
660.633	31.44
660.821	31.42
661.01	31.52
661.198	31.55
661.387	31.57
661.575	31.54
661.763	31.61
661.952	31.54
662.14	31.43
662.328	31.66
662.517	31.66
662.705	31.53
662.893	31.62
663.082	31.59
663.27	31.68
663.458	31.86
663.646	31.93
663.834	32.09
664.023	32.22
664.211	32.41
664.399	32.3
664.587	32.18
664.775	32.38
664.963	32.23
665.152	32.09
665.34	32.12
665.528	31.64
665.716	31.8
665.904	31.7
666.092	31.62
666.28	31.4
666.468	31.21
666.656	31.07
666.844	30.95
667.032	31.13
667.22	31.22
667.408	31.11
667.596	31.34
667.784	31.06
667.971	31.18
668.159	31.11
668.347	31.24
668.535	31.33
668.723	31.65
668.911	31.63
669.098	31.4
669.286	31.46
669.474	31.42
669.662	31.4
669.849	31.5
670.037	31.33
670.225	31.63
670.413	31.46
670.6	31.42
670.788	31.37
670.976	31.25
671.163	31.46
671.351	31.52
671.538	31.35
671.726	31.38
671.913	31.27
672.101	31.59
672.289	31.44
672.476	31.56
672.664	31.83
672.851	31.81
673.039	32.21
673.226	31.97
673.413	31.81
673.601	32.17
673.788	32.4
673.976	32.3
674.163	31.9
674.35	31.92
674.538	32.06
674.725	31.95
674.912	31.99
675.1	31.98
675.287	32.31
675.474	32.5
675.662	32.45
675.849	32.2
676.036	32.48
676.223	32.68
676.411	32.91
676.598	32.76
676.785	32.73
676.972	32.72
677.159	32.7
677.346	32.45
677.533	32.37
677.721	32.46
677.908	32.68
678.095	32.34
678.282	32.33
678.469	32.12
678.656	32.19
678.843	31.94
679.03	31.55
679.217	31.28
679.404	31.48
679.591	31.53
679.778	31.56
679.964	31.29
680.151	31.45
680.338	31.12
680.525	31.08
680.712	31.02
680.899	31.2
681.086	31.41
681.272	31.54
681.459	31.39
681.646	31.36
681.833	31.04
682.02	31.2
682.206	31.2
682.393	31.58
682.58	31.75
682.766	31.79
682.953	31.8
683.14	31.87
683.326	31.99
683.513	32.21
683.7	32.46
683.886	32.62
684.073	32.34
684.259	32.48
684.446	32.57
684.632	32.43
684.819	32.45
685.005	32.55
685.192	32.76
685.378	32.62
685.565	32.5
685.751	32.25
685.938	32.41
686.124	32.67
686.31	32.67
686.497	32.67
686.683	32.69
686.87	32.7
687.056	32.42
687.242	32.14
687.429	32.16
687.615	32.17
687.801	32.16
687.987	32.03
688.174	31.78
688.36	31.72
688.546	31.67
688.732	31.72
688.918	31.4
689.105	31.72
689.291	31.75
689.477	31.79
689.663	31.88
689.849	32.03
690.035	32.46
690.221	32.79
690.407	32.92
690.593	32.95
690.779	32.81
690.965	33.11
691.151	33.18
691.337	33.24
691.523	33.32
691.709	33.21
691.895	33.3
692.081	32.93
692.267	33.07
692.453	33.09
692.639	33.06
692.825	33.16
693.011	33.16
693.196	33.03
693.382	32.84
693.568	32.77
693.754	32.94
693.94	32.65
694.125	32.5
694.311	32.28
694.497	32.13
694.682	31.69
694.868	31.91
695.054	32.09
695.239	32.04
695.425	32.28
695.611	32.24
695.796	32.13
695.982	32.13
696.168	32.14
696.353	32.19
696.539	32.23
696.724	32.76
696.91	32.68
697.095	32.43
697.281	32.46
697.466	32.21
697.652	32.1
697.837	32
698.023	31.94
698.208	32.2
698.393	32.1
698.579	31.96
698.764	31.65
698.949	31.44
699.135	31.38
699.32	31.35
699.505	31.67
699.691	31.52
699.876	31.41
700.061	31.49
700.246	31.22
700.432	30.95
700.617	31.01
700.802	30.95
700.987	30.92
701.172	31.34
701.358	31.48
701.543	31.4
701.728	31.64
701.913	31.87
702.098	31.96
702.283	32.29
702.468	32.83
702.653	32.96
702.838	33.34
703.023	33.45
703.208	33.13
703.393	32.96
703.578	32.93
703.763	33.12
703.948	32.88
704.133	32.96
704.318	32.87
704.503	33.25
704.688	33.17
704.873	33.28
705.057	33.66
705.242	33.85
705.427	34.14
705.612	34.22
705.797	34.53
705.981	35.19
706.166	35.43
706.351	35.94
706.536	36.07
706.72	36.59
706.905	36.82
707.09	37.12
707.274	37.15
707.459	37.19
707.644	37.3
707.828	37.27
708.013	37.45
708.197	37.01
708.382	36.66
708.567	36.26
708.751	36.15
708.936	35.93
709.12	35.5
709.305	35.84
709.489	36.06
709.673	35.76
709.858	35.57
710.042	35.37
710.227	35.66
710.411	35.5
710.596	35.55
710.78	35.51
710.964	35.85
711.149	35.97
711.333	35.38
711.517	35.12
711.702	35.24
711.886	35.21
712.07	35.24
712.254	34.86
712.438	34.85
712.623	34.74
712.807	34.87
712.991	34.66
713.175	34.42
713.359	34.48
713.544	34.43
713.728	34.07
713.912	33.82
714.096	33.46
714.28	33.47
714.464	33.21
714.648	32.98
714.832	32.52
715.016	32.29
715.2	32.17
715.384	31.96
715.568	31.39
715.752	31.27
715.936	31.24
716.12	30.85
716.304	30.7
716.488	30.72
716.671	30.91
716.855	30.9
717.039	30.97
717.223	30.89
717.407	31.06
717.59	31.42
717.774	31.76
717.958	31.59
718.142	31.69
718.325	31.96
718.509	32.2
718.693	32.08
718.877	31.96
719.06	31.71
719.244	31.94
719.428	31.89
719.611	32.24
719.795	33.08
719.978	33.08
720.162	33.44
720.345	33.26
720.529	33.43
720.713	33.13
720.896	32.83
721.08	32.56
721.263	32.74
721.446	32.71
721.63	32.05
721.813	31.23
721.997	31.48
722.18	31.44
722.364	32.15
722.547	32.07
722.73	32.67
722.914	33.3
723.097	33.92
723.28	33.66
723.464	33.74
723.647	33.97
723.83	33.8
724.013	34.06
724.197	34.17
724.38	33.51
724.563	33.33
724.746	33.17
724.929	33.37
725.112	33.52
725.296	33.15
725.479	33.17
725.662	33.1
725.845	32.52
726.028	32.38
726.211	32.48
726.394	32.44
726.577	31.74
726.76	31.47
726.943	30.98
727.126	30.41
727.309	30.62
727.492	30.51
727.675	30.39
727.858	30.88
728.041	30.93
728.224	30.91
728.407	30.9
728.589	31.16
728.772	31.56
728.955	32.04
729.138	32.13
729.321	32.68
729.503	33.04
729.686	32.96
729.869	33.22
730.052	32.97
730.234	32.76
730.417	32.71
730.6	33.33
730.782	32.94
730.965	32.39
731.148	32.66
731.33	32.25
731.513	31.74
731.695	31.8
731.878	31.64
732.061	31.57
732.243	32.16
732.426	32.56
732.608	32.28
732.791	32.69
732.973	33.22
733.156	32.86
733.338	33.24
733.52	33.6
733.703	33.53
733.885	33.52
734.068	33.87
734.25	33.45
734.432	33
734.615	33.28
734.797	33.27
734.979	33.44
735.162	33.52
735.344	33
735.526	32.68
735.708	33.14
735.891	33.21
736.073	32.88
736.255	32.49
736.437	32.73
736.619	32.7
736.802	32.39
736.984	32.3
737.166	32.35
737.348	32.17
737.53	32.66
737.712	32.79
737.894	32.8
738.076	32.68
738.258	32.98
738.44	33.23
738.622	32.66
738.804	32.82
738.986	32.95
739.168	32.87
739.35	33.69
739.532	33.18
739.714	33.36
739.896	33.48
740.078	34.04
740.259	34.24
740.441	34.24
740.623	34.8
740.805	35.16
740.987	34.6
741.168	35.3
741.35	35.16
741.532	35.79
741.714	35.25
741.895	34.89
742.077	35.16
742.259	35.57
742.44	35.29
742.622	35.17
742.804	34.89
742.985	34.65
743.167	33.91
743.348	33.28
743.53	33.11
743.711	33.29
743.893	33.58
744.075	32.62
744.256	31.81
744.438	31.74
744.619	31.62
744.8	31.32
744.982	31.6
745.163	32.03
745.345	31.96
745.526	31.66
745.707	31.52
745.889	32.02
746.07	33.08
746.252	32.73
746.433	32.97
746.614	33.2
746.795	33.54
746.977	33.79
747.158	33.79
747.339	33.83
747.52	33.93
747.702	33.91
747.883	33.52
748.064	33.24
748.245	33.57
748.426	33.7
748.607	33.71
748.788	33.8
748.97	33.29
749.151	33.25
749.332	33.98
749.513	34.4
749.694	34.3
749.875	34.17
750.056	33.67
750.237	34.32
750.418	34.64
750.599	34.67
750.78	34.35
750.96	34.78
751.141	34.94
751.322	34.79
751.503	34.33
751.684	34.67
751.865	34.65
752.046	34.94
752.226	34.91
752.407	35.09
752.588	35
752.769	35.24
752.949	34.86
753.13	34.79
753.311	34.83
753.492	34.72
753.672	35.29
753.853	35.63
754.034	35.56
754.214	35.64
754.395	34.76
754.575	34.52
754.756	34.36
754.937	34.63
755.117	34.66
755.298	34.3
755.478	34.33
755.659	33.91
755.839	34.46
756.02	34.97
756.2	35.25
756.381	35.02
756.561	35.58
756.741	35.83
756.922	35.63
757.102	35.75
757.283	36.06
757.463	35.92
757.643	35.88
757.823	34.96
758.004	34.01
758.184	33.3
758.364	33.61
758.545	33.1
758.725	33.24
758.905	33.42
759.085	33.15
759.265	32.63
759.446	32.47
759.626	32.86
759.806	32.45
759.986	33.13
760.166	33.16
760.346	33.74
760.526	34.52
760.706	33.85
760.886	33.61
761.066	34.06
761.246	33.95
761.426	34.17
761.606	33.49
761.786	33.98
761.966	33.34
762.146	33.56
762.326	32.68
762.506	32.23
762.686	32.23
762.866	32.3
763.046	31.69
763.225	31.69
763.405	31.86
763.585	31.72
763.765	31.66
763.945	32.13
764.124	31.83
764.304	31.73
764.484	31.84
764.664	31.99
764.843	32.45
765.023	32.64
765.203	32.65
765.382	32.43
765.562	32.83
765.741	32.33
765.921	32.13
766.101	32.07
766.28	32.83
766.46	33.1
766.639	32.71
766.819	32.73
766.998	33.17
767.178	33.85
767.357	34.08
767.537	34.11
767.716	34.52
767.896	34.33
768.075	34.61
768.254	34.75
768.434	34.4
768.613	35.24
768.792	34.88
768.972	34.57
769.151	34.05
769.33	34.21
769.51	34.64
769.689	35.29
769.868	35.83
770.047	35.92
770.226	35.81
770.406	35.97
770.585	35.91
770.764	35.81
770.943	35.76
771.122	35.71
771.301	35.44
771.48	34.9
771.66	34.07
771.839	33.53
772.018	33.51
772.197	33.2
772.376	33.14
772.555	32.67
772.734	32.33
772.913	32.18
773.092	32.01
773.271	32.56
773.449	32.58
773.628	33.35
773.807	33.62
773.986	33.03
774.165	33.02
774.344	32.5
774.523	32.81
774.701	33.77
774.88	34.52
775.059	35.89
775.238	35.84
775.417	36.01
775.595	36.31
775.774	36.71
775.953	37.15
776.131	38.29
776.31	38.05
776.489	37.5
776.667	36.79
776.846	36.77
777.025	35.63
777.203	35.57
777.382	35.85
777.56	35.77
777.739	35.47
777.917	35.1
778.096	34.57
778.274	35.15
778.453	36.3
778.631	36.85
778.81	36.52
778.988	36.43
779.166	37.59
779.345	37.14
779.523	36.32
779.702	36.42
779.88	37.17
780.058	36.89
780.237	37.37
780.415	37.01
780.593	36.95
780.771	37.42
780.95	38.22
781.128	37.19
781.306	37.51
781.484	37.8
781.662	36.97
781.841	37
782.019	36.01
782.197	36.62
782.375	36.22
782.553	35.95
782.731	35.49
782.909	34.76
783.087	34.63
783.265	34.45
783.443	34.2
783.621	34.25
783.799	34.48
783.977	34.5
784.155	33.57
784.333	33.74
784.511	33.4
784.689	32.64
784.867	32.28
785.045	32.58
785.223	32.36
785.4	32.5
785.578	34.13
785.756	32.61
785.934	34.57
786.112	33.68
786.289	32.72
786.467	31.92
786.645	32.66
786.823	33.57
787	32.92
787.178	32.86
787.356	32.68
787.533	31.05
787.711	32.39
787.889	32.65
788.066	32.4
788.244	33.64
788.421	34.44
788.599	33.8
788.776	33.75
788.954	33.89
789.131	33.58
789.309	33.9
789.486	34.41
789.664	33.35
789.841	31.77
790.019	32.79
790.196	31.73
790.373	31.01
790.551	32.15
790.728	31.89
790.906	31.94
791.083	32.29
791.26	32.34
791.437	32.48
791.615	33.08
791.792	33.26
791.969	32.48
792.146	33.3
792.324	34.71
792.501	34.34
792.678	34.55
792.855	35.05
793.032	35.8
793.209	36.5
793.387	36.64
793.564	36.47
793.741	37.2
793.918	36.92
794.095	36.09
794.272	35.74
794.449	35.56
794.626	35.12
794.803	33.45
794.98	32.98
795.157	32.01
795.334	32.68
795.511	32.43
795.688	31.74
795.864	31.44
796.041	32.74
796.218	32.45
796.395	31.66
796.572	31.38
796.749	31.93
796.925	31.55
797.102	32.26
797.279	32.27
797.456	33.7
797.632	33.77
797.809	35.02
797.986	33.65
798.162	33.72
798.339	34.05
798.516	34.64
798.692	36.12
798.869	36.75
799.046	37.27
799.222	36.73
799.399	36.3
799.575	36.83
799.752	37.49
799.928	38.18
800.105	38.05
800.281	37.78
800.458	36.96
800.634	36.37
800.811	36.58
800.987	35.41
801.163	35.09
801.34	35.97
801.516	35.77
801.692	34.42
801.869	34.69
802.045	35.47
802.221	35.72
802.398	37.84
802.574	36.64
802.75	35.26
802.926	34.22
803.103	35.11
803.279	33.22
803.455	34.57
803.631	35.39
803.807	34.65
803.983	33.25
804.16	33.27
804.336	30.78
804.512	31.59
804.688	32.68
804.864	33.6
805.04	32.46
805.216	32.51
805.392	30.66
805.568	30.56
805.744	31.55
805.92	31.55
806.096	31.9
806.272	33.72
806.448	33.83
806.623	34.15
806.799	35.21
806.975	35.13
807.151	34.69
807.327	34.24
807.503	34.36
807.678	34.43
807.854	34.52
808.03	34.16
808.206	33.36
808.381	33.78
808.557	33.92
808.733	33.3
808.908	34.87
809.084	35.62
809.26	35.82
809.435	35.16
809.611	34.61
809.787	34.21
809.962	34.12
810.138	34.86
810.313	32.76
810.489	32.18
810.664	33.03
810.84	31.23
811.015	31.41
811.191	31.68
811.366	31.2
811.542	32.5
811.717	33.37
811.892	34.94
812.068	34.06
812.243	35.33
812.419	35.62
812.594	34.23
812.769	34.85
812.944	34.53
813.12	34.56
813.295	35.17
813.47	32.4
813.645	31.08
813.821	29.18
813.996	28.49
814.171	28.62
814.346	27.34
814.521	27.58
814.697	26.28
814.872	25.74
815.047	26.64
815.222	26.57
815.397	27.37
815.572	29.24
815.747	30.85
815.922	31.64
816.097	33.14
816.272	33.73
816.447	34.82
816.622	35.98
816.797	36.97
816.972	35.75
817.147	35.81
817.322	37.07
817.496	36.11
817.671	34.9
817.846	34.31
818.021	32.51
818.196	32.02
818.371	31.12
818.545	30.84
818.72	29.88
818.895	30.31
819.069	29.59
819.244	28.67
819.419	29.78
819.594	29.06
819.768	29.99
819.943	29.56
820.117	29.29
820.292	29.75
820.467	29.77
820.641	29.75
820.816	29.35
820.99	29.32
821.165	29.03
821.339	28.11
821.514	27.99
821.688	28.11
821.863	28.38
822.037	28.42
822.212	28.23
822.386	28.18
822.56	28.31
822.735	28.46
822.909	28.63
823.084	28.98
823.258	29.11
823.432	29.35
823.606	28.94
823.781	28.5
823.955	28.53
824.129	28.53
824.303	28.65
824.478	28.52
824.652	28.69
824.826	28.06
825	27.44
825.174	28.03
825.348	28.06
825.523	28.26
825.697	28.84
825.871	29.23
826.045	29.24
826.219	29.19
826.393	29.12
826.567	28.61
826.741	29.06
826.915	29.92
827.089	29.36
827.263	29.53
827.437	29.93
827.611	30.23
827.784	30.5
827.958	30.3
828.132	30.25
828.306	30.62
828.48	30.97
828.654	30.61
828.827	29.57
829.001	29.24
829.175	29.26
829.349	29.19
829.522	29.24
829.696	28.61
829.87	28.88
830.044	28.6
830.217	28.66
830.391	28.4
830.565	29.37
830.738	31.68
830.912	32.95
831.085	32.3
831.259	31.69
831.432	31.85
831.606	31.89
831.779	32.61
831.953	33.13
832.126	32.88
832.3	32.35
832.473	32.43
832.647	31.42
832.82	30.8
832.994	30.23
833.167	30.54
833.34	29.29
833.514	29.27
833.687	28.53
833.86	28.6
834.034	28.98
834.207	29.09
834.38	28.89
834.553	27.99
834.727	28.41
834.9	29
835.073	29.22
835.246	30.2
835.419	29.9
835.593	30.16
835.766	30.42
835.939	29.42
836.112	29.23
836.285	29.49
836.458	30.61
836.631	30.22
836.804	30.12
836.977	28.7
837.15	28.51
837.323	29.23
837.496	29.51
837.669	28.63
837.842	29.78
838.015	30.86
838.188	30.8
838.361	31.27
838.533	31.14
838.706	29.56
838.879	30.74
839.052	31.52
839.225	31.79
839.398	31.95
839.57	33.52
839.743	32.68
839.916	32.17
840.088	32.27
840.261	30.36
840.434	30.58
840.607	33.57
840.779	32.55
840.952	31.13
841.124	30.67
841.297	30.81
841.47	30.02
841.642	30.37
841.815	29.79
841.987	30.31
842.16	31.11
842.332	31.01
842.505	31.36
842.677	31.99
842.85	31.95
843.022	32.23
843.194	32.65
843.367	33.42
843.539	31.36
843.712	34.48
843.884	35.11
844.056	37.3
844.229	37.97
844.401	35.66
844.573	37.88
844.745	37.36
844.918	38.43
845.09	36.28
845.262	35.25
845.434	39.75
845.606	32.67
845.779	31.42
845.951	30.55
846.123	30.69
846.295	31.57
846.467	31.52
846.639	33.07
846.811	28.85
846.983	32.81
847.155	34.29
847.327	30.64
847.499	39.73
847.671	41.23
847.843	43.15
848.015	44.51
848.187	47.13
848.359	47.93
848.531	50.54
848.703	54.71
848.875	51.31
849.047	49.15
849.218	50.28
849.39	47.03
849.562	46.45
849.734	46.85
849.905	44.34
850.077	39.45
850.249	41.04
850.421	38.44
850.592	38.96
850.764	40.01
850.936	40.38
851.107	40
851.279	40.28
851.451	40.99
851.622	40.16
851.794	41.89
851.965	47.18
852.137	40.58
852.308	40.13
852.48	40.74
852.651	39.71
852.823	38.13
852.994	38.26
853.166	38.07
853.337	35.65
853.509	31.47
853.68	30.43
853.851	27.99
854.023	29.05
854.194	31.75
854.365	33.77
854.537	33.07
854.708	36.57
854.879	37.02
855.05	36.59
855.222	41.74
855.393	43.35
855.564	46.62
855.735	43.08
855.906	43.03
856.078	40.94
856.249	39.49
856.42	39.6
856.591	38.11
856.762	36.39
856.933	37.82
857.104	33.41
857.275	34.55
857.446	32.31
857.617	35.63
857.788	35.96
857.959	36.58
858.13	35.93
858.301	37.94
858.472	41.44
858.643	41.87
858.814	41.65
858.985	41.71
859.155	41.12
859.326	43.18
859.497	42.15
859.668	40.9
859.839	42.24
860.009	39.13
860.18	37.17
860.351	32.27
860.522	32.68
860.692	30
860.863	33.51
861.034	34.33
861.204	31.53
861.375	32.48
861.546	29.79
861.716	25.56
861.887	25.91
862.057	26.62
862.228	25.48
862.398	25.91
862.569	26.49
862.739	22.28
862.91	23.06
863.08	23.36
863.251	23.45
863.421	28.06
863.592	29.42
863.762	31.64
863.932	34.53
864.103	31.79
864.273	30.94
864.443	30.64
864.614	32.91
864.784	33.67
864.954	34.51
865.125	34.03
865.295	34.98
865.465	33.88
865.635	29.6
865.805	29.36
865.976	33.04
866.146	30.98
866.316	32.15
866.486	36.57
866.656	33.86
866.826	35.61
866.996	39.67
867.166	41.17
867.336	40.8
867.506	43.76
867.676	43.68
867.846	48.79
868.016	50.81
868.186	51.41
868.356	45.71
868.526	45.96
868.696	45.21
868.866	42.17
869.036	39.86
869.206	39.82
869.376	39.81
869.545	39.89
869.715	37.41
869.885	38.26
870.055	38.91
870.224	37.06
870.394	41.16
870.564	45.28
870.734	41.5
870.903	42.02
871.073	42.16
871.243	45.26
871.412	40.49
871.582	39.17
871.751	39.53
871.921	38.78
872.091	37.69
872.26	36.96
872.43	32.02
872.599	33.15
872.769	34.87
872.938	36.94
873.108	34.39
873.277	40.1
873.446	38.82
873.616	39.62
873.785	41.02
873.955	41.77
874.124	38.07
874.293	39.89
874.463	37.8
874.632	33.06
874.801	30.56
874.971	33.27
875.14	34.19
875.309	33.56
875.478	32.83
875.647	30.76
875.817	29.07
875.986	32.67
876.155	32.04
876.324	37.55
876.493	38.57
876.662	40.23
876.831	39.15
877	35.31
877.17	35.44
877.339	38.92
877.508	37.87
877.677	41.22
877.846	39.53
878.015	37.38
878.184	31.97
878.352	32.01
878.521	33.89
878.69	31.4
878.859	31.95
879.028	29.33
879.197	26.23
879.366	24.52
879.534	24.07
879.703	23.33
879.872	25.63
880.041	28.9
880.21	28.66
880.378	28.03
880.547	28.19
880.716	27.39
880.884	28.7
881.053	27.79
881.222	27.72
881.39	27.82
881.559	27.94
881.727	27.75
881.896	26.63
882.065	27.07
882.233	26.96
882.402	27.01
882.57	26.73
882.739	26.48
882.907	26.71
883.076	26.93
883.244	27.2
883.412	26.93
883.581	25.83
883.749	26.5
883.918	26.32
884.086	26.48
884.254	26.46
884.423	27.16
884.591	27.45
884.759	27.76
884.927	27.86
885.096	27.6
885.264	27.89
885.432	29.69
885.6	30.05
885.769	29.26
885.937	29.9
886.105	28.81
886.273	29.29
886.441	29.9
886.609	29.48
886.777	31.27
886.945	31.46
887.113	34.28
887.281	33.51
887.449	32.15
887.617	33.94
887.785	33.84
887.953	36.32
888.121	34.35
888.289	31.78
888.457	32.94
888.625	33.92
888.793	32.93
888.961	27.24
889.129	24.18
889.296	24.58
889.464	22.74
889.632	19.06
889.8	15.8
889.967	16.88
890.135	17.01
