Data from 2938746__Reflection_01.txt Node
Date: Sun Mar 15 11:38:55 EDT 2015
User: robert
Spectrometer: USB4E03002
Autoset integration time: false
Trigger mode: 4
Integration Time (sec): 1.000000E-1
Scans to average: 10
Electric dark correction enabled: false
Nonlinearity correction enabled: false
Boxcar width: 5
Stray light correction enabled: false
XAxis mode: Wavelengths
Stop averaging: false
Number of Pixels in Spectrum: 3648
>>>>>Begin Spectral Data<<<<<
177.575	61.2
177.794	83.6
178.014	91.63
178.233	81.97
178.452	63.29
178.672	62.16
178.891	39.85
179.11	95.35
179.33	91.57
179.549	73.33
179.768	-6.29
179.987	-149.35
180.207	39.07
180.426	92.31
180.645	-82.09
180.864	-2028.57
181.084	193.75
181.303	-452.38
181.522	123.83
181.741	179.91
181.96	250.41
182.179	55.58
182.398	64.66
182.618	83.41
182.837	79.97
183.056	61.45
183.275	68.69
183.494	84.9
183.713	100.84
183.932	101.41
184.151	95.58
184.37	91.29
184.589	132.67
184.808	108.32
185.027	87.66
185.246	106.72
185.465	90.36
185.684	95.14
185.903	75
186.122	78.65
186.341	82.69
186.56	82.59
186.779	21.94
186.998	22.42
187.216	-14.89
187.435	28.66
187.654	73.81
187.873	228
188.092	113.58
188.311	96.54
188.53	102.56
188.748	155.74
188.967	64.66
189.186	162.5
189.405	170.54
189.623	359.69
189.842	230.69
190.061	197.24
190.28	176.09
190.498	251.95
190.717	200
190.936	257.94
191.154	145.25
191.373	156.54
191.592	96.92
191.81	91.81
192.029	66.09
192.248	67.84
192.466	81.63
192.685	90.62
192.904	77.59
193.122	54.69
193.341	46.53
193.559	34.72
193.778	46.55
193.996	16.67
194.215	-112.88
194.433	1248.15
194.652	-313.64
194.87	-146.92
195.089	-291.86
195.307	-394.34
195.526	53.8
195.744	-90.91
195.963	86.32
196.181	-51.16
196.399	42
196.618	2.4
196.836	-48.28
197.055	-1.98
197.273	-14.08
197.491	12.99
197.71	-57.14
197.928	163.27
198.146	28.81
198.365	43.12
198.583	8.62
198.801	261.76
199.019	91.98
199.238	80.91
199.456	79.14
199.674	82.68
199.892	123.83
200.111	92.75
200.329	128.07
200.547	63.71
200.765	64.87
200.983	60.31
201.202	68.26
201.42	86.33
201.638	81.28
201.856	92.21
202.074	103.09
202.292	94.75
202.51	105.32
202.728	112.57
202.946	155.01
203.165	154.3
203.383	128.32
203.601	146.9
203.819	146.72
204.037	156.9
204.255	103.89
204.473	71.03
204.691	61.41
204.909	66.71
205.127	46.72
205.345	29.26
205.562	51.01
205.78	66.33
205.998	45.5
206.216	44.88
206.434	41.87
206.652	38.35
206.87	-36.72
207.088	55.88
207.306	77.17
207.523	135.44
207.741	208.33
207.959	163.64
208.177	91.77
208.395	88.09
208.612	51.23
208.83	63.56
209.048	91.2
209.266	75.58
209.483	72.88
209.701	63.47
209.919	82.2
210.136	44.4
210.354	34.6
210.572	29.49
210.79	30.89
211.007	21.12
211.225	37.96
211.442	23.3
211.66	44.34
211.878	48.89
212.095	28.21
212.313	31.63
212.53	29.97
212.748	27.37
212.966	21.25
213.183	11.28
213.401	25.37
213.618	16.91
213.836	16.96
214.053	4.43
214.271	9.49
214.488	7.77
214.705	6.9
214.923	13.02
215.14	24.26
215.358	23.37
215.575	35.82
215.793	24.87
216.01	30.5
216.227	30.88
216.445	22.56
216.662	4.2
216.879	10.85
217.097	-5.98
217.314	-11.79
217.531	7.02
217.749	10.49
217.966	10.29
218.183	-7.1
218.4	-10.33
218.618	-11.7
218.835	-4.66
219.052	11.77
219.269	0.49
219.487	6.31
219.704	8.83
219.921	-3.47
220.138	6.98
220.355	7.71
220.572	19.95
220.79	19.94
221.007	20.04
221.224	15.23
221.441	12.79
221.658	20.87
221.875	20.5
222.092	21.44
222.309	20.76
222.526	24.39
222.743	22.76
222.96	19.8
223.177	19.1
223.394	18.95
223.611	16.48
223.828	14.4
224.045	6.9
224.262	6.17
224.479	3.98
224.696	-1.56
224.913	-5.58
225.13	-1.91
225.347	0.03
225.564	-5.23
225.781	-0.87
225.997	6.12
226.214	8.16
226.431	11.8
226.648	11.84
226.865	11.79
227.082	14.9
227.298	11.52
227.515	11.28
227.732	10.63
227.949	11.7
228.165	9.34
228.382	9.14
228.599	8.9
228.816	8.46
229.032	8.11
229.249	8.6
229.466	8.45
229.682	8.22
229.899	7.47
230.116	7.35
230.332	7
230.549	7.71
230.765	7.28
230.982	7.86
231.199	7.23
231.415	6.69
231.632	6.47
231.848	4.43
232.065	5.58
232.281	5.34
232.498	5.54
232.714	4.52
232.931	4.48
233.147	4.8
233.364	4.69
233.58	3.1
233.797	3.74
234.013	3.94
234.23	4.64
234.446	5.3
234.662	6.42
234.879	5.2
235.095	6.04
235.312	5.37
235.528	4.3
235.744	3.36
235.961	3.91
236.177	5.11
236.393	4.57
236.61	4.52
236.826	2.2
237.042	0.71
237.258	3.04
237.475	2.65
237.691	3.88
237.907	4.69
238.123	4.04
238.339	3.43
238.556	1.86
238.772	1.21
238.988	2.22
239.204	6.12
239.42	6.48
239.636	4.79
239.853	4.59
240.069	4.03
240.285	3.15
240.501	4.1
240.717	5.17
240.933	4.82
241.149	4.37
241.365	4.26
241.581	2.99
241.797	2.96
242.013	3.58
242.229	3.3
242.445	3.2
242.661	3.86
242.877	3.67
243.093	4.15
243.309	5.01
243.525	5.31
243.741	5.55
243.957	5.85
244.173	6.06
244.388	5.72
244.604	5.29
244.82	5.62
245.036	4.83
245.252	4.96
245.468	4.28
245.683	3.96
245.899	3.87
246.115	4.21
246.331	3.96
246.547	4.05
246.762	4.27
246.978	4.65
247.194	4.68
247.409	5.15
247.625	5.1
247.841	4.99
248.057	4.88
248.272	5.19
248.488	4.54
248.703	4.62
248.919	4.32
249.135	4.35
249.35	4.91
249.566	4.32
249.782	3.92
249.997	3.44
250.213	3.45
250.428	3.76
250.644	2.14
250.859	3.31
251.075	3.98
251.29	4.18
251.506	4.08
251.721	3.38
251.937	4
252.152	3.93
252.368	3.74
252.583	4.38
252.798	4
253.014	4.73
253.229	4.16
253.445	3.75
253.66	4.62
253.875	5.1
254.091	5.66
254.306	6
254.521	6.25
254.737	6.6
254.952	6.3
255.167	6.64
255.383	5.14
255.598	5.44
255.813	5.94
256.028	4.31
256.244	3.62
256.459	2.69
256.674	1.92
256.889	1.36
257.104	2.09
257.32	2.29
257.535	2.58
257.75	3.97
257.965	3.72
258.18	3.13
258.395	3.46
258.61	3.03
258.826	2.97
259.041	3.1
259.256	3.19
259.471	3.13
259.686	3.11
259.901	2.84
260.116	2.93
260.331	3.05
260.546	3.28
260.761	3.5
260.976	3.48
261.191	3.83
261.406	4.18
261.621	4.19
261.836	3.86
262.05	3.78
262.265	4.43
262.48	4.31
262.695	4
262.91	3.7
263.125	3.41
263.34	3.76
263.555	4.2
263.769	3.14
263.984	3.18
264.199	4.16
264.414	3.57
264.629	3.36
264.843	3.29
265.058	3.59
265.273	3.8
265.488	3.7
265.702	4.17
265.917	3.35
266.132	3.7
266.346	4.2
266.561	4.14
266.776	4.46
266.99	4.53
267.205	4.32
267.42	4.17
267.634	4.14
267.849	4.05
268.063	3.84
268.278	3.55
268.492	3.43
268.707	2.95
268.922	2.26
269.136	2.29
269.351	2.15
269.565	2.35
269.78	2.05
269.994	2.02
270.209	1.9
270.423	1.93
270.637	2.58
270.852	2.6
271.066	2.45
271.281	2.94
271.495	2.35
271.709	2.08
271.924	2.48
272.138	2.5
272.353	2.55
272.567	2.46
272.781	2.7
272.996	2.21
273.21	2.43
273.424	2.74
273.638	2.98
273.853	3.39
274.067	3.39
274.281	3.42
274.495	3.44
274.71	3.58
274.924	4.18
275.138	3.91
275.352	4.57
275.566	4.62
275.781	4.24
275.995	3.85
276.209	4.12
276.423	4.35
276.637	3.57
276.851	3.6
277.065	3.2
277.279	2.76
277.493	2.32
277.707	1.96
277.921	1.4
278.135	1.52
278.349	1.47
278.563	1.27
278.777	1.13
278.991	1.12
279.205	1.58
279.419	2.19
279.633	2.56
279.847	2.42
280.061	2.43
280.275	2.83
280.489	2.44
280.703	2.75
280.917	3.02
281.131	3.04
281.344	3.39
281.558	3.35
281.772	3.03
281.986	3.19
282.2	3.9
282.414	3.98
282.627	3.65
282.841	3.9
283.055	4.1
283.269	3.93
283.482	3.79
283.696	3.94
283.91	3.78
284.123	3.82
284.337	3.27
284.551	2.76
284.764	2.33
284.978	2.56
285.192	2.85
285.405	2.57
285.619	2.63
285.833	2.99
286.046	2.89
286.26	2.72
286.473	2.95
286.687	2.85
286.9	3.02
287.114	3.31
287.327	3.3
287.541	3.11
287.754	3.16
287.968	2.87
288.181	2.54
288.395	2.36
288.608	2.5
288.822	2.14
289.035	2.75
289.248	2.72
289.462	2.7
289.675	2.58
289.889	2.83
290.102	2.65
290.315	3.1
290.529	3.08
290.742	2.88
290.955	3.19
291.169	2.97
291.382	2.94
291.595	2.76
291.808	2.49
292.022	3.01
292.235	3.17
292.448	2.94
292.661	2.48
292.875	2.51
293.088	2.68
293.301	2.12
293.514	2.56
293.727	2.59
293.94	3.17
294.153	3.55
294.367	3.2
294.58	3.15
294.793	3.37
295.006	3.3
295.219	3.41
295.432	3.44
295.645	3.47
295.858	3.67
296.071	3.64
296.284	3.41
296.497	3.29
296.71	3.53
296.923	3.15
297.136	3.32
297.349	3.42
297.562	3.19
297.775	3.06
297.988	3.28
298.201	3.2
298.414	3.18
298.626	3.43
298.839	3.49
299.052	3.51
299.265	3.77
299.478	3.64
299.691	4.05
299.903	4.4
300.116	4.44
300.329	4.66
300.542	4.31
300.755	4.01
300.967	3.72
301.18	3.7
301.393	3.69
301.605	3.92
301.818	3.82
302.031	4.06
302.243	4.16
302.456	4.33
302.669	4.12
302.881	4.53
303.094	5.17
303.307	5.2
303.519	5.36
303.732	4.89
303.944	4.8
304.157	5.21
304.37	4.82
304.582	4.82
304.795	5.09
305.007	4.84
305.22	5.01
305.432	4.92
305.645	5.04
305.857	5.37
306.069	5.48
306.282	5.32
306.494	4.82
306.707	5.11
306.919	4.87
307.132	4.53
307.344	4.59
307.556	4.26
307.769	4.2
307.981	4.24
308.193	3.66
308.406	4.06
308.618	3.84
308.83	3.85
309.043	3.86
309.255	4.01
309.467	4.12
309.679	4.57
309.892	4.64
310.104	4.6
310.316	4.6
310.528	5.08
310.74	4.89
310.953	5.18
311.165	5.5
311.377	5.15
311.589	5.14
311.801	5.17
312.013	5.11
312.225	5.38
312.437	5.18
312.649	4.96
312.862	4.81
313.074	4.95
313.286	5.07
313.498	4.72
313.71	4.77
313.922	5.01
314.134	5.73
314.346	5.77
314.558	5.53
314.77	5.33
314.982	5.62
315.193	6.09
315.405	6.08
315.617	6.07
315.829	6.6
316.041	6.91
316.253	6.78
316.465	6.65
316.677	6.51
316.888	6.41
317.1	6.61
317.312	7.31
317.524	6.68
317.736	6.81
317.947	6.88
318.159	6.16
318.371	6.45
318.583	6.42
318.794	6.04
319.006	6.28
319.218	6.6
319.43	6.87
319.641	6.12
319.853	7.03
320.064	7.33
320.276	7.57
320.488	8.12
320.699	8.04
320.911	8.37
321.123	8.35
321.334	8.23
321.546	7.98
321.757	7.83
321.969	7.91
322.18	7.45
322.392	7.58
322.603	7.28
322.815	7.27
323.026	6.99
323.238	6.79
323.449	6.73
323.661	6.9
323.872	7.15
324.083	7.42
324.295	7.72
324.506	8.21
324.718	8.05
324.929	8.21
325.14	8.3
325.352	8.53
325.563	8.52
325.774	8.81
325.986	8.87
326.197	8.61
326.408	8.71
326.62	8.59
326.831	7.92
327.042	8.1
327.253	8.41
327.464	8.51
327.676	8.61
327.887	9.06
328.098	9.27
328.309	9.52
328.52	9.91
328.732	10.21
328.943	10.41
329.154	10.81
329.365	10.62
329.576	10.68
329.787	10.99
329.998	11.27
330.209	11.49
330.42	11.35
330.631	10.82
330.842	11.03
331.053	10.82
331.264	11.05
331.475	11.12
331.686	11.25
331.897	11.24
332.108	10.6
332.319	10.89
332.53	10.74
332.741	11.19
332.952	12.08
333.163	12.07
333.374	12.23
333.585	12.1
333.795	12.16
334.006	12.2
334.217	12.17
334.428	12.22
334.639	11.9
334.849	11.64
335.06	11.36
335.271	11
335.482	11.24
335.692	11.38
335.903	11.42
336.114	11.36
336.325	11.47
336.535	11.5
336.746	11.81
336.957	11.48
337.167	11.77
337.378	11.69
337.589	11.93
337.799	11.6
338.01	11.45
338.22	11.45
338.431	11.52
338.642	11.36
338.852	11.58
339.063	11.71
339.273	11.75
339.484	11.29
339.694	11.56
339.905	11.46
340.115	11.68
340.326	11.7
340.536	11.82
340.746	11.58
340.957	11.97
341.167	11.71
341.378	11.63
341.588	11.49
341.799	11.56
342.009	11.34
342.219	10.97
342.43	10.65
342.64	10.48
342.85	10.4
343.061	10.6
343.271	10.05
343.481	10.11
343.691	10.28
343.902	10.43
344.112	10.5
344.322	10.79
344.532	10.86
344.743	11.07
344.953	11.18
345.163	11.11
345.373	11.02
345.583	11.13
345.793	10.96
346.004	11
346.214	11.23
346.424	11.19
346.634	10.7
346.844	10.8
347.054	10.52
347.264	10.29
347.474	10.36
347.684	10.22
347.894	10.19
348.104	10.08
348.314	9.97
348.524	10.07
348.734	9.79
348.944	10.1
349.154	9.73
349.364	9.58
349.574	9.62
349.784	9.79
349.994	9.78
350.204	9.83
350.413	10.08
350.623	9.93
350.833	9.51
351.043	9.82
351.253	9.65
351.463	10.22
351.672	10.66
351.882	10.74
352.092	10.39
352.302	10.33
352.511	10.67
352.721	10.5
352.931	10.58
353.141	10.89
353.35	10.67
353.56	10.73
353.77	10.85
353.979	10.71
354.189	10.55
354.399	10.68
354.608	10.9
354.818	10.49
355.027	10.77
355.237	10.79
355.447	10.51
355.656	10.51
355.866	10.67
356.075	10.26
356.285	10.08
356.494	10.36
356.704	10.23
356.913	10.23
357.123	10.39
357.332	10.13
357.542	10.17
357.751	10.12
357.96	10.36
358.17	10.24
358.379	10.15
358.589	10.32
358.798	10
359.007	10.27
359.217	10.23
359.426	10.11
359.635	10.08
359.845	10.17
360.054	10.35
360.263	10.14
360.472	10.04
360.682	10.24
360.891	10.18
361.1	10.31
361.309	10.09
361.519	9.86
361.728	9.96
361.937	10.06
362.146	9.95
362.355	9.74
362.564	10.09
362.774	10.05
362.983	9.75
363.192	9.76
363.401	9.74
363.61	9.56
363.819	9.98
364.028	9.72
364.237	9.65
364.446	9.48
364.655	9.66
364.864	9.57
365.073	9.83
365.282	10.38
365.491	10.37
365.7	10.1
365.909	10.24
366.118	10.07
366.327	10.14
366.536	10.12
366.745	10.15
366.954	10.24
367.162	10.13
367.371	9.78
367.58	9.54
367.789	9.49
367.998	10.05
368.207	10.15
368.415	10.01
368.624	9.98
368.833	9.96
369.042	9.87
369.25	10.08
369.459	10.11
369.668	10.42
369.877	10.27
370.085	10.4
370.294	10.17
370.503	9.96
370.711	10.27
370.92	10.41
371.129	10.48
371.337	10.65
371.546	10.46
371.754	10.4
371.963	10.05
372.171	9.73
372.38	9.59
372.589	9.48
372.797	9.78
373.006	9.63
373.214	9.32
373.423	9.37
373.631	9.4
373.84	9.36
374.048	9.57
374.256	9.75
374.465	10.11
374.673	10.16
374.882	10.25
375.09	9.93
375.298	9.91
375.507	10.39
375.715	10.13
375.923	10.07
376.132	9.94
376.34	9.76
376.548	9.67
376.757	9.74
376.965	9.61
377.173	9.5
377.381	9.56
377.59	9.36
377.798	8.96
378.006	9.08
378.214	8.93
378.423	9.01
378.631	8.91
378.839	9.07
379.047	9.01
379.255	9.25
379.463	9.35
379.671	9.41
379.879	9.36
380.088	9.52
380.296	9.34
380.504	9.41
380.712	9.49
380.92	9.49
381.128	9.41
381.336	9.13
381.544	8.94
381.752	8.73
381.96	8.93
382.168	8.99
382.376	8.98
382.584	9.05
382.791	9.08
382.999	8.84
383.207	8.7
383.415	8.77
383.623	8.87
383.831	8.87
384.039	9
384.247	8.72
384.454	8.67
384.662	8.77
384.87	8.94
385.078	8.87
385.285	8.79
385.493	8.93
385.701	8.84
385.909	8.88
386.116	8.77
386.324	8.68
386.532	8.9
386.739	9.09
386.947	9.29
387.155	9.34
387.362	9.36
387.57	9.51
387.778	9.44
387.985	9.52
388.193	9.64
388.4	9.89
388.608	9.85
388.816	9.6
389.023	9.42
389.231	9.22
389.438	9.14
389.646	9.24
389.853	9.28
390.061	9.49
390.268	9.27
390.475	9.25
390.683	9.11
390.89	9.08
391.098	9.31
391.305	9.45
391.512	9.27
391.72	9.18
391.927	9.09
392.135	9
392.342	8.83
392.549	8.89
392.756	8.87
392.964	8.8
393.171	8.94
393.378	8.68
393.586	8.59
393.793	8.82
394	9.08
394.207	9.26
394.414	9.29
394.622	9.17
394.829	9.41
395.036	9.23
395.243	9.17
395.45	9.12
395.657	9.22
395.864	9.26
396.072	9.15
396.279	8.74
396.486	8.64
396.693	8.47
396.9	8.69
397.107	8.31
397.314	8.61
397.521	8.58
397.728	8.44
397.935	8.54
398.142	8.42
398.349	8.18
398.556	8.37
398.763	8.3
398.97	8.47
399.177	8.44
399.383	8.49
399.59	8.27
399.797	8.16
400.004	8.03
400.211	7.97
400.418	8.12
400.625	8.3
400.831	8.28
401.038	8.28
401.245	8.3
401.452	8.37
401.658	8.53
401.865	8.7
402.072	9
402.279	9.33
402.485	9.41
402.692	9.42
402.899	9.35
403.105	9.25
403.312	9.12
403.519	9
403.725	8.9
403.932	8.75
404.138	8.77
404.345	8.62
404.552	8.54
404.758	8.3
404.965	8.27
405.171	8.25
405.378	8.29
405.584	8.33
405.791	8.44
405.997	8.42
406.204	8.5
406.41	8.47
406.617	8.61
406.823	8.67
407.029	8.64
407.236	8.75
407.442	8.76
407.649	8.87
407.855	8.87
408.061	8.88
408.268	8.8
408.474	8.91
408.68	8.9
408.887	8.69
409.093	8.67
409.299	8.7
409.505	8.37
409.712	8.49
409.918	8.48
410.124	8.53
410.33	8.53
410.537	8.74
410.743	8.55
410.949	8.51
411.155	8.79
411.361	8.65
411.567	8.89
411.773	9.1
411.98	8.74
412.186	8.5
412.392	8.3
412.598	8.15
412.804	8.01
413.01	7.94
413.216	7.8
413.422	7.64
413.628	7.8
413.834	7.66
414.04	7.68
414.246	7.95
414.452	7.98
414.658	8.13
414.864	8.28
415.07	8.24
415.275	8.18
415.481	8.27
415.687	8.11
415.893	8.04
416.099	8.1
416.305	8.08
416.511	8.05
416.716	8.15
416.922	8.15
417.128	8.11
417.334	8.14
417.539	8.31
417.745	8.28
417.951	8.41
418.157	8.4
418.362	8.3
418.568	8.26
418.774	8.25
418.979	8.26
419.185	8.27
419.391	8.21
419.596	8.22
419.802	8.16
420.008	8.17
420.213	8.06
420.419	8.07
420.624	8.05
420.83	8.02
421.035	7.99
421.241	7.87
421.446	7.75
421.652	7.71
421.857	7.71
422.063	7.7
422.268	7.72
422.474	7.76
422.679	7.7
422.885	7.81
423.09	7.84
423.295	7.74
423.501	7.83
423.706	7.93
423.911	7.99
424.117	7.87
424.322	7.92
424.527	7.85
424.733	7.87
424.938	7.92
425.143	7.84
425.349	7.84
425.554	7.92
425.759	7.91
425.964	7.94
426.169	8
426.375	8.02
426.58	8.03
426.785	8.11
426.99	7.99
427.195	8.04
427.4	8.12
427.605	8.15
427.811	8.24
428.016	8.26
428.221	8.11
428.426	8.02
428.631	8.07
428.836	7.95
429.041	7.98
429.246	8.18
429.451	8.26
429.656	8.25
429.861	8.25
430.066	8.16
430.271	8.18
430.476	8.27
430.681	8.15
430.886	8.34
431.09	8.34
431.295	8.33
431.5	8.21
431.705	8.07
431.91	7.96
432.115	7.96
432.32	7.94
432.524	7.78
432.729	7.81
432.934	7.96
433.139	7.84
433.343	7.94
433.548	7.85
433.753	7.89
433.958	7.88
434.162	7.8
434.367	7.84
434.572	7.93
434.776	8.06
434.981	8.05
435.186	7.91
435.39	7.91
435.595	7.8
435.799	7.9
436.004	7.99
436.209	7.99
436.413	8.13
436.618	8.05
436.822	7.96
437.027	7.99
437.231	7.94
437.436	8.03
437.64	8.06
437.845	8.07
438.049	8.04
438.253	7.95
438.458	7.99
438.662	7.94
438.867	7.95
439.071	7.92
439.275	7.85
439.48	7.95
439.684	7.98
439.888	7.87
440.093	7.95
440.297	7.98
440.501	7.86
440.706	7.81
440.91	7.8
441.114	7.73
441.318	7.71
441.523	7.77
441.727	7.73
441.931	7.75
442.135	7.74
442.339	7.64
442.543	7.64
442.748	7.74
442.952	7.67
443.156	7.78
443.36	7.84
443.564	7.85
443.768	7.85
443.972	7.71
444.176	7.68
444.38	7.72
444.584	7.75
444.788	7.75
444.992	7.77
445.196	7.87
445.4	7.86
445.604	7.89
445.808	8.01
446.012	8
446.216	8.04
446.42	8.04
446.624	8.11
446.828	8.22
447.032	8.16
447.235	8.22
447.439	8.29
447.643	8.25
447.847	8.2
448.051	8.08
448.254	8.01
448.458	8.05
448.662	8.06
448.866	7.97
449.069	7.78
449.273	7.77
449.477	7.7
449.681	7.65
449.884	7.63
450.088	7.64
450.292	7.62
450.495	7.62
450.699	7.59
450.902	7.59
451.106	7.61
451.31	7.67
451.513	7.62
451.717	7.67
451.92	7.58
452.124	7.64
452.327	7.7
452.531	7.8
452.734	7.79
452.938	7.79
453.141	7.65
453.345	7.63
453.548	7.67
453.752	7.79
453.955	7.74
454.158	7.73
454.362	7.64
454.565	7.64
454.769	7.65
454.972	7.78
455.175	7.9
455.379	8.04
455.582	8.06
455.785	8.07
455.988	8.05
456.192	8.11
456.395	8.15
456.598	8.14
456.801	8.06
457.005	7.97
457.208	8.01
457.411	7.98
457.614	7.94
457.817	7.96
458.021	7.92
458.224	7.8
458.427	7.76
458.63	7.76
458.833	7.78
459.036	7.83
459.239	7.88
459.442	7.82
459.645	7.84
459.848	7.81
460.051	7.82
460.254	7.83
460.457	7.92
460.66	7.84
460.863	7.85
461.066	7.8
461.269	7.77
461.472	7.76
461.675	7.68
461.878	7.58
462.081	7.49
462.284	7.49
462.486	7.4
462.689	7.35
462.892	7.5
463.095	7.46
463.298	7.6
463.5	7.56
463.703	7.57
463.906	7.67
464.109	7.67
464.311	7.7
464.514	7.71
464.717	7.81
464.92	7.85
465.122	7.84
465.325	7.87
465.528	7.85
465.73	7.94
465.933	7.83
466.135	7.83
466.338	7.86
466.541	8.06
466.743	7.99
466.946	7.93
467.148	7.87
467.351	7.83
467.553	7.87
467.756	7.88
467.958	7.8
468.161	7.87
468.363	7.95
468.566	8.01
468.768	7.92
468.971	7.96
469.173	7.98
469.375	8.06
469.578	7.91
469.78	8.02
469.983	7.97
470.185	8.06
470.387	8.18
470.59	8.09
470.792	8.09
470.994	8.13
471.196	8.22
471.399	8.14
471.601	8.05
471.803	8.25
472.005	8.12
472.208	8.07
472.41	8.14
472.612	8.1
472.814	8.2
473.016	8.16
473.218	8.17
473.421	8.02
473.623	8.13
473.825	8.21
474.027	8.22
474.229	8.28
474.431	8.34
474.633	8.24
474.835	8.21
475.037	8
475.239	8.12
475.441	8.13
475.643	8.2
475.845	8.13
476.047	8.2
476.249	8.19
476.451	8.21
476.653	8.16
476.855	8.05
477.057	8.06
477.258	8.14
477.46	8.05
477.662	8.11
477.864	8.14
478.066	8.05
478.268	7.93
478.469	7.95
478.671	7.89
478.873	7.94
479.075	7.96
479.276	8
479.478	7.87
479.68	7.84
479.882	7.72
480.083	7.8
480.285	7.9
480.487	7.89
480.688	7.86
480.89	7.93
481.091	7.97
481.293	8
481.495	7.95
481.696	8.08
481.898	8.05
482.099	8.05
482.301	7.93
482.502	7.91
482.704	7.9
482.905	7.91
483.107	7.85
483.308	7.8
483.51	7.8
483.711	7.81
483.913	7.76
484.114	7.78
484.315	7.75
484.517	7.79
484.718	7.78
484.92	7.78
485.121	7.74
485.322	7.72
485.524	7.76
485.725	7.75
485.926	7.74
486.127	7.74
486.329	7.69
486.53	7.7
486.731	7.68
486.932	7.66
487.134	7.71
487.335	7.72
487.536	7.75
487.737	7.71
487.938	7.72
488.139	7.7
488.341	7.71
488.542	7.75
488.743	7.76
488.944	7.77
489.145	7.84
489.346	7.88
489.547	7.85
489.748	7.87
489.949	7.9
490.15	7.86
490.351	7.9
490.552	7.9
490.753	7.9
490.954	7.89
491.155	7.87
491.356	7.87
491.557	7.78
491.758	7.84
491.959	7.82
492.159	7.82
492.36	7.87
492.561	7.88
492.762	7.88
492.963	7.86
493.164	7.91
493.364	7.97
493.565	7.94
493.766	7.95
493.967	7.94
494.167	8.01
494.368	7.97
494.569	7.9
494.769	7.88
494.97	7.89
495.171	7.98
495.371	7.92
495.572	7.91
495.773	8.05
495.973	8.09
496.174	8.08
496.375	8.03
496.575	8.08
496.776	8.15
496.976	8.21
497.177	8.23
497.377	8.19
497.578	8.18
497.778	8.18
497.979	8.08
498.179	8.1
498.38	8.14
498.58	8.2
498.78	8.25
498.981	8.22
499.181	8.16
499.382	8.18
499.582	8.26
499.782	8.22
499.983	8.15
500.183	8.17
500.383	8.2
500.584	8.22
500.784	8.22
500.984	8.18
501.184	8.25
501.385	8.26
501.585	8.27
501.785	8.21
501.985	8.37
502.185	8.45
502.386	8.46
502.586	8.43
502.786	8.38
502.986	8.33
503.186	8.31
503.386	8.33
503.586	8.43
503.786	8.48
503.987	8.57
504.187	8.48
504.387	8.44
504.587	8.48
504.787	8.58
504.987	8.59
505.187	8.72
505.387	8.83
505.587	8.81
505.786	8.81
505.986	8.85
506.186	8.83
506.386	9.03
506.586	9.19
506.786	9.12
506.986	9.08
507.186	9.14
507.386	9.02
507.585	8.94
507.785	9.04
507.985	9.04
508.185	9
508.384	8.96
508.584	8.89
508.784	8.89
508.984	8.98
509.183	9
509.383	9.04
509.583	9.17
509.782	9.21
509.982	9.14
510.182	9.13
510.381	9.1
510.581	9.13
510.781	9.08
510.98	9.1
511.18	9.19
511.379	9.27
511.579	9.3
511.778	9.28
511.978	9.33
512.177	9.38
512.377	9.45
512.576	9.52
512.776	9.64
512.975	9.74
513.175	9.76
513.374	9.68
513.573	9.55
513.773	9.49
513.972	9.54
514.172	9.52
514.371	9.54
514.57	9.56
514.77	9.72
514.969	9.66
515.168	9.66
515.367	9.69
515.567	9.78
515.766	9.95
515.965	10.03
516.164	9.99
516.364	10
516.563	10
516.762	10.01
516.961	9.95
517.16	10.01
517.359	10
517.559	9.98
517.758	9.95
517.957	9.96
518.156	9.96
518.355	10.06
518.554	10.13
518.753	10.19
518.952	10.19
519.151	10.19
519.35	10.24
519.549	10.28
519.748	10.31
519.947	10.37
520.146	10.4
520.345	10.44
520.544	10.38
520.743	10.39
520.942	10.43
521.141	10.49
521.339	10.57
521.538	10.6
521.737	10.62
521.936	10.58
522.135	10.57
522.333	10.54
522.532	10.63
522.731	10.68
522.93	10.76
523.129	10.69
523.327	10.63
523.526	10.61
523.725	10.55
523.923	10.59
524.122	10.72
524.321	10.73
524.519	10.78
524.718	10.73
524.917	10.75
525.115	10.84
525.314	10.93
525.512	11.04
525.711	11.05
525.909	11.09
526.108	11.07
526.306	11.06
526.505	11.11
526.703	11.13
526.902	11.15
527.1	11.14
527.299	11.1
527.497	11.11
527.696	11.1
527.894	11.16
528.092	11.13
528.291	11.19
528.489	11.2
528.688	11.23
528.886	11.24
529.084	11.27
529.283	11.34
529.481	11.36
529.679	11.34
529.877	11.38
530.076	11.36
530.274	11.44
530.472	11.48
530.67	11.5
530.869	11.51
531.067	11.57
531.265	11.56
531.463	11.59
531.661	11.57
531.859	11.67
532.057	11.64
532.255	11.73
532.454	11.81
532.652	11.77
532.85	11.82
533.048	11.84
533.246	11.8
533.444	11.8
533.642	11.83
533.84	11.9
534.038	11.9
534.236	11.95
534.434	11.95
534.632	11.94
534.83	11.99
535.027	11.96
535.225	12.06
535.423	12.08
535.621	12.17
535.819	12.18
536.017	12.29
536.215	12.3
536.412	12.34
536.61	12.33
536.808	12.31
537.006	12.35
537.203	12.42
537.401	12.39
537.599	12.51
537.797	12.59
537.994	12.65
538.192	12.62
538.39	12.63
538.587	12.7
538.785	12.78
538.983	12.83
539.18	12.94
539.378	13.04
539.575	13.15
539.773	13.17
539.97	13.16
540.168	13.15
540.366	13.19
540.563	13.34
540.761	13.32
540.958	13.33
541.155	13.35
541.353	13.37
541.55	13.41
541.748	13.36
541.945	13.4
542.143	13.47
542.34	13.52
542.537	13.54
542.735	13.53
542.932	13.59
543.129	13.65
543.327	13.76
543.524	13.83
543.721	13.89
543.919	14.05
544.116	14.06
544.313	14.09
544.51	14.17
544.708	14.27
544.905	14.36
545.102	14.51
545.299	14.64
545.496	14.69
545.693	14.74
545.891	14.67
546.088	14.67
546.285	14.73
546.482	14.76
546.679	14.78
546.876	14.82
547.073	14.75
547.27	14.71
547.467	14.73
547.664	14.68
547.861	14.68
548.058	14.74
548.255	14.7
548.452	14.71
548.649	14.77
548.846	14.71
549.043	14.78
549.24	14.92
549.437	14.86
549.633	14.82
549.83	14.95
550.027	14.95
550.224	15.13
550.421	15.07
550.618	15.1
550.814	15.02
551.011	15.14
551.208	14.99
551.405	15.04
551.601	15.21
551.798	15.16
551.995	15.05
552.191	15.06
552.388	14.91
552.585	15
552.781	15.01
552.978	15.09
553.175	14.98
553.371	15.03
553.568	14.94
553.764	14.76
553.961	14.82
554.157	14.79
554.354	14.81
554.55	14.87
554.747	14.79
554.943	14.77
555.14	14.8
555.336	14.86
555.533	14.92
555.729	15.01
555.926	15.06
556.122	15.02
556.318	15.18
556.515	15.13
556.711	15.06
556.907	15.2
557.104	15.23
557.3	15.39
557.496	15.39
557.693	15.43
557.889	15.42
558.085	15.47
558.281	15.6
558.478	15.63
558.674	15.73
558.87	15.9
559.066	15.89
559.262	15.98
559.459	15.84
559.655	15.94
559.851	15.99
560.047	16.06
560.243	16.25
560.439	16.2
560.635	16.15
560.831	16.17
561.027	16.23
561.223	16.23
561.419	16.23
561.615	16.32
561.811	16.31
562.007	16.13
562.203	16.04
562.399	15.92
562.595	15.93
562.791	15.94
562.987	15.79
563.183	15.81
563.379	15.9
563.575	15.9
563.771	15.87
563.966	15.84
564.162	16.08
564.358	16.19
564.554	16.13
564.75	16.12
564.945	16.08
565.141	16.2
565.337	16.18
565.533	16.12
565.728	16.14
565.924	16.15
566.12	16.26
566.315	16.18
566.511	16.23
566.707	16.37
566.902	16.33
567.098	16.44
567.293	16.51
567.489	16.45
567.684	16.47
567.88	16.5
568.076	16.45
568.271	16.39
568.467	16.44
568.662	16.37
568.858	16.34
569.053	16.43
569.248	16.52
569.444	16.6
569.639	16.62
569.835	16.74
570.03	16.78
570.225	16.93
570.421	16.99
570.616	17.06
570.812	16.99
571.007	16.96
571.202	17
571.397	16.97
571.593	16.91
571.788	16.94
571.983	16.91
572.178	16.93
572.374	16.9
572.569	16.91
572.764	16.88
572.959	16.93
573.154	17
573.35	17.09
573.545	16.96
573.74	16.97
573.935	17
574.13	17.01
574.325	17.03
574.52	17.16
574.715	17.21
574.91	17.26
575.105	17.41
575.3	17.47
575.495	17.46
575.69	17.73
575.885	17.8
576.08	17.83
576.275	17.87
576.47	17.93
576.665	17.99
576.86	18.12
577.055	18.17
577.25	18.18
577.444	18.18
577.639	18.18
577.834	18.19
578.029	18.29
578.224	18.37
578.418	18.43
578.613	18.61
578.808	18.61
579.003	18.57
579.197	18.47
579.392	18.44
579.587	18.44
579.781	18.55
579.976	18.56
580.171	18.44
580.365	18.49
580.56	18.74
580.755	18.55
580.949	18.52
581.144	18.67
581.338	18.75
581.533	18.87
581.727	18.95
581.922	19.1
582.116	19.12
582.311	19.32
582.505	19.41
582.7	19.3
582.894	19.35
583.089	19.43
583.283	19.35
583.478	19.35
583.672	19.44
583.866	19.51
584.061	19.53
584.255	19.35
584.449	19.3
584.644	19.41
584.838	19.33
585.032	19.36
585.226	19.29
585.421	19.15
585.615	19.34
585.809	19.39
586.003	19.48
586.198	19.37
586.392	19.58
586.586	19.53
586.78	19.46
586.974	19.46
587.168	19.48
587.363	19.38
587.557	19.38
587.751	19.38
587.945	19.14
588.139	19.13
588.333	19.02
588.527	18.83
588.721	18.76
588.915	18.65
589.109	18.74
589.303	18.81
589.497	18.94
589.691	19.1
589.885	18.95
590.079	19.02
590.273	19.02
590.466	19.21
590.66	19.32
590.854	19.51
591.048	19.65
591.242	19.67
591.436	19.63
591.629	19.71
591.823	19.69
592.017	19.8
592.211	19.84
592.404	19.76
592.598	19.61
592.792	19.73
592.986	19.7
593.179	19.69
593.373	19.56
593.567	19.51
593.76	19.57
593.954	19.39
594.147	19.46
594.341	19.43
594.535	19.5
594.728	19.54
594.922	19.51
595.115	19.48
595.309	19.45
595.502	19.47
595.696	19.43
595.889	19.37
596.083	19.5
596.276	19.37
596.47	19.39
596.663	19.28
596.856	19.14
597.05	19.02
597.243	19.13
597.437	19.13
597.63	19.1
597.823	19.19
598.017	19.24
598.21	19.22
598.403	19.24
598.596	19.27
598.79	19.45
598.983	19.74
599.176	19.78
599.369	19.74
599.563	19.82
599.756	19.97
599.949	20.04
600.142	19.98
600.335	19.9
600.528	19.96
600.722	19.93
600.915	19.76
601.108	19.55
601.301	19.56
601.494	19.49
601.687	19.34
601.88	19.22
602.073	18.99
602.266	18.89
602.459	18.89
602.652	18.87
602.845	18.89
603.038	18.99
603.231	19.05
603.424	19.15
603.617	19.07
603.809	19.08
604.002	19.11
604.195	19.24
604.388	19.26
604.581	19.3
604.774	19.35
604.966	19.46
605.159	19.35
605.352	19.32
605.545	19.26
605.737	19.42
605.93	19.5
606.123	19.55
606.316	19.49
606.508	19.64
606.701	19.82
606.894	19.9
607.086	19.89
607.279	20.03
607.471	20.22
607.664	20.45
607.857	20.62
608.049	20.94
608.242	21.29
608.434	21.88
608.627	22.26
608.819	22.72
609.012	23.35
609.204	24.06
609.397	24.97
609.589	25.77
609.782	26.47
609.974	27.39
610.166	28.28
610.359	28.99
610.551	29.67
610.743	30.27
610.936	30.68
611.128	31.02
611.32	31.27
611.513	31.24
611.705	31.3
611.897	31.38
612.09	31.01
612.282	30.67
612.474	30.39
612.666	30.02
612.858	29.48
613.051	29.34
613.243	28.99
613.435	28.56
613.627	28.37
613.819	27.92
614.011	27.54
614.203	27.11
614.395	26.66
614.588	26.31
614.78	25.88
614.972	25.67
615.164	25.15
615.356	24.59
615.548	24.34
615.74	23.82
615.932	23.41
616.124	23.11
616.315	22.88
616.507	22.6
616.699	22.39
616.891	22.13
617.083	21.85
617.275	21.85
617.467	21.84
617.659	21.73
617.85	21.6
618.042	21.65
618.234	21.47
618.426	21.45
618.618	21.27
618.809	21.12
619.001	21.13
619.193	21.36
619.384	21.12
619.576	21.17
619.768	21.07
619.959	21.47
620.151	21.32
620.343	21.49
620.534	21.46
620.726	21.76
620.917	21.88
621.109	21.9
621.301	21.76
621.492	22.14
621.684	22.1
621.875	22.3
622.067	22.09
622.258	22.4
622.45	22.48
622.641	22.67
622.832	22.74
623.024	22.76
623.215	22.88
623.407	22.91
623.598	22.63
623.789	22.89
623.981	22.74
624.172	22.74
624.363	22.75
624.555	22.63
624.746	22.47
624.937	22.27
625.129	22.13
625.32	22.02
625.511	22.03
625.702	21.97
625.893	21.95
626.085	22.09
626.276	21.94
626.467	21.85
626.658	21.71
626.849	21.77
627.04	21.58
627.231	21.69
627.422	21.64
627.614	21.43
627.805	21.64
627.996	21.44
628.187	21.35
628.378	21.38
628.569	21.49
628.76	21.7
628.951	21.69
629.142	22.02
629.332	22.05
629.523	22.27
629.714	22.61
629.905	22.48
630.096	22.67
630.287	22.57
630.478	22.85
630.669	22.86
630.859	22.81
631.05	23.04
631.241	23.07
631.432	23.05
631.623	23.03
631.813	22.99
632.004	23.08
632.195	22.97
632.385	22.98
632.576	22.72
632.767	22.42
632.957	22.24
633.148	22.06
633.339	21.85
633.529	21.83
633.72	21.57
633.91	21.33
634.101	21.24
634.292	21.25
634.482	21.36
634.673	21.23
634.863	21.35
635.054	21.52
635.244	21.48
635.435	21.71
635.625	21.49
635.815	21.6
636.006	21.63
636.196	21.58
636.387	21.57
636.577	21.47
636.767	21.6
636.958	21.54
637.148	21.45
637.338	21.33
637.529	21.19
637.719	21.43
637.909	21.31
638.099	21.48
638.29	21.45
638.48	21.15
638.67	21.25
638.86	21.23
639.05	21.2
639.241	21.15
639.431	21.25
639.621	21.13
639.811	21.15
640.001	21.23
640.191	21.14
640.381	21.15
640.571	21.38
640.761	21.07
640.951	21.17
641.141	21.1
641.331	21.15
641.521	21.5
641.711	21.55
641.901	21.33
642.091	21.53
642.281	21.82
642.471	21.87
642.661	22.21
642.851	22.32
643.041	22.25
643.231	22.38
643.42	22.33
643.61	22.12
643.8	22.29
643.99	22.57
644.18	22.55
644.369	22.38
644.559	22.34
644.749	21.96
644.939	22.07
645.128	21.83
645.318	21.97
645.508	22.01
645.697	21.66
645.887	21.5
646.076	21.46
646.266	21.47
646.456	21.45
646.645	21.55
646.835	21.68
647.024	21.79
647.214	22.02
647.403	21.94
647.593	22.32
647.782	22.68
647.972	22.7
648.161	22.81
648.351	22.57
648.54	22.67
648.73	22.7
648.919	22.85
649.108	22.87
649.298	23.16
649.487	23.17
649.677	22.96
649.866	22.85
650.055	22.99
650.244	22.94
650.434	23.05
650.623	22.91
650.812	22.98
651.002	23
651.191	22.85
651.38	22.54
651.569	22.47
651.758	22.36
651.947	22.42
652.137	22.18
652.326	22.27
652.515	22.21
652.704	22.4
652.893	22.34
653.082	22.17
653.271	22.33
653.46	22.47
653.649	22.7
653.838	22.72
654.027	22.62
654.216	22.64
654.405	22.52
654.594	22.76
654.783	22.48
654.972	22.52
655.161	22.66
655.35	22.5
655.539	22.29
655.728	22.23
655.916	21.91
656.105	22.08
656.294	22.13
656.483	22.05
656.672	21.98
656.86	22.13
657.049	22.05
657.238	21.91
657.427	21.92
657.615	22.2
657.804	22.11
657.993	22.25
658.181	22.04
658.37	22.11
658.559	22
658.747	21.81
658.936	21.77
659.125	21.62
659.313	21.69
659.502	21.71
659.69	21.45
659.879	21.54
660.067	21.6
660.256	21.68
660.444	21.92
660.633	22.17
660.821	22.43
661.01	22.63
661.198	22.84
661.387	22.95
661.575	23.01
661.763	23.12
661.952	23.17
662.14	23.38
662.328	23.56
662.517	23.32
662.705	23.18
662.893	22.97
663.082	22.94
663.27	22.87
663.458	22.82
663.646	23
663.834	23.19
664.023	23.37
664.211	23.05
664.399	22.87
664.587	22.68
664.775	22.73
664.963	22.89
665.152	22.91
665.34	22.95
665.528	22.96
665.716	23.04
665.904	22.79
666.092	22.53
666.28	22.56
666.468	22.74
666.656	23.13
666.844	23.19
667.032	23.13
667.22	22.9
667.408	22.97
667.596	23.01
667.784	22.8
667.971	22.94
668.159	22.91
668.347	23.06
668.535	23.18
668.723	22.96
668.911	22.78
669.098	22.83
669.286	23.1
669.474	22.97
669.662	22.73
669.849	22.77
670.037	22.88
670.225	22.99
670.413	22.87
670.6	22.66
670.788	22.71
670.976	23.02
671.163	23.22
671.351	23.01
671.538	23.25
671.726	23.64
671.913	23.78
672.101	23.72
672.289	23.6
672.476	23.75
672.664	23.86
672.851	23.96
673.039	24.12
673.226	24.11
673.413	24.24
673.601	23.87
673.788	23.69
673.976	23.46
674.163	23.79
674.35	23.87
674.538	24.06
674.725	24.13
674.912	24.37
675.1	23.98
675.287	24.02
675.474	24.01
675.662	24.33
675.849	24.5
676.036	24.44
676.223	24.48
676.411	24.29
676.598	24.21
676.785	24.13
676.972	23.86
677.159	24.03
677.346	23.64
677.533	23.66
677.721	23.58
677.908	23.14
678.095	23.21
678.282	22.96
678.469	22.94
678.656	22.93
678.843	22.69
679.03	22.74
679.217	22.6
679.404	22.88
679.591	22.77
679.778	22.79
679.964	23.12
680.151	23.23
680.338	23.1
680.525	23.3
680.712	23.24
680.899	23.52
681.086	23.54
681.272	23.77
681.459	23.55
681.646	23.5
681.833	23.55
682.02	23.61
682.206	23.63
682.393	23.9
682.58	23.79
682.766	23.9
682.953	24.05
683.14	23.93
683.326	23.98
683.513	24.18
683.7	24.38
683.886	24.32
684.073	24.4
684.259	24.67
684.446	24.36
684.632	24.77
684.819	24.9
685.005	24.64
685.192	24.74
685.378	24.57
685.565	24.7
685.751	24.59
685.938	24.63
686.124	24.35
686.31	24.36
686.497	24.75
686.683	24.56
686.87	24.44
687.056	24.63
687.242	24.72
687.429	24.71
687.615	24.69
687.801	24.8
687.987	24.93
688.174	24.91
688.36	24.34
688.546	24.23
688.732	24.17
688.918	23.75
689.105	23.47
689.291	23.6
689.477	23.37
689.663	23.6
689.849	23.34
690.035	22.91
690.221	23.11
690.407	23.78
690.593	23.87
690.779	24
690.965	24.39
691.151	24.72
691.337	24.57
691.523	24.87
691.709	24.74
691.895	25.07
692.081	25.54
692.267	25.53
692.453	25.46
692.639	25.36
692.825	25.23
693.011	24.85
693.196	24.87
693.382	24.92
693.568	25.11
693.754	24.78
693.94	25.16
694.125	25.01
694.311	25.07
694.497	25.01
694.682	25.08
694.868	25.06
695.054	25.39
695.239	25.43
695.425	25.27
695.611	25.09
695.796	25.01
695.982	24.46
696.168	24.37
696.353	24.06
696.539	23.66
696.724	23.64
696.91	23.67
697.095	23.62
697.281	23.37
697.466	23.25
697.652	23.15
697.837	23.09
698.023	23.18
698.208	23.35
698.393	23.5
698.579	23.43
698.764	23.27
698.949	23.27
699.135	23.18
699.32	23.31
699.505	23.34
699.691	23.38
699.876	23.58
700.061	23.48
700.246	23.36
700.432	23.16
700.617	23.32
700.802	23.5
700.987	23.85
701.172	24.38
701.358	24.01
701.543	24.56
701.728	24.36
701.913	24.51
702.098	24.9
702.283	25.19
702.468	25.66
702.653	25.51
702.838	25.58
703.023	25.58
703.208	25.32
703.393	25.59
703.578	25.59
703.763	26.45
703.948	26.25
704.133	26.14
704.318	26.18
704.503	26.32
704.688	26.79
704.873	27.18
705.057	27.34
705.242	28.05
705.427	28.52
705.612	28.9
705.797	28.8
705.981	29.22
706.166	29.73
706.351	29.68
706.536	29.9
706.72	30.22
706.905	29.82
707.09	29.85
707.274	29.2
707.459	29.52
707.644	29.05
707.828	29.33
708.013	29.41
708.197	29.17
708.382	29.1
708.567	29.16
708.751	29.34
708.936	29.61
709.12	29.52
709.305	29.79
709.489	29.27
709.673	29.28
709.858	29.23
710.042	29.43
710.227	29.4
710.411	29.81
710.596	29.66
710.78	29.01
710.964	28.89
711.149	28.67
711.333	28.66
711.517	29.24
711.702	29.11
711.886	29.05
712.07	28.57
712.254	28.39
712.438	27.99
712.623	27.54
712.807	27.84
712.991	27.76
713.175	27.92
713.359	27.37
713.544	26.95
713.728	26.91
713.912	26.67
714.096	26.51
714.28	26.55
714.464	26.33
714.648	26.21
714.832	25.81
715.016	25.82
715.2	25.41
715.384	25.8
715.568	25.52
715.752	25.28
715.936	25.1
716.12	25.26
716.304	25.15
716.488	25.03
716.671	24.85
716.855	25.25
717.039	25.02
717.223	25.03
717.407	24.68
717.59	24.76
717.774	24.8
717.958	24.87
718.142	24.54
718.325	24.53
718.509	24.94
718.693	25.36
718.877	25.05
719.06	24.92
719.244	25.08
719.428	25.17
719.611	25.41
719.795	25.69
719.978	25.62
720.162	26.22
720.345	26.25
720.529	26.19
720.713	26.23
720.896	26.22
721.08	27.01
721.263	26.96
721.446	27.22
721.63	27.08
721.813	27.24
721.997	26.96
722.18	26.85
722.364	26.51
722.547	26.12
722.73	26.69
722.914	26.79
723.097	26.51
723.28	27.07
723.464	26.82
723.647	26.61
723.83	26.01
724.013	25.94
724.197	25.49
724.38	25.78
724.563	26.69
724.746	25.93
724.929	25.83
725.112	25.9
725.296	25.19
725.479	25.54
725.662	25.9
725.845	26.03
726.028	25.96
726.211	26.32
726.394	26.54
726.577	25.85
726.76	26.3
726.943	25.91
727.126	25.92
727.309	25.83
727.492	25.64
727.675	25.41
727.858	25.65
728.041	26.19
728.224	25.63
728.407	25.44
728.589	25.93
728.772	26.15
728.955	26.39
729.138	25.54
729.321	25.92
729.503	25.75
729.686	25.56
729.869	25.53
730.052	25.31
730.234	25.65
730.417	25.76
730.6	25.06
730.782	24.83
730.965	24.75
731.148	25.39
731.33	25.07
731.513	25.47
731.695	26.14
731.878	26.41
732.061	26.65
732.243	26.86
732.426	26.9
732.608	27.14
732.791	27.16
732.973	27.24
733.156	27.45
733.338	27.56
733.52	27.59
733.703	27.04
733.885	27.09
734.068	26.71
734.25	26.87
734.432	26.82
734.615	26.97
734.797	26.9
734.979	27.24
735.162	27.24
735.344	27.32
735.526	26.83
735.708	26.81
735.891	27.15
736.073	27.33
736.255	27.32
736.437	27.35
736.619	26.91
736.802	26.83
736.984	26.84
737.166	26.49
737.348	26.68
737.53	27.15
737.712	27.62
737.894	27.41
738.076	27.16
738.258	26.96
738.44	26.85
738.622	27.18
738.804	27.39
738.986	27.33
739.168	27.36
739.35	27.08
739.532	27.29
739.714	27.37
739.896	27.54
740.078	28.09
740.259	28.19
740.441	28
740.623	27.43
740.805	27.3
740.987	27.58
741.168	27.99
741.35	28.34
741.532	28.35
741.714	28.58
741.895	28.53
742.077	28.84
742.259	29.22
742.44	29.68
742.622	30.17
742.804	29.79
742.985	29.78
743.167	29.73
743.348	29.28
743.53	28.79
743.711	28.2
743.893	28.09
744.075	27.36
744.256	26.88
744.438	27.43
744.619	28.46
744.8	29.02
744.982	28.3
745.163	28.81
745.345	29.14
745.526	29.75
745.707	29.39
745.889	28.78
746.07	29.08
746.252	29.37
746.433	29.57
746.614	29.06
746.795	29.06
746.977	29.05
747.158	28.2
747.339	28.73
747.52	28.02
747.702	28.47
747.883	29.13
748.064	29.19
748.245	29.5
748.426	29.16
748.607	29.2
748.788	28.65
748.97	29.18
749.151	29.74
749.332	29.42
749.513	29.78
749.694	30.26
749.875	29.91
750.056	29.66
750.237	29.61
750.418	29.69
750.599	29.23
750.78	29.82
750.96	29.96
751.141	29.7
751.322	29.59
751.503	29.98
751.684	29.65
751.865	30.24
752.046	31.03
752.226	30.95
752.407	30.7
752.588	31.07
752.769	31.4
752.949	31.28
753.13	31.94
753.311	31.6
753.492	30.78
753.672	31.16
753.853	31.06
754.034	29.69
754.214	29.19
754.395	28.31
754.575	29.03
754.756	28.24
754.937	28.31
755.117	27.84
755.298	28.52
755.478	28.81
755.659	28.33
755.839	27.91
756.02	29.03
756.2	29.43
756.381	30.26
756.561	29.23
756.741	29.56
756.922	29.66
757.102	29.86
757.283	29.38
757.463	29.05
757.643	28.65
757.823	28.26
758.004	27.69
758.184	26.97
758.364	26.13
758.545	26.04
758.725	26.3
758.905	25.95
759.085	25.01
759.265	24.28
759.446	24.67
759.626	24.21
759.806	23.93
759.986	24.11
760.166	25.03
760.346	25.24
760.526	24.98
760.706	23.99
760.886	23.76
761.066	23.65
761.246	23.95
761.426	23.98
761.606	24.47
761.786	24.68
761.966	24.49
762.146	24.2
762.326	24.17
762.506	24.12
762.686	24.86
762.866	24.41
763.046	24.65
763.225	24.67
763.405	24.29
763.585	24.35
763.765	24.3
763.945	23.92
764.124	23.34
764.304	23.47
764.484	23.71
764.664	22.95
764.843	23.37
765.023	23.55
765.203	23.51
765.382	23.86
765.562	23.79
765.741	23.82
765.921	24.89
766.101	25.54
766.28	26.07
766.46	25.69
766.639	26.14
766.819	26.41
766.998	26.51
767.178	27.25
767.357	27.52
767.537	28.45
767.716	29.17
767.896	29.2
768.075	29.48
768.254	29.41
768.434	30.36
768.613	31
768.792	31.36
768.972	31.37
769.151	31.77
769.33	31.72
769.51	31.31
769.689	30.92
769.868	31.01
770.047	31.33
770.226	31.35
770.406	31.75
770.585	31.61
770.764	31.45
770.943	32.18
771.122	32.32
771.301	31.81
771.48	31.62
771.66	31.79
771.839	31.2
772.018	31.11
772.197	31.14
772.376	30.94
772.555	31.44
772.734	31.39
772.913	30.87
773.092	30.29
773.271	31.12
773.449	31.35
773.628	31.87
773.807	32.33
773.986	32.69
774.165	32.73
774.344	32.99
774.523	33.38
774.701	34.25
774.88	34.14
775.059	34.68
775.238	34.32
775.417	34.03
775.595	34.18
775.774	33.84
775.953	32.9
776.131	33.24
776.31	32.52
776.489	32.47
776.667	31.38
776.846	30.95
777.025	29.95
777.203	31.41
777.382	32.09
777.56	31.63
777.739	31.98
777.917	32.76
778.096	32.28
778.274	33.38
778.453	33.25
778.631	33.66
778.81	33.76
778.988	34.43
779.166	32.9
779.345	32.66
779.523	32.88
779.702	32.95
779.88	32.78
780.058	32.94
780.237	32.72
780.415	33.34
780.593	32.77
780.771	33.81
780.95	33.23
781.128	33.42
781.306	32.62
781.484	31.89
781.662	31.92
781.841	31.55
782.019	31.76
782.197	31.75
782.375	30.53
782.553	31.08
782.731	31.02
782.909	32.01
783.087	32.46
783.265	32.4
783.443	32.37
783.621	31.89
783.799	31.85
783.977	31.7
784.155	30.72
784.333	32.1
784.511	31.22
784.689	30.68
784.867	29.79
785.045	29.35
785.223	30.12
785.4	31.49
785.578	32.58
785.756	31.32
785.934	32
786.112	33.3
786.289	31.52
786.467	31.69
786.645	31.46
786.823	32.5
787	31.77
787.178	32.3
787.356	30.25
787.533	29.36
787.711	30.51
787.889	30.11
788.066	28.86
788.244	29.07
788.421	29.64
788.599	30.19
788.776	28.81
788.954	29.02
789.131	28.34
789.309	29.61
789.486	28.76
789.664	29.02
789.841	28.42
790.019	28.4
790.196	29.38
790.373	29.6
790.551	28.81
790.728	29.36
790.906	29.71
791.083	30.05
791.26	29.78
791.437	29.94
791.615	29.97
791.792	29.87
791.969	30.99
792.146	29.77
792.324	29.72
792.501	29.79
792.678	29.37
792.855	29.78
793.032	28.93
793.209	27.82
793.387	30.16
793.564	30.56
793.741	31.34
793.918	32.4
794.095	33.94
794.272	33.71
794.449	34.02
794.626	33.79
794.803	33.83
794.98	34.29
795.157	34.43
795.334	33.4
795.511	32.4
795.688	31.96
795.864	30.79
796.041	30.07
796.218	29.99
796.395	29.3
796.572	29.29
796.749	28.84
796.925	28.58
797.102	29.19
797.279	28.95
797.456	29.18
797.632	29.74
797.809	28.49
797.986	26.88
798.162	26.81
798.339	27.12
798.516	26.34
798.692	26.15
798.869	27.27
799.046	26.94
799.222	27.11
799.399	26.45
799.575	26.15
799.752	27.16
799.928	28.78
800.105	29.3
800.281	29.14
800.458	30.6
800.634	31.26
800.811	31
800.987	31.68
801.163	30.45
801.34	30.61
801.516	30.08
801.692	29.58
801.869	28.91
802.045	27.86
802.221	28.71
802.398	28.29
802.574	27.89
802.75	27.57
802.926	28.38
803.103	29.82
803.279	30.14
803.455	29.63
803.631	30.2
803.807	29.59
803.983	30.54
804.16	30.85
804.336	30.8
804.512	30.68
804.688	30.43
804.864	28.96
805.04	29.01
805.216	29.23
805.392	30.57
805.568	29.94
805.744	30.57
805.92	29.86
806.096	29.65
806.272	31.19
806.448	31.69
806.623	31.22
806.799	31.14
806.975	31.79
807.151	31.36
807.327	30.46
807.503	29.96
807.678	30.2
807.854	30.56
808.03	29.39
808.206	28.72
808.381	28.44
808.557	30.06
808.733	30.24
808.908	29.32
809.084	30.41
809.26	31.6
809.435	33.27
809.611	32.23
809.787	32.2
809.962	32.57
810.138	33.6
810.313	34.7
810.489	33.02
810.664	32.77
810.84	31.92
811.015	31.29
811.191	30.81
811.366	29.98
811.542	31.42
811.717	31.55
811.892	30.8
812.068	30.71
812.243	29.44
812.419	29.33
812.594	29.14
812.769	30.97
812.944	29.9
813.12	29.99
813.295	30.47
813.47	29.78
813.645	30.05
813.821	30.36
813.996	28.52
814.171	29.7
814.346	29.45
814.521	30.99
814.697	29.94
814.872	31.18
815.047	30.78
815.222	30.88
815.397	31.23
815.572	31.71
815.747	31.51
815.922	31.64
816.097	30.5
816.272	31.5
816.447	29.2
816.622	29.13
816.797	30.15
816.972	29.38
817.147	28.11
817.322	26.27
817.496	24.4
817.671	23.92
817.846	23.02
818.021	23.16
818.196	23.35
818.371	23.9
818.545	22.75
818.72	20.4
818.895	20.64
819.069	20.94
819.244	22.25
819.419	23.06
819.594	23.87
819.768	23.82
819.943	22.56
820.117	21.87
820.292	21.6
820.467	21.89
820.641	22.27
820.816	21.79
820.99	21.87
821.165	21.3
821.339	21.12
821.514	21.39
821.688	21.46
821.863	21.44
822.037	21.43
822.212	21.27
822.386	21.31
822.56	21.14
822.735	20.99
822.909	20.87
823.084	20.99
823.258	21.24
823.432	20.75
823.606	20.65
823.781	20.86
823.955	20.81
824.129	20.96
824.303	21.17
824.478	21.39
824.652	21.79
824.826	21.71
825	21.82
825.174	21.42
825.348	22.39
825.523	22.7
825.697	22.42
825.871	22.55
826.045	23.06
826.219	22.79
826.393	22.66
826.567	22.55
826.741	22.64
826.915	22.44
827.089	22.33
827.263	21.91
827.437	21.8
827.611	21.88
827.784	21.92
827.958	21.51
828.132	21.19
828.306	21.47
828.48	21.65
828.654	21.83
828.827	21.91
829.001	22.53
829.175	21.71
829.349	21.77
829.522	22.06
829.696	22.27
829.87	22.87
830.044	22.99
830.217	23.71
830.391	23.94
830.565	23.09
830.738	23.7
830.912	22.69
831.085	24.35
831.259	24.29
831.432	24.34
831.606	23.41
831.779	23.63
831.953	23.05
832.126	22.84
832.3	23.9
832.473	23.82
832.647	22.81
832.82	23.18
832.994	23.03
833.167	22.76
833.34	22.67
833.514	22.71
833.687	22.63
833.86	22.65
834.034	21.56
834.207	20.7
834.38	20.61
834.553	21.21
834.727	21.56
834.9	21.71
835.073	22.1
835.246	22.18
835.419	23.32
835.593	23.04
835.766	23.26
835.939	24.91
836.112	24.72
836.285	27.15
836.458	27.32
836.631	26.13
836.804	27.3
836.977	28.1
837.15	29.49
837.323	28.19
837.496	29.01
837.669	30.98
837.842	29.9
838.015	31.4
838.188	30.81
838.361	31.19
838.533	32.85
838.706	30.97
838.879	31
839.052	29.46
839.225	30.43
839.398	28.18
839.57	27.9
839.743	27.17
839.916	25.89
840.088	24.48
840.261	26.23
840.434	26.21
840.607	27.67
840.779	28.22
840.952	27.64
841.124	27.2
841.297	29.14
841.47	28.65
841.642	31.54
841.815	34.54
841.987	34.39
842.16	32.26
842.332	31.12
842.505	30.14
842.677	29.62
842.85	30.86
843.022	31.31
843.194	31.09
843.367	31.87
843.539	28.35
843.712	26.77
843.884	26.69
844.056	28.36
844.229	30.33
844.401	28.83
844.573	29.4
844.745	29.9
844.918	31.12
845.09	32.35
845.262	31.88
845.434	35.88
845.606	35.4
845.779	37.74
845.951	38.17
846.123	40.59
846.295	42.67
846.467	42.37
846.639	41.82
846.811	45.17
846.983	45.05
847.155	44.55
847.327	40.37
847.499	40.15
847.671	41.72
847.843	38.54
848.015	36.73
848.187	36.72
848.359	32.93
848.531	32.28
848.703	27.06
848.875	29.82
849.047	30.12
849.218	34.38
849.39	37.09
849.562	35.25
849.734	37.69
849.905	37.57
850.077	37.05
850.249	39.28
850.421	38.97
850.592	38.68
850.764	34.85
850.936	35.61
851.107	34.05
851.279	31.68
851.451	34.65
851.622	35.63
851.794	32.48
851.965	30.74
852.137	31.81
852.308	35
852.48	34.8
852.651	33.42
852.823	34.07
852.994	32.63
853.166	36.02
853.337	34.1
853.509	33.47
853.68	34.21
853.851	37.43
854.023	36.46
854.194	33.14
854.365	36.86
854.537	37.29
854.708	34.7
854.879	37.42
855.05	35.12
855.222	35.32
855.393	36.18
855.564	39.22
855.735	40.55
855.906	40.01
856.078	38.88
856.249	32.56
856.42	32.13
856.591	31.79
856.762	29.69
856.933	27.44
857.104	26.95
857.275	22.73
857.446	20.13
857.617	20.87
857.788	17.06
857.959	22.23
858.13	26.22
858.301	28.41
858.472	31.62
858.643	32.23
858.814	35.45
858.985	35.14
859.155	41.57
859.326	44.21
859.497	42.44
859.668	49.8
859.839	52.92
860.009	56.03
860.18	54.77
860.351	53.13
860.522	55.22
860.692	56.07
860.863	56.35
861.034	52.46
861.204	51.36
861.375	49.05
861.546	46.51
861.716	40.7
861.887	38.85
862.057	36.96
862.228	33.95
862.398	35.67
862.569	34.3
862.739	31.38
862.91	29.02
863.08	27.63
863.251	30.15
863.421	28.96
863.592	29.88
863.762	27
863.932	31.34
864.103	32.59
864.273	26.82
864.443	29.57
864.614	31.55
864.784	34.5
864.954	36.97
865.125	35.99
865.295	37.37
865.465	36.89
865.635	39.9
865.805	35.81
865.976	35.07
866.146	38.53
866.316	31.66
866.486	35.07
866.656	31.67
866.826	29
866.996	24.74
867.166	22.26
867.336	22.61
867.506	23.33
867.676	23.45
867.846	25.82
868.016	27.33
868.186	31.59
868.356	28.75
868.526	29.18
868.696	31.52
868.866	34.91
869.036	38.56
869.206	38.06
869.376	30.63
869.545	31.12
869.715	31.89
869.885	28.39
870.055	25.05
870.224	28.79
870.394	32.52
870.564	29.28
870.734	32.37
870.903	28.87
871.073	28.82
871.243	40.82
871.412	39.32
871.582	38.25
871.751	39.37
871.921	43.04
872.091	39.71
872.26	37.94
872.43	39.32
872.599	36.13
872.769	39.28
872.938	36.59
873.108	26.44
873.277	26.97
873.446	26.63
873.616	26.34
873.785	22.13
873.955	20.56
874.124	19.4
874.293	21.82
874.463	20.33
874.632	19.29
874.801	23.3
874.971	27.66
875.14	29.15
875.309	32.45
875.478	33.46
875.647	38.74
875.817	37.83
875.986	36.24
876.155	37.64
876.324	36.95
876.493	29.75
876.662	28.05
876.831	27.14
877	25.84
877.17	23.19
877.339	26.82
877.508	24
877.677	28.14
877.846	25.3
878.015	18.49
878.184	20.69
878.352	23.68
878.521	24.96
878.69	28.21
878.859	26.33
879.028	29.58
879.197	26.61
879.366	22.28
879.534	21.3
879.703	24.79
879.872	29.19
880.041	29.66
880.21	31.16
880.378	30.79
880.547	26.75
880.716	26.72
880.884	25.81
881.053	26.51
881.222	25.64
881.39	23.97
881.559	23.08
881.727	21.22
881.896	20.18
882.065	19.7
882.233	18.89
882.402	19.38
882.57	19.14
882.739	18.49
882.907	17.2
883.076	17.84
883.244	18.61
883.412	20.07
883.581	20.3
883.749	20.95
883.918	20.88
884.086	20.5
884.254	19.86
884.423	20.48
884.591	20.44
884.759	21.59
884.927	22.89
885.096	23.76
885.264	23.25
885.432	23.9
885.6	25.02
885.769	25.3
885.937	27.65
886.105	31.88
886.273	30.84
886.441	30.86
886.609	32.19
886.777	31.68
886.945	31.08
887.113	28.3
887.281	29.91
887.449	29.44
887.617	30.2
887.785	28.5
887.953	25.54
888.121	29.87
888.289	29.54
888.457	25.29
888.625	23.37
888.793	20.78
888.961	21.69
889.129	20.6
889.296	21.62
889.464	21.04
889.632	23.02
889.8	22.99
889.967	19.35
890.135	22.63
