Data from 2938824__Reflection_01.txt Node
Date: Thu Mar 12 14:00:51 EDT 2015
User: robert
Spectrometer: USB4E03002
Autoset integration time: false
Trigger mode: 4
Integration Time (sec): 1.000000E-1
Scans to average: 10
Electric dark correction enabled: false
Nonlinearity correction enabled: false
Boxcar width: 5
Stray light correction enabled: false
XAxis mode: Wavelengths
Stop averaging: false
Number of Pixels in Spectrum: 3648
>>>>>Begin Spectral Data<<<<<
177.575	129.12
177.794	144.04
178.014	130.87
178.233	140.69
178.452	119.05
178.672	144.91
178.891	137.56
179.11	161.62
179.33	144.05
179.549	181.97
179.768	241.35
179.987	336.88
180.207	394.74
180.426	302.44
180.645	341.8
180.864	446.77
181.084	278.76
181.303	394.71
181.522	314.04
181.741	379.49
181.96	285.08
182.179	162.26
182.398	125.37
182.618	130.83
182.837	140.78
183.056	133.07
183.275	198.98
183.494	148.26
183.713	107.29
183.932	125.08
184.151	135.08
184.37	154.04
184.589	121.62
184.808	119.02
185.027	80.15
185.246	79.55
185.465	60.32
185.684	84.94
185.903	90.7
186.122	146.32
186.341	65.45
186.56	81.4
186.779	286.78
186.998	394.83
187.216	281.44
187.435	188.45
187.654	263.29
187.873	292.95
188.092	293.4
188.311	3526.32
188.53	-5978.57
188.748	-3203.23
188.967	-27425
189.186	704.13
189.405	482.18
189.623	984.54
189.842	-547.06
190.061	-692.44
190.28	-901.96
190.498	99300
190.717	725.87
190.936	14920
191.154	1158.06
191.373	695.15
191.592	-1514.58
191.81	572.11
192.029	905.33
192.248	403.01
192.466	338.81
192.685	229.3
192.904	321.43
193.122	218.18
193.341	153.05
193.559	101.02
193.778	97.58
193.996	77.66
194.215	75.14
194.433	67.74
194.652	72.18
194.87	79.56
195.089	91.28
195.307	48.27
195.526	52.7
195.744	83.19
195.963	196.6
196.181	-5440
196.399	276.83
196.618	207.73
196.836	213.07
197.055	3108.33
197.273	182.43
197.491	155.22
197.71	196.65
197.928	181.18
198.146	210.5
198.365	170.9
198.583	189.53
198.801	161.89
199.019	197.09
199.238	189.97
199.456	121.12
199.674	146.88
199.892	155.83
200.111	120.53
200.329	118.62
200.547	132.52
200.765	96.81
200.983	82.89
201.202	84.88
201.42	83.31
201.638	81.35
201.856	75.16
202.074	91.08
202.292	109.54
202.51	118
202.728	127.75
202.946	151.32
203.165	164.44
203.383	165.3
203.601	162.79
203.819	196.83
204.037	252.94
204.255	183.16
204.473	173.75
204.691	116.04
204.909	67.17
205.127	67.19
205.345	42.66
205.562	43.73
205.78	43.2
205.998	47.43
206.216	46.43
206.434	58.65
206.652	67.91
206.87	65.03
207.088	69.72
207.306	75.5
207.523	74.04
207.741	83.92
207.959	81.52
208.177	97.74
208.395	111.66
208.612	113.43
208.83	126.23
209.048	131.91
209.266	126.21
209.483	109.24
209.701	114.65
209.919	120.59
210.136	147.55
210.354	152.77
210.572	138.31
210.79	125.55
211.007	108.96
211.225	101.5
211.442	113.13
211.66	128.23
211.878	156.46
212.095	132.2
212.313	135.83
212.53	125.42
212.748	116.64
212.966	108.23
213.183	106.12
213.401	125.42
213.618	121.98
213.836	115.62
214.053	110.34
214.271	102.7
214.488	130.2
214.705	126.75
214.923	104.96
215.14	98.97
215.358	105.17
215.575	99.9
215.793	102.72
216.01	94.73
216.227	93.15
216.445	82.4
216.662	88.99
216.879	75.62
217.097	73.48
217.314	66.96
217.531	68.55
217.749	60.78
217.966	63.71
218.183	73.6
218.4	75.04
218.618	63.04
218.835	65.44
219.052	46.13
219.269	40.76
219.487	37.21
219.704	38.98
219.921	36.88
220.138	38.68
220.355	41.05
220.572	38.2
220.79	37.25
221.007	43.86
221.224	38.7
221.441	38.36
221.658	31.7
221.875	31.06
222.092	35.35
222.309	33.15
222.526	34.85
222.743	31.1
222.96	27.91
223.177	26.48
223.394	27.69
223.611	29.18
223.828	31.76
224.045	34.94
224.262	38.17
224.479	31.21
224.696	29.4
224.913	27.38
225.13	25.16
225.347	26.56
225.564	24.96
225.781	22.7
225.997	17.48
226.214	15.7
226.431	14.64
226.648	11.21
226.865	10.62
227.082	7.34
227.298	4.25
227.515	5.72
227.732	4.36
227.949	4.39
228.165	3.75
228.382	4.53
228.599	4.48
228.816	5.08
229.032	5.27
229.249	4.85
229.466	5.12
229.682	6.14
229.899	5.58
230.116	6.82
230.332	7.21
230.549	7.44
230.765	7.87
230.982	7.91
231.199	6.51
231.415	6.86
231.632	7.07
231.848	8.6
232.065	7.97
232.281	8.63
232.498	8.66
232.714	7.92
232.931	8.13
233.147	7.23
233.364	8.24
233.58	7.37
233.797	6.42
234.013	9
234.23	7.4
234.446	8.39
234.662	7.46
234.879	5.91
235.095	6.26
235.312	6.92
235.528	8.86
235.744	7.83
235.961	10.21
236.177	10.8
236.393	9.78
236.61	11.98
236.826	11.16
237.042	11.48
237.258	12.34
237.475	13.56
237.691	11.76
237.907	10.48
238.123	10.43
238.339	9.69
238.556	8.51
238.772	8.96
238.988	8.41
239.204	8.96
239.42	9.5
239.636	8.26
239.853	7.52
240.069	8.59
240.285	8.3
240.501	7.6
240.717	7.9
240.933	8.03
241.149	7.08
241.365	7.06
241.581	7.47
241.797	6.68
242.013	6.39
242.229	6.58
242.445	6.23
242.661	6.06
242.877	6.32
243.093	5.8
243.309	5.63
243.525	5.39
243.741	4.86
243.957	4.4
244.173	4.61
244.388	5.48
244.604	4.83
244.82	4.82
245.036	4.71
245.252	5.39
245.468	5.33
245.683	5.48
245.899	5.3
246.115	5.47
246.331	5.26
246.547	5.43
246.762	5.18
246.978	5.02
247.194	5.01
247.409	4.75
247.625	4.59
247.841	5.01
248.057	5.02
248.272	5.5
248.488	5.38
248.703	5.27
248.919	5.37
249.135	4.99
249.35	5.53
249.566	5.86
249.782	6.74
249.997	6.7
250.213	5.67
250.428	6.1
250.644	6.19
250.859	6.21
251.075	5.56
251.29	5.4
251.506	5.63
251.721	5.21
251.937	4.54
252.152	4.41
252.368	4.71
252.583	4.65
252.798	4.13
253.014	3.95
253.229	3.66
253.445	4.43
253.66	3.89
253.875	4.02
254.091	4.51
254.306	5.15
254.521	4.96
254.737	4.03
254.952	4.25
255.167	3.78
255.383	3.27
255.598	3.35
255.813	3.11
256.028	3.21
256.244	3.1
256.459	2.69
256.674	2.36
256.889	2.52
257.104	3.26
257.32	3.96
257.535	4.08
257.75	4.37
257.965	4.22
258.18	4
258.395	3.92
258.61	3.91
258.826	3.74
259.041	3.52
259.256	3.41
259.471	3.14
259.686	2.73
259.901	3.02
260.116	2.92
260.331	2.89
260.546	3.08
260.761	3.08
260.976	2.96
261.191	2.89
261.406	3.23
261.621	3.44
261.836	3.51
262.05	3.53
262.265	3.41
262.48	3.37
262.695	3.47
262.91	3.7
263.125	3.68
263.34	3.75
263.555	4.14
263.769	3.91
263.984	3.41
264.199	3.94
264.414	4.51
264.629	4.27
264.843	4.37
265.058	4.66
265.273	4.42
265.488	4.04
265.702	3.82
265.917	4.2
266.132	4.1
266.346	4.35
266.561	4.3
266.776	4.45
266.99	4.43
267.205	4.78
267.42	4.5
267.634	4.23
267.849	4.21
268.063	4.72
268.278	4.18
268.492	4.22
268.707	4.08
268.922	4.15
269.136	3.58
269.351	3.48
269.565	2.35
269.78	2.64
269.994	2.48
270.209	2.93
270.423	2.76
270.637	2.64
270.852	2.55
271.066	2.73
271.281	2.21
271.495	2.27
271.709	2.45
271.924	3.1
272.138	3.06
272.353	3.17
272.567	2.86
272.781	2.97
272.996	3.13
273.21	3.08
273.424	2.98
273.638	3.52
273.853	3.63
274.067	3.88
274.281	3.92
274.495	3.62
274.71	3.74
274.924	4.11
275.138	3.6
275.352	3.53
275.566	3.83
275.781	3.96
275.995	3.79
276.209	3.76
276.423	2.98
276.637	2.74
276.851	3.23
277.065	3.45
277.279	3.1
277.493	3.81
277.707	3.9
277.921	3.65
278.135	3.39
278.349	3.51
278.563	3.71
278.777	4.43
278.991	3.91
279.205	3.73
279.419	3.43
279.633	3.77
279.847	3.21
280.061	3.44
280.275	3.95
280.489	4.41
280.703	4.5
280.917	4.81
281.131	4.54
281.344	5.26
281.558	5.34
281.772	5.66
281.986	5.28
282.2	5.32
282.414	4.76
282.627	4.38
282.841	4.08
283.055	3.62
283.269	3.44
283.482	3.45
283.696	3.02
283.91	2.94
284.123	2.73
284.337	2.93
284.551	2.92
284.764	2.77
284.978	2.78
285.192	2.67
285.405	2.72
285.619	2.7
285.833	2.53
286.046	2.55
286.26	2.3
286.473	2.26
286.687	2.41
286.9	2.51
287.114	2.93
287.327	3.02
287.541	3.27
287.754	3.39
287.968	3.28
288.181	3.38
288.395	3.37
288.608	3.71
288.822	3.95
289.035	3.77
289.248	3.75
289.462	3.79
289.675	3.62
289.889	3.37
290.102	3.08
290.315	3.32
290.529	3.53
290.742	3.69
290.955	3.39
291.169	3.07
291.382	2.94
291.595	3.02
291.808	3.01
292.022	2.88
292.235	3.09
292.448	3.35
292.661	3.64
292.875	3.57
293.088	3.33
293.301	3.47
293.514	3.39
293.727	3.43
293.94	3.33
294.153	2.99
294.367	3.08
294.58	2.96
294.793	3.03
295.006	2.71
295.219	2.54
295.432	2.84
295.645	3.07
295.858	3.13
296.071	3.34
296.284	3.25
296.497	3.57
296.71	3.69
296.923	3.57
297.136	3.56
297.349	3.7
297.562	3.81
297.775	3.71
297.988	3.76
298.201	4.01
298.414	4.06
298.626	4.26
298.839	4.04
299.052	4.15
299.265	4.11
299.478	4.03
299.691	3.97
299.903	4.12
300.116	4.4
300.329	4.5
300.542	4.17
300.755	4.52
300.967	4.45
301.18	4.54
301.393	4.71
301.605	4.91
301.818	4.94
302.031	4.96
302.243	4.91
302.456	5.03
302.669	5.15
302.881	5.59
303.094	5.31
303.307	5.59
303.519	5.92
303.732	5.85
303.944	6.2
304.157	6.58
304.37	6.7
304.582	6.7
304.795	6.35
305.007	6.38
305.22	6.37
305.432	6.92
305.645	6.83
305.857	7.02
306.069	7.34
306.282	7.22
306.494	7.14
306.707	7.22
306.919	7.49
307.132	7.75
307.344	7.87
307.556	7.98
307.769	7.53
307.981	7.28
308.193	6.9
308.406	6.78
308.618	6.95
308.83	6.84
309.043	6.67
309.255	6.59
309.467	6.7
309.679	6.53
309.892	6.27
310.104	6.42
310.316	6.64
310.528	6.71
310.74	6.62
310.953	6.93
311.165	6.89
311.377	7.07
311.589	7.15
311.801	7.2
312.013	7.14
312.225	7.46
312.437	7.39
312.649	7.35
312.862	7.76
313.074	8.06
313.286	7.87
313.498	8.05
313.71	8.12
313.922	8.18
314.134	8.14
314.346	8.17
314.558	7.94
314.77	8.12
314.982	8.47
315.193	8.55
315.405	8.43
315.617	8.71
315.829	8.99
316.041	9.04
316.253	8.86
316.465	9.08
316.677	9.36
316.888	9.77
317.1	9.91
317.312	9.88
317.524	9.83
317.736	9.89
317.947	9.75
318.159	9.56
318.371	9.58
318.583	9.94
318.794	9.74
319.006	9.8
319.218	9.52
319.43	9.49
319.641	9.82
319.853	9.82
320.064	9.8
320.276	9.68
320.488	9.79
320.699	10.02
320.911	10.33
321.123	10.6
321.334	10.44
321.546	10.44
321.757	10.44
321.969	10.3
322.18	10.54
322.392	11.07
322.603	11.42
322.815	11.46
323.026	11.22
323.238	10.57
323.449	10.53
323.661	10.22
323.872	10.85
324.083	10.66
324.295	10.28
324.506	10.15
324.718	10.21
324.929	9.79
325.14	9.86
325.352	10.06
325.563	10.82
325.774	10.77
325.986	11.48
326.197	11.26
326.408	11.43
326.62	12
326.831	12.34
327.042	12.1
327.253	12.64
327.464	12.94
327.676	12.84
327.887	12.59
328.098	13.19
328.309	13.15
328.52	13.17
328.732	13.6
328.943	13.65
329.154	13.75
329.365	13.8
329.576	14.17
329.787	14.57
329.998	15.21
330.209	15.6
330.42	15.58
330.631	15.84
330.842	16.23
331.053	16.22
331.264	16.54
331.475	16.58
331.686	17.02
331.897	16.77
332.108	16.69
332.319	16.76
332.53	16.91
332.741	16.88
332.952	17.07
333.163	17.36
333.374	17.65
333.585	17.5
333.795	17.56
334.006	17.62
334.217	17.99
334.428	18.21
334.639	18.35
334.849	18.68
335.06	18.75
335.271	18.87
335.482	18.82
335.692	18.36
335.903	18.51
336.114	18.34
336.325	18.45
336.535	18.01
336.746	18.29
336.957	18.08
337.167	17.65
337.378	17.75
337.589	17.5
337.799	17.47
338.01	17.82
338.22	17.65
338.431	18.01
338.642	17.87
338.852	18
339.063	17.54
339.273	17.74
339.484	18.03
339.694	18
339.905	18.1
340.115	18.37
340.326	18.06
340.536	18.11
340.746	17.9
340.957	17.98
341.167	18.18
341.378	18.06
341.588	17.99
341.799	17.81
342.009	17.58
342.219	17.53
342.43	17.52
342.64	18.06
342.85	18.25
343.061	18.43
343.271	18.28
343.481	18.36
343.691	18.58
343.902	18.3
344.112	18.46
344.322	18.45
344.532	18.19
344.743	17.84
344.953	17.62
345.163	17.72
345.373	17.65
345.583	17.89
345.793	17.3
346.004	17.25
346.214	17.49
346.424	17.45
346.634	17.56
346.844	17.39
347.054	17.54
347.264	17.47
347.474	17.33
347.684	17.35
347.894	17.03
348.104	17.73
348.314	17.94
348.524	17.75
348.734	17.54
348.944	17.47
349.154	17.98
349.364	17.86
349.574	17.83
349.784	17.74
349.994	17.61
350.204	17.76
350.413	17.69
350.623	17.32
350.833	17.17
351.043	17.17
351.253	17.31
351.463	17.29
351.672	17.37
351.882	17.37
352.092	17.33
352.302	17.2
352.511	17.32
352.721	17.25
352.931	17.63
353.141	18.11
353.35	18.38
353.56	18.27
353.77	18.32
353.979	18.14
354.189	18.01
354.399	17.96
354.608	18.06
354.818	18.13
355.027	17.88
355.237	17.57
355.447	17.3
355.656	17.02
355.866	16.91
356.075	16.85
356.285	17.1
356.494	17.02
356.704	17.23
356.913	17.38
357.123	17.07
357.332	17.31
357.542	17.48
357.751	17.63
357.96	17.77
358.17	17.87
358.379	17.9
358.589	17.65
358.798	17.78
359.007	17.56
359.217	17.51
359.426	17.39
359.635	17.27
359.845	17.14
360.054	17.17
360.263	16.76
360.472	16.53
360.682	16.4
360.891	16.31
361.1	16.12
361.309	16.22
361.519	16.07
361.728	16.23
361.937	16.12
362.146	16.25
362.355	16
362.564	16.33
362.774	16.45
362.983	16.45
363.192	16.57
363.401	16.6
363.61	16.52
363.819	16.45
364.028	16.23
364.237	16.12
364.446	15.7
364.655	15.71
364.864	15.41
365.073	15.54
365.282	15.49
365.491	15.65
365.7	15.8
365.909	15.79
366.118	15.89
366.327	15.98
366.536	16.24
366.745	16.4
366.954	16.49
367.162	16.6
367.371	16.46
367.58	16.71
367.789	16.64
367.998	16.73
368.207	16.76
368.415	16.84
368.624	16.99
368.833	16.95
369.042	16.87
369.25	16.85
369.459	16.74
369.668	16.92
369.877	16.77
370.085	16.47
370.294	16.15
370.503	16.02
370.711	15.87
370.92	15.92
371.129	15.83
371.337	15.89
371.546	15.84
371.754	16
371.963	15.83
372.171	15.71
372.38	15.82
372.589	16.07
372.797	16.17
373.006	16.24
373.214	16
373.423	15.98
373.631	15.78
373.84	15.74
374.048	15.72
374.256	15.64
374.465	15.44
374.673	15.4
374.882	15.32
375.09	15.15
375.298	14.88
375.507	15.03
375.715	14.8
375.923	14.93
376.132	14.72
376.34	14.66
376.548	14.65
376.757	14.91
376.965	15.08
377.173	14.95
377.381	15.14
377.59	15.3
377.798	15.27
378.006	15.44
378.214	15.36
378.423	15.39
378.631	15.45
378.839	15.29
379.047	15.14
379.255	14.92
379.463	15.09
379.671	14.92
379.879	14.95
380.088	14.69
380.296	14.68
380.504	14.6
380.712	14.9
380.92	14.46
381.128	14.66
381.336	14.84
381.544	14.67
381.752	14.7
381.96	14.75
382.168	14.55
382.376	14.57
382.584	14.35
382.791	14.38
382.999	14.32
383.207	14.51
383.415	14.51
383.623	14.48
383.831	14.66
384.039	14.51
384.247	14.61
384.454	14.75
384.662	14.54
384.87	14.7
385.078	14.68
385.285	14.5
385.493	14.51
385.701	14.48
385.909	14.09
386.116	14.07
386.324	14.14
386.532	13.86
386.739	13.7
386.947	13.86
387.155	13.85
387.362	13.89
387.57	14.03
387.778	14.04
387.985	14.07
388.193	14.34
388.4	14.3
388.608	14.31
388.816	14.5
389.023	14.54
389.231	14.76
389.438	14.76
389.646	14.85
389.853	14.68
390.061	14.71
390.268	14.54
390.475	14.42
390.683	14.45
390.89	14.22
391.098	14.15
391.305	14.09
391.512	13.86
391.72	13.8
391.927	13.76
392.135	13.8
392.342	13.87
392.549	13.97
392.756	13.82
392.964	13.99
393.171	14.01
393.378	14.02
393.586	14.04
393.793	13.88
394	13.92
394.207	13.86
394.414	13.68
394.622	13.56
394.829	13.41
395.036	13.49
395.243	13.11
395.45	13.11
395.657	13.03
395.864	12.98
396.072	13.21
396.279	13.29
396.486	13.3
396.693	13.48
396.9	13.42
397.107	13.64
397.314	13.65
397.521	13.79
397.728	13.94
397.935	13.89
398.142	13.72
398.349	13.61
398.556	13.57
398.763	13.53
398.97	13.29
399.177	13.27
399.383	12.98
399.59	13.18
399.797	13.13
400.004	12.77
400.211	12.84
400.418	13.16
400.625	13.08
400.831	12.8
401.038	12.72
401.245	12.98
401.452	13.01
401.658	13.07
401.865	12.91
402.072	12.82
402.279	12.87
402.485	12.75
402.692	12.53
402.899	12.65
403.105	12.76
403.312	12.82
403.519	12.74
403.725	12.7
403.932	12.76
404.138	12.77
404.345	12.75
404.552	12.91
404.758	12.89
404.965	13.02
405.171	12.95
405.378	12.85
405.584	12.63
405.791	12.54
405.997	12.66
406.204	12.78
406.41	12.72
406.617	12.55
406.823	12.46
407.029	12.63
407.236	12.53
407.442	12.83
407.649	12.96
407.855	13.12
408.061	13.22
408.268	13.01
408.474	12.83
408.68	12.78
408.887	13.17
409.093	13.26
409.299	13.17
409.505	13.29
409.712	13.19
409.918	13.23
410.124	13.44
410.33	13.34
410.537	13.42
410.743	13.47
410.949	13.44
411.155	13.33
411.361	13.34
411.567	13.34
411.773	13.31
411.98	13.26
412.186	13.06
412.392	12.97
412.598	13.01
412.804	13.01
413.01	12.9
413.216	12.9
413.422	12.87
413.628	12.79
413.834	12.85
414.04	12.68
414.246	12.65
414.452	12.69
414.658	12.59
414.864	12.67
415.07	12.58
415.275	12.81
415.481	12.85
415.687	12.97
415.893	12.96
416.099	12.81
416.305	12.8
416.511	12.78
416.716	12.77
416.922	12.75
417.128	12.72
417.334	12.8
417.539	12.68
417.745	12.64
417.951	12.56
418.157	12.5
418.362	12.58
418.568	12.58
418.774	12.48
418.979	12.45
419.185	12.47
419.391	12.46
419.596	12.4
419.802	12.41
420.008	12.55
420.213	12.46
420.419	12.53
420.624	12.42
420.83	12.42
421.035	12.48
421.241	12.52
421.446	12.44
421.652	12.41
421.857	12.44
422.063	12.37
422.268	12.24
422.474	12.29
422.679	12.27
422.885	12.29
423.09	12.32
423.295	12.39
423.501	12.38
423.706	12.41
423.911	12.44
424.117	12.35
424.322	12.39
424.527	12.44
424.733	12.47
424.938	12.49
425.143	12.52
425.349	12.52
425.554	12.46
425.759	12.49
425.964	12.51
426.169	12.5
426.375	12.65
426.58	12.65
426.785	12.56
426.99	12.48
427.195	12.46
427.4	12.53
427.605	12.53
427.811	12.45
428.016	12.41
428.221	12.53
428.426	12.52
428.631	12.43
428.836	12.58
429.041	12.68
429.246	12.75
429.451	12.78
429.656	12.67
429.861	12.63
430.066	12.64
430.271	12.63
430.476	12.56
430.681	12.54
430.886	12.54
431.09	12.41
431.295	12.32
431.5	12.35
431.705	12.15
431.91	12.27
432.115	12.39
432.32	12.47
432.524	12.36
432.729	12.42
432.934	12.35
433.139	12.38
433.343	12.42
433.548	12.45
433.753	12.35
433.958	12.47
434.162	12.46
434.367	12.38
434.572	12.32
434.776	12.41
434.981	12.38
435.186	12.46
435.39	12.45
435.595	12.5
435.799	12.52
436.004	12.62
436.209	12.68
436.413	12.59
436.618	12.54
436.822	12.53
437.027	12.62
437.231	12.65
437.436	12.76
437.64	12.69
437.845	12.56
438.049	12.6
438.253	12.56
438.458	12.5
438.662	12.48
438.867	12.56
439.071	12.6
439.275	12.48
439.48	12.41
439.684	12.37
439.888	12.42
440.093	12.5
440.297	12.45
440.501	12.51
440.706	12.56
440.91	12.6
441.114	12.53
441.318	12.61
441.523	12.69
441.727	12.73
441.931	12.69
442.135	12.73
442.339	12.68
442.543	12.68
442.748	12.63
442.952	12.55
443.156	12.55
443.36	12.61
443.564	12.61
443.768	12.66
443.972	12.6
444.176	12.63
444.38	12.67
444.584	12.7
444.788	12.74
444.992	12.82
445.196	12.94
445.4	12.95
445.604	12.92
445.808	12.85
446.012	12.75
446.216	12.78
446.42	12.79
446.624	12.75
446.828	12.75
447.032	12.71
447.235	12.57
447.439	12.51
447.643	12.5
447.847	12.57
448.051	12.61
448.254	12.68
448.458	12.71
448.662	12.69
448.866	12.74
449.069	12.64
449.273	12.6
449.477	12.71
449.681	12.73
449.884	12.8
450.088	12.78
450.292	12.84
450.495	12.76
450.699	12.78
450.902	12.73
451.106	12.65
451.31	12.83
451.513	12.94
451.717	12.95
451.92	12.94
452.124	12.83
452.327	12.79
452.531	12.66
452.734	12.74
452.938	12.64
453.141	12.66
453.345	12.77
453.548	12.66
453.752	12.69
453.955	12.69
454.158	12.61
454.362	12.66
454.565	12.6
454.769	12.66
454.972	12.58
455.175	12.66
455.379	12.73
455.582	12.6
455.785	12.69
455.988	12.66
456.192	12.73
456.395	12.72
456.598	12.78
456.801	12.71
457.005	12.68
457.208	12.78
457.411	12.72
457.614	12.8
457.817	12.78
458.021	12.68
458.224	12.58
458.427	12.54
458.63	12.6
458.833	12.48
459.036	12.54
459.239	12.47
459.442	12.43
459.645	12.39
459.848	12.26
460.051	12.27
460.254	12.33
460.457	12.38
460.66	12.33
460.863	12.28
461.066	12.33
461.269	12.37
461.472	12.45
461.675	12.48
461.878	12.55
462.081	12.63
462.284	12.65
462.486	12.54
462.689	12.53
462.892	12.46
463.095	12.55
463.298	12.55
463.5	12.62
463.703	12.62
463.906	12.59
464.109	12.63
464.311	12.68
464.514	12.69
464.717	12.69
464.92	12.78
465.122	12.89
465.325	12.73
465.528	12.74
465.73	12.8
465.933	12.89
466.135	12.92
466.338	12.83
466.541	12.84
466.743	12.87
466.946	13.05
467.148	13.04
467.351	13
467.553	13.14
467.756	13.17
467.958	13.12
468.161	13.09
468.363	13.1
468.566	13.15
468.768	13.03
468.971	12.92
469.173	12.82
469.375	12.63
469.578	12.74
469.78	12.76
469.983	12.85
470.185	12.82
470.387	12.77
470.59	12.68
470.792	12.75
470.994	12.94
471.196	12.96
471.399	13.11
471.601	13.27
471.803	13.18
472.005	13.12
472.208	13.06
472.41	13.03
472.612	13.1
472.814	13.22
473.016	13.21
473.218	13.1
473.421	13.18
473.623	12.97
473.825	12.97
474.027	13.02
474.229	13.01
474.431	13.02
474.633	13.03
474.835	12.93
475.037	12.9
475.239	12.89
475.441	12.91
475.643	12.89
475.845	12.91
476.047	12.84
476.249	12.88
476.451	12.92
476.653	12.98
476.855	12.97
477.057	13.04
477.258	13
477.46	12.9
477.662	12.83
477.864	12.83
478.066	12.96
478.268	13
478.469	12.97
478.671	13.04
478.873	12.91
479.075	12.8
479.276	12.75
479.478	12.69
479.68	12.72
479.882	12.73
480.083	12.67
480.285	12.59
480.487	12.58
480.688	12.64
480.89	12.62
481.091	12.67
481.293	12.67
481.495	12.62
481.696	12.62
481.898	12.58
482.099	12.59
482.301	12.55
482.502	12.54
482.704	12.51
482.905	12.43
483.107	12.37
483.308	12.33
483.51	12.37
483.711	12.39
483.913	12.43
484.114	12.43
484.315	12.45
484.517	12.53
484.718	12.56
484.92	12.57
485.121	12.61
485.322	12.66
485.524	12.71
485.725	12.71
485.926	12.68
486.127	12.65
486.329	12.68
486.53	12.62
486.731	12.62
486.932	12.59
487.134	12.65
487.335	12.68
487.536	12.66
487.737	12.65
487.938	12.65
488.139	12.67
488.341	12.71
488.542	12.73
488.743	12.82
488.944	12.79
489.145	12.81
489.346	12.78
489.547	12.75
489.748	12.76
489.949	12.74
490.15	12.74
490.351	12.77
490.552	12.74
490.753	12.69
490.954	12.65
491.155	12.58
491.356	12.54
491.557	12.59
491.758	12.6
491.959	12.62
492.159	12.66
492.36	12.71
492.561	12.74
492.762	12.75
492.963	12.83
493.164	12.89
493.364	13.01
493.565	13.09
493.766	13.13
493.967	13.13
494.167	13.19
494.368	13.25
494.569	13.26
494.769	13.23
494.97	13.28
495.171	13.26
495.371	13.25
495.572	13.24
495.773	13.27
495.973	13.18
496.174	13.22
496.375	13.25
496.575	13.17
496.776	13.24
496.976	13.3
497.177	13.32
497.377	13.25
497.578	13.27
497.778	13.35
497.979	13.37
498.179	13.36
498.38	13.41
498.58	13.42
498.78	13.54
498.981	13.37
499.181	13.36
499.382	13.32
499.582	13.48
499.782	13.53
499.983	13.52
500.183	13.51
500.383	13.5
500.584	13.42
500.784	13.36
500.984	13.34
501.184	13.48
501.385	13.45
501.585	13.52
501.785	13.45
501.985	13.43
502.185	13.39
502.386	13.36
502.586	13.42
502.786	13.45
502.986	13.5
503.186	13.48
503.386	13.47
503.586	13.55
503.786	13.6
503.987	13.62
504.187	13.72
504.387	13.76
504.587	13.87
504.787	13.95
504.987	14
505.187	14.09
505.387	14.1
505.587	14.19
505.786	14.27
505.986	14.26
506.186	14.28
506.386	14.29
506.586	14.31
506.786	14.33
506.986	14.35
507.186	14.35
507.386	14.37
507.585	14.41
507.785	14.4
507.985	14.37
508.185	14.36
508.384	14.47
508.584	14.44
508.784	14.5
508.984	14.56
509.183	14.6
509.383	14.68
509.583	14.71
509.782	14.74
509.982	14.79
510.182	14.85
510.381	14.84
510.581	14.86
510.781	14.84
510.98	14.9
511.18	14.93
511.379	14.93
511.579	14.93
511.778	14.98
511.978	14.93
512.177	14.91
512.377	14.83
512.576	14.96
512.776	14.98
512.975	15.05
513.175	14.97
513.374	14.92
513.573	14.98
513.773	15.07
513.972	15.15
514.172	15.3
514.371	15.37
514.57	15.54
514.77	15.56
514.969	15.61
515.168	15.69
515.367	15.83
515.567	15.94
515.766	15.94
515.965	15.85
516.164	15.86
516.364	15.9
516.563	15.93
516.762	15.92
516.961	15.93
517.16	15.94
517.359	15.91
517.559	15.94
517.758	16.02
517.957	16.07
518.156	16.2
518.355	16.19
518.554	16.23
518.753	16.29
518.952	16.38
519.151	16.47
519.35	16.56
519.549	16.66
519.748	16.77
519.947	16.8
520.146	16.87
520.345	17
520.544	17.08
520.743	17.05
520.942	17.17
521.141	17.21
521.339	17.24
521.538	17.17
521.737	17.23
521.936	17.27
522.135	17.26
522.333	17.26
522.532	17.14
522.731	17.27
522.93	17.43
523.129	17.4
523.327	17.45
523.526	17.47
523.725	17.64
523.923	17.73
524.122	17.78
524.321	17.86
524.519	17.91
524.718	17.99
524.917	18.01
525.115	18.03
525.314	18.01
525.512	18.05
525.711	18.09
525.909	18.09
526.108	18.11
526.306	18.13
526.505	18.14
526.703	18.16
526.902	18.19
527.1	18.21
527.299	18.22
527.497	18.26
527.696	18.29
527.894	18.32
528.092	18.34
528.291	18.35
528.489	18.38
528.688	18.47
528.886	18.56
529.084	18.63
529.283	18.72
529.481	18.8
529.679	18.93
529.877	19.06
530.076	19.17
530.274	19.32
530.472	19.44
530.67	19.51
530.869	19.53
531.067	19.58
531.265	19.64
531.463	19.62
531.661	19.62
531.859	19.58
532.057	19.55
532.255	19.51
532.454	19.5
532.652	19.52
532.85	19.59
533.048	19.68
533.246	19.73
533.444	19.75
533.642	19.82
533.84	19.94
534.038	20
534.236	20.04
534.434	20.18
534.632	20.27
534.83	20.35
535.027	20.42
535.225	20.44
535.423	20.52
535.621	20.55
535.819	20.56
536.017	20.57
536.215	20.7
536.412	20.81
536.61	20.83
536.808	20.89
537.006	20.94
537.203	20.99
537.401	21.06
537.599	21.04
537.797	21.1
537.994	21.27
538.192	21.34
538.39	21.34
538.587	21.38
538.785	21.36
538.983	21.34
539.18	21.43
539.378	21.42
539.575	21.38
539.773	21.43
539.97	21.46
540.168	21.42
540.366	21.45
540.563	21.5
540.761	21.5
540.958	21.56
541.155	21.68
541.353	21.68
541.55	21.77
541.748	21.89
541.945	21.96
542.143	22.05
542.34	22.11
542.537	22.21
542.735	22.29
542.932	22.37
543.129	22.48
543.327	22.51
543.524	22.61
543.721	22.7
543.919	22.79
544.116	22.89
544.313	22.93
544.51	23.05
544.708	23.17
544.905	23.23
545.102	23.29
545.299	23.33
545.496	23.45
545.693	23.51
545.891	23.6
546.088	23.64
546.285	23.64
546.482	23.67
546.679	23.67
546.876	23.66
547.073	23.71
547.27	23.79
547.467	23.84
547.664	23.81
547.861	23.84
548.058	23.82
548.255	23.77
548.452	23.92
548.649	23.99
548.846	24.02
549.043	23.98
549.24	24.07
549.437	24.03
549.633	24.05
549.83	23.99
550.027	23.96
550.224	23.91
550.421	24.03
550.618	23.91
550.814	23.91
551.011	23.87
551.208	23.81
551.405	23.78
551.601	23.84
551.798	23.75
551.995	23.78
552.191	23.79
552.388	23.76
552.585	23.76
552.781	23.7
552.978	23.75
553.175	23.84
553.371	23.84
553.568	23.84
553.764	23.91
553.961	23.94
554.157	23.95
554.354	24
554.55	24.1
554.747	24.04
554.943	24.32
555.14	24.33
555.336	24.43
555.533	24.54
555.729	24.64
555.926	24.58
556.122	24.62
556.318	24.69
556.515	24.76
556.711	24.77
556.907	24.82
557.104	24.71
557.3	24.78
557.496	24.74
557.693	24.75
557.889	24.72
558.085	24.8
558.281	24.86
558.478	25.01
558.674	25.08
558.87	25.15
559.066	25.26
559.262	25.18
559.459	25.16
559.655	25.1
559.851	25.21
560.047	25.25
560.243	25.32
560.439	25.37
560.635	25.36
560.831	25.31
561.027	25.16
561.223	25.11
561.419	25.31
561.615	25.39
561.811	25.55
562.007	25.47
562.203	25.39
562.399	25.33
562.595	25.41
562.791	25.29
562.987	25.23
563.183	25.38
563.379	25.37
563.575	25.21
563.771	25.23
563.966	25.25
564.162	25.25
564.358	25.27
564.554	25.37
564.75	25.39
564.945	25.49
565.141	25.56
565.337	25.6
565.533	25.7
565.728	25.75
565.924	25.66
566.12	25.63
566.315	25.7
566.511	25.78
566.707	25.71
566.902	25.65
567.098	25.64
567.293	25.65
567.489	25.61
567.684	25.52
567.88	25.65
568.076	25.73
568.271	25.75
568.467	25.79
568.662	25.65
568.858	25.62
569.053	25.63
569.248	25.63
569.444	25.68
569.639	25.65
569.835	25.56
570.03	25.47
570.225	25.59
570.421	25.55
570.616	25.46
570.812	25.53
571.007	25.56
571.202	25.53
571.397	25.59
571.593	25.64
571.788	25.69
571.983	25.78
572.178	25.85
572.374	25.81
572.569	25.9
572.764	25.95
572.959	26.03
573.154	26.11
573.35	26.12
573.545	26.13
573.74	26.03
573.935	26.16
574.13	26.29
574.325	26.29
574.52	26.24
574.715	26.18
574.91	26.14
575.105	26.27
575.3	26.35
575.495	26.45
575.69	26.54
575.885	26.69
576.08	26.6
576.275	26.59
576.47	26.76
576.665	26.83
576.86	27.09
577.055	27.25
577.25	27.28
577.444	27.26
577.639	27.39
577.834	27.42
578.029	27.4
578.224	27.4
578.418	27.53
578.613	27.41
578.808	27.41
579.003	27.31
579.197	27.39
579.392	27.3
579.587	27.38
579.781	27.35
579.976	27.27
580.171	27.45
580.365	27.63
580.56	27.55
580.755	27.57
580.949	27.54
581.144	27.57
581.338	27.52
581.533	27.62
581.727	27.54
581.922	27.48
582.116	27.74
582.311	27.66
582.505	27.71
582.7	27.79
582.894	27.96
583.089	28.16
583.283	28.27
583.478	28.33
583.672	28.33
583.866	28.52
584.061	28.64
584.255	28.49
584.449	28.44
584.644	28.39
584.838	28.49
585.032	28.44
585.226	28.48
585.421	28.5
585.615	28.35
585.809	28.42
586.003	28.42
586.198	28.45
586.392	28.6
586.586	28.78
586.78	28.76
586.974	28.8
587.168	28.84
587.363	28.86
587.557	28.77
587.751	28.84
587.945	28.74
588.139	28.67
588.333	28.63
588.527	28.61
588.721	28.57
588.915	28.56
589.109	28.51
589.303	28.51
589.497	28.45
589.691	28.45
589.885	28.43
590.079	28.63
590.273	28.56
590.466	28.68
590.66	28.76
590.854	28.9
591.048	28.97
591.242	29.11
591.436	29.09
591.629	29.15
591.823	29.38
592.017	29.6
592.211	29.55
592.404	29.72
592.598	29.73
592.792	29.75
592.986	29.75
593.179	29.78
593.373	29.7
593.567	29.74
593.76	29.75
593.954	29.61
594.147	29.58
594.341	29.53
594.535	29.49
594.728	29.36
594.922	29.26
595.115	29.24
595.309	29.39
595.502	29.34
595.696	29.33
595.889	29.41
596.083	29.4
596.276	29.47
596.47	29.47
596.663	29.48
596.856	29.62
597.05	29.7
597.243	29.81
597.437	29.75
597.63	29.8
597.823	29.91
598.017	29.95
598.21	30.05
598.403	30.1
598.596	30.14
598.79	30.15
598.983	30.16
599.176	30.17
599.369	30.1
599.563	30.16
599.756	30.36
599.949	30.49
600.142	30.55
600.335	30.6
600.528	30.65
600.722	30.83
600.915	30.95
601.108	30.94
601.301	31.07
601.494	31.05
601.687	30.96
601.88	30.83
602.073	30.68
602.266	30.56
602.459	30.55
602.652	30.42
602.845	30.28
603.038	30.31
603.231	30.26
603.424	30.07
603.617	30.1
603.809	30.1
604.002	30.02
604.195	30.06
604.388	30.17
604.581	30.12
604.774	30.2
604.966	30.33
605.159	30.4
605.352	30.54
605.545	30.74
605.737	30.76
605.93	30.86
606.123	31.15
606.316	31.22
606.508	31.28
606.701	31.39
606.894	31.64
607.086	31.7
607.279	31.58
607.471	31.65
607.664	31.77
607.857	31.87
608.049	32.12
608.242	32.18
608.434	32.42
608.627	32.75
608.819	33.14
609.012	33.4
609.204	33.79
609.397	34.44
609.589	34.91
609.782	35.5
609.974	36.18
610.166	36.68
610.359	37.2
610.551	37.75
610.743	38.18
610.936	38.51
611.128	38.87
611.32	39.19
611.513	39.37
611.705	39.36
611.897	39.26
612.09	39.02
612.282	38.8
612.474	38.7
612.666	38.62
612.858	38.44
613.051	38.27
613.243	38.04
613.435	37.75
613.627	37.41
613.819	37.26
614.011	37.12
614.203	37
614.395	36.62
614.588	36.27
614.78	36.03
614.972	35.78
615.164	35.43
615.356	35.18
615.548	34.88
615.74	34.63
615.932	34.51
616.124	34.18
616.315	33.93
616.507	34.05
616.699	34.07
616.891	33.82
617.083	33.56
617.275	33.45
617.467	33.25
617.659	33.32
617.85	33.2
618.042	33.22
618.234	33.21
618.426	33.13
618.618	32.95
618.809	32.81
619.001	32.68
619.193	32.64
619.384	32.7
619.576	32.77
619.768	32.73
619.959	32.94
620.151	32.77
620.343	32.69
620.534	32.78
620.726	33.05
620.917	32.93
621.109	32.98
621.301	33.05
621.492	32.95
621.684	33.06
621.875	33.15
622.067	33.1
622.258	33.22
622.45	33.35
622.641	33.35
622.832	33.31
623.024	33.51
623.215	33.54
623.407	33.61
623.598	33.78
623.789	33.63
623.981	33.83
624.172	33.79
624.363	33.75
624.555	33.76
624.746	33.71
624.937	33.6
625.129	33.55
625.32	33.48
625.511	33.35
625.702	33.16
625.893	33.03
626.085	32.7
626.276	32.71
626.467	32.75
626.658	32.8
626.849	32.88
627.04	33.05
627.231	33.03
627.422	33.01
627.614	33.06
627.805	33.32
627.996	33.55
628.187	33.77
628.378	33.88
628.569	33.94
628.76	33.87
628.951	34.02
629.142	33.94
629.332	34.2
629.523	34.64
629.714	34.76
629.905	34.89
630.096	34.95
630.287	34.79
630.478	34.86
630.669	34.74
630.859	34.94
631.05	34.81
631.241	34.69
631.432	34.7
631.623	34.23
631.813	34.15
632.004	33.88
632.195	33.9
632.385	34.03
632.576	33.82
632.767	33.8
632.957	33.6
633.148	33.57
633.339	33.47
633.529	33.18
633.72	33.13
633.91	32.85
634.101	32.77
634.292	32.61
634.482	32.61
634.673	32.81
634.863	32.91
635.054	32.88
635.244	32.74
635.435	32.99
635.625	33.17
635.815	33.27
636.006	33.59
636.196	33.63
636.387	33.6
636.577	33.58
636.767	33.37
636.958	33.29
637.148	33.31
637.338	33.5
637.529	33.43
637.719	33.44
637.909	33.55
638.099	33.46
638.29	33.56
638.48	33.58
638.67	33.63
638.86	33.58
639.05	33.57
639.241	33.58
639.431	33.61
639.621	33.57
639.811	33.58
640.001	33.57
640.191	33.66
640.381	33.74
640.571	33.78
640.761	33.59
640.951	33.81
641.141	33.85
641.331	33.98
641.521	34.03
641.711	33.92
641.901	33.73
642.091	33.68
642.281	33.79
642.471	33.76
642.661	33.88
642.851	34.07
643.041	33.95
643.231	34.01
643.42	33.96
643.61	33.71
643.8	34.07
643.99	34.17
644.18	34.25
644.369	34.27
644.559	34.29
644.749	34.18
644.939	34.07
645.128	34.19
645.318	34.12
645.508	34.18
645.697	34.48
645.887	34.21
646.076	34.18
646.266	34.14
646.456	34.04
646.645	34.21
646.835	34.3
647.024	34.25
647.214	34.16
647.403	34.24
647.593	34.1
647.782	33.91
647.972	34.01
648.161	34.09
648.351	34.03
648.54	34.17
648.73	34.02
648.919	33.99
649.108	34.1
649.298	34.23
649.487	34.19
649.677	34.47
649.866	34.76
650.055	34.75
650.244	34.6
650.434	34.72
650.623	34.63
650.812	34.62
651.002	34.6
651.191	34.79
651.38	34.62
651.569	34.68
651.758	34.45
651.947	34.43
652.137	34.49
652.326	34.59
652.515	34.48
652.704	34.46
652.893	34.37
653.082	34.47
653.271	34.5
653.46	34.53
653.649	34.56
653.838	34.55
654.027	34.15
654.216	34.29
654.405	34.36
654.594	34.36
654.783	34.33
654.972	34.51
655.161	34.36
655.35	34.18
655.539	34.46
655.728	34.28
655.916	34.32
656.105	34.43
656.294	34.16
656.483	34.17
656.672	34.33
656.86	33.99
657.049	33.85
657.238	33.91
657.427	33.74
657.615	33.44
657.804	33.61
657.993	33.56
658.181	33.56
658.37	33.71
658.559	33.7
658.747	33.54
658.936	33.84
659.125	33.81
659.313	33.84
659.502	33.98
659.69	34.11
659.879	34.18
660.067	34.34
660.256	34.6
660.444	34.35
660.633	34.38
660.821	34.59
661.01	34.74
661.198	34.74
661.387	34.88
661.575	34.97
661.763	35.15
661.952	34.81
662.14	34.88
662.328	34.73
662.517	35.08
662.705	35.07
662.893	35.24
663.082	35.1
663.27	35.19
663.458	35.02
663.646	35.01
663.834	34.97
664.023	35.38
664.211	34.95
664.399	34.85
664.587	34.81
664.775	34.82
664.963	34.5
665.152	34.45
665.34	34.65
665.528	34.8
665.716	34.68
665.904	34.37
666.092	34.43
666.28	34.76
666.468	34.84
666.656	34.91
666.844	35.07
667.032	35.12
667.22	35.01
667.408	34.84
667.596	34.59
667.784	34.74
667.971	34.9
668.159	34.61
668.347	34.47
668.535	34.52
668.723	34.37
668.911	34.23
669.098	34.25
669.286	34.46
669.474	34.48
669.662	34.58
669.849	34.57
670.037	34.71
670.225	34.81
670.413	34.81
670.6	34.87
670.788	35
670.976	34.88
671.163	34.98
671.351	34.96
671.538	34.92
671.726	35.18
671.913	35.17
672.101	34.9
672.289	35.12
672.476	35
672.664	34.96
672.851	34.81
673.039	34.79
673.226	34.61
673.413	34.43
673.601	34.47
673.788	34.26
673.976	34.11
674.163	34.1
674.35	34.31
674.538	34.53
674.725	34.52
674.912	34.67
675.1	34.94
675.287	35.22
675.474	35.53
675.662	35.45
675.849	35.47
676.036	35.74
676.223	35.99
676.411	35.8
676.598	35.74
676.785	35.83
676.972	35.68
677.159	35.22
677.346	35.11
677.533	35.09
677.721	35.04
677.908	34.92
678.095	34.78
678.282	34.88
678.469	34.77
678.656	34.64
678.843	34.47
679.03	34.52
679.217	34.63
679.404	34.59
679.591	34.44
679.778	34.63
679.964	34.65
680.151	34.72
680.338	34.63
680.525	34.51
680.712	34.74
680.899	34.73
681.086	34.84
681.272	35.21
681.459	35.21
681.646	35.29
681.833	35.34
682.02	35.48
682.206	35.46
682.393	35.43
682.58	35.85
682.766	35.8
682.953	35.96
683.14	35.95
683.326	35.95
683.513	36.07
683.7	36.22
683.886	36.24
684.073	36.17
684.259	36.26
684.446	36.13
684.632	35.89
684.819	35.96
685.005	36.03
685.192	35.86
685.378	35.81
685.565	35.89
685.751	35.65
685.938	35.65
686.124	35.74
686.31	35.59
686.497	35.95
686.683	35.99
686.87	36.17
687.056	36.29
687.242	36.47
687.429	36.15
687.615	36.33
687.801	36.24
687.987	36.03
688.174	36.03
688.36	36.25
688.546	36.23
688.732	36.32
688.918	36.13
689.105	35.76
689.291	35.69
689.477	35.93
689.663	35.84
689.849	35.95
690.035	36.02
690.221	36.46
690.407	36.18
690.593	36.15
690.779	36.1
690.965	36.09
691.151	36.48
691.337	36.67
691.523	36.45
691.709	36.1
691.895	36.13
692.081	36.23
692.267	35.87
692.453	36.1
692.639	35.77
692.825	35.39
693.011	35.92
693.196	35.68
693.382	35.41
693.568	35.75
693.754	36.15
693.94	36.48
694.125	36.59
694.311	36.47
694.497	36.4
694.682	36.76
694.868	36.73
695.054	36.14
695.239	36.12
695.425	35.98
695.611	35.68
695.796	35.5
695.982	35.24
696.168	34.98
696.353	34.97
696.539	34.77
696.724	34.61
696.91	34.66
697.095	34.52
697.281	34.47
697.466	34.51
697.652	34.68
697.837	34.75
698.023	34.83
698.208	34.94
698.393	34.92
698.579	34.81
698.764	34.85
698.949	35.15
699.135	35.32
699.32	35.49
699.505	35.63
699.691	35.72
699.876	35.64
700.061	35.72
700.246	35.69
700.432	35.9
700.617	36.29
700.802	36.25
700.987	36.35
701.172	36.62
701.358	36.63
701.543	36.52
701.728	36.59
701.913	36.37
702.098	36.39
702.283	36.46
702.468	36.4
702.653	36.44
702.838	37.04
703.023	36.78
703.208	36.66
703.393	36.85
703.578	36.87
703.763	36.47
703.948	36.75
704.133	36.83
704.318	37.26
704.503	37.48
704.688	37.7
704.873	37.49
705.057	38.21
705.242	38.29
705.427	38.44
705.612	39.13
705.797	39.78
705.981	39.91
706.166	39.99
706.351	39.82
706.536	39.81
706.72	39.84
706.905	39.85
707.09	39.61
707.274	39.85
707.459	39.85
707.644	39.37
707.828	39.09
708.013	39.24
708.197	39.18
708.382	39.26
708.567	39.02
708.751	39.23
708.936	39.18
709.12	38.98
709.305	38.66
709.489	38.39
709.673	38.48
709.858	38.67
710.042	38.71
710.227	38.25
710.411	38.57
710.596	38.59
710.78	38.21
710.964	38.21
711.149	38.38
711.333	38.67
711.517	39.15
711.702	39.19
711.886	38.7
712.07	38.62
712.254	39
712.438	38.67
712.623	38.85
712.807	38.73
712.991	38.68
713.175	38.21
713.359	37.99
713.544	37.66
713.728	37.17
713.912	37.19
714.096	36.68
714.28	36.58
714.464	36.32
714.648	36.31
714.832	36.11
715.016	35.84
715.2	35.99
715.384	35.81
715.568	35.24
715.752	35.65
715.936	36.01
716.12	36.26
716.304	36.15
716.488	36.09
716.671	35.74
716.855	36.02
717.039	36.18
717.223	35.86
717.407	36.1
717.59	36.36
717.774	36.22
717.958	36.13
718.142	35.74
718.325	35.74
718.509	36.07
718.693	36.45
718.877	36.18
719.06	35.98
719.244	36.13
719.428	35.75
719.611	36.41
719.795	36.29
719.978	36.38
720.162	36.98
720.345	37.3
720.529	37.37
720.713	37.31
720.896	37.49
721.08	37.92
721.263	38.49
721.446	38.66
721.63	38.32
721.813	38.7
721.997	37.93
722.18	37.71
722.364	37.52
722.547	36.97
722.73	36.93
722.914	36.37
723.097	35.9
723.28	35.59
723.464	35.42
723.647	35.73
723.83	35.98
724.013	36.54
724.197	36.44
724.38	36.76
724.563	36.96
724.746	36.99
724.929	37.51
725.112	37.39
725.296	37.2
725.479	37.33
725.662	37.35
725.845	36.55
726.028	36.73
726.211	36.68
726.394	36.66
726.577	36.78
726.76	36.7
726.943	36.83
727.126	37.14
727.309	37.17
727.492	37.09
727.675	36.45
727.858	36.65
728.041	36.18
728.224	36.48
728.407	35.94
728.589	36.07
728.772	35.86
728.955	35.71
729.138	35.6
729.321	35.48
729.503	35.21
729.686	35.7
729.869	35.36
730.052	35.19
730.234	35
730.417	35.15
730.6	35.02
730.782	35.19
730.965	35.36
731.148	35.16
731.33	35.14
731.513	35.34
731.695	34.9
731.878	34.98
732.061	35.39
732.243	35.74
732.426	35.48
732.608	35.56
732.791	35.56
732.973	35.42
733.156	35.71
733.338	35.79
733.52	35.9
733.703	35.61
733.885	36.32
734.068	36.18
734.25	36.35
734.432	36.95
734.615	36.74
734.797	36.88
734.979	36.53
735.162	36.43
735.344	36.88
735.526	36.7
735.708	37.39
735.891	37.14
736.073	37.43
736.255	37.09
736.437	36.64
736.619	36.73
736.802	36.99
736.984	37.01
737.166	37.19
737.348	36.82
737.53	37.22
737.712	36.65
737.894	36.49
738.076	36.49
738.258	36.58
738.44	36.47
738.622	36.54
738.804	35.98
738.986	36.4
739.168	36.51
739.35	36.99
739.532	36.89
739.714	37.35
739.896	37.6
740.078	37.2
740.259	36.82
740.441	37.15
740.623	36.93
740.805	37.01
740.987	36.71
741.168	36.61
741.35	36.69
741.532	36.74
741.714	36.45
741.895	36.62
742.077	37.73
742.259	38.16
742.44	38.01
742.622	37.81
742.804	37.87
742.985	38.09
743.167	38
743.348	37.48
743.53	37.47
743.711	37.9
743.893	37.41
744.075	36.52
744.256	37.23
744.438	36.88
744.619	37.64
744.8	38.13
744.982	38.49
745.163	38.84
745.345	38.46
745.526	38.4
745.707	37.94
745.889	38.25
746.07	38.4
746.252	37.92
746.433	37.99
746.614	37.75
746.795	37.8
746.977	38.34
747.158	38.01
747.339	37.99
747.52	38
747.702	38.61
747.883	38.69
748.064	39.4
748.245	38.97
748.426	40.08
748.607	39.92
748.788	39.06
748.97	38.05
749.151	38.22
749.332	38.31
749.513	37.79
749.694	37.42
749.875	37.13
750.056	36.71
750.237	36.77
750.418	36.31
750.599	35.84
750.78	36.79
750.96	37.35
751.141	37.47
751.322	37.38
751.503	37.34
751.684	37.39
751.865	37.46
752.046	37.01
752.226	36.93
752.407	36.56
752.588	36.32
752.769	36.19
752.949	35.56
753.13	35.18
753.311	35.67
753.492	36.31
753.672	36.61
753.853	36.22
754.034	36.17
754.214	36.5
754.395	37.01
754.575	38.1
754.756	37.63
754.937	38.12
755.117	38.03
755.298	38.15
755.478	37.67
755.659	37.4
755.839	37.95
756.02	37.78
756.2	37.18
756.381	37.09
756.561	35.79
756.741	35.88
756.922	35.29
757.102	35.78
757.283	36.13
757.463	35.63
757.643	35.52
757.823	35.54
758.004	35.7
758.184	36.25
758.364	35.78
758.545	36.37
758.725	36.43
758.905	35.87
759.085	35.41
759.265	34.14
759.446	34.73
759.626	34.57
759.806	33.97
759.986	34.2
760.166	33.75
760.346	33.44
760.526	33.32
760.706	32.75
760.886	33.19
761.066	32.38
761.246	33.04
761.426	32.66
761.606	32.25
761.786	32.5
761.966	31.96
762.146	32.14
762.326	32.45
762.506	32.16
762.686	32.62
762.866	32.44
763.046	33.14
763.225	32.95
763.405	33.32
763.585	33.73
763.765	33.84
763.945	33.8
764.124	33.3
764.304	33.57
764.484	33.77
764.664	33.5
764.843	33.65
765.023	33.7
765.203	33.97
765.382	33.94
765.562	33.49
765.741	33.55
765.921	33.85
766.101	34.21
766.28	33.97
766.46	34.33
766.639	34.76
766.819	34.96
766.998	35.16
767.178	34.87
767.357	34.5
767.537	35.09
767.716	34.98
767.896	35.49
768.075	35.68
768.254	35.1
768.434	35.34
768.613	35.38
768.792	35.91
768.972	36.08
769.151	36.08
769.33	36.75
769.51	36.99
769.689	37.5
769.868	37.24
770.047	37.67
770.226	38.21
770.406	37.28
770.585	38.24
770.764	37.64
770.943	37.33
771.122	38.05
771.301	38.42
771.48	38.53
771.66	38.2
771.839	39.1
772.018	39.23
772.197	39.41
772.376	40.92
772.555	40.25
772.734	39.97
772.913	40.25
773.092	39.95
773.271	39.11
773.449	39.74
773.628	39.94
773.807	38.71
773.986	38.13
774.165	38.38
774.344	38.28
774.523	37.99
774.701	38.8
774.88	38.27
775.059	38.61
775.238	39.03
775.417	38.13
775.595	38.32
775.774	38.44
775.953	38.83
776.131	38.31
776.31	37.52
776.489	37.44
776.667	37.31
776.846	37.6
777.025	37.36
777.203	37.11
777.382	36.92
777.56	36.47
777.739	36.99
777.917	37.9
778.096	38.62
778.274	38.93
778.453	38.62
778.631	38.49
778.81	38.05
778.988	37.97
779.166	38.17
779.345	38.49
779.523	37.94
779.702	38.27
779.88	37.31
780.058	36.71
780.237	36.41
780.415	36.45
780.593	36.93
780.771	37.52
780.95	38.45
781.128	39.27
781.306	39.49
781.484	40.93
781.662	40.2
781.841	39.96
782.019	40.06
782.197	40.96
782.375	41.12
782.553	40.18
782.731	40.45
782.909	39.63
783.087	39.03
783.265	38.91
783.443	37.82
783.621	37.76
783.799	37.53
783.977	37.62
784.155	37.72
784.333	38.29
784.511	38.73
784.689	37.57
784.867	37.08
785.045	37.14
785.223	37.02
785.4	36.84
785.578	37.09
785.756	37.69
785.934	37.18
786.112	37.06
786.289	36.81
786.467	36.98
786.645	37.83
786.823	38.11
787	37.8
787.178	38.07
787.356	39.22
787.533	39.06
787.711	38.47
787.889	38.48
788.066	37.79
788.244	36.97
788.421	36.8
788.599	36.84
788.776	36.82
788.954	36.8
789.131	35.88
789.309	34.62
789.486	34.82
789.664	35.59
789.841	36.33
790.019	35.8
790.196	35.71
790.373	36.27
790.551	36.73
790.728	36.58
790.906	37.01
791.083	37.12
791.26	37.95
791.437	37.65
791.615	38.15
791.792	37.4
791.969	38.85
792.146	39.15
792.324	38.32
792.501	37.89
792.678	38.6
792.855	37.48
793.032	38
793.209	37.54
793.387	37.99
793.564	37.2
793.741	37.43
793.918	35.86
794.095	36.31
794.272	36.69
794.449	36.6
794.626	35.77
794.803	37.52
794.98	37.49
795.157	37.83
795.334	37.01
795.511	36.93
795.688	37.2
795.864	37.47
796.041	36.87
796.218	36.56
796.395	37.49
796.572	38.06
796.749	36.37
796.925	34.94
797.102	34.92
797.279	35.7
797.456	34.87
797.632	35.19
797.809	34.89
797.986	34.69
798.162	35.06
798.339	34.17
798.516	34.55
798.692	35.06
798.869	35.69
799.046	35.96
799.222	35.75
799.399	35.94
799.575	35.49
799.752	36.29
799.928	36.6
800.105	36.77
800.281	35.95
800.458	34.69
800.634	34.52
800.811	35.19
800.987	34.33
801.163	34.4
801.34	35.9
801.516	36.52
801.692	35.79
801.869	35.38
802.045	35.99
802.221	36.18
802.398	36.68
802.574	36.92
802.75	36.36
802.926	36.95
803.103	36.82
803.279	35.96
803.455	35.4
803.631	36.21
803.807	37.17
803.983	37.37
804.16	36.94
804.336	37.99
804.512	36.71
804.688	38.29
804.864	36.49
805.04	37.13
805.216	37.27
805.392	36.99
805.568	36.72
805.744	36.53
805.92	36.37
806.096	39.05
806.272	39.14
806.448	40.65
806.623	40.32
806.799	41.52
806.975	40.48
807.151	39.82
807.327	39.8
807.503	41.15
807.678	42.4
807.854	41.46
808.03	39.39
808.206	37.73
808.381	37.98
808.557	37.77
808.733	36.94
808.908	37.45
809.084	37.35
809.26	36.58
809.435	35.68
809.611	33.02
809.787	32.53
809.962	32.87
810.138	33.9
810.313	34.12
810.489	34.03
810.664	35.83
810.84	36.36
811.015	36.03
811.191	35.78
811.366	35.94
811.542	37.22
811.717	37.06
811.892	37.85
812.068	36.98
812.243	37.09
812.419	36.81
812.594	35.38
812.769	34.22
812.944	34.37
813.12	35.13
813.295	34.46
813.47	36.01
813.645	36.16
813.821	34.91
813.996	35.55
814.171	35.39
814.346	35.74
814.521	36.09
814.697	36.72
814.872	35.94
815.047	36.33
815.222	35.39
815.397	34.79
815.572	35.15
815.747	35.36
815.922	34.4
816.097	33.14
816.272	33.25
816.447	33.98
816.622	34.15
816.797	34.47
816.972	33.66
817.147	33.45
817.322	33.58
817.496	32.69
817.671	33.17
817.846	33.92
818.021	34.43
818.196	34.34
818.371	32.83
818.545	32.35
818.72	32.17
818.895	32.73
819.069	32.64
819.244	32.1
819.419	32.92
819.594	32.83
819.768	32.63
819.943	32.22
820.117	31.67
820.292	31.91
820.467	30.81
820.641	30.44
820.816	30.14
820.99	29.56
821.165	28.64
821.339	28.01
821.514	27.93
821.688	27.45
821.863	27.24
822.037	27.12
822.212	27.17
822.386	27.24
822.56	27.44
822.735	27.42
822.909	27.52
823.084	27.72
823.258	27.92
823.432	27.74
823.606	27.92
823.781	27.98
823.955	28.37
824.129	28.27
824.303	28.52
824.478	28.44
824.652	28.74
824.826	28.62
825	29.11
825.174	28.86
825.348	28.97
825.523	28.64
825.697	29.17
825.871	28.78
826.045	28.57
826.219	28.44
826.393	28.09
826.567	27.1
826.741	27.38
826.915	27.03
827.089	27.8
827.263	27.81
827.437	28.49
827.611	28.06
827.784	28.62
827.958	29.03
828.132	29.08
828.306	29.57
828.48	30.2
828.654	30.37
828.827	30.28
829.001	30.11
829.175	30.09
829.349	30.24
829.522	30.55
829.696	29.71
829.87	29.91
830.044	30.02
830.217	30.86
830.391	30.3
830.565	31.25
830.738	31.51
830.912	31.92
831.085	33.45
831.259	32.7
831.432	33.11
831.606	33.94
831.779	34.03
831.953	33.54
832.126	31.99
832.3	33.4
832.473	33
832.647	32.72
832.82	31.23
832.994	29.87
833.167	29.66
833.34	29.04
833.514	28.69
833.687	28.15
833.86	28.3
834.034	28.49
834.207	28.52
834.38	28.81
834.553	29.01
834.727	29.12
834.9	30.14
835.073	30.86
835.246	31.51
835.419	30.53
835.593	30.19
835.766	30.86
835.939	31.26
836.112	31.34
836.285	31.22
836.458	30.7
836.631	31.65
836.804	31.9
836.977	30.53
837.15	31.31
837.323	32.77
837.496	33.56
837.669	33.12
837.842	33.61
838.015	33.79
838.188	34.01
838.361	35.48
838.533	36.54
838.706	36.57
838.879	38.52
839.052	35.46
839.225	36.9
839.398	39.48
839.57	39.17
839.743	38.1
839.916	35.92
840.088	36.69
840.261	36.53
840.434	36.25
840.607	34.88
840.779	35.49
840.952	36.6
841.124	36.96
841.297	35.57
841.47	35.76
841.642	36.66
841.815	37.47
841.987	37.17
842.16	38.45
842.332	39.16
842.505	39.56
842.677	40.88
842.85	40.68
843.022	42.54
843.194	42.34
843.367	42.45
843.539	44.18
843.712	44.64
843.884	43.98
844.056	45.15
844.229	45.06
844.401	46.32
844.573	41.16
844.745	43.97
844.918	37.81
845.09	41.32
845.262	40.68
845.434	39.94
845.606	41.68
845.779	39.87
845.951	36.44
846.123	34.84
846.295	34.51
846.467	40.12
846.639	42.87
846.811	45.45
846.983	43.64
847.155	44.67
847.327	44.55
847.499	43.43
847.671	44.77
847.843	48.05
848.015	50.41
848.187	50.29
848.359	47.97
848.531	45.47
848.703	47.89
848.875	47.84
849.047	48.15
849.218	48.59
849.39	51.96
849.562	53.13
849.734	50.29
849.905	46.3
850.077	45.83
850.249	44.15
850.421	43.61
850.592	43.12
850.764	41.14
850.936	40.03
851.107	35.24
851.279	31.24
851.451	30.73
851.622	33.94
851.794	33.08
851.965	30.63
852.137	34.12
852.308	35.97
852.48	34.01
852.651	35.62
852.823	37.75
852.994	43.61
853.166	45.97
853.337	45.54
853.509	42
853.68	45.9
853.851	50.42
854.023	50.18
854.194	48.56
854.365	52.41
854.537	52.48
854.708	52.5
854.879	52.63
855.05	55.24
855.222	56
855.393	61.42
855.564	59.63
855.735	58.23
855.906	55.55
856.078	55.92
856.249	53.58
856.42	56.96
856.591	56.03
856.762	53.05
856.933	52.54
857.104	54.49
857.275	50.98
857.446	52.1
857.617	49.83
857.788	50.44
857.959	50
858.13	49.3
858.301	46.63
858.472	47.91
858.643	54.11
858.814	53.78
858.985	49.07
859.155	49.73
859.326	49.9
859.497	49.45
859.668	52.86
859.839	51.32
860.009	50.43
860.18	51.2
860.351	50.14
860.522	40.49
860.692	39.97
860.863	43.5
861.034	41.81
861.204	43.56
861.375	46.52
861.546	40.96
861.716	41.34
861.887	43.63
862.057	44.18
862.228	47.76
862.398	53.62
862.569	53.82
862.739	54.83
862.91	53.1
863.08	51.56
863.251	50.01
863.421	53.11
863.592	57.25
863.762	52.89
863.932	48.48
864.103	48.09
864.273	43.78
864.443	40.24
864.614	42.77
864.784	47.26
864.954	47.37
865.125	44.75
865.295	45.86
865.465	43.46
865.635	45.74
865.805	47.27
865.976	47.18
866.146	51.14
866.316	55.85
866.486	54.01
866.656	49.18
866.826	51.56
866.996	54.81
867.166	52.9
867.336	51.38
867.506	50.52
867.676	50.06
867.846	46.5
868.016	45.47
868.186	43.16
868.356	39.01
868.526	42.21
868.696	39.44
868.866	39.57
869.036	36.02
869.206	37.83
869.376	39.02
869.545	37.25
869.715	37.44
869.885	38.63
870.055	38.35
870.224	39.99
870.394	42.84
870.564	40.78
870.734	44.12
870.903	48.85
871.073	45.98
871.243	49.44
871.412	51.61
871.582	54.77
871.751	51.04
871.921	47.79
872.091	47.3
872.26	41.33
872.43	44.54
872.599	38.37
872.769	36.75
872.938	36.55
873.108	33.58
873.277	33.33
873.446	32.11
873.616	34.62
873.785	37.47
873.955	38.16
874.124	39.97
874.293	35.49
874.463	40.5
874.632	41.83
874.801	41.28
874.971	45.71
875.14	45.49
875.309	47.57
875.478	51.43
875.647	49.54
875.817	47.16
875.986	49.31
876.155	54.19
876.324	55.16
876.493	53.41
876.662	55.61
876.831	52.56
877	50.92
877.17	47.63
877.339	44.45
877.508	44.54
877.677	47.63
877.846	43.88
878.015	40.88
878.184	37.99
878.352	36.35
878.521	35.41
878.69	36.04
878.859	38.18
879.028	38.84
879.197	39.53
879.366	39.64
879.534	37.85
879.703	38.25
879.872	38.23
880.041	38.41
880.21	37.47
880.378	36.02
880.547	33.96
880.716	33.19
880.884	32.54
881.053	30.94
881.222	30.09
881.39	29.7
881.559	29.93
881.727	28.8
881.896	28.62
882.065	28.35
882.233	28.12
882.402	28.05
882.57	27.54
882.739	27.11
882.907	27.37
883.076	27.02
883.244	26.98
883.412	26.93
883.581	27.54
883.749	27.87
883.918	26.89
884.086	27.05
884.254	27.58
884.423	28.44
884.591	29.59
884.759	28.81
884.927	30.19
885.096	30.17
885.264	29.3
885.432	29.6
885.6	27.84
885.769	30.13
885.937	30.92
886.105	29.91
886.273	31.54
886.441	30.05
886.609	31.25
886.777	31.08
886.945	32.58
887.113	34.5
887.281	31.98
887.449	33.88
887.617	36.15
887.785	35.4
887.953	38.63
888.121	37.06
888.289	39.48
888.457	42.37
888.625	43.88
888.793	43.63
888.961	41.75
889.129	47.5
889.296	45.24
889.464	44.89
889.632	47.39
889.8	43.85
889.967	43.04
890.135	40.37
