Data from 2938786__Reflection_02.txt Node
Date: Fri Mar 13 11:57:03 EDT 2015
User: robert
Spectrometer: USB4E03002
Autoset integration time: false
Trigger mode: 4
Integration Time (sec): 1.000000E-1
Scans to average: 10
Electric dark correction enabled: false
Nonlinearity correction enabled: false
Boxcar width: 5
Stray light correction enabled: false
XAxis mode: Wavelengths
Stop averaging: false
Number of Pixels in Spectrum: 3648
>>>>>Begin Spectral Data<<<<<
177.575	-689.17
177.794	-7142.86
178.014	-1152.17
178.233	-808.24
178.452	-530.52
178.672	-377.88
178.891	-406.29
179.11	-428.87
179.33	-418.65
179.549	-506.01
179.768	-546.77
179.987	-934.56
180.207	-629.89
180.426	-1026.47
180.645	-1953.85
180.864	-7619.51
181.084	2423.13
181.303	3692.13
181.522	1751.98
181.741	4131.08
181.96	1734.66
182.179	793.67
182.398	654.04
182.618	515.27
182.837	532.46
183.056	378.15
183.275	363.7
183.494	430.67
183.713	392.24
183.932	402.91
184.151	377.57
184.37	441.9
184.589	511.48
184.808	647.54
185.027	664.06
185.246	697.64
185.465	2558.97
185.684	1294.92
185.903	1420.2
186.122	1628.49
186.341	5723.53
186.56	2543.97
186.779	3546.99
186.998	1800.57
187.216	-4553.13
187.435	-1062.93
187.654	-1127.09
187.873	-1535.23
188.092	-4026.09
188.311	21815.38
188.53	-3348.15
188.748	8965.63
188.967	-1354.87
189.186	-1495.35
189.405	-711.14
189.623	-2498.04
189.842	6025.53
190.061	2191.54
190.28	3078.26
190.498	-1681.76
190.717	-1319.72
190.936	-1081.11
191.154	-627.05
191.373	-1848.32
191.592	-1590.12
191.81	-1311.43
192.029	-1076
192.248	-1002.81
192.466	-3850.7
192.685	-19414.29
192.904	-949.61
193.122	-4440
193.341	1032.8
193.559	640.44
193.778	731.96
193.996	582.36
194.215	641.26
194.433	653.1
194.652	571.43
194.87	1068.35
195.089	855.95
195.307	447.19
195.526	475.72
195.744	539.86
195.963	455.1
196.181	408.44
196.399	448.97
196.618	379.09
196.836	405.84
197.055	462.44
197.273	478.86
197.491	538.57
197.71	515.84
197.928	746.18
198.146	813.5
198.365	7321.88
198.583	-4362.26
198.801	-1746.97
199.019	-1830.47
199.238	-4742
199.456	1726.17
199.674	926.55
199.892	739.2
200.111	1164.38
200.329	1119.41
200.547	957.24
200.765	631.68
200.983	586.07
201.202	600
201.42	745.75
201.638	806.1
201.856	1312.76
202.074	1589.81
202.292	-4035.48
202.51	15956.25
202.728	8958.62
202.946	-3122.08
203.165	-3381.25
203.383	5153.85
203.601	2051.85
203.819	5049.09
204.037	1000
204.255	1099.2
204.473	1280.18
204.691	707.5
204.909	630.62
205.127	643.02
205.345	728.05
205.562	890.32
205.78	1114.98
205.998	1122.55
206.216	647.52
206.434	1011.03
206.652	632.61
206.87	677.83
207.088	656.13
207.306	935.53
207.523	740.05
207.741	591.75
207.959	540.97
208.177	763.9
208.395	795.73
208.612	1153.08
208.83	819.46
209.048	906.94
209.266	1141.53
209.483	978.95
209.701	1051.37
209.919	1663.03
210.136	1258.74
210.354	1064.79
210.572	761.38
210.79	571.46
211.007	568.65
211.225	681.97
211.442	718.23
211.66	511.43
211.878	545.52
212.095	-1368.85
212.313	-3779.79
212.53	-2405.33
212.748	-1708.78
212.966	-3146.15
213.183	-2086.75
213.401	-3219.64
213.618	6741.82
213.836	-21223.53
214.053	-11641.94
214.271	14173.08
214.488	335.69
214.705	322.13
214.923	287.53
215.14	307.85
215.358	327.9
215.575	380.02
215.793	364.44
216.01	515.87
216.227	484.04
216.445	512.03
216.662	586.61
216.879	811.48
217.097	720.53
217.314	638.44
217.531	417.61
217.749	376.04
217.966	317.14
218.183	274.03
218.4	270.85
218.618	278.61
218.835	248.43
219.052	244.38
219.269	206.01
219.487	199.67
219.704	207.76
219.921	211.86
220.138	203.36
220.355	210.17
220.572	197.62
220.79	176.64
221.007	171.88
221.224	170.88
221.441	161.58
221.658	163.6
221.875	156.48
222.092	152.95
222.309	146.21
222.526	142.57
222.743	133.86
222.96	135.15
223.177	136.37
223.394	125.14
223.611	120.31
223.828	113.21
224.045	110
224.262	114.39
224.479	106.78
224.696	100.72
224.913	96.41
225.13	91.71
225.347	85.01
225.564	79.22
225.781	75.35
225.997	72.29
226.214	66.79
226.431	61.97
226.648	53.8
226.865	49.19
227.082	45.24
227.298	37.96
227.515	33.1
227.732	31.31
227.949	27.33
228.165	25.22
228.382	23.84
228.599	23.56
228.816	22.74
229.032	21.57
229.249	19.64
229.466	18.81
229.682	19.53
229.899	20.61
230.116	19.68
230.332	20.98
230.549	21.65
230.765	22.85
230.982	23.11
231.199	23.84
231.415	25.98
231.632	29.33
231.848	30.97
232.065	32.66
232.281	32.78
232.498	34.24
232.714	34.35
232.931	34.64
233.147	34.54
233.364	34.07
233.58	34.97
233.797	35.25
234.013	35.52
234.23	34.35
234.446	34.74
234.662	34.07
234.879	33.16
235.095	32.24
235.312	32.03
235.528	32.63
235.744	33.58
235.961	32.98
236.177	31.64
236.393	30.7
236.61	30.99
236.826	28.8
237.042	29.82
237.258	29.65
237.475	31.12
237.691	30.93
237.907	30.9
238.123	29.08
238.339	28.82
238.556	29.1
238.772	29.25
238.988	29.57
239.204	29.54
239.42	28.53
239.636	27.49
239.853	25.27
240.069	24.71
240.285	22.82
240.501	21.71
240.717	21.09
240.933	19.75
241.149	17.87
241.365	16.75
241.581	16.36
241.797	15.29
242.013	14.48
242.229	14.82
242.445	14.11
242.661	14.02
242.877	14.33
243.093	13.99
243.309	13.95
243.525	14.51
243.741	14.29
243.957	14.38
244.173	15.23
244.388	16.29
244.604	15.59
244.82	15.92
245.036	15.53
245.252	14.94
245.468	14.46
245.683	13.87
245.899	12.91
246.115	12.65
246.331	11.82
246.547	11.32
246.762	10.44
246.978	10.25
247.194	10.22
247.409	10.1
247.625	9.78
247.841	9.4
248.057	9.15
248.272	9.21
248.488	9.25
248.703	9.42
248.919	9.47
249.135	10.06
249.35	10.89
249.566	11.42
249.782	11.71
249.997	12.65
250.213	13.68
250.428	15.07
250.644	16.16
250.859	16.46
251.075	16.96
251.29	17.72
251.506	17.15
251.721	16.45
251.937	16.11
252.152	16.1
252.368	16.01
252.583	15.91
252.798	15.88
253.014	16.16
253.229	16.33
253.445	16.78
253.66	16.41
253.875	17.2
254.091	18.27
254.306	18
254.521	19.31
254.737	19.82
254.952	19.52
255.167	19.68
255.383	18.94
255.598	18.52
255.813	18.17
256.028	18.36
256.244	17.91
256.459	17.19
256.674	17.43
256.889	15.6
257.104	14.86
257.32	14.71
257.535	13.83
257.75	12.83
257.965	12.97
258.18	12.3
258.395	11.7
258.61	10.97
258.826	10.4
259.041	10.11
259.256	9.88
259.471	9.49
259.686	9.2
259.901	8.9
260.116	8.73
260.331	8.34
260.546	8.5
260.761	8.45
260.976	8.62
261.191	8.41
261.406	8.25
261.621	8.64
261.836	8.54
262.05	8.8
262.265	9.21
262.48	10.11
262.695	10.55
262.91	10.53
263.125	10.76
263.34	11.13
263.555	12.23
263.769	13.08
263.984	12.92
264.199	13.67
264.414	13.63
264.629	13.85
264.843	14.44
265.058	14.71
265.273	14.34
265.488	13.62
265.702	13.55
265.917	12.96
266.132	12.55
266.346	12.55
266.561	12.25
266.776	12.34
266.99	12.33
267.205	11.48
267.42	11.16
267.634	10.95
267.849	11.44
268.063	11.55
268.278	11.48
268.492	11.36
268.707	11.75
268.922	11.38
269.136	11.59
269.351	10.82
269.565	10.73
269.78	10.17
269.994	10.11
270.209	9.73
270.423	9.2
270.637	9.01
270.852	8.88
271.066	8.11
271.281	8.61
271.495	8.2
271.709	8.35
271.924	8.12
272.138	8.52
272.353	8.5
272.567	8.48
272.781	8.62
272.996	8.64
273.21	8.56
273.424	8.48
273.638	8.15
273.853	8.14
274.067	8.48
274.281	8.88
274.495	9.14
274.71	9.67
274.924	10
275.138	10.11
275.352	9.91
275.566	10.27
275.781	10.77
275.995	11.44
276.209	11.87
276.423	11.52
276.637	11.13
276.851	10.85
277.065	10.22
277.279	10.08
277.493	9.92
277.707	10.3
277.921	10
278.135	9.3
278.349	8.37
278.563	8.27
278.777	8.67
278.991	8.75
279.205	9.09
279.419	9.31
279.633	9.19
279.847	9.4
280.061	9.44
280.275	9.06
280.489	9.72
280.703	10.51
280.917	10.21
281.131	9.88
281.344	9.69
281.558	9.28
281.772	9.62
281.986	9.63
282.2	9.79
282.414	9.96
282.627	9.91
282.841	9.83
283.055	9.58
283.269	9.69
283.482	9.6
283.696	9.51
283.91	9.67
284.123	8.82
284.337	8.5
284.551	7.94
284.764	7.62
284.978	7.43
285.192	7.33
285.405	7.28
285.619	6.95
285.833	7.03
286.046	7.22
286.26	7.1
286.473	7.35
286.687	7.44
286.9	7.92
287.114	7.79
287.327	8.32
287.541	8.4
287.754	8.41
287.968	8.87
288.181	8.92
288.395	8.81
288.608	8.82
288.822	8.97
289.035	8.74
289.248	8.36
289.462	8.23
289.675	7.98
289.889	7.8
290.102	7.47
290.315	7.01
290.529	7.03
290.742	6.95
290.955	7.05
291.169	7.16
291.382	7.68
291.595	7.73
291.808	7.93
292.022	8.37
292.235	8.67
292.448	9.13
292.661	9.31
292.875	9.3
293.088	9.61
293.301	9.18
293.514	9.13
293.727	8.97
293.94	9.06
294.153	8.87
294.367	8.49
294.58	8.01
294.793	7.76
295.006	7.61
295.219	7.3
295.432	7.36
295.645	7.38
295.858	7.22
296.071	6.86
296.284	6.79
296.497	6.74
296.71	6.65
296.923	6.91
297.136	6.95
297.349	6.93
297.562	7.04
297.775	6.73
297.988	7.1
298.201	7.16
298.414	7.4
298.626	7.27
298.839	7.46
299.052	7.55
299.265	7.78
299.478	7.88
299.691	8.27
299.903	8.71
300.116	9.18
300.329	9.05
300.542	9.05
300.755	9.11
300.967	9.56
301.18	9.87
301.393	9.97
301.605	9.64
301.818	9.68
302.031	9.71
302.243	9.28
302.456	9.26
302.669	9.39
302.881	9.59
303.094	10.04
303.307	9.66
303.519	9.53
303.732	9.72
303.944	9.68
304.157	9.87
304.37	9.86
304.582	10.36
304.795	10.68
305.007	10.68
305.22	10.87
305.432	10.68
305.645	11.05
305.857	11.33
306.069	11.42
306.282	11.49
306.494	11.66
306.707	11.85
306.919	11.58
307.132	10.93
307.344	10.87
307.556	10.82
307.769	10.87
307.981	10.76
308.193	10.51
308.406	10.24
308.618	10.3
308.83	9.79
309.043	9.38
309.255	9.29
309.467	9.5
309.679	9.57
309.892	9.55
310.104	9.3
310.316	9.18
310.528	9.04
310.74	9.04
310.953	8.73
311.165	8.95
311.377	9.18
311.589	9.61
311.801	9.59
312.013	9.5
312.225	9.22
312.437	9.3
312.649	9.54
312.862	9.75
313.074	9.94
313.286	10.67
313.498	10.94
313.71	11.29
313.922	10.85
314.134	10.84
314.346	11.05
314.558	11.48
314.77	11.88
314.982	12.09
315.193	12.15
315.405	12.46
315.617	12.32
315.829	12.27
316.041	12.48
316.253	12.6
316.465	12.88
316.677	12.96
316.888	12.93
317.1	12.78
317.312	12.7
317.524	13.05
317.736	13.21
317.947	13.7
318.159	14.08
318.371	13.82
318.583	14.03
318.794	14.48
319.006	14.96
319.218	14.92
319.43	15.02
319.641	14.93
319.853	14.94
320.064	14.93
320.276	14.82
320.488	14.83
320.699	14.86
320.911	15.37
321.123	15.15
321.334	14.53
321.546	14.61
321.757	14.72
321.969	15.28
322.18	15.39
322.392	15.35
322.603	15.23
322.815	14.53
323.026	14.9
323.238	14.46
323.449	14.23
323.661	14.85
323.872	15.2
324.083	14.77
324.295	14.28
324.506	14.3
324.718	13.99
324.929	13.91
325.14	14.34
325.352	14.16
325.563	14.76
325.774	14.99
325.986	14.49
326.197	14.61
326.408	15.11
326.62	15.47
326.831	15.52
327.042	16.2
327.253	16.74
327.464	17.14
327.676	17.17
327.887	16.93
328.098	17.09
328.309	17.45
328.52	17.5
328.732	17.84
328.943	17.92
329.154	18.44
329.365	18.52
329.576	18.74
329.787	19.01
329.998	19.74
330.209	19.83
330.42	20.17
330.631	20.61
330.842	20.79
331.053	21.09
331.264	21.15
331.475	21.09
331.686	21.2
331.897	21.17
332.108	20.83
332.319	20.51
332.53	20.8
332.741	20.52
332.952	20.61
333.163	20.45
333.374	20.5
333.585	20.97
333.795	21.01
334.006	20.76
334.217	20.74
334.428	20.96
334.639	21.08
334.849	21.12
335.06	21.44
335.271	21.37
335.482	21.75
335.692	21.17
335.903	21.12
336.114	20.51
336.325	20.86
336.535	20.86
336.746	20.62
336.957	21.03
337.167	21.11
337.378	21.37
337.589	21.59
337.799	21.1
338.01	21.48
338.22	21.39
338.431	21.71
338.642	21.43
338.852	21.13
339.063	21.41
339.273	21.07
339.484	20.87
339.694	20.62
339.905	20.58
340.115	21.04
340.326	21.07
340.536	20.94
340.746	21.15
340.957	21.34
341.167	21.65
341.378	21.6
341.588	21.49
341.799	21.61
342.009	21.49
342.219	21
342.43	20.92
342.64	20.86
342.85	20.91
343.061	20.78
343.271	20.78
343.481	20.35
343.691	20.23
343.902	20.18
344.112	20.04
344.322	20.17
344.532	20.32
344.743	20.13
344.953	20.01
345.163	19.68
345.373	19.35
345.583	19.05
345.793	19.28
346.004	19.26
346.214	19.11
346.424	19.07
346.634	19.1
346.844	19.26
347.054	19.57
347.264	19.34
347.474	19.57
347.684	19.79
347.894	20.08
348.104	19.99
348.314	20.02
348.524	20.09
348.734	20.18
348.944	20.11
349.154	19.87
349.364	19.61
349.574	19.8
349.784	19.83
349.994	19.94
350.204	19.84
350.413	19.88
350.623	19.62
350.833	19.69
351.043	19.61
351.253	19.45
351.463	19.24
351.672	19.13
351.882	19
352.092	18.83
352.302	18.87
352.511	18.82
352.721	18.71
352.931	19.06
353.141	18.92
353.35	18.68
353.56	18.31
353.77	18.51
353.979	18.3
354.189	18.37
354.399	18.68
354.608	18.5
354.818	18.24
355.027	18.47
355.237	18.22
355.447	18.33
355.656	18.38
355.866	18.67
356.075	18.88
356.285	18.94
356.494	18.86
356.704	18.66
356.913	18.67
357.123	18.75
357.332	18.44
357.542	18.46
357.751	18.11
357.96	18.27
358.17	18.15
358.379	17.87
358.589	17.9
358.798	17.77
359.007	17.72
359.217	17.66
359.426	17.61
359.635	17.72
359.845	17.71
360.054	17.75
360.263	17.48
360.472	17.6
360.682	17.49
360.891	17.4
361.1	17.31
361.309	17.06
361.519	17.22
361.728	17.06
361.937	16.99
362.146	17.03
362.355	17.15
362.564	17.21
362.774	17.12
362.983	17.1
363.192	17.22
363.401	17.14
363.61	17.2
363.819	17.14
364.028	17.23
364.237	17.25
364.446	17.21
364.655	17.17
364.864	17
365.073	16.85
365.282	16.81
365.491	16.63
365.7	16.75
365.909	17.02
366.118	16.91
366.327	16.9
366.536	16.89
366.745	16.72
366.954	16.51
367.162	16.63
367.371	16.79
367.58	16.95
367.789	16.81
367.998	16.86
368.207	16.63
368.415	16.45
368.624	16.61
368.833	16.61
369.042	16.67
369.25	17.15
369.459	17.21
369.668	16.88
369.877	16.55
370.085	16.66
370.294	16.61
370.503	16.67
370.711	16.62
370.92	16.4
371.129	16.19
371.337	15.93
371.546	15.55
371.754	15.57
371.963	15.4
372.171	15.52
372.38	15.56
372.589	15.42
372.797	15.28
373.006	15.38
373.214	15.32
373.423	15.37
373.631	15.6
373.84	15.56
374.048	15.37
374.256	15.74
374.465	15.71
374.673	15.75
374.882	15.86
375.09	15.99
375.298	15.95
375.507	16.02
375.715	16.03
375.923	15.89
376.132	15.77
376.34	15.68
376.548	15.35
376.757	15.43
376.965	15.41
377.173	15.4
377.381	15.21
377.59	15.26
377.798	15.12
378.006	15.01
378.214	14.85
378.423	14.89
378.631	14.92
378.839	15.02
379.047	14.84
379.255	14.68
379.463	14.61
379.671	14.35
379.879	14.22
380.088	14.21
380.296	14.02
380.504	13.95
380.712	13.85
380.92	13.86
381.128	13.84
381.336	13.52
381.544	13.33
381.752	13.25
381.96	13.44
382.168	13.12
382.376	12.94
382.584	13.32
382.791	13.51
382.999	13.46
383.207	13.14
383.415	13.25
383.623	13.4
383.831	13.43
384.039	13.42
384.247	13.47
384.454	13.68
384.662	13.93
384.87	13.57
385.078	13.45
385.285	13.41
385.493	13.53
385.701	13.43
385.909	13.43
386.116	13.41
386.324	13.22
386.532	13.12
386.739	12.96
386.947	12.98
387.155	13.04
387.362	12.85
387.57	12.63
387.778	12.48
387.985	12.23
388.193	12.14
388.4	12.04
388.608	12.27
388.816	12.24
389.023	12.19
389.231	11.83
389.438	11.79
389.646	11.95
389.853	12.23
390.061	12.28
390.268	12.29
390.475	12.16
390.683	12.07
390.89	11.92
391.098	11.78
391.305	11.83
391.512	11.91
391.72	11.81
391.927	11.67
392.135	11.66
392.342	11.63
392.549	11.85
392.756	11.83
392.964	11.77
393.171	11.83
393.378	11.89
393.586	11.77
393.793	11.69
394	11.56
394.207	11.75
394.414	11.69
394.622	11.75
394.829	11.7
395.036	11.9
395.243	11.95
395.45	11.91
395.657	11.95
395.864	12.09
396.072	12.08
396.279	12.25
396.486	12.06
396.693	11.85
396.9	11.78
397.107	11.78
397.314	11.87
397.521	11.86
397.728	11.67
397.935	11.44
398.142	11.33
398.349	11.33
398.556	11.38
398.763	11.27
398.97	11.26
399.177	11.32
399.383	11.12
399.59	10.93
399.797	10.99
400.004	10.85
400.211	10.96
400.418	11.07
400.625	11.06
400.831	10.96
401.038	11.05
401.245	11.27
401.452	11.18
401.658	11.18
401.865	11.29
402.072	11.23
402.279	11.49
402.485	11.23
402.692	11.07
402.899	11.17
403.105	11.12
403.312	11.02
403.519	10.75
403.725	10.79
403.932	10.63
404.138	10.46
404.345	10.58
404.552	10.33
404.758	10.41
404.965	10.16
405.171	10.11
405.378	10.1
405.584	10.05
405.791	10.17
405.997	10.08
406.204	10.27
406.41	10.2
406.617	10.06
406.823	10.22
407.029	10.21
407.236	10.59
407.442	10.5
407.649	10.53
407.855	10.67
408.061	10.72
408.268	10.78
408.474	10.74
408.68	10.72
408.887	10.81
409.093	10.79
409.299	10.93
409.505	10.83
409.712	10.79
409.918	10.63
410.124	10.61
410.33	10.52
410.537	10.38
410.743	10.36
410.949	10.47
411.155	10.37
411.361	10.35
411.567	10.18
411.773	10.07
411.98	10.1
412.186	10.22
412.392	10.31
412.598	10.31
412.804	10.34
413.01	10.3
413.216	10.27
413.422	10.27
413.628	10.26
413.834	10.32
414.04	10.42
414.246	10.46
414.452	10.33
414.658	10.32
414.864	10.16
415.07	10.13
415.275	9.9
415.481	9.93
415.687	9.74
415.893	9.77
416.099	9.68
416.305	9.51
416.511	9.31
416.716	9.26
416.922	9.06
417.128	9.11
417.334	9.08
417.539	9.17
417.745	8.96
417.951	9
418.157	8.89
418.362	8.89
418.568	8.91
418.774	8.9
418.979	8.85
419.185	8.78
419.391	8.76
419.596	8.65
419.802	8.66
420.008	8.72
420.213	9.37
420.419	9.39
420.624	9.32
420.83	9.28
421.035	9.37
421.241	9.35
421.446	9.37
421.652	9.26
421.857	9.24
422.063	9.14
422.268	9.11
422.474	8.48
422.679	8.49
422.885	8.52
423.09	8.43
423.295	8.3
423.501	8.32
423.706	8.34
423.911	8.38
424.117	8.4
424.322	8.43
424.527	8.4
424.733	8.34
424.938	8.28
425.143	8.19
425.349	8.28
425.554	8.27
425.759	8.28
425.964	8.28
426.169	8.29
426.375	8.38
426.58	8.45
426.785	8.45
426.99	8.52
427.195	8.52
427.4	8.62
427.605	8.58
427.811	8.71
428.016	8.77
428.221	8.9
428.426	8.91
428.631	8.88
428.836	8.83
429.041	8.93
429.246	8.85
429.451	8.82
429.656	8.91
429.861	8.92
430.066	8.82
430.271	8.81
430.476	8.74
430.681	8.66
430.886	8.64
431.09	8.63
431.295	8.63
431.5	8.81
431.705	8.85
431.91	8.79
432.115	8.84
432.32	8.91
432.524	8.82
432.729	8.87
432.934	8.95
433.139	8.88
433.343	8.91
433.548	8.84
433.753	8.73
433.958	8.67
434.162	8.8
434.367	8.85
434.572	8.85
434.776	8.87
434.981	8.77
435.186	8.82
435.39	8.92
435.595	8.93
435.799	9
436.004	9.05
436.209	9.11
436.413	9.06
436.618	8.99
436.822	9.01
437.027	9.04
437.231	9.05
437.436	9.01
437.64	9
437.845	9
438.049	9.03
438.253	9.01
438.458	9
438.662	8.87
438.867	8.81
439.071	8.73
439.275	8.67
439.48	8.64
439.684	8.58
439.888	8.52
440.093	8.46
440.297	8.35
440.501	8.31
440.706	8.33
440.91	8.36
441.114	8.41
441.318	8.45
441.523	8.45
441.727	8.44
441.931	8.45
442.135	8.52
442.339	8.51
442.543	8.66
442.748	8.7
442.952	8.7
443.156	8.71
443.36	8.68
443.564	8.68
443.768	8.65
443.972	8.61
444.176	8.63
444.38	8.67
444.584	8.64
444.788	8.52
444.992	8.52
445.196	8.43
445.4	8.34
445.604	8.36
445.808	8.37
446.012	8.4
446.216	8.4
446.42	8.4
446.624	8.3
446.828	8.33
447.032	8.36
447.235	8.37
447.439	8.4
447.643	8.47
447.847	8.46
448.051	8.48
448.254	8.46
448.458	8.49
448.662	8.5
448.866	8.51
449.069	8.58
449.273	8.58
449.477	8.55
449.681	8.62
449.884	8.76
450.088	8.93
450.292	8.88
450.495	8.98
450.699	9.1
450.902	9.12
451.106	9.15
451.31	9.14
451.513	9.21
451.717	9.25
451.92	9.14
452.124	8.99
452.327	8.81
452.531	8.74
452.734	8.75
452.938	8.75
453.141	8.86
453.345	8.88
453.548	8.84
453.752	8.75
453.955	8.87
454.158	9
454.362	9.09
454.565	9.14
454.769	9.14
454.972	9.1
455.175	9.06
455.379	8.98
455.582	8.98
455.785	9
455.988	9.06
456.192	8.99
456.395	8.87
456.598	8.91
456.801	8.95
457.005	9.01
457.208	9.06
457.411	9.02
457.614	9.05
457.817	8.95
458.021	8.87
458.224	8.8
458.427	8.55
458.63	8.6
458.833	8.44
459.036	8.3
459.239	8.26
459.442	8.18
459.645	8.1
459.848	8.01
460.051	8.04
460.254	8.13
460.457	8.16
460.66	8.32
460.863	8.28
461.066	8.31
461.269	8.33
461.472	8.44
461.675	8.5
461.878	8.7
462.081	8.81
462.284	8.79
462.486	8.71
462.689	8.69
462.892	8.66
463.095	8.72
463.298	8.81
463.5	8.96
463.703	8.83
463.906	8.83
464.109	8.68
464.311	8.64
464.514	8.68
464.717	8.74
464.92	8.81
465.122	8.89
465.325	8.88
465.528	8.93
465.73	8.94
465.933	8.93
466.135	9.01
466.338	8.84
466.541	8.86
466.743	8.82
466.946	8.79
467.148	8.83
467.351	8.79
467.553	8.86
467.756	8.73
467.958	8.7
468.161	8.86
468.363	8.79
468.566	8.93
468.768	8.96
468.971	9.02
469.173	8.98
469.375	8.98
469.578	9.04
469.78	8.87
469.983	8.88
470.185	8.88
470.387	8.79
470.59	8.81
470.792	8.84
470.994	8.91
471.196	8.9
471.399	8.94
471.601	8.86
471.803	8.72
472.005	8.85
472.208	8.9
472.41	8.9
472.612	8.89
472.814	8.97
473.016	9.06
473.218	9.04
473.421	9.01
473.623	9
473.825	9.08
474.027	9.17
474.229	9.13
474.431	9.12
474.633	9.1
474.835	9.12
475.037	9.11
475.239	8.95
475.441	8.95
475.643	9.01
475.845	8.95
476.047	8.87
476.249	8.84
476.451	8.84
476.653	8.82
476.855	8.78
477.057	8.75
477.258	8.63
477.46	8.64
477.662	8.64
477.864	8.62
478.066	8.72
478.268	8.76
478.469	8.79
478.671	8.74
478.873	8.79
479.075	8.78
479.276	8.66
479.478	8.71
479.68	8.69
479.882	8.66
480.083	8.63
480.285	8.54
480.487	8.54
480.688	8.48
480.89	8.52
481.091	8.44
481.293	8.38
481.495	8.34
481.696	8.26
481.898	8.19
482.099	8.13
482.301	8.08
482.502	8.03
482.704	7.97
482.905	7.94
483.107	7.87
483.308	7.84
483.51	7.82
483.711	7.83
483.913	7.83
484.114	7.85
484.315	7.85
484.517	7.83
484.718	7.84
484.92	7.82
485.121	7.81
485.322	7.83
485.524	7.86
485.725	7.9
485.926	7.9
486.127	7.87
486.329	7.85
486.53	7.8
486.731	7.79
486.932	7.78
487.134	7.78
487.335	7.8
487.536	7.78
487.737	7.74
487.938	7.74
488.139	7.77
488.341	7.85
488.542	7.88
488.743	7.91
488.944	7.94
489.145	8
489.346	8.04
489.547	8.01
489.748	8.06
489.949	8.1
490.15	8.06
490.351	8.03
490.552	8.03
490.753	8.01
490.954	8.01
491.155	8.02
491.356	8.01
491.557	8
491.758	8.06
491.959	8.04
492.159	8.05
492.36	8.12
492.561	8.17
492.762	8.18
492.963	8.25
493.164	8.28
493.364	8.33
493.565	8.34
493.766	8.36
493.967	8.35
494.167	8.44
494.368	8.5
494.569	8.48
494.769	8.49
494.97	8.5
495.171	8.59
495.371	8.66
495.572	8.65
495.773	8.64
495.973	8.71
496.174	8.75
496.375	8.81
496.575	8.75
496.776	8.8
496.976	8.82
497.177	8.84
497.377	8.73
497.578	8.76
497.778	8.84
497.979	8.93
498.179	8.95
498.38	9.04
498.58	9.04
498.78	9.12
498.981	9.19
499.181	9.19
499.382	9.24
499.582	9.29
499.782	9.38
499.983	9.41
500.183	9.46
500.383	9.42
500.584	9.32
500.784	9.28
500.984	9.3
501.184	9.27
501.385	9.32
501.585	9.4
501.785	9.39
501.985	9.37
502.185	9.38
502.386	9.33
502.586	9.4
502.786	9.51
502.986	9.55
503.186	9.54
503.386	9.53
503.586	9.56
503.786	9.5
503.987	9.63
504.187	9.58
504.387	9.62
504.587	9.74
504.787	9.82
504.987	9.83
505.187	9.91
505.387	9.99
505.587	10.05
505.786	10.12
505.986	10.13
506.186	10.09
506.386	10.14
506.586	10.13
506.786	10.06
506.986	10.1
507.186	10.09
507.386	10.03
507.585	10.06
507.785	10.08
507.985	10.12
508.185	10.2
508.384	10.28
508.584	10.27
508.784	10.22
508.984	10.38
509.183	10.42
509.383	10.48
509.583	10.65
509.782	10.71
509.982	10.74
510.182	10.7
510.381	10.75
510.581	10.74
510.781	10.86
510.98	11.02
511.18	10.98
511.379	11.01
511.579	11.09
511.778	11.05
511.978	11.1
512.177	11.21
512.377	11.29
512.576	11.23
512.776	11.32
512.975	11.45
513.175	11.53
513.374	11.61
513.573	11.66
513.773	11.69
513.972	11.78
514.172	11.8
514.371	11.88
514.57	11.98
514.77	12.13
514.969	12.15
515.168	12.13
515.367	12.18
515.567	12.26
515.766	12.39
515.965	12.46
516.164	12.49
516.364	12.5
516.563	12.41
516.762	12.45
516.961	12.42
517.16	12.48
517.359	12.57
517.559	12.66
517.758	12.67
517.957	12.65
518.156	12.69
518.355	12.71
518.554	12.71
518.753	12.81
518.952	12.85
519.151	12.93
519.35	12.96
519.549	12.92
519.748	12.88
519.947	12.99
520.146	13.11
520.345	13.2
520.544	13.29
520.743	13.48
520.942	13.63
521.141	13.69
521.339	13.88
521.538	13.9
521.737	14.04
521.936	14.11
522.135	14.15
522.333	14.2
522.532	14.26
522.731	14.36
522.93	14.37
523.129	14.39
523.327	14.49
523.526	14.55
523.725	14.69
523.923	14.74
524.122	14.85
524.321	14.93
524.519	15.01
524.718	15.07
524.917	15.16
525.115	15.16
525.314	15.23
525.512	15.31
525.711	15.32
525.909	15.41
526.108	15.45
526.306	15.41
526.505	15.43
526.703	15.41
526.902	15.41
527.1	15.36
527.299	15.43
527.497	15.45
527.696	15.47
527.894	15.46
528.092	15.44
528.291	15.41
528.489	15.48
528.688	15.52
528.886	15.58
529.084	15.64
529.283	15.71
529.481	15.74
529.679	15.8
529.877	15.84
530.076	15.93
530.274	16.05
530.472	16.21
530.67	16.3
530.869	16.33
531.067	16.4
531.265	16.5
531.463	16.6
531.661	16.68
531.859	16.71
532.057	16.78
532.255	16.81
532.454	16.83
532.652	16.79
532.85	16.8
533.048	16.9
533.246	16.93
533.444	16.94
533.642	16.99
533.84	17.03
534.038	17.08
534.236	17.15
534.434	17.21
534.632	17.2
534.83	17.33
535.027	17.41
535.225	17.43
535.423	17.47
535.621	17.56
535.819	17.6
536.017	17.66
536.215	17.71
536.412	17.75
536.61	17.83
536.808	17.91
537.006	18
537.203	18.08
537.401	18.19
537.599	18.23
537.797	18.29
537.994	18.36
538.192	18.45
538.39	18.54
538.587	18.61
538.785	18.66
538.983	18.81
539.18	18.76
539.378	18.83
539.575	18.86
539.773	18.93
539.97	18.88
540.168	18.98
540.366	18.96
540.563	18.97
540.761	18.95
540.958	18.93
541.155	18.93
541.353	18.98
541.55	18.94
541.748	18.94
541.945	18.94
542.143	18.99
542.34	19.01
542.537	19.06
542.735	19.07
542.932	19.13
543.129	19.28
543.327	19.32
543.524	19.41
543.721	19.56
543.919	19.65
544.116	19.82
544.313	19.97
544.51	20.06
544.708	20.23
544.905	20.39
545.102	20.55
545.299	20.54
545.496	20.65
545.693	20.72
545.891	20.82
546.088	20.85
546.285	20.86
546.482	20.78
546.679	20.72
546.876	20.64
547.073	20.6
547.27	20.52
547.467	20.47
547.664	20.42
547.861	20.42
548.058	20.32
548.255	20.32
548.452	20.33
548.649	20.51
548.846	20.6
549.043	20.62
549.24	20.67
549.437	20.74
549.633	20.85
549.83	20.9
550.027	20.85
550.224	20.82
550.421	20.83
550.618	20.65
550.814	20.57
551.011	20.45
551.208	20.46
551.405	20.39
551.601	20.31
551.798	20.3
551.995	20.17
552.191	20.16
552.388	20.24
552.585	20.27
552.781	20.4
552.978	20.32
553.175	20.39
553.371	20.49
553.568	20.55
553.764	20.53
553.961	20.56
554.157	20.58
554.354	20.65
554.55	20.57
554.747	20.62
554.943	20.69
555.14	20.78
555.336	20.71
555.533	20.67
555.729	20.71
555.926	20.85
556.122	20.95
556.318	21.05
556.515	21.09
556.711	21.15
556.907	21.05
557.104	21.06
557.3	21.1
557.496	21.13
557.693	21.11
557.889	21.13
558.085	21.15
558.281	21.14
558.478	21.33
558.674	21.28
558.87	21.33
559.066	21.48
559.262	21.54
559.459	21.44
559.655	21.54
559.851	21.51
560.047	21.46
560.243	21.47
560.439	21.42
560.635	21.29
560.831	21.33
561.027	21.35
561.223	21.2
561.419	21.02
561.615	20.95
561.811	20.98
562.007	21.08
562.203	21.16
562.399	21.15
562.595	21.03
562.791	21.13
562.987	21.04
563.183	21.08
563.379	21.17
563.575	21.21
563.771	21.37
563.966	21.33
564.162	21.2
564.358	21.01
564.554	21.03
564.75	21.08
564.945	20.94
565.141	21
565.337	20.9
565.533	20.89
565.728	20.83
565.924	20.87
566.12	20.86
566.315	20.81
566.511	20.92
566.707	20.8
566.902	20.8
567.098	20.83
567.293	20.82
567.489	20.82
567.684	20.83
567.88	20.88
568.076	20.88
568.271	20.82
568.467	20.99
568.662	20.95
568.858	21.02
569.053	21
569.248	21.05
569.444	21.06
569.639	20.95
569.835	20.98
570.03	20.94
570.225	20.78
570.421	20.8
570.616	20.74
570.812	20.78
571.007	20.8
571.202	20.77
571.397	20.75
571.593	20.62
571.788	20.81
571.983	20.8
572.178	20.9
572.374	21.03
572.569	21.15
572.764	21.1
572.959	21.16
573.154	21.2
573.35	21.29
573.545	21.29
573.74	21.47
573.935	21.44
574.13	21.31
574.325	21.28
574.52	21.29
574.715	21.28
574.91	21.33
575.105	21.31
575.3	21.28
575.495	21.33
575.69	21.39
575.885	21.35
576.08	21.36
576.275	21.63
576.47	21.73
576.665	21.72
576.86	21.7
577.055	21.74
577.25	21.88
577.444	21.9
577.639	22.03
577.834	22.01
578.029	22.19
578.224	22.28
578.418	22.27
578.613	22.3
578.808	22.39
579.003	22.54
579.197	22.67
579.392	22.57
579.587	22.66
579.781	22.61
579.976	22.72
580.171	22.67
580.365	22.68
580.56	22.76
580.755	22.88
580.949	22.87
581.144	22.83
581.338	22.83
581.533	22.91
581.727	23.05
581.922	23
582.116	23.06
582.311	23.18
582.505	23.13
582.7	23.11
582.894	23.14
583.089	23.17
583.283	23.1
583.478	23.04
583.672	23.19
583.866	23.11
584.061	23.2
584.255	23.08
584.449	22.98
584.644	23.2
584.838	23.31
585.032	23.28
585.226	23.35
585.421	23.51
585.615	23.63
585.809	23.58
586.003	23.57
586.198	23.54
586.392	23.62
586.586	23.52
586.78	23.52
586.974	23.42
587.168	23.38
587.363	23.47
587.557	23.39
587.751	23.39
587.945	23.24
588.139	23.15
588.333	23.12
588.527	23.11
588.721	23.21
588.915	23.06
589.109	23.05
589.303	22.94
589.497	22.74
589.691	22.73
589.885	22.59
590.079	22.74
590.273	22.78
590.466	22.9
590.66	22.81
590.854	22.97
591.048	22.98
591.242	22.93
591.436	22.98
591.629	23.22
591.823	23.29
592.017	23.46
592.211	23.34
592.404	23.44
592.598	23.38
592.792	23.59
592.986	23.43
593.179	23.41
593.373	23.46
593.567	23.67
593.76	23.47
593.954	23.33
594.147	23.35
594.341	23.38
594.535	23.41
594.728	23.37
594.922	23.3
595.115	23.32
595.309	23.2
595.502	23.13
595.696	22.86
595.889	22.84
596.083	22.85
596.276	22.75
596.47	22.79
596.663	22.67
596.856	22.67
597.05	22.63
597.243	22.63
597.437	22.82
597.63	22.95
597.823	23.13
598.017	23.27
598.21	23.42
598.403	23.49
598.596	23.56
598.79	23.7
598.983	23.79
599.176	23.88
599.369	23.94
599.563	24
599.756	24.07
599.949	24.02
600.142	24.03
600.335	24.1
600.528	24.2
600.722	24.2
600.915	24.24
601.108	24.32
601.301	24.29
601.494	24.3
601.687	24.13
601.88	23.98
602.073	23.87
602.266	23.81
602.459	23.68
602.652	23.51
602.845	23.43
603.038	23.32
603.231	23.33
603.424	23.27
603.617	23.14
603.809	23.18
604.002	23.11
604.195	23.17
604.388	23.21
604.581	23.14
604.774	23.18
604.966	23.11
605.159	23.12
605.352	23.01
605.545	23.19
605.737	23.31
605.93	23.32
606.123	23.49
606.316	23.67
606.508	23.75
606.701	23.88
606.894	24.01
607.086	24.25
607.279	24.45
607.471	24.52
607.664	24.47
607.857	24.66
608.049	24.91
608.242	25.18
608.434	25.24
608.627	25.54
608.819	25.86
609.012	26.38
609.204	26.98
609.397	27.54
609.589	28.3
609.782	28.97
609.974	29.66
610.166	30.33
610.359	30.92
610.551	31.66
610.743	32.22
610.936	32.84
611.128	33.12
611.32	33.35
611.513	33.65
611.705	33.62
611.897	33.64
612.09	33.42
612.282	33.06
612.474	32.74
612.666	32.47
612.858	32.2
613.051	31.85
613.243	31.42
613.435	30.93
613.627	30.4
613.819	30.25
614.011	30.02
614.203	29.74
614.395	29.53
614.588	29.26
614.78	29.01
614.972	28.57
615.164	28.37
615.356	28.19
615.548	27.99
615.74	28.07
615.932	27.76
616.124	27.59
616.315	27.53
616.507	27.51
616.699	27.35
616.891	27.19
617.083	27.28
617.275	27.05
617.467	26.94
617.659	26.92
617.85	26.42
618.042	26.29
618.234	26.11
618.426	25.9
618.618	25.65
618.809	25.45
619.001	25.43
619.193	25.28
619.384	25.37
619.576	25.54
619.768	25.49
619.959	25.63
620.151	25.47
620.343	25.5
620.534	25.61
620.726	25.85
620.917	26.12
621.109	26.16
621.301	26.45
621.492	26.47
621.684	26.32
621.875	26.24
622.067	26.25
622.258	26.49
622.45	26.57
622.641	26.56
622.832	26.67
623.024	26.73
623.215	26.71
623.407	26.42
623.598	26.49
623.789	26.68
623.981	26.69
624.172	26.8
624.363	26.69
624.555	26.71
624.746	26.56
624.937	26.29
625.129	26.26
625.32	25.98
625.511	25.97
625.702	25.78
625.893	25.71
626.085	25.75
626.276	25.62
626.467	25.67
626.658	25.6
626.849	25.65
627.04	25.62
627.231	25.57
627.422	25.86
627.614	25.78
627.805	25.8
627.996	25.64
628.187	25.71
628.378	25.74
628.569	25.83
628.76	25.89
628.951	26.04
629.142	26.36
629.332	26.43
629.523	26.45
629.714	26.72
629.905	27.05
630.096	27.36
630.287	27.44
630.478	27.49
630.669	27.43
630.859	27.4
631.05	27.26
631.241	27.07
631.432	27.03
631.623	26.97
631.813	26.76
632.004	26.58
632.195	26.17
632.385	26.02
632.576	26.06
632.767	25.93
632.957	25.9
633.148	25.72
633.339	25.5
633.529	25.41
633.72	25.2
633.91	25.11
634.101	25.06
634.292	25.28
634.482	25.18
634.673	25.06
634.863	25.15
635.054	25.09
635.244	25.22
635.435	25.46
635.625	25.36
635.815	25.46
636.006	25.63
636.196	25.65
636.387	25.41
636.577	25.38
636.767	25.5
636.958	25.4
637.148	25.37
637.338	25.36
637.529	25.41
637.719	25.57
637.909	25.66
638.099	25.72
638.29	25.64
638.48	26.19
638.67	26.48
638.86	26.35
639.05	26.64
639.241	26.8
639.431	26.8
639.621	26.71
639.811	26.6
640.001	26.6
640.191	26.42
640.381	26.41
640.571	26.2
640.761	25.99
640.951	26.06
641.141	25.85
641.331	25.83
641.521	26
641.711	26.04
641.901	26.12
642.091	26.21
642.281	26.38
642.471	26.6
642.661	26.59
642.851	26.7
643.041	26.8
643.231	26.87
643.42	26.77
643.61	26.78
643.8	27.02
643.99	27.07
644.18	27
644.369	26.99
644.559	26.98
644.749	27.17
644.939	27
645.128	27.11
645.318	26.99
645.508	27.15
645.697	26.94
645.887	26.73
646.076	26.79
646.266	26.72
646.456	26.76
646.645	26.64
646.835	26.44
647.024	26.75
647.214	26.64
647.403	26.73
647.593	26.7
647.782	26.92
647.972	26.98
648.161	26.95
648.351	27.14
648.54	27.03
648.73	27.06
648.919	27.1
649.108	26.87
649.298	27
649.487	27
649.677	27.02
649.866	26.94
650.055	26.8
650.244	26.73
650.434	26.66
650.623	26.7
650.812	26.7
651.002	26.56
651.191	26.78
651.38	26.75
651.569	26.83
651.758	26.87
651.947	27.08
652.137	27.01
652.326	27.07
652.515	26.78
652.704	26.74
652.893	26.89
653.082	27.06
653.271	26.86
653.46	26.79
653.649	27.08
653.838	26.9
654.027	26.89
654.216	26.99
654.405	27.04
654.594	27.35
654.783	27.38
654.972	27.19
655.161	27.09
655.35	27.05
655.539	27.14
655.728	26.61
655.916	26.75
656.105	26.5
656.294	26.72
656.483	26.65
656.672	26.56
656.86	26.43
657.049	26.44
657.238	26.36
657.427	26.54
657.615	26.18
657.804	26.25
657.993	26.18
658.181	26.15
658.37	25.9
658.559	26.11
658.747	26.16
658.936	26.22
659.125	26.21
659.313	26.3
659.502	26.39
659.69	26.54
659.879	26.6
660.067	26.7
660.256	26.81
660.444	26.92
660.633	26.9
660.821	26.86
661.01	26.98
661.198	27.02
661.387	27
661.575	26.97
661.763	27.04
661.952	27.22
662.14	27.3
662.328	27.34
662.517	27.38
662.705	27.29
662.893	27.44
663.082	27.64
663.27	27.82
663.458	27.97
663.646	28.16
663.834	28.5
664.023	28.29
664.211	28.32
664.399	28.67
664.587	28.65
664.775	28.73
664.963	28.86
665.152	28.83
665.34	28.8
665.528	29.13
665.716	28.8
665.904	28.33
666.092	28.62
666.28	28.69
666.468	28.41
666.656	28.73
666.844	28.68
667.032	28.72
667.22	28.56
667.408	28.76
667.596	28.37
667.784	28.42
667.971	28.61
668.159	28.33
668.347	28.27
668.535	28.13
668.723	27.96
668.911	27.9
669.098	27.87
669.286	27.98
669.474	27.72
669.662	27.89
669.849	27.98
670.037	27.97
670.225	28.2
670.413	28.13
670.6	28.26
670.788	28.36
670.976	28.28
671.163	28
671.351	27.83
671.538	27.95
671.726	27.75
671.913	27.66
672.101	27.72
672.289	27.78
672.476	27.59
672.664	27.52
672.851	27.6
673.039	27.61
673.226	27.8
673.413	27.69
673.601	27.82
673.788	28.22
673.976	28.34
674.163	28.45
674.35	28.26
674.538	28.47
674.725	28.64
674.912	28.54
675.1	28.55
675.287	28.51
675.474	28.68
675.662	28.75
675.849	28.61
676.036	28.66
676.223	28.5
676.411	28.72
676.598	29.04
676.785	28.94
676.972	28.92
677.159	29.04
677.346	29.05
677.533	29.08
677.721	28.85
677.908	28.43
678.095	28.34
678.282	28.4
678.469	28.02
678.656	27.79
678.843	27.69
679.03	27.8
679.217	27.79
679.404	27.94
679.591	27.67
679.778	27.56
679.964	27.85
680.151	27.75
680.338	27.74
680.525	28.01
680.712	27.78
680.899	27.79
681.086	27.6
681.272	27.7
681.459	27.62
681.646	28.2
681.833	28.24
682.02	28.14
682.206	28.27
682.393	28.32
682.58	28.35
682.766	28.72
682.953	29.02
683.14	29.15
683.326	29.46
683.513	29.45
683.7	29.01
683.886	29.29
684.073	29.24
684.259	29.09
684.446	29.22
684.632	29.38
684.819	29.27
685.005	29.06
685.192	29.11
685.378	28.88
685.565	28.82
685.751	29.01
685.938	29.04
686.124	29.18
686.31	29.71
686.497	29.58
686.683	29.36
686.87	29.31
687.056	29.25
687.242	29.45
687.429	29.47
687.615	29.39
687.801	29.37
687.987	29.11
688.174	29.42
688.36	29.12
688.546	29.26
688.732	29.35
688.918	29.32
689.105	29.52
689.291	29.15
689.477	29.35
689.663	29.33
689.849	29.45
690.035	29.54
690.221	29.62
690.407	29.62
690.593	29.41
690.779	29.41
690.965	29.34
691.151	29.45
691.337	29.69
691.523	29.61
691.709	29.81
691.895	29.9
692.081	29.98
692.267	29.84
692.453	29.7
692.639	30.01
692.825	30.17
693.011	30.44
693.196	30.44
693.382	30.3
693.568	30.47
693.754	30.82
693.94	30.75
694.125	30.75
694.311	30.77
694.497	30.94
694.682	30.45
694.868	30.51
695.054	30.54
695.239	30.63
695.425	30.92
695.611	30.64
695.796	30.37
695.982	30.03
696.168	30.03
696.353	29.62
696.539	29.46
696.724	29.46
696.91	29.05
697.095	28.73
697.281	28.8
697.466	28.5
697.652	28.35
697.837	28.04
698.023	28.04
698.208	27.87
698.393	28.08
698.579	28.07
698.764	28.16
698.949	28.16
699.135	28.21
699.32	28
699.505	27.95
699.691	27.91
699.876	28.29
700.061	28.4
700.246	28.48
700.432	28.36
700.617	28.42
700.802	28.81
700.987	28.9
701.172	29.15
701.358	29.5
701.543	29.54
701.728	29.89
701.913	30.12
702.098	30.64
702.283	30.85
702.468	30.96
702.653	31.49
702.838	31.51
703.023	31.82
703.208	31.93
703.393	31.8
703.578	32.28
703.763	32.32
703.948	32.5
704.133	32.25
704.318	32.63
704.503	32.82
704.688	33.04
704.873	33.23
705.057	33.67
705.242	33.98
705.427	34.38
705.612	34.54
705.797	34.53
705.981	34.27
706.166	34.66
706.351	34.71
706.536	35.2
706.72	35.23
706.905	35.31
707.09	34.84
707.274	34.85
707.459	34.52
707.644	34.7
707.828	35.08
708.013	35.32
708.197	34.89
708.382	34.84
708.567	34.52
708.751	34.27
708.936	34.02
709.12	34.21
709.305	34.29
709.489	34.27
709.673	33.91
709.858	33.64
710.042	33.45
710.227	33.67
710.411	33.68
710.596	33.94
710.78	34.11
710.964	34.32
711.149	34.56
711.333	34.43
711.517	34.56
711.702	34.62
711.886	34.3
712.07	33.95
712.254	33.91
712.438	33.49
712.623	33.5
712.807	33.19
712.991	32.7
713.175	32.21
713.359	32.1
713.544	32.03
713.728	32.12
713.912	32.29
714.096	32.14
714.28	31.6
714.464	31.87
714.648	31.46
714.832	31.45
715.016	31.61
715.2	31.97
715.384	31.75
715.568	31.89
715.752	31.63
715.936	31.53
716.12	31.65
716.304	32.22
716.488	32.5
716.671	32.43
716.855	32.52
717.039	32.78
717.223	32.69
717.407	32.45
717.59	32.31
717.774	32.53
717.958	32.95
718.142	32.94
718.325	32.63
718.509	32.42
718.693	32.31
718.877	31.71
719.06	31.41
719.244	31.32
719.428	32.04
719.611	32.1
719.795	32.23
719.978	32.39
720.162	32.82
720.345	33.26
720.529	33.38
720.713	33.73
720.896	34.32
721.08	34.58
721.263	34.92
721.446	34.77
721.63	34.69
721.813	34.69
721.997	34.63
722.18	34.99
722.364	34.54
722.547	34.16
722.73	34
722.914	34.27
723.097	34.49
723.28	34.24
723.464	34.69
723.647	34.89
723.83	34.34
724.013	33.93
724.197	33.43
724.38	33.6
724.563	34.02
724.746	34.26
724.929	34.01
725.112	33.7
725.296	33.38
725.479	33.04
725.662	33.02
725.845	32.84
726.028	32.8
726.211	32.96
726.394	33.13
726.577	33.13
726.76	32.9
726.943	32.64
727.126	32.06
727.309	32.28
727.492	31.88
727.675	31.85
727.858	32.15
728.041	32.22
728.224	32.11
728.407	32.41
728.589	32.31
728.772	32.16
728.955	32.61
729.138	33.16
729.321	32.75
729.503	33.4
729.686	32.87
729.869	32.94
730.052	33.06
730.234	32.83
730.417	32.82
730.6	32.56
730.782	32.96
730.965	33.05
731.148	32.52
731.33	33.24
731.513	32.77
731.695	32.93
731.878	33.19
732.061	33.29
732.243	33.52
732.426	33.51
732.608	34.1
732.791	34.03
732.973	33.87
733.156	34.56
733.338	34.02
733.52	33.97
733.703	33.95
733.885	33.52
734.068	33.32
734.25	33.77
734.432	33.56
734.615	33.22
734.797	33.42
734.979	33.58
735.162	33.34
735.344	33.55
735.526	33.97
735.708	34.71
735.891	35.17
736.073	35.5
736.255	35.7
736.437	35.62
736.619	35.59
736.802	35.28
736.984	35.34
737.166	35.83
737.348	36.05
737.53	35.92
737.712	36.12
737.894	36.31
738.076	36.06
738.258	35.64
738.44	35.77
738.622	36.27
738.804	35.93
738.986	35.78
739.168	35.38
739.35	35.46
739.532	35.64
739.714	35.15
739.896	34.49
740.078	34.46
740.259	34.31
740.441	34.34
740.623	34
740.805	34.57
740.987	34.04
741.168	34.68
741.35	34.73
741.532	34.69
741.714	34.51
741.895	35.25
742.077	35.57
742.259	35.93
742.44	36.07
742.622	35.87
742.804	36.55
742.985	37.44
743.167	37.28
743.348	36.98
743.53	36.76
743.711	37.14
743.893	37.04
744.075	36.72
744.256	36.84
744.438	36.43
744.619	36.99
744.8	36.79
744.982	37.14
745.163	37.16
745.345	37.52
745.526	37.98
745.707	37.81
745.889	37.5
746.07	38.07
746.252	38.29
746.433	39.03
746.614	38.5
746.795	38.03
746.977	37.85
747.158	37.47
747.339	37.5
747.52	37.69
747.702	37.71
747.883	37.91
748.064	37.66
748.245	37.13
748.426	36.48
748.607	37.27
748.788	37.54
748.97	37.9
749.151	38.17
749.332	38.48
749.513	37.35
749.694	37.41
749.875	38.01
750.056	37.88
750.237	38.49
750.418	39.49
750.599	38.44
750.78	38.28
750.96	38.03
751.141	38.27
751.322	38.39
751.503	39.11
751.684	39.26
751.865	39.25
752.046	39.47
752.226	39.2
752.407	38.66
752.588	39.09
752.769	39.31
752.949	39.15
753.13	39.02
753.311	38.21
753.492	38.23
753.672	38.98
753.853	38.62
754.034	39.21
754.214	39
754.395	38.85
754.575	39.77
754.756	39.8
754.937	39.54
755.117	39.12
755.298	39.8
755.478	40.31
755.659	39.2
755.839	39.23
756.02	38.95
756.2	38.91
756.381	38.84
756.561	38.24
756.741	37.94
756.922	37.95
757.102	37.75
757.283	38.1
757.463	38.28
757.643	38.95
757.823	38.34
758.004	37.73
758.184	38.1
758.364	38.59
758.545	38.13
758.725	37.64
758.905	37.63
759.085	38.04
759.265	37.33
759.446	36.52
759.626	35.9
759.806	36.65
759.986	37.23
760.166	36.66
760.346	36.04
760.526	36.49
760.706	36.86
760.886	36.71
761.066	36.74
761.246	36.92
761.426	36.9
761.606	36.79
761.786	36.02
761.966	35.31
762.146	34.74
762.326	34.8
762.506	34.37
762.686	33.94
762.866	33.36
763.046	32.74
763.225	32.12
763.405	32.01
763.585	31.8
763.765	32.01
763.945	31.75
764.124	31.85
764.304	31.58
764.484	31.73
764.664	32.09
764.843	32.31
765.023	32.58
765.203	33.11
765.382	33.1
765.562	33.57
765.741	33.76
765.921	34.63
766.101	35.2
766.28	35.65
766.46	35.74
766.639	35.8
766.819	36.1
766.998	36.4
767.178	36.57
767.357	37.22
767.537	37.3
767.716	37.43
767.896	37.38
768.075	36.98
768.254	37.28
768.434	37
768.613	37.82
768.792	38.1
768.972	38.42
769.151	38.75
769.33	38.42
769.51	38.23
769.689	37.87
769.868	38.24
770.047	39.37
770.226	39.63
770.406	39.86
770.585	39.75
770.764	39.92
770.943	39.79
771.122	39.66
771.301	39.92
771.48	41.06
771.66	41.56
771.839	40.67
772.018	40.4
772.197	40.18
772.376	40.16
772.555	40.15
772.734	39.84
772.913	39.87
773.092	39.87
773.271	40.2
773.449	40.02
773.628	40.29
773.807	41.67
773.986	41.86
774.165	42.13
774.344	42.56
774.523	42.65
774.701	42.99
774.88	43.69
775.059	44.35
775.238	44.25
775.417	44.35
775.595	44.97
775.774	44.42
775.953	43.98
776.131	43.71
776.31	43.94
776.489	43.98
776.667	44.18
776.846	44.35
777.025	43.87
777.203	44.22
777.382	43.28
777.56	42.47
777.739	42.35
777.917	42.43
778.096	42.73
778.274	42.36
778.453	42.71
778.631	43.08
778.81	43.26
778.988	43.09
779.166	42.79
779.345	43.9
779.523	44.21
779.702	44.8
779.88	45.47
780.058	45.77
780.237	45.93
780.415	45.26
780.593	44.99
780.771	44.57
780.95	44.38
781.128	45.88
781.306	45.56
781.484	45.6
781.662	44.96
781.841	44.72
782.019	44.32
782.197	44.99
782.375	45.48
782.553	44.99
782.731	45.09
782.909	46.35
783.087	44.43
783.265	44.39
783.443	43.16
783.621	44.05
783.799	43.94
783.977	43.99
784.155	43.58
784.333	43.93
784.511	44.74
784.689	44.74
784.867	44.96
785.045	45.73
785.223	45.61
785.4	46.63
785.578	45.94
785.756	47.24
785.934	47.47
786.112	47.85
786.289	46.65
786.467	46.31
786.645	46.2
786.823	45.59
787	44.52
787.178	44
787.356	43.87
787.533	43.75
787.711	42.59
787.889	41.83
788.066	40.71
788.244	41.01
788.421	40.69
788.599	40.33
788.776	40.55
788.954	41.18
789.131	41.12
789.309	40.83
789.486	41.47
789.664	41.95
789.841	42.26
790.019	42.8
790.196	43.49
790.373	43.06
790.551	43.56
790.728	43.42
790.906	43.37
791.083	43.9
791.26	44.57
791.437	43.93
791.615	42.77
791.792	43.48
791.969	44.26
792.146	44.05
792.324	45.22
792.501	44.59
792.678	45.63
792.855	46.72
793.032	47.67
793.209	48.13
793.387	48
793.564	48.94
793.741	49.46
793.918	48.43
794.095	47.35
794.272	46.95
794.449	47.22
794.626	45.79
794.803	45.04
794.98	44.74
795.157	44.79
795.334	45.06
795.511	44.96
795.688	43.43
795.864	43.75
796.041	44.18
796.218	44.32
796.395	45.27
796.572	44.41
796.749	44.51
796.925	43.97
797.102	43.15
797.279	43.36
797.456	42.35
797.632	42.53
797.809	43.09
797.986	42.95
798.162	43.28
798.339	41.89
798.516	42.96
798.692	43.18
798.869	43.06
799.046	43.23
799.222	43.75
799.399	45.16
799.575	46.29
799.752	46.4
799.928	48.08
800.105	47.76
800.281	47.98
800.458	48.89
800.634	48.56
800.811	48.9
800.987	49.28
801.163	47.67
801.34	47.2
801.516	47.3
801.692	47.7
801.869	46.49
802.045	46.2
802.221	46.94
802.398	47.01
802.574	47.54
802.75	47.62
802.926	48.05
803.103	49.29
803.279	50.48
803.455	50.8
803.631	49.82
803.807	50.61
803.983	51.44
804.16	52.01
804.336	51.42
804.512	51.86
804.688	52.82
804.864	51.85
805.04	53.09
805.216	50.79
805.392	51.3
805.568	53.43
805.744	53.35
805.92	53.94
806.096	53.81
806.272	52.86
806.448	53.56
806.623	52.55
806.799	52.63
806.975	50.79
807.151	52.33
807.327	51.43
807.503	49.82
807.678	50.27
807.854	49.11
808.03	48.87
808.206	49.53
808.381	48.77
808.557	48.73
808.733	49.25
808.908	50.07
809.084	49.06
809.26	48.56
809.435	49.31
809.611	48.2
809.787	48.72
809.962	49.16
810.138	49.09
810.313	48.21
810.489	48.54
810.664	48.21
810.84	48.4
811.015	49.68
811.191	50.42
811.366	48.98
811.542	50.21
811.717	50.6
811.892	50.19
812.068	51.37
812.243	51.23
812.419	52.07
812.594	53.19
812.769	53.89
812.944	53.95
813.12	51.98
813.295	53.66
813.47	52.78
813.645	51.78
813.821	51.42
813.996	50.91
814.171	51.81
814.346	51.06
814.521	50.7
814.697	51.07
814.872	50.28
815.047	50.85
815.222	49.73
815.397	49.87
815.572	50.69
815.747	49.51
815.922	47.81
816.097	47.29
816.272	46.88
816.447	46.23
816.622	46.76
816.797	47.77
816.972	48.98
817.147	49.5
817.322	49.28
817.496	49.31
817.671	51.17
817.846	52.61
818.021	52.1
818.196	51.85
818.371	52.4
818.545	50.64
818.72	50.12
818.895	49.15
819.069	47.4
819.244	45.44
819.419	44.35
819.594	43.4
819.768	41.53
819.943	41.19
820.117	40.12
820.292	38.33
820.467	36.51
820.641	35.04
820.816	33.64
820.99	32.77
821.165	32.06
821.339	30.93
821.514	29.63
821.688	29.22
821.863	28.58
822.037	27.86
822.212	27.22
822.386	26.82
822.56	26.46
822.735	26.47
822.909	26.52
823.084	26.51
823.258	26.44
823.432	26.47
823.606	26.41
823.781	26.49
823.955	26.51
824.129	26.99
824.303	27.61
824.478	27.76
824.652	28.24
824.826	28.25
825	28.92
825.174	29.79
825.348	30.47
825.523	30.46
825.697	30.89
825.871	32.24
826.045	32.5
826.219	32.61
826.393	33.19
826.567	32.62
826.741	32.7
826.915	32.02
827.089	31.46
827.263	31.28
827.437	31.71
827.611	31.29
827.784	31.2
827.958	31.46
828.132	31.38
828.306	31.47
828.48	31.98
828.654	32.51
828.827	33.53
829.001	34.82
829.175	36.88
829.349	38.65
829.522	40.29
829.696	40.82
829.87	41.3
830.044	42.88
830.217	44.18
830.391	44.31
830.565	45.18
830.738	45.19
830.912	45.56
831.085	44.44
831.259	43.49
831.432	44.21
831.606	44.4
831.779	43.99
831.953	44.12
832.126	43.22
832.3	42.83
832.473	41.94
832.647	40.79
832.82	40.05
832.994	38.88
833.167	38.38
833.34	37.52
833.514	37.03
833.687	37.1
833.86	35.21
834.034	35.34
834.207	35.92
834.38	36.02
834.553	36.78
834.727	36.31
834.9	36.32
835.073	36.3
835.246	36.43
835.419	37.38
835.593	38.06
835.766	39.57
835.939	40.08
836.112	40.15
836.285	41.19
836.458	42.5
836.631	43.96
836.804	45.22
836.977	47.42
837.15	49.17
837.323	50.33
837.496	51.25
837.669	51.32
837.842	51.77
838.015	53.99
838.188	54.68
838.361	54.41
838.533	55.92
838.706	56.36
838.879	56.07
839.052	54.43
839.225	54.36
839.398	54.5
839.57	56.83
839.743	59.69
839.916	60.19
840.088	59
840.261	59.24
840.434	57.96
840.607	59.49
840.779	59.05
840.952	61.46
841.124	61.43
841.297	60.26
841.47	59.78
841.642	59.45
841.815	58.35
841.987	59.36
842.16	60.48
842.332	63.13
842.505	64.4
842.677	66.03
842.85	66.11
843.022	67.09
843.194	70.74
843.367	74.74
843.539	73.38
843.712	75.12
843.884	77.8
844.056	80.5
844.229	79.61
844.401	80.38
844.573	83.96
844.745	85.58
844.918	86.95
845.09	84.68
845.262	85.02
845.434	91.88
845.606	92.68
845.779	96.02
845.951	93.98
846.123	94.65
846.295	95.43
846.467	93.56
846.639	94.37
846.811	92.67
846.983	99.44
847.155	96.47
847.327	95.83
847.499	97.1
847.671	97.04
847.843	97.36
848.015	100.3
848.187	98.49
848.359	95.72
848.531	96.81
848.703	95.51
848.875	96.01
849.047	95.39
849.218	88.33
849.39	89.31
849.562	87.43
849.734	87.71
849.905	85.35
850.077	87.03
850.249	92.23
850.421	92.38
850.592	95.74
850.764	97.47
850.936	100.56
851.107	104.43
851.279	100.71
851.451	99.35
851.622	98.47
851.794	102.79
851.965	106.74
852.137	105.73
852.308	106.61
852.48	108.57
852.651	98.27
852.823	99.73
852.994	102.49
853.166	104.1
853.337	106.95
853.509	109.1
853.68	107.42
853.851	100.42
854.023	102.07
854.194	101.22
854.365	95.31
854.537	102.3
854.708	97.73
854.879	96.13
855.05	102.96
855.222	100.59
855.393	100.7
855.564	98.69
855.735	104.4
855.906	103.19
856.078	99.7
856.249	101.65
856.42	99.68
856.591	103.82
856.762	105.43
856.933	101.13
857.104	102.18
857.275	103.5
857.446	102.55
857.617	100.76
857.788	101.1
857.959	101.97
858.13	104.86
858.301	105.86
858.472	100.31
858.643	95.97
858.814	96.69
858.985	99.01
859.155	104.11
859.326	106.56
859.497	105.07
859.668	100.37
859.839	107.67
860.009	108.2
860.18	105.22
860.351	110.01
860.522	116.22
860.692	114.39
860.863	109.33
861.034	107.48
861.204	109.3
861.375	109.57
861.546	112
861.716	108.61
861.887	107.46
862.057	108.63
862.228	107.96
862.398	105.26
862.569	101.87
862.739	108.7
862.91	102.95
863.08	98.2
863.251	94.24
863.421	94.21
863.592	90.88
863.762	94.71
863.932	91.87
864.103	92.05
864.273	93.37
864.443	93.74
864.614	87.51
864.784	88.92
864.954	92.97
865.125	94.73
865.295	96.61
865.465	101.37
865.635	97.95
865.805	102.17
865.976	102.68
866.146	102.57
866.316	106.75
866.486	112.5
866.656	114.23
866.826	117.51
866.996	125.36
867.166	127.45
867.336	128.42
867.506	136.96
867.676	139.73
867.846	141.34
868.016	138.9
868.186	128.63
868.356	123.01
868.526	119.45
868.696	117.22
868.866	113.42
869.036	113.54
869.206	112.39
869.376	99.94
869.545	99.65
869.715	97.07
869.885	98.59
870.055	104.14
870.224	108.58
870.394	105.41
870.564	103.33
870.734	103.44
870.903	99.26
871.073	100.7
871.243	103.64
871.412	98.91
871.582	102.22
871.751	103.61
871.921	104.01
872.091	100.3
872.26	103.96
872.43	106.06
872.599	100.08
872.769	100.58
872.938	99.12
873.108	99.98
873.277	100.76
873.446	96
873.616	93.94
873.785	92.89
873.955	93.1
874.124	95.55
874.293	95.44
874.463	99.01
874.632	100.71
874.801	101.18
874.971	98.69
875.14	102.01
875.309	103.78
875.478	113.66
875.647	109.68
875.817	112.58
875.986	107.58
876.155	107.39
876.324	105.67
876.493	106.48
876.662	102.26
876.831	104.64
877	102.77
877.17	104.61
877.339	96.13
877.508	97.39
877.677	96.85
877.846	96.89
878.015	91.81
878.184	91.56
878.352	89.39
878.521	87.97
878.69	89.07
878.859	88.11
879.028	83.64
879.197	79.39
879.366	79.34
879.534	74.1
879.703	71.63
879.872	66.24
880.041	62.4
880.21	58.26
880.378	54.83
880.547	50.86
880.716	47.77
880.884	45.88
881.053	44.04
881.222	40.85
881.39	38.58
881.559	36.72
881.727	35.35
881.896	34.65
882.065	34.1
882.233	33.54
882.402	32.47
882.57	32.13
882.739	31.9
882.907	31.84
883.076	32.6
883.244	32.88
883.412	33.09
883.581	34.32
883.749	33.98
883.918	34.16
884.086	35.47
884.254	36.6
884.423	37.11
884.591	38.41
884.759	39.42
884.927	40.72
885.096	42.46
885.264	43.87
885.432	45.21
885.6	48.89
885.769	51.87
885.937	52.59
886.105	57.44
886.273	61.54
886.441	65.38
886.609	67.17
886.777	68.7
886.945	70.45
887.113	74.24
887.281	75.9
887.449	76.04
887.617	78.8
887.785	81.23
887.953	78.99
888.121	79.23
888.289	77.52
888.457	82.77
888.625	85.24
888.793	89.71
888.961	93.48
889.129	99.67
889.296	102.66
889.464	100.36
889.632	103.34
889.8	105.71
889.967	110.13
890.135	116.84
