Data from 2938736__Reflection_06.txt Node
Date: Sun Mar 15 18:20:17 EDT 2015
User: robert
Spectrometer: USB4E03002
Autoset integration time: false
Trigger mode: 4
Integration Time (sec): 1.000000E-1
Scans to average: 10
Electric dark correction enabled: false
Nonlinearity correction enabled: false
Boxcar width: 5
Stray light correction enabled: false
XAxis mode: Wavelengths
Stop averaging: false
Number of Pixels in Spectrum: 3648
>>>>>Begin Spectral Data<<<<<
177.575	543.18
177.794	530.28
178.014	446.22
178.233	550
178.452	585.76
178.672	599.12
178.891	613.76
179.11	886.57
179.33	-2928.81
179.549	-3028.07
179.768	-39620
179.987	-6241.94
180.207	-9350
180.426	-1148.23
180.645	-2239.71
180.864	9975
181.084	2223.19
181.303	1884.88
181.522	954.21
181.741	435.08
181.96	613.62
182.179	497.19
182.398	431.67
182.618	588.36
182.837	795.93
183.056	970.06
183.275	1450.4
183.494	4148.94
183.713	7870.83
183.932	-1796.91
184.151	-1259.29
184.37	-1233.82
184.589	-1419.53
184.808	-670.4
185.027	-2466.67
185.246	6084.38
185.465	8977.27
185.684	2780.33
185.903	588.11
186.122	461.16
186.341	274.53
186.56	258.8
186.779	155.18
186.998	151.39
187.216	150.69
187.435	161.88
187.654	150.27
187.873	156.66
188.092	172.99
188.311	193.6
188.53	217.17
188.748	315.64
188.967	232.72
189.186	307.79
189.405	523.23
189.623	665.43
189.842	530.98
190.061	431.38
190.28	400.79
190.498	479.5
190.717	513.51
190.936	428.57
191.154	451.1
191.373	711.31
191.592	896.44
191.81	610.12
192.029	463.82
192.248	518.7
192.466	623.19
192.685	556.15
192.904	577.42
193.122	845.32
193.341	597.18
193.559	392.62
193.778	368.12
193.996	378.1
194.215	322.57
194.433	379.28
194.652	313.32
194.87	362.06
195.089	335.19
195.307	369.48
195.526	368.44
195.744	652.01
195.963	727.1
196.181	3600
196.399	27485.71
196.618	-12325
196.836	-27100
197.055	-2003.41
197.273	-781.37
197.491	-407.18
197.71	-344.44
197.928	-675.8
198.146	-1080.69
198.365	-2725.42
198.583	3087.76
198.801	739.41
199.019	676.65
199.238	656.25
199.456	482.06
199.674	377.7
199.892	365.76
200.111	359.74
200.329	596.1
200.547	680.08
200.765	975
200.983	1263.64
201.202	2977.97
201.42	2500
201.638	-46400
201.856	-2181.58
202.074	-57500
202.292	5341.18
202.51	2005.43
202.728	3612.5
202.946	-3489.8
203.165	-3761.9
203.383	3816.28
203.601	-3317.02
203.819	-1702.11
204.037	-1644.94
204.255	-833.33
204.473	-474.73
204.691	-518.48
204.909	-483.68
205.127	-465.78
205.345	-722.92
205.562	-623.18
205.78	-550.32
205.998	-1065.43
206.216	-1528.07
206.434	-3157.14
206.652	-3282.69
206.87	-2682.14
207.088	-1016.33
207.306	-2214.52
207.523	3240.43
207.741	1713.95
207.959	664.91
208.177	782.69
208.395	763.36
208.612	553.11
208.83	557.14
209.048	406.65
209.266	289.23
209.483	251.36
209.701	297.57
209.919	229.67
210.136	240.78
210.354	296.7
210.572	283.72
210.79	300.4
211.007	324.52
211.225	251.18
211.442	252.78
211.66	249.84
211.878	246.2
212.095	247.72
212.313	287.99
212.53	334.39
212.748	273.37
212.966	256.74
213.183	284.81
213.401	254.07
213.618	281.89
213.836	299.5
214.053	304.92
214.271	340.81
214.488	373.1
214.705	370.84
214.923	395.37
215.14	333.95
215.358	434.2
215.575	286.02
215.793	308.57
216.01	296.5
216.227	304.94
216.445	283.77
216.662	254.49
216.879	230.92
217.097	247.29
217.314	232.79
217.531	217.34
217.749	194.83
217.966	252.01
218.183	251.29
218.4	271.34
218.618	228.63
218.835	238.89
219.052	197.82
219.269	210.35
219.487	188.23
219.704	194.08
219.921	206.53
220.138	182.33
220.355	158.81
220.572	151.42
220.79	144.18
221.007	137.3
221.224	141.95
221.441	130.12
221.658	110.11
221.875	107.28
222.092	95.87
222.309	82.24
222.526	86.81
222.743	87.22
222.96	85.76
223.177	86.48
223.394	98.14
223.611	91.22
223.828	101.38
224.045	100
224.262	101.89
224.479	91.68
224.696	93.84
224.913	90.04
225.13	86.24
225.347	79.46
225.564	74.53
225.781	62.49
225.997	58.05
226.214	47.84
226.431	45.39
226.648	36.69
226.865	31.97
227.082	26.74
227.298	22.14
227.515	19.71
227.732	16.15
227.949	13.69
228.165	12.25
228.382	10.92
228.599	10.88
228.816	9.28
229.032	8.98
229.249	8.92
229.466	10.14
229.682	9.56
229.899	8.48
230.116	8.86
230.332	8.22
230.549	8.86
230.765	9.45
230.982	9.77
231.199	10.29
231.415	9.5
231.632	11.4
231.848	10.67
232.065	11.76
232.281	12.97
232.498	14.32
232.714	15.85
232.931	15.51
233.147	17.79
233.364	18.81
233.58	19.75
233.797	19.97
234.013	18.73
234.23	17.97
234.446	15.7
234.662	15.44
234.879	14.86
235.095	13.17
235.312	14.16
235.528	13.13
235.744	12.9
235.961	11.2
236.177	12.5
236.393	13.01
236.61	13.59
236.826	15.19
237.042	15.77
237.258	16.97
237.475	19.49
237.691	18.36
237.907	18.4
238.123	16.87
238.339	18.99
238.556	20.61
238.772	19.44
238.988	20.23
239.204	19.95
239.42	19.92
239.636	18.33
239.853	16.78
240.069	15.41
240.285	13.14
240.501	12.71
240.717	11.33
240.933	8.47
241.149	8.6
241.365	7
241.581	5.56
241.797	5.37
242.013	4.89
242.229	5
242.445	5.13
242.661	4.68
242.877	3.95
243.093	3.72
243.309	4.47
243.525	4.06
243.741	4.39
243.957	6.07
244.173	5.08
244.388	6.82
244.604	6.74
244.82	7.31
245.036	8.4
245.252	9.08
245.468	8.8
245.683	8.16
245.899	7.68
246.115	6.6
246.331	5.53
246.547	5.5
246.762	4.36
246.978	4.13
247.194	3.74
247.409	3.28
247.625	3.31
247.841	3.11
248.057	3.42
248.272	3.43
248.488	3.72
248.703	3.89
248.919	4.1
249.135	4.25
249.35	5.02
249.566	5.68
249.782	6.5
249.997	6.64
250.213	7.51
250.428	7.72
250.644	8.17
250.859	8.87
251.075	9.26
251.29	9.22
251.506	9.75
251.721	8.48
251.937	8.38
252.152	8.17
252.368	7.99
252.583	7.13
252.798	6.48
253.014	5.86
253.229	6.2
253.445	5.89
253.66	6.16
253.875	6.09
254.091	6.96
254.306	7.14
254.521	8.01
254.737	8.51
254.952	9.25
255.167	9.84
255.383	11.07
255.598	11.39
255.813	10.95
256.028	10.93
256.244	11.47
256.459	11.69
256.674	11.39
256.889	11.02
257.104	11.1
257.32	11.18
257.535	10.55
257.75	9.64
257.965	8.45
258.18	7.57
258.395	6.89
258.61	5.82
258.826	4.69
259.041	4.11
259.256	4.04
259.471	3.31
259.686	2.88
259.901	2.77
260.116	2.76
260.331	2.64
260.546	2.87
260.761	2.5
260.976	2.51
261.191	2.93
261.406	3.27
261.621	3.26
261.836	3.4
262.05	3.82
262.265	4.49
262.48	4.54
262.695	4.22
262.91	4.69
263.125	5.31
263.34	6.14
263.555	6.55
263.769	5.9
263.984	5.41
264.199	5.44
264.414	4.99
264.629	4.65
264.843	5.22
265.058	6.09
265.273	5.29
265.488	5.49
265.702	4.63
265.917	4.02
266.132	4.91
266.346	4.47
266.561	5.02
266.776	5.29
266.99	5.28
267.205	5.05
267.42	5.03
267.634	4.98
267.849	4.53
268.063	4.75
268.278	5.02
268.492	4.12
268.707	4.99
268.922	5.1
269.136	5.04
269.351	5.09
269.565	4.83
269.78	4.76
269.994	5.14
270.209	5.97
270.423	5.7
270.637	5.49
270.852	5.8
271.066	5.62
271.281	5.07
271.495	4.88
271.709	4.31
271.924	4.58
272.138	4.41
272.353	4.27
272.567	3.84
272.781	4.04
272.996	4.1
273.21	4.08
273.424	3.98
273.638	4.03
273.853	3.9
274.067	4.49
274.281	4.32
274.495	4.71
274.71	5.15
274.924	5.17
275.138	5.33
275.352	5.61
275.566	5.83
275.781	6.27
275.995	6.48
276.209	6.73
276.423	6.6
276.637	6.93
276.851	6.91
277.065	6.71
277.279	6.78
277.493	6.69
277.707	6.28
277.921	5.97
278.135	5.35
278.349	5.42
278.563	5.61
278.777	5.28
278.991	4.87
279.205	4.66
279.419	4.51
279.633	4.72
279.847	4.37
280.061	4.11
280.275	4.64
280.489	4.83
280.703	4.29
280.917	4.14
281.131	4.01
281.344	4.28
281.558	4.2
281.772	4.12
281.986	3.9
282.2	3.95
282.414	4.1
282.627	3.88
282.841	3.4
283.055	3.52
283.269	3.29
283.482	3.82
283.696	3.57
283.91	3.7
284.123	3.04
284.337	2.87
284.551	3.07
284.764	3.11
284.978	3.11
285.192	3.37
285.405	3.41
285.619	3.43
285.833	3.07
286.046	2.96
286.26	2.88
286.473	3.06
286.687	3.11
286.9	3.39
287.114	3.49
287.327	3.43
287.541	3.09
287.754	3.1
287.968	3.34
288.181	3.37
288.395	3.72
288.608	3.08
288.822	3.38
289.035	3.59
289.248	3.18
289.462	3.12
289.675	3.08
289.889	3.51
290.102	3.43
290.315	3.06
290.529	3.15
290.742	3.1
290.955	3.62
291.169	3.6
291.382	3.52
291.595	3.67
291.808	3.64
292.022	3.69
292.235	3.5
292.448	4.17
292.661	4.44
292.875	4.23
293.088	3.67
293.301	3.81
293.514	3.92
293.727	3.98
293.94	3.51
294.153	3.37
294.367	3.07
294.58	2.75
294.793	2.1
295.006	2.14
295.219	2.48
295.432	2.94
295.645	2.96
295.858	2.78
296.071	2.77
296.284	2.91
296.497	3.44
296.71	3.55
296.923	3.84
297.136	4.04
297.349	4.03
297.562	3.92
297.775	3.78
297.988	3.93
298.201	3.93
298.414	3.95
298.626	4.02
298.839	3.79
299.052	3.94
299.265	3.76
299.478	3.82
299.691	3.78
299.903	3.69
300.116	3.69
300.329	3.64
300.542	3.86
300.755	3.55
300.967	3.66
301.18	3.36
301.393	2.95
301.605	3.29
301.818	2.86
302.031	2.91
302.243	2.99
302.456	3.47
302.669	3.48
302.881	3.45
303.094	3.82
303.307	3.5
303.519	3.81
303.732	4.04
303.944	3.85
304.157	4.5
304.37	4.54
304.582	4.54
304.795	4.07
305.007	3.81
305.22	3.82
305.432	3.61
305.645	3.8
305.857	3.7
306.069	3.84
306.282	3.93
306.494	3.76
306.707	3.78
306.919	3.52
307.132	3.39
307.344	3.46
307.556	3.68
307.769	3.79
307.981	3.79
308.193	4.05
308.406	3.8
308.618	4.14
308.83	3.96
309.043	4.19
309.255	4.2
309.467	4.24
309.679	4.07
309.892	4.14
310.104	3.87
310.316	3.96
310.528	3.71
310.74	3.81
310.953	3.55
311.165	3.76
311.377	3.41
311.589	3.61
311.801	3.88
312.013	4.05
312.225	3.81
312.437	4.17
312.649	4.09
312.862	4.27
313.074	4.06
313.286	3.92
313.498	3.63
313.71	3.96
313.922	4.02
314.134	3.6
314.346	3.37
314.558	3.16
314.77	3.36
314.982	3.29
315.193	2.75
315.405	3.53
315.617	3.73
315.829	3.71
316.041	3.33
316.253	3.6
316.465	4.08
316.677	4.59
316.888	4.84
317.1	4.63
317.312	4.97
317.524	5.26
317.736	4.9
317.947	5.1
318.159	5.56
318.371	6.13
318.583	5.85
318.794	5.6
319.006	5.43
319.218	5.97
319.43	6.21
319.641	6.32
319.853	6.58
320.064	6.9
320.276	7.12
320.488	7.04
320.699	6.66
320.911	6.64
321.123	6.7
321.334	6.83
321.546	6.29
321.757	6.05
321.969	6.18
322.18	6.55
322.392	6.57
322.603	6.33
322.815	6.82
323.026	6.9
323.238	6.95
323.449	6.74
323.661	6.79
323.872	6.53
324.083	6.82
324.295	6.39
324.506	5.86
324.718	5.73
324.929	5.64
325.14	5
325.352	5
325.563	5.3
325.774	5.56
325.986	5.67
326.197	6.23
326.408	5.86
326.62	6.1
326.831	6.48
327.042	6.58
327.253	6.42
327.464	6.76
327.676	7.18
327.887	7.24
328.098	7.24
328.309	7.15
328.52	6.91
328.732	7.52
328.943	7.78
329.154	8.14
329.365	7.89
329.576	7.94
329.787	8.38
329.998	8.35
330.209	8.16
330.42	8.21
330.631	8.39
330.842	8.92
331.053	9.02
331.264	9.34
331.475	9.5
331.686	10.08
331.897	10.03
332.108	9.86
332.319	9.95
332.53	10.08
332.741	10.28
332.952	10.75
333.163	10.62
333.374	10.71
333.585	10.82
333.795	10.48
334.006	10.75
334.217	11.78
334.428	11.88
334.639	11.96
334.849	11.93
335.06	11.98
335.271	11.64
335.482	11.72
335.692	11.6
335.903	11.66
336.114	11.56
336.325	11.28
336.535	10.74
336.746	10.74
336.957	10.73
337.167	10.94
337.378	10.9
337.589	11.02
337.799	10.66
338.01	10.68
338.22	10.55
338.431	10.6
338.642	10.52
338.852	10.81
339.063	10.73
339.273	10.64
339.484	10.64
339.694	11.14
339.905	10.92
340.115	10.99
340.326	10.53
340.536	10.34
340.746	10.43
340.957	10.27
341.167	10.03
341.378	9.82
341.588	9.53
341.799	9.65
342.009	9.4
342.219	9.7
342.43	9.79
342.64	9.46
342.85	9.27
343.061	9.25
343.271	9.61
343.481	9.7
343.691	9.87
343.902	10.15
344.112	10.21
344.322	10.12
344.532	9.91
344.743	9.95
344.953	10.3
345.163	10.54
345.373	10.49
345.583	10.16
345.793	10.22
346.004	10.09
346.214	9.93
346.424	9.61
346.634	9.24
346.844	9.4
347.054	9.29
347.264	9.23
347.474	8.85
347.684	9.02
347.894	9.09
348.104	8.92
348.314	8.94
348.524	9.17
348.734	9.08
348.944	9.15
349.154	9.21
349.364	8.99
349.574	9.3
349.784	9.37
349.994	9.15
350.204	9.09
350.413	8.97
350.623	8.99
350.833	9.01
351.043	9.2
351.253	9.25
351.463	9.01
351.672	9.4
351.882	9.52
352.092	9.36
352.302	9.28
352.511	9.66
352.721	9.63
352.931	9.59
353.141	9.42
353.35	9.5
353.56	9.73
353.77	9.35
353.979	9.38
354.189	9.19
354.399	9.41
354.608	9.6
354.818	9.72
355.027	9.96
355.237	10.21
355.447	10.1
355.656	9.67
355.866	9.34
356.075	9.79
356.285	9.53
356.494	9.42
356.704	9.36
356.913	9.22
357.123	9.01
357.332	8.79
357.542	8.81
357.751	8.95
357.96	9.24
358.17	9.36
358.379	9.26
358.589	9.29
358.798	9.17
359.007	9.51
359.217	9.56
359.426	9.43
359.635	9.69
359.845	9.33
360.054	9.16
360.263	9.13
360.472	9.23
360.682	9.24
360.891	9.28
361.1	9.19
361.309	8.81
361.519	8.73
361.728	8.59
361.937	8.47
362.146	8.48
362.355	8.47
362.564	8.43
362.774	8.44
362.983	8.41
363.192	8.52
363.401	8.96
363.61	9.1
363.819	9.38
364.028	9.67
364.237	9.55
364.446	9.62
364.655	9.99
364.864	10.18
365.073	10.15
365.282	10.08
365.491	9.84
365.7	9.72
365.909	9.6
366.118	9.31
366.327	9.2
366.536	9.31
366.745	9.36
366.954	8.97
367.162	8.74
367.371	8.86
367.58	9.2
367.789	9.45
367.998	9.61
368.207	9.88
368.415	10.04
368.624	10.19
368.833	10.25
369.042	10.27
369.25	10.46
369.459	10.45
369.668	10.38
369.877	9.81
370.085	9.74
370.294	9.28
370.503	8.99
370.711	9
370.92	8.85
371.129	8.88
371.337	8.85
371.546	8.66
371.754	8.87
371.963	8.7
372.171	8.88
372.38	8.84
372.589	8.88
372.797	9.3
373.006	9.19
373.214	9.32
373.423	9.1
373.631	9.04
373.84	9.3
374.048	9.16
374.256	9.24
374.465	9.21
374.673	9.23
374.882	9.33
375.09	9.03
375.298	9.2
375.507	8.99
375.715	9.21
375.923	9.33
376.132	9.31
376.34	9.14
376.548	9.07
376.757	9.09
376.965	9.03
377.173	8.94
377.381	9.06
377.59	8.79
377.798	8.79
378.006	8.74
378.214	8.86
378.423	8.57
378.631	8.69
378.839	8.91
379.047	8.99
379.255	9.06
379.463	9.14
379.671	9.04
379.879	9.18
380.088	9.37
380.296	9.34
380.504	9.18
380.712	9.38
380.92	9.05
381.128	8.9
381.336	8.64
381.544	8.56
381.752	8.39
381.96	8.37
382.168	8.45
382.376	8.42
382.584	8.47
382.791	8.42
382.999	8.6
383.207	8.76
383.415	8.85
383.623	9.1
383.831	8.92
384.039	9.08
384.247	9.26
384.454	9.21
384.662	9.07
384.87	9.07
385.078	9.13
385.285	8.88
385.493	9.37
385.701	8.98
385.909	8.93
386.116	9.28
386.324	9.43
386.532	9.32
386.739	9.3
386.947	9.35
387.155	9.26
387.362	9.16
387.57	9.28
387.778	9.23
387.985	9.43
388.193	9.66
388.4	9.59
388.608	9.5
388.816	9.42
389.023	9.38
389.231	9.11
389.438	8.96
389.646	9.05
389.853	8.83
390.061	8.59
390.268	8.66
390.475	8.37
390.683	8.54
390.89	8.41
391.098	8.38
391.305	8.34
391.512	8.55
391.72	8.65
391.927	8.66
392.135	8.64
392.342	8.43
392.549	8.33
392.756	8.56
392.964	8.32
393.171	8.61
393.378	8.63
393.586	8.67
393.793	8.38
394	8.46
394.207	8.37
394.414	8.57
394.622	8.79
394.829	8.74
395.036	8.46
395.243	8.41
395.45	8.23
395.657	8.16
395.864	8.1
396.072	8.54
396.279	8.51
396.486	8.45
396.693	8.46
396.9	8.39
397.107	8.33
397.314	8.45
397.521	8.65
397.728	8.73
397.935	8.85
398.142	8.92
398.349	8.53
398.556	8.52
398.763	8.77
398.97	8.84
399.177	8.86
399.383	9
399.59	9
399.797	9.01
400.004	8.98
400.211	8.9
400.418	8.79
400.625	9.24
400.831	9.11
401.038	8.98
401.245	9.01
401.452	9.06
401.658	9.12
401.865	9.32
402.072	9.18
402.279	9.13
402.485	9.26
402.692	9.47
402.899	9.16
403.105	9.33
403.312	9.32
403.519	9.27
403.725	9.26
403.932	9.12
404.138	8.93
404.345	8.81
404.552	8.71
404.758	8.66
404.965	8.39
405.171	8.39
405.378	8.49
405.584	8.39
405.791	8.24
405.997	8.29
406.204	8.36
406.41	8.46
406.617	8.8
406.823	8.79
407.029	8.85
407.236	9.07
407.442	9.28
407.649	9.23
407.855	9.3
408.061	9.42
408.268	9.25
408.474	9.29
408.68	9.22
408.887	9.1
409.093	9.14
409.299	9.06
409.505	8.99
409.712	8.99
409.918	8.86
410.124	8.85
410.33	8.75
410.537	8.87
410.743	9.02
410.949	9.21
411.155	9.08
411.361	9.02
411.567	8.97
411.773	9.15
411.98	9.07
412.186	9.26
412.392	9.27
412.598	9.22
412.804	9.42
413.01	9.35
413.216	9.23
413.422	9.33
413.628	9.42
413.834	9.5
414.04	9.45
414.246	9.61
414.452	9.37
414.658	9.49
414.864	9.55
415.07	9.2
415.275	9.12
415.481	9.02
415.687	8.88
415.893	8.87
416.099	8.75
416.305	8.75
416.511	8.51
416.716	8.57
416.922	8.42
417.128	8.37
417.334	8.44
417.539	8.4
417.745	8.4
417.951	8.39
418.157	8.34
418.362	8.33
418.568	8.27
418.774	8.3
418.979	8.23
419.185	8.2
419.391	8.22
419.596	8.24
419.802	8.15
420.008	8.03
420.213	7.52
420.419	7.48
420.624	7.5
420.83	7.45
421.035	7.4
421.241	7.42
421.446	7.38
421.652	7.34
421.857	7.33
422.063	7.41
422.268	7.44
422.474	7.9
422.679	7.97
422.885	7.91
423.09	7.88
423.295	7.97
423.501	7.97
423.706	8.09
423.911	8.11
424.117	8.09
424.322	8.11
424.527	8.14
424.733	8.19
424.938	8.16
425.143	8.28
425.349	8.36
425.554	8.33
425.759	8.47
425.964	8.42
426.169	8.47
426.375	8.55
426.58	8.56
426.785	8.55
426.99	8.61
427.195	8.64
427.4	8.74
427.605	8.71
427.811	8.74
428.016	8.58
428.221	8.66
428.426	8.71
428.631	8.67
428.836	8.76
429.041	8.81
429.246	8.74
429.451	8.83
429.656	8.63
429.861	8.62
430.066	8.66
430.271	8.68
430.476	8.58
430.681	8.43
430.886	8.36
431.09	8.29
431.295	8.29
431.5	8.36
431.705	8.32
431.91	8.39
432.115	8.4
432.32	8.27
432.524	8.22
432.729	8.36
432.934	8.43
433.139	8.43
433.343	8.47
433.548	8.4
433.753	8.4
433.958	8.47
434.162	8.46
434.367	8.56
434.572	8.68
434.776	8.78
434.981	8.69
435.186	8.78
435.39	8.78
435.595	8.86
435.799	8.91
436.004	8.78
436.209	8.67
436.413	8.71
436.618	8.6
436.822	8.6
437.027	8.58
437.231	8.62
437.436	8.41
437.64	8.49
437.845	8.4
438.049	8.34
438.253	8.41
438.458	8.4
438.662	8.28
438.867	8.33
439.071	8.25
439.275	8.25
439.48	8.22
439.684	8.38
439.888	8.35
440.093	8.28
440.297	8.31
440.501	8.38
440.706	8.47
440.91	8.53
441.114	8.55
441.318	8.64
441.523	8.71
441.727	8.74
441.931	8.69
442.135	8.69
442.339	8.73
442.543	8.82
442.748	8.69
442.952	8.72
443.156	8.67
443.36	8.59
443.564	8.55
443.768	8.51
443.972	8.39
444.176	8.34
444.38	8.35
444.584	8.37
444.788	8.35
444.992	8.39
445.196	8.19
445.4	8.29
445.604	8.31
445.808	8.28
446.012	8.15
446.216	8.16
446.42	8.2
446.624	8.25
446.828	8.22
447.032	8.2
447.235	8.26
447.439	8.36
447.643	8.31
447.847	8.35
448.051	8.39
448.254	8.48
448.458	8.57
448.662	8.59
448.866	8.45
449.069	8.5
449.273	8.5
449.477	8.5
449.681	8.46
449.884	8.58
450.088	8.57
450.292	8.63
450.495	8.69
450.699	8.7
450.902	8.61
451.106	8.73
451.31	8.62
451.513	8.68
451.717	8.65
451.92	8.72
452.124	8.61
452.327	8.77
452.531	8.71
452.734	8.67
452.938	8.72
453.141	8.77
453.345	8.72
453.548	8.79
453.752	8.89
453.955	8.92
454.158	8.95
454.362	9.04
454.565	8.93
454.769	9.03
454.972	9.08
455.175	9.05
455.379	9.09
455.582	9.19
455.785	9.28
455.988	9.2
456.192	9.04
456.395	9.08
456.598	8.98
456.801	8.82
457.005	8.7
457.208	8.56
457.411	8.5
457.614	8.57
457.817	8.46
458.021	8.27
458.224	8.17
458.427	8.17
458.63	8.1
458.833	8.06
459.036	8.11
459.239	8.01
459.442	8.05
459.645	8.09
459.848	8.01
460.051	7.95
460.254	8.05
460.457	8.11
460.66	8.2
460.863	8.28
461.066	8.31
461.269	8.3
461.472	8.45
461.675	8.5
461.878	8.59
462.081	8.59
462.284	8.71
462.486	8.78
462.689	8.85
462.892	8.77
463.095	8.75
463.298	8.74
463.5	8.79
463.703	8.71
463.906	8.69
464.109	8.61
464.311	8.85
464.514	8.95
464.717	8.99
464.92	8.91
465.122	9.1
465.325	9.23
465.528	9.24
465.73	9.33
465.933	9.47
466.135	9.5
466.338	9.48
466.541	9.28
466.743	9.22
466.946	9.12
467.148	9.07
467.351	8.96
467.553	8.83
467.756	8.83
467.958	8.83
468.161	8.75
468.363	8.81
468.566	8.84
468.768	8.89
468.971	8.87
469.173	9.01
469.375	9.11
469.578	9.12
469.78	9.05
469.983	9.11
470.185	9.09
470.387	9.06
470.59	9.06
470.792	9.05
470.994	9.04
471.196	9.21
471.399	9
471.601	9.03
471.803	9.07
472.005	9.19
472.208	9.24
472.41	9.23
472.612	9.21
472.814	9.24
473.016	9.29
473.218	9.34
473.421	9.24
473.623	9.34
473.825	9.3
474.027	9.32
474.229	9.21
474.431	9.16
474.633	9.14
474.835	9.18
475.037	9.09
475.239	8.96
475.441	8.88
475.643	8.87
475.845	8.81
476.047	8.68
476.249	8.63
476.451	8.59
476.653	8.56
476.855	8.49
477.057	8.6
477.258	8.57
477.46	8.59
477.662	8.64
477.864	8.54
478.066	8.56
478.268	8.68
478.469	8.79
478.671	8.79
478.873	8.82
479.075	8.82
479.276	8.62
479.478	8.6
479.68	8.62
479.882	8.56
480.083	8.6
480.285	8.61
480.487	8.56
480.688	8.41
480.89	8.47
481.091	8.43
481.293	8.47
481.495	8.46
481.696	8.39
481.898	8.33
482.099	8.25
482.301	8.24
482.502	8.15
482.704	8.06
482.905	8.02
483.107	7.95
483.308	7.92
483.51	7.89
483.711	7.9
483.913	7.88
484.114	7.89
484.315	7.93
484.517	7.94
484.718	8.02
484.92	8.09
485.121	8.15
485.322	8.21
485.524	8.23
485.725	8.27
485.926	8.27
486.127	8.33
486.329	8.32
486.53	8.31
486.731	8.29
486.932	8.21
487.134	8.18
487.335	8.13
487.536	8.11
487.737	8.14
487.938	8.14
488.139	8.16
488.341	8.16
488.542	8.18
488.743	8.24
488.944	8.26
489.145	8.3
489.346	8.39
489.547	8.44
489.748	8.47
489.949	8.5
490.15	8.47
490.351	8.45
490.552	8.41
490.753	8.4
490.954	8.3
491.155	8.29
491.356	8.25
491.557	8.22
491.758	8.23
491.959	8.24
492.159	8.23
492.36	8.31
492.561	8.36
492.762	8.46
492.963	8.49
493.164	8.53
493.364	8.57
493.565	8.7
493.766	8.78
493.967	8.76
494.167	8.84
494.368	8.9
494.569	8.91
494.769	8.99
494.97	8.98
495.171	8.98
495.371	8.95
495.572	9.01
495.773	8.95
495.973	8.84
496.174	8.95
496.375	8.87
496.575	8.77
496.776	8.76
496.976	8.7
497.177	8.65
497.377	8.62
497.578	8.75
497.778	8.68
497.979	8.7
498.179	8.71
498.38	8.71
498.58	8.67
498.78	8.67
498.981	8.69
499.181	8.73
499.382	8.76
499.582	8.84
499.782	8.84
499.983	8.87
500.183	8.95
500.383	8.94
500.584	8.92
500.784	9.07
500.984	9.02
501.184	8.96
501.385	8.91
501.585	8.96
501.785	8.99
501.985	9.04
502.185	8.95
502.386	8.97
502.586	9.03
502.786	9.09
502.986	9.01
503.186	9.13
503.386	9.24
503.586	9.25
503.786	9.23
503.987	9.24
504.187	9.15
504.387	9.29
504.587	9.18
504.787	9.18
504.987	9.19
505.187	9.19
505.387	9.16
505.587	9.18
505.786	9.24
505.986	9.26
506.186	9.32
506.386	9.41
506.586	9.42
506.786	9.43
506.986	9.31
507.186	9.3
507.386	9.28
507.585	9.39
507.785	9.21
507.985	9.14
508.185	9.12
508.384	9.09
508.584	8.98
508.784	8.98
508.984	9
509.183	9.06
509.383	9.03
509.583	9.08
509.782	9.02
509.982	9.09
510.182	9.11
510.381	9.09
510.581	9.13
510.781	9.26
510.98	9.28
511.18	9.26
511.379	9.37
511.579	9.37
511.778	9.4
511.978	9.47
512.177	9.52
512.377	9.48
512.576	9.52
512.776	9.38
512.975	9.3
513.175	9.28
513.374	9.31
513.573	9.33
513.773	9.36
513.972	9.4
514.172	9.23
514.371	9.32
514.57	9.36
514.77	9.45
514.969	9.56
515.168	9.61
515.367	9.62
515.567	9.62
515.766	9.57
515.965	9.59
516.164	9.52
516.364	9.63
516.563	9.47
516.762	9.47
516.961	9.47
517.16	9.42
517.359	9.39
517.559	9.42
517.758	9.4
517.957	9.33
518.156	9.32
518.355	9.34
518.554	9.42
518.753	9.49
518.952	9.53
519.151	9.45
519.35	9.48
519.549	9.51
519.748	9.43
519.947	9.49
520.146	9.57
520.345	9.57
520.544	9.48
520.743	9.46
520.942	9.49
521.141	9.47
521.339	9.62
521.538	9.65
521.737	9.7
521.936	9.82
522.135	9.82
522.333	9.87
522.532	9.95
522.731	10.05
522.93	10.08
523.129	10.11
523.327	10.11
523.526	9.97
523.725	9.88
523.923	9.82
524.122	9.77
524.321	9.82
524.519	9.78
524.718	9.79
524.917	9.76
525.115	9.63
525.314	9.53
525.512	9.51
525.711	9.52
525.909	9.61
526.108	9.58
526.306	9.54
526.505	9.43
526.703	9.36
526.902	9.28
527.1	9.23
527.299	9.22
527.497	9.21
527.696	9.17
527.894	9.19
528.092	9.12
528.291	9.11
528.489	9.12
528.688	9.13
528.886	9.18
529.084	9.23
529.283	9.28
529.481	9.34
529.679	9.42
529.877	9.51
530.076	9.58
530.274	9.66
530.472	9.76
530.67	9.82
530.869	9.92
531.067	9.95
531.265	9.93
531.463	9.93
531.661	9.85
531.859	9.76
532.057	9.73
532.255	9.67
532.454	9.68
532.652	9.6
532.85	9.52
533.048	9.51
533.246	9.51
533.444	9.54
533.642	9.56
533.84	9.66
534.038	9.74
534.236	9.79
534.434	9.81
534.632	9.8
534.83	9.82
535.027	9.94
535.225	9.98
535.423	9.98
535.621	9.99
535.819	10.05
536.017	10.03
536.215	10.05
536.412	10.04
536.61	10.05
536.808	10.1
537.006	10.2
537.203	10.2
537.401	10.25
537.599	10.31
537.797	10.37
537.994	10.29
538.192	10.37
538.39	10.29
538.587	10.33
538.785	10.37
538.983	10.32
539.18	10.31
539.378	10.27
539.575	10.17
539.773	10.16
539.97	10.09
540.168	10.18
540.366	10.12
540.563	10.08
540.761	10.05
540.958	10.03
541.155	10.01
541.353	9.94
541.55	9.97
541.748	10.01
541.945	10
542.143	10.05
542.34	10.05
542.537	10.06
542.735	10.17
542.932	10.19
543.129	10.23
543.327	10.32
543.524	10.51
543.721	10.62
543.919	10.73
544.116	10.84
544.313	10.92
544.51	10.97
544.708	11.06
544.905	11.13
545.102	11.25
545.299	11.28
545.496	11.33
545.693	11.28
545.891	11.26
546.088	11.19
546.285	11.21
546.482	11.26
546.679	11.25
546.876	11.26
547.073	11.31
547.27	11.34
547.467	11.4
547.664	11.41
547.861	11.4
548.058	11.43
548.255	11.52
548.452	11.46
548.649	11.43
548.846	11.49
549.043	11.53
549.24	11.48
549.437	11.45
549.633	11.46
549.83	11.46
550.027	11.45
550.224	11.24
550.421	11.19
550.618	11.28
550.814	11.21
551.011	11.19
551.208	11.22
551.405	11.1
551.601	11
551.798	10.96
551.995	10.98
552.191	10.94
552.388	11.07
552.585	11.05
552.781	10.99
552.978	10.9
553.175	11.01
553.371	10.97
553.568	11.06
553.764	11.17
553.961	11.17
554.157	11.2
554.354	11.27
554.55	11.37
554.747	11.35
554.943	11.39
555.14	11.45
555.336	11.36
555.533	11.28
555.729	11.15
555.926	11.01
556.122	10.98
556.318	10.89
556.515	10.88
556.711	10.78
556.907	10.84
557.104	10.86
557.3	10.93
557.496	10.81
557.693	10.9
557.889	10.95
558.085	10.94
558.281	11.17
558.478	11.34
558.674	11.37
558.87	11.37
559.066	11.38
559.262	11.32
559.459	11.24
559.655	11.27
559.851	11.25
560.047	11.25
560.243	11.35
560.439	11.2
560.635	11.06
560.831	11.08
561.027	11.16
561.223	11.04
561.419	11.1
561.615	11.24
561.811	11.4
562.007	11.4
562.203	11.45
562.399	11.47
562.595	11.5
562.791	11.56
562.987	11.51
563.183	11.47
563.379	11.55
563.575	11.5
563.771	11.36
563.966	11.25
564.162	11.22
564.358	11.24
564.554	11.14
564.75	11
564.945	10.9
565.141	10.81
565.337	10.76
565.533	10.71
565.728	10.84
565.924	10.78
566.12	10.72
566.315	10.75
566.511	10.71
566.707	10.7
566.902	10.79
567.098	10.88
567.293	11.04
567.489	11.06
567.684	11.2
567.88	11.11
568.076	11.25
568.271	11.34
568.467	11.36
568.662	11.38
568.858	11.42
569.053	11.47
569.248	11.43
569.444	11.25
569.639	11.17
569.835	11.05
570.03	11.08
570.225	10.91
570.421	10.86
570.616	10.82
570.812	10.79
571.007	10.89
571.202	10.81
571.397	10.66
571.593	10.74
571.788	10.8
571.983	10.82
572.178	10.79
572.374	10.8
572.569	10.76
572.764	10.77
572.959	10.74
573.154	10.62
573.35	10.55
573.545	10.64
573.74	10.56
573.935	10.54
574.13	10.48
574.325	10.41
574.52	10.46
574.715	10.4
574.91	10.3
575.105	10.35
575.3	10.45
575.495	10.5
575.69	10.58
575.885	10.66
576.08	10.72
576.275	10.85
576.47	10.87
576.665	10.82
576.86	10.89
577.055	10.97
577.25	11.08
577.444	11.23
577.639	11.26
577.834	11.38
578.029	11.44
578.224	11.39
578.418	11.47
578.613	11.47
578.808	11.76
579.003	12.03
579.197	12.21
579.392	12.18
579.587	12.02
579.781	12.14
579.976	12.04
580.171	12.1
580.365	12.15
580.56	11.92
580.755	12
580.949	11.88
581.144	11.66
581.338	11.61
581.533	11.61
581.727	11.75
581.922	11.66
582.116	11.72
582.311	11.64
582.505	11.7
582.7	11.89
582.894	11.91
583.089	11.84
583.283	12.12
583.478	11.97
583.672	12.16
583.866	11.99
584.061	12.07
584.255	12.02
584.449	12.06
584.644	12.1
584.838	12.04
585.032	12.18
585.226	12.15
585.421	11.93
585.615	12.11
585.809	12.01
586.003	12.07
586.198	12.02
586.392	12.14
586.586	12.19
586.78	12.38
586.974	12.38
587.168	12.38
587.363	12.48
587.557	12.45
587.751	12.39
587.945	12.32
588.139	12.37
588.333	12.37
588.527	12.08
588.721	11.93
588.915	11.69
589.109	11.66
589.303	11.52
589.497	11.43
589.691	11.43
589.885	11.43
590.079	11.39
590.273	11.46
590.466	11.56
590.66	11.72
590.854	11.83
591.048	11.85
591.242	11.94
591.436	12.11
591.629	12.23
591.823	12.33
592.017	12.41
592.211	12.51
592.404	12.33
592.598	12.24
592.792	12.27
592.986	12.37
593.179	12.42
593.373	12.34
593.567	12.2
593.76	12.25
593.954	12.09
594.147	12.07
594.341	12.05
594.535	12.12
594.728	11.98
594.922	12.02
595.115	12
595.309	11.95
595.502	12
595.696	11.88
595.889	11.71
596.083	11.85
596.276	11.78
596.47	11.76
596.663	11.64
596.856	11.73
597.05	11.83
597.243	11.83
597.437	11.86
597.63	11.87
597.823	12.07
598.017	12.25
598.21	12.2
598.403	12.15
598.596	12.26
598.79	12.44
598.983	12.54
599.176	12.44
599.369	12.31
599.563	12.21
599.756	12.3
599.949	12.35
600.142	12.34
600.335	12.38
600.528	12.47
600.722	12.29
600.915	12.31
601.108	12.35
601.301	12.28
601.494	12.4
601.687	12.39
601.88	12.18
602.073	11.98
602.266	11.85
602.459	11.68
602.652	11.65
602.845	11.53
603.038	11.33
603.231	11.05
603.424	11.01
603.617	10.84
603.809	10.78
604.002	10.78
604.195	10.89
604.388	10.94
604.581	11.07
604.774	11.06
604.966	11.19
605.159	11.31
605.352	11.48
605.545	11.59
605.737	11.77
605.93	12.08
606.123	12.13
606.316	12.11
606.508	12.3
606.701	12.37
606.894	12.41
607.086	12.51
607.279	12.54
607.471	12.46
607.664	12.55
607.857	12.6
608.049	12.45
608.242	12.61
608.434	12.78
608.627	12.82
608.819	12.78
609.012	12.95
609.204	13.08
609.397	13.44
609.589	14.01
609.782	14.32
609.974	14.78
610.166	15.18
610.359	15.61
610.551	15.91
610.743	16.27
610.936	16.82
611.128	17.16
611.32	17.56
611.513	17.85
611.705	17.92
611.897	17.99
612.09	18
612.282	17.99
612.474	17.8
612.666	17.52
612.858	17.29
613.051	17.15
613.243	17
613.435	16.6
613.627	16.15
613.819	16
614.011	15.87
614.203	15.73
614.395	15.41
614.588	15.26
614.78	15.28
614.972	15.16
615.164	14.98
615.356	14.83
615.548	14.97
615.74	15.09
615.932	14.83
616.124	14.6
616.315	14.28
616.507	14.03
616.699	13.99
616.891	13.74
617.083	13.71
617.275	13.59
617.467	13.34
617.659	13.42
617.85	13.18
618.042	13.22
618.234	13.26
618.426	13.04
618.618	13.27
618.809	13.06
619.001	13.25
619.193	13.1
619.384	12.98
619.576	13.2
619.768	12.83
619.959	12.91
620.151	12.8
620.343	12.62
620.534	12.81
620.726	13.02
620.917	12.96
621.109	12.92
621.301	12.98
621.492	13.13
621.684	13.22
621.875	13.19
622.067	12.95
622.258	12.99
622.45	13.2
622.641	13.18
622.832	12.88
623.024	13.23
623.215	13.33
623.407	13.24
623.598	13.22
623.789	13.07
623.981	13.07
624.172	13.36
624.363	13.45
624.555	13.39
624.746	13.42
624.937	13.68
625.129	13.58
625.32	13.54
625.511	13.63
625.702	13.64
625.893	13.6
626.085	13.74
626.276	13.62
626.467	13.59
626.658	13.5
626.849	13.41
627.04	13.26
627.231	13.24
627.422	13.23
627.614	13.24
627.805	13.11
627.996	13.09
628.187	13.15
628.378	13.07
628.569	13.12
628.76	13.32
628.951	13.53
629.142	13.66
629.332	13.64
629.523	13.65
629.714	13.6
629.905	13.72
630.096	13.78
630.287	13.58
630.478	13.67
630.669	13.57
630.859	13.44
631.05	13.35
631.241	13.27
631.432	13.39
631.623	13.26
631.813	13.32
632.004	13.26
632.195	13
632.385	13
632.576	12.98
632.767	12.96
632.957	12.83
633.148	12.83
633.339	12.67
633.529	12.57
633.72	12.63
633.91	12.75
634.101	12.78
634.292	12.97
634.482	12.97
634.673	13.03
634.863	13.05
635.054	13.1
635.244	13.02
635.435	13.15
635.625	13.18
635.815	13.04
636.006	12.89
636.196	12.91
636.387	12.96
636.577	13.04
636.767	12.98
636.958	12.97
637.148	13.14
637.338	13.22
637.529	13.06
637.719	12.68
637.909	12.9
638.099	13.01
638.29	12.88
638.48	12.9
638.67	12.87
638.86	12.78
639.05	12.65
639.241	12.44
639.431	12.34
639.621	12.27
639.811	12.72
640.001	12.77
640.191	12.83
640.381	12.99
640.571	13.13
640.761	13.02
640.951	13.13
641.141	13.22
641.331	13.21
641.521	13.24
641.711	13.47
641.901	13.16
642.091	13.07
642.281	12.85
642.471	12.81
642.661	12.81
642.851	13.02
643.041	13.05
643.231	12.87
643.42	13.04
643.61	13.11
643.8	13.42
643.99	13.68
644.18	13.63
644.369	13.67
644.559	13.61
644.749	13.52
644.939	13.51
645.128	13.28
645.318	13.65
645.508	13.97
645.697	13.99
645.887	13.75
646.076	13.88
646.266	13.98
646.456	13.95
646.645	14.2
646.835	14.38
647.024	14.42
647.214	14.42
647.403	14.44
647.593	14.02
647.782	13.9
647.972	13.71
648.161	13.49
648.351	13.3
648.54	13.5
648.73	13.26
648.919	13.03
649.108	13.01
649.298	13.29
649.487	13.2
649.677	13.38
649.866	13.2
650.055	13.42
650.244	13.47
650.434	13.57
650.623	13.44
650.812	13.41
651.002	13.43
651.191	13.31
651.38	13.22
651.569	13.22
651.758	13
651.947	13.21
652.137	13.31
652.326	13.45
652.515	13.53
652.704	13.63
652.893	13.72
653.082	13.91
653.271	13.77
653.46	13.68
653.649	13.56
653.838	13.87
654.027	14.04
654.216	13.94
654.405	13.68
654.594	13.6
654.783	13.55
654.972	13.48
655.161	13.63
655.35	13.92
655.539	13.94
655.728	13.85
655.916	13.66
656.105	13.58
656.294	13.53
656.483	13.67
656.672	13.71
656.86	13.43
657.049	13.32
657.238	12.77
657.427	12.78
657.615	12.87
657.804	12.81
657.993	12.61
658.181	12.52
658.37	12.5
658.559	12.39
658.747	12.53
658.936	12.63
659.125	12.82
659.313	12.99
659.502	12.98
659.69	12.88
659.879	13.2
660.067	13.18
660.256	13.18
660.444	13.14
660.633	13.3
660.821	13.24
661.01	13.27
661.198	13.3
661.387	13.69
661.575	13.53
661.763	13.8
661.952	13.93
662.14	13.96
662.328	14.06
662.517	14.25
662.705	14.13
662.893	14.3
663.082	14.54
663.27	14.71
663.458	14.33
663.646	14.62
663.834	14.31
664.023	14.29
664.211	14.62
664.399	14.63
664.587	14.82
664.775	14.88
664.963	14.61
665.152	14.67
665.34	14.49
665.528	14.54
665.716	14.61
665.904	14.62
666.092	14.2
666.28	14.17
666.468	13.94
666.656	13.82
666.844	13.96
667.032	14.13
667.22	14.06
667.408	13.95
667.596	13.9
667.784	13.73
667.971	14.01
668.159	14.39
668.347	14.4
668.535	14.5
668.723	14.42
668.911	14.32
669.098	14.24
669.286	14.37
669.474	14.36
669.662	14.26
669.849	14.28
670.037	14.32
670.225	13.95
670.413	14.04
670.6	14.15
670.788	14.1
670.976	14.02
671.163	14.3
671.351	14.1
671.538	14.11
671.726	14.21
671.913	14.24
672.101	13.59
672.289	13.86
672.476	13.76
672.664	14.11
672.851	14.09
673.039	14.28
673.226	14.03
673.413	14.12
673.601	14.21
673.788	14.23
673.976	14.71
674.163	15.31
674.35	14.97
674.538	14.8
674.725	14.62
674.912	14.66
675.1	14.52
675.287	14.6
675.474	14.64
675.662	14.84
675.849	14.78
676.036	14.03
676.223	13.96
676.411	14.17
676.598	14.36
676.785	14.37
676.972	14.55
677.159	14.64
677.346	14.68
677.533	14.54
677.721	14.08
677.908	14.18
678.095	14.43
678.282	14.3
678.469	14.28
678.656	14.06
678.843	13.82
679.03	13.57
679.217	13.65
679.404	13.48
679.591	13.34
679.778	13.58
679.964	13.51
680.151	13.43
680.338	13.48
680.525	13.5
680.712	13.75
680.899	14.04
681.086	14.09
681.272	13.84
681.459	13.73
681.646	13.78
681.833	13.68
682.02	13.79
682.206	13.9
682.393	13.91
682.58	13.96
682.766	14.07
682.953	13.91
683.14	13.96
683.326	14.2
683.513	14.76
683.7	14.95
683.886	14.94
684.073	14.91
684.259	14.78
684.446	14.79
684.632	15.16
684.819	14.99
685.005	14.88
685.192	15.06
685.378	15.14
685.565	14.76
685.751	14.55
685.938	14.59
686.124	14.49
686.31	14.86
686.497	14.93
686.683	14.52
686.87	14.36
687.056	14.71
687.242	14.62
687.429	14.54
687.615	14.47
687.801	14.44
687.987	14.59
688.174	14.84
688.36	14.73
688.546	14.85
688.732	15.1
688.918	15.23
689.105	15.17
689.291	14.76
689.477	14.74
689.663	15
689.849	15.33
690.035	15.57
690.221	15.08
690.407	14.89
690.593	14.75
690.779	14.77
690.965	14.58
691.151	14.43
691.337	14.87
691.523	15.01
691.709	14.84
691.895	14.92
692.081	14.98
692.267	15.39
692.453	15.63
692.639	15.86
692.825	16
693.011	16.06
693.196	15.88
693.382	15.88
693.568	15.7
693.754	15.6
693.94	15.34
694.125	15
694.311	15.06
694.497	14.86
694.682	14.35
694.868	14.08
695.054	14.21
695.239	14.46
695.425	14.13
695.611	14.34
695.796	14.33
695.982	14.18
696.168	14.07
696.353	13.77
696.539	13.66
696.724	13.52
696.91	13.24
697.095	13.13
697.281	12.75
697.466	13
697.652	12.91
697.837	13.03
698.023	13.1
698.208	12.96
698.393	13.21
698.579	13.51
698.764	13.72
698.949	13.98
699.135	13.95
699.32	13.87
699.505	14.03
699.691	14.22
699.876	14.02
700.061	14.09
700.246	14.35
700.432	14.37
700.617	14.13
700.802	14.28
700.987	14.31
701.172	14.47
701.358	15.13
701.543	14.95
701.728	14.9
701.913	15.46
702.098	15.48
702.283	15.73
702.468	15.67
702.653	15.78
702.838	16.14
703.023	16.14
703.208	16.4
703.393	16.25
703.578	16.37
703.763	16.47
703.948	16.49
704.133	16.49
704.318	16.22
704.503	16.19
704.688	16.1
704.873	15.82
705.057	15.95
705.242	15.89
705.427	16.22
705.612	16.15
705.797	16.18
705.981	16.37
706.166	16.78
706.351	16.74
706.536	17.13
706.72	17.24
706.905	17.6
707.09	17.42
707.274	17.23
707.459	17.27
707.644	17.43
707.828	17.11
708.013	16.67
708.197	16.48
708.382	17.07
708.567	16.6
708.751	16.56
708.936	16.05
709.12	16.01
709.305	16.28
709.489	16.43
709.673	16.62
709.858	16.78
710.042	16.69
710.227	17.35
710.411	17.24
710.596	17.49
710.78	17.69
710.964	17.59
711.149	18.11
711.333	18.23
711.517	18.12
711.702	18.29
711.886	18.36
712.07	18.51
712.254	17.88
712.438	17.95
712.623	17.6
712.807	17.3
712.991	17.72
713.175	17.04
713.359	17.31
713.544	17.01
713.728	16.52
713.912	16.08
714.096	15.89
714.28	15.66
714.464	15.28
714.648	15.46
714.832	15.76
715.016	15.67
715.2	15.66
715.384	15.23
715.568	15.35
715.752	15.62
715.936	15.83
716.12	15.8
716.304	15.46
716.488	15.63
716.671	15.38
716.855	15.03
717.039	14.96
717.223	14.71
717.407	14.14
717.59	13.66
717.774	13.58
717.958	13.54
718.142	13.72
718.325	14.19
718.509	14.22
718.693	14.24
718.877	14.19
719.06	14.02
719.244	14.93
719.428	15.58
719.611	15.8
719.795	15.53
719.978	15.75
720.162	16.33
720.345	16.63
720.529	16.68
720.713	17.35
720.896	17.66
721.08	17.42
721.263	16.78
721.446	16.77
721.63	17.01
721.813	16.91
721.997	16.54
722.18	15.83
722.364	15.68
722.547	14.54
722.73	14.3
722.914	14.29
723.097	14.81
723.28	15.23
723.464	15.09
723.647	15.09
723.83	15.08
724.013	15.79
724.197	15.84
724.38	16.15
724.563	16.42
724.746	16.77
724.929	17.18
725.112	17.14
725.296	16.99
725.479	17.06
725.662	16.7
725.845	16.45
726.028	15.97
726.211	16.24
726.394	15.84
726.577	16.3
726.76	16.56
726.943	15.83
727.126	15.55
727.309	15.75
727.492	15.67
727.675	15.71
727.858	15.96
728.041	16.4
728.224	16.45
728.407	16.29
728.589	16.03
728.772	14.7
728.955	14.47
729.138	15.03
729.321	15.03
729.503	15.04
729.686	15.1
729.869	14.94
730.052	14.21
730.234	13.92
730.417	14.08
730.6	13.91
730.782	14.83
730.965	15.4
731.148	14.87
731.33	14.06
731.513	14.05
731.695	13.61
731.878	13.61
732.061	13.75
732.243	13.56
732.426	13.32
732.608	13.42
732.791	13.35
732.973	12.88
733.156	12.89
733.338	14.04
733.52	14.09
733.703	14.82
733.885	15.11
734.068	15.19
734.25	15.47
734.432	16.14
734.615	16.37
734.797	16.17
734.979	16.1
735.162	16.45
735.344	16.19
735.526	16.83
735.708	16.73
735.891	16.84
736.073	16.49
736.255	16.53
736.437	16.27
736.619	16.09
736.802	16.06
736.984	16.22
737.166	16.13
737.348	16.03
737.53	15.76
737.712	15.69
737.894	15.81
738.076	15.56
738.258	15.54
738.44	14.98
738.622	15.84
738.804	16.17
738.986	16.44
739.168	15.91
739.35	15.65
739.532	15.16
739.714	15.53
739.896	15.54
740.078	16.38
740.259	16.81
740.441	17.54
740.623	17.08
740.805	17.21
740.987	17.54
741.168	18.27
741.35	18.8
741.532	19.06
741.714	18.5
741.895	17.88
742.077	18.25
742.259	17.9
742.44	18.02
742.622	17.76
742.804	17.72
742.985	17.33
743.167	16.2
743.348	15.64
743.53	15.75
743.711	15.72
743.893	16.04
744.075	15.31
744.256	15.38
744.438	15.19
744.619	15.1
744.8	14.3
744.982	14.36
745.163	15.22
745.345	14.49
745.526	14.49
745.707	14.8
745.889	15.01
746.07	15.23
746.252	15.41
746.433	14.52
746.614	14.97
746.795	16.01
746.977	16.88
747.158	18
747.339	19.2
747.52	19.16
747.702	18.99
747.883	19.7
748.064	20.57
748.245	20.76
748.426	21.42
748.607	21.75
748.788	21.37
748.97	20.49
749.151	19.74
749.332	19.34
749.513	19.55
749.694	20.71
749.875	20.08
750.056	19.35
750.237	18.44
750.418	18.96
750.599	18.6
750.78	18.63
750.96	19.41
751.141	18.96
751.322	19.03
751.503	18.46
751.684	17.73
751.865	18.02
752.046	18.01
752.226	18.02
752.407	17.57
752.588	17.22
752.769	17.58
752.949	17.49
753.13	18.07
753.311	17.53
753.492	17.84
753.672	18.42
753.853	17.55
754.034	17.35
754.214	18.39
754.395	17.76
754.575	18.7
754.756	18.12
754.937	18.18
755.117	18.3
755.298	18.28
755.478	17.58
755.659	16.93
755.839	17.53
756.02	17.81
756.2	17.71
756.381	18.19
756.561	17.08
756.741	17.29
756.922	16.55
757.102	15.68
757.283	16.79
757.463	17.41
757.643	17.19
757.823	17.65
758.004	18.4
758.184	18
758.364	18
758.545	18.69
758.725	18.33
758.905	18.39
759.085	17.63
759.265	17.64
759.446	17.86
759.626	18.01
759.806	17.63
759.986	16.97
760.166	16.98
760.346	16.42
760.526	16.11
760.706	16.33
760.886	16.3
761.066	17.47
761.246	16.78
761.426	16.1
761.606	15.94
761.786	15.04
761.966	14.51
762.146	14.41
762.326	14.7
762.506	14.75
762.686	14.6
762.866	14.7
763.046	14.26
763.225	14.33
763.405	14.24
763.585	14.07
763.765	14.29
763.945	14.45
764.124	14.57
764.304	15.11
764.484	14.89
764.664	14.89
764.843	15.07
765.023	15.77
765.203	15.31
765.382	15.63
765.562	15.54
765.741	15.91
765.921	16.27
766.101	15.89
766.28	15.86
766.46	16.02
766.639	16.55
766.819	16.52
766.998	16.48
767.178	17.31
767.357	17.55
767.537	18.09
767.716	18.55
767.896	19.05
768.075	19.33
768.254	19.18
768.434	19.54
768.613	19.94
768.792	19.65
768.972	18.98
769.151	19.39
769.33	19.25
769.51	19.24
769.689	19.27
769.868	17.69
770.047	18.65
770.226	18.53
770.406	18.17
770.585	18.14
770.764	18.41
770.943	18.28
771.122	17.07
771.301	17.95
771.48	18.3
771.66	17.8
771.839	18.69
772.018	18.52
772.197	18.25
772.376	18.76
772.555	18.2
772.734	18.5
772.913	18.6
773.092	19.52
773.271	18.81
773.449	18.66
773.628	20.14
773.807	20.31
773.986	20.31
774.165	20.44
774.344	20.49
774.523	21.7
774.701	21.82
774.88	23.15
775.059	22.71
775.238	23.54
775.417	22.87
775.595	22.68
775.774	22.23
775.953	21.58
776.131	22.18
776.31	23.01
776.489	21.75
776.667	21.03
776.846	20.02
777.025	20.29
777.203	19.43
777.382	20.33
777.56	19.21
777.739	19.92
777.917	20.22
778.096	19.02
778.274	18.47
778.453	18.53
778.631	19.31
778.81	19.08
778.988	20.11
779.166	20.14
779.345	19.8
779.523	19.68
779.702	18.97
779.88	19.01
780.058	19.16
780.237	18.79
780.415	18.57
780.593	17.43
780.771	18.63
780.95	18.11
781.128	18.81
781.306	19.47
781.484	19.37
781.662	20.53
781.841	20.74
782.019	22.26
782.197	21.79
782.375	22.35
782.553	22.84
782.731	22.04
782.909	22.47
783.087	22.55
783.265	22.8
783.443	23.12
783.621	22.04
783.799	20.7
783.977	20.15
784.155	21.34
784.333	20.99
784.511	22.36
784.689	22.51
784.867	22.64
785.045	22.47
785.223	21.41
785.4	22.48
785.578	23.33
785.756	23.84
785.934	24.11
786.112	23.82
786.289	23.95
786.467	23.03
786.645	21.44
786.823	20.48
787	20.51
787.178	21.53
787.356	20.36
787.533	20.18
787.711	20.29
787.889	19.53
788.066	18.98
788.244	20.11
788.421	20.01
788.599	21.55
788.776	22.15
788.954	21.93
789.131	20.55
789.309	20.43
789.486	21.36
789.664	20.93
789.841	21.18
790.019	21.91
790.196	20.5
790.373	20.5
790.551	20.04
790.728	19.63
790.906	18.83
791.083	20.9
791.26	22.4
791.437	21.52
791.615	23.01
791.792	23.74
791.969	23.11
792.146	23.29
792.324	23.89
792.501	24.65
792.678	24.66
792.855	25.68
793.032	25.03
793.209	24.83
793.387	24.43
793.564	23.95
793.741	24.73
793.918	23.89
794.095	23.97
794.272	23.89
794.449	22.5
794.626	23.04
794.803	23
794.98	22.25
795.157	21.59
795.334	22.5
795.511	21.73
795.688	20.31
795.864	21.24
796.041	20.57
796.218	20.47
796.395	21.58
796.572	20.45
796.749	19.82
796.925	20.08
797.102	20.22
797.279	20
797.456	21.6
797.632	22.53
797.809	22.74
797.986	24.43
798.162	24.21
798.339	23.93
798.516	24.07
798.692	24.86
798.869	25.35
799.046	25.68
799.222	25.17
799.399	24.34
799.575	23.8
799.752	23.82
799.928	23.63
800.105	23.44
800.281	24.39
800.458	25.57
800.634	25.31
800.811	25.09
800.987	24.3
801.163	24.84
801.34	24.16
801.516	24.42
801.692	24.99
801.869	26.07
802.045	26.16
802.221	25.57
802.398	24.12
802.574	22.3
802.75	21.46
802.926	21.76
803.103	21.98
803.279	22.45
803.455	20.65
803.631	21.34
803.807	20.82
803.983	22.23
804.16	22.4
804.336	23.21
804.512	25.5
804.688	27.41
804.864	29.29
805.04	29.06
805.216	29.15
805.392	29.98
805.568	28.48
805.744	27.62
805.92	26.23
806.096	27.52
806.272	26.44
806.448	26.42
806.623	23.97
806.799	24.13
806.975	22.86
807.151	23.97
807.327	23.75
807.503	22.89
807.678	23.42
807.854	24.72
808.03	22
808.206	23.77
808.381	22.94
808.557	24.48
808.733	22.59
808.908	24.21
809.084	24.77
809.26	26.14
809.435	28.05
809.611	28.15
809.787	27.06
809.962	29.55
810.138	30.08
810.313	31.29
810.489	31.12
810.664	31.96
810.84	29.79
811.015	30.19
811.191	29.05
811.366	29.06
811.542	29.1
811.717	29.78
811.892	29.36
812.068	27.95
812.243	27.84
812.419	28.07
812.594	27.14
812.769	28.5
812.944	27.31
813.12	28.29
813.295	26.13
813.47	24.19
813.645	24.73
813.821	24.78
813.996	24.99
814.171	24.89
814.346	23.98
814.521	24.37
814.697	24.23
814.872	23.58
815.047	24.03
815.222	25.08
815.397	24.99
815.572	23.11
815.747	23.09
815.922	23.29
816.097	23.17
816.272	24.35
816.447	24.29
816.622	25.48
816.797	27.03
816.972	27.83
817.147	29.78
817.322	29.94
817.496	30.99
817.671	28.98
817.846	27.64
818.021	26.93
818.196	25.6
818.371	23.71
818.545	21.89
818.72	21.69
818.895	21.35
819.069	19.66
819.244	19.21
819.419	18.17
819.594	17.14
819.768	17.92
819.943	16.86
820.117	16.4
820.292	17.29
820.467	16.53
820.641	15.13
820.816	13.73
820.99	12.48
821.165	11.97
821.339	12.47
821.514	13.1
821.688	12.48
821.863	12.4
822.037	12.11
822.212	11.69
822.386	12.1
822.56	12.02
822.735	12.06
822.909	12.46
823.084	12.9
823.258	12.79
823.432	12.84
823.606	13.08
823.781	13.51
823.955	13.82
824.129	14.57
824.303	14.64
824.478	15.04
824.652	15.51
824.826	15.4
825	15.65
825.174	16.09
825.348	16.3
825.523	16.75
825.697	16.96
825.871	17.1
826.045	16.72
826.219	17.09
826.393	17.41
826.567	17.41
826.741	17.78
826.915	17.47
827.089	17.17
827.263	16.7
827.437	16.37
827.611	16.69
827.784	17.1
827.958	16.82
828.132	16.72
828.306	16.58
828.48	16.56
828.654	17.26
828.827	17.97
829.001	18.01
829.175	18.68
829.349	19.66
829.522	19.32
829.696	19.75
829.87	20.99
830.044	20.72
830.217	21.88
830.391	22.51
830.565	22.79
830.738	22.22
830.912	22.85
831.085	24.43
831.259	24.68
831.432	23.08
831.606	22.04
831.779	22.78
831.953	23.32
832.126	22.61
832.3	22.48
832.473	19.77
832.647	19.76
832.82	20.38
832.994	19.23
833.167	18.25
833.34	18.64
833.514	18.51
833.687	18.53
833.86	17.99
834.034	16.79
834.207	17.23
834.38	18.06
834.553	18.21
834.727	17.93
834.9	17.58
835.073	18.18
835.246	18.46
835.419	18.86
835.593	18.93
835.766	19.84
835.939	21.38
836.112	20.91
836.285	21.66
836.458	20.92
836.631	20.86
836.804	21.94
836.977	22.31
837.15	23.58
837.323	24.01
837.496	24.37
837.669	26.38
837.842	28.1
838.015	27.45
838.188	28.71
838.361	31.04
838.533	33
838.706	33.41
838.879	33.35
839.052	34.11
839.225	34.87
839.398	33.67
839.57	31.78
839.743	32.05
839.916	32.33
840.088	32.02
840.261	31.75
840.434	30.9
840.607	31.55
840.779	32.07
840.952	30.11
841.124	28.69
841.297	29.46
841.47	30.12
841.642	31.55
841.815	36.63
841.987	37.67
842.16	37.1
842.332	38.4
842.505	38.82
842.677	38.39
842.85	38.47
843.022	41.22
843.194	41.79
843.367	43.57
843.539	37.7
843.712	34.81
843.884	36.06
844.056	37.4
844.229	38.53
844.401	39.28
844.573	44.03
844.745	48.41
844.918	48.27
845.09	47.33
845.262	49.15
845.434	52.06
845.606	52.68
845.779	51.84
845.951	52.66
846.123	52.49
846.295	53.83
846.467	49.19
846.639	49.62
846.811	51.76
846.983	53.35
847.155	49.81
847.327	49.71
847.499	50.18
847.671	48.56
847.843	51.35
848.015	49.72
848.187	50.62
848.359	50.53
848.531	51.38
848.703	50.71
848.875	50.59
849.047	46.22
849.218	48.72
849.39	48.99
849.562	51.22
849.734	53.5
849.905	55.78
850.077	54.67
850.249	56.02
850.421	56.79
850.592	54.23
850.764	54.03
850.936	56.35
851.107	56.06
851.279	55.87
851.451	56.87
851.622	55.7
851.794	56.74
851.965	60.29
852.137	61.23
852.308	62.99
852.48	65.58
852.651	70.26
852.823	73.72
852.994	74.11
853.166	71.02
853.337	68.83
853.509	65.54
853.68	64.7
853.851	59.86
854.023	62.9
854.194	61.31
854.365	62.07
854.537	60.96
854.708	63.5
854.879	64.57
855.05	66.21
855.222	71.31
855.393	72.34
855.564	72.73
855.735	71.67
855.906	70.67
856.078	71.48
856.249	71.07
856.42	69.43
856.591	67.52
856.762	67.22
856.933	66.47
857.104	60.69
857.275	61.4
857.446	61.68
857.617	67.87
857.788	69.11
857.959	70.76
858.13	70.83
858.301	73.27
858.472	70.87
858.643	70.5
858.814	70.67
858.985	70.78
859.155	68.4
859.326	68.48
859.497	68.16
859.668	64.81
859.839	67.3
860.009	68.94
860.18	67.7
860.351	64.85
860.522	63.52
860.692	64.37
860.863	63.96
861.034	67.59
861.204	67.3
861.375	62.62
861.546	65.94
861.716	58.87
861.887	61.48
862.057	58.19
862.228	61.84
862.398	62.2
862.569	63.52
862.739	66.86
862.91	65.85
863.08	60.46
863.251	59.35
863.421	60.7
863.592	62.07
863.762	59.98
863.932	59.95
864.103	65.42
864.273	67.68
864.443	67.7
864.614	67.44
864.784	71.61
864.954	75.32
865.125	81.37
865.295	75.85
865.465	78.14
865.635	75.38
865.805	81.5
865.976	71.33
866.146	65.39
866.316	59.43
866.486	61.31
866.656	56.94
866.826	60.58
866.996	59.76
867.166	59.18
867.336	55.11
867.506	57.04
867.676	54.12
867.846	56.3
868.016	62.46
868.186	66.08
868.356	66.16
868.526	66.18
868.696	61.98
868.866	61.16
869.036	58.54
869.206	61.09
869.376	63.44
869.545	60.07
869.715	61.12
869.885	59.31
870.055	58.46
870.224	58.56
870.394	59.74
870.564	63.97
870.734	64.61
870.903	67.11
871.073	69.49
871.243	64.4
871.412	69.74
871.582	67.41
871.751	68.1
871.921	69.92
872.091	66.88
872.26	67.91
872.43	65.96
872.599	63.24
872.769	63.68
872.938	60.51
873.108	66.02
873.277	65.4
873.446	70.75
873.616	70.2
873.785	69.72
873.955	67.56
874.124	68.37
874.293	71.92
874.463	73.74
874.632	74.63
874.801	72.12
874.971	67.14
875.14	63.96
875.309	63.31
875.478	58.09
875.647	54.89
875.817	53.03
875.986	48.84
876.155	44.55
876.324	44.12
876.493	42.63
876.662	45.3
876.831	44.45
877	48.77
877.17	43.2
877.339	45.84
877.508	50.32
877.677	55.01
877.846	55.36
878.015	56.31
878.184	53.13
878.352	54.44
878.521	52.02
878.69	50.74
878.859	45.34
879.028	44.72
879.197	42.28
879.366	37.08
879.534	36.49
879.703	32.76
879.872	32.42
880.041	31.09
880.21	27.92
880.378	26.69
880.547	24.77
880.716	22.43
880.884	21.82
881.053	21.57
881.222	21.45
881.39	18.56
881.559	18.94
881.727	18.06
881.896	17.4
882.065	16.4
882.233	15.83
882.402	16.26
882.57	17.09
882.739	16.29
882.907	16.23
883.076	15.79
883.244	17.03
883.412	17.57
883.581	17.33
883.749	17.5
883.918	19.34
884.086	20.32
884.254	20.96
884.423	20.11
884.591	22.73
884.759	24.32
884.927	24.8
885.096	27.27
885.264	27.7
885.432	28.86
885.6	30.82
885.769	32.3
885.937	34.43
886.105	35.2
886.273	40.63
886.441	42.32
886.609	44.42
886.777	46.86
886.945	45.77
887.113	45.79
887.281	46.14
887.449	51.03
887.617	48.57
887.785	48.72
887.953	52.66
888.121	53.45
888.289	50.49
888.457	47.29
888.625	51.3
888.793	48.88
888.961	54.46
889.129	60.56
889.296	62.12
889.464	66.7
889.632	66.05
889.8	65.66
889.967	64.49
890.135	68.85
