Data from 2938797__Reflection_01.txt Node
Date: Thu Mar 12 23:12:37 EDT 2015
User: robert
Spectrometer: USB4E03002
Autoset integration time: false
Trigger mode: 4
Integration Time (sec): 1.000000E-1
Scans to average: 10
Electric dark correction enabled: false
Nonlinearity correction enabled: false
Boxcar width: 5
Stray light correction enabled: false
XAxis mode: Wavelengths
Stop averaging: false
Number of Pixels in Spectrum: 3648
>>>>>Begin Spectral Data<<<<<
177.575	211.32
177.794	137.87
178.014	179.67
178.233	191.24
178.452	268.28
178.672	153.22
178.891	155.96
179.11	101.85
179.33	40
179.549	-27.14
179.768	94.85
179.987	156.41
180.207	198.92
180.426	93.98
180.645	76.71
180.864	89.69
181.084	163.05
181.303	135.94
181.522	105.26
181.741	107.74
181.96	46.36
182.179	53.46
182.398	55.11
182.618	50.58
182.837	58.87
183.056	47.81
183.275	-71.24
183.494	-78.29
183.713	-56.95
183.932	-147.46
184.151	-98.38
184.37	-192.73
184.589	35.29
184.808	84.65
185.027	62.95
185.246	129.5
185.465	-63.64
185.684	-312.73
185.903	-1004.35
186.122	422.86
186.341	296.81
186.56	593.06
186.779	203.31
186.998	120.12
187.216	125.85
187.435	127.62
187.654	105.26
187.873	117.78
188.092	79.71
188.311	101.18
188.53	206.96
188.748	116
188.967	78.44
189.186	307.69
189.405	23.89
189.623	2012.5
189.842	604.76
190.061	-86.55
190.28	-169.79
190.498	-23.53
190.717	86.9
190.936	2093.75
191.154	-77.78
191.373	6.73
191.592	628.57
191.81	-222.22
192.029	-12.5
192.248	-10
192.466	-92.59
192.685	-735.14
192.904	-2.56
193.122	-265.52
193.341	119
193.559	65.36
193.778	127.98
193.996	110.78
194.215	73.22
194.433	94.58
194.652	93.31
194.87	192.88
195.089	165.51
195.307	159
195.526	161
195.744	142.97
195.963	1616.67
196.181	-45.37
196.399	12.99
196.618	203.7
196.836	80
197.055	60.44
197.273	130.29
197.491	89.6
197.71	103.41
197.928	111.35
198.146	52.66
198.365	53.07
198.583	214.29
198.801	200.82
199.019	131.96
199.238	254.07
199.456	-2217.65
199.674	-121.33
199.892	-263.06
200.111	-664.81
200.329	12433.33
200.547	-227.54
200.765	-458.97
200.983	2142.11
201.202	-2146.67
201.42	246.07
201.638	142.05
201.856	122.28
202.074	55.95
202.292	67.22
202.51	28.89
202.728	10.22
202.946	34.64
203.165	11.75
203.383	-4.8
203.601	39.58
203.819	-17.77
204.037	-100
204.255	21.31
204.473	59.88
204.691	73.52
204.909	79.28
205.127	58.65
205.345	75.39
205.562	183.33
205.78	0
205.998	47.87
206.216	69.18
206.434	97.04
206.652	123.93
206.87	103.4
207.088	53.96
207.306	71.16
207.523	96.79
207.741	70.02
207.959	66.61
208.177	69.41
208.395	46.69
208.612	59.83
208.83	35.08
209.048	33.39
209.266	30.98
209.483	-2.28
209.701	-2.32
209.919	-55.89
210.136	-65.43
210.354	-106.78
210.572	-253.14
210.79	-173.68
211.007	-303.05
211.225	-473.89
211.442	-214.78
211.66	-150.11
211.878	-206.22
212.095	409.12
212.313	529.8
212.53	927.46
212.748	849.64
212.966	-1108.05
213.183	-860.16
213.401	-384.54
213.618	-527.17
213.836	-1072.62
214.053	-1317.19
214.271	-312.55
214.488	-7.76
214.705	-8.23
214.923	4.33
215.14	-5.22
215.358	-20.22
215.575	-29.61
215.793	-46.13
216.01	-52.77
216.227	-71.53
216.445	-69.5
216.662	-54.21
216.879	-39.93
217.097	-10.24
217.314	-3.41
217.531	-7.95
217.749	3.76
217.966	6.58
218.183	9.19
218.4	8.86
218.618	2.95
218.835	-1.91
219.052	-5.35
219.269	-6.74
219.487	-20.16
219.704	-33.69
219.921	-24.61
220.138	-31.3
220.355	-38.83
220.572	-55.88
220.79	-60.83
221.007	-66.67
221.224	-58.01
221.441	-52.05
221.658	-53.12
221.875	-45.96
222.092	-39.78
222.309	-38.98
222.526	-36.32
222.743	-16.49
222.96	-9.21
223.177	-0.41
223.394	0.94
223.611	4.23
223.828	3.53
224.045	11.98
224.262	11.57
224.479	7.03
224.696	6.23
224.913	5.33
225.13	-0.9
225.347	-0.17
225.564	-6.67
225.781	-2.78
225.997	-1.33
226.214	-0.63
226.431	-4.94
226.648	-4.6
226.865	-1
227.082	-0.54
227.298	1.94
227.515	2.9
227.732	3.32
227.949	4.33
228.165	4.41
228.382	4.43
228.599	4.69
228.816	5.12
229.032	5.09
229.249	5.13
229.466	4.94
229.682	5.83
229.899	6.12
230.116	5.35
230.332	6.68
230.549	7.38
230.765	7.25
230.982	7.85
231.199	8.34
231.415	9.3
231.632	8.88
231.848	8.56
232.065	6.18
232.281	4.71
232.498	6.15
232.714	4.71
232.931	4.57
233.147	5.64
233.364	4.04
233.58	4.13
233.797	4.94
234.013	4.34
234.23	5.35
234.446	6.1
234.662	7.28
234.879	6.87
235.095	6.6
235.312	6.62
235.528	4.43
235.744	5.59
235.961	4.14
236.177	3.34
236.393	3.17
236.61	3.47
236.826	3.26
237.042	2.8
237.258	2.98
237.475	2.97
237.691	1.74
237.907	3.78
238.123	2.96
238.339	3.06
238.556	1.23
238.772	1.49
238.988	1.9
239.204	3.21
239.42	5.75
239.636	3.33
239.853	3.15
240.069	3.24
240.285	2.36
240.501	2.26
240.717	2.84
240.933	3.97
241.149	4.83
241.365	4.6
241.581	3.91
241.797	3.18
242.013	4.94
242.229	4.66
242.445	5.04
242.661	6.27
242.877	6.7
243.093	6.65
243.309	6.26
243.525	6.25
243.741	6.16
243.957	6.35
244.173	6.37
244.388	6.27
244.604	7.25
244.82	6.52
245.036	5.84
245.252	5.8
245.468	6.3
245.683	6.23
245.899	6.39
246.115	6.62
246.331	6.57
246.547	6.56
246.762	6.53
246.978	6.45
247.194	6.56
247.409	6.27
247.625	5.99
247.841	5.8
248.057	6.01
248.272	5.8
248.488	5.6
248.703	5.84
248.919	5.52
249.135	5.7
249.35	5.21
249.566	5.08
249.782	5.06
249.997	5.87
250.213	6.02
250.428	6.19
250.644	6.17
250.859	6.65
251.075	6.22
251.29	6.92
251.506	5.71
251.721	6.45
251.937	6.41
252.152	6.38
252.368	5.62
252.583	5.62
252.798	5.1
253.014	5.33
253.229	5.4
253.445	5.24
253.66	3.62
253.875	3.81
254.091	2.67
254.306	3.03
254.521	2.8
254.737	3.83
254.952	3.37
255.167	4.19
255.383	3.62
255.598	2.47
255.813	2.73
256.028	3.59
256.244	3.25
256.459	4
256.674	2.94
256.889	3.18
257.104	2.8
257.32	2.89
257.535	2.87
257.75	3.21
257.965	3.74
258.18	4.42
258.395	4.83
258.61	5.31
258.826	5.15
259.041	5.38
259.256	5.23
259.471	5.18
259.686	5.49
259.901	5.29
260.116	4.96
260.331	5.09
260.546	4.82
260.761	4.94
260.976	4.87
261.191	5.05
261.406	5.28
261.621	5.6
261.836	5.66
262.05	5.41
262.265	6.13
262.48	6.45
262.695	6.1
262.91	6.14
263.125	5.62
263.34	5.14
263.555	5.04
263.769	4.53
263.984	4.52
264.199	4.4
264.414	3.99
264.629	3.49
264.843	3.56
265.058	3.62
265.273	3.88
265.488	4.23
265.702	4.46
265.917	4.04
266.132	4.43
266.346	3.72
266.561	3.69
266.776	4.08
266.99	3.96
267.205	3.66
267.42	3.56
267.634	3.35
267.849	3.57
268.063	3.46
268.278	3.72
268.492	3.2
268.707	3.37
268.922	3.34
269.136	3.42
269.351	3.27
269.565	3.51
269.78	4.23
269.994	4.65
270.209	4.29
270.423	4.26
270.637	4.31
270.852	4.69
271.066	4.64
271.281	5.03
271.495	5.26
271.709	4.87
271.924	5.03
272.138	4.69
272.353	4.42
272.567	4.45
272.781	4.42
272.996	4.47
273.21	4.54
273.424	4.54
273.638	4.25
273.853	4.04
274.067	4.44
274.281	4.36
274.495	4.53
274.71	4.57
274.924	4.65
275.138	4.49
275.352	3.83
275.566	3.7
275.781	4.38
275.995	4.08
276.209	3.61
276.423	3.79
276.637	4.05
276.851	3.16
277.065	3.18
277.279	3.12
277.493	3.73
277.707	4.18
277.921	3.79
278.135	3.14
278.349	3.38
278.563	3.62
278.777	3.28
278.991	3.25
279.205	3.58
279.419	3.65
279.633	3.94
279.847	3.61
280.061	3.88
280.275	3.8
280.489	3.81
280.703	4.02
280.917	4.14
281.131	3.81
281.344	3.48
281.558	3.68
281.772	3.32
281.986	3.34
282.2	3.19
282.414	3.23
282.627	3.56
282.841	4.02
283.055	3.96
283.269	4.01
283.482	3.83
283.696	4.02
283.91	3.8
284.123	4.1
284.337	4.05
284.551	4.27
284.764	3.89
284.978	3.74
285.192	3.38
285.405	3.12
285.619	2.92
285.833	3.46
286.046	3.71
286.26	4.01
286.473	4.02
286.687	4.05
286.9	3.91
287.114	3.75
287.327	3.74
287.541	3.77
287.754	3.97
287.968	3.77
288.181	4.02
288.395	4.11
288.608	4.3
288.822	3.98
289.035	3.56
289.248	3.85
289.462	4.41
289.675	4.62
289.889	4.75
290.102	4.92
290.315	4.99
290.529	4.87
290.742	4.52
290.955	4.39
291.169	4.49
291.382	4.57
291.595	4.41
291.808	4.58
292.022	3.96
292.235	3.8
292.448	3.75
292.661	3.83
292.875	3.85
293.088	3.87
293.301	3.76
293.514	4.01
293.727	4.19
293.94	4.55
294.153	4.49
294.367	5.02
294.58	4.9
294.793	5.08
295.006	5.2
295.219	5.13
295.432	5.41
295.645	5.44
295.858	5.65
296.071	5.67
296.284	5.26
296.497	5.11
296.71	5.18
296.923	5.34
297.136	4.95
297.349	4.92
297.562	4.97
297.775	4.92
297.988	4.88
298.201	4.82
298.414	4.78
298.626	5
298.839	4.87
299.052	4.94
299.265	5.25
299.478	5.59
299.691	5.77
299.903	5.66
300.116	5.49
300.329	5.59
300.542	5.46
300.755	5.59
300.967	5.73
301.18	5.89
301.393	5.63
301.605	5.38
301.818	5.3
302.031	5.54
302.243	5.86
302.456	6.35
302.669	6.44
302.881	6.73
303.094	6.58
303.307	6.28
303.519	6.42
303.732	6.6
303.944	6.36
304.157	6.41
304.37	5.92
304.582	5.68
304.795	5.45
305.007	5.23
305.22	4.89
305.432	5.24
305.645	5.36
305.857	5.15
306.069	5.1
306.282	5.16
306.494	5.15
306.707	5.37
306.919	5.21
307.132	4.64
307.344	4.74
307.556	4.75
307.769	4.66
307.981	4.63
308.193	4.59
308.406	4.61
308.618	5.02
308.83	5.14
309.043	5.01
309.255	5.24
309.467	5.48
309.679	5.87
309.892	6.04
310.104	6.05
310.316	6.39
310.528	6.26
310.74	6.34
310.953	6.11
311.165	5.93
311.377	6.11
311.589	6.1
311.801	6.11
312.013	6.06
312.225	5.87
312.437	5.81
312.649	5.48
312.862	5.85
313.074	5.81
313.286	5.93
313.498	6.3
313.71	6.57
313.922	6.34
314.134	6.49
314.346	6.09
314.558	6.32
314.77	6.61
314.982	6.61
315.193	6.86
315.405	6.85
315.617	6.64
315.829	6.4
316.041	6.43
316.253	6.78
316.465	6.8
316.677	7.07
316.888	7.15
317.1	7.18
317.312	7.13
317.524	6.86
317.736	6.63
317.947	7.01
318.159	6.36
318.371	6.12
318.583	5.9
318.794	6.47
319.006	6.41
319.218	6.19
319.43	5.98
319.641	6.47
319.853	6.04
320.064	6.42
320.276	6.69
320.488	7.37
320.699	7.42
320.911	7.62
321.123	6.94
321.334	6.87
321.546	7.15
321.757	7.32
321.969	6.87
322.18	7.47
322.392	7.47
322.603	7.21
322.815	7.21
323.026	7.38
323.238	7.11
323.449	7.4
323.661	7.48
323.872	7.38
324.083	7.62
324.295	8.14
324.506	8.04
324.718	7.84
324.929	7.79
325.14	7.98
325.352	7.86
325.563	8.08
325.774	8.23
325.986	8.37
326.197	8.52
326.408	8.32
326.62	8.18
326.831	8.48
327.042	8.96
327.253	9
327.464	9.01
327.676	9.41
327.887	9.77
328.098	9.42
328.309	9.34
328.52	9.44
328.732	9.41
328.943	9.48
329.154	9.13
329.365	8.86
329.576	8.72
329.787	8.8
329.998	8.32
330.209	8.16
330.42	8.46
330.631	8.74
330.842	8.86
331.053	9.18
331.264	9.34
331.475	9.35
331.686	9.88
331.897	10.13
332.108	10.22
332.319	10.67
332.53	10.43
332.741	10.52
332.952	10.34
333.163	9.82
333.374	9.67
333.585	9.82
333.795	10.23
334.006	10.11
334.217	10.45
334.428	10.26
334.639	9.96
334.849	10.05
335.06	10.02
335.271	10.28
335.482	10.39
335.692	10.4
335.903	10.2
336.114	9.8
336.325	9.76
336.535	9.35
336.746	9.25
336.957	9.18
337.167	9.35
337.378	9.43
337.589	9.04
337.799	9.16
338.01	9.3
338.22	9.15
338.431	9.44
338.642	9.19
338.852	9.72
339.063	10.08
339.273	10.13
339.484	10.23
339.694	10.22
339.905	10.29
340.115	10.79
340.326	10.63
340.536	10.67
340.746	10.47
340.957	10.52
341.167	10.05
341.378	10.1
341.588	10.28
341.799	10.22
342.009	10.15
342.219	10.46
342.43	10.15
342.64	10.12
342.85	10.21
343.061	10.43
343.271	10.42
343.481	10.38
343.691	10.11
343.902	10.11
344.112	9.79
344.322	9.83
344.532	9.61
344.743	9.63
344.953	9.59
345.163	9.65
345.373	9.54
345.583	9.27
345.793	9.43
346.004	9.49
346.214	9.53
346.424	9.82
346.634	9.93
346.844	9.73
347.054	9.55
347.264	9.67
347.474	9.42
347.684	9.33
347.894	9.79
348.104	9.83
348.314	9.82
348.524	9.48
348.734	9.47
348.944	9.38
349.154	9.38
349.364	9.51
349.574	9.22
349.784	9.51
349.994	9.39
350.204	9.2
350.413	8.86
350.623	8.8
350.833	9.18
351.043	9.13
351.253	9.03
351.463	9.32
351.672	9.34
351.882	9.48
352.092	8.96
352.302	8.74
352.511	8.79
352.721	8.82
352.931	8.54
353.141	8.5
353.35	8.65
353.56	8.7
353.77	8.52
353.979	8.52
354.189	8.44
354.399	8.8
354.608	9.28
354.818	9.16
355.027	9.18
355.237	9.2
355.447	8.57
355.656	8.45
355.866	8.28
356.075	8.37
356.285	8.34
356.494	8.43
356.704	8.43
356.913	8.24
357.123	8.32
357.332	8.42
357.542	8.44
357.751	8.8
357.96	8.93
358.17	8.97
358.379	9.05
358.589	8.92
358.798	8.81
359.007	8.93
359.217	9.14
359.426	9.27
359.635	9.37
359.845	9.64
360.054	9.52
360.263	9.41
360.472	9.39
360.682	9.35
360.891	9.48
361.1	9.6
361.309	9.36
361.519	9.19
361.728	9.21
361.937	9.1
362.146	9.1
362.355	9.03
362.564	8.94
362.774	8.92
362.983	8.9
363.192	8.84
363.401	8.96
363.61	9.03
363.819	9.03
364.028	8.77
364.237	8.76
364.446	8.68
364.655	8.64
364.864	8.8
365.073	8.9
365.282	8.94
365.491	8.96
365.7	8.64
365.909	8.61
366.118	8.8
366.327	8.82
366.536	8.66
366.745	8.67
366.954	8.78
367.162	8.62
367.371	8.47
367.58	8.17
367.789	8.08
367.998	8.23
368.207	8.12
368.415	8.07
368.624	8.08
368.833	8.29
369.042	8.14
369.25	8.01
369.459	7.93
369.668	8.09
369.877	8.24
370.085	8.37
370.294	8.16
370.503	8.4
370.711	8.65
370.92	8.78
371.129	8.78
371.337	8.73
371.546	8.78
371.754	8.9
371.963	8.62
372.171	8.77
372.38	8.52
372.589	8.53
372.797	8.56
373.006	8.15
373.214	7.8
373.423	7.67
373.631	7.74
373.84	7.89
374.048	7.79
374.256	7.87
374.465	7.73
374.673	7.78
374.882	7.87
375.09	7.71
375.298	7.6
375.507	7.84
375.715	7.83
375.923	7.66
376.132	7.73
376.34	7.61
376.548	7.55
376.757	7.35
376.965	7.18
377.173	7.03
377.381	6.91
377.59	6.99
377.798	6.94
378.006	6.94
378.214	7.1
378.423	6.81
378.631	6.91
378.839	6.93
379.047	7.15
379.255	7.2
379.463	7.42
379.671	7.26
379.879	7.08
380.088	6.78
380.296	6.62
380.504	6.35
380.712	6.52
380.92	6.2
381.128	6.18
381.336	5.94
381.544	5.99
381.752	5.75
381.96	6.03
382.168	6.12
382.376	6.26
382.584	6.22
382.791	6.39
382.999	6.09
383.207	6.16
383.415	6.28
383.623	6.36
383.831	6.34
384.039	6.47
384.247	6.41
384.454	6.59
384.662	6.37
384.87	6.39
385.078	6.17
385.285	6.44
385.493	6.63
385.701	6.51
385.909	6.37
386.116	6.28
386.324	5.96
386.532	5.8
386.739	5.51
386.947	5.73
387.155	5.81
387.362	5.94
387.57	5.78
387.778	5.68
387.985	5.58
388.193	5.55
388.4	5.54
388.608	5.58
388.816	5.34
389.023	5.44
389.231	5.07
389.438	4.84
389.646	4.82
389.853	4.84
390.061	4.5
390.268	4.55
390.475	4.66
390.683	4.68
390.89	4.77
391.098	4.96
391.305	4.95
391.512	5.08
391.72	5.3
391.927	5.27
392.135	5.17
392.342	5.23
392.549	5.16
392.756	5.17
392.964	5.07
393.171	5.12
393.378	5.1
393.586	4.96
393.793	5.07
394	4.96
394.207	5.05
394.414	5.11
394.622	5.1
394.829	5.31
395.036	5.16
395.243	5.27
395.45	5.06
395.657	5.13
395.864	5.09
396.072	4.92
396.279	4.97
396.486	4.81
396.693	4.92
396.9	5.14
397.107	4.82
397.314	4.87
397.521	4.83
397.728	4.9
397.935	4.74
398.142	4.76
398.349	4.9
398.556	4.83
398.763	4.84
398.97	4.64
399.177	4.45
399.383	4.48
399.59	4.47
399.797	4.43
400.004	4.33
400.211	4.36
400.418	4.28
400.625	4.12
400.831	4.05
401.038	3.88
401.245	3.82
401.452	3.87
401.658	4.08
401.865	4.07
402.072	4.24
402.279	4.24
402.485	4.19
402.692	4.24
402.899	4.2
403.105	4.26
403.312	4.29
403.519	4.38
403.725	4.43
403.932	4.27
404.138	4.17
404.345	3.93
404.552	3.96
404.758	3.97
404.965	4.02
405.171	4.03
405.378	3.94
405.584	3.92
405.791	3.98
405.997	3.88
406.204	3.95
406.41	3.95
406.617	3.92
406.823	3.9
407.029	3.9
407.236	3.78
407.442	3.65
407.649	3.64
407.855	3.73
408.061	3.68
408.268	3.68
408.474	3.65
408.68	3.81
408.887	3.95
409.093	3.91
409.299	3.91
409.505	4
409.712	4.13
409.918	4.15
410.124	4.05
410.33	4
410.537	4.09
410.743	3.92
410.949	3.87
411.155	3.9
411.361	3.9
411.567	3.8
411.773	3.74
411.98	3.84
412.186	3.76
412.392	3.88
412.598	3.68
412.804	3.53
413.01	3.63
413.216	3.36
413.422	3.3
413.628	3.15
413.834	3.38
414.04	3.28
414.246	3.27
414.452	3.3
414.658	3.24
414.864	3.34
415.07	3.35
415.275	3.38
415.481	3.53
415.687	3.41
415.893	3.5
416.099	3.4
416.305	3.59
416.511	3.56
416.716	3.52
416.922	3.52
417.128	3.58
417.334	3.59
417.539	3.59
417.745	3.62
417.951	3.64
418.157	3.68
418.362	3.6
418.568	3.46
418.774	3.37
418.979	3.39
419.185	3.32
419.391	3.31
419.596	3.37
419.802	3.36
420.008	3.35
420.213	3.37
420.419	3.34
420.624	3.36
420.83	3.42
421.035	3.53
421.241	3.59
421.446	3.67
421.652	3.67
421.857	3.61
422.063	3.59
422.268	3.53
422.474	3.49
422.679	3.5
422.885	3.55
423.09	3.55
423.295	3.43
423.501	3.43
423.706	3.42
423.911	3.37
424.117	3.34
424.322	3.36
424.527	3.41
424.733	3.41
424.938	3.44
425.143	3.41
425.349	3.34
425.554	3.41
425.759	3.38
425.964	3.3
426.169	3.38
426.375	3.42
426.58	3.34
426.785	3.3
426.99	3.32
427.195	3.25
427.4	3.27
427.605	3.3
427.811	3.23
428.016	3.13
428.221	3.23
428.426	3.08
428.631	3.09
428.836	3.2
429.041	3.2
429.246	3.2
429.451	3.28
429.656	3.28
429.861	3.31
430.066	3.31
430.271	3.41
430.476	3.42
430.681	3.42
430.886	3.42
431.09	3.29
431.295	3.39
431.5	3.38
431.705	3.3
431.91	3.37
432.115	3.35
432.32	3.33
432.524	3.32
432.729	3.2
432.934	3.24
433.139	3.26
433.343	3.38
433.548	3.35
433.753	3.29
433.958	3.37
434.162	3.26
434.367	3.21
434.572	3.32
434.776	3.31
434.981	3.41
435.186	3.36
435.39	3.28
435.595	3.23
435.799	3.33
436.004	3.39
436.209	3.34
436.413	3.32
436.618	3.37
436.822	3.27
437.027	3.32
437.231	3.27
437.436	3.4
437.64	3.48
437.845	3.46
438.049	3.35
438.253	3.41
438.458	3.38
438.662	3.42
438.867	3.46
439.071	3.44
439.275	3.35
439.48	3.35
439.684	3.27
439.888	3.26
440.093	3.09
440.297	3.1
440.501	3.06
440.706	3.08
440.91	3.07
441.114	3.08
441.318	3.12
441.523	3.18
441.727	3.2
441.931	3.31
442.135	3.25
442.339	3.48
442.543	3.52
442.748	3.61
442.952	3.67
443.156	3.67
443.36	3.59
443.564	3.6
443.768	3.56
443.972	3.5
444.176	3.43
444.38	3.47
444.584	3.37
444.788	3.25
444.992	3.16
445.196	3.05
445.4	3.07
445.604	3.08
445.808	3.09
446.012	3.05
446.216	3.05
446.42	2.98
446.624	3.02
446.828	3.03
447.032	3.02
447.235	2.93
447.439	2.99
447.643	2.96
447.847	2.88
448.051	2.84
448.254	2.84
448.458	2.81
448.662	2.87
448.866	2.81
449.069	2.73
449.273	2.74
449.477	2.86
449.681	2.76
449.884	2.77
450.088	2.85
450.292	2.95
450.495	2.96
450.699	2.95
450.902	2.9
451.106	2.87
451.31	2.9
451.513	2.85
451.717	2.83
451.92	2.93
452.124	2.92
452.327	2.96
452.531	2.75
452.734	2.74
452.938	2.8
453.141	2.76
453.345	2.78
453.548	2.83
453.752	2.98
453.955	2.98
454.158	2.99
454.362	3.01
454.565	3.04
454.769	3.1
454.972	3.13
455.175	3.23
455.379	3.22
455.582	3.16
455.785	3.13
455.988	3.05
456.192	3.1
456.395	3.11
456.598	3.04
456.801	3
457.005	3.1
457.208	3.1
457.411	3
457.614	3.05
457.817	3.11
458.021	3.14
458.224	3.21
458.427	3.09
458.63	3.06
458.833	3.04
459.036	3.03
459.239	3.07
459.442	3.08
459.645	3.04
459.848	3.13
460.051	3.1
460.254	3.07
460.457	3.02
460.66	3.01
460.863	2.9
461.066	2.96
461.269	2.98
461.472	2.92
461.675	2.89
461.878	2.83
462.081	2.77
462.284	2.86
462.486	2.86
462.689	2.93
462.892	3.09
463.095	3.24
463.298	3.12
463.5	3.09
463.703	3.03
463.906	3.01
464.109	3.1
464.311	3.02
464.514	3.03
464.717	3.04
464.92	2.95
465.122	2.88
465.325	2.9
465.528	2.97
465.73	2.9
465.933	2.89
466.135	2.92
466.338	2.9
466.541	2.93
466.743	2.76
466.946	2.73
467.148	2.7
467.351	2.69
467.553	2.51
467.756	2.52
467.958	2.64
468.161	2.69
468.363	2.72
468.566	2.76
468.768	2.81
468.971	2.84
469.173	2.9
469.375	2.91
469.578	2.8
469.78	2.92
469.983	2.92
470.185	2.77
470.387	2.74
470.59	2.8
470.792	2.84
470.994	2.81
471.196	2.83
471.399	2.84
471.601	2.88
471.803	3.02
472.005	3.09
472.208	3.09
472.41	3.15
472.612	3.2
472.814	3.11
473.016	3.14
473.218	3.03
473.421	3.1
473.623	3.01
473.825	3.01
474.027	2.96
474.229	2.93
474.431	2.92
474.633	2.91
474.835	2.84
475.037	2.9
475.239	2.88
475.441	2.96
475.643	3.01
475.845	3.03
476.047	3.12
476.249	3.14
476.451	3.11
476.653	3.15
476.855	3.17
477.057	3.19
477.258	3.2
477.46	3.23
477.662	3.24
477.864	3.07
478.066	3.07
478.268	3.11
478.469	3.15
478.671	3.16
478.873	3.15
479.075	3.08
479.276	3.06
479.478	2.97
479.68	2.97
479.882	2.96
480.083	3.08
480.285	3.15
480.487	3.06
480.688	3.03
480.89	2.97
481.091	2.97
481.293	2.98
481.495	3.03
481.696	3.02
481.898	2.94
482.099	2.97
482.301	2.96
482.502	2.94
482.704	2.94
482.905	2.91
483.107	2.95
483.308	2.96
483.51	2.97
483.711	2.97
483.913	3
484.114	3.01
484.315	3.02
484.517	3.01
484.718	3.01
484.92	3.01
485.121	3.03
485.322	3.01
485.524	3.02
485.725	3.02
485.926	2.99
486.127	3.02
486.329	3.04
486.53	3
486.731	3.03
486.932	3.03
487.134	3.05
487.335	3.09
487.536	3.06
487.737	3.08
487.938	3.05
488.139	3.04
488.341	3
488.542	3
488.743	3.03
488.944	3.01
489.145	2.98
489.346	2.92
489.547	2.91
489.748	2.97
489.949	2.95
490.15	2.99
490.351	3
490.552	3.02
490.753	3.02
490.954	3.01
491.155	3.05
491.356	3.08
491.557	3.1
491.758	3.06
491.959	3.04
492.159	3.02
492.36	3.06
492.561	3.07
492.762	3.03
492.963	3
493.164	2.97
493.364	2.95
493.565	2.9
493.766	2.89
493.967	2.92
494.167	2.97
494.368	3.06
494.569	3.04
494.769	3.07
494.97	3.06
495.171	3.12
495.371	3.22
495.572	3.16
495.773	3.19
495.973	3.26
496.174	3.23
496.375	3.15
496.575	3.09
496.776	3.16
496.976	3.13
497.177	3.23
497.377	3.23
497.578	3.19
497.778	3.18
497.979	3.21
498.179	3.22
498.38	3.25
498.58	3.27
498.78	3.35
498.981	3.23
499.181	3.22
499.382	3.13
499.582	3.06
499.782	3.06
499.983	3.16
500.183	3.15
500.383	3.18
500.584	3.15
500.784	3.2
500.984	3.15
501.184	3.22
501.385	3.3
501.585	3.37
501.785	3.44
501.985	3.45
502.185	3.49
502.386	3.47
502.586	3.5
502.786	3.59
502.986	3.56
503.186	3.63
503.386	3.62
503.586	3.59
503.786	3.6
503.987	3.63
504.187	3.64
504.387	3.62
504.587	3.63
504.787	3.61
504.987	3.67
505.187	3.79
505.387	3.73
505.587	3.86
505.786	3.9
505.986	4.02
506.186	4.01
506.386	4.08
506.586	4.11
506.786	4.18
506.986	4.25
507.186	4.28
507.386	4.28
507.585	4.3
507.785	4.31
507.985	4.36
508.185	4.36
508.384	4.44
508.584	4.55
508.784	4.55
508.984	4.53
509.183	4.55
509.383	4.55
509.583	4.49
509.782	4.56
509.982	4.61
510.182	4.66
510.381	4.7
510.581	4.75
510.781	4.71
510.98	4.77
511.18	4.94
511.379	4.95
511.579	5.05
511.778	5.15
511.978	5.2
512.177	5.26
512.377	5.27
512.576	5.33
512.776	5.36
512.975	5.4
513.175	5.51
513.374	5.54
513.573	5.55
513.773	5.58
513.972	5.68
514.172	5.8
514.371	5.86
514.57	6.03
514.77	6.01
514.969	6.07
515.168	6.1
515.367	6.11
515.567	6.22
515.766	6.28
515.965	6.4
516.164	6.42
516.364	6.48
516.563	6.58
516.762	6.55
516.961	6.76
517.16	6.84
517.359	6.99
517.559	7.06
517.758	7.07
517.957	7.15
518.156	7.18
518.355	7.25
518.554	7.25
518.753	7.23
518.952	7.34
519.151	7.33
519.35	7.36
519.549	7.4
519.748	7.45
519.947	7.51
520.146	7.63
520.345	7.67
520.544	7.77
520.743	7.89
520.942	8.07
521.141	8.16
521.339	8.22
521.538	8.35
521.737	8.47
521.936	8.61
522.135	8.72
522.333	8.76
522.532	8.93
522.731	9.03
522.93	9.01
523.129	9.01
523.327	9.13
523.526	9.23
523.725	9.3
523.923	9.33
524.122	9.45
524.321	9.52
524.519	9.65
524.718	9.73
524.917	9.76
525.115	9.9
525.314	10
525.512	10.07
525.711	10.13
525.909	10.29
526.108	10.36
526.306	10.38
526.505	10.49
526.703	10.59
526.902	10.7
527.1	10.84
527.299	11
527.497	11.09
527.696	11.15
527.894	11.25
528.092	11.26
528.291	11.37
528.489	11.45
528.688	11.53
528.886	11.54
529.084	11.58
529.283	11.63
529.481	11.67
529.679	11.72
529.877	11.76
530.076	11.81
530.274	11.89
530.472	11.97
530.67	12.1
530.869	12.2
531.067	12.34
531.265	12.48
531.463	12.57
531.661	12.68
531.859	12.78
532.057	12.91
532.255	13.04
532.454	13.14
532.652	13.21
532.85	13.21
533.048	13.23
533.246	13.3
533.444	13.32
533.642	13.38
533.84	13.44
534.038	13.52
534.236	13.59
534.434	13.6
534.632	13.63
534.83	13.73
535.027	13.86
535.225	13.96
535.423	14.03
535.621	14.14
535.819	14.25
536.017	14.32
536.215	14.38
536.412	14.41
536.61	14.55
536.808	14.67
537.006	14.73
537.203	14.79
537.401	14.85
537.599	14.93
537.797	15
537.994	15.05
538.192	15.11
538.39	15.2
538.587	15.32
538.785	15.45
538.983	15.64
539.18	15.73
539.378	15.9
539.575	16.06
539.773	16.17
539.97	16.26
540.168	16.39
540.366	16.47
540.563	16.59
540.761	16.71
540.958	16.74
541.155	16.75
541.353	16.85
541.55	16.88
541.748	16.93
541.945	16.97
542.143	17.05
542.34	17.1
542.537	17.14
542.735	17.16
542.932	17.15
543.129	17.24
543.327	17.35
543.524	17.38
543.721	17.53
543.919	17.65
544.116	17.77
544.313	17.89
544.51	18.08
544.708	18.34
544.905	18.6
545.102	18.8
545.299	18.98
545.496	19.02
545.693	19.14
545.891	19.23
546.088	19.23
546.285	19.28
546.482	19.28
546.679	19.27
546.876	19.17
547.073	19.01
547.27	19.05
547.467	18.99
547.664	18.99
547.861	18.94
548.058	18.82
548.255	18.93
548.452	18.99
548.649	18.99
548.846	18.88
549.043	18.95
549.24	19.06
549.437	18.95
549.633	18.92
549.83	19.03
550.027	19.04
550.224	19.1
550.421	19.09
550.618	19.08
550.814	19.17
551.011	19.3
551.208	19.28
551.405	19.25
551.601	19.44
551.798	19.53
551.995	19.49
552.191	19.65
552.388	19.73
552.585	19.73
552.781	19.84
552.978	19.79
553.175	19.76
553.371	19.77
553.568	19.88
553.764	19.87
553.961	19.79
554.157	19.78
554.354	19.77
554.55	19.74
554.747	19.8
554.943	19.79
555.14	19.84
555.336	19.89
555.533	19.84
555.729	19.83
555.926	19.81
556.122	19.86
556.318	20.07
556.515	20.12
556.711	20.27
556.907	20.28
557.104	20.26
557.3	20.43
557.496	20.41
557.693	20.65
557.889	20.49
558.085	20.52
558.281	20.64
558.478	20.49
558.674	20.45
558.87	20.38
559.066	20.38
559.262	20.5
559.459	20.47
559.655	20.62
559.851	20.63
560.047	20.94
560.243	20.96
560.439	20.92
560.635	21.08
560.831	21.12
561.027	21.21
561.223	21.16
561.419	21.18
561.615	21.14
561.811	21.26
562.007	21.24
562.203	21.17
562.399	21.29
562.595	21.33
562.791	21.34
562.987	21.36
563.183	21.29
563.379	21.45
563.575	21.51
563.771	21.53
563.966	21.53
564.162	21.49
564.358	21.57
564.554	21.49
564.75	21.63
564.945	21.73
565.141	21.7
565.337	21.78
565.533	21.77
565.728	21.78
565.924	21.82
566.12	21.86
566.315	22
566.511	21.98
566.707	22.09
566.902	22.11
567.098	22.03
567.293	22.26
567.489	22.32
567.684	22.34
567.88	22.29
568.076	22.44
568.271	22.54
568.467	22.53
568.662	22.65
568.858	22.74
569.053	22.8
569.248	22.81
569.444	22.76
569.639	22.86
569.835	23.02
570.03	23.08
570.225	23
570.421	23.01
570.616	23.08
570.812	23.08
571.007	23.07
571.202	23.09
571.397	23.16
571.593	23.23
571.788	23.25
571.983	23.24
572.178	23.31
572.374	23.32
572.569	23.31
572.764	23.34
572.959	23.26
573.154	23.34
573.35	23.26
573.545	23.3
573.74	23.27
573.935	23.26
574.13	23.28
574.325	23.3
574.52	23.36
574.715	23.39
574.91	23.43
575.105	23.69
575.3	23.61
575.495	23.64
575.69	23.74
575.885	23.86
576.08	23.99
576.275	24.08
576.47	24.23
576.665	24.33
576.86	24.29
577.055	24.4
577.25	24.45
577.444	24.56
577.639	24.75
577.834	24.74
578.029	24.83
578.224	24.72
578.418	24.8
578.613	24.79
578.808	24.82
579.003	24.86
579.197	24.92
579.392	24.84
579.587	24.97
579.781	24.82
579.976	24.88
580.171	24.88
580.365	24.95
580.56	24.89
580.755	24.93
580.949	24.9
581.144	24.88
581.338	24.77
581.533	24.91
581.727	24.8
581.922	25.03
582.116	25.03
582.311	25.1
582.505	25.09
582.7	25.12
582.894	25.1
583.089	25.23
583.283	25.4
583.478	25.52
583.672	25.36
583.866	25.29
584.061	25.27
584.255	25.39
584.449	25.39
584.644	25.45
584.838	25.45
585.032	25.61
585.226	25.62
585.421	25.53
585.615	25.48
585.809	25.62
586.003	25.81
586.198	25.99
586.392	25.98
586.586	25.97
586.78	26.06
586.974	26.19
587.168	26.16
587.363	26.06
587.557	26.09
587.751	26.01
587.945	26
588.139	25.97
588.333	25.87
588.527	25.68
588.721	25.67
588.915	25.66
589.109	25.52
589.303	25.55
589.497	25.53
589.691	25.64
589.885	25.66
590.079	25.62
590.273	25.59
590.466	25.59
590.66	25.66
590.854	25.57
591.048	25.69
591.242	25.75
591.436	25.74
591.629	25.84
591.823	25.84
592.017	25.93
592.211	26.09
592.404	26.14
592.598	26.1
592.792	26.28
592.986	26.31
593.179	26.24
593.373	26.16
593.567	26.14
593.76	26.1
593.954	26.17
594.147	26.19
594.341	26.09
594.535	26.1
594.728	26.03
594.922	25.9
595.115	25.98
595.309	26.03
595.502	26.28
595.696	26.21
595.889	26.25
596.083	26.23
596.276	26.29
596.47	26.31
596.663	26.23
596.856	26.26
597.05	26.29
597.243	26.25
597.437	26.12
597.63	25.86
597.823	25.95
598.017	25.96
598.21	25.98
598.403	25.93
598.596	25.92
598.79	25.95
598.983	26
599.176	26.12
599.369	26.18
599.563	26.11
599.756	26.14
599.949	26.08
600.142	26.06
600.335	26
600.528	25.87
600.722	25.89
600.915	25.89
601.108	26.02
601.301	25.96
601.494	26.07
601.687	26.23
601.88	26.32
602.073	26.35
602.266	26.28
602.459	26.3
602.652	26.31
602.845	26.31
603.038	26.36
603.231	26.32
603.424	26.35
603.617	26.18
603.809	26.08
604.002	25.96
604.195	25.96
604.388	26.02
604.581	26.06
604.774	26.01
604.966	25.88
605.159	25.83
605.352	25.76
605.545	25.66
605.737	25.84
605.93	25.86
606.123	26.01
606.316	25.99
606.508	26.07
606.701	25.98
606.894	26.24
607.086	26.54
607.279	26.65
607.471	26.84
607.664	27.06
607.857	27.05
608.049	27.4
608.242	27.59
608.434	27.92
608.627	28.29
608.819	28.81
609.012	29.31
609.204	29.84
609.397	30.53
609.589	31.16
609.782	31.89
609.974	32.62
610.166	33.32
610.359	34.27
610.551	35
610.743	35.66
610.936	36.16
611.128	36.56
611.32	36.69
611.513	36.74
611.705	36.68
611.897	36.53
612.09	36.49
612.282	36.22
612.474	35.69
612.666	35.29
612.858	34.72
613.051	34.35
613.243	33.74
613.435	33.44
613.627	33.17
613.819	32.84
614.011	32.51
614.203	32.13
614.395	31.67
614.588	31.34
614.78	30.99
614.972	30.86
615.164	30.56
615.356	30.29
615.548	30.16
615.74	30.02
615.932	29.93
616.124	29.57
616.315	29.18
616.507	29.08
616.699	28.75
616.891	28.44
617.083	27.98
617.275	27.86
617.467	27.82
617.659	27.75
617.85	27.5
618.042	27.23
618.234	27.23
618.426	27.45
618.618	27.18
618.809	27.23
619.001	27.47
619.193	27.53
619.384	27.68
619.576	27.52
619.768	27.31
619.959	27.26
620.151	27.38
620.343	27.38
620.534	27.37
620.726	27.75
620.917	27.88
621.109	27.55
621.301	27.63
621.492	27.55
621.684	27.66
621.875	27.48
622.067	27.45
622.258	27.51
622.45	27.54
622.641	27.46
622.832	27.32
623.024	27.3
623.215	27.45
623.407	27.57
623.598	27.61
623.789	27.8
623.981	27.94
624.172	28.04
624.363	28.12
624.555	28.16
624.746	28.09
624.937	28.17
625.129	28.17
625.32	28.06
625.511	28.08
625.702	27.97
625.893	27.84
626.085	28.14
626.276	28.16
626.467	28.12
626.658	28.32
626.849	28.26
627.04	28.15
627.231	28.17
627.422	28.3
627.614	28.26
627.805	28.2
627.996	28.18
628.187	27.97
628.378	28.08
628.569	28
628.76	27.89
628.951	28.04
629.142	28.18
629.332	28.26
629.523	28.32
629.714	28.37
629.905	28.63
630.096	28.8
630.287	28.76
630.478	28.75
630.669	28.83
630.859	28.9
631.05	28.77
631.241	28.87
631.432	28.72
631.623	28.62
631.813	28.56
632.004	28.39
632.195	28.26
632.385	28.27
632.576	28.2
632.767	28.09
632.957	27.96
633.148	27.91
633.339	27.79
633.529	27.56
633.72	27.4
633.91	27.35
634.101	27.19
634.292	27.11
634.482	27.07
634.673	27.02
634.863	27.03
635.054	27.03
635.244	27.01
635.435	26.92
635.625	27.07
635.815	27.12
636.006	27.08
636.196	27.06
636.387	27.07
636.577	26.89
636.767	26.93
636.958	26.8
637.148	26.87
637.338	26.8
637.529	26.92
637.719	26.93
637.909	27.01
638.099	26.95
638.29	26.9
638.48	26.8
638.67	27.07
638.86	26.91
639.05	26.96
639.241	26.72
639.431	26.99
639.621	26.72
639.811	26.83
640.001	26.79
640.191	27.07
640.381	27.42
640.571	27.65
640.761	27.59
640.951	27.6
641.141	27.71
641.331	27.84
641.521	27.83
641.711	27.8
641.901	27.75
642.091	27.6
642.281	27.31
642.471	27.24
642.661	27.27
642.851	27.32
643.041	27.69
643.231	27.58
643.42	27.41
643.61	27.41
643.8	27.65
643.99	27.5
644.18	27.64
644.369	27.69
644.559	27.53
644.749	27.58
644.939	27.53
645.128	27.25
645.318	27.28
645.508	27.33
645.697	27.25
645.887	27.29
646.076	27.48
646.266	27.61
646.456	27.85
646.645	27.88
646.835	27.87
647.024	27.69
647.214	27.91
647.403	27.94
647.593	27.97
647.782	28.03
647.972	28.07
648.161	27.99
648.351	27.98
648.54	27.8
648.73	27.9
648.919	27.77
649.108	28.17
649.298	27.98
649.487	28.03
649.677	28.21
649.866	28.12
650.055	28.01
650.244	28.17
650.434	28.27
650.623	28.14
650.812	28.21
651.002	28.11
651.191	28.05
651.38	28.22
651.569	28.24
651.758	27.98
651.947	27.91
652.137	28.03
652.326	27.97
652.515	27.84
652.704	28.04
652.893	27.72
653.082	27.92
653.271	27.66
653.46	27.46
653.649	27.6
653.838	27.87
654.027	27.83
654.216	27.75
654.405	27.74
654.594	27.75
654.783	27.65
654.972	27.64
655.161	27.59
655.35	27.9
655.539	27.65
655.728	27.28
655.916	27.18
656.105	27.09
656.294	27.1
656.483	27.19
656.672	27.17
656.86	27.04
657.049	27.19
657.238	27.4
657.427	27.26
657.615	27.46
657.804	27.61
657.993	27.57
658.181	27.65
658.37	27.71
658.559	27.6
658.747	27.57
658.936	27.71
659.125	27.34
659.313	27.16
659.502	27.19
659.69	27.12
659.879	27.23
660.067	27.24
660.256	27.32
660.444	27.22
660.633	27.17
660.821	27.24
661.01	27.3
661.198	27.82
661.387	27.84
661.575	27.9
661.763	28.02
661.952	28.09
662.14	27.93
662.328	27.89
662.517	27.9
662.705	27.82
662.893	27.75
663.082	27.77
663.27	27.77
663.458	27.81
663.646	27.83
663.834	27.96
664.023	27.62
664.211	27.94
664.399	27.93
664.587	27.95
664.775	28.11
664.963	28.1
665.152	28.18
665.34	28.04
665.528	28.1
665.716	27.81
665.904	27.67
666.092	27.66
666.28	27.68
666.468	27.61
666.656	27.45
666.844	27.48
667.032	27.63
667.22	27.46
667.408	27.28
667.596	27.31
667.784	27.51
667.971	27.31
668.159	27.47
668.347	27.72
668.535	27.83
668.723	28.06
668.911	27.95
669.098	27.75
669.286	27.78
669.474	28.17
669.662	28.02
669.849	28.07
670.037	28.23
670.225	28.04
670.413	27.86
670.6	27.89
670.788	27.94
670.976	27.96
671.163	27.98
671.351	28
671.538	27.81
671.726	27.94
671.913	27.74
672.101	27.86
672.289	28.16
672.476	28.06
672.664	28.05
672.851	27.9
673.039	27.96
673.226	28.15
673.413	27.93
673.601	27.68
673.788	27.53
673.976	27.83
674.163	27.93
674.35	28.1
674.538	27.93
674.725	27.98
674.912	27.95
675.1	27.79
675.287	27.64
675.474	27.76
675.662	28.1
675.849	28.15
676.036	27.95
676.223	27.78
676.411	27.48
676.598	27.55
676.785	27.37
676.972	27.6
677.159	27.81
677.346	27.9
677.533	28.04
677.721	28.13
677.908	28.24
678.095	28.22
678.282	28.16
678.469	28.34
678.656	28.33
678.843	28.26
679.03	28.05
679.217	28.01
679.404	28.01
679.591	27.86
679.778	27.77
679.964	27.7
680.151	27.86
680.338	28.1
680.525	28.09
680.712	28.11
680.899	28.26
681.086	28.34
681.272	28.3
681.459	28.36
681.646	28.45
681.833	28.32
682.02	28.28
682.206	28.31
682.393	28.2
682.58	28.03
682.766	28.15
682.953	28.18
683.14	28.19
683.326	28.46
683.513	28.52
683.7	28.58
683.886	29.04
684.073	29.01
684.259	29.07
684.446	29.15
684.632	29.05
684.819	29.14
685.005	29.43
685.192	29.44
685.378	29.45
685.565	29.43
685.751	29.45
685.938	29.14
686.124	29.42
686.31	29.33
686.497	29.3
686.683	29.64
686.87	29.42
687.056	29.19
687.242	29.26
687.429	28.82
687.615	28.64
687.801	28.89
687.987	28.91
688.174	28.5
688.36	28.61
688.546	28.47
688.732	28.36
688.918	28.3
689.105	28.33
689.291	28.17
689.477	28.46
689.663	28.32
689.849	27.98
690.035	27.84
690.221	27.85
690.407	27.72
690.593	27.68
690.779	27.58
690.965	27.46
691.151	27.38
691.337	27.74
691.523	27.62
691.709	28.04
691.895	27.96
692.081	28.03
692.267	27.97
692.453	28.08
692.639	28.23
692.825	28.08
693.011	28.18
693.196	28.26
693.382	28.01
693.568	27.97
693.754	27.8
693.94	27.93
694.125	28
694.311	28.3
694.497	27.83
694.682	27.71
694.868	27.57
695.054	27.39
695.239	27.16
695.425	27.07
695.611	26.95
695.796	26.74
695.982	26.73
696.168	26.8
696.353	26.45
696.539	26.91
696.724	27.21
696.91	27.39
697.095	27.58
697.281	27.81
697.466	27.71
697.652	27.71
697.837	27.84
698.023	27.88
698.208	27.68
698.393	27.81
698.579	27.86
698.764	27.8
698.949	28.15
699.135	28.2
699.32	28.06
699.505	27.98
699.691	28.3
699.876	28.29
700.061	28.47
700.246	28.56
700.432	28.95
700.617	29.04
700.802	28.96
700.987	28.73
701.172	28.83
701.358	29.12
701.543	29.56
701.728	29.18
701.913	29.41
702.098	29.26
702.283	29.39
702.468	29.29
702.653	29.18
702.838	28.91
703.023	28.81
703.208	28.78
703.393	28.61
703.578	28.62
703.763	28.75
703.948	28.73
704.133	28.58
704.318	28.83
704.503	28.33
704.688	28.18
704.873	28.63
705.057	28.98
705.242	28.91
705.427	29.24
705.612	29.17
705.797	29.67
705.981	30.29
706.166	30.65
706.351	30.47
706.536	31.32
706.72	31.1
706.905	31.55
707.09	31.51
707.274	31.87
707.459	31.85
707.644	31.98
707.828	31.9
708.013	31.18
708.197	30.91
708.382	31.01
708.567	30.63
708.751	30.94
708.936	30.61
709.12	30.71
709.305	30.59
709.489	30.28
709.673	30.48
709.858	30.14
710.042	30.21
710.227	30.29
710.411	30.17
710.596	30.33
710.78	30.27
710.964	30.26
711.149	30.42
711.333	30.48
711.517	30.79
711.702	30.72
711.886	30.42
712.07	30.45
712.254	30.43
712.438	30.71
712.623	30.74
712.807	30.44
712.991	30.22
713.175	29.52
713.359	29.4
713.544	29.12
713.728	28.75
713.912	28.72
714.096	28.75
714.28	28.73
714.464	28.38
714.648	27.89
714.832	28.22
715.016	28.38
715.2	28.46
715.384	27.94
715.568	27.9
715.752	27.79
715.936	28.02
716.12	27.82
716.304	27.68
716.488	27.6
716.671	27.34
716.855	27.15
717.039	26.64
717.223	26.58
717.407	26.76
717.59	26.48
717.774	26.67
717.958	26.75
718.142	27.06
718.325	27.33
718.509	27.25
718.693	27.74
718.877	28.01
719.06	28.51
719.244	28.62
719.428	28.89
719.611	29.1
719.795	29.19
719.978	29.41
720.162	28.87
720.345	28.6
720.529	28.82
720.713	28.88
720.896	28.93
721.08	28.72
721.263	28.88
721.446	28.29
721.63	28.81
721.813	28.4
721.997	28.15
722.18	28.21
722.364	28.11
722.547	28.39
722.73	28.05
722.914	27.68
723.097	27.83
723.28	28.12
723.464	28.76
723.647	28.34
723.83	28.43
724.013	28.3
724.197	28.53
724.38	28.47
724.563	28.39
724.746	28.39
724.929	28.54
725.112	28.59
725.296	28.25
725.479	28.3
725.662	28.05
725.845	28.48
726.028	28.81
726.211	28.83
726.394	28.75
726.577	28.7
726.76	28.98
726.943	29.11
727.126	28.73
727.309	28.72
727.492	28.41
727.675	28.98
727.858	28.34
728.041	28.27
728.224	28.24
728.407	28.18
728.589	28.34
728.772	28.77
728.955	28.78
729.138	28.82
729.321	28.41
729.503	28.38
729.686	28.01
729.869	28.4
730.052	28.06
730.234	27.89
730.417	27.92
730.6	27.3
730.782	26.4
730.965	26.11
731.148	25.87
731.33	26.3
731.513	26.54
731.695	26.68
731.878	26.8
732.061	26.94
732.243	27.44
732.426	27.66
732.608	28.39
732.791	28.94
732.973	29.04
733.156	29.1
733.338	29.07
733.52	29.29
733.703	29.1
733.885	28.84
734.068	28.91
734.25	28.84
734.432	28.89
734.615	28.2
734.797	28.23
734.979	27.74
735.162	28.09
735.344	28.08
735.526	28.19
735.708	28.61
735.891	28.61
736.073	28.94
736.255	28.27
736.437	28.14
736.619	28.27
736.802	27.98
736.984	28.44
737.166	28.42
737.348	28.28
737.53	27.59
737.712	27.18
737.894	27.67
738.076	27.48
738.258	27.89
738.44	27.66
738.622	27.72
738.804	27.85
738.986	27.63
739.168	27.37
739.35	27.43
739.532	27.63
739.714	27.74
739.896	27.95
740.078	27.92
740.259	28.24
740.441	28.92
740.623	28.64
740.805	28.46
740.987	28.46
741.168	29.03
741.35	29.04
741.532	29.16
741.714	29.04
741.895	28.46
742.077	28.28
742.259	27.61
742.44	27.39
742.622	28.11
742.804	28.51
742.985	28.68
743.167	28.49
743.348	28.12
743.53	27.48
743.711	27.66
743.893	27.6
744.075	27.38
744.256	27.88
744.438	28.14
744.619	27.51
744.8	27.33
744.982	27.13
745.163	27.66
745.345	27.72
745.526	28.07
745.707	27.99
745.889	28.78
746.07	29.32
746.252	28.96
746.433	28.74
746.614	29.01
746.795	29.42
746.977	29.97
747.158	29.38
747.339	30.39
747.52	30.74
747.702	30.69
747.883	29.62
748.064	28.99
748.245	29.24
748.426	29.2
748.607	29.38
748.788	28.39
748.97	28.07
749.151	27.97
749.332	27.78
749.513	26.91
749.694	26.73
749.875	27.05
750.056	27.36
750.237	27.47
750.418	27.65
750.599	27.27
750.78	27.42
750.96	27.52
751.141	27.73
751.322	27.17
751.503	27.86
751.684	27.82
751.865	27.8
752.046	27.84
752.226	27.86
752.407	27.91
752.588	27.65
752.769	27.71
752.949	27.48
753.13	27.25
753.311	26.89
753.492	27.04
753.672	27.49
753.853	27.56
754.034	27.84
754.214	27.67
754.395	26.67
754.575	26.69
754.756	26.84
754.937	27.09
755.117	27.2
755.298	27.95
755.478	28.21
755.659	27.65
755.839	26.97
756.02	27.08
756.2	26.98
756.381	28.06
756.561	28.38
756.741	28.67
756.922	28.66
757.102	28.39
757.283	28.16
757.463	27.43
757.643	27.86
757.823	28.31
758.004	28.09
758.184	28.16
758.364	27.47
758.545	27.35
758.725	27.45
758.905	27.23
759.085	27.25
759.265	27.02
759.446	26.87
759.626	27.24
759.806	27.28
759.986	27.34
760.166	27.47
760.346	27.7
760.526	28.07
760.706	27.4
760.886	27.62
761.066	27.66
761.246	27.96
761.426	28.97
761.606	28.24
761.786	27.96
761.966	28.62
762.146	27.7
762.326	27.98
762.506	27.96
762.686	28
762.866	28.17
763.046	28.1
763.225	27.99
763.405	27.79
763.585	27.88
763.765	27.69
763.945	27.38
764.124	28.31
764.304	27.96
764.484	27.87
764.664	28.17
764.843	28.31
765.023	28.6
765.203	28.01
765.382	27.65
765.562	27.91
765.741	28.52
765.921	28.12
766.101	27.4
766.28	27.69
766.46	27.18
766.639	26.93
766.819	26.15
766.998	26.04
767.178	26.49
767.357	26.09
767.537	25.83
767.716	25.52
767.896	25.62
768.075	25.73
768.254	26.12
768.434	26.31
768.613	26.74
768.792	27.24
768.972	27.48
769.151	27.76
769.33	28.85
769.51	29.07
769.689	29.6
769.868	29.22
770.047	30.19
770.226	29.29
770.406	29.65
770.585	29.63
770.764	29.15
770.943	28.74
771.122	29.03
771.301	28.18
771.48	27.51
771.66	27.19
771.839	27.52
772.018	26.81
772.197	27.19
772.376	27.4
772.555	26.81
772.734	27.29
772.913	27.28
773.092	27.36
773.271	27.84
773.449	29.09
773.628	28.89
773.807	29.25
773.986	29.54
774.165	29.26
774.344	29.37
774.523	29.65
774.701	28.97
774.88	28.55
775.059	27.89
775.238	27.93
775.417	27.07
775.595	26.86
775.774	26.07
775.953	26.12
776.131	25.65
776.31	25.57
776.489	24.98
776.667	25.57
776.846	25.73
777.025	25.64
777.203	24.97
777.382	25.16
777.56	25.55
777.739	25.48
777.917	24.83
778.096	25.15
778.274	25.38
778.453	25.96
778.631	25.87
778.81	25.4
778.988	25.67
779.166	26.35
779.345	26.63
779.523	26.49
779.702	27.56
779.88	28.48
780.058	28.13
780.237	28.6
780.415	29.16
780.593	28.83
780.771	29.61
780.95	29.51
781.128	29.11
781.306	28.72
781.484	29
781.662	27.79
781.841	26.71
782.019	27.77
782.197	27.12
782.375	25.75
782.553	25.47
782.731	25.07
782.909	25.4
783.087	25.89
783.265	25.44
783.443	24.46
783.621	26.02
783.799	26.51
783.977	25.94
784.155	24.68
784.333	25.65
784.511	26.14
784.689	26.09
784.867	25.75
785.045	25.44
785.223	25.44
785.4	24.9
785.578	24.24
785.756	23.97
785.934	24.55
786.112	25.82
786.289	26.04
786.467	26.1
786.645	25.97
786.823	26.01
787	26.27
787.178	27.1
787.356	28.64
787.533	28.56
787.711	27.47
787.889	27.07
788.066	26.23
788.244	26.09
788.421	25.72
788.599	25.58
788.776	25.86
788.954	25.49
789.131	24.64
789.309	24.04
789.486	24.25
789.664	25.65
789.841	25.78
790.019	26.33
790.196	25.68
790.373	26.37
790.551	26.2
790.728	25.88
790.906	26.52
791.083	28.94
791.26	29.43
791.437	29.08
791.615	29.39
791.792	28.48
791.969	28.65
792.146	29.16
792.324	29.51
792.501	29.82
792.678	30.25
792.855	29.62
793.032	27.47
793.209	27.49
793.387	26.32
793.564	24.19
793.741	25.62
793.918	25.49
794.095	26.05
794.272	25.4
794.449	26.13
794.626	26.74
794.803	27.06
794.98	27.27
795.157	27.02
795.334	27.65
795.511	29.16
795.688	28.64
795.864	28.44
796.041	28.12
796.218	28.52
796.395	27.61
796.572	26.9
796.749	27.24
796.925	27.63
797.102	27.77
797.279	27.93
797.456	27.73
797.632	27.29
797.809	27.51
797.986	27.64
798.162	27.48
798.339	28.08
798.516	28.28
798.692	28.41
798.869	28.49
799.046	28
799.222	28.11
799.399	29.9
799.575	30.56
799.752	30.56
799.928	30.49
800.105	30.2
800.281	30.33
800.458	30.6
800.634	30.52
800.811	30.02
800.987	30.78
801.163	30.64
801.34	28.41
801.516	28.2
801.692	29.23
801.869	28.52
802.045	27.3
802.221	25.97
802.398	25.89
802.574	26.37
802.75	26.84
802.926	26.88
803.103	26.48
803.279	26.3
803.455	25.89
803.631	25.3
803.807	26.68
803.983	27.55
804.16	28.52
804.336	27.58
804.512	26.45
804.688	25.9
804.864	25.54
805.04	27.85
805.216	28.81
805.392	30.68
805.568	30.13
805.744	28.8
805.92	28.85
806.096	29.71
806.272	30.1
806.448	30.71
806.623	31.23
806.799	30.57
806.975	28.21
807.151	27.68
807.327	24.96
807.503	22.96
807.678	22
807.854	21.77
808.03	20.79
808.206	20.66
808.381	19.45
808.557	18.68
808.733	19.08
808.908	19.67
809.084	18.71
809.26	20.2
809.435	20.92
809.611	22.26
809.787	22.28
809.962	22.81
810.138	23.31
810.313	23.22
810.489	23.58
810.664	23.87
810.84	23.76
811.015	25.73
811.191	25.9
811.366	27.92
811.542	28.54
811.717	30.98
811.892	31.21
812.068	30.66
812.243	31.34
812.419	30.78
812.594	30.76
812.769	31.23
812.944	31.11
813.12	31.7
813.295	29.81
813.47	28.67
813.645	26.25
813.821	24.89
813.996	25.2
814.171	25.63
814.346	26.29
814.521	25.45
814.697	25.15
814.872	25.4
815.047	24.16
815.222	25.2
815.397	26.31
815.572	27.17
815.747	27.32
815.922	29.28
816.097	27.71
816.272	27.92
816.447	28.28
816.622	29.29
816.797	27.98
816.972	28.18
817.147	27.99
817.322	28.22
817.496	27.35
817.671	29.23
817.846	27.24
818.021	27.2
818.196	26.56
818.371	27.45
818.545	26.68
818.72	27.01
818.895	26.55
819.069	26.59
819.244	26.44
819.419	26.32
819.594	26.12
819.768	26.08
819.943	25.98
820.117	26.31
820.292	25.95
820.467	25.88
820.641	25.05
820.816	25.3
820.99	25.45
821.165	25.4
821.339	25.64
821.514	25.71
821.688	25.79
821.863	25.96
822.037	25.99
822.212	25.95
822.386	26.1
822.56	26.37
822.735	26.5
822.909	26.48
823.084	26.43
823.258	26.25
823.432	26.19
823.606	26.07
823.781	26.16
823.955	26.04
824.129	26.05
824.303	26.16
824.478	26.29
824.652	25.92
824.826	25.52
825	25.49
825.174	25.98
825.348	25.67
825.523	26
825.697	26.34
825.871	26.27
826.045	26.42
826.219	25.81
826.393	25.82
826.567	25.88
826.741	26.47
826.915	26.72
827.089	26.5
827.263	26.71
827.437	26.68
827.611	26.14
827.784	26.48
827.958	26.56
828.132	26.58
828.306	26.14
828.48	26.09
828.654	26.44
828.827	26.27
829.001	26.38
829.175	26.28
829.349	26.06
829.522	26.89
829.696	27.21
829.87	26.49
830.044	26.57
830.217	26.85
830.391	27.77
830.565	26.43
830.738	24.98
830.912	24.63
831.085	23.93
831.259	23.63
831.432	22.32
831.606	20.93
831.779	21.73
831.953	22.09
832.126	22.64
832.3	22.31
832.473	23.35
832.647	24.43
832.82	25.04
832.994	25.09
833.167	26.28
833.34	26.9
833.514	26.94
833.687	26.68
833.86	26.44
834.034	26.21
834.207	25.68
834.38	25.37
834.553	25.42
834.727	25.22
834.9	25.32
835.073	24.62
835.246	23.76
835.419	23.94
835.593	23.75
835.766	24.37
835.939	23.78
836.112	24.24
836.285	24.05
836.458	24.7
836.631	24.54
836.804	25.17
836.977	23.99
837.15	24.56
837.323	24.23
837.496	23.46
837.669	22.24
837.842	22.05
838.015	22.66
838.188	21.99
838.361	21.04
838.533	21.13
838.706	21.1
838.879	22.87
839.052	24.39
839.225	24.38
839.398	24.13
839.57	26.06
839.743	28.81
839.916	29.04
840.088	28.78
840.261	28.34
840.434	27.01
840.607	26.53
840.779	26.34
840.952	26.49
841.124	28
841.297	27.48
841.47	25.23
841.642	22.95
841.815	22.55
841.987	25.09
842.16	26.35
842.332	29.2
842.505	29.91
842.677	30.3
842.85	26.71
843.022	24.52
843.194	28.18
843.367	29.03
843.539	29.65
843.712	28.75
843.884	27.22
844.056	27.01
844.229	22.5
844.401	24.3
844.573	23.4
844.745	27.55
844.918	26.25
845.09	25.08
845.262	26.4
845.434	24.16
845.606	25.35
845.779	23.96
845.951	21.21
846.123	23.84
846.295	21.25
846.467	19.19
846.639	19.23
846.811	19.02
846.983	18.58
847.155	15.37
847.327	17.16
847.499	16.74
847.671	16.49
847.843	19.15
848.015	20.02
848.187	18.93
848.359	21.2
848.531	19.31
848.703	19.89
848.875	19.98
849.047	19.83
849.218	23.37
849.39	23.86
849.562	24.87
849.734	25.04
849.905	24.22
850.077	23.7
850.249	20.62
850.421	20.5
850.592	22.42
850.764	22.64
850.936	25.21
851.107	22.79
851.279	22.09
851.451	23.22
851.622	19.41
851.794	22.36
851.965	24.7
852.137	25.54
852.308	28.09
852.48	29.08
852.651	26.87
852.823	27.11
852.994	24.71
853.166	22.07
853.337	22.73
853.509	26.2
853.68	22.35
853.851	22.54
854.023	25.57
854.194	22.23
854.365	20.61
854.537	19.81
854.708	18.41
854.879	22.44
855.05	25.45
855.222	25.69
855.393	23.29
855.564	21.24
855.735	23.38
855.906	23.08
856.078	20.56
856.249	21.88
856.42	25.19
856.591	26.93
856.762	24.78
856.933	26.23
857.104	26.64
857.275	29.79
857.446	30.37
857.617	25.41
857.788	23.19
857.959	26
858.13	20.09
858.301	21.81
858.472	19.76
858.643	16.05
858.814	10.8
858.985	7.13
859.155	4.65
859.326	6.25
859.497	10.21
859.668	12.94
859.839	6.95
860.009	9.6
860.18	7.25
860.351	8.53
860.522	14.29
860.692	18.74
860.863	22.97
861.034	22.39
861.204	22.45
861.375	22.81
861.546	23.14
861.716	27.99
861.887	25.58
862.057	25.04
862.228	25.95
862.398	21.73
862.569	21.26
862.739	15.24
862.91	17.66
863.08	16.92
863.251	17.31
863.421	10.46
863.592	15.62
863.762	15.15
863.932	17.15
864.103	17.22
864.273	17.34
864.443	12.83
864.614	18.36
864.784	14.98
864.954	16.31
865.125	14.29
865.295	21.71
865.465	17.23
865.635	23.55
865.805	23.55
865.976	23.33
866.146	25.85
866.316	27.4
866.486	25.58
866.656	29.62
866.826	31.36
866.996	33.35
867.166	34.63
867.336	33.75
867.506	30.09
867.676	29.12
867.846	28.62
868.016	27.81
868.186	32.07
868.356	29.42
868.526	25.8
868.696	25.12
868.866	25.4
869.036	14.86
869.206	14.42
869.376	19.71
869.545	19.17
869.715	13.77
869.885	14.57
870.055	14.96
870.224	17.61
870.394	17.54
870.564	14.78
870.734	15.38
870.903	20.33
871.073	22.53
871.243	22.8
871.412	20.56
871.582	23.66
871.751	24
871.921	19.77
872.091	15.9
872.26	19.09
872.43	18.91
872.599	18.46
872.769	16.79
872.938	16.56
873.108	11.87
873.277	15.99
873.446	18.75
873.616	20.09
873.785	19.99
873.955	21.12
874.124	21.03
874.293	21.97
874.463	22.49
874.632	24.53
874.801	26.4
874.971	29.67
875.14	27.04
875.309	21.69
875.478	18.28
875.647	17.06
875.817	17.96
875.986	13.6
876.155	14.21
876.324	12.7
876.493	14.89
876.662	12.99
876.831	5.51
877	4.7
877.17	6.78
877.339	9.28
877.508	14.39
877.677	15.29
877.846	15.85
878.015	17.33
878.184	15.9
878.352	12.55
878.521	15.06
878.69	20.86
878.859	20.02
879.028	18.6
879.197	21.69
879.366	19.15
879.534	19.58
879.703	19.18
879.872	20.62
880.041	20.41
880.21	21.15
880.378	19.9
880.547	20.64
880.716	21.49
880.884	24.91
881.053	23.47
881.222	24.11
881.39	23.89
881.559	24.32
881.727	24.2
881.896	24.17
882.065	24.91
882.233	25.28
882.402	25.05
882.57	24.99
882.739	23.69
882.907	24.1
883.076	24.12
883.244	24.58
883.412	24.94
883.581	24.93
883.749	25.91
883.918	25.12
884.086	24.71
884.254	25.62
884.423	25.57
884.591	25.57
884.759	25.59
884.927	26.28
885.096	26.03
885.264	23.51
885.432	22.43
885.6	22.01
885.769	21.07
885.937	21.35
886.105	18.56
886.273	18.7
886.441	20.06
886.609	19.61
886.777	18.08
886.945	18.23
887.113	22.73
887.281	21.41
887.449	20.06
887.617	19.67
887.785	21.34
887.953	18.87
888.121	16.66
888.289	20.32
888.457	15.03
888.625	13.35
888.793	13.06
888.961	7.58
889.129	12.07
889.296	13.94
889.464	17.86
889.632	13.71
889.8	17.49
889.967	20.72
890.135	12.38
