Data from 2938713__Reflection_02.txt Node
Date: Tue Mar 17 19:16:33 EDT 2015
User: robert
Spectrometer: USB4E03002
Autoset integration time: false
Trigger mode: 4
Integration Time (sec): 1.000000E-1
Scans to average: 10
Electric dark correction enabled: false
Nonlinearity correction enabled: false
Boxcar width: 5
Stray light correction enabled: false
XAxis mode: Wavelengths
Stop averaging: false
Number of Pixels in Spectrum: 3648
>>>>>Begin Spectral Data<<<<<
177.575	1588.89
177.794	202.33
178.014	133.83
178.233	153.54
178.452	217.24
178.672	71.15
178.891	63.91
179.11	18.36
179.33	-8.4
179.549	-20.8
179.768	-5.42
179.987	0.48
180.207	39.3
180.426	62.39
180.645	51.19
180.864	197.14
181.084	-557.14
181.303	60.71
181.522	-92.42
181.741	-11.94
181.96	0.69
182.179	3.99
182.398	16.71
182.618	17.73
182.837	50.49
183.056	52.01
183.275	48.98
183.494	51.02
183.713	53.93
183.932	78.16
184.151	96.27
184.37	77.97
184.589	182.87
184.808	182.32
185.027	119.79
185.246	78.23
185.465	67.48
185.684	114.04
185.903	126.35
186.122	35.85
186.341	-76.06
186.56	-265.22
186.779	136.88
186.998	82.46
187.216	51.45
187.435	58.94
187.654	91.18
187.873	142.68
188.092	135.32
188.311	96.52
188.53	87.34
188.748	57.63
188.967	43.06
189.186	42.86
189.405	13.16
189.623	47.26
189.842	-11.79
190.061	13.01
190.28	9.04
190.498	24.76
190.717	20.18
190.936	12.95
191.154	31.33
191.373	32.85
191.592	112.25
191.81	153.24
192.029	183.64
192.248	116.78
192.466	86.45
192.685	102.68
192.904	62.48
193.122	100.33
193.341	124.28
193.559	176.83
193.778	194.64
193.996	117.64
194.215	108.56
194.433	103.25
194.652	148.34
194.87	208.92
195.089	164.92
195.307	210.27
195.526	170.75
195.744	137.42
195.963	123.87
196.181	97.95
196.399	71.7
196.618	67.18
196.836	53.16
197.055	-34.78
197.273	-110.39
197.491	-768.75
197.71	254.55
197.928	333.33
198.146	646.51
198.365	823.08
198.583	-6066.67
198.801	22.82
199.019	-159.09
199.238	-882.35
199.456	123.42
199.674	111.57
199.892	68.1
200.111	61.03
200.329	66.91
200.547	68.65
200.765	73.07
200.983	76.58
201.202	57.28
201.42	72.32
201.638	59.19
201.856	39.65
202.074	28.74
202.292	36.84
202.51	25.73
202.728	6.75
202.946	27.69
203.165	36.05
203.383	3.21
203.601	27.7
203.819	18.12
204.037	11.83
204.255	-4.03
204.473	-7.71
204.691	-12.47
204.909	-6.32
205.127	-21.7
205.345	-67.22
205.562	-122.74
205.78	-33.44
205.998	-110.95
206.216	-110.27
206.434	-150.86
206.652	1100
206.87	-17.82
207.088	-46.57
207.306	-319.64
207.523	304.21
207.741	93.73
207.959	125.69
208.177	57.47
208.395	112.36
208.612	60.84
208.83	71.83
209.048	36.24
209.266	172.41
209.483	-15.62
209.701	-44.21
209.919	-96.55
210.136	-104.12
210.354	-59.34
210.572	-19.07
210.79	-82.35
211.007	-192.5
211.225	-35.75
211.442	-79.94
211.66	-18.91
211.878	15.32
212.095	20.45
212.313	17.72
212.53	21.26
212.748	22.48
212.966	6.57
213.183	18.59
213.401	29.78
213.618	30.95
213.836	54.78
214.053	37.82
214.271	22.04
214.488	18.01
214.705	28.2
214.923	27.27
215.14	22.69
215.358	21.3
215.575	20.55
215.793	5.76
216.01	-16.39
216.227	-1.56
216.445	-2.72
216.662	11.9
216.879	12.07
217.097	-1.6
217.314	6.49
217.531	24.28
217.749	20.14
217.966	20.29
218.183	48.3
218.4	75.11
218.618	62.43
218.835	42.67
219.052	41.18
219.269	56.82
219.487	46.61
219.704	40.84
219.921	25.85
220.138	35.72
220.355	43.74
220.572	40.1
220.79	27.86
221.007	25.89
221.224	24.82
221.441	24.7
221.658	18.52
221.875	21.25
222.092	15.56
222.309	14.8
222.526	12.34
222.743	10.05
222.96	-0.23
223.177	-16.45
223.394	-12.21
223.611	-6.16
223.828	-5.96
224.045	-15.84
224.262	-14.66
224.479	-7.86
224.696	-7.36
224.913	-5.44
225.13	-11.22
225.347	-5.9
225.564	-3.04
225.781	-5.31
225.997	-4.38
226.214	-5.99
226.431	-1.39
226.648	-0.97
226.865	-2.68
227.082	-2.43
227.298	0.01
227.515	1.98
227.732	2.04
227.949	2.69
228.165	4.13
228.382	4
228.599	4.14
228.816	3.66
229.032	3.45
229.249	3.89
229.466	4.84
229.682	2.62
229.899	1.81
230.116	1.91
230.332	2.87
230.549	1.36
230.765	0.59
230.982	1.31
231.199	1.12
231.415	1.59
231.632	1.16
231.848	1.08
232.065	3.91
232.281	5.78
232.498	5.37
232.714	3.94
232.931	4.91
233.147	5.57
233.364	2.61
233.58	2.32
233.797	1.2
234.013	0.62
234.23	-1.54
234.446	-2.44
234.662	-2.89
234.879	-3.54
235.095	-3.2
235.312	-3.54
235.528	-2.88
235.744	-0.98
235.961	-1.28
236.177	0.72
236.393	0.44
236.61	0.61
236.826	-0.64
237.042	-2.71
237.258	-1.73
237.475	-1.57
237.691	0.02
237.907	-0.75
238.123	0.22
238.339	0.74
238.556	-0.33
238.772	0.93
238.988	2.41
239.204	4.89
239.42	6.69
239.636	5.24
239.853	4.45
240.069	3.8
240.285	4.63
240.501	4.82
240.717	3.99
240.933	4.07
241.149	4.4
241.365	4.17
241.581	2.91
241.797	2.58
242.013	3.04
242.229	3.45
242.445	3.23
242.661	3.6
242.877	3.2
243.093	3.62
243.309	3.1
243.525	3.13
243.741	3.47
243.957	3.93
244.173	4.1
244.388	3.96
244.604	3.11
244.82	3.44
245.036	2.84
245.252	2.55
245.468	3.59
245.683	3.62
245.899	3.41
246.115	3.19
246.331	3.55
246.547	3.52
246.762	3.75
246.978	4.07
247.194	4.01
247.409	4.01
247.625	4.41
247.841	4.23
248.057	4.38
248.272	4.37
248.488	4.38
248.703	4.16
248.919	4.4
249.135	4.31
249.35	4.67
249.566	5.49
249.782	5.51
249.997	4.8
250.213	4.3
250.428	3.9
250.644	4.6
250.859	3.98
251.075	4.58
251.29	4
251.506	3.64
251.721	3.28
251.937	2.47
252.152	2.34
252.368	2.91
252.583	2.76
252.798	3.28
253.014	2.59
253.229	2.96
253.445	2.22
253.66	2.28
253.875	2.41
254.091	2.02
254.306	1.33
254.521	1.46
254.737	1.31
254.952	2.34
255.167	2.61
255.383	2.39
255.598	2.36
255.813	2.81
256.028	2.52
256.244	2.73
256.459	2.55
256.674	2.96
256.889	3.06
257.104	3.16
257.32	2.52
257.535	1.81
257.75	2.31
257.965	2.53
258.18	2.73
258.395	3.13
258.61	3.25
258.826	3.17
259.041	3.15
259.256	3.26
259.471	3.04
259.686	3.19
259.901	3.04
260.116	2.86
260.331	2.81
260.546	2.59
260.761	2.37
260.976	2.01
261.191	1.83
261.406	1.9
261.621	1.49
261.836	1.6
262.05	1.11
262.265	1.39
262.48	1.38
262.695	1.17
262.91	1.23
263.125	0.98
263.34	1.25
263.555	1.91
263.769	1.6
263.984	1.72
264.199	1.72
264.414	1.76
264.629	1.97
264.843	1.55
265.058	1.16
265.273	1.42
265.488	1.79
265.702	2.18
265.917	1.84
266.132	1.59
266.346	1.2
266.561	1.08
266.776	1.1
266.99	1.51
267.205	2.15
267.42	2.68
267.634	1.93
267.849	1.98
268.063	1.68
268.278	1.76
268.492	2.08
268.707	2.49
268.922	2.66
269.136	3.22
269.351	2.85
269.565	2.71
269.78	2.49
269.994	2.83
270.209	2.77
270.423	2.49
270.637	2.43
270.852	2.59
271.066	2.52
271.281	2.07
271.495	1.68
271.709	1.44
271.924	1.48
272.138	1.68
272.353	1.88
272.567	2.21
272.781	2.68
272.996	2.85
273.21	2.46
273.424	2.42
273.638	2.32
273.853	2.4
274.067	2.34
274.281	2.19
274.495	1.62
274.71	1.15
274.924	0.81
275.138	0.58
275.352	0.61
275.566	0.83
275.781	1.36
275.995	1.6
276.209	1.29
276.423	1.45
276.637	1.72
276.851	2
277.065	2.76
277.279	2.6
277.493	2.76
277.707	2.37
277.921	2.18
278.135	1.98
278.349	1.96
278.563	1.93
278.777	2.08
278.991	1.84
279.205	1.94
279.419	1.58
279.633	1.79
279.847	1.68
280.061	1.69
280.275	1.97
280.489	2.07
280.703	1.99
280.917	2.04
281.131	1.99
281.344	1.47
281.558	1.42
281.772	1.71
281.986	1.72
282.2	1.7
282.414	1.79
282.627	1.56
282.841	1.26
283.055	1.51
283.269	1.91
283.482	2.18
283.696	2.77
283.91	2.71
284.123	1.82
284.337	2.21
284.551	2.03
284.764	2.62
284.978	2.67
285.192	2.71
285.405	2.72
285.619	2.58
285.833	2.25
286.046	2.39
286.26	2.77
286.473	3.16
286.687	2.95
286.9	3.1
287.114	2.94
287.327	3.29
287.541	2.99
287.754	2.82
287.968	2.83
288.181	2.82
288.395	2.55
288.608	2.17
288.822	2.43
289.035	2.53
289.248	2.61
289.462	2.33
289.675	2.13
289.889	2.7
290.102	2.93
290.315	2.88
290.529	3.08
290.742	3.01
290.955	3.16
291.169	2.78
291.382	3.06
291.595	3.27
291.808	3.38
292.022	3.23
292.235	2.79
292.448	2.89
292.661	2.79
292.875	2.58
293.088	2.69
293.301	2.71
293.514	3.11
293.727	2.9
293.94	2.89
294.153	2.96
294.367	3.27
294.58	3.76
294.793	3.54
295.006	3.65
295.219	3.82
295.432	3.93
295.645	4.14
295.858	4.2
296.071	4.18
296.284	4.3
296.497	4.24
296.71	4.15
296.923	4.14
297.136	4.33
297.349	4.77
297.562	5.06
297.775	5.16
297.988	5.23
298.201	5.23
298.414	5.32
298.626	5.31
298.839	5.57
299.052	5.87
299.265	6.02
299.478	6.09
299.691	5.98
299.903	5.87
300.116	5.84
300.329	5.89
300.542	6.21
300.755	6.13
300.967	6
301.18	6.02
301.393	5.79
301.605	5.7
301.818	5.81
302.031	5.76
302.243	5.94
302.456	6.13
302.669	6.14
302.881	5.98
303.094	6.24
303.307	6.68
303.519	6.64
303.732	7.18
303.944	7.67
304.157	7.75
304.37	7.73
304.582	7.83
304.795	7.88
305.007	7.7
305.22	7.93
305.432	7.75
305.645	7.68
305.857	8.2
306.069	7.76
306.282	6.93
306.494	7.06
306.707	7.3
306.919	7.17
307.132	7.4
307.344	7.63
307.556	7.99
307.769	8.4
307.981	8.69
308.193	8.32
308.406	8.6
308.618	8.85
308.83	8.52
309.043	8.75
309.255	8.77
309.467	8.39
309.679	8.33
309.892	8.23
310.104	8.07
310.316	7.84
310.528	7.71
310.74	7.62
310.953	7.89
311.165	8.16
311.377	8.04
311.589	8.2
311.801	8.53
312.013	8.35
312.225	8.4
312.437	8.21
312.649	8.29
312.862	8.21
313.074	8.34
313.286	7.96
313.498	8.1
313.71	8.25
313.922	8.08
314.134	7.72
314.346	8.2
314.558	8.12
314.77	8.18
314.982	8.01
315.193	8.41
315.405	8.58
315.617	8.82
315.829	8.79
316.041	8.58
316.253	8.7
316.465	9.08
316.677	8.81
316.888	9.01
317.1	9.23
317.312	9.39
317.524	9.42
317.736	9.12
317.947	9.4
318.159	9.29
318.371	9.02
318.583	9.17
318.794	9.27
319.006	9.45
319.218	9.03
319.43	9.03
319.641	9.1
319.853	9
320.064	9.3
320.276	9.15
320.488	9.16
320.699	9.54
320.911	9.47
321.123	8.98
321.334	8.84
321.546	9.43
321.757	9.52
321.969	9.51
322.18	9.63
322.392	9.43
322.603	9.36
322.815	9.75
323.026	9.8
323.238	9.62
323.449	9.48
323.661	9.65
323.872	9.15
324.083	8.94
324.295	8.57
324.506	8.34
324.718	8.34
324.929	8.4
325.14	8.04
325.352	7.9
325.563	8.19
325.774	8.55
325.986	8.44
326.197	8.54
326.408	8.87
326.62	9.38
326.831	9.85
327.042	9.99
327.253	10.18
327.464	10.65
327.676	10.52
327.887	10.45
328.098	10.57
328.309	10.93
328.52	10.96
328.732	10.93
328.943	10.63
329.154	10.57
329.365	10.85
329.576	10.93
329.787	10.81
329.998	10.93
330.209	10.97
330.42	10.77
330.631	10.69
330.842	10.78
331.053	10.72
331.264	11.23
331.475	11.27
331.686	10.78
331.897	10.62
332.108	10.39
332.319	10.65
332.53	10.42
332.741	10.46
332.952	10.44
333.163	10.45
333.374	10.56
333.585	10.34
333.795	9.99
334.006	10.09
334.217	10.19
334.428	9.93
334.639	9.82
334.849	10.11
335.06	10.02
335.271	9.99
335.482	10.08
335.692	10.25
335.903	10.5
336.114	10.76
336.325	11.12
336.535	10.94
336.746	11.2
336.957	11.59
337.167	11.39
337.378	11.41
337.589	11.31
337.799	11.11
338.01	11.21
338.22	11
338.431	11.18
338.642	10.92
338.852	10.74
339.063	10.85
339.273	10.69
339.484	10.93
339.694	11.17
339.905	11.42
340.115	11.7
340.326	11.18
340.536	11.28
340.746	11
340.957	11.22
341.167	11.6
341.378	11.63
341.588	11.46
341.799	11.25
342.009	10.85
342.219	10.6
342.43	10.37
342.64	10.57
342.85	10.62
343.061	10.5
343.271	10.14
343.481	9.97
343.691	9.56
343.902	9.53
344.112	9.64
344.322	10.08
344.532	10.17
344.743	10.24
344.953	10.13
345.163	10.11
345.373	10.29
345.583	10.61
345.793	10.68
346.004	10.7
346.214	10.55
346.424	10.49
346.634	10.24
346.844	10.34
347.054	10.19
347.264	10.19
347.474	9.9
347.684	9.88
347.894	9.78
348.104	9.63
348.314	9.87
348.524	9.85
348.734	9.85
348.944	9.8
349.154	9.71
349.364	9.86
349.574	9.86
349.784	9.68
349.994	9.51
350.204	9.27
350.413	9.44
350.623	9.31
350.833	9.68
351.043	9.67
351.253	9.86
351.463	9.7
351.672	9.71
351.882	9.59
352.092	9.79
352.302	9.89
352.511	10.04
352.721	10.11
352.931	10.36
353.141	10.24
353.35	10.22
353.56	10.14
353.77	10.15
353.979	10.08
354.189	10.23
354.399	9.95
354.608	9.95
354.818	9.79
355.027	9.57
355.237	9.33
355.447	9.2
355.656	9.2
355.866	9.51
356.075	9.57
356.285	9.49
356.494	9.54
356.704	9.82
356.913	9.83
357.123	9.67
357.332	9.97
357.542	10.19
357.751	10.26
357.96	10.24
358.17	9.82
358.379	9.63
358.589	9.75
358.798	9.64
359.007	9.5
359.217	9.6
359.426	9.9
359.635	9.57
359.845	9.44
360.054	9.23
360.263	9.1
360.472	9.32
360.682	9.74
360.891	9.55
361.1	9.54
361.309	9.7
361.519	9.55
361.728	9.38
361.937	9.33
362.146	9.32
362.355	9.29
362.564	9.21
362.774	9.18
362.983	8.9
363.192	9.01
363.401	8.79
363.61	8.53
363.819	8.43
364.028	8.47
364.237	8.42
364.446	8.63
364.655	8.7
364.864	9.02
365.073	9.01
365.282	8.87
365.491	8.7
365.7	8.83
365.909	8.77
366.118	8.65
366.327	8.64
366.536	8.8
366.745	8.47
366.954	8.39
367.162	7.9
367.371	7.75
367.58	7.72
367.789	7.79
367.998	7.7
368.207	7.84
368.415	8.06
368.624	7.93
368.833	7.55
369.042	7.52
369.25	7.69
369.459	8.08
369.668	8
369.877	7.93
370.085	7.81
370.294	7.86
370.503	7.69
370.711	7.51
370.92	7.6
371.129	7.95
371.337	7.97
371.546	7.85
371.754	7.61
371.963	7.51
372.171	7.62
372.38	7.49
372.589	7.53
372.797	7.29
373.006	7.19
373.214	7.07
373.423	6.83
373.631	6.52
373.84	6.22
374.048	6.31
374.256	6.36
374.465	6.06
374.673	6.44
374.882	6.4
375.09	6.64
375.298	6.57
375.507	6.58
375.715	6.57
375.923	6.59
376.132	6.81
376.34	6.79
376.548	6.56
376.757	6.56
376.965	6.29
377.173	6.3
377.381	6.22
377.59	6.41
377.798	6.28
378.006	6.24
378.214	6.24
378.423	5.97
378.631	5.83
378.839	5.76
379.047	5.91
379.255	5.95
379.463	5.82
379.671	5.8
379.879	5.54
380.088	5.52
380.296	5.63
380.504	5.6
380.712	5.69
380.92	5.64
381.128	5.84
381.336	5.88
381.544	5.79
381.752	5.76
381.96	5.75
382.168	5.85
382.376	5.94
382.584	5.78
382.791	6.01
382.999	6.15
383.207	6.2
383.415	6.05
383.623	5.87
383.831	5.89
384.039	5.87
384.247	6.04
384.454	5.76
384.662	5.6
384.87	5.72
385.078	5.56
385.285	5.49
385.493	5.51
385.701	5.51
385.909	5.44
386.116	5.36
386.324	5.34
386.532	5.04
386.739	5.27
386.947	5.46
387.155	5.2
387.362	5.26
387.57	5.36
387.778	5.24
387.985	5.23
388.193	5.35
388.4	5.36
388.608	5.47
388.816	5.46
389.023	5.43
389.231	5.15
389.438	5.28
389.646	5.22
389.853	4.81
390.061	4.91
390.268	4.91
390.475	4.75
390.683	4.63
390.89	4.58
391.098	4.69
391.305	4.74
391.512	4.93
391.72	4.81
391.927	4.77
392.135	4.82
392.342	4.63
392.549	4.51
392.756	4.52
392.964	4.43
393.171	4.38
393.378	4.39
393.586	4.24
393.793	4.24
394	4.24
394.207	4.18
394.414	4.31
394.622	4.32
394.829	4.45
395.036	4.43
395.243	4.55
395.45	4.61
395.657	4.4
395.864	4.65
396.072	4.71
396.279	4.63
396.486	4.59
396.693	4.41
396.9	4.42
397.107	4.32
397.314	4.44
397.521	4.61
397.728	4.45
397.935	4.53
398.142	4.24
398.349	4.07
398.556	4.11
398.763	4.16
398.97	4.35
399.177	4.42
399.383	4.39
399.59	4.38
399.797	4.43
400.004	4.58
400.211	4.52
400.418	4.54
400.625	4.55
400.831	4.74
401.038	4.61
401.245	4.39
401.452	4.36
401.658	4.36
401.865	4.18
402.072	3.93
402.279	3.98
402.485	4.14
402.692	4.27
402.899	4.17
403.105	4.06
403.312	4.11
403.519	4.18
403.725	4.15
403.932	4.33
404.138	4.29
404.345	4.21
404.552	4
404.758	3.94
404.965	3.81
405.171	3.86
405.378	3.78
405.584	3.83
405.791	3.72
405.997	3.64
406.204	3.4
406.41	3.53
406.617	3.65
406.823	3.68
407.029	3.7
407.236	3.77
407.442	3.71
407.649	3.69
407.855	3.64
408.061	3.82
408.268	3.77
408.474	3.9
408.68	4.04
408.887	4.07
409.093	3.95
409.299	3.95
409.505	3.94
409.712	3.98
409.918	4.06
410.124	4.08
410.33	3.96
410.537	3.99
410.743	4.04
410.949	3.97
411.155	3.82
411.361	4
411.567	3.88
411.773	3.68
411.98	3.77
412.186	3.66
412.392	3.61
412.598	3.82
412.804	3.99
413.01	3.97
413.216	3.64
413.422	3.79
413.628	3.76
413.834	3.71
414.04	3.82
414.246	3.58
414.452	3.6
414.658	3.67
414.864	3.54
415.07	3.46
415.275	3.43
415.481	3.61
415.687	3.51
415.893	3.29
416.099	3.39
416.305	3.39
416.511	3.4
416.716	3.33
416.922	3.41
417.128	3.54
417.334	3.63
417.539	3.65
417.745	3.71
417.951	3.71
418.157	3.83
418.362	3.78
418.568	3.84
418.774	3.92
418.979	3.94
419.185	3.96
419.391	3.86
419.596	3.76
419.802	3.69
420.008	3.7
420.213	3.61
420.419	3.6
420.624	3.61
420.83	3.58
421.035	3.56
421.241	3.55
421.446	3.47
421.652	3.44
421.857	3.39
422.063	3.51
422.268	3.49
422.474	3.6
422.679	3.61
422.885	3.58
423.09	3.52
423.295	3.51
423.501	3.54
423.706	3.57
423.911	3.55
424.117	3.61
424.322	3.52
424.527	3.46
424.733	3.37
424.938	3.4
425.143	3.42
425.349	3.51
425.554	3.52
425.759	3.5
425.964	3.43
426.169	3.51
426.375	3.52
426.58	3.55
426.785	3.46
426.99	3.53
427.195	3.42
427.4	3.28
427.605	3.12
427.811	3.17
428.016	3.16
428.221	3.19
428.426	3.02
428.631	2.91
428.836	2.95
429.041	3.08
429.246	2.96
429.451	3.08
429.656	3.23
429.861	3.28
430.066	3.16
430.271	3.26
430.476	3.29
430.681	3.37
430.886	3.4
431.09	3.4
431.295	3.44
431.5	3.5
431.705	3.56
431.91	3.61
432.115	3.6
432.32	3.56
432.524	3.48
432.729	3.41
432.934	3.44
433.139	3.45
433.343	3.3
433.548	3.28
433.753	3.31
433.958	3.19
434.162	3.16
434.367	3.21
434.572	3.28
434.776	3.27
434.981	3.27
435.186	3.32
435.39	3.4
435.595	3.55
435.799	3.51
436.004	3.49
436.209	3.5
436.413	3.44
436.618	3.42
436.822	3.41
437.027	3.41
437.231	3.5
437.436	3.37
437.64	3.36
437.845	3.29
438.049	3.39
438.253	3.34
438.458	3.46
438.662	3.47
438.867	3.44
439.071	3.46
439.275	3.48
439.48	3.46
439.684	3.49
439.888	3.45
440.093	3.43
440.297	3.36
440.501	3.43
440.706	3.38
440.91	3.39
441.114	3.4
441.318	3.41
441.523	3.4
441.727	3.39
441.931	3.38
442.135	3.35
442.339	3.36
442.543	3.42
442.748	3.35
442.952	3.3
443.156	3.35
443.36	3.36
443.564	3.35
443.768	3.24
443.972	3.24
444.176	3.18
444.38	3.27
444.584	3.24
444.788	3.24
444.992	3.28
445.196	3.26
445.4	3.18
445.604	3.18
445.808	3.22
446.012	3.29
446.216	3.32
446.42	3.38
446.624	3.3
446.828	3.27
447.032	3.24
447.235	3.21
447.439	3.2
447.643	3.24
447.847	3.18
448.051	3.06
448.254	3.03
448.458	3.02
448.662	2.98
448.866	2.98
449.069	3.09
449.273	3.01
449.477	2.99
449.681	2.97
449.884	2.95
450.088	2.98
450.292	3.11
450.495	3.13
450.699	3.07
450.902	3.09
451.106	3.06
451.31	3.03
451.513	3.12
451.717	3.15
451.92	3.17
452.124	3.29
452.327	3.32
452.531	3.22
452.734	3.22
452.938	3.24
453.141	3.24
453.345	3.29
453.548	3.27
453.752	3.19
453.955	3.18
454.158	3.2
454.362	3.11
454.565	3.11
454.769	3.16
454.972	3.17
455.175	3.06
455.379	3.03
455.582	3.02
455.785	3.08
455.988	3.08
456.192	3.09
456.395	3.07
456.598	3.06
456.801	2.98
457.005	3
457.208	2.99
457.411	3
457.614	3.01
457.817	2.99
458.021	3
458.224	3.05
458.427	3
458.63	3.01
458.833	3.02
459.036	3.04
459.239	3
459.442	3
459.645	3.03
459.848	3
460.051	3.02
460.254	2.91
460.457	2.88
460.66	2.93
460.863	2.88
461.066	2.85
461.269	2.83
461.472	2.88
461.675	2.87
461.878	2.94
462.081	2.89
462.284	2.93
462.486	3.02
462.689	3.12
462.892	3.06
463.095	3.11
463.298	3.12
463.5	3.16
463.703	2.99
463.906	2.99
464.109	2.95
464.311	3.13
464.514	3.12
464.717	3.21
464.92	3.1
465.122	3.09
465.325	3.05
465.528	3.14
465.73	3.19
465.933	3.32
466.135	3.32
466.338	3.38
466.541	3.38
466.743	3.31
466.946	3.23
467.148	3.23
467.351	3.24
467.553	3.4
467.756	3.33
467.958	3.31
468.161	3.37
468.363	3.4
468.566	3.27
468.768	3.15
468.971	3.11
469.173	3.2
469.375	3.22
469.578	3.22
469.78	3.12
469.983	3.13
470.185	3.18
470.387	3.06
470.59	3.01
470.792	3.05
470.994	3.16
471.196	3.26
471.399	3.25
471.601	3.27
471.803	3.24
472.005	3.23
472.208	3.26
472.41	3.16
472.612	3.14
472.814	3.15
473.016	3.25
473.218	3.19
473.421	3.09
473.623	3.01
473.825	3.07
474.027	3.17
474.229	3.19
474.431	3.12
474.633	3.2
474.835	3.14
475.037	3.23
475.239	3.13
475.441	3.13
475.643	3.19
475.845	3.2
476.047	3.14
476.249	3.05
476.451	3.05
476.653	3.11
476.855	3.09
477.057	3.16
477.258	3.15
477.46	3.28
477.662	3.32
477.864	3.35
478.066	3.37
478.268	3.41
478.469	3.41
478.671	3.41
478.873	3.41
479.075	3.4
479.276	3.33
479.478	3.3
479.68	3.24
479.882	3.23
480.083	3.15
480.285	3.13
480.487	3.08
480.688	3.07
480.89	3.04
481.091	3.04
481.293	3.15
481.495	3.18
481.696	3.14
481.898	3.15
482.099	3.08
482.301	3.13
482.502	3.12
482.704	3.12
482.905	3.11
483.107	3.09
483.308	3.09
483.51	3.05
483.711	3.06
483.913	3.08
484.114	3.05
484.315	3.08
484.517	3.06
484.718	3.05
484.92	3.06
485.121	3.11
485.322	3.18
485.524	3.17
485.725	3.21
485.926	3.22
486.127	3.21
486.329	3.2
486.53	3.21
486.731	3.23
486.932	3.24
487.134	3.22
487.335	3.2
487.536	3.16
487.737	3.16
487.938	3.14
488.139	3.14
488.341	3.15
488.542	3.18
488.743	3.2
488.944	3.21
489.145	3.21
489.346	3.24
489.547	3.24
489.748	3.24
489.949	3.23
490.15	3.19
490.351	3.14
490.552	3.15
490.753	3.14
490.954	3.14
491.155	3.13
491.356	3.15
491.557	3.17
491.758	3.2
491.959	3.2
492.159	3.24
492.36	3.29
492.561	3.33
492.762	3.32
492.963	3.33
493.164	3.33
493.364	3.36
493.565	3.35
493.766	3.28
493.967	3.28
494.167	3.22
494.368	3.2
494.569	3.2
494.769	3.23
494.97	3.33
495.171	3.35
495.371	3.38
495.572	3.34
495.773	3.36
495.973	3.41
496.174	3.43
496.375	3.53
496.575	3.53
496.776	3.55
496.976	3.54
497.177	3.56
497.377	3.59
497.578	3.61
497.778	3.65
497.979	3.68
498.179	3.67
498.38	3.64
498.58	3.69
498.78	3.71
498.981	3.65
499.181	3.74
499.382	3.77
499.582	3.75
499.782	3.77
499.983	3.78
500.183	3.84
500.383	3.94
500.584	4.04
500.784	4.02
500.984	4.09
501.184	4.13
501.385	4.05
501.585	3.99
501.785	4.09
501.985	4.13
502.185	4.13
502.386	4.06
502.586	4.03
502.786	4.03
502.986	3.99
503.186	3.99
503.386	4.05
503.586	4.11
503.786	4.08
503.987	4.07
504.187	4.1
504.387	4.25
504.587	4.31
504.787	4.39
504.987	4.49
505.187	4.56
505.387	4.64
505.587	4.69
505.786	4.68
505.986	4.79
506.186	4.82
506.386	4.84
506.586	4.9
506.786	4.98
506.986	5.04
507.186	5.04
507.386	5.13
507.585	5.13
507.785	5.14
507.985	5.26
508.185	5.36
508.384	5.41
508.584	5.44
508.784	5.42
508.984	5.49
509.183	5.54
509.383	5.51
509.583	5.52
509.782	5.63
509.982	5.67
510.182	5.74
510.381	5.7
510.581	5.71
510.781	5.73
510.98	5.81
511.18	5.84
511.379	5.82
511.579	5.89
511.778	5.98
511.978	6.02
512.177	6.09
512.377	6.15
512.576	6.25
512.776	6.41
512.975	6.53
513.175	6.64
513.374	6.72
513.573	6.9
513.773	7.02
513.972	7.13
514.172	7.19
514.371	7.38
514.57	7.39
514.77	7.53
514.969	7.61
515.168	7.74
515.367	7.78
515.567	7.84
515.766	7.93
515.965	8.03
516.164	8.14
516.364	8.27
516.563	8.35
516.762	8.49
516.961	8.59
517.16	8.76
517.359	8.89
517.559	9.08
517.758	9.22
517.957	9.26
518.156	9.39
518.355	9.48
518.554	9.59
518.753	9.63
518.952	9.73
519.151	9.81
519.35	9.79
519.549	9.88
519.748	9.94
519.947	10.04
520.146	10.15
520.345	10.24
520.544	10.3
520.743	10.43
520.942	10.62
521.141	10.79
521.339	10.89
521.538	11.09
521.737	11.18
521.936	11.3
522.135	11.45
522.333	11.72
522.532	11.89
522.731	12.16
522.93	12.27
523.129	12.33
523.327	12.55
523.526	12.72
523.725	12.83
523.923	13
524.122	13.1
524.321	13.26
524.519	13.33
524.718	13.44
524.917	13.58
525.115	13.73
525.314	13.87
525.512	13.99
525.711	14.15
525.909	14.3
526.108	14.45
526.306	14.65
526.505	14.77
526.703	14.95
526.902	15.15
527.1	15.31
527.299	15.47
527.497	15.62
527.696	15.74
527.894	15.83
528.092	15.92
528.291	16.01
528.489	16.07
528.688	16.19
528.886	16.28
529.084	16.32
529.283	16.4
529.481	16.48
529.679	16.55
529.877	16.63
530.076	16.77
530.274	16.91
530.472	17.04
530.67	17.23
530.869	17.36
531.067	17.52
531.265	17.77
531.463	17.95
531.661	18.17
531.859	18.38
532.057	18.53
532.255	18.64
532.454	18.83
532.652	19
532.85	19.11
533.048	19.24
533.246	19.36
533.444	19.39
533.642	19.48
533.84	19.54
534.038	19.68
534.236	19.82
534.434	19.96
534.632	20.02
534.83	20.17
535.027	20.29
535.225	20.41
535.423	20.54
535.621	20.75
535.819	20.88
536.017	21.06
536.215	21.21
536.412	21.33
536.61	21.53
536.808	21.73
537.006	21.85
537.203	21.99
537.401	22.16
537.599	22.28
537.797	22.34
537.994	22.51
538.192	22.56
538.39	22.63
538.587	22.75
538.785	22.86
538.983	22.89
539.18	22.99
539.378	23.16
539.575	23.32
539.773	23.53
539.97	23.77
540.168	23.89
540.366	24.03
540.563	24.16
540.761	24.23
540.958	24.37
541.155	24.49
541.353	24.64
541.55	24.71
541.748	24.76
541.945	24.81
542.143	24.83
542.34	24.9
542.537	24.99
542.735	25.04
542.932	25.19
543.129	25.22
543.327	25.35
543.524	25.45
543.721	25.58
543.919	25.68
544.116	25.79
544.313	25.95
544.51	26.13
544.708	26.29
544.905	26.46
545.102	26.58
545.299	26.74
545.496	26.89
545.693	26.97
545.891	27.03
546.088	27.2
546.285	27.33
546.482	27.35
546.679	27.43
546.876	27.51
547.073	27.5
547.27	27.52
547.467	27.48
547.664	27.42
547.861	27.47
548.058	27.55
548.255	27.51
548.452	27.64
548.649	27.76
548.846	27.8
549.043	27.91
549.24	28.03
549.437	28.15
549.633	28.31
549.83	28.42
550.027	28.48
550.224	28.58
550.421	28.71
550.618	28.59
550.814	28.55
551.011	28.62
551.208	28.57
551.405	28.61
551.601	28.67
551.798	28.74
551.995	28.79
552.191	28.85
552.388	28.84
552.585	28.87
552.781	28.98
552.978	29.15
553.175	29.24
553.371	29.29
553.568	29.3
553.764	29.44
553.961	29.48
554.157	29.52
554.354	29.59
554.55	29.64
554.747	29.78
554.943	29.87
555.14	29.96
555.336	29.97
555.533	30.07
555.729	30.11
555.926	30.08
556.122	30.1
556.318	30.16
556.515	30.18
556.711	30.25
556.907	30.26
557.104	30.29
557.3	30.33
557.496	30.35
557.693	30.41
557.889	30.48
558.085	30.52
558.281	30.63
558.478	30.67
558.674	30.62
558.87	30.71
559.066	30.69
559.262	30.7
559.459	30.69
559.655	30.81
559.851	30.77
560.047	30.96
560.243	31.02
560.439	30.94
560.635	31.02
560.831	31.23
561.027	31.24
561.223	31.24
561.419	31.37
561.615	31.44
561.811	31.37
562.007	31.55
562.203	31.51
562.399	31.52
562.595	31.58
562.791	31.6
562.987	31.5
563.183	31.48
563.379	31.56
563.575	31.43
563.771	31.38
563.966	31.55
564.162	31.67
564.358	31.69
564.554	31.77
564.75	31.94
564.945	32.05
565.141	32.22
565.337	32.27
565.533	32.41
565.728	32.69
565.924	32.73
566.12	32.72
566.315	32.68
566.511	32.65
566.707	32.68
566.902	32.61
567.098	32.55
567.293	32.45
567.489	32.49
567.684	32.39
567.88	32.26
568.076	32.34
568.271	32.44
568.467	32.48
568.662	32.61
568.858	32.65
569.053	32.75
569.248	32.85
569.444	32.95
569.639	33.06
569.835	33.15
570.03	33.15
570.225	33.19
570.421	33.15
570.616	33.06
570.812	33.13
571.007	33.22
571.202	33.31
571.397	33.32
571.593	33.3
571.788	33.28
571.983	33.3
572.178	33.37
572.374	33.39
572.569	33.44
572.764	33.55
572.959	33.52
573.154	33.48
573.35	33.42
573.545	33.52
573.74	33.63
573.935	33.63
574.13	33.65
574.325	33.75
574.52	33.88
574.715	33.94
574.91	34.03
575.105	34.04
575.3	34.09
575.495	34.18
575.69	34.13
575.885	34.14
576.08	34.22
576.275	34.26
576.47	34.27
576.665	34.22
576.86	34.26
577.055	34.21
577.25	34.36
577.444	34.46
577.639	34.44
577.834	34.61
578.029	34.78
578.224	34.8
578.418	34.87
578.613	35.05
578.808	35.07
579.003	35.13
579.197	35.22
579.392	35.23
579.587	35.17
579.781	35.37
579.976	35.44
580.171	35.45
580.365	35.48
580.56	35.44
580.755	35.39
580.949	35.38
581.144	35.43
581.338	35.48
581.533	35.48
581.727	35.58
581.922	35.5
582.116	35.45
582.311	35.42
582.505	35.55
582.7	35.69
582.894	35.77
583.089	35.84
583.283	35.75
583.478	35.73
583.672	35.75
583.866	35.75
584.061	35.82
584.255	35.81
584.449	35.77
584.644	35.67
584.838	35.69
585.032	35.55
585.226	35.57
585.421	35.69
585.615	35.78
585.809	35.9
586.003	36
586.198	35.92
586.392	36
586.586	36.08
586.78	36.25
586.974	36.27
587.168	36.3
587.363	36.34
587.557	36.23
587.751	36.34
587.945	36.33
588.139	36.22
588.333	36.24
588.527	36.39
588.721	36.44
588.915	36.36
589.109	36.32
589.303	36.41
589.497	36.51
589.691	36.69
589.885	36.57
590.079	36.52
590.273	36.56
590.466	36.71
590.66	36.67
590.854	36.78
591.048	37.05
591.242	37.21
591.436	37.34
591.629	37.42
591.823	37.34
592.017	37.42
592.211	37.52
592.404	37.49
592.598	37.5
592.792	37.4
592.986	37.33
593.179	37.31
593.373	37.29
593.567	37.26
593.76	37.16
593.954	37.23
594.147	37.26
594.341	37.22
594.535	37.41
594.728	37.29
594.922	37.44
595.115	37.28
595.309	37.16
595.502	37.27
595.696	37.32
595.889	37.25
596.083	37.31
596.276	37.41
596.47	37.48
596.663	37.46
596.856	37.53
597.05	37.56
597.243	37.69
597.437	37.74
597.63	37.69
597.823	37.76
598.017	37.91
598.21	37.91
598.403	37.94
598.596	37.94
598.79	37.93
598.983	37.96
599.176	37.92
599.369	37.9
599.563	37.85
599.756	37.79
599.949	37.77
600.142	37.71
600.335	37.7
600.528	37.69
600.722	37.81
600.915	38.07
601.108	37.95
601.301	38.11
601.494	38.23
601.687	38.32
601.88	38.45
602.073	38.39
602.266	38.43
602.459	38.37
602.652	38.32
602.845	38.26
603.038	38.13
603.231	38.27
603.424	38.2
603.617	38.18
603.809	38.19
604.002	38.16
604.195	38.23
604.388	38.35
604.581	38.4
604.774	38.51
604.966	38.52
605.159	38.6
605.352	38.68
605.545	38.63
605.737	38.78
605.93	38.79
606.123	38.82
606.316	38.84
606.508	38.78
606.701	38.89
606.894	38.88
607.086	39
607.279	39
607.471	38.92
607.664	38.98
607.857	38.98
608.049	39.11
608.242	39.35
608.434	39.6
608.627	39.94
608.819	40.26
609.012	40.59
609.204	40.9
609.397	41.36
609.589	41.87
609.782	42.47
609.974	43.07
610.166	43.68
610.359	44.2
610.551	44.58
610.743	44.87
610.936	45.1
611.128	45.3
611.32	45.66
611.513	45.68
611.705	45.74
611.897	45.64
612.09	45.49
612.282	45.12
612.474	44.84
612.666	44.52
612.858	44.41
613.051	44.21
613.243	44.14
613.435	43.66
613.627	43.33
613.819	43.15
614.011	42.63
614.203	42.44
614.395	42.18
614.588	41.87
614.78	41.67
614.972	41.34
615.164	41.18
615.356	40.75
615.548	40.65
615.74	40.67
615.932	40.25
616.124	40.46
616.315	40.22
616.507	40.3
616.699	40.21
616.891	40.12
617.083	39.98
617.275	40
617.467	40.02
617.659	40
617.85	40.02
618.042	40.35
618.234	40.13
618.426	40.23
618.618	40.18
618.809	40.2
619.001	40.22
619.193	40.39
619.384	40.19
619.576	40.33
619.768	40.32
619.959	40.31
620.151	40.04
620.343	40.2
620.534	40.12
620.726	40.21
620.917	40.2
621.109	40.19
621.301	40.32
621.492	40.56
621.684	40.27
621.875	40.33
622.067	40.29
622.258	40.44
622.45	40.39
622.641	40.24
622.832	40.22
623.024	40.15
623.215	40.15
623.407	40.06
623.598	40
623.789	40.25
623.981	40.51
624.172	40.65
624.363	40.69
624.555	40.69
624.746	40.98
624.937	40.97
625.129	41.13
625.32	41.09
625.511	41.07
625.702	41.1
625.893	41.16
626.085	40.86
626.276	40.73
626.467	40.71
626.658	40.73
626.849	40.68
627.04	40.73
627.231	40.77
627.422	40.98
627.614	40.91
627.805	40.94
627.996	40.78
628.187	40.95
628.378	41.09
628.569	41.29
628.76	41.47
628.951	41.46
629.142	41.58
629.332	41.58
629.523	41.65
629.714	41.73
629.905	41.81
630.096	41.85
630.287	41.75
630.478	41.73
630.669	41.66
630.859	41.59
631.05	41.51
631.241	41.24
631.432	41.09
631.623	40.9
631.813	40.98
632.004	40.79
632.195	40.88
632.385	40.98
632.576	40.96
632.767	40.88
632.957	40.74
633.148	40.83
633.339	40.81
633.529	40.82
633.72	40.87
633.91	40.67
634.101	40.81
634.292	40.83
634.482	40.81
634.673	40.62
634.863	40.5
635.054	40.65
635.244	40.64
635.435	40.71
635.625	40.8
635.815	40.71
636.006	40.91
636.196	40.79
636.387	40.83
636.577	40.68
636.767	40.8
636.958	40.9
637.148	40.91
637.338	41
637.529	40.89
637.719	40.92
637.909	40.93
638.099	40.72
638.29	40.71
638.48	40.65
638.67	40.64
638.86	40.32
639.05	40.39
639.241	40.37
639.431	40.21
639.621	40.39
639.811	40.25
640.001	40.24
640.191	40.28
640.381	40.27
640.571	40.29
640.761	40.39
640.951	40.85
641.141	40.75
641.331	40.63
641.521	40.57
641.711	40.39
641.901	40.42
642.091	40.49
642.281	40.45
642.471	40.52
642.661	40.55
642.851	40.61
643.041	40.43
643.231	40.27
643.42	40.44
643.61	40.58
643.8	40.77
643.99	40.55
644.18	40.45
644.369	40.73
644.559	40.79
644.749	40.74
644.939	40.72
645.128	40.88
645.318	40.98
645.508	41.06
645.697	41.19
645.887	41.2
646.076	41.5
646.266	41.68
646.456	41.45
646.645	41.6
646.835	41.62
647.024	41.72
647.214	41.59
647.403	41.53
647.593	41.39
647.782	41.3
647.972	41.36
648.161	41.39
648.351	41.22
648.54	41.35
648.73	41.36
648.919	41.4
649.108	41.33
649.298	41.32
649.487	41.6
649.677	41.6
649.866	41.61
650.055	41.31
650.244	41.41
650.434	41.58
650.623	41.53
650.812	41.47
651.002	41.41
651.191	41.26
651.38	41.27
651.569	41.24
651.758	41.15
651.947	41.2
652.137	41.42
652.326	41.17
652.515	40.98
652.704	41.1
652.893	40.84
653.082	40.89
653.271	40.96
653.46	40.98
653.649	41.02
653.838	41.05
654.027	40.88
654.216	40.86
654.405	40.89
654.594	41.16
654.783	41.19
654.972	41.43
655.161	41.45
655.35	41.44
655.539	41.55
655.728	41.28
655.916	41.34
656.105	41.47
656.294	41.49
656.483	41.73
656.672	41.57
656.86	41.38
657.049	41.26
657.238	41.15
657.427	41.26
657.615	41.14
657.804	41.43
657.993	41.43
658.181	41.47
658.37	41.39
658.559	41.27
658.747	41.22
658.936	41.23
659.125	40.97
659.313	40.95
659.502	40.94
659.69	40.91
659.879	40.82
660.067	40.81
660.256	40.83
660.444	40.87
660.633	40.92
660.821	40.92
661.01	40.91
661.198	41.26
661.387	41.35
661.575	41.32
661.763	41.19
661.952	41.13
662.14	41.18
662.328	41.15
662.517	41.1
662.705	41.11
662.893	41.15
663.082	41.14
663.27	41.35
663.458	41.34
663.646	41.45
663.834	41.82
664.023	41.99
664.211	41.94
664.399	41.92
664.587	41.83
664.775	41.85
664.963	41.87
665.152	41.8
665.34	41.49
665.528	41.57
665.716	41.71
665.904	41.59
666.092	41.51
666.28	41.42
666.468	41.26
666.656	41.55
666.844	41.38
667.032	41.49
667.22	41.46
667.408	41.46
667.596	41.39
667.784	41.18
667.971	41.13
668.159	40.98
668.347	41.14
668.535	41.03
668.723	40.81
668.911	41.07
669.098	41.05
669.286	40.95
669.474	40.92
669.662	41.05
669.849	41.06
670.037	41.07
670.225	41.35
670.413	41.17
670.6	41.46
670.788	41.44
670.976	41.21
671.163	41.34
671.351	41.45
671.538	41.46
671.726	41.38
671.913	41.68
672.101	41.65
672.289	41.77
672.476	41.86
672.664	41.94
672.851	41.92
673.039	41.85
673.226	41.84
673.413	41.94
673.601	42.09
673.788	42.01
673.976	41.68
674.163	41.71
674.35	41.49
674.538	41.61
674.725	41.6
674.912	41.91
675.1	42.06
675.287	41.92
675.474	41.68
675.662	41.7
675.849	41.8
676.036	41.75
676.223	41.83
676.411	41.82
676.598	41.81
676.785	41.81
676.972	41.8
677.159	41.74
677.346	41.57
677.533	41.97
677.721	41.84
677.908	41.81
678.095	41.95
678.282	42.13
678.469	42.15
678.656	42.01
678.843	41.67
679.03	41.56
679.217	41.51
679.404	41.65
679.591	41.38
679.778	41.44
679.964	41.45
680.151	41.55
680.338	41.43
680.525	41.39
680.712	41.3
680.899	41.46
681.086	41.69
681.272	41.71
681.459	41.74
681.646	41.95
681.833	41.78
682.02	41.83
682.206	41.41
682.393	41.46
682.58	41.38
682.766	41.69
682.953	41.88
683.14	41.71
683.326	41.76
683.513	41.81
683.7	41.88
683.886	41.99
684.073	42.1
684.259	42.31
684.446	42.57
684.632	42.62
684.819	42.59
685.005	42.56
685.192	42.47
685.378	42.33
685.565	42.27
685.751	42.37
685.938	42.3
686.124	42.16
686.31	42.38
686.497	41.81
686.683	41.66
686.87	41.58
687.056	41.27
687.242	41.33
687.429	41.39
687.615	41.63
687.801	41.47
687.987	41.6
688.174	41.62
688.36	41.33
688.546	41.26
688.732	41.48
688.918	41.3
689.105	41.46
689.291	41.54
689.477	41.43
689.663	41.26
689.849	41.28
690.035	41.4
690.221	41.44
690.407	41.95
690.593	42.13
690.779	42.11
690.965	42.63
691.151	42.75
691.337	42.75
691.523	43.19
691.709	43.18
691.895	43.13
692.081	43.02
692.267	43.1
692.453	42.99
692.639	43.16
692.825	43.14
693.011	42.84
693.196	42.78
693.382	42.72
693.568	42.63
693.754	42.79
693.94	42.71
694.125	43.04
694.311	42.97
694.497	42.77
694.682	42.48
694.868	42.37
695.054	42.21
695.239	42.44
695.425	42.51
695.611	42.33
695.796	42.28
695.982	42.31
696.168	41.78
696.353	41.77
696.539	41.61
696.724	41.82
696.91	41.96
697.095	41.88
697.281	41.67
697.466	41.5
697.652	41.44
697.837	41.34
698.023	41.28
698.208	41.54
698.393	41.45
698.579	41.68
698.764	41.81
698.949	41.85
699.135	41.86
699.32	41.94
699.505	42.09
699.691	42.28
699.876	42.34
700.061	42.54
700.246	42.45
700.432	42.44
700.617	42.46
700.802	42.38
700.987	42.25
701.172	42.81
701.358	42.99
701.543	43.15
701.728	43.18
701.913	43.29
702.098	43.34
702.283	43.43
702.468	43.65
702.653	43.61
702.838	43.54
703.023	43.96
703.208	43.31
703.393	42.89
703.578	42.81
703.763	42.68
703.948	42.63
704.133	42.7
704.318	42.69
704.503	42.72
704.688	42.83
704.873	42.86
705.057	42.94
705.242	43.34
705.427	43.71
705.612	44.01
705.797	44.22
705.981	44.46
706.166	44.72
706.351	44.87
706.536	44.86
706.72	44.81
706.905	44.87
707.09	44.41
707.274	44.63
707.459	44.5
707.644	44.19
707.828	44.03
708.013	43.9
708.197	43.91
708.382	43.4
708.567	43.43
708.751	43.48
708.936	43.34
709.12	43.94
709.305	43.56
709.489	43.37
709.673	43.33
709.858	43.44
710.042	43.49
710.227	43.28
710.411	43.91
710.596	43.95
710.78	43.88
710.964	44.28
711.149	43.9
711.333	43.82
711.517	44.12
711.702	44.25
711.886	44.17
712.07	44.1
712.254	43.83
712.438	43.59
712.623	43.37
712.807	43.21
712.991	42.95
713.175	42.87
713.359	43.02
713.544	42.78
713.728	42.8
713.912	43.03
714.096	42.79
714.28	43.04
714.464	42.86
714.648	43.03
714.832	43.07
715.016	42.63
715.2	42.5
715.384	42.58
715.568	42.87
715.752	42.56
715.936	42.05
716.12	42.19
716.304	42.19
716.488	42.34
716.671	42.17
716.855	42.03
717.039	42.73
717.223	42.66
717.407	42.22
717.59	42.25
717.774	42.57
717.958	42.39
718.142	41.94
718.325	41.85
718.509	41.52
718.693	41.71
718.877	41.78
719.06	41.34
719.244	41.51
719.428	41.6
719.611	41.29
719.795	41.03
719.978	41.65
720.162	41.99
720.345	41.88
720.529	42.59
720.713	42.4
720.896	42.67
721.08	42.39
721.263	42.44
721.446	42.32
721.63	41.83
721.813	41.71
721.997	41.94
722.18	41.93
722.364	41.76
722.547	41.31
722.73	40.94
722.914	40.72
723.097	40.91
723.28	40.84
723.464	41.06
723.647	41.77
723.83	41.55
724.013	41.1
724.197	40.81
724.38	40.76
724.563	40.5
724.746	41.08
724.929	41.39
725.112	42.02
725.296	41.79
725.479	41.54
725.662	41.34
725.845	41.83
726.028	41.73
726.211	42.21
726.394	42.62
726.577	42.78
726.76	42.3
726.943	41.71
727.126	41.16
727.309	41.18
727.492	41.26
727.675	41.34
727.858	41.11
728.041	41.42
728.224	41.4
728.407	41.07
728.589	40.89
728.772	40.83
728.955	41.14
729.138	41.2
729.321	41.54
729.503	41.6
729.686	41.77
729.869	41.97
730.052	41.94
730.234	41.83
730.417	42.09
730.6	42.53
730.782	42.8
730.965	42.74
731.148	43.11
731.33	43
731.513	43.44
731.695	43
731.878	42.72
732.061	42.94
732.243	43.05
732.426	43.06
732.608	42.72
732.791	42.85
732.973	43.06
733.156	42.55
733.338	42.68
733.52	42.28
733.703	42.79
733.885	42.96
734.068	42.66
734.25	42.82
734.432	42.56
734.615	42.78
734.797	42.81
734.979	42.42
735.162	42.42
735.344	42.52
735.526	42.39
735.708	42.16
735.891	42.04
736.073	41.99
736.255	41.32
736.437	41.26
736.619	41.37
736.802	41.29
736.984	41.45
737.166	41.68
737.348	41.03
737.53	41.41
737.712	41.09
737.894	40.96
738.076	40.73
738.258	41.35
738.44	41.7
738.622	41.42
738.804	41.49
738.986	41.12
739.168	41.53
739.35	41.66
739.532	41.31
739.714	41.39
739.896	41.87
740.078	42
740.259	41.67
740.441	41.24
740.623	41.18
740.805	41
740.987	41.44
741.168	40.85
741.35	40.68
741.532	41.01
741.714	40.93
741.895	40.48
742.077	40.93
742.259	41.23
742.44	41.25
742.622	41.53
742.804	41.83
742.985	41.56
743.167	41.25
743.348	41.35
743.53	41.08
743.711	41.76
743.893	41.85
744.075	41.23
744.256	40.93
744.438	40.9
744.619	40.85
744.8	40.38
744.982	40.5
745.163	41.3
745.345	41.81
745.526	41.96
745.707	41.34
745.889	41.43
746.07	41.71
746.252	42.08
746.433	42.54
746.614	42.25
746.795	42.46
746.977	42.34
747.158	41.96
747.339	41.64
747.52	41.71
747.702	41.24
747.883	41
748.064	41.66
748.245	41.1
748.426	41.1
748.607	41.1
748.788	41.36
748.97	41.48
749.151	41.57
749.332	42.09
749.513	42.57
749.694	43.29
749.875	43.06
750.056	42.37
750.237	43
750.418	42.54
750.599	42.15
750.78	42.6
750.96	42.65
751.141	42.01
751.322	41.13
751.503	40.5
751.684	39.89
751.865	40.21
752.046	40.05
752.226	39.84
752.407	40.24
752.588	40.65
752.769	39.73
752.949	39.04
753.13	39.79
753.311	40.5
753.492	40.24
753.672	40.83
753.853	40.79
754.034	41.52
754.214	41.71
754.395	40.97
754.575	41.27
754.756	41.36
754.937	41.96
755.117	41.53
755.298	41.8
755.478	41.81
755.659	42.08
755.839	42.63
756.02	41.42
756.2	41.16
756.381	41.75
756.561	41.6
756.741	41.59
756.922	41.46
757.102	42.03
757.283	41.59
757.463	41.47
757.643	41.2
757.823	40.45
758.004	40.96
758.184	40.7
758.364	40.8
758.545	40.79
758.725	40.89
758.905	40.81
759.085	41.04
759.265	40.35
759.446	40.68
759.626	40.62
759.806	40.98
759.986	41.48
760.166	41.96
760.346	41.78
760.526	41.69
760.706	41.6
760.886	41.99
761.066	41.61
761.246	42.1
761.426	41.87
761.606	41.6
761.786	42.27
761.966	41.8
762.146	41.69
762.326	42.05
762.506	42.01
762.686	41.7
762.866	41.6
763.046	41.14
763.225	41.29
763.405	41.61
763.585	41.51
763.765	41.25
763.945	41.16
764.124	41.04
764.304	41.01
764.484	40.85
764.664	41.08
764.843	41.33
765.023	41.4
765.203	41.54
765.382	40.88
765.562	40.74
765.741	40.6
765.921	40.48
766.101	40.48
766.28	39.75
766.46	40.01
766.639	39.97
766.819	39.35
766.998	39.93
767.178	39.62
767.357	40.26
767.537	40.65
767.716	40.9
767.896	41.49
768.075	41.26
768.254	41.77
768.434	42.34
768.613	42.97
768.792	43.49
768.972	43.48
769.151	43.44
769.33	43.68
769.51	43.25
769.689	43.18
769.868	43.37
770.047	43.76
770.226	43.72
770.406	43.23
770.585	42.61
770.764	42.51
770.943	42.3
771.122	42.71
771.301	42.46
771.48	42.63
771.66	42.1
771.839	41.28
772.018	40.29
772.197	40.58
772.376	40.29
772.555	40.08
772.734	40.48
772.913	39.78
773.092	39.18
773.271	38.62
773.449	38.51
773.628	39.05
773.807	39.19
773.986	39.68
774.165	39.03
774.344	38.94
774.523	39.75
774.701	38.63
774.88	39.26
775.059	39.3
775.238	39.23
775.417	39.99
775.595	39.58
775.774	39.31
775.953	39.47
776.131	39.58
776.31	39.81
776.489	39.5
776.667	40.07
776.846	39.96
777.025	39.91
777.203	40.47
777.382	40.6
777.56	40.02
777.739	41.17
777.917	40.93
778.096	41.05
778.274	41.11
778.453	40.21
778.631	40.59
778.81	40.63
778.988	40.33
779.166	40.61
779.345	40.33
779.523	40.47
779.702	39.68
779.88	39.67
780.058	39.63
780.237	39.44
780.415	40.81
780.593	40.31
780.771	39.71
780.95	40.29
781.128	40.71
781.306	40.46
781.484	40.96
781.662	40.66
781.841	40.51
782.019	40.72
782.197	40.02
782.375	39.03
782.553	38.27
782.731	39.57
782.909	39.51
783.087	38.94
783.265	39.48
783.443	38.9
783.621	39.23
783.799	39.51
783.977	39.46
784.155	40.3
784.333	41.01
784.511	41.09
784.689	40.09
784.867	39.59
785.045	39.65
785.223	38.2
785.4	38.46
785.578	39.1
785.756	38.16
785.934	38.43
786.112	38.29
786.289	39.51
786.467	39.57
786.645	40.02
786.823	40.31
787	40.17
787.178	41.28
787.356	41.51
787.533	41.3
787.711	42.29
787.889	41.76
788.066	41.83
788.244	40.06
788.421	41.11
788.599	40.15
788.776	40.12
788.954	41.01
789.131	40.54
789.309	39.86
789.486	40.33
789.664	40.76
789.841	41.09
790.019	40.7
790.196	41.07
790.373	40.14
790.551	40.96
790.728	40.71
790.906	39.48
791.083	39.7
791.26	40.68
791.437	38.91
791.615	38.66
791.792	38.56
791.969	38.51
792.146	38.28
792.324	39.18
792.501	39.73
792.678	39.94
792.855	39.43
793.032	39.72
793.209	39.92
793.387	41.27
793.564	41.57
793.741	41.42
793.918	41.78
794.095	41.61
794.272	40.98
794.449	40.7
794.626	42.68
794.803	43.02
794.98	42.61
795.157	41.27
795.334	41.48
795.511	41.07
795.688	41.95
795.864	41.79
796.041	41.53
796.218	42.23
796.395	42.15
796.572	40.38
796.749	40.5
796.925	40.39
797.102	40.13
797.279	39.41
797.456	40.02
797.632	38.96
797.809	39.41
797.986	39.81
798.162	38.48
798.339	38.91
798.516	38.31
798.692	38.58
798.869	39.09
799.046	40.46
799.222	40.47
799.399	40.5
799.575	40.65
799.752	40.44
799.928	40.51
800.105	40.87
800.281	39.62
800.458	40.14
800.634	39.9
800.811	39.49
800.987	39.96
801.163	39.63
801.34	38.95
801.516	39.63
801.692	39.82
801.869	40.06
802.045	41.03
802.221	41.35
802.398	41.41
802.574	41.44
802.75	42.12
802.926	40.4
803.103	41.94
803.279	42.11
803.455	41
803.631	41.52
803.807	41.46
803.983	41.75
804.16	42.32
804.336	41.87
804.512	42.26
804.688	41.21
804.864	41.97
805.04	40.97
805.216	40.97
805.392	41.38
805.568	41.25
805.744	40.49
805.92	39.61
806.096	37.46
806.272	37.74
806.448	37.05
806.623	37.72
806.799	37.6
806.975	37.53
807.151	38.34
807.327	38.6
807.503	38.23
807.678	38.3
807.854	38.96
808.03	41.42
808.206	42.29
808.381	42.41
808.557	42.69
808.733	41.9
808.908	41.71
809.084	41.09
809.26	41.78
809.435	40.95
809.611	40.59
809.787	38.9
809.962	38.48
810.138	37.01
810.313	36.55
810.489	34.67
810.664	34.86
810.84	34.46
811.015	33.73
811.191	32.66
811.366	33.27
811.542	33.71
811.717	35.25
811.892	35.55
812.068	36.27
812.243	35.97
812.419	36.83
812.594	36.99
812.769	37.14
812.944	37.49
813.12	37.2
813.295	37.51
813.47	38.17
813.645	38.66
813.821	36.98
813.996	35.41
814.171	36.1
814.346	37.68
814.521	37.93
814.697	38.08
814.872	38.22
815.047	39.91
815.222	39.22
815.397	37.04
815.572	36.17
815.747	36.39
815.922	38.31
816.097	38.42
816.272	37.87
816.447	39.28
816.622	38.86
816.797	38.68
816.972	36.22
817.147	36.85
817.322	38.87
817.496	38.29
817.671	38.35
817.846	37.94
818.021	37.45
818.196	36.83
818.371	35.49
818.545	35.54
818.72	36.22
818.895	37.32
819.069	37.23
819.244	36.76
819.419	37.01
819.594	38.18
819.768	38.89
819.943	39.44
820.117	39.48
820.292	39.93
820.467	40
820.641	39.74
820.816	40.14
820.99	40.32
821.165	40.05
821.339	39.76
821.514	39.66
821.688	39.48
821.863	39.44
822.037	39.41
822.212	39.31
822.386	39.48
822.56	39.33
822.735	39.3
822.909	39.03
823.084	39.07
823.258	39.08
823.432	38.74
823.606	38.57
823.781	38.43
823.955	38.21
824.129	37.65
824.303	37.39
824.478	37.34
824.652	36.97
824.826	36.59
825	36.52
825.174	36.71
825.348	36.94
825.523	37.19
825.697	37.17
825.871	37.34
826.045	38.01
826.219	37.98
826.393	38.19
826.567	38.45
826.741	38.8
826.915	39.14
827.089	38.83
827.263	38.86
827.437	39.06
827.611	39.32
827.784	39.45
827.958	39.72
828.132	39.47
828.306	39.14
828.48	38.4
828.654	38.64
828.827	38.08
829.001	37.94
829.175	37.68
829.349	36.92
829.522	36.46
829.696	36.37
829.87	36.19
830.044	36.44
830.217	36.3
830.391	36.8
830.565	36.29
830.738	36.88
830.912	36.56
831.085	36.78
831.259	37.2
831.432	37.45
831.606	36.95
831.779	36.73
831.953	37.14
832.126	37.7
832.3	36.98
832.473	37.35
832.647	37.02
832.82	38.13
832.994	38.64
833.167	38.79
833.34	38.01
833.514	38.21
833.687	38.08
833.86	37.16
834.034	37.15
834.207	38.07
834.38	37.43
834.553	37.07
834.727	36.12
834.9	35.99
835.073	35.77
835.246	36.48
835.419	36.19
835.593	36.88
835.766	37.44
835.939	37.79
836.112	37.5
836.285	38.18
836.458	38.69
836.631	39.57
836.804	40.04
836.977	39.89
837.15	39.21
837.323	39.69
837.496	38.67
837.669	38
837.842	38.86
838.015	38.6
838.188	38.58
838.361	38.16
838.533	37.88
838.706	36.91
838.879	38.44
839.052	38.65
839.225	38.23
839.398	38.05
839.57	39.62
839.743	38.85
839.916	38.93
840.088	40.26
840.261	40.14
840.434	41.74
840.607	41.3
840.779	39.71
840.952	39.99
841.124	39.03
841.297	39.64
841.47	37.13
841.642	36.44
841.815	36.18
841.987	35
842.16	34.26
842.332	33.77
842.505	32.74
842.677	32.61
842.85	31.28
843.022	31.55
843.194	31.4
843.367	35.25
843.539	34.45
843.712	34.59
843.884	34.62
844.056	37.47
844.229	36.35
844.401	39.13
844.573	41
844.745	43.26
844.918	43.44
845.09	41.18
845.262	36.69
845.434	38.45
845.606	38.59
845.779	39.55
845.951	36.79
846.123	35.04
846.295	33.62
846.467	29.34
846.639	28.95
846.811	33.06
846.983	33.51
847.155	35.81
847.327	33.21
847.499	34.47
847.671	34.52
847.843	37.66
848.015	42.15
848.187	41.13
848.359	44.39
848.531	41.9
848.703	36.78
848.875	34.81
849.047	33.5
849.218	31.9
849.39	28.7
849.562	25.42
849.734	25.98
849.905	24.28
850.077	24.75
850.249	23.15
850.421	26.28
850.592	29.62
850.764	29.7
850.936	34.38
851.107	33.45
851.279	35.04
851.451	38
851.622	35.63
851.794	31.71
851.965	31.72
852.137	33.04
852.308	31.44
852.48	33.91
852.651	40.94
852.823	38.52
852.994	40.14
853.166	40.94
853.337	37.14
853.509	36.51
853.68	40.15
853.851	38.2
854.023	35.08
854.194	33.29
854.365	31.74
854.537	27.89
854.708	24.23
854.879	27.78
855.05	26.06
855.222	30.5
855.393	31.69
855.564	31.38
855.735	33.58
855.906	34.08
856.078	35.66
856.249	30.9
856.42	30.87
856.591	37.14
856.762	32.46
856.933	32.44
857.104	31.78
857.275	30.52
857.446	26.18
857.617	27.65
857.788	30.88
857.959	28.39
858.13	31.53
858.301	29.73
858.472	24.77
858.643	27.8
858.814	30.51
858.985	29.75
859.155	31.72
859.326	32.91
859.497	32.24
859.668	33.14
859.839	33.79
860.009	32.8
860.18	35.92
860.351	38.17
860.522	40.05
860.692	37.05
860.863	38.11
861.034	36.28
861.204	34.98
861.375	32.48
861.546	31.66
861.716	35.07
861.887	37.37
862.057	37.04
862.228	35.56
862.398	36.78
862.569	37.49
862.739	33.74
862.91	35.07
863.08	37.39
863.251	41.35
863.421	39.25
863.592	34.87
863.762	35.01
863.932	34.39
864.103	35.4
864.273	34.3
864.443	37.51
864.614	41.61
864.784	38.23
864.954	40.87
865.125	40.21
865.295	42.76
865.465	44.53
865.635	40.29
865.805	38.18
865.976	39.54
866.146	42.8
866.316	42.07
866.486	41.9
866.656	41.53
866.826	40.08
866.996	37.49
867.166	34.85
867.336	37.27
867.506	41.58
867.676	40.63
867.846	41.13
868.016	35.39
868.186	32.28
868.356	30.47
868.526	37.77
868.696	36.63
868.866	38.63
869.036	38.77
869.206	38.62
869.376	38.59
869.545	42.42
869.715	38.76
869.885	40.92
870.055	43.27
870.224	45.16
870.394	41.13
870.564	44.07
870.734	45.32
870.903	44.06
871.073	42.82
871.243	38.86
871.412	37.94
871.582	39.64
871.751	37.32
871.921	34.89
872.091	29.54
872.26	33.12
872.43	30.7
872.599	27.87
872.769	31.49
872.938	36.21
873.108	39.61
873.277	37.04
873.446	36.6
873.616	40.57
873.785	41.01
873.955	47.35
874.124	47.13
874.293	44.02
874.463	46.18
874.632	43.16
874.801	41.76
874.971	44.73
875.14	44.15
875.309	40.95
875.478	41.26
875.647	40.84
875.817	34.11
875.986	32.19
876.155	33.98
876.324	33.4
876.493	37.6
876.662	38.42
876.831	34.23
877	38.29
877.17	43.85
877.339	43.04
877.508	44.71
877.677	43.95
877.846	44.34
878.015	43.26
878.184	41.57
878.352	38.65
878.521	38.97
878.69	38.59
878.859	37.64
879.028	33.89
879.197	34.14
879.366	33.05
879.534	33.61
879.703	32.24
879.872	33.42
880.041	34.62
880.21	34.57
880.378	32.88
880.547	33.44
880.716	32.73
880.884	35.47
881.053	35.3
881.222	36.03
881.39	36.83
881.559	36.96
881.727	36.99
881.896	36.87
882.065	37.18
882.233	37.16
882.402	37
882.57	37.18
882.739	36.42
882.907	36.44
883.076	35.72
883.244	35.37
883.412	35.98
883.581	35.67
883.749	35.46
883.918	34.96
884.086	35.26
884.254	36.07
884.423	36.48
884.591	37.18
884.759	36.87
884.927	37.34
885.096	37.98
885.264	36.67
885.432	37.09
885.6	36.72
885.769	38.47
885.937	38.17
886.105	39.75
886.273	39.76
886.441	38.62
886.609	39.64
886.777	39.24
886.945	38.88
887.113	39.71
887.281	40.99
887.449	43.38
887.617	40.95
887.785	40.07
887.953	36.72
888.121	34.11
888.289	28.45
888.457	28.65
888.625	32.47
888.793	31.1
888.961	31.35
889.129	29.37
889.296	30.09
889.464	31.15
889.632	31.88
889.8	30.26
889.967	32.95
890.135	44.71
