Data from 2938814__Reflection_01.txt Node
Date: Thu Mar 12 15:59:55 EDT 2015
User: robert
Spectrometer: USB4E03002
Autoset integration time: false
Trigger mode: 4
Integration Time (sec): 1.000000E-1
Scans to average: 10
Electric dark correction enabled: false
Nonlinearity correction enabled: false
Boxcar width: 5
Stray light correction enabled: false
XAxis mode: Wavelengths
Stop averaging: false
Number of Pixels in Spectrum: 3648
>>>>>Begin Spectral Data<<<<<
177.575	-1254.76
177.794	-1213.85
178.014	-841.13
178.233	-4280.65
178.452	2078.21
178.672	-6164.52
178.891	-1042.93
179.11	-1089.12
179.33	-1402.41
179.549	-1620.95
179.768	-11718.18
179.987	-9589.29
180.207	-1549.7
180.426	4056.25
180.645	-2626.8
180.864	-2113.56
181.084	3903.12
181.303	1506.29
181.522	8390.62
181.741	0
181.96	66750
182.179	-10022.22
182.398	-5470
182.618	3095.79
182.837	-3944.59
183.056	-4674.58
183.275	-4521.31
183.494	-7824.24
183.713	4216.39
183.932	1676.55
184.151	1513.42
184.37	643.19
184.589	576.81
184.808	476.13
185.027	337.52
185.246	375.12
185.465	326.31
185.684	357.52
185.903	427.78
186.122	517.25
186.341	552.39
186.56	548.49
186.779	611.66
186.998	863.01
187.216	810.55
187.435	1317.62
187.654	979.86
187.873	1434.34
188.092	1216.46
188.311	838.92
188.53	685.19
188.748	594.32
188.967	612.79
189.186	1157.33
189.405	593.56
189.623	602.15
189.842	664.4
190.061	656.76
190.28	650.7
190.498	706.05
190.717	1478.92
190.936	1942.5
191.154	1249.16
191.373	1106
191.592	1952.14
191.81	-78433.33
192.029	-1645.59
192.248	-861
192.466	-605.9
192.685	-919.31
192.904	-728.31
193.122	-605.35
193.341	-682.29
193.559	-751.41
193.778	-706.88
193.996	-3613.85
194.215	6215.79
194.433	831.13
194.652	527.61
194.87	486.98
195.089	602.71
195.307	693.5
195.526	535.3
195.744	498.54
195.963	456.53
196.181	481.65
196.399	520.26
196.618	544.38
196.836	703.72
197.055	1123.28
197.273	819.68
197.491	626.5
197.71	407.32
197.928	405.86
198.146	415.6
198.365	654.45
198.583	683.99
198.801	776.63
199.019	928.37
199.238	721.08
199.456	529.64
199.674	683.05
199.892	797.4
200.111	947.12
200.329	736.84
200.547	595
200.765	503.77
200.983	503.44
201.202	475.88
201.42	424.09
201.638	512.12
201.856	579.7
202.074	468.74
202.292	398.19
202.51	773.93
202.728	855.56
202.946	1217.7
203.165	809.83
203.383	816.31
203.601	836.33
203.819	1173.49
204.037	969.93
204.255	775.71
204.473	944.36
204.691	3869.7
204.909	812.5
205.127	917.67
205.345	611.24
205.562	399.26
205.78	420.8
205.998	379.55
206.216	350.93
206.434	312.95
206.652	320.57
206.87	307.32
207.088	297.3
207.306	241.8
207.523	244
207.741	248.24
207.959	400.43
208.177	365.22
208.395	362.93
208.612	356.63
208.83	411.52
209.048	482.23
209.266	503.45
209.483	349.45
209.701	385.87
209.919	399.19
210.136	536.1
210.354	414.46
210.572	395.65
210.79	388.73
211.007	432.05
211.225	402.78
211.442	317.89
211.66	289.79
211.878	286.69
212.095	185.03
212.313	180.49
212.53	183.43
212.748	174.31
212.966	157.45
213.183	154.53
213.401	156.07
213.618	157.14
213.836	166.24
214.053	173.01
214.271	192.58
214.488	334.09
214.705	339.79
214.923	287.44
215.14	285.87
215.358	289.11
215.575	313.84
215.793	271.46
216.01	251.9
216.227	250.75
216.445	267.1
216.662	251.85
216.879	235.98
217.097	240.62
217.314	242.65
217.531	254.8
217.749	244.88
217.966	223.92
218.183	224.09
218.4	225.1
218.618	222.36
218.835	204.02
219.052	187.75
219.269	188
219.487	174.75
219.704	182.79
219.921	178.28
220.138	177.45
220.355	167.73
220.572	159.41
220.79	156.67
221.007	153.3
221.224	151.28
221.441	162.81
221.658	162.26
221.875	147.65
222.092	129.33
222.309	124.21
222.526	130.04
222.743	134.32
222.96	134.83
223.177	128.39
223.394	117.84
223.611	116.82
223.828	106.03
224.045	104.84
224.262	106.99
224.479	98.32
224.696	91.5
224.913	84.26
225.13	83.06
225.347	77.63
225.564	75.89
225.781	74.82
225.997	68.21
226.214	61.21
226.431	54.69
226.648	50.69
226.865	47.3
227.082	43.82
227.298	37.19
227.515	32.71
227.732	29.72
227.949	26.33
228.165	23.49
228.382	22.42
228.599	22.16
228.816	20.98
229.032	19.06
229.249	18.41
229.466	17.65
229.682	18.73
229.899	18.66
230.116	18.51
230.332	18.71
230.549	20
230.765	21
230.982	21.52
231.199	21.66
231.415	24.02
231.632	25.28
231.848	26.59
232.065	26.25
232.281	28.24
232.498	29.66
232.714	30.94
232.931	30.76
233.147	29.45
233.364	28.7
233.58	29.52
233.797	29.26
234.013	28.76
234.23	27.48
234.446	26.58
234.662	23.85
234.879	23.31
235.095	22.93
235.312	23.79
235.528	25.83
235.744	25.31
235.961	25.52
236.177	24.84
236.393	24.48
236.61	26.41
236.826	27.36
237.042	29.07
237.258	31.42
237.475	31.6
237.691	31.76
237.907	28.94
238.123	29.56
238.339	31.49
238.556	31.59
238.772	32.54
238.988	32.22
239.204	32.19
239.42	32.07
239.636	29.89
239.853	28.06
240.069	26.2
240.285	24.96
240.501	23.99
240.717	22.12
240.933	20.72
241.149	18.36
241.365	16.73
241.581	15.88
241.797	15.01
242.013	13.73
242.229	13.37
242.445	12.64
242.661	12.91
242.877	12.47
243.093	11.89
243.309	12.19
243.525	13.19
243.741	14.19
243.957	13.94
244.173	13.78
244.388	15.23
244.604	15.63
244.82	15.77
245.036	14.89
245.252	14.76
245.468	14.64
245.683	13.5
245.899	12.81
246.115	12.24
246.331	11.55
246.547	11.3
246.762	10.64
246.978	10.35
247.194	10.42
247.409	10.39
247.625	10.26
247.841	10.17
248.057	10.34
248.272	10.05
248.488	10.12
248.703	10.45
248.919	10.98
249.135	11.37
249.35	11.63
249.566	12.2
249.782	13.1
249.997	13.5
250.213	13.84
250.428	14.14
250.644	14.53
250.859	13.97
251.075	14.77
251.29	14.21
251.506	14.42
251.721	14.55
251.937	14.77
252.152	14.55
252.368	15.09
252.583	15.55
252.798	16.01
253.014	16.52
253.229	17.28
253.445	18.28
253.66	19.44
253.875	19.22
254.091	19.88
254.306	20.23
254.521	21.21
254.737	22.07
254.952	20.95
255.167	20.95
255.383	20.48
255.598	20.37
255.813	19.01
256.028	17.48
256.244	18.57
256.459	17.92
256.674	16.84
256.889	15.91
257.104	14.64
257.32	15.1
257.535	14.36
257.75	14.06
257.965	13.28
258.18	12.49
258.395	12.14
258.61	10.87
258.826	10.36
259.041	9.89
259.256	9.77
259.471	9.46
259.686	8.97
259.901	8.83
260.116	8.68
260.331	8.36
260.546	8.42
260.761	8.46
260.976	8.72
261.191	9.15
261.406	9.33
261.621	9.33
261.836	9.66
262.05	9.81
262.265	10.37
262.48	10.87
262.695	11.22
262.91	11.57
263.125	11.71
263.34	11.9
263.555	12.19
263.769	12.62
263.984	11.8
264.199	11.88
264.414	13.18
264.629	12.99
264.843	12.63
265.058	13.52
265.273	13.07
265.488	13
265.702	12.51
265.917	11.81
266.132	11.98
266.346	12.83
266.561	12.94
266.776	11.97
266.99	11.59
267.205	11.78
267.42	11.51
267.634	11.67
267.849	11.55
268.063	11.48
268.278	10.92
268.492	10.7
268.707	10.04
268.922	9.29
269.136	8.86
269.351	8.69
269.565	8.08
269.78	7.92
269.994	7.85
270.209	7.92
270.423	7.91
270.637	8.56
270.852	8.11
271.066	8.29
271.281	8.39
271.495	8.74
271.709	8.94
271.924	9.27
272.138	8.89
272.353	8.86
272.567	8.83
272.781	9.42
272.996	9.61
273.21	9.72
273.424	10.03
273.638	10.01
273.853	10.4
274.067	10.45
274.281	10.24
274.495	10.46
274.71	10.28
274.924	10
275.138	9.58
275.352	9.55
275.566	10.04
275.781	10.04
275.995	10.21
276.209	10.55
276.423	10.62
276.637	10.75
276.851	10.5
277.065	11.09
277.279	11.66
277.493	11.89
277.707	11.99
277.921	11.58
278.135	11.15
278.349	11.27
278.563	10.77
278.777	11.19
278.991	11.26
279.205	12.07
279.419	11.92
279.633	11.95
279.847	11.6
280.061	11.46
280.275	11.61
280.489	11.25
280.703	11.27
280.917	11.12
281.131	10.34
281.344	10.35
281.558	9.78
281.772	9.36
281.986	9.21
282.2	9.14
282.414	8.67
282.627	8.51
282.841	8.66
283.055	8.52
283.269	8.6
283.482	8.93
283.696	8.46
283.91	8.46
284.123	8.41
284.337	8.16
284.551	7.89
284.764	7.78
284.978	7.72
285.192	7.67
285.405	7.23
285.619	6.99
285.833	6.84
286.046	7.01
286.26	6.99
286.473	7.13
286.687	7.43
286.9	7.8
287.114	7.82
287.327	7.92
287.541	8.15
287.754	8.26
287.968	8.48
288.181	8.35
288.395	8.16
288.608	8.17
288.822	8.04
289.035	7.56
289.248	7.29
289.462	7.27
289.675	7.15
289.889	7.26
290.102	7.64
290.315	7.61
290.529	7.71
290.742	7.76
290.955	7.4
291.169	7.38
291.382	7.89
291.595	7.97
291.808	8.09
292.022	8.04
292.235	7.54
292.448	7.67
292.661	7.75
292.875	7.9
293.088	8.17
293.301	8.67
293.514	8.5
293.727	8.16
293.94	8.52
294.153	8.57
294.367	8.81
294.58	9.04
294.793	8.65
295.006	8.51
295.219	8.26
295.432	8.08
295.645	7.86
295.858	7.59
296.071	7.39
296.284	7.08
296.497	6.81
296.71	6.64
296.923	6.58
297.136	6.61
297.349	6.54
297.562	6.46
297.775	6.27
297.988	6.19
298.201	6.57
298.414	6.52
298.626	6.6
298.839	6.77
299.052	6.97
299.265	7.11
299.478	7.39
299.691	7.42
299.903	7.35
300.116	7.65
300.329	8.12
300.542	8.08
300.755	8.44
300.967	8.32
301.18	8.38
301.393	8.11
301.605	8.16
301.818	8.05
302.031	8.04
302.243	8.36
302.456	8.72
302.669	8.58
302.881	8.76
303.094	8.88
303.307	8.86
303.519	8.81
303.732	9.16
303.944	9.26
304.157	9.02
304.37	9.1
304.582	9.27
304.795	8.96
305.007	9.06
305.22	9.17
305.432	9.24
305.645	9.44
305.857	9.91
306.069	9.78
306.282	9.68
306.494	9.87
306.707	10.23
306.919	10.4
307.132	10.29
307.344	10.15
307.556	9.83
307.769	9.59
307.981	9.23
308.193	8.9
308.406	8.75
308.618	8.77
308.83	8.9
309.043	8.64
309.255	8.15
309.467	8.23
309.679	8.3
309.892	8.46
310.104	8.27
310.316	8.49
310.528	8.28
310.74	8.49
310.953	8.64
311.165	8.41
311.377	8.22
311.589	8.25
311.801	8.2
312.013	8.01
312.225	7.87
312.437	8.15
312.649	8.34
312.862	8.59
313.074	8.3
313.286	8.41
313.498	8.63
313.71	8.95
313.922	9.24
314.134	9.81
314.346	10.16
314.558	10.58
314.77	10.76
314.982	10.34
315.193	10.41
315.405	10.61
315.617	10.43
315.829	10.55
316.041	10.51
316.253	10.53
316.465	9.93
316.677	10.01
316.888	9.68
317.1	9.7
317.312	10.29
317.524	10.6
317.736	11.47
317.947	11.46
318.159	11.19
318.371	11.84
318.583	12.11
318.794	12.4
319.006	12.93
319.218	13.01
319.43	13.18
319.641	13.49
319.853	13.38
320.064	12.76
320.276	12.89
320.488	13.67
320.699	13.34
320.911	13.61
321.123	14.27
321.334	14.05
321.546	14.73
321.757	15.13
321.969	14.92
322.18	15.22
322.392	15.12
322.603	15.53
322.815	16.01
323.026	16.18
323.238	15.73
323.449	15.78
323.661	15.41
323.872	15.33
324.083	15.41
324.295	15.49
324.506	15.28
324.718	15.47
324.929	15.45
325.14	15.34
325.352	15.31
325.563	15.95
325.774	15.95
325.986	16.34
326.197	16.84
326.408	16.99
326.62	17.27
326.831	17.92
327.042	18.48
327.253	18.5
327.464	18.24
327.676	18.78
327.887	19.18
328.098	19.43
328.309	20.2
328.52	20.46
328.732	20.84
328.943	20.85
329.154	21.33
329.365	21.59
329.576	22.33
329.787	23.2
329.998	23.56
330.209	23.76
330.42	23.8
330.631	24.11
330.842	24.45
331.053	24.39
331.264	25.08
331.475	25.47
331.686	25.81
331.897	25.88
332.108	26.39
332.319	26.36
332.53	26.72
332.741	27.51
332.952	27.62
333.163	27.69
333.374	27.89
333.585	27.85
333.795	27.96
334.006	27.98
334.217	28.69
334.428	28.49
334.639	28.87
334.849	28.88
335.06	28.49
335.271	28.49
335.482	28.5
335.692	28.71
335.903	29.31
336.114	28.82
336.325	28.79
336.535	28.56
336.746	28.69
336.957	28.63
337.167	28.82
337.378	29.32
337.589	29.31
337.799	29.4
338.01	29.4
338.22	29.16
338.431	29.67
338.642	30.42
338.852	30.13
339.063	29.96
339.273	29.9
339.484	29.81
339.694	29.65
339.905	29.7
340.115	29.41
340.326	29.58
340.536	29.59
340.746	29.56
340.957	29.05
341.167	29.57
341.378	29.61
341.588	29.7
341.799	29.6
342.009	29.36
342.219	29.31
342.43	29.78
342.64	29.43
342.85	29.48
343.061	28.83
343.271	28.94
343.481	28.61
343.691	28.42
343.902	28.19
344.112	28.16
344.322	28.35
344.532	28.35
344.743	27.81
344.953	28.23
345.163	28
345.373	28.44
345.583	28.45
345.793	28.47
346.004	29.05
346.214	29.42
346.424	29.48
346.634	29.37
346.844	29.67
347.054	29.87
347.264	29.65
347.474	29.48
347.684	29.8
347.894	29.59
348.104	29.15
348.314	28.58
348.524	28.36
348.734	28.38
348.944	28.57
349.154	28.03
349.364	28.2
349.574	28.09
349.784	28.25
349.994	27.83
350.204	27.9
350.413	28.54
350.623	28.66
350.833	28.68
351.043	28.31
351.253	28.3
351.463	28.56
351.672	28.32
351.882	28.39
352.092	28.16
352.302	28.31
352.511	28.52
352.721	28
352.931	28
353.141	27.79
353.35	27.98
353.56	27.94
353.77	27.74
353.979	27.64
354.189	27.58
354.399	27.88
354.608	27.77
354.818	27.38
355.027	27.19
355.237	26.95
355.447	26.92
355.656	26.75
355.866	26.45
356.075	26.6
356.285	26.54
356.494	26.41
356.704	25.94
356.913	25.8
357.123	25.48
357.332	25.57
357.542	25.61
357.751	25.6
357.96	25.76
358.17	25.83
358.379	25.54
358.589	25.74
358.798	25.76
359.007	26.12
359.217	25.88
359.426	25.97
359.635	26.19
359.845	26.09
360.054	26.05
360.263	25.8
360.472	25.62
360.682	25.44
360.891	25.24
361.1	25.09
361.309	24.78
361.519	24.81
361.728	24.78
361.937	24.5
362.146	24.44
362.355	24.54
362.564	24.64
362.774	24.76
362.983	24.88
363.192	24.87
363.401	24.86
363.61	25.03
363.819	25.23
364.028	25.4
364.237	25.37
364.446	25.44
364.655	25.24
364.864	25.09
365.073	25.01
365.282	25.09
365.491	24.81
365.7	24.77
365.909	24.73
366.118	24.82
366.327	24.84
366.536	24.9
366.745	25.04
366.954	25.21
367.162	25.35
367.371	25.35
367.58	25.17
367.789	25.3
367.998	25.26
368.207	25.33
368.415	25.03
368.624	25.13
368.833	25.32
369.042	25
369.25	24.91
369.459	24.8
369.668	24.81
369.877	25.02
370.085	25.11
370.294	25.24
370.503	25.15
370.711	25.19
370.92	24.95
371.129	24.82
371.337	24.62
371.546	24.5
371.754	24.63
371.963	24.47
372.171	24.41
372.38	24.32
372.589	24.21
372.797	24.26
373.006	24.15
373.214	24.02
373.423	24.03
373.631	24.48
373.84	24.28
374.048	24.17
374.256	24.14
374.465	24
374.673	24.11
374.882	24.08
375.09	24.15
375.298	24.21
375.507	24.45
375.715	24.33
375.923	24.06
376.132	24.22
376.34	23.99
376.548	24.03
376.757	23.99
376.965	24.01
377.173	23.94
377.381	23.76
377.59	23.78
377.798	23.38
378.006	23.28
378.214	23.31
378.423	23.22
378.631	23.42
378.839	23.38
379.047	23.3
379.255	23.3
379.463	23.44
379.671	23.55
379.879	23.57
380.088	23.87
380.296	23.81
380.504	23.74
380.712	23.7
380.92	23.51
381.128	23.55
381.336	23.43
381.544	23.3
381.752	23.12
381.96	23.01
382.168	22.8
382.376	22.86
382.584	22.98
382.791	22.87
382.999	22.8
383.207	23.26
383.415	23.45
383.623	23.54
383.831	23.38
384.039	23.46
384.247	23.45
384.454	23.63
384.662	23.46
384.87	23.62
385.078	23.73
385.285	24.04
385.493	23.4
385.701	23.36
385.909	23.7
386.116	24.01
386.324	23.7
386.532	23.81
386.739	23.74
386.947	23.83
387.155	23.84
387.362	23.85
387.57	23.74
387.778	23.79
387.985	23.58
388.193	23.26
388.4	23.05
388.608	23.5
388.816	23.33
389.023	23.24
389.231	23.07
389.438	22.89
389.646	22.91
389.853	22.82
390.061	22.74
390.268	22.75
390.475	22.63
390.683	22.49
390.89	22.26
391.098	22.3
391.305	22.35
391.512	22.38
391.72	22.39
391.927	22.3
392.135	22.29
392.342	22.52
392.549	22.66
392.756	22.76
392.964	22.75
393.171	22.87
393.378	22.68
393.586	22.58
393.793	22.65
394	22.49
394.207	22.56
394.414	22.63
394.622	22.55
394.829	22.47
395.036	22.48
395.243	22.65
395.45	22.64
395.657	22.89
395.864	22.9
396.072	22.78
396.279	22.9
396.486	22.86
396.693	22.78
396.9	22.66
397.107	22.45
397.314	22.53
397.521	22.52
397.728	22.3
397.935	22.16
398.142	22.31
398.349	22.36
398.556	22.28
398.763	22.33
398.97	22.35
399.177	22.45
399.383	22.66
399.59	22.62
399.797	22.58
400.004	22.79
400.211	22.75
400.418	22.63
400.625	22.76
400.831	23.01
401.038	23.03
401.245	22.9
401.452	22.95
401.658	22.76
401.865	22.65
402.072	22.76
402.279	22.83
402.485	23.01
402.692	23.11
402.899	23.09
403.105	23.01
403.312	22.9
403.519	22.96
403.725	23.18
403.932	23.32
404.138	23.34
404.345	22.93
404.552	22.65
404.758	22.56
404.965	22.45
405.171	22.39
405.378	22.47
405.584	22.49
405.791	22.58
405.997	22.38
406.204	22.3
406.41	22.23
406.617	22.54
406.823	22.79
407.029	22.66
407.236	22.72
407.442	22.79
407.649	22.59
407.855	22.65
408.061	22.52
408.268	22.54
408.474	22.69
408.68	22.91
408.887	22.92
409.093	22.94
409.299	23
409.505	23.06
409.712	22.95
409.918	23.11
410.124	23.14
410.33	23.12
410.537	23.21
410.743	23.29
410.949	23.16
411.155	23.16
411.361	23.05
411.567	23.13
411.773	23.06
411.98	23.07
412.186	23.01
412.392	23.02
412.598	22.91
412.804	22.81
413.01	22.61
413.216	22.73
413.422	22.7
413.628	22.7
413.834	22.7
414.04	22.6
414.246	22.57
414.452	22.59
414.658	22.6
414.864	22.84
415.07	22.85
415.275	23
415.481	23.07
415.687	23.14
415.893	23.16
416.099	23.05
416.305	23.13
416.511	23.18
416.716	23.21
416.922	23.12
417.128	22.96
417.334	22.88
417.539	22.7
417.745	22.59
417.951	22.55
418.157	22.47
418.362	22.35
418.568	22.28
418.774	22.17
418.979	22.08
419.185	22.06
419.391	22.08
419.596	22.07
419.802	22.03
420.008	21.96
420.213	21.35
420.419	21.35
420.624	21.42
420.83	21.37
421.035	21.37
421.241	21.38
421.446	21.38
421.652	21.32
421.857	21.21
422.063	21.21
422.268	21.16
422.474	21.71
422.679	21.7
422.885	21.73
423.09	21.76
423.295	21.79
423.501	21.69
423.706	21.68
423.911	21.7
424.117	21.79
424.322	21.72
424.527	21.79
424.733	21.76
424.938	21.8
425.143	21.69
425.349	21.73
425.554	21.67
425.759	21.82
425.964	21.88
426.169	21.78
426.375	21.82
426.58	21.9
426.785	21.94
426.99	21.96
427.195	21.99
427.4	22.28
427.605	22.26
427.811	22.39
428.016	22.32
428.221	22.4
428.426	22.49
428.631	22.61
428.836	22.6
429.041	22.59
429.246	22.66
429.451	22.76
429.656	22.5
429.861	22.44
430.066	22.46
430.271	22.38
430.476	22.26
430.681	22.41
430.886	22.35
431.09	22.43
431.295	22.41
431.5	22.37
431.705	22.37
431.91	22.55
432.115	22.71
432.32	22.61
432.524	22.68
432.729	22.58
432.934	22.6
433.139	22.61
433.343	22.61
433.548	22.65
433.753	22.61
433.958	22.57
434.162	22.48
434.367	22.42
434.572	22.53
434.776	22.35
434.981	22.31
435.186	22.19
435.39	22.18
435.595	22.29
435.799	22.29
436.004	22.46
436.209	22.46
436.413	22.62
436.618	22.7
436.822	22.73
437.027	22.85
437.231	23.01
437.436	23.11
437.64	23.08
437.845	23.1
438.049	23.15
438.253	23
438.458	22.9
438.662	22.8
438.867	22.71
439.071	22.56
439.275	22.62
439.48	22.54
439.684	22.51
439.888	22.49
440.093	22.43
440.297	22.36
440.501	22.41
440.706	22.37
440.91	22.4
441.114	22.42
441.318	22.48
441.523	22.47
441.727	22.53
441.931	22.47
442.135	22.42
442.339	22.36
442.543	22.39
442.748	22.31
442.952	22.5
443.156	22.4
443.36	22.34
443.564	22.37
443.768	22.25
443.972	22.25
444.176	22.31
444.38	22.39
444.584	22.44
444.788	22.42
444.992	22.47
445.196	22.27
445.4	22.24
445.604	22.22
445.808	22.15
446.012	22.15
446.216	22.1
446.42	22.09
446.624	21.99
446.828	21.96
447.032	21.87
447.235	21.81
447.439	21.84
447.643	21.88
447.847	21.94
448.051	22.01
448.254	22.13
448.458	22.19
448.662	22.2
448.866	22.26
449.069	22.33
449.273	22.48
449.477	22.58
449.681	22.69
449.884	22.72
450.088	22.78
450.292	22.79
450.495	22.73
450.699	22.77
450.902	22.71
451.106	22.77
451.31	22.75
451.513	22.68
451.717	22.7
451.92	22.71
452.124	22.79
452.327	22.75
452.531	22.77
452.734	22.79
452.938	22.7
453.141	22.85
453.345	22.8
453.548	22.74
453.752	22.82
453.955	22.73
454.158	22.68
454.362	22.61
454.565	22.6
454.769	22.58
454.972	22.59
455.175	22.62
455.379	22.53
455.582	22.6
455.785	22.59
455.988	22.55
456.192	22.54
456.395	22.54
456.598	22.53
456.801	22.5
457.005	22.55
457.208	22.54
457.411	22.52
457.614	22.51
457.817	22.48
458.021	22.41
458.224	22.46
458.427	22.45
458.63	22.52
458.833	22.57
459.036	22.63
459.239	22.48
459.442	22.38
459.645	22.32
459.848	22.3
460.051	22.29
460.254	22.31
460.457	22.2
460.66	22.22
460.863	22.17
461.066	22.11
461.269	22.05
461.472	22.21
461.675	22.32
461.878	22.42
462.081	22.53
462.284	22.52
462.486	22.52
462.689	22.59
462.892	22.73
463.095	22.66
463.298	22.74
463.5	22.71
463.703	22.68
463.906	22.75
464.109	22.7
464.311	22.72
464.514	22.71
464.717	22.75
464.92	22.79
465.122	22.71
465.325	22.8
465.528	22.79
465.73	22.86
465.933	22.77
466.135	22.83
466.338	22.97
466.541	22.89
466.743	22.77
466.946	22.85
467.148	22.84
467.351	22.83
467.553	22.77
467.756	22.71
467.958	22.63
468.161	22.65
468.363	22.57
468.566	22.48
468.768	22.56
468.971	22.64
469.173	22.6
469.375	22.68
469.578	22.68
469.78	22.74
469.983	22.78
470.185	22.86
470.387	23
470.59	22.99
470.792	23.06
470.994	23.08
471.196	23.15
471.399	23.19
471.601	23.14
471.803	23.14
472.005	23.21
472.208	23.23
472.41	23.26
472.612	23.17
472.814	23.22
473.016	23.16
473.218	23.24
473.421	23.26
473.623	23.3
473.825	23.3
474.027	23.21
474.229	23.24
474.431	23.25
474.633	23.23
474.835	23.14
475.037	23.19
475.239	23.28
475.441	23.18
475.643	23.21
475.845	23.17
476.047	23.26
476.249	23.42
476.451	23.28
476.653	23.18
476.855	23.21
477.057	23.31
477.258	23.26
477.46	23.08
477.662	23.09
477.864	23.02
478.066	22.98
478.268	22.84
478.469	22.71
478.671	22.75
478.873	22.8
479.075	22.71
479.276	22.59
479.478	22.6
479.68	22.74
479.882	22.67
480.083	22.63
480.285	22.62
480.487	22.72
480.688	22.8
480.89	22.81
481.091	22.81
481.293	22.76
481.495	22.75
481.696	22.73
481.898	22.63
482.099	22.6
482.301	22.56
482.502	22.52
482.704	22.39
482.905	22.32
483.107	22.22
483.308	22.13
483.51	22.1
483.711	22.05
483.913	22
484.114	21.93
484.315	21.88
484.517	21.85
484.718	21.79
484.92	21.78
485.121	21.74
485.322	21.77
485.524	21.79
485.725	21.82
485.926	21.88
486.127	21.91
486.329	21.94
486.53	21.98
486.731	21.97
486.932	22.01
487.134	22.04
487.335	22.04
487.536	22.05
487.737	22.07
487.938	22.03
488.139	22.01
488.341	21.96
488.542	22.01
488.743	22.03
488.944	22.07
489.145	22.09
489.346	22.1
489.547	22.16
489.748	22.13
489.949	22.16
490.15	22.28
490.351	22.34
490.552	22.4
490.753	22.45
490.954	22.42
491.155	22.46
491.356	22.52
491.557	22.52
491.758	22.55
491.959	22.61
492.159	22.58
492.36	22.53
492.561	22.5
492.762	22.48
492.963	22.45
493.164	22.47
493.364	22.47
493.565	22.42
493.766	22.44
493.967	22.45
494.167	22.46
494.368	22.54
494.569	22.61
494.769	22.73
494.97	22.81
495.171	22.94
495.371	23.1
495.572	23.16
495.773	23.19
495.973	23.26
496.174	23.27
496.375	23.31
496.575	23.32
496.776	23.26
496.976	23.23
497.177	23.26
497.377	23.19
497.578	23.12
497.778	23.14
497.979	23.2
498.179	23.26
498.38	23.24
498.58	23.28
498.78	23.32
498.981	23.4
499.181	23.45
499.382	23.46
499.582	23.5
499.782	23.64
499.983	23.57
500.183	23.57
500.383	23.51
500.584	23.57
500.784	23.58
500.984	23.65
501.184	23.6
501.385	23.71
501.585	23.81
501.785	23.92
501.985	23.96
502.185	23.96
502.386	23.89
502.586	24.04
502.786	24.1
502.986	24.15
503.186	24.21
503.386	24.29
503.586	24.2
503.786	24.13
503.987	24.12
504.187	24.09
504.387	24.2
504.587	24.4
504.787	24.28
504.987	24.27
505.187	24.21
505.387	24.12
505.587	24.18
505.786	24.29
505.986	24.36
506.186	24.3
506.386	24.36
506.586	24.3
506.786	24.22
506.986	24.31
507.186	24.29
507.386	24.37
507.585	24.4
507.785	24.42
507.985	24.35
508.185	24.38
508.384	24.45
508.584	24.38
508.784	24.45
508.984	24.5
509.183	24.52
509.383	24.57
509.583	24.57
509.782	24.52
509.982	24.54
510.182	24.59
510.381	24.53
510.581	24.62
510.781	24.69
510.98	24.73
511.18	24.76
511.379	24.8
511.579	24.82
511.778	24.88
511.978	25.07
512.177	25.17
512.377	25.25
512.576	25.27
512.776	25.2
512.975	25.21
513.175	25.23
513.374	25.31
513.573	25.41
513.773	25.5
513.972	25.51
514.172	25.59
514.371	25.56
514.57	25.51
514.77	25.6
514.969	25.68
515.168	25.7
515.367	25.77
515.567	25.75
515.766	25.68
515.965	25.64
516.164	25.62
516.364	25.63
516.563	25.7
516.762	25.81
516.961	25.83
517.16	25.8
517.359	25.78
517.559	25.73
517.758	25.76
517.957	25.8
518.156	25.88
518.355	25.88
518.554	25.84
518.753	25.85
518.952	25.82
519.151	25.86
519.35	25.88
519.549	25.91
519.748	25.92
519.947	25.91
520.146	25.97
520.345	25.94
520.544	26.02
520.743	26.04
520.942	26.08
521.141	26.16
521.339	26.2
521.538	26.28
521.737	26.27
521.936	26.42
522.135	26.52
522.333	26.52
522.532	26.58
522.731	26.58
522.93	26.66
523.129	26.67
523.327	26.71
523.526	26.74
523.725	26.78
523.923	26.92
524.122	26.94
524.321	26.95
524.519	27.02
524.718	27.04
524.917	27.06
525.115	27.08
525.314	27.09
525.512	27.05
525.711	27.05
525.909	27.05
526.108	27.11
526.306	27.1
526.505	27.1
526.703	27.05
526.902	27.11
527.1	27.12
527.299	27.11
527.497	27.12
527.696	27.12
527.894	27.1
528.092	27.1
528.291	27.02
528.489	26.99
528.688	26.98
528.886	26.96
529.084	26.9
529.283	26.89
529.481	26.85
529.679	26.86
529.877	26.83
530.076	26.82
530.274	26.81
530.472	26.89
530.67	26.93
530.869	27.01
531.067	27.08
531.265	27.13
531.463	27.24
531.661	27.35
531.859	27.37
532.057	27.46
532.255	27.52
532.454	27.59
532.652	27.57
532.85	27.64
533.048	27.6
533.246	27.63
533.444	27.64
533.642	27.63
533.84	27.58
534.038	27.6
534.236	27.62
534.434	27.6
534.632	27.57
534.83	27.67
535.027	27.65
535.225	27.64
535.423	27.66
535.621	27.74
535.819	27.79
536.017	27.77
536.215	27.78
536.412	27.86
536.61	28.01
536.808	28.09
537.006	28.07
537.203	28.05
537.401	28.14
537.599	28.21
537.797	28.3
537.994	28.34
538.192	28.5
538.39	28.52
538.587	28.54
538.785	28.63
538.983	28.7
539.18	28.78
539.378	28.88
539.575	28.98
539.773	28.99
539.97	29
540.168	29.05
540.366	29.03
540.563	29.09
540.761	29.02
540.958	28.95
541.155	28.91
541.353	28.95
541.55	28.94
541.748	28.82
541.945	28.78
542.143	28.73
542.34	28.72
542.537	28.74
542.735	28.72
542.932	28.79
543.129	28.79
543.327	28.81
543.524	28.78
543.721	28.85
543.919	29.04
544.116	29.18
544.313	29.32
544.51	29.44
544.708	29.59
544.905	29.74
545.102	29.82
545.299	29.97
545.496	30.05
545.693	30.15
545.891	30.23
546.088	30.23
546.285	30.16
546.482	30.1
546.679	29.98
546.876	29.88
547.073	29.74
547.27	29.76
547.467	29.68
547.664	29.74
547.861	29.69
548.058	29.64
548.255	29.63
548.452	29.67
548.649	29.81
548.846	29.84
549.043	30.12
549.24	30.21
549.437	30.12
549.633	30.21
549.83	30.18
550.027	30.26
550.224	30.33
550.421	30.27
550.618	30.3
550.814	30.22
551.011	30.25
551.208	30.09
551.405	30.1
551.601	30.2
551.798	30.21
551.995	30.18
552.191	30.15
552.388	30.13
552.585	30.19
552.781	30.21
552.978	30.32
553.175	30.42
553.371	30.49
553.568	30.55
553.764	30.56
553.961	30.53
554.157	30.6
554.354	30.67
554.55	30.72
554.747	30.73
554.943	30.78
555.14	30.72
555.336	30.74
555.533	30.66
555.729	30.67
555.926	30.68
556.122	30.87
556.318	30.92
556.515	30.83
556.711	30.68
556.907	30.73
557.104	30.76
557.3	30.72
557.496	30.59
557.693	30.8
557.889	30.85
558.085	30.85
558.281	30.76
558.478	30.71
558.674	30.65
558.87	30.84
559.066	30.95
559.262	31.02
559.459	31
559.655	31
559.851	30.92
560.047	30.9
560.243	31
560.439	30.94
560.635	31.01
560.831	31.11
561.027	31.12
561.223	31.12
561.419	31.11
561.615	31.21
561.811	31.35
562.007	31.28
562.203	31.35
562.399	31.42
562.595	31.53
562.791	31.58
562.987	31.59
563.183	31.44
563.379	31.41
563.575	31.41
563.771	31.38
563.966	31.23
564.162	31.2
564.358	31.18
564.554	30.99
564.75	30.98
564.945	31.02
565.141	31.12
565.337	31.22
565.533	31.11
565.728	31.09
565.924	31.12
566.12	31.2
566.315	31.3
566.511	31.28
566.707	31.35
566.902	31.32
567.098	31.24
567.293	31.17
567.489	31.12
567.684	31.06
567.88	31.11
568.076	31.19
568.271	31.22
568.467	31.16
568.662	31.12
568.858	31.2
569.053	31.09
569.248	31.12
569.444	31.16
569.639	31.37
569.835	31.52
570.03	31.4
570.225	31.38
570.421	31.32
570.616	31.43
570.812	31.66
571.007	31.6
571.202	31.72
571.397	31.66
571.593	31.67
571.788	31.6
571.983	31.56
572.178	31.57
572.374	31.6
572.569	31.6
572.764	31.65
572.959	31.4
573.154	31.43
573.35	31.42
573.545	31.5
573.74	31.4
573.935	31.37
574.13	31.48
574.325	31.48
574.52	31.51
574.715	31.61
574.91	31.44
575.105	31.52
575.3	31.55
575.495	31.65
575.69	31.65
575.885	31.7
576.08	31.7
576.275	31.75
576.47	32
576.665	31.93
576.86	32.07
577.055	32.26
577.25	32.36
577.444	32.31
577.639	32.29
577.834	32.41
578.029	32.56
578.224	32.6
578.418	32.68
578.613	32.57
578.808	32.74
579.003	32.79
579.197	32.71
579.392	32.81
579.587	32.93
579.781	32.97
579.976	32.97
580.171	33.03
580.365	33.09
580.56	33.1
580.755	33.19
580.949	33.27
581.144	33.1
581.338	33.13
581.533	33.15
581.727	33.15
581.922	33.28
582.116	33.26
582.311	33.29
582.505	33.38
582.7	33.37
582.894	33.34
583.089	33.39
583.283	33.57
583.478	33.69
583.672	33.75
583.866	33.88
584.061	33.67
584.255	33.74
584.449	33.74
584.644	33.76
584.838	33.79
585.032	33.88
585.226	33.71
585.421	33.73
585.615	33.78
585.809	33.67
586.003	33.67
586.198	33.87
586.392	33.91
586.586	33.79
586.78	33.86
586.974	33.86
587.168	33.86
587.363	34.12
587.557	34.01
587.751	33.98
587.945	34.1
588.139	34.23
588.333	34.2
588.527	34.16
588.721	34.41
588.915	34.45
589.109	34.28
589.303	34.07
589.497	33.89
589.691	33.87
589.885	33.85
590.079	33.8
590.273	33.88
590.466	34
590.66	34.08
590.854	34.08
591.048	34.12
591.242	34.29
591.436	34.61
591.629	34.81
591.823	35.02
592.017	35.15
592.211	35.16
592.404	35.02
592.598	35.03
592.792	35.09
592.986	35.06
593.179	35.03
593.373	35.07
593.567	35.13
593.76	35.03
593.954	35.04
594.147	35.06
594.341	35.12
594.535	35.12
594.728	35.06
594.922	35
595.115	34.99
595.309	34.93
595.502	34.89
595.696	34.84
595.889	34.75
596.083	34.66
596.276	34.61
596.47	34.65
596.663	34.7
596.856	34.57
597.05	34.52
597.243	34.5
597.437	34.41
597.63	34.5
597.823	34.55
598.017	34.58
598.21	34.6
598.403	34.71
598.596	34.71
598.79	34.56
598.983	34.75
599.176	34.89
599.369	34.97
599.563	35.26
599.756	35.33
599.949	35.24
600.142	35.25
600.335	35.33
600.528	35.25
600.722	35.46
600.915	35.58
601.108	35.63
601.301	35.71
601.494	35.75
601.687	35.6
601.88	35.58
602.073	35.44
602.266	35.46
602.459	35.48
602.652	35.34
602.845	35.09
603.038	35.03
603.231	34.96
603.424	34.96
603.617	34.86
603.809	34.88
604.002	34.81
604.195	34.85
604.388	34.85
604.581	34.74
604.774	34.93
604.966	34.85
605.159	34.95
605.352	35.07
605.545	35.01
605.737	35.12
605.93	35.18
606.123	35.31
606.316	35.36
606.508	35.4
606.701	35.72
606.894	35.83
607.086	36.32
607.279	36.39
607.471	36.59
607.664	36.74
607.857	36.91
608.049	37.12
608.242	37.26
608.434	37.69
608.627	38.15
608.819	38.37
609.012	38.83
609.204	39.21
609.397	39.82
609.589	40.31
609.782	40.82
609.974	41.42
610.166	42.13
610.359	42.83
610.551	43.25
610.743	43.75
610.936	44.25
611.128	44.42
611.32	44.55
611.513	44.57
611.705	44.69
611.897	44.8
612.09	44.76
612.282	44.47
612.474	44.12
612.666	44.01
612.858	43.65
613.051	43.42
613.243	43.24
613.435	43.13
613.627	42.82
613.819	42.54
614.011	42.5
614.203	42.22
614.395	41.89
614.588	41.79
614.78	41.48
614.972	41.29
615.164	41.01
615.356	40.64
615.548	40.27
615.74	40.37
615.932	40.03
616.124	39.69
616.315	39.61
616.507	39.74
616.699	39.51
616.891	39.56
617.083	39.53
617.275	39.42
617.467	39.36
617.659	39.48
617.85	39.24
618.042	39.22
618.234	38.88
618.426	38.85
618.618	38.61
618.809	38.44
619.001	38.24
619.193	38.34
619.384	38.26
619.576	38.33
619.768	38.15
619.959	38.14
620.151	38.33
620.343	38.46
620.534	38.23
620.726	38.29
620.917	38.45
621.109	38.56
621.301	38.49
621.492	38.5
621.684	38.5
621.875	38.72
622.067	38.81
622.258	38.85
622.45	39.17
622.641	39.27
622.832	39.36
623.024	39.47
623.215	39.57
623.407	39.54
623.598	39.63
623.789	39.56
623.981	39.52
624.172	39.56
624.363	39.58
624.555	39.44
624.746	39.48
624.937	39.4
625.129	39.45
625.32	39.2
625.511	39.03
625.702	39.04
625.893	39.38
626.085	39.36
626.276	39.27
626.467	39.16
626.658	39.26
626.849	39.31
627.04	39.23
627.231	39.11
627.422	39.3
627.614	39.38
627.805	39.46
627.996	39.34
628.187	39.26
628.378	39.44
628.569	39.6
628.76	39.51
628.951	39.42
629.142	39.65
629.332	39.78
629.523	39.96
629.714	40.05
629.905	40.19
630.096	40.24
630.287	40.33
630.478	40.26
630.669	40.21
630.859	40.43
631.05	40.58
631.241	40.69
631.432	40.64
631.623	40.49
631.813	40.52
632.004	40.39
632.195	40.18
632.385	40.2
632.576	40.34
632.767	40.27
632.957	40.01
633.148	39.78
633.339	39.53
633.529	39.48
633.72	39.33
633.91	39.29
634.101	39.15
634.292	39.17
634.482	39.06
634.673	39.07
634.863	39.1
635.054	39.1
635.244	39.35
635.435	39.34
635.625	39.29
635.815	39.48
636.006	39.36
636.196	39.53
636.387	39.65
636.577	39.76
636.767	39.55
636.958	39.32
637.148	39.5
637.338	39.57
637.529	39.78
637.719	39.92
637.909	39.9
638.099	39.97
638.29	40.12
638.48	39.99
638.67	40.03
638.86	40.39
639.05	40.27
639.241	40.31
639.431	40.13
639.621	40.14
639.811	40.08
640.001	39.95
640.191	39.98
640.381	39.79
640.571	39.86
640.761	40
640.951	39.82
641.141	40.02
641.331	39.73
641.521	39.88
641.711	39.92
641.901	39.83
642.091	39.85
642.281	40.1
642.471	40.2
642.661	40.45
642.851	40.6
643.041	40.58
643.231	40.73
643.42	40.9
643.61	40.57
643.8	40.57
643.99	40.76
644.18	40.98
644.369	40.85
644.559	41.06
644.749	40.98
644.939	40.61
645.128	40.57
645.318	40.67
645.508	40.93
645.697	41.16
645.887	41.01
646.076	40.96
646.266	40.98
646.456	41.06
646.645	40.85
646.835	40.89
647.024	40.83
647.214	41.04
647.403	40.99
647.593	41
647.782	41.21
647.972	41.26
648.161	41.5
648.351	41.41
648.54	41.28
648.73	41.17
648.919	41.44
649.108	41.45
649.298	41.47
649.487	41.4
649.677	41.51
649.866	41.56
650.055	41.7
650.244	41.64
650.434	41.74
650.623	41.67
650.812	41.82
651.002	41.4
651.191	41.58
651.38	41.36
651.569	41.49
651.758	41.21
651.947	41.03
652.137	41.07
652.326	41.12
652.515	41.15
652.704	41.27
652.893	41.23
653.082	41.23
653.271	41.31
653.46	41.58
653.649	41.49
653.838	41.67
654.027	41.8
654.216	41.87
654.405	41.88
654.594	41.76
654.783	41.85
654.972	41.99
655.161	42.36
655.35	42.27
655.539	42.11
655.728	42.19
655.916	41.8
656.105	41.71
656.294	41.58
656.483	41.57
656.672	41.76
656.86	41.81
657.049	41.76
657.238	41.63
657.427	41.57
657.615	41.5
657.804	41.45
657.993	41.81
658.181	41.77
658.37	41.57
658.559	41.35
658.747	41.18
658.936	41.1
659.125	41.09
659.313	41.06
659.502	41.04
659.69	41.14
659.879	41.24
660.067	41.07
660.256	41.11
660.444	41.31
660.633	41.55
660.821	41.63
661.01	41.65
661.198	41.44
661.387	41.69
661.575	41.77
661.763	41.86
661.952	42.05
662.14	42.2
662.328	42.29
662.517	42.4
662.705	42.52
662.893	42.63
663.082	42.76
663.27	43.16
663.458	43.04
663.646	43.25
663.834	43.34
664.023	43.44
664.211	43.29
664.399	43.16
664.587	43.11
664.775	42.95
664.963	42.9
665.152	43.06
665.34	43.21
665.528	43.05
665.716	43.15
665.904	43.13
666.092	42.74
666.28	42.95
666.468	43.25
666.656	43.41
666.844	43.72
667.032	43.78
667.22	43.91
667.408	44.17
667.596	44.15
667.784	43.99
667.971	44.09
668.159	44.28
668.347	43.95
668.535	43.64
668.723	43.55
668.911	43.41
669.098	43.37
669.286	43.06
669.474	42.48
669.662	42.56
669.849	42.6
670.037	42.61
670.225	42.63
670.413	43.06
670.6	43.29
670.788	43.31
670.976	43.05
671.163	43.05
671.351	43.07
671.538	43.25
671.726	43.22
671.913	43.15
672.101	43.03
672.289	42.98
672.476	42.93
672.664	43.06
672.851	43.11
673.039	43.54
673.226	43.71
673.413	43.84
673.601	44.16
673.788	44.1
673.976	44.34
674.163	44.14
674.35	44.36
674.538	44.33
674.725	44.3
674.912	44.53
675.1	44.1
675.287	44.13
675.474	44.06
675.662	43.73
675.849	43.89
676.036	44.07
676.223	44.33
676.411	44.29
676.598	44
676.785	43.83
676.972	43.51
677.159	43.76
677.346	43.54
677.533	43.59
677.721	43.65
677.908	43.7
678.095	43.26
678.282	43.28
678.469	43.1
678.656	43.24
678.843	43.45
679.03	43.56
679.217	43.55
679.404	43.61
679.591	43.58
679.778	43.38
679.964	43.3
680.151	43.47
680.338	43.5
680.525	43.51
680.712	43.5
680.899	43.52
681.086	43.26
681.272	42.93
681.459	42.84
681.646	42.9
681.833	43.07
682.02	43.35
682.206	43.27
682.393	43.12
682.58	43.08
682.766	43.19
682.953	43.16
683.14	43.38
683.326	44.01
683.513	44.49
683.7	44.48
683.886	44.78
684.073	44.47
684.259	44.29
684.446	44.37
684.632	44.55
684.819	44.72
685.005	44.79
685.192	45.16
685.378	45.1
685.565	44.6
685.751	44.45
685.938	44.36
686.124	44.74
686.31	45.17
686.497	45.11
686.683	45.26
686.87	44.95
687.056	44.52
687.242	44.35
687.429	44.37
687.615	44.6
687.801	45.06
687.987	44.86
688.174	44.51
688.36	44.42
688.546	44.86
688.732	44.53
688.918	44.83
689.105	45.35
689.291	45.52
689.477	45.32
689.663	45.51
689.849	45.36
690.035	45.64
690.221	46
690.407	46.18
690.593	45.98
690.779	46.27
690.965	46.25
691.151	45.93
691.337	45.8
691.523	45.7
691.709	45.64
691.895	45.54
692.081	45.3
692.267	45.32
692.453	45.26
692.639	44.98
692.825	44.71
693.011	44.82
693.196	45.31
693.382	45.34
693.568	45.11
693.754	45.19
693.94	45.17
694.125	44.97
694.311	44.58
694.497	44.28
694.682	44.24
694.868	44.44
695.054	44.17
695.239	43.93
695.425	43.98
695.611	44.26
695.796	44.14
695.982	44.35
696.168	44.38
696.353	44.55
696.539	44.35
696.724	44.59
696.91	44.76
697.095	45.04
697.281	45.04
697.466	44.58
697.652	44.66
697.837	44.52
698.023	44.25
698.208	44.08
698.393	44.01
698.579	44.22
698.764	43.8
698.949	43.48
699.135	43.26
699.32	43.1
699.505	43.26
699.691	42.96
699.876	42.88
700.061	42.62
700.246	42.86
700.432	42.81
700.617	42.89
700.802	43.22
700.987	43.41
701.172	43.63
701.358	43.56
701.543	43.78
701.728	44.1
701.913	44.47
702.098	45.57
702.283	45.8
702.468	46.27
702.653	46.62
702.838	46.89
703.023	47.39
703.208	47.13
703.393	47.46
703.578	47.53
703.763	48.13
703.948	48.13
704.133	47.88
704.318	48.04
704.503	48.02
704.688	48.14
704.873	48.05
705.057	47.78
705.242	48.03
705.427	48.2
705.612	48.45
705.797	48.51
705.981	48.96
706.166	49.36
706.351	49.58
706.536	49.55
706.72	49.35
706.905	49.53
707.09	49.64
707.274	49.87
707.459	50.23
707.644	50.16
707.828	49.81
708.013	49.54
708.197	48.96
708.382	48.68
708.567	48.85
708.751	48.99
708.936	49.24
709.12	49.18
709.305	48.92
709.489	49.04
709.673	48.42
709.858	48.65
710.042	48.55
710.227	48.62
710.411	48.71
710.596	48.54
710.78	48.4
710.964	48.07
711.149	47.97
711.333	48.33
711.517	47.76
711.702	48.17
711.886	48.15
712.07	48.09
712.254	48.22
712.438	48.3
712.623	48.32
712.807	48.09
712.991	47.92
713.175	47.92
713.359	47.54
713.544	47.43
713.728	47.4
713.912	47.18
714.096	46.88
714.28	46.65
714.464	46.52
714.648	46.16
714.832	46.63
715.016	46.65
715.2	46.11
715.384	46.13
715.568	46.29
715.752	46.1
715.936	46.3
716.12	46.41
716.304	46.21
716.488	46.05
716.671	46.06
716.855	45.83
717.039	45.65
717.223	46.26
717.407	46.38
717.59	46.67
717.774	46.82
717.958	46.28
718.142	46.26
718.325	45.99
718.509	46.26
718.693	46.32
718.877	45.75
719.06	46.11
719.244	46.17
719.428	45.94
719.611	45.71
719.795	46.12
719.978	46.37
720.162	46.44
720.345	47.05
720.529	46.61
720.713	46.94
720.896	47.19
721.08	47.02
721.263	47
721.446	47.18
721.63	47.21
721.813	46.75
721.997	46.7
722.18	47.03
722.364	46.8
722.547	46.98
722.73	47.1
722.914	47.58
723.097	47.66
723.28	47.57
723.464	48.15
723.647	48.37
723.83	48.61
724.013	49.13
724.197	49.33
724.38	49.79
724.563	49.84
724.746	49.82
724.929	49.54
725.112	50.66
725.296	50.6
725.479	50.05
725.662	49.71
725.845	49.94
726.028	50.03
726.211	49.71
726.394	49.45
726.577	49.54
726.76	49.19
726.943	49.06
727.126	48.02
727.309	48.55
727.492	48.87
727.675	48.65
727.858	48.12
728.041	47.83
728.224	48.04
728.407	47.92
728.589	48.27
728.772	48.53
728.955	48.16
729.138	48.07
729.321	47.43
729.503	47.43
729.686	48.12
729.869	48.5
730.052	48.22
730.234	48.18
730.417	48.42
730.6	47.94
730.782	47.73
730.965	48.33
731.148	48.71
731.33	48.91
731.513	48.66
731.695	47.69
731.878	47.17
732.061	47.41
732.243	47.29
732.426	47.09
732.608	47.07
732.791	47.49
732.973	47.45
733.156	47.33
733.338	47.47
733.52	46.99
733.703	47.57
733.885	47.83
734.068	47.78
734.25	47.72
734.432	47.63
734.615	47.81
734.797	47.38
734.979	47.71
735.162	47.61
735.344	47.32
735.526	47.88
735.708	47.78
735.891	48
736.073	47.55
736.255	47.87
736.437	47.94
736.619	48.03
736.802	47.95
736.984	47.63
737.166	48.1
737.348	48.39
737.53	48.52
737.712	48.7
737.894	48.43
738.076	49.12
738.258	48.96
738.44	48.69
738.622	49
738.804	49.69
738.986	50.09
739.168	49.81
739.35	49.61
739.532	49.52
739.714	49.94
739.896	50.23
740.078	49.67
740.259	49.49
740.441	50.29
740.623	49.75
740.805	49.54
740.987	49.25
741.168	49.07
741.35	49.34
741.532	49.33
741.714	48.51
741.895	48.34
742.077	48.96
742.259	49.2
742.44	48.88
742.622	49.69
742.804	50.01
742.985	50.1
743.167	50.62
743.348	50.22
743.53	50.52
743.711	50.75
743.893	50.75
744.075	50.75
744.256	50.21
744.438	50.67
744.619	50.86
744.8	50.65
744.982	50.36
745.163	50.25
745.345	50.79
745.526	51.05
745.707	50.94
745.889	51.12
746.07	50.6
746.252	51.33
746.433	51.7
746.614	50.83
746.795	50.89
746.977	51.31
747.158	51.37
747.339	51.54
747.52	51.48
747.702	51.77
747.883	52.04
748.064	52.19
748.245	51.99
748.426	50.81
748.607	50.97
748.788	50.42
748.97	49.73
749.151	49.4
749.332	49.31
749.513	48.65
749.694	49.06
749.875	48.81
750.056	49.68
750.237	49.37
750.418	49.71
750.599	49.34
750.78	49.35
750.96	49.36
751.141	49.49
751.322	48.86
751.503	48.91
751.684	48.1
751.865	48.14
752.046	47.7
752.226	48.23
752.407	48.34
752.588	48.96
752.769	49.56
752.949	50.1
753.13	50.64
753.311	51.03
753.492	50.96
753.672	52.07
753.853	51.98
754.034	51.48
754.214	51.45
754.395	51.46
754.575	51.26
754.756	50.43
754.937	50.18
755.117	49.54
755.298	49.33
755.478	49.92
755.659	48.81
755.839	49.15
756.02	49.18
756.2	48.92
756.381	49.78
756.561	49.62
756.741	50.25
756.922	50.64
757.102	50.38
757.283	50.67
757.463	50.08
757.643	50.56
757.823	50.21
758.004	50.7
758.184	50.9
758.364	50.14
758.545	49.83
758.725	49.72
758.905	48.74
759.085	48.89
759.265	48.48
759.446	47.93
759.626	48.01
759.806	47.41
759.986	47.14
760.166	46.93
760.346	46.96
760.526	47.55
760.706	47.63
760.886	48
761.066	47.54
761.246	47.9
761.426	49.07
761.606	48.01
761.786	47.91
761.966	47.74
762.146	48.07
762.326	47.56
762.506	46.78
762.686	46.16
762.866	46.11
763.046	45.88
763.225	45.3
763.405	44.9
763.585	45.1
763.765	45.24
763.945	44.89
764.124	44.52
764.304	44.76
764.484	45.19
764.664	45.37
764.843	45.79
765.023	46.29
765.203	46.88
765.382	47.15
765.562	47.71
765.741	47.92
765.921	48.63
766.101	48.3
766.28	48.16
766.46	47.91
766.639	48.39
766.819	48.34
766.998	48.42
767.178	48.35
767.357	48.51
767.537	48.38
767.716	49.22
767.896	48.8
768.075	49.78
768.254	50.52
768.434	51.76
768.613	51.34
768.792	51.07
768.972	51.21
769.151	51.52
769.33	51.34
769.51	51.76
769.689	51.14
769.868	51.17
770.047	51.63
770.226	51.97
770.406	50.84
770.585	52.06
770.764	52.77
770.943	53.14
771.122	53.3
771.301	53.3
771.48	52.71
771.66	53.23
771.839	53.24
772.018	52.67
772.197	52.87
772.376	53.42
772.555	53.76
772.734	53.92
772.913	53.07
773.092	53.6
773.271	54.09
773.449	54.15
773.628	53.94
773.807	54.57
773.986	54.8
774.165	54.67
774.344	55.58
774.523	54.86
774.701	54.29
774.88	55.77
775.059	54.89
775.238	54.65
775.417	55.09
775.595	55.9
775.774	55.5
775.953	55.48
776.131	55.16
776.31	54.83
776.489	55.29
776.667	55.42
776.846	55.3
777.025	54.39
777.203	54.52
777.382	55.3
777.56	53.94
777.739	54.63
777.917	54.27
778.096	54.49
778.274	53.68
778.453	53.23
778.631	53.42
778.81	53.03
778.988	54.42
779.166	54.06
779.345	53.2
779.523	53.57
779.702	53.4
779.88	54.32
780.058	53.45
780.237	53.5
780.415	54.13
780.593	53.94
780.771	53.42
780.95	53.94
781.128	54.65
781.306	54.5
781.484	55.05
781.662	54.64
781.841	54.97
782.019	55.23
782.197	55.02
782.375	53.62
782.553	53.62
782.731	53.87
782.909	53.29
783.087	53.11
783.265	53.5
783.443	53.65
783.621	55.24
783.799	55.03
783.977	55
784.155	55.75
784.333	56.9
784.511	57.66
784.689	57.94
784.867	58.39
785.045	58.79
785.223	59.63
785.4	60.27
785.578	59.64
785.756	58.56
785.934	58.86
786.112	58.77
786.289	58.22
786.467	57.4
786.645	57.36
786.823	56.51
787	55.9
787.178	55.07
787.356	55.03
787.533	54.4
787.711	54.46
787.889	54.67
788.066	54.15
788.244	53.84
788.421	54
788.599	53.71
788.776	53.73
788.954	53.31
789.131	52.85
789.309	52.57
789.486	51.83
789.664	52.49
789.841	51.55
790.019	51.06
790.196	51.08
790.373	51.22
790.551	51.01
790.728	51.06
790.906	51.2
791.083	53.55
791.26	53.24
791.437	54.14
791.615	53.52
791.792	54.58
791.969	55.56
792.146	56.15
792.324	56.38
792.501	57.45
792.678	57.93
792.855	57.94
793.032	55.5
793.209	55.78
793.387	56.61
793.564	57
793.741	56.93
793.918	56.13
794.095	56.43
794.272	56.33
794.449	55.44
794.626	56.53
794.803	56.97
794.98	57.86
795.157	56.84
795.334	55.87
795.511	55.8
795.688	56.42
795.864	57.61
796.041	57.64
796.218	57.16
796.395	58.22
796.572	56.96
796.749	56.09
796.925	54.51
797.102	55.9
797.279	55.6
797.456	56.03
797.632	55.3
797.809	54.2
797.986	54.08
798.162	54.49
798.339	53.46
798.516	53.33
798.692	54.05
798.869	55.4
799.046	54.66
799.222	55.09
799.399	54.64
799.575	55.16
799.752	56.49
799.928	56.24
800.105	56.68
800.281	57.74
800.458	57.41
800.634	58.2
800.811	56.86
800.987	57.31
801.163	57.22
801.34	57.62
801.516	58.11
801.692	57.6
801.869	57.48
802.045	57.13
802.221	56.64
802.398	57.95
802.574	57.53
802.75	59.79
802.926	58.51
803.103	58.2
803.279	57.16
803.455	55.65
803.631	56.63
803.807	57.98
803.983	59.42
804.16	59.63
804.336	58.56
804.512	58.88
804.688	59.93
804.864	60.42
805.04	61.15
805.216	62.27
805.392	63.55
805.568	63.59
805.744	62.26
805.92	59.87
806.096	58.96
806.272	59.59
806.448	59.83
806.623	57.85
806.799	58.83
806.975	58.32
807.151	58.22
807.327	57.15
807.503	55.28
807.678	54.84
807.854	55.68
808.03	56
808.206	55.96
808.381	55.5
808.557	55.24
808.733	55.12
808.908	55.52
809.084	56.06
809.26	56.49
809.435	57.69
809.611	59.07
809.787	58.74
809.962	60.07
810.138	60.58
810.313	60.34
810.489	60.24
810.664	60.09
810.84	61.07
811.015	60.66
811.191	62.04
811.366	62.35
811.542	61.54
811.717	61.75
811.892	61.74
812.068	60.58
812.243	60.05
812.419	60.92
812.594	59.25
812.769	59.03
812.944	58.93
813.12	56.98
813.295	56.53
813.47	55.29
813.645	54.89
813.821	54.36
813.996	56.02
814.171	56.72
814.346	56.68
814.521	59.45
814.697	60.37
814.872	59.24
815.047	59.6
815.222	59.83
815.397	60.92
815.572	62.38
815.747	60.71
815.922	60.29
816.097	59.82
816.272	59.66
816.447	58.39
816.622	57.99
816.797	58.59
816.972	57.38
817.147	58.35
817.322	58.12
817.496	57.09
817.671	59
817.846	57.73
818.021	57.69
818.196	56.4
818.371	56.55
818.545	55.45
818.72	54.65
818.895	54.93
819.069	52.76
819.244	52.3
819.419	51.99
819.594	51.02
819.768	50.79
819.943	50.33
820.117	50.75
820.292	48.8
820.467	47.03
820.641	45.5
820.816	44.59
820.99	43.08
821.165	42.31
821.339	41.32
821.514	40.3
821.688	39.16
821.863	38.54
822.037	37.59
822.212	37.62
822.386	37.41
822.56	37.2
822.735	36.78
822.909	36.78
823.084	36.45
823.258	36.25
823.432	36.16
823.606	36.5
823.781	36.6
823.955	36.99
824.129	36.68
824.303	36.97
824.478	37.56
824.652	38.1
824.826	37.96
825	38.51
825.174	39.31
825.348	39.53
825.523	39.51
825.697	40.19
825.871	40.1
826.045	40.47
826.219	40.41
826.393	40.08
826.567	40.74
826.741	41.28
826.915	41.14
827.089	41.04
827.263	41.32
827.437	41.41
827.611	40.59
827.784	40.88
827.958	41.27
828.132	41.67
828.306	42.25
828.48	42
828.654	42.37
828.827	42.34
829.001	42.66
829.175	43.65
829.349	44.31
829.522	45.27
829.696	46.12
829.87	47.22
830.044	47.82
830.217	48.74
830.391	49.22
830.565	50.39
830.738	52.72
830.912	53.24
831.085	53.68
831.259	54.55
831.432	55.61
831.606	55.47
831.779	53.82
831.953	53.59
832.126	52.4
832.3	51.49
832.473	50.67
832.647	48.79
832.82	47.64
832.994	46.36
833.167	45.94
833.34	45.14
833.514	44.76
833.687	44.54
833.86	44.26
834.034	44.35
834.207	44.53
834.38	43.91
834.553	43.5
834.727	43.14
834.9	42.55
835.073	41.8
835.246	41.91
835.419	41.83
835.593	41.93
835.766	42.59
835.939	42.48
836.112	42.3
836.285	43
836.458	44.09
836.631	45.92
836.804	48.64
836.977	49.74
837.15	50.22
837.323	50.32
837.496	51.28
837.669	50.84
837.842	52.96
838.015	56.56
838.188	58.61
838.361	60.86
838.533	61.58
838.706	60.03
838.879	60.5
839.052	63.57
839.225	64.33
839.398	65.52
839.57	67.94
839.743	65.98
839.916	62.58
840.088	62.22
840.261	62.29
840.434	62.11
840.607	59.98
840.779	60.77
840.952	58.63
841.124	59.26
841.297	58.34
841.47	57.69
841.642	57.88
841.815	60.07
841.987	59.63
842.16	58.95
842.332	60.61
842.505	65.1
842.677	66.65
842.85	65.78
843.022	68.3
843.194	71.33
843.367	71.17
843.539	70.79
843.712	70.58
843.884	72.36
844.056	73.73
844.229	71.85
844.401	72.03
844.573	71.4
844.745	74.79
844.918	73.9
845.09	74.25
845.262	73.01
845.434	75.14
845.606	70.73
845.779	71.46
845.951	74.78
846.123	77.78
846.295	77.47
846.467	78.3
846.639	79.5
846.811	81
846.983	84.63
847.155	83.74
847.327	88.17
847.499	94.05
847.671	92.18
847.843	89.61
848.015	90.68
848.187	94.58
848.359	95.52
848.531	93.19
848.703	93.95
848.875	91.44
849.047	97.74
849.218	96.18
849.39	97.54
849.562	99.64
849.734	100.89
849.905	100.83
850.077	100.96
850.249	104.24
850.421	107.43
850.592	104.92
850.764	104.87
850.936	105.93
851.107	103.23
851.279	102.45
851.451	102.56
851.622	106.04
851.794	106.72
851.965	105.11
852.137	103.97
852.308	106.92
852.48	108.33
852.651	107.79
852.823	101.11
852.994	105.72
853.166	104.29
853.337	105.22
853.509	100.08
853.68	98.99
853.851	99.03
854.023	98.28
854.194	93.3
854.365	91.94
854.537	89.05
854.708	92.14
854.879	91.11
855.05	95.04
855.222	96.88
855.393	97.46
855.564	98.63
855.735	96.71
855.906	92.94
856.078	92.72
856.249	90.63
856.42	92.73
856.591	98.12
856.762	94.95
856.933	90.76
857.104	88
857.275	88.42
857.446	89.03
857.617	87.99
857.788	91.25
857.959	90.48
858.13	96.89
858.301	94.57
858.472	91.17
858.643	92.85
858.814	94.64
858.985	92.63
859.155	94.88
859.326	92.52
859.497	97.33
859.668	103.53
859.839	101.22
860.009	99.34
860.18	100.77
860.351	98.84
860.522	101.31
860.692	102.66
860.863	108.16
861.034	106.68
861.204	106.69
861.375	102.16
861.546	94.88
861.716	100.95
861.887	99.98
862.057	104.03
862.228	100.79
862.398	99.23
862.569	97.2
862.739	95.74
862.91	94.86
863.08	92.77
863.251	91.72
863.421	94.47
863.592	93.3
863.762	92.36
863.932	91.83
864.103	97.03
864.273	95.63
864.443	97.23
864.614	98.11
864.784	96.77
864.954	100
865.125	102.07
865.295	103.76
865.465	107.43
865.635	111.17
865.805	110.71
865.976	110.77
866.146	112.05
866.316	113.23
866.486	114.13
866.656	116.42
866.826	122.39
866.996	123.39
867.166	121.85
867.336	113.08
867.506	111.86
867.676	113.04
867.846	113.26
868.016	109.65
868.186	110.4
868.356	108.14
868.526	107.79
868.696	104.75
868.866	100.86
869.036	99.74
869.206	103.67
869.376	107.64
869.545	100.15
869.715	101.93
869.885	105.15
870.055	103.81
870.224	104.9
870.394	100.98
870.564	100.06
870.734	104.07
870.903	109.17
871.073	103.47
871.243	93.45
871.412	98.4
871.582	96.4
871.751	99.73
871.921	97.53
872.091	100.12
872.26	97.18
872.43	93.85
872.599	94.49
872.769	90.87
872.938	94.11
873.108	101.61
873.277	99.53
873.446	96.95
873.616	94.77
873.785	93.09
873.955	90.63
874.124	94.26
874.293	95.58
874.463	93.38
874.632	92.23
874.801	88.85
874.971	85.39
875.14	90.07
875.309	91.59
875.478	93.13
875.647	94.89
875.817	93.45
875.986	96.43
876.155	95.48
876.324	98.73
876.493	98.74
876.662	100
876.831	99.69
877	94.14
877.17	92.51
877.339	91.45
877.508	91.51
877.677	95.78
877.846	91.28
878.015	94.65
878.184	89.04
878.352	87.91
878.521	83.08
878.69	83.19
878.859	85.83
879.028	85.8
879.197	79.55
879.366	77.93
879.534	76.18
879.703	74.2
879.872	66.6
880.041	64.83
880.21	61.32
880.378	60.89
880.547	57.3
880.716	52.21
880.884	49.32
881.053	46.74
881.222	43.59
881.39	41.6
881.559	40.32
881.727	40.33
881.896	38.69
882.065	38.19
882.233	37.2
882.402	36.98
882.57	37.26
882.739	36.87
882.907	37.42
883.076	38.34
883.244	38.36
883.412	38.83
883.581	39.25
883.749	39.99
883.918	40.46
884.086	41.64
884.254	42.07
884.423	42.46
884.591	44.06
884.759	45.76
884.927	47.21
885.096	47.67
885.264	48.97
885.432	49.95
885.6	52.68
885.769	55.29
885.937	56.79
886.105	58.99
886.273	60.84
886.441	62.17
886.609	62.17
886.777	61.34
886.945	65.57
887.113	67.57
887.281	69.49
887.449	70.8
887.617	73.06
887.785	76.66
887.953	78.77
888.121	78.55
888.289	81.94
888.457	83.68
888.625	86.81
888.793	85.12
888.961	85.36
889.129	88.65
889.296	90.72
889.464	91.77
889.632	89.98
889.8	89.82
889.967	94.58
890.135	91.52
