Data from 2938843__Reflection_03.txt Node
Date: Wed Mar 11 14:44:40 EDT 2015
User: robert
Spectrometer: USB4E03002
Autoset integration time: false
Trigger mode: 4
Integration Time (sec): 1.000000E-1
Scans to average: 10
Electric dark correction enabled: false
Nonlinearity correction enabled: false
Boxcar width: 5
Stray light correction enabled: false
XAxis mode: Wavelengths
Stop averaging: false
Number of Pixels in Spectrum: 3648
>>>>>Begin Spectral Data<<<<<
177.575	119.86
177.794	157.55
178.014	385.71
178.233	572.15
178.452	1875
178.672	-422.89
178.891	-113
179.11	-27.72
179.33	-0.82
179.549	9.34
179.768	21.46
179.987	24.9
180.207	26.11
180.426	41.91
180.645	76.25
180.864	50.22
181.084	63.75
181.303	74.86
181.522	27.88
181.741	20.86
181.96	21.36
182.179	-90.91
182.398	-17.22
182.618	36.23
182.837	-1.16
183.056	-40.36
183.275	-73.61
183.494	-39.21
183.713	1.11
183.932	-16.62
184.151	-18.01
184.37	20.2
184.589	48.22
184.808	21.19
185.027	-29.12
185.246	-45.58
185.465	-0.78
185.684	8.63
185.903	-46.46
186.122	-90.77
186.341	-57.18
186.56	-206.23
186.779	-149.84
186.998	-164.34
187.216	-108
187.435	-75.41
187.654	-49.7
187.873	-42.93
188.092	-44.85
188.311	-46.29
188.53	-57.77
188.748	-68.53
188.967	27.37
189.186	-70.19
189.405	-15.18
189.623	-9.87
189.842	-30.67
190.061	-216.26
190.28	-344.68
190.498	491.78
190.717	-1111.54
190.936	-443.9
191.154	6020
191.373	-286.96
191.592	-69.52
191.81	-225.49
192.029	1100
192.248	-252.56
192.466	-83.94
192.685	-17.54
192.904	-25.87
193.122	-3.3
193.341	17.12
193.559	4.04
193.778	-4.9
193.996	-13.17
194.215	-17.52
194.433	20.28
194.652	10.33
194.87	6.52
195.089	0.79
195.307	17.45
195.526	23.49
195.744	4.66
195.963	1.2
196.181	0.49
196.399	-3.24
196.618	-58.26
196.836	-121.25
197.055	-73.59
197.273	-100
197.491	-189
197.71	-340
197.928	-200.66
198.146	-119.19
198.365	-118.75
198.583	-119.43
198.801	-78.27
199.019	-52.65
199.238	-16.17
199.456	-21.37
199.674	2.88
199.892	6.3
200.111	7.7
200.329	9.96
200.547	19.2
200.765	26.91
200.983	33.73
201.202	35.19
201.42	44.05
201.638	7.5
201.856	6.17
202.074	6.12
202.292	20.54
202.51	30.93
202.728	42.9
202.946	39.27
203.165	41.04
203.383	22.37
203.601	21.62
203.819	5.9
204.037	11.1
204.255	5.59
204.473	4.33
204.691	0.53
204.909	-14.62
205.127	-18.95
205.345	-33.58
205.562	-55.21
205.78	-50.89
205.998	-63.96
206.216	-30.14
206.434	-15.76
206.652	-19.66
206.87	-23.12
207.088	-28.77
207.306	-31.23
207.523	-31.19
207.741	-44.65
207.959	-27.8
208.177	-35.43
208.395	-29.85
208.612	-36.52
208.83	-61.95
209.048	-66.04
209.266	-96.89
209.483	-64.01
209.701	-75.57
209.919	-76.43
210.136	-83.33
210.354	-91.13
210.572	-57.52
210.79	-38.91
211.007	-50.46
211.225	-53.43
211.442	-39.66
211.66	-34.57
211.878	-44.71
212.095	-142.53
212.313	-157.98
212.53	-143.82
212.748	-122.96
212.966	-101.36
213.183	-105.92
213.401	-80.93
213.618	-76.59
213.836	-82.67
214.053	-81.69
214.271	-84.67
214.488	-14.44
214.705	-1.53
214.923	8.5
215.14	6.37
215.358	10.77
215.575	6.31
215.793	-4.5
216.01	8.63
216.227	17.89
216.445	11.17
216.662	14.91
216.879	18.78
217.097	4.22
217.314	-0.95
217.531	11.22
217.749	6.55
217.966	12.62
218.183	15.2
218.4	11.88
218.618	11
218.835	8
219.052	11.4
219.269	9.17
219.487	13.75
219.704	13.38
219.921	10.8
220.138	15
220.355	9.85
220.572	13.38
220.79	13.71
221.007	10.77
221.224	8.84
221.441	5.22
221.658	0.35
221.875	0.99
222.092	4.67
222.309	-0.74
222.526	-11.31
222.743	-6.29
222.96	-10.82
223.177	-13.57
223.394	-8.22
223.611	-4.3
223.828	-5.53
224.045	-0.23
224.262	3.06
224.479	-1.1
224.696	-2.1
224.913	3.97
225.13	6.67
225.347	8.6
225.564	9.35
225.781	6.15
225.997	7.8
226.214	7.92
226.431	9.17
226.648	8.27
226.865	11.17
227.082	10.92
227.298	10.18
227.515	9.36
227.732	8.22
227.949	6.94
228.165	6.69
228.382	6.14
228.599	6.15
228.816	4.99
229.032	4
229.249	3.9
229.466	3.67
229.682	3.12
229.899	2.66
230.116	2.83
230.332	3.22
230.549	2.93
230.765	2.34
230.982	2.09
231.199	2.31
231.415	2.4
231.632	1.43
231.848	1.76
232.065	2.39
232.281	2.21
232.498	0.99
232.714	1.67
232.931	1.11
233.147	2.79
233.364	3.58
233.58	3.95
233.797	4.71
234.013	4.85
234.23	4.13
234.446	5.18
234.662	4.89
234.879	6.43
235.095	6.17
235.312	7.13
235.528	5.58
235.744	5.93
235.961	6.56
236.177	6.56
236.393	6.99
236.61	7.24
236.826	6.74
237.042	7.38
237.258	5.51
237.475	4.69
237.691	5.76
237.907	6.28
238.123	6.44
238.339	5.27
238.556	5.32
238.772	6.59
238.988	6.86
239.204	6.41
239.42	6.32
239.636	7.39
239.853	7.45
240.069	7.35
240.285	7.06
240.501	5.91
240.717	6.71
240.933	6.08
241.149	5.81
241.365	6.03
241.581	5.77
241.797	5.77
242.013	5.94
242.229	6.11
242.445	6.09
242.661	6.15
242.877	6.25
243.093	5.94
243.309	6.38
243.525	5.79
243.741	5.7
243.957	6.08
244.173	6.27
244.388	6.25
244.604	5.73
244.82	5.99
245.036	6.3
245.252	6.33
245.468	6.21
245.683	6.23
245.899	6.37
246.115	6.49
246.331	6.47
246.547	6.51
246.762	6.64
246.978	6.97
247.194	6.7
247.409	6.71
247.625	6.75
247.841	6.76
248.057	6.99
248.272	7.15
248.488	6.92
248.703	6.87
248.919	6.92
249.135	6.48
249.35	6.32
249.566	6.66
249.782	6.7
249.997	6.63
250.213	6.43
250.428	5.8
250.644	5.99
250.859	6.5
251.075	6.12
251.29	5.67
251.506	5.71
251.721	6.17
251.937	5.28
252.152	5.52
252.368	5.53
252.583	5.92
252.798	6.13
253.014	5.24
253.229	5.61
253.445	5.73
253.66	5.75
253.875	5.89
254.091	5.43
254.306	6.12
254.521	6.19
254.737	6.59
254.952	6.51
255.167	6.59
255.383	7.16
255.598	6.27
255.813	7.27
256.028	7.23
256.244	7.33
256.459	6.8
256.674	6.53
256.889	5.37
257.104	5.4
257.32	5.52
257.535	5.32
257.75	5.65
257.965	5.45
258.18	4.87
258.395	4.93
258.61	4.61
258.826	4.64
259.041	4.53
259.256	4.77
259.471	4.72
259.686	4.55
259.901	4.27
260.116	4.25
260.331	4.42
260.546	4.4
260.761	4.31
260.976	4.32
261.191	4.41
261.406	4.38
261.621	3.95
261.836	3.74
262.05	3.73
262.265	3.9
262.48	3.59
262.695	3.24
262.91	3.32
263.125	3.14
263.34	3.06
263.555	2.44
263.769	3.07
263.984	3.17
264.199	3.29
264.414	3.76
264.629	4.03
264.843	3.93
265.058	4.53
265.273	4.01
265.488	4.58
265.702	4.74
265.917	5.04
266.132	4.22
266.346	4.74
266.561	4.75
266.776	4.22
266.99	3.89
267.205	3.85
267.42	3.1
267.634	3.37
267.849	2.86
268.063	2.9
268.278	2.93
268.492	3.05
268.707	3.13
268.922	2.59
269.136	2.37
269.351	2.41
269.565	2.75
269.78	3.09
269.994	3.38
270.209	4.11
270.423	4.35
270.637	3.93
270.852	3.99
271.066	3.87
271.281	4.3
271.495	4.59
271.709	4.94
271.924	4.79
272.138	4.65
272.353	4.39
272.567	3.89
272.781	3.67
272.996	4
273.21	4.2
273.424	3.87
273.638	3.53
273.853	3.48
274.067	2.94
274.281	2.7
274.495	2.74
274.71	2.64
274.924	2.67
275.138	2.93
275.352	3.04
275.566	2.46
275.781	2.63
275.995	2.51
276.209	2.56
276.423	2.78
276.637	2.99
276.851	3.42
277.065	3.83
277.279	3.72
277.493	3.33
277.707	3.33
277.921	3.81
278.135	4.12
278.349	4.36
278.563	4.12
278.777	4.12
278.991	4.16
279.205	4.12
279.419	3.77
279.633	3.81
279.847	3.91
280.061	4.16
280.275	4.12
280.489	4.27
280.703	4.46
280.917	4.63
281.131	4.91
281.344	4.66
281.558	4.53
281.772	4.58
281.986	4.5
282.2	4.37
282.414	4.16
282.627	4.34
282.841	3.79
283.055	3.98
283.269	3.7
283.482	3.57
283.696	3.79
283.91	3.75
284.123	3.79
284.337	3.78
284.551	3.81
284.764	3.47
284.978	3.5
285.192	3.65
285.405	3.46
285.619	3.54
285.833	3.6
286.046	3.53
286.26	3.6
286.473	3.69
286.687	3.79
286.9	4.01
287.114	4.49
287.327	4.38
287.541	4.46
287.754	4.45
287.968	4.52
288.181	4.3
288.395	4.44
288.608	4.67
288.822	4.45
289.035	4.41
289.248	4.29
289.462	4.28
289.675	4.41
289.889	4.34
290.102	4.45
290.315	4.63
290.529	4.82
290.742	4.82
290.955	4.45
291.169	4.69
291.382	4.57
291.595	4.42
291.808	4.27
292.022	3.93
292.235	3.86
292.448	3.88
292.661	3.92
292.875	3.86
293.088	4.04
293.301	4.12
293.514	4.17
293.727	4.55
293.94	4.99
294.153	5
294.367	5.56
294.58	5.63
294.793	5.95
295.006	5.93
295.219	5.95
295.432	5.77
295.645	6.2
295.858	5.9
296.071	6.18
296.284	6.23
296.497	6.32
296.71	6.24
296.923	6.32
297.136	6.14
297.349	6.01
297.562	6.14
297.775	6.39
297.988	6.02
298.201	6.16
298.414	5.88
298.626	5.52
298.839	5.45
299.052	5.36
299.265	5.34
299.478	5.2
299.691	5.34
299.903	4.9
300.116	4.75
300.329	4.96
300.542	5.11
300.755	4.92
300.967	5.31
301.18	5.45
301.393	5.37
301.605	5.13
301.818	5.13
302.031	5.45
302.243	5.71
302.456	5.85
302.669	5.93
302.881	6.24
303.094	6.57
303.307	6.79
303.519	6.61
303.732	6.85
303.944	6.9
304.157	7.12
304.37	6.73
304.582	6.85
304.795	6.94
305.007	7.05
305.22	6.85
305.432	6.8
305.645	6.62
305.857	6.32
306.069	6.05
306.282	6.48
306.494	6.51
306.707	6.86
306.919	6.99
307.132	6.89
307.344	7.05
307.556	7.29
307.769	7.25
307.981	7.48
308.193	8.1
308.406	8.11
308.618	8.07
308.83	8.07
309.043	7.94
309.255	7.88
309.467	7.92
309.679	7.66
309.892	7.49
310.104	7.41
310.316	7.21
310.528	7.2
310.74	7.33
310.953	7.45
311.165	7.37
311.377	7.3
311.589	7.29
311.801	7.25
312.013	7.28
312.225	7.16
312.437	6.98
312.649	6.9
312.862	6.57
313.074	6.55
313.286	6.61
313.498	6.65
313.71	6.69
313.922	6.39
314.134	6.49
314.346	6.47
314.558	6.43
314.77	7.07
314.982	7.37
315.193	7.48
315.405	7.4
315.617	7.39
315.829	7.21
316.041	7.46
316.253	7.76
316.465	7.56
316.677	7.61
316.888	7.95
317.1	7.82
317.312	7.76
317.524	7.87
317.736	7.76
317.947	7.53
318.159	8.03
318.371	7.79
318.583	7.98
318.794	7.84
319.006	8.05
319.218	8.01
319.43	8.1
319.641	8.09
319.853	8.38
320.064	8.45
320.276	8.35
320.488	8.27
320.699	8.64
320.911	8.96
321.123	9.04
321.334	8.82
321.546	8.55
321.757	8.37
321.969	8.72
322.18	8.59
322.392	9.06
322.603	9.28
322.815	9.3
323.026	9.12
323.238	8.79
323.449	9
323.661	8.87
323.872	8.83
324.083	8.87
324.295	8.39
324.506	8.18
324.718	7.91
324.929	7.85
325.14	7.76
325.352	7.46
325.563	7.36
325.774	7.26
325.986	7.42
326.197	7.7
326.408	7.9
326.62	7.94
326.831	7.79
327.042	7.74
327.253	7.84
327.464	7.97
327.676	8.35
327.887	8.6
328.098	8.23
328.309	8.32
328.52	8.41
328.732	8.16
328.943	8.25
329.154	8.5
329.365	8.39
329.576	8.55
329.787	8.42
329.998	8.22
330.209	8.17
330.42	8.41
330.631	8.19
330.842	7.64
331.053	7.5
331.264	7.81
331.475	7.84
331.686	8.41
331.897	8.54
332.108	8.26
332.319	8.24
332.53	8.4
332.741	8.62
332.952	9.23
333.163	9.62
333.374	10
333.585	9.74
333.795	9.79
334.006	9.43
334.217	9.33
334.428	9.72
334.639	9.58
334.849	9.42
335.06	9.32
335.271	8.71
335.482	8.94
335.692	8.75
335.903	8.98
336.114	8.7
336.325	9.11
336.535	8.89
336.746	8.82
336.957	8.64
337.167	8.3
337.378	7.98
337.589	7.95
337.799	7.91
338.01	7.5
338.22	7.33
338.431	7.62
338.642	7.32
338.852	7.07
339.063	6.94
339.273	7.18
339.484	7.46
339.694	8.07
339.905	8.04
340.115	7.81
340.326	8.07
340.536	8.03
340.746	7.76
340.957	7.52
341.167	7.72
341.378	7.69
341.588	7.57
341.799	7.62
342.009	7.15
342.219	7.08
342.43	7.21
342.64	7.41
342.85	7.4
343.061	7.46
343.271	7.68
343.481	7.82
343.691	8.05
343.902	8.1
344.112	8.02
344.322	8.11
344.532	8.3
344.743	8.09
344.953	7.82
345.163	7.65
345.373	7.75
345.583	7.75
345.793	7.58
346.004	7.31
346.214	7.47
346.424	7.45
346.634	7.36
346.844	7.36
347.054	7.42
347.264	7.54
347.474	7.64
347.684	7.52
347.894	7.57
348.104	7.64
348.314	7.63
348.524	7.57
348.734	7.43
348.944	7.5
349.154	7.44
349.364	7.42
349.574	7.43
349.784	7.38
349.994	7.44
350.204	7.5
350.413	7.35
350.623	7.54
350.833	7.47
351.043	7.8
351.253	8.18
351.463	8.38
351.672	8.39
351.882	8.42
352.092	8.21
352.302	7.94
352.511	7.78
352.721	7.93
352.931	7.77
353.141	7.78
353.35	7.69
353.56	7.65
353.77	7.66
353.979	7.76
354.189	7.68
354.399	8.01
354.608	8.37
354.818	8.16
355.027	8.26
355.237	8.37
355.447	8.46
355.656	8.36
355.866	8.07
356.075	7.85
356.285	7.51
356.494	7.46
356.704	7.42
356.913	7.5
357.123	7.58
357.332	7.35
357.542	7.26
357.751	7.17
357.96	7.03
358.17	7.16
358.379	7.23
358.589	7.39
358.798	7.5
359.007	7.53
359.217	7.37
359.426	7.35
359.635	7.64
359.845	7.48
360.054	7.4
360.263	7.37
360.472	7.29
360.682	7.45
360.891	7.38
361.1	7.42
361.309	7.38
361.519	7.24
361.728	7.13
361.937	7.04
362.146	7.08
362.355	7.07
362.564	7.2
362.774	7.19
362.983	7.16
363.192	7.14
363.401	7.06
363.61	6.97
363.819	7.14
364.028	7.28
364.237	7.08
364.446	7.05
364.655	6.77
364.864	6.64
365.073	6.51
365.282	6.37
365.491	6.34
365.7	6.15
365.909	6.22
366.118	6.09
366.327	5.99
366.536	5.99
366.745	6.12
366.954	6.37
367.162	6.39
367.371	6.44
367.58	6.53
367.789	6.58
367.998	6.6
368.207	6.7
368.415	6.64
368.624	6.77
368.833	6.62
369.042	6.53
369.25	6.58
369.459	6.74
369.668	6.74
369.877	6.58
370.085	6.58
370.294	6.8
370.503	6.52
370.711	6.53
370.92	6.5
371.129	6.57
371.337	6.6
371.546	6.54
371.754	6.39
371.963	6.49
372.171	6.54
372.38	6.52
372.589	6.27
372.797	6.41
373.006	6.4
373.214	6.25
373.423	6.26
373.631	6.17
373.84	6.02
374.048	5.99
374.256	5.95
374.465	5.77
374.673	5.78
374.882	5.84
375.09	5.75
375.298	5.76
375.507	5.77
375.715	5.95
375.923	5.85
376.132	6.13
376.34	6.13
376.548	6.08
376.757	5.94
376.965	5.76
377.173	5.6
377.381	5.47
377.59	5.42
377.798	5.4
378.006	5.22
378.214	5.15
378.423	4.89
378.631	4.75
378.839	4.71
379.047	4.88
379.255	4.97
379.463	5.13
379.671	5.16
379.879	4.9
380.088	4.9
380.296	4.98
380.504	5.13
380.712	5.3
380.92	5.29
381.128	5.13
381.336	4.9
381.544	4.89
381.752	4.84
381.96	4.9
382.168	5.09
382.376	5.09
382.584	4.79
382.791	4.71
382.999	4.61
383.207	4.78
383.415	4.79
383.623	4.68
383.831	4.54
384.039	4.53
384.247	4.48
384.454	4.56
384.662	4.21
384.87	4.19
385.078	4.27
385.285	4.28
385.493	3.99
385.701	3.85
385.909	3.98
386.116	4.06
386.324	3.78
386.532	3.63
386.739	3.57
386.947	3.81
387.155	3.87
387.362	3.83
387.57	3.7
387.778	3.71
387.985	3.94
388.193	3.94
388.4	3.77
388.608	3.91
388.816	3.99
389.023	3.94
389.231	4
389.438	4.05
389.646	3.83
389.853	3.9
390.061	4.06
390.268	3.83
390.475	3.84
390.683	3.91
390.89	3.92
391.098	3.82
391.305	3.7
391.512	3.56
391.72	3.59
391.927	3.65
392.135	3.71
392.342	3.45
392.549	3.29
392.756	3.3
392.964	3.15
393.171	3.17
393.378	3.24
393.586	3.2
393.793	3.34
394	3.18
394.207	3.2
394.414	3.12
394.622	3.39
394.829	3.57
395.036	3.55
395.243	3.81
395.45	3.82
395.657	3.66
395.864	3.95
396.072	3.71
396.279	3.8
396.486	3.68
396.693	3.69
396.9	3.52
397.107	3.52
397.314	3.5
397.521	3.34
397.728	3.3
397.935	3.55
398.142	3.4
398.349	3.51
398.556	3.44
398.763	3.62
398.97	3.31
399.177	3.28
399.383	3.17
399.59	3.31
399.797	3.32
400.004	3.37
400.211	3.31
400.418	3.25
400.625	3.29
400.831	3.32
401.038	3.28
401.245	3.62
401.452	3.69
401.658	3.89
401.865	3.71
402.072	3.67
402.279	3.63
402.485	3.54
402.692	3.61
402.899	3.49
403.105	3.56
403.312	3.53
403.519	3.42
403.725	3.28
403.932	3.23
404.138	3.1
404.345	3.05
404.552	2.99
404.758	2.92
404.965	2.85
405.171	2.83
405.378	2.81
405.584	2.8
405.791	2.76
405.997	2.72
406.204	2.75
406.41	2.79
406.617	2.7
406.823	2.73
407.029	2.77
407.236	2.77
407.442	2.77
407.649	2.71
407.855	2.77
408.061	2.69
408.268	2.81
408.474	2.71
408.68	2.69
408.887	2.76
409.093	2.74
409.299	2.72
409.505	2.79
409.712	2.76
409.918	2.69
410.124	2.52
410.33	2.57
410.537	2.55
410.743	2.49
410.949	2.51
411.155	2.61
411.361	2.63
411.567	2.69
411.773	2.68
411.98	2.72
412.186	2.66
412.392	2.66
412.598	2.67
412.804	2.76
413.01	2.73
413.216	2.83
413.422	2.87
413.628	2.82
413.834	2.87
414.04	2.71
414.246	2.91
414.452	2.98
414.658	3
414.864	2.96
415.07	2.99
415.275	3.12
415.481	3.14
415.687	3.04
415.893	3.16
416.099	3.03
416.305	3.1
416.511	3.07
416.716	3.16
416.922	3.21
417.128	3.28
417.334	3.22
417.539	3.16
417.745	3.16
417.951	3.07
418.157	2.99
418.362	2.92
418.568	2.91
418.774	2.85
418.979	2.73
419.185	2.7
419.391	2.62
419.596	2.57
419.802	2.57
420.008	2.56
420.213	3.26
420.419	3.23
420.624	3.37
420.83	3.36
421.035	3.35
421.241	3.35
421.446	3.41
421.652	3.46
421.857	3.55
422.063	3.6
422.268	3.6
422.474	3.01
422.679	3.05
422.885	2.97
423.09	2.95
423.295	2.91
423.501	2.93
423.706	2.81
423.911	2.72
424.117	2.65
424.322	2.59
424.527	2.54
424.733	2.51
424.938	2.47
425.143	2.42
425.349	2.4
425.554	2.39
425.759	2.39
425.964	2.49
426.169	2.57
426.375	2.65
426.58	2.67
426.785	2.68
426.99	2.67
427.195	2.66
427.4	2.68
427.605	2.85
427.811	2.89
428.016	2.96
428.221	2.89
428.426	2.82
428.631	2.72
428.836	2.67
429.041	2.6
429.246	2.69
429.451	2.78
429.656	2.85
429.861	2.7
430.066	2.75
430.271	2.67
430.476	2.72
430.681	2.74
430.886	2.75
431.09	2.81
431.295	2.81
431.5	2.74
431.705	2.68
431.91	2.66
432.115	2.56
432.32	2.5
432.524	2.55
432.729	2.61
432.934	2.61
433.139	2.65
433.343	2.65
433.548	2.68
433.753	2.75
433.958	2.81
434.162	2.71
434.367	2.75
434.572	2.72
434.776	2.69
434.981	2.63
435.186	2.62
435.39	2.56
435.595	2.52
435.799	2.47
436.004	2.38
436.209	2.34
436.413	2.42
436.618	2.45
436.822	2.48
437.027	2.47
437.231	2.39
437.436	2.4
437.64	2.46
437.845	2.38
438.049	2.42
438.253	2.57
438.458	2.5
438.662	2.61
438.867	2.65
439.071	2.66
439.275	2.7
439.48	2.84
439.684	2.82
439.888	2.73
440.093	2.85
440.297	2.85
440.501	2.82
440.706	2.85
440.91	2.8
441.114	2.74
441.318	2.76
441.523	2.7
441.727	2.66
441.931	2.7
442.135	2.7
442.339	2.57
442.543	2.61
442.748	2.57
442.952	2.6
443.156	2.56
443.36	2.66
443.564	2.6
443.768	2.53
443.972	2.46
444.176	2.44
444.38	2.46
444.584	2.54
444.788	2.49
444.992	2.47
445.196	2.43
445.4	2.47
445.604	2.42
445.808	2.45
446.012	2.53
446.216	2.57
446.42	2.52
446.624	2.49
446.828	2.4
447.032	2.45
447.235	2.52
447.439	2.54
447.643	2.48
447.847	2.49
448.051	2.52
448.254	2.45
448.458	2.43
448.662	2.49
448.866	2.53
449.069	2.66
449.273	2.6
449.477	2.57
449.681	2.63
449.884	2.63
450.088	2.64
450.292	2.53
450.495	2.55
450.699	2.57
450.902	2.55
451.106	2.57
451.31	2.47
451.513	2.56
451.717	2.5
451.92	2.38
452.124	2.29
452.327	2.26
452.531	2.33
452.734	2.34
452.938	2.27
453.141	2.26
453.345	2.19
453.548	2.22
453.752	2.19
453.955	2.26
454.158	2.25
454.362	2.42
454.565	2.39
454.769	2.41
454.972	2.42
455.175	2.5
455.379	2.53
455.582	2.62
455.785	2.65
455.988	2.57
456.192	2.38
456.395	2.37
456.598	2.43
456.801	2.41
457.005	2.35
457.208	2.41
457.411	2.46
457.614	2.49
457.817	2.39
458.021	2.43
458.224	2.45
458.427	2.48
458.63	2.52
458.833	2.42
459.036	2.43
459.239	2.47
459.442	2.46
459.645	2.42
459.848	2.33
460.051	2.36
460.254	2.38
460.457	2.35
460.66	2.42
460.863	2.37
461.066	2.42
461.269	2.47
461.472	2.36
461.675	2.29
461.878	2.29
462.081	2.4
462.284	2.37
462.486	2.33
462.689	2.37
462.892	2.33
463.095	2.37
463.298	2.29
463.5	2.21
463.703	2.38
463.906	2.5
464.109	2.42
464.311	2.38
464.514	2.41
464.717	2.4
464.92	2.36
465.122	2.33
465.325	2.44
465.528	2.5
465.73	2.5
465.933	2.5
466.135	2.54
466.338	2.64
466.541	2.71
466.743	2.67
466.946	2.71
467.148	2.74
467.351	2.81
467.553	2.79
467.756	2.81
467.958	2.84
468.161	2.74
468.363	2.64
468.566	2.58
468.768	2.55
468.971	2.6
469.173	2.63
469.375	2.61
469.578	2.56
469.78	2.47
469.983	2.53
470.185	2.58
470.387	2.56
470.59	2.74
470.792	2.71
470.994	2.77
471.196	2.75
471.399	2.7
471.601	2.79
471.803	2.8
472.005	2.79
472.208	2.73
472.41	2.69
472.612	2.66
472.814	2.47
473.016	2.64
473.218	2.57
473.421	2.59
473.623	2.53
473.825	2.55
474.027	2.47
474.229	2.49
474.431	2.43
474.633	2.32
474.835	2.41
475.037	2.45
475.239	2.29
475.441	2.33
475.643	2.3
475.845	2.36
476.047	2.27
476.249	2.42
476.451	2.48
476.653	2.55
476.855	2.58
477.057	2.65
477.258	2.64
477.46	2.65
477.662	2.56
477.864	2.6
478.066	2.58
478.268	2.56
478.469	2.51
478.671	2.5
478.873	2.44
479.075	2.51
479.276	2.43
479.478	2.43
479.68	2.47
479.882	2.53
480.083	2.5
480.285	2.52
480.487	2.53
480.688	2.53
480.89	2.5
481.091	2.58
481.293	2.6
481.495	2.6
481.696	2.63
481.898	2.62
482.099	2.61
482.301	2.6
482.502	2.63
482.704	2.64
482.905	2.6
483.107	2.61
483.308	2.58
483.51	2.56
483.711	2.57
483.913	2.58
484.114	2.59
484.315	2.58
484.517	2.59
484.718	2.55
484.92	2.54
485.121	2.56
485.322	2.56
485.524	2.55
485.725	2.55
485.926	2.52
486.127	2.47
486.329	2.44
486.53	2.45
486.731	2.48
486.932	2.48
487.134	2.51
487.335	2.53
487.536	2.52
487.737	2.52
487.938	2.56
488.139	2.59
488.341	2.61
488.542	2.6
488.743	2.61
488.944	2.62
489.145	2.63
489.346	2.59
489.547	2.55
489.748	2.56
489.949	2.56
490.15	2.54
490.351	2.55
490.552	2.58
490.753	2.62
490.954	2.58
491.155	2.55
491.356	2.56
491.557	2.6
491.758	2.65
491.959	2.65
492.159	2.68
492.36	2.66
492.561	2.65
492.762	2.65
492.963	2.66
493.164	2.69
493.364	2.69
493.565	2.7
493.766	2.66
493.967	2.59
494.167	2.59
494.368	2.55
494.569	2.57
494.769	2.62
494.97	2.57
495.171	2.54
495.371	2.56
495.572	2.55
495.773	2.55
495.973	2.59
496.174	2.61
496.375	2.65
496.575	2.72
496.776	2.79
496.976	2.77
497.177	2.8
497.377	2.87
497.578	2.83
497.778	2.84
497.979	2.87
498.179	2.94
498.38	2.92
498.58	2.9
498.78	2.78
498.981	2.76
499.181	2.83
499.382	2.87
499.582	2.89
499.782	2.99
499.983	3.04
500.183	3.08
500.383	3.01
500.584	3.03
500.784	3.11
500.984	3.21
501.184	3.29
501.385	3.23
501.585	3.22
501.785	3.18
501.985	3.21
502.185	3.23
502.386	3.17
502.586	3.32
502.786	3.42
502.986	3.48
503.186	3.51
503.386	3.49
503.586	3.55
503.786	3.63
503.987	3.64
504.187	3.58
504.387	3.59
504.587	3.58
504.787	3.55
504.987	3.55
505.187	3.51
505.387	3.54
505.587	3.56
505.786	3.56
505.986	3.53
506.186	3.53
506.386	3.59
506.586	3.69
506.786	3.75
506.986	3.7
507.186	3.69
507.386	3.71
507.585	3.83
507.785	3.83
507.985	3.86
508.185	3.89
508.384	3.96
508.584	4.04
508.784	4
508.984	4.12
509.183	4.24
509.383	4.28
509.583	4.3
509.782	4.25
509.982	4.3
510.182	4.38
510.381	4.45
510.581	4.46
510.781	4.52
510.98	4.62
511.18	4.64
511.379	4.75
511.579	4.85
511.778	5
511.978	5.06
512.177	5.14
512.377	5.22
512.576	5.35
512.776	5.45
512.975	5.47
513.175	5.51
513.374	5.52
513.573	5.5
513.773	5.49
513.972	5.44
514.172	5.49
514.371	5.51
514.57	5.52
514.77	5.51
514.969	5.57
515.168	5.66
515.367	5.74
515.567	5.87
515.766	5.96
515.965	6.13
516.164	6.25
516.364	6.29
516.563	6.32
516.762	6.37
516.961	6.47
517.16	6.58
517.359	6.66
517.559	6.69
517.758	6.69
517.957	6.75
518.156	6.79
518.355	6.91
518.554	7.01
518.753	7.11
518.952	7.2
519.151	7.22
519.35	7.26
519.549	7.31
519.748	7.41
519.947	7.57
520.146	7.67
520.345	7.75
520.544	7.83
520.743	7.89
520.942	8.06
521.141	8.18
521.339	8.31
521.538	8.34
521.737	8.41
521.936	8.53
522.135	8.58
522.333	8.66
522.532	8.77
522.731	8.78
522.93	8.83
523.129	8.83
523.327	8.82
523.526	8.93
523.725	9.07
523.923	9.18
524.122	9.23
524.321	9.28
524.519	9.37
524.718	9.37
524.917	9.47
525.115	9.59
525.314	9.69
525.512	9.83
525.711	9.89
525.909	9.94
526.108	10.06
526.306	10.14
526.505	10.21
526.703	10.25
526.902	10.41
527.1	10.49
527.299	10.57
527.497	10.61
527.696	10.66
527.894	10.72
528.092	10.8
528.291	10.79
528.489	10.82
528.688	10.85
528.886	10.91
529.084	10.91
529.283	10.94
529.481	10.99
529.679	11.02
529.877	11.05
530.076	11.09
530.274	11.16
530.472	11.28
530.67	11.37
530.869	11.48
531.067	11.57
531.265	11.67
531.463	11.75
531.661	11.81
531.859	11.94
532.057	12.02
532.255	12.15
532.454	12.16
532.652	12.17
532.85	12.21
533.048	12.27
533.246	12.3
533.444	12.39
533.642	12.44
533.84	12.48
534.038	12.51
534.236	12.59
534.434	12.58
534.632	12.65
534.83	12.72
535.027	12.82
535.225	12.82
535.423	12.92
535.621	12.92
535.819	13.04
536.017	13.13
536.215	13.16
536.412	13.2
536.61	13.31
536.808	13.3
537.006	13.34
537.203	13.35
537.401	13.41
537.599	13.44
537.797	13.49
537.994	13.45
538.192	13.44
538.39	13.58
538.587	13.58
538.785	13.6
538.983	13.7
539.18	13.82
539.378	13.93
539.575	14.05
539.773	14.14
539.97	14.24
540.168	14.37
540.366	14.46
540.563	14.49
540.761	14.58
540.958	14.66
541.155	14.72
541.353	14.79
541.55	14.82
541.748	14.87
541.945	14.93
542.143	14.97
542.34	14.95
542.537	15.03
542.735	15.09
542.932	15.09
543.129	15.15
543.327	15.23
543.524	15.28
543.721	15.41
543.919	15.51
544.116	15.58
544.313	15.79
544.51	15.99
544.708	16.04
544.905	16.19
545.102	16.38
545.299	16.48
545.496	16.53
545.693	16.61
545.891	16.65
546.088	16.64
546.285	16.64
546.482	16.51
546.679	16.4
546.876	16.4
547.073	16.3
547.27	16.23
547.467	16.17
547.664	16.12
547.861	16.06
548.058	16.07
548.255	16.08
548.452	16.09
548.649	16.15
548.846	16.19
549.043	16.14
549.24	16.15
549.437	16.24
549.633	16.27
549.83	16.39
550.027	16.39
550.224	16.25
550.421	16.23
550.618	16.22
550.814	16.2
551.011	16.18
551.208	16.29
551.405	16.26
551.601	16.28
551.798	16.22
551.995	16.13
552.191	16.18
552.388	16.24
552.585	16.29
552.781	16.21
552.978	16.18
553.175	16.22
553.371	16.24
553.568	16.31
553.764	16.21
553.961	16.4
554.157	16.42
554.354	16.29
554.55	16.28
554.747	16.25
554.943	16.41
555.14	16.45
555.336	16.55
555.533	16.57
555.729	16.6
555.926	16.62
556.122	16.46
556.318	16.38
556.515	16.49
556.711	16.5
556.907	16.54
557.104	16.43
557.3	16.41
557.496	16.34
557.693	16.19
557.889	16.16
558.085	16.19
558.281	16.26
558.478	16.41
558.674	16.57
558.87	16.55
559.066	16.44
559.262	16.42
559.459	16.33
559.655	16.34
559.851	16.51
560.047	16.54
560.243	16.57
560.439	16.53
560.635	16.52
560.831	16.35
561.027	16.29
561.223	16.33
561.419	16.39
561.615	16.52
561.811	16.55
562.007	16.5
562.203	16.52
562.399	16.49
562.595	16.51
562.791	16.46
562.987	16.6
563.183	16.73
563.379	16.83
563.575	16.85
563.771	16.87
563.966	16.89
564.162	16.87
564.358	16.91
564.554	16.92
564.75	16.92
564.945	16.96
565.141	16.84
565.337	16.9
565.533	16.83
565.728	16.83
565.924	16.77
566.12	16.82
566.315	16.79
566.511	16.78
566.707	16.81
566.902	16.88
567.098	16.84
567.293	16.86
567.489	16.83
567.684	16.91
567.88	17.01
568.076	17.16
568.271	17.2
568.467	17.25
568.662	17.24
568.858	17.25
569.053	17.15
569.248	17.27
569.444	17.37
569.639	17.39
569.835	17.35
570.03	17.23
570.225	17.18
570.421	17.04
570.616	17.11
570.812	17.11
571.007	17.12
571.202	17.2
571.397	17.18
571.593	17.16
571.788	17.09
571.983	17.15
572.178	17.18
572.374	17.27
572.569	17.47
572.764	17.39
572.959	17.39
573.154	17.34
573.35	17.41
573.545	17.36
573.74	17.31
573.935	17.43
574.13	17.49
574.325	17.51
574.52	17.44
574.715	17.34
574.91	17.44
575.105	17.5
575.3	17.63
575.495	17.61
575.69	17.68
575.885	17.78
576.08	17.76
576.275	17.76
576.47	17.91
576.665	17.99
576.86	18.08
577.055	18.04
577.25	18.06
577.444	18.01
577.639	18.11
577.834	18.12
578.029	18.03
578.224	18.04
578.418	18.08
578.613	18.07
578.808	18.09
579.003	18.07
579.197	18.3
579.392	18.26
579.587	18.34
579.781	18.17
579.976	18.26
580.171	18.44
580.365	18.52
580.56	18.42
580.755	18.39
580.949	18.32
581.144	18.4
581.338	18.39
581.533	18.45
581.727	18.53
581.922	18.61
582.116	18.62
582.311	18.57
582.505	18.61
582.7	18.74
582.894	18.67
583.089	18.76
583.283	18.59
583.478	18.42
583.672	18.53
583.866	18.45
584.061	18.48
584.255	18.41
584.449	18.54
584.644	18.42
584.838	18.29
585.032	18.38
585.226	18.37
585.421	18.57
585.615	18.71
585.809	18.67
586.003	18.72
586.198	18.78
586.392	18.9
586.586	18.74
586.78	18.93
586.974	19.01
587.168	19.05
587.363	19.08
587.557	19.02
587.751	18.97
587.945	18.79
588.139	18.64
588.333	18.67
588.527	18.57
588.721	18.61
588.915	18.48
589.109	18.45
589.303	18.32
589.497	18.41
589.691	18.36
589.885	18.38
590.079	18.48
590.273	18.73
590.466	18.76
590.66	18.86
590.854	18.98
591.048	19.1
591.242	19.14
591.436	19.27
591.629	19.17
591.823	19.33
592.017	19.39
592.211	19.46
592.404	19.3
592.598	19.2
592.792	19.03
592.986	18.9
593.179	18.87
593.373	18.95
593.567	18.82
593.76	18.87
593.954	18.68
594.147	18.63
594.341	18.66
594.535	18.67
594.728	18.6
594.922	18.69
595.115	18.62
595.309	18.65
595.502	18.52
595.696	18.68
595.889	18.61
596.083	18.67
596.276	18.64
596.47	18.6
596.663	18.57
596.856	18.59
597.05	18.65
597.243	18.71
597.437	18.62
597.63	18.63
597.823	18.54
598.017	18.61
598.21	18.69
598.403	18.82
598.596	18.86
598.79	18.96
598.983	19.06
599.176	19.02
599.369	19.14
599.563	19.34
599.756	19.42
599.949	19.49
600.142	19.5
600.335	19.49
600.528	19.41
600.722	19.36
600.915	19.31
601.108	19.27
601.301	19.26
601.494	19.17
601.687	19.1
601.88	19.09
602.073	19.12
602.266	18.98
602.459	18.94
602.652	18.9
602.845	18.86
603.038	18.9
603.231	18.84
603.424	18.84
603.617	18.89
603.809	18.95
604.002	18.84
604.195	18.77
604.388	18.91
604.581	18.94
604.774	18.98
604.966	19.02
605.159	19.1
605.352	19.13
605.545	19.25
605.737	19.28
605.93	19.24
606.123	19.28
606.316	19.37
606.508	19.31
606.701	19.36
606.894	19.4
607.086	19.4
607.279	19.4
607.471	19.48
607.664	19.54
607.857	19.58
608.049	19.8
608.242	20.09
608.434	20.47
608.627	20.81
608.819	21.16
609.012	21.53
609.204	22.08
609.397	22.6
609.589	23.2
609.782	23.76
609.974	24.39
610.166	24.97
610.359	25.63
610.551	26.01
610.743	26.41
610.936	26.8
611.128	27.1
611.32	27.21
611.513	27.35
611.705	27.45
611.897	27.27
612.09	27.12
612.282	26.73
612.474	26.39
612.666	26.11
612.858	25.89
613.051	25.64
613.243	25.54
613.435	25.44
613.627	25.19
613.819	24.84
614.011	24.57
614.203	24.28
614.395	24.09
614.588	23.84
614.78	23.37
614.972	23.09
615.164	22.73
615.356	22.39
615.548	22.22
615.74	21.74
615.932	21.58
616.124	21.45
616.315	21.33
616.507	21.14
616.699	20.89
616.891	21.06
617.083	20.87
617.275	20.78
617.467	20.54
617.659	20.38
617.85	20.39
618.042	20.36
618.234	20.32
618.426	20.19
618.618	20.19
618.809	20.32
619.001	20.29
619.193	20.33
619.384	20.24
619.576	20.34
619.768	20.27
619.959	20.21
620.151	20.3
620.343	20.3
620.534	20.49
620.726	20.56
620.917	20.64
621.109	20.47
621.301	20.41
621.492	20.5
621.684	20.67
621.875	20.85
622.067	20.94
622.258	20.8
622.45	20.76
622.641	20.56
622.832	20.54
623.024	20.4
623.215	20.53
623.407	20.57
623.598	20.68
623.789	20.51
623.981	20.39
624.172	20.54
624.363	20.65
624.555	20.87
624.746	21.02
624.937	21.05
625.129	21.08
625.32	21.12
625.511	21.19
625.702	21.04
625.893	21.08
626.085	21.01
626.276	20.8
626.467	20.64
626.658	20.57
626.849	20.45
627.04	20.51
627.231	20.47
627.422	20.41
627.614	20.49
627.805	20.56
627.996	20.6
628.187	20.57
628.378	20.66
628.569	20.8
628.76	20.91
628.951	21.16
629.142	21.21
629.332	21.22
629.523	21.21
629.714	21.05
629.905	21.09
630.096	21.24
630.287	21.32
630.478	21.41
630.669	21.26
630.859	21.07
631.05	21
631.241	20.88
631.432	21.04
631.623	21.15
631.813	21.38
632.004	21.17
632.195	20.96
632.385	20.88
632.576	20.83
632.767	20.96
632.957	20.74
633.148	20.51
633.339	20.41
633.529	20.1
633.72	19.97
633.91	19.67
634.101	19.85
634.292	19.84
634.482	19.68
634.673	19.75
634.863	19.58
635.054	19.92
635.244	19.99
635.435	19.97
635.625	20.1
635.815	20.04
636.006	20.19
636.196	20.16
636.387	20
636.577	20.08
636.767	19.85
636.958	19.98
637.148	20.07
637.338	20.14
637.529	20.09
637.719	20.15
637.909	20.22
638.099	20.1
638.29	20.02
638.48	20.17
638.67	20.04
638.86	20.29
639.05	20.19
639.241	19.97
639.431	19.94
639.621	20.11
639.811	20.01
640.001	20.03
640.191	20.12
640.381	20.25
640.571	20.37
640.761	20.56
640.951	20.41
641.141	20.29
641.331	20.28
641.521	20.32
641.711	20.25
641.901	20.33
642.091	20.45
642.281	20.54
642.471	20.4
642.661	20.23
642.851	20.44
643.041	20.39
643.231	20.62
643.42	20.69
643.61	20.65
643.8	20.77
643.99	20.85
644.18	20.85
644.369	20.69
644.559	20.97
644.749	21.07
644.939	20.86
645.128	20.98
645.318	21
645.508	20.89
645.697	20.89
645.887	20.7
646.076	20.56
646.266	20.55
646.456	20.74
646.645	20.59
646.835	20.42
647.024	20.75
647.214	20.9
647.403	20.77
647.593	20.76
647.782	20.85
647.972	21.09
648.161	21.17
648.351	21.09
648.54	21.15
648.73	21.12
648.919	21.28
649.108	21.07
649.298	20.95
649.487	21.17
649.677	21.27
649.866	21.41
650.055	21.32
650.244	21.21
650.434	21.42
650.623	21.26
650.812	21.28
651.002	21.41
651.191	21.54
651.38	21.58
651.569	21.33
651.758	21.4
651.947	21.28
652.137	21.31
652.326	21.53
652.515	21.27
652.704	21.38
652.893	21.32
653.082	21.28
653.271	21.21
653.46	21.16
653.649	21.41
653.838	21.5
654.027	21.55
654.216	21.56
654.405	21.56
654.594	21.7
654.783	21.2
654.972	21.09
655.161	20.77
655.35	20.94
655.539	20.86
655.728	20.76
655.916	20.68
656.105	20.6
656.294	20.47
656.483	20.52
656.672	20.41
656.86	20.92
657.049	21.08
657.238	21.08
657.427	20.83
657.615	20.75
657.804	20.66
657.993	20.68
658.181	20.69
658.37	20.76
658.559	20.61
658.747	20.67
658.936	20.55
659.125	20.31
659.313	20.38
659.502	20.46
659.69	20.66
659.879	20.71
660.067	20.73
660.256	20.75
660.444	20.81
660.633	20.71
660.821	20.67
661.01	20.77
661.198	21.02
661.387	21.17
661.575	21.24
661.763	21.27
661.952	21.35
662.14	21.31
662.328	21.19
662.517	21.21
662.705	21.29
662.893	21.56
663.082	21.47
663.27	21.59
663.458	21.51
663.646	21.72
663.834	21.54
664.023	21.65
664.211	21.74
664.399	21.74
664.587	21.62
664.775	21.8
664.963	21.6
665.152	21.58
665.34	21.52
665.528	21.63
665.716	21.52
665.904	21.54
666.092	21.42
666.28	21.64
666.468	21.58
666.656	21.6
666.844	21.41
667.032	21.37
667.22	21.21
667.408	21.24
667.596	21.32
667.784	21.17
667.971	21.1
668.159	21.16
668.347	21.04
668.535	21.09
668.723	20.95
668.911	21.19
669.098	21.31
669.286	21.58
669.474	21.42
669.662	21.14
669.849	21.01
670.037	21.13
670.225	21.08
670.413	20.62
670.6	20.78
670.788	20.77
670.976	20.57
671.163	20.58
671.351	20.81
671.538	20.92
671.726	21
671.913	21.28
672.101	21.25
672.289	21.2
672.476	21.57
672.664	21.87
672.851	22.16
673.039	22.35
673.226	22.19
673.413	22.15
673.601	22.18
673.788	22.38
673.976	22.38
674.163	22.35
674.35	22.48
674.538	22.38
674.725	22.13
674.912	21.99
675.1	21.96
675.287	22.22
675.474	22.04
675.662	22.05
675.849	22.15
676.036	22
676.223	22.25
676.411	22.15
676.598	21.96
676.785	21.85
676.972	21.97
677.159	21.85
677.346	21.97
677.533	22.11
677.721	22.03
677.908	22.07
678.095	22.08
678.282	22.12
678.469	22.09
678.656	22.22
678.843	22.22
679.03	22.16
679.217	22.21
679.404	22.09
679.591	21.91
679.778	21.97
679.964	21.71
680.151	21.73
680.338	21.5
680.525	21.62
680.712	21.61
680.899	21.81
681.086	21.9
681.272	21.71
681.459	21.93
681.646	22.07
681.833	22.05
682.02	22.21
682.206	22.15
682.393	22.22
682.58	22.2
682.766	22.17
682.953	21.98
683.14	21.95
683.326	22.16
683.513	21.78
683.7	21.66
683.886	21.82
684.073	21.87
684.259	22.01
684.446	21.91
684.632	21.83
684.819	22.11
685.005	22.33
685.192	22.56
685.378	22.5
685.565	22.7
685.751	22.97
685.938	22.85
686.124	22.88
686.31	22.93
686.497	23.02
686.683	23.34
686.87	23.19
687.056	22.99
687.242	23.04
687.429	22.97
687.615	22.76
687.801	22.33
687.987	22.3
688.174	22.17
688.36	22.05
688.546	22.11
688.732	22.05
688.918	21.92
689.105	21.87
689.291	21.69
689.477	21.64
689.663	21.66
689.849	21.92
690.035	21.93
690.221	22.11
690.407	21.84
690.593	21.65
690.779	21.65
690.965	21.67
691.151	21.59
691.337	21.38
691.523	21.51
691.709	21.2
691.895	21.13
692.081	21.15
692.267	21.03
692.453	21.23
692.639	21.46
692.825	21.48
693.011	21.67
693.196	21.84
693.382	22.08
693.568	22.34
693.754	22.82
693.94	22.73
694.125	22.73
694.311	22.64
694.497	22.97
694.682	22.8
694.868	22.57
695.054	22.58
695.239	22.37
695.425	22.66
695.611	22.43
695.796	22.03
695.982	21.94
696.168	22.14
696.353	22.36
696.539	22.28
696.724	22.42
696.91	22.53
697.095	22.5
697.281	22.77
697.466	22.25
697.652	22.15
697.837	22.25
698.023	22.4
698.208	22.27
698.393	21.9
698.579	21.68
698.764	21.64
698.949	21.53
699.135	21.53
699.32	21.42
699.505	21.53
699.691	21.75
699.876	21.99
700.061	22.08
700.246	22.11
700.432	22.2
700.617	22.28
700.802	22.35
700.987	22.32
701.172	21.77
701.358	21.9
701.543	21.99
701.728	21.95
701.913	21.84
702.098	21.66
702.283	21.66
702.468	22.05
702.653	22.3
702.838	22.49
703.023	22.69
703.208	23.42
703.393	23.21
703.578	23.22
703.763	23.24
703.948	23.36
704.133	23.39
704.318	23.47
704.503	23.38
704.688	23.36
704.873	23.32
705.057	23.3
705.242	23.14
705.427	23.22
705.612	23.16
705.797	23.11
705.981	23.09
706.166	23.62
706.351	23.79
706.536	24.07
706.72	24.07
706.905	24.1
707.09	24.47
707.274	24.7
707.459	24.91
707.644	25.33
707.828	25.3
708.013	25.68
708.197	25.45
708.382	25.45
708.567	25.25
708.751	25.31
708.936	24.95
709.12	24.89
709.305	25.14
709.489	25.24
709.673	25.15
709.858	25.37
710.042	24.88
710.227	24.74
710.411	24.62
710.596	24.74
710.78	24.63
710.964	24.69
711.149	24.6
711.333	24.41
711.517	24.33
711.702	23.99
711.886	24.11
712.07	24.11
712.254	23.93
712.438	23.53
712.623	23.19
712.807	23.15
712.991	23.41
713.175	23.36
713.359	23.38
713.544	23.08
713.728	23.18
713.912	22.78
714.096	22.6
714.28	22.76
714.464	23.05
714.648	23.14
714.832	23.25
715.016	23.09
715.2	22.85
715.384	22.8
715.568	22.28
715.752	22.28
715.936	22.4
716.12	22.53
716.304	22.51
716.488	22.38
716.671	22.41
716.855	22.35
717.039	22.49
717.223	22.41
717.407	22.35
717.59	23.18
717.774	22.91
717.958	22.94
718.142	23.19
718.325	23.27
718.509	23.68
718.693	23.22
718.877	23.27
719.06	23.45
719.244	23.4
719.428	23.51
719.611	23.28
719.795	23.74
719.978	23.8
720.162	23.83
720.345	23.94
720.529	23.73
720.713	24.26
720.896	24.43
721.08	24.48
721.263	24.81
721.446	24.55
721.63	24.3
721.813	24.14
721.997	23.94
722.18	23.8
722.364	23.53
722.547	23.5
722.73	22.99
722.914	22.73
723.097	22.41
723.28	22.25
723.464	22.23
723.647	22.71
723.83	22.82
724.013	22.78
724.197	22.57
724.38	22.41
724.563	22.53
724.746	22.91
724.929	22.66
725.112	22.58
725.296	22.68
725.479	22.79
725.662	22.42
725.845	22.55
726.028	22.39
726.211	22.66
726.394	22.94
726.577	22.87
726.76	23.16
726.943	23.36
727.126	23.43
727.309	23.21
727.492	23.05
727.675	23.27
727.858	23.02
728.041	23.27
728.224	23.23
728.407	23.46
728.589	23.17
728.772	22.86
728.955	22.81
729.138	22.99
729.321	23.33
729.503	23.49
729.686	23.23
729.869	23.21
730.052	23.1
730.234	22.77
730.417	22.3
730.6	22.64
730.782	22.62
730.965	22.58
731.148	22.19
731.33	22.11
731.513	22.12
731.695	22.5
731.878	22.61
732.061	22.68
732.243	22.34
732.426	22.49
732.608	22.49
732.791	22.54
732.973	22.96
733.156	23.13
733.338	23.2
733.52	23.41
733.703	23.4
733.885	23.29
734.068	23.03
734.25	23.86
734.432	24.07
734.615	23.69
734.797	23.23
734.979	22.96
735.162	22.88
735.344	23.07
735.526	22.7
735.708	22.45
735.891	22.91
736.073	22.97
736.255	22.92
736.437	22.77
736.619	23.45
736.802	24.61
736.984	24.72
737.166	24.99
737.348	24.75
737.53	25
737.712	25.05
737.894	24.78
738.076	25.61
738.258	25.59
738.44	25.8
738.622	25.62
738.804	25.33
738.986	25.45
739.168	25.17
739.35	25.13
739.532	24.83
739.714	24.68
739.896	24.24
740.078	23.74
740.259	22.98
740.441	22.75
740.623	22.76
740.805	22.56
740.987	22.6
741.168	23.02
741.35	23.12
741.532	23.48
741.714	23.33
741.895	23.62
742.077	23.7
742.259	24.09
742.44	24.44
742.622	24.43
742.804	24.33
742.985	24.06
743.167	24.21
743.348	24.13
743.53	24.25
743.711	25.14
743.893	25.1
744.075	25.07
744.256	25.71
744.438	25.49
744.619	25.55
744.8	25.51
744.982	25.46
745.163	25
745.345	25.04
745.526	25.04
745.707	24.03
745.889	24.26
746.07	24.11
746.252	23.69
746.433	23.27
746.614	22.92
746.795	23.04
746.977	23.35
747.158	23.74
747.339	23.87
747.52	23.82
747.702	24.33
747.883	25.15
748.064	25.52
748.245	25.48
748.426	26.11
748.607	26.26
748.788	26.75
748.97	26.32
749.151	25.76
749.332	26.1
749.513	25.68
749.694	25.71
749.875	24.58
750.056	24.8
750.237	25.38
750.418	24.6
750.599	24.38
750.78	23.69
750.96	23.84
751.141	24.37
751.322	23.83
751.503	23.92
751.684	23.58
751.865	24.17
752.046	23.5
752.226	23.37
752.407	24.03
752.588	24.69
752.769	24.82
752.949	25.05
753.13	24.81
753.311	24.41
753.492	24.69
753.672	25.32
753.853	24.95
754.034	25.25
754.214	24.95
754.395	24.58
754.575	23.85
754.756	23.84
754.937	23.55
755.117	23.92
755.298	24.33
755.478	24.47
755.659	24.45
755.839	24.34
756.02	24.87
756.2	25.07
756.381	25.69
756.561	26.64
756.741	26.41
756.922	26.34
757.102	26
757.283	26.47
757.463	26.11
757.643	25.19
757.823	26.06
758.004	25.12
758.184	24.56
758.364	24.22
758.545	23.88
758.725	24.23
758.905	24.4
759.085	23.69
759.265	23.48
759.446	23.4
759.626	23.77
759.806	23.21
759.986	23.21
760.166	22.91
760.346	22.69
760.526	22.51
760.706	22.51
760.886	22.39
761.066	23.63
761.246	23.66
761.426	24.17
761.606	24.34
761.786	23.88
761.966	23.97
762.146	24.3
762.326	24.13
762.506	23.71
762.686	23.52
762.866	23.49
763.046	23.21
763.225	22.99
763.405	22.79
763.585	22.34
763.765	22.4
763.945	22.25
764.124	22.13
764.304	22.55
764.484	23.02
764.664	23.18
764.843	23.63
765.023	23.39
765.203	23.12
765.382	23.07
765.562	23.55
765.741	23.27
765.921	23.64
766.101	23.57
766.28	23.11
766.46	23.35
766.639	23.71
766.819	23.55
766.998	23.64
767.178	23.94
767.357	24.25
767.537	24.22
767.716	24.83
767.896	24.47
768.075	25.34
768.254	25.91
768.434	25.05
768.613	24.81
768.792	24.95
768.972	25.37
769.151	25.26
769.33	24.92
769.51	25.12
769.689	25.58
769.868	25.88
770.047	25.23
770.226	25.28
770.406	25.63
770.585	25.12
770.764	24.78
770.943	24.43
771.122	24.39
771.301	24.08
771.48	23.57
771.66	23.21
771.839	23.73
772.018	24.26
772.197	23.6
772.376	24.47
772.555	25.06
772.734	25.29
772.913	25.38
773.092	25.9
773.271	26.91
773.449	28.17
773.628	28.26
773.807	27.72
773.986	27.71
774.165	28.79
774.344	27.76
774.523	27.6
774.701	27.92
774.88	27.78
775.059	27.91
775.238	28.02
775.417	26.7
775.595	26.6
775.774	27.41
775.953	26.92
776.131	25.41
776.31	25.86
776.489	25.94
776.667	25.6
776.846	25.7
777.025	25.31
777.203	24.71
777.382	25.08
777.56	24.65
777.739	24.5
777.917	24.88
778.096	25.22
778.274	24.68
778.453	25.08
778.631	24.65
778.81	24.65
778.988	25.18
779.166	25.42
779.345	26.3
779.523	27.43
779.702	26.89
779.88	27.03
780.058	27.7
780.237	27.8
780.415	27.73
780.593	27.9
780.771	28.06
780.95	27.75
781.128	27.47
781.306	26.89
781.484	26.7
781.662	26.66
781.841	26.66
782.019	26.44
782.197	26.69
782.375	26.12
782.553	25.69
782.731	25.78
782.909	25.28
783.087	25.36
783.265	25.74
783.443	24.57
783.621	24.72
783.799	24.31
783.977	24.43
784.155	24.81
784.333	25.02
784.511	24.89
784.689	24.82
784.867	25.29
785.045	24.76
785.223	24.68
785.4	25.2
785.578	25.62
785.756	26.68
785.934	27.26
786.112	26.69
786.289	26.82
786.467	27.35
786.645	26.92
786.823	27.5
787	27.18
787.178	26.6
787.356	26.83
787.533	26.15
787.711	25.39
787.889	23.94
788.066	24.34
788.244	24.53
788.421	25.52
788.599	25.83
788.776	26.33
788.954	26.99
789.131	26.63
789.309	27.28
789.486	27.75
789.664	27.69
789.841	28.27
790.019	28.33
790.196	28.12
790.373	26.88
790.551	25.53
790.728	23.8
790.906	22.84
791.083	23.99
791.26	23.48
791.437	22.98
791.615	23.11
791.792	23.64
791.969	23.48
792.146	23.02
792.324	23.44
792.501	25.83
792.678	26.57
792.855	27.48
793.032	27.11
793.209	27.34
793.387	26.23
793.564	26.37
793.741	25.21
793.918	25.76
794.095	26.03
794.272	26.29
794.449	25
794.626	26.11
794.803	25.31
794.98	25.05
795.157	23.45
795.334	24.85
795.511	24.19
795.688	24.87
795.864	23.38
796.041	22.99
796.218	23.27
796.395	23.76
796.572	23.14
796.749	23.93
796.925	24.23
797.102	24.2
797.279	24.07
797.456	24.32
797.632	25.22
797.809	25.94
797.986	25.71
798.162	25.8
798.339	24.98
798.516	24.69
798.692	24.67
798.869	24.32
799.046	26.19
799.222	26.26
799.399	26.64
799.575	26.42
799.752	26.27
799.928	26.56
800.105	25.8
800.281	26.34
800.458	25.73
800.634	25.38
800.811	24.92
800.987	24.09
801.163	23.18
801.34	23.48
801.516	22.32
801.692	22.83
801.869	23.96
802.045	24.84
802.221	24.36
802.398	24.54
802.574	24.88
802.75	25.93
802.926	26.09
803.103	27.39
803.279	26.77
803.455	27.09
803.631	26.95
803.807	25.35
803.983	25.11
804.16	25.41
804.336	25.64
804.512	25.01
804.688	23.14
804.864	22.64
805.04	22.1
805.216	22.25
805.392	22.6
805.568	22.62
805.744	22.73
805.92	22.11
806.096	22.95
806.272	23.54
806.448	24.61
806.623	26.12
806.799	26.68
806.975	25.82
807.151	26.34
807.327	26.57
807.503	26.32
807.678	26.81
807.854	26.21
808.03	25.7
808.206	26.37
808.381	25.84
808.557	24.36
808.733	24.63
808.908	26.21
809.084	26.87
809.26	26.26
809.435	26.88
809.611	27.13
809.787	27.19
809.962	27.2
810.138	27.1
810.313	26.67
810.489	27.21
810.664	26.47
810.84	25.13
811.015	24.31
811.191	24.64
811.366	24.41
811.542	24.61
811.717	23.7
811.892	24.59
812.068	23.54
812.243	23.09
812.419	23.12
812.594	22.95
812.769	22.61
812.944	21.2
813.12	22
813.295	23.07
813.47	22.91
813.645	24.11
813.821	23.11
813.996	23.38
814.171	24.54
814.346	25.05
814.521	25.15
814.697	26.57
814.872	27.14
815.047	24.6
815.222	22.96
815.397	23.02
815.572	22.91
815.747	23.06
815.922	23
816.097	23.37
816.272	21.8
816.447	22.31
816.622	21.29
816.797	22.05
816.972	23.87
817.147	22.35
817.322	23.67
817.496	23.18
817.671	22.92
817.846	23.35
818.021	22.87
818.196	24.81
818.371	24.36
818.545	24.33
818.72	24.19
818.895	24.01
819.069	25.88
819.244	24.59
819.419	25.85
819.594	24.51
819.768	23.93
819.943	24.33
820.117	23.48
820.292	24
820.467	24.02
820.641	24.08
820.816	23.87
820.99	23.99
821.165	24.11
821.339	23.8
821.514	23.88
821.688	23.55
821.863	23.19
822.037	23.17
822.212	22.95
822.386	22.9
822.56	22.81
822.735	22.73
822.909	22.38
823.084	22.36
823.258	22.52
823.432	22.72
823.606	22.71
823.781	22.6
823.955	22.8
824.129	22.83
824.303	22.97
824.478	22.89
824.652	22.79
824.826	22.6
825	22.42
825.174	21.87
825.348	21.77
825.523	21.97
825.697	22.14
825.871	21.91
826.045	21.69
826.219	21.1
826.393	20.97
826.567	21.43
826.741	22.02
826.915	22.11
827.089	22.18
827.263	22.44
827.437	22.33
827.611	22.3
827.784	22.12
827.958	22.04
828.132	22.6
828.306	23.07
828.48	22.97
828.654	22.94
828.827	22.74
829.001	22.62
829.175	22.17
829.349	22.7
829.522	22.86
829.696	23.31
829.87	23.39
830.044	23.77
830.217	23
830.391	23.3
830.565	23.03
830.738	23.42
830.912	24.57
831.085	24.69
831.259	24.81
831.432	24.3
831.606	24.45
831.779	25.56
831.953	23.76
832.126	24.99
832.3	24.97
832.473	25
832.647	24.11
832.82	23.49
832.994	23.61
833.167	23.41
833.34	24.21
833.514	23.94
833.687	23.1
833.86	23.66
834.034	23.3
834.207	23.25
834.38	23.31
834.553	24.61
834.727	24.79
834.9	24.7
835.073	24.85
835.246	24.29
835.419	24.21
835.593	24.54
835.766	24.67
835.939	24.96
836.112	24.93
836.285	24.69
836.458	23.81
836.631	23.32
836.804	22.97
836.977	22.3
837.15	22.66
837.323	24.61
837.496	26.37
837.669	26.82
837.842	26.39
838.015	26.08
838.188	26.5
838.361	25.59
838.533	25.12
838.706	27.54
838.879	27.83
839.052	27.19
839.225	22.29
839.398	19.61
839.57	19.3
839.743	20
839.916	20.95
840.088	23
840.261	23.77
840.434	23.88
840.607	22.7
840.779	22.28
840.952	21.77
841.124	23.12
841.297	24.41
841.47	24.88
841.642	23.25
841.815	24
841.987	21.33
842.16	19.97
842.332	22.04
842.505	20.59
842.677	21.55
842.85	22.79
843.022	23.52
843.194	23.48
843.367	20.64
843.539	20.81
843.712	19.48
843.884	19.65
844.056	20.05
844.229	18.57
844.401	19.16
844.573	18.92
844.745	19.84
844.918	22.29
845.09	18.77
845.262	20.63
845.434	22.11
845.606	20.3
845.779	20.82
845.951	20.05
846.123	20.11
846.295	19.3
846.467	17.96
846.639	17.26
846.811	15.16
846.983	21.2
847.155	24.07
847.327	22.01
847.499	24.82
847.671	26.25
847.843	28.74
848.015	29.77
848.187	32.15
848.359	33.28
848.531	34.77
848.703	34.59
848.875	32.08
849.047	30.66
849.218	33.27
849.39	31.92
849.562	32.82
849.734	34.59
849.905	35.17
850.077	34.4
850.249	32.57
850.421	32.26
850.592	33.46
850.764	34.2
850.936	33.55
851.107	33.3
851.279	34.72
851.451	34.23
851.622	33.04
851.794	28.14
851.965	28.06
852.137	30.37
852.308	29.92
852.48	29.6
852.651	28.31
852.823	28.24
852.994	27.84
853.166	28.82
853.337	26.32
853.509	22.81
853.68	23.42
853.851	22.56
854.023	18.95
854.194	17.36
854.365	17.42
854.537	17.4
854.708	16.09
854.879	12.25
855.05	13.19
855.222	12.87
855.393	14.69
855.564	15.66
855.735	14.57
855.906	17.29
856.078	19.72
856.249	20.76
856.42	20.92
856.591	22.61
856.762	28.56
856.933	26.58
857.104	25.39
857.275	26.3
857.446	25.92
857.617	25.97
857.788	28.11
857.959	26.47
858.13	27.84
858.301	24.56
858.472	29.06
858.643	25.62
858.814	25.23
858.985	27.13
859.155	24.74
859.326	28.36
859.497	31.28
859.668	29.03
859.839	29.02
860.009	27.31
860.18	31.27
860.351	24.64
860.522	23.59
860.692	18.82
860.863	18.2
861.034	21.42
861.204	16.62
861.375	15.16
861.546	16.3
861.716	16.65
861.887	17.65
862.057	15.81
862.228	17.33
862.398	22.96
862.569	24.46
862.739	26.61
862.91	23.56
863.08	23.11
863.251	21.66
863.421	23.37
863.592	25.97
863.762	28.19
863.932	29.52
864.103	30.63
864.273	26.64
864.443	29.83
864.614	22.21
864.784	25.98
864.954	31.23
865.125	32.26
865.295	32.79
865.465	26.56
865.635	26.61
865.805	22.53
865.976	25.2
866.146	27.63
866.316	25.49
866.486	30.07
866.656	29.13
866.826	25.69
866.996	24.18
867.166	20.66
867.336	26.69
867.506	20.15
867.676	22.26
867.846	20.59
868.016	16.56
868.186	18.23
868.356	20.87
868.526	21.6
868.696	21.26
868.866	24.07
869.036	26.38
869.206	26.28
869.376	27.21
869.545	25.71
869.715	27.73
869.885	26.58
870.055	25.98
870.224	21.74
870.394	23.81
870.564	20.88
870.734	18.27
870.903	17.12
871.073	14.13
871.243	16.19
871.412	20.13
871.582	14.41
871.751	18
871.921	17.27
872.091	22.77
872.26	16.62
872.43	19.58
872.599	20.32
872.769	18.93
872.938	19.86
873.108	18.2
873.277	17.14
873.446	16.85
873.616	16.23
873.785	15.24
873.955	13.91
874.124	17.84
874.293	16.27
874.463	15.04
874.632	18.86
874.801	18.72
874.971	19.13
875.14	20.49
875.309	26.66
875.478	22.6
875.647	20.97
875.817	21.67
875.986	20.72
876.155	23.68
876.324	24.92
876.493	21.49
876.662	20.57
876.831	17.34
877	14.74
877.17	13.17
877.339	17.88
877.508	20.9
877.677	21.14
877.846	23.71
878.015	24.17
878.184	22.09
878.352	23.37
878.521	26.74
878.69	26.32
878.859	27.12
879.028	26.34
879.197	25.74
879.366	26.81
879.534	25.71
879.703	23.56
879.872	21.72
880.041	24.49
880.21	24.21
880.378	24.14
880.547	25.13
880.716	24.63
880.884	24.33
881.053	24.58
881.222	22.47
881.39	22.73
881.559	23.62
881.727	24.04
881.896	23.41
882.065	22.89
882.233	22.51
882.402	22.85
882.57	23.05
882.739	22.99
882.907	22.28
883.076	23.02
883.244	22.94
883.412	22.13
883.581	22.31
883.749	22.12
883.918	22.26
884.086	21.79
884.254	21.72
884.423	21.21
884.591	20.81
884.759	21.32
884.927	21.36
885.096	20.43
885.264	20.62
885.432	19
885.6	19.29
885.769	20.17
885.937	21.17
886.105	21.63
886.273	22.44
886.441	23.43
886.609	23.64
886.777	23.33
886.945	23.74
887.113	21.27
887.281	22.16
887.449	20.95
887.617	20.3
887.785	20.11
887.953	18.14
888.121	18.88
888.289	17.65
888.457	16.3
888.625	16.66
888.793	16.91
888.961	18.69
889.129	17.64
889.296	17.82
889.464	16.25
889.632	14.64
889.8	14.44
889.967	12.47
890.135	9.63
