Data from 2938824__Reflection_02.txt Node
Date: Thu Mar 12 14:01:21 EDT 2015
User: robert
Spectrometer: USB4E03002
Autoset integration time: false
Trigger mode: 4
Integration Time (sec): 1.000000E-1
Scans to average: 10
Electric dark correction enabled: false
Nonlinearity correction enabled: false
Boxcar width: 5
Stray light correction enabled: false
XAxis mode: Wavelengths
Stop averaging: false
Number of Pixels in Spectrum: 3648
>>>>>Begin Spectral Data<<<<<
177.575	74.34
177.794	100.22
178.014	86.88
178.233	102.97
178.452	94.68
178.672	119.6
178.891	130.98
179.11	179.8
179.33	189.59
179.549	257.61
179.768	274.86
179.987	398.48
180.207	467.98
180.426	373.48
180.645	467.62
180.864	593.55
181.084	344.77
181.303	496.15
181.522	395.32
181.741	575.64
181.96	514.92
182.179	293.66
182.398	254.98
182.618	187.16
182.837	218.2
183.056	204.81
183.275	267.18
183.494	240.5
183.713	194.75
183.932	229.94
184.151	239.09
184.37	268.12
184.589	249.1
184.808	292.93
185.027	423.6
185.246	439.94
185.465	457.49
185.684	384.62
185.903	482.33
186.122	632.35
186.341	314.23
186.56	282.56
186.779	381.61
186.998	470.11
187.216	309.28
187.435	169.98
187.654	182.95
187.873	203.21
188.092	238.07
188.311	1963.16
188.53	-3207.14
188.748	-1574.19
188.967	-15650
189.186	547.93
189.405	437.93
189.623	859.79
189.842	-541.18
190.061	-757.98
190.28	-899.02
190.498	105500
190.717	776.92
190.936	18880
191.154	1733.87
191.373	1010.68
191.592	-2058.33
191.81	792.52
192.029	1461.33
192.248	675.19
192.466	430.85
192.685	323.44
192.904	367.46
193.122	286.83
193.341	224
193.559	150.66
193.778	136.61
193.996	119.81
194.215	116.76
194.433	107.94
194.652	135.19
194.87	165.19
195.089	223.24
195.307	168.82
195.526	240.32
195.744	185.5
195.963	361.17
196.181	-12760
196.399	482.32
196.618	425.26
196.836	426.7
197.055	4866.67
197.273	311.72
197.491	252.47
197.71	334.15
197.928	322.47
198.146	510.05
198.365	393.98
198.583	346.56
198.801	415.96
199.019	522.18
199.238	469.58
199.456	272.95
199.674	373.71
199.892	501.67
200.111	260.37
200.329	256.98
200.547	252.85
200.765	238.12
200.983	214.47
201.202	201.5
201.42	164.95
201.638	155.96
201.856	174.67
202.074	139.03
202.292	135.88
202.51	166.78
202.728	199.28
202.946	206.98
203.165	182.91
203.383	171.55
203.601	159.93
203.819	191.84
204.037	283.46
204.255	217.11
204.473	226.55
204.691	187.75
204.909	167.51
205.127	115.41
205.345	126.98
205.562	143.73
205.78	118.98
205.998	138.62
206.216	113.02
206.434	98.52
206.652	88.42
206.87	98.69
207.088	111.95
207.306	108.95
207.523	114.44
207.741	106.68
207.959	110.38
208.177	128.44
208.395	122.6
208.612	129.14
208.83	171.48
209.048	218.76
209.266	200.52
209.483	165.13
209.701	152.15
209.919	158.97
210.136	177.74
210.354	191
210.572	187.85
210.79	174.84
211.007	154.06
211.225	121.27
211.442	132.26
211.66	119.82
211.878	135.83
212.095	-45.76
212.313	-36.52
212.53	-28.22
212.748	-36.64
212.966	-62.35
213.183	-69.41
213.401	-63.92
213.618	-49.89
213.836	-35.01
214.053	-19.07
214.271	3.44
214.488	130.34
214.705	132.19
214.923	104.38
215.14	101.87
215.358	105.06
215.575	90.73
215.793	91.73
216.01	84.39
216.227	74.77
216.445	73.14
216.662	93.12
216.879	81.24
217.097	72.55
217.314	71.94
217.531	61.72
217.749	72.06
217.966	68.3
218.183	81.65
218.4	95.85
218.618	104.57
218.835	102.62
219.052	89.27
219.269	87.6
219.487	90.88
219.704	99.76
219.921	100.23
220.138	89.11
220.355	81.77
220.572	65.75
220.79	57.37
221.007	53.61
221.224	42
221.441	44.2
221.658	37.99
221.875	30.02
222.092	24.67
222.309	23.38
222.526	22.29
222.743	23.34
222.96	28.44
223.177	30
223.394	33.63
223.611	36.94
223.828	34.56
224.045	39.5
224.262	44.52
224.479	43.68
224.696	43.46
224.913	40.93
225.13	39.36
225.347	36.19
225.564	33.61
225.781	29.76
225.997	24.01
226.214	21.26
226.431	16.91
226.648	15.01
226.865	12.94
227.082	9.89
227.298	7.32
227.515	8.98
227.732	6.95
227.949	6.07
228.165	4.81
228.382	4.92
228.599	5.51
228.816	6
229.032	6.35
229.249	6.69
229.466	6.66
229.682	7.73
229.899	7.22
230.116	8.34
230.332	8.97
230.549	9.16
230.765	10.04
230.982	9.31
231.199	8.53
231.415	8.12
231.632	7.45
231.848	8.46
232.065	8.05
232.281	8.24
232.498	7.72
232.714	6.68
232.931	6.7
233.147	6.54
233.364	5.8
233.58	6.08
233.797	5.61
234.013	8.18
234.23	7.63
234.446	6.8
234.662	6.41
234.879	6.33
235.095	6.09
235.312	7.74
235.528	8.29
235.744	9.72
235.961	11.55
236.177	10.99
236.393	9.92
236.61	12.85
236.826	13.39
237.042	14.03
237.258	14.35
237.475	14.88
237.691	14.15
237.907	14.55
238.123	14.39
238.339	11.41
238.556	12.43
238.772	13.27
238.988	10.99
239.204	11.75
239.42	10.12
239.636	9.44
239.853	9.38
240.069	7.83
240.285	7.59
240.501	6.87
240.717	8.14
240.933	7.5
241.149	6.46
241.365	6.51
241.581	6.17
241.797	6.28
242.013	5.95
242.229	5.76
242.445	6.43
242.661	6.46
242.877	6.44
243.093	6.09
243.309	6.15
243.525	5.88
243.741	5.93
243.957	6.23
244.173	6.15
244.388	6.66
244.604	6.94
244.82	6.55
245.036	6.22
245.252	5.85
245.468	5.62
245.683	5.3
245.899	5.26
246.115	4.61
246.331	4.24
246.547	4.33
246.762	4.07
246.978	3.78
247.194	3.49
247.409	3.31
247.625	3.69
247.841	4.04
248.057	4.07
248.272	4.19
248.488	4.48
248.703	4.51
248.919	4.69
249.135	4.91
249.35	5.61
249.566	6.05
249.782	6.09
249.997	5.64
250.213	4.66
250.428	5.77
250.644	6.12
250.859	5.88
251.075	5.79
251.29	5.72
251.506	5.74
251.721	5.41
251.937	4.71
252.152	4.94
252.368	5.18
252.583	4.84
252.798	3.43
253.014	3.13
253.229	3.26
253.445	3.54
253.66	3.24
253.875	3.6
254.091	3.78
254.306	5.16
254.521	5.57
254.737	4.79
254.952	5.64
255.167	6.57
255.383	6.11
255.598	6.38
255.813	6.24
256.028	6.29
256.244	5.35
256.459	5.34
256.674	4.89
256.889	5.15
257.104	5.38
257.32	5.78
257.535	4.66
257.75	5.23
257.965	4.55
258.18	4.24
258.395	3.99
258.61	4.02
258.826	3.58
259.041	3.11
259.256	3.14
259.471	3.21
259.686	2.82
259.901	3.15
260.116	3.01
260.331	2.87
260.546	2.73
260.761	2.78
260.976	2.59
261.191	2.38
261.406	2.87
261.621	2.62
261.836	2.91
262.05	2.98
262.265	3.15
262.48	3.17
262.695	3.51
262.91	3.98
263.125	3.86
263.34	4.19
263.555	4.73
263.769	4.42
263.984	4.13
264.199	4.12
264.414	4.23
264.629	4.1
264.843	3.95
265.058	4.73
265.273	4.72
265.488	4.33
265.702	4.18
265.917	4.16
266.132	4.16
266.346	4.64
266.561	3.98
266.776	4.32
266.99	4.11
267.205	4.27
267.42	3.69
267.634	3.25
267.849	3.5
268.063	3.84
268.278	3.92
268.492	4.17
268.707	4.13
268.922	4.56
269.136	3.66
269.351	3.39
269.565	2.72
269.78	3.01
269.994	2.91
270.209	2.86
270.423	2.31
270.637	1.84
270.852	1.58
271.066	1.53
271.281	1.15
271.495	1.64
271.709	2.13
271.924	2.5
272.138	2.37
272.353	2.55
272.567	2.47
272.781	3.05
272.996	3.33
273.21	3.57
273.424	3.6
273.638	3.69
273.853	3.76
274.067	3.69
274.281	3.51
274.495	3.23
274.71	3.4
274.924	3.65
275.138	3.08
275.352	3.22
275.566	3.4
275.781	3.89
275.995	4.1
276.209	4.02
276.423	3.61
276.637	3.94
276.851	4.07
277.065	4.16
277.279	4.01
277.493	4.37
277.707	4.25
277.921	3.77
278.135	3.24
278.349	3.13
278.563	3.07
278.777	3.09
278.991	2.68
279.205	2.62
279.419	2.89
279.633	3.37
279.847	3.51
280.061	3.93
280.275	4.11
280.489	4.08
280.703	4.22
280.917	4.79
281.131	4.96
281.344	5.37
281.558	5.65
281.772	5.66
281.986	5.14
282.2	4.9
282.414	4.57
282.627	4.53
282.841	4.49
283.055	4.37
283.269	3.7
283.482	3.65
283.696	3.27
283.91	3.27
284.123	2.84
284.337	2.99
284.551	2.95
284.764	2.62
284.978	2.56
285.192	2.37
285.405	2.36
285.619	2.52
285.833	2.4
286.046	2.54
286.26	2.22
286.473	2.37
286.687	2.58
286.9	2.59
287.114	3.01
287.327	3.14
287.541	3.56
287.754	3.43
287.968	3.28
288.181	3.22
288.395	3.08
288.608	3.27
288.822	3.3
289.035	3.27
289.248	3.38
289.462	3.28
289.675	3.06
289.889	2.84
290.102	2.73
290.315	3.08
290.529	3.35
290.742	3.32
290.955	3.03
291.169	2.77
291.382	2.65
291.595	2.68
291.808	2.54
292.022	2.32
292.235	2.31
292.448	2.79
292.661	2.63
292.875	2.87
293.088	2.72
293.301	2.89
293.514	3.12
293.727	3.22
293.94	3.01
294.153	3.13
294.367	3.42
294.58	3.09
294.793	3.03
295.006	3.16
295.219	2.74
295.432	2.99
295.645	3.31
295.858	3.12
296.071	2.93
296.284	2.94
296.497	3.05
296.71	3.13
296.923	3.5
297.136	3.38
297.349	3.32
297.562	3.49
297.775	3.39
297.988	3.24
298.201	3.39
298.414	3.43
298.626	3.46
298.839	3.17
299.052	3.1
299.265	2.74
299.478	2.89
299.691	3.14
299.903	3.23
300.116	3.3
300.329	3.49
300.542	3.2
300.755	3.57
300.967	3.63
301.18	3.95
301.393	4.25
301.605	4.56
301.818	4.42
302.031	4.2
302.243	4.05
302.456	4.1
302.669	4.27
302.881	4.58
303.094	4.46
303.307	4.33
303.519	4.25
303.732	4.12
303.944	3.96
304.157	4.12
304.37	4.2
304.582	4.28
304.795	4.54
305.007	4.54
305.22	4.61
305.432	4.71
305.645	4.93
305.857	5.03
306.069	5.05
306.282	5.06
306.494	4.94
306.707	4.78
306.919	4.69
307.132	4.77
307.344	4.85
307.556	4.96
307.769	4.73
307.981	4.61
308.193	4.79
308.406	4.99
308.618	5.11
308.83	5.11
309.043	5.31
309.255	5.53
309.467	5.45
309.679	5.18
309.892	4.77
310.104	4.86
310.316	5.14
310.528	4.56
310.74	4.16
310.953	4.33
311.165	4.23
311.377	4.17
311.589	4.08
311.801	3.81
312.013	3.74
312.225	3.93
312.437	4.02
312.649	3.79
312.862	4.26
313.074	4.73
313.286	4.69
313.498	4.95
313.71	4.95
313.922	5.17
314.134	5.52
314.346	5.61
314.558	5.96
314.77	5.83
314.982	6.16
315.193	6.5
315.405	6.36
315.617	6.51
315.829	6.72
316.041	6.89
316.253	6.88
316.465	6.98
316.677	7.05
316.888	6.74
317.1	6.86
317.312	6.56
317.524	6.36
317.736	6.4
317.947	6.3
318.159	5.93
318.371	6.31
318.583	6.37
318.794	5.92
319.006	6.01
319.218	6.37
319.43	6.45
319.641	6.66
319.853	6.99
320.064	6.76
320.276	6.76
320.488	7.01
320.699	7
320.911	6.86
321.123	7.29
321.334	7.63
321.546	7.24
321.757	7.42
321.969	7.91
322.18	7.77
322.392	8.13
322.603	8.33
322.815	8.38
323.026	7.83
323.238	7.49
323.449	7.56
323.661	7.21
323.872	7.65
324.083	7.43
324.295	6.83
324.506	6.75
324.718	7
324.929	6.7
325.14	6.92
325.352	7.09
325.563	7.49
325.774	7.57
325.986	7.72
326.197	7.64
326.408	7.8
326.62	7.93
326.831	7.9
327.042	7.46
327.253	7.82
327.464	7.72
327.676	7.53
327.887	7.57
328.098	7.71
328.309	7.86
328.52	7.78
328.732	7.8
328.943	8.35
329.154	8.56
329.365	8.93
329.576	8.96
329.787	9.47
329.998	9.88
330.209	10.04
330.42	10.3
330.631	10.59
330.842	10.82
331.053	11.11
331.264	11.05
331.475	11.14
331.686	11.48
331.897	11.5
332.108	11.43
332.319	11.76
332.53	12.09
332.741	11.94
332.952	11.68
333.163	12.17
333.374	12.34
333.585	12.02
333.795	12.19
334.006	11.97
334.217	12.2
334.428	12.3
334.639	12
334.849	11.85
335.06	11.96
335.271	12.6
335.482	12.48
335.692	12.01
335.903	12.21
336.114	12.25
336.325	12.31
336.535	12.41
336.746	12.18
336.957	12.51
337.167	12.33
337.378	12.11
337.589	11.69
337.799	11.41
338.01	11.49
338.22	11.48
338.431	11.58
338.642	11.64
338.852	11.24
339.063	11.69
339.273	11.63
339.484	11.77
339.694	12
339.905	12.14
340.115	12.28
340.326	12.46
340.536	12.58
340.746	12.35
340.957	12.52
341.167	12.72
341.378	12.46
341.588	12.34
341.799	12.34
342.009	12.2
342.219	11.86
342.43	12.01
342.64	12.62
342.85	12.64
343.061	12.8
343.271	12.64
343.481	12.68
343.691	12.7
343.902	12.59
344.112	12.61
344.322	12.91
344.532	12.99
344.743	12.6
344.953	12
345.163	11.9
345.373	11.72
345.583	11.84
345.793	11.79
346.004	11.6
346.214	11.84
346.424	11.94
346.634	11.67
346.844	11.52
347.054	11.6
347.264	11.68
347.474	11.55
347.684	11.52
347.894	11.4
348.104	11.36
348.314	11.49
348.524	11.17
348.734	10.99
348.944	10.89
349.154	11.13
349.364	11.14
349.574	11.08
349.784	11.32
349.994	11.45
350.204	11.59
350.413	11.75
350.623	11.66
350.833	11.99
351.043	12.09
351.253	12.44
351.463	12.34
351.672	12.49
351.882	12.4
352.092	12.28
352.302	12
352.511	12.15
352.721	12.14
352.931	12.19
353.141	12.25
353.35	12.43
353.56	12.23
353.77	12.49
353.979	12.5
354.189	12.67
354.399	12.48
354.608	12.59
354.818	12.2
355.027	12.03
355.237	12.07
355.447	11.71
355.656	11.58
355.866	11.52
356.075	11.46
356.285	11.87
356.494	11.84
356.704	11.94
356.913	12.02
357.123	11.99
357.332	12.02
357.542	12.14
357.751	12.36
357.96	12.38
358.17	12.23
358.379	12.11
358.589	11.69
358.798	11.7
359.007	11.87
359.217	12.08
359.426	11.89
359.635	11.9
359.845	11.75
360.054	11.65
360.263	11.28
360.472	11.44
360.682	11.33
360.891	11.18
361.1	11.1
361.309	11.03
361.519	10.81
361.728	10.95
361.937	10.97
362.146	10.97
362.355	10.94
362.564	11.11
362.774	10.97
362.983	11.08
363.192	11.11
363.401	10.99
363.61	10.82
363.819	10.77
364.028	10.6
364.237	10.38
364.446	10.31
364.655	10.28
364.864	10.32
365.073	10.61
365.282	10.51
365.491	10.85
365.7	11.09
365.909	11.16
366.118	11.24
366.327	11.33
366.536	11.38
366.745	11.29
366.954	11.34
367.162	11.16
367.371	10.91
367.58	11.06
367.789	10.73
367.998	10.83
368.207	10.74
368.415	10.62
368.624	10.91
368.833	10.95
369.042	10.97
369.25	10.94
369.459	11.07
369.668	11.16
369.877	11.13
370.085	11.1
370.294	11
370.503	11.17
370.711	11.27
370.92	11.17
371.129	11.04
371.337	11.05
371.546	10.98
371.754	10.84
371.963	11
372.171	10.85
372.38	10.93
372.589	10.92
372.797	10.92
373.006	10.78
373.214	10.59
373.423	10.74
373.631	10.76
373.84	10.77
374.048	10.87
374.256	10.45
374.465	10.37
374.673	10.31
374.882	10.28
375.09	10.26
375.298	10.24
375.507	10.48
375.715	10.32
375.923	10.22
376.132	10.21
376.34	10.11
376.548	10.23
376.757	10.4
376.965	10.52
377.173	10.4
377.381	10.32
377.59	10.62
377.798	10.47
378.006	10.53
378.214	10.54
378.423	10.62
378.631	10.79
378.839	10.82
379.047	10.54
379.255	10.37
379.463	10.46
379.671	10.33
379.879	10.21
380.088	9.98
380.296	9.98
380.504	9.98
380.712	9.99
380.92	9.68
381.128	9.58
381.336	9.78
381.544	9.9
381.752	10
381.96	10.24
382.168	10.12
382.376	10.31
382.584	10.19
382.791	10.11
382.999	10.07
383.207	10.27
383.415	10.47
383.623	10.55
383.831	10.53
384.039	10.34
384.247	10.19
384.454	10.03
384.662	9.97
384.87	10.03
385.078	10.13
385.285	10.15
385.493	10.15
385.701	10.03
385.909	9.9
386.116	9.73
386.324	9.79
386.532	9.75
386.739	9.8
386.947	9.73
387.155	9.93
387.362	9.86
387.57	9.87
387.778	9.88
387.985	9.83
388.193	9.97
388.4	9.98
388.608	10.13
388.816	10.36
389.023	10.44
389.231	10.55
389.438	10.49
389.646	10.65
389.853	10.64
390.061	10.41
390.268	10.35
390.475	10.31
390.683	10.38
390.89	9.91
391.098	9.76
391.305	9.74
391.512	9.6
391.72	9.54
391.927	9.32
392.135	9.22
392.342	9.36
392.549	9.6
392.756	9.34
392.964	9.4
393.171	9.54
393.378	9.47
393.586	9.63
393.793	9.8
394	9.81
394.207	9.88
394.414	9.85
394.622	9.96
394.829	9.9
395.036	9.97
395.243	9.77
395.45	9.68
395.657	9.72
395.864	9.58
396.072	9.49
396.279	9.43
396.486	9.35
396.693	9.39
396.9	9.24
397.107	9.11
397.314	9.25
397.521	9.33
397.728	9.58
397.935	9.64
398.142	9.54
398.349	9.43
398.556	9.45
398.763	9.58
398.97	9.54
399.177	9.45
399.383	9.43
399.59	9.51
399.797	9.44
400.004	9.34
400.211	9.16
400.418	9.23
400.625	9.39
400.831	9.31
401.038	9.12
401.245	9.15
401.452	9.18
401.658	9.14
401.865	8.9
402.072	8.82
402.279	8.81
402.485	9
402.692	8.96
402.899	8.85
403.105	9.04
403.312	9.09
403.519	8.92
403.725	8.82
403.932	8.93
404.138	8.93
404.345	9.05
404.552	8.91
404.758	8.83
404.965	8.84
405.171	8.75
405.378	8.62
405.584	8.62
405.791	8.59
405.997	8.77
406.204	8.85
406.41	8.97
406.617	8.88
406.823	9.07
407.029	9.13
407.236	9.14
407.442	9.34
407.649	9.41
407.855	9.5
408.061	9.59
408.268	9.5
408.474	9.36
408.68	9.19
408.887	9.2
409.093	9.25
409.299	9.24
409.505	9.21
409.712	9.17
409.918	9.08
410.124	9.15
410.33	9.25
410.537	9.35
410.743	9.41
410.949	9.5
411.155	9.54
411.361	9.42
411.567	9.28
411.773	9.16
411.98	9.16
412.186	9.06
412.392	8.97
412.598	9
412.804	8.71
413.01	8.52
413.216	8.47
413.422	8.43
413.628	8.47
413.834	8.69
414.04	8.75
414.246	8.64
414.452	8.67
414.658	8.51
414.864	8.38
415.07	8.46
415.275	8.65
415.481	8.72
415.687	8.84
415.893	8.84
416.099	8.67
416.305	8.59
416.511	8.7
416.716	8.68
416.922	8.79
417.128	8.74
417.334	8.84
417.539	8.74
417.745	8.65
417.951	8.57
418.157	8.5
418.362	8.58
418.568	8.59
418.774	8.57
418.979	8.57
419.185	8.59
419.391	8.67
419.596	8.59
419.802	8.59
420.008	8.71
420.213	9.4
420.419	9.41
420.624	9.33
420.83	9.3
421.035	9.26
421.241	9.29
421.446	9.22
421.652	9.13
421.857	9.17
422.063	9.15
422.268	9.05
422.474	8.45
422.679	8.43
422.885	8.42
423.09	8.5
423.295	8.56
423.501	8.57
423.706	8.54
423.911	8.62
424.117	8.53
424.322	8.55
424.527	8.57
424.733	8.51
424.938	8.49
425.143	8.58
425.349	8.55
425.554	8.49
425.759	8.52
425.964	8.61
426.169	8.6
426.375	8.62
426.58	8.67
426.785	8.66
426.99	8.63
427.195	8.66
427.4	8.56
427.605	8.61
427.811	8.58
428.016	8.61
428.221	8.6
428.426	8.6
428.631	8.73
428.836	8.7
429.041	8.76
429.246	8.8
429.451	8.83
429.656	8.73
429.861	8.67
430.066	8.65
430.271	8.56
430.476	8.61
430.681	8.54
430.886	8.65
431.09	8.64
431.295	8.67
431.5	8.68
431.705	8.62
431.91	8.8
432.115	8.87
432.32	8.94
432.524	8.9
432.729	8.78
432.934	8.8
433.139	8.72
433.343	8.78
433.548	8.76
433.753	8.72
433.958	8.7
434.162	8.71
434.367	8.66
434.572	8.64
434.776	8.71
434.981	8.87
435.186	8.85
435.39	8.85
435.595	8.87
435.799	8.95
436.004	9.08
436.209	9.16
436.413	9.03
436.618	9.07
436.822	9.01
437.027	8.98
437.231	8.92
437.436	8.86
437.64	8.85
437.845	8.7
438.049	8.54
438.253	8.45
438.458	8.36
438.662	8.32
438.867	8.37
439.071	8.49
439.275	8.5
439.48	8.33
439.684	8.42
439.888	8.36
440.093	8.39
440.297	8.44
440.501	8.43
440.706	8.46
440.91	8.53
441.114	8.48
441.318	8.42
441.523	8.33
441.727	8.43
441.931	8.38
442.135	8.43
442.339	8.39
442.543	8.43
442.748	8.56
442.952	8.52
443.156	8.53
443.36	8.54
443.564	8.58
443.768	8.7
443.972	8.67
444.176	8.69
444.38	8.73
444.584	8.82
444.788	8.84
444.992	8.71
445.196	8.79
445.4	8.71
445.604	8.67
445.808	8.66
446.012	8.6
446.216	8.63
446.42	8.66
446.624	8.6
446.828	8.5
447.032	8.46
447.235	8.51
447.439	8.54
447.643	8.65
447.847	8.68
448.051	8.64
448.254	8.75
448.458	8.83
448.662	8.83
448.866	8.86
449.069	8.9
449.273	8.87
449.477	8.84
449.681	8.8
449.884	8.82
450.088	8.84
450.292	8.92
450.495	8.82
450.699	8.68
450.902	8.67
451.106	8.64
451.31	8.73
451.513	8.76
451.717	8.79
451.92	8.79
452.124	8.74
452.327	8.71
452.531	8.58
452.734	8.56
452.938	8.49
453.141	8.39
453.345	8.4
453.548	8.34
453.752	8.4
453.955	8.29
454.158	8.33
454.362	8.36
454.565	8.34
454.769	8.48
454.972	8.49
455.175	8.67
455.379	8.82
455.582	8.85
455.785	8.81
455.988	8.73
456.192	8.85
456.395	8.7
456.598	8.68
456.801	8.66
457.005	8.55
457.208	8.62
457.411	8.53
457.614	8.51
457.817	8.47
458.021	8.43
458.224	8.4
458.427	8.34
458.63	8.45
458.833	8.36
459.036	8.35
459.239	8.35
459.442	8.35
459.645	8.35
459.848	8.28
460.051	8.28
460.254	8.38
460.457	8.44
460.66	8.48
460.863	8.37
461.066	8.42
461.269	8.53
461.472	8.57
461.675	8.48
461.878	8.49
462.081	8.62
462.284	8.6
462.486	8.55
462.689	8.56
462.892	8.39
463.095	8.55
463.298	8.59
463.5	8.48
463.703	8.57
463.906	8.65
464.109	8.77
464.311	8.78
464.514	8.84
464.717	8.73
464.92	8.77
465.122	9.01
465.325	9
465.528	8.96
465.73	9.09
465.933	9
466.135	8.97
466.338	8.89
466.541	8.86
466.743	8.94
466.946	9.09
467.148	9.13
467.351	9.07
467.553	9
467.756	9.07
467.958	8.95
468.161	8.96
468.363	9.01
468.566	9.04
468.768	8.99
468.971	8.91
469.173	8.81
469.375	8.62
469.578	8.69
469.78	8.72
469.983	8.67
470.185	8.71
470.387	8.69
470.59	8.71
470.792	8.75
470.994	8.84
471.196	8.86
471.399	9
471.601	9.09
471.803	9
472.005	8.97
472.208	8.92
472.41	8.95
472.612	8.99
472.814	8.97
473.016	8.88
473.218	8.82
473.421	8.87
473.623	8.72
473.825	8.63
474.027	8.68
474.229	8.75
474.431	8.74
474.633	8.83
474.835	8.74
475.037	8.74
475.239	8.77
475.441	8.9
475.643	8.82
475.845	8.92
476.047	8.97
476.249	9.03
476.451	9.01
476.653	9.05
476.855	8.97
477.057	9.07
477.258	8.99
477.46	8.92
477.662	8.72
477.864	8.76
478.066	8.77
478.268	8.78
478.469	8.77
478.671	8.7
478.873	8.71
479.075	8.6
479.276	8.55
479.478	8.55
479.68	8.51
479.882	8.6
480.083	8.58
480.285	8.52
480.487	8.48
480.688	8.42
480.89	8.4
481.091	8.39
481.293	8.41
481.495	8.38
481.696	8.42
481.898	8.43
482.099	8.38
482.301	8.37
482.502	8.35
482.704	8.34
482.905	8.31
483.107	8.32
483.308	8.31
483.51	8.33
483.711	8.33
483.913	8.32
484.114	8.34
484.315	8.37
484.517	8.39
484.718	8.42
484.92	8.45
485.121	8.47
485.322	8.48
485.524	8.51
485.725	8.51
485.926	8.53
486.127	8.56
486.329	8.59
486.53	8.54
486.731	8.53
486.932	8.52
487.134	8.54
487.335	8.54
487.536	8.54
487.737	8.55
487.938	8.57
488.139	8.57
488.341	8.58
488.542	8.61
488.743	8.67
488.944	8.68
489.145	8.68
489.346	8.71
489.547	8.73
489.748	8.74
489.949	8.75
490.15	8.68
490.351	8.67
490.552	8.66
490.753	8.61
490.954	8.55
491.155	8.52
491.356	8.53
491.557	8.51
491.758	8.48
491.959	8.5
492.159	8.49
492.36	8.58
492.561	8.62
492.762	8.59
492.963	8.64
493.164	8.74
493.364	8.81
493.565	8.81
493.766	8.87
493.967	8.93
494.167	8.98
494.368	9.08
494.569	9.01
494.769	9
494.97	9.14
495.171	9.11
495.371	9.06
495.572	9.07
495.773	9.11
495.973	9.03
496.174	9.11
496.375	9.1
496.575	8.99
496.776	9.09
496.976	9.1
497.177	9.09
497.377	9.06
497.578	9.1
497.778	9.15
497.979	9.17
498.179	9.16
498.38	9.11
498.58	9.14
498.78	9.19
498.981	9.12
499.181	9.04
499.382	9.01
499.582	9.08
499.782	9.04
499.983	9.02
500.183	9.07
500.383	9.15
500.584	9.16
500.784	9.14
500.984	9.12
501.184	9.19
501.385	9.33
501.585	9.42
501.785	9.41
501.985	9.5
502.185	9.48
502.386	9.38
502.586	9.41
502.786	9.4
502.986	9.45
503.186	9.48
503.386	9.47
503.586	9.45
503.786	9.37
503.987	9.38
504.187	9.37
504.387	9.32
504.587	9.4
504.787	9.45
504.987	9.53
505.187	9.49
505.387	9.4
505.587	9.42
505.786	9.49
505.986	9.58
506.186	9.59
506.386	9.65
506.586	9.73
506.786	9.7
506.986	9.6
507.186	9.53
507.386	9.5
507.585	9.61
507.785	9.63
507.985	9.63
508.185	9.59
508.384	9.7
508.584	9.61
508.784	9.62
508.984	9.68
509.183	9.77
509.383	9.8
509.583	9.86
509.782	9.83
509.982	9.9
510.182	9.93
510.381	9.93
510.581	9.81
510.781	9.85
510.98	9.95
511.18	10.02
511.379	9.99
511.579	10.04
511.778	10.08
511.978	10.06
512.177	10.03
512.377	9.98
512.576	10.06
512.776	10.15
512.975	10.19
513.175	10.09
513.374	9.99
513.573	10.16
513.773	10.25
513.972	10.25
514.172	10.38
514.371	10.45
514.57	10.5
514.77	10.53
514.969	10.55
515.168	10.6
515.367	10.66
515.567	10.73
515.766	10.63
515.965	10.63
516.164	10.66
516.364	10.69
516.563	10.63
516.762	10.67
516.961	10.63
517.16	10.67
517.359	10.69
517.559	10.65
517.758	10.73
517.957	10.74
518.156	10.73
518.355	10.77
518.554	10.8
518.753	10.88
518.952	10.9
519.151	10.96
519.35	10.99
519.549	11.07
519.748	11.19
519.947	11.2
520.146	11.25
520.345	11.32
520.544	11.32
520.743	11.31
520.942	11.38
521.141	11.43
521.339	11.49
521.538	11.53
521.737	11.48
521.936	11.48
522.135	11.44
522.333	11.43
522.532	11.44
522.731	11.51
522.93	11.65
523.129	11.64
523.327	11.66
523.526	11.6
523.725	11.57
523.923	11.66
524.122	11.73
524.321	11.83
524.519	11.81
524.718	11.86
524.917	11.91
525.115	11.86
525.314	11.87
525.512	11.89
525.711	11.94
525.909	11.97
526.108	11.96
526.306	11.9
526.505	11.91
526.703	11.99
526.902	11.99
527.1	11.96
527.299	11.99
527.497	11.98
527.696	11.96
527.894	11.98
528.092	12
528.291	11.99
528.489	12.02
528.688	12.06
528.886	12.07
529.084	12.11
529.283	12.14
529.481	12.16
529.679	12.17
529.877	12.27
530.076	12.33
530.274	12.39
530.472	12.43
530.67	12.51
530.869	12.54
531.067	12.58
531.265	12.57
531.463	12.66
531.661	12.64
531.859	12.63
532.057	12.61
532.255	12.61
532.454	12.6
532.652	12.61
532.85	12.59
533.048	12.62
533.246	12.64
533.444	12.68
533.642	12.66
533.84	12.75
534.038	12.87
534.236	12.88
534.434	12.92
534.632	13.01
534.83	13.07
535.027	13.13
535.225	13.16
535.423	13.2
535.621	13.25
535.819	13.3
536.017	13.3
536.215	13.35
536.412	13.37
536.61	13.37
536.808	13.39
537.006	13.41
537.203	13.46
537.401	13.5
537.599	13.56
537.797	13.58
537.994	13.64
538.192	13.74
538.39	13.8
538.587	13.92
538.785	14.04
538.983	14.12
539.18	14.24
539.378	14.36
539.575	14.45
539.773	14.5
539.97	14.54
540.168	14.53
540.366	14.55
540.563	14.59
540.761	14.54
540.958	14.53
541.155	14.54
541.353	14.55
541.55	14.55
541.748	14.53
541.945	14.52
542.143	14.56
542.34	14.53
542.537	14.59
542.735	14.61
542.932	14.71
543.129	14.83
543.327	14.96
543.524	15.08
543.721	15.16
543.919	15.33
544.116	15.5
544.313	15.71
544.51	15.98
544.708	16.11
544.905	16.33
545.102	16.45
545.299	16.52
545.496	16.53
545.693	16.58
545.891	16.65
546.088	16.63
546.285	16.6
546.482	16.56
546.679	16.48
546.876	16.43
547.073	16.21
547.27	16.18
547.467	16.18
547.664	16.15
547.861	16.08
548.058	16.02
548.255	16
548.452	15.99
548.649	15.98
548.846	15.96
549.043	15.87
549.24	15.86
549.437	15.85
549.633	15.82
549.83	15.75
550.027	15.7
550.224	15.66
550.421	15.76
550.618	15.81
550.814	15.75
551.011	15.66
551.208	15.57
551.405	15.68
551.601	15.65
551.798	15.58
551.995	15.64
552.191	15.59
552.388	15.46
552.585	15.33
552.781	15.15
552.978	15.07
553.175	15.27
553.371	15.28
553.568	15.26
553.764	15.17
553.961	15.18
554.157	15.11
554.354	15.16
554.55	15.26
554.747	15.21
554.943	15.31
555.14	15.35
555.336	15.35
555.533	15.39
555.729	15.33
555.926	15.43
556.122	15.43
556.318	15.4
556.515	15.37
556.711	15.39
556.907	15.47
557.104	15.44
557.3	15.39
557.496	15.26
557.693	15.31
557.889	15.47
558.085	15.51
558.281	15.42
558.478	15.52
558.674	15.63
558.87	15.7
559.066	15.75
559.262	15.81
559.459	15.79
559.655	15.74
559.851	15.68
560.047	15.65
560.243	15.64
560.439	15.65
560.635	15.69
560.831	15.65
561.027	15.63
561.223	15.59
561.419	15.66
561.615	15.86
561.811	15.98
562.007	16.09
562.203	15.97
562.399	15.98
562.595	16.2
562.791	16.16
562.987	16.13
563.183	16.09
563.379	16.13
563.575	16.08
563.771	15.87
563.966	15.93
564.162	15.91
564.358	15.89
564.554	15.88
564.75	15.82
564.945	15.88
565.141	15.93
565.337	16.08
565.533	16.05
565.728	16.02
565.924	16.08
566.12	16
566.315	16.05
566.511	16.16
566.707	16.24
566.902	16.29
567.098	16.23
567.293	16.26
567.489	16.16
567.684	16.17
567.88	16.19
568.076	16.25
568.271	16.23
568.467	16.25
568.662	16.18
568.858	16.09
569.053	16.08
569.248	16.1
569.444	16.11
569.639	16.09
569.835	16.13
570.03	16.09
570.225	16.09
570.421	16.16
570.616	16.04
570.812	16.16
571.007	16.14
571.202	16.13
571.397	16.2
571.593	16.22
571.788	16.27
571.983	16.28
572.178	16.41
572.374	16.44
572.569	16.46
572.764	16.5
572.959	16.54
573.154	16.63
573.35	16.66
573.545	16.51
573.74	16.41
573.935	16.46
574.13	16.48
574.325	16.46
574.52	16.45
574.715	16.4
574.91	16.41
575.105	16.49
575.3	16.43
575.495	16.45
575.69	16.6
575.885	16.82
576.08	16.87
576.275	17.06
576.47	17.07
576.665	17.17
576.86	17.39
577.055	17.51
577.25	17.56
577.444	17.84
577.639	17.9
577.834	17.92
578.029	17.8
578.224	17.76
578.418	17.73
578.613	17.72
578.808	17.72
579.003	17.59
579.197	17.68
579.392	17.61
579.587	17.44
579.781	17.49
579.976	17.49
580.171	17.58
580.365	17.71
580.56	17.58
580.755	17.59
580.949	17.68
581.144	17.97
581.338	17.83
581.533	17.87
581.727	17.97
581.922	17.88
582.116	17.95
582.311	17.99
582.505	18.01
582.7	18.13
582.894	18.22
583.089	18.26
583.283	18.19
583.478	18.23
583.672	18.25
583.866	18.26
584.061	18.44
584.255	18.37
584.449	18.42
584.644	18.4
584.838	18.4
585.032	18.51
585.226	18.53
585.421	18.28
585.615	18.4
585.809	18.52
586.003	18.65
586.198	18.68
586.392	18.85
586.586	18.81
586.78	18.84
586.974	19.01
587.168	19.03
587.363	19.01
587.557	19.1
587.751	19.09
587.945	18.99
588.139	18.89
588.333	18.81
588.527	18.62
588.721	18.6
588.915	18.56
589.109	18.45
589.303	18.34
589.497	18.35
589.691	18.39
589.885	18.26
590.079	18.21
590.273	18.06
590.466	18.12
590.66	18.17
590.854	18.28
591.048	18.32
591.242	18.44
591.436	18.51
591.629	18.55
591.823	18.63
592.017	18.62
592.211	18.76
592.404	18.89
592.598	19.02
592.792	19.23
592.986	19.19
593.179	19.09
593.373	18.87
593.567	18.87
593.76	18.74
593.954	18.67
594.147	18.81
594.341	18.71
594.535	18.76
594.728	18.57
594.922	18.37
595.115	18.3
595.309	18.43
595.502	18.51
595.696	18.38
595.889	18.35
596.083	18.33
596.276	18.32
596.47	18.35
596.663	18.3
596.856	18.37
597.05	18.48
597.243	18.54
597.437	18.56
597.63	18.58
597.823	18.73
598.017	18.82
598.21	18.86
598.403	18.94
598.596	18.95
598.79	18.99
598.983	18.95
599.176	19.08
599.369	19.14
599.563	19.11
599.756	19.17
599.949	19.11
600.142	19.18
600.335	19.28
600.528	19.23
600.722	19.47
600.915	19.46
601.108	19.41
601.301	19.35
601.494	19.35
601.687	19.29
601.88	19.08
602.073	18.97
602.266	18.8
602.459	18.7
602.652	18.68
602.845	18.4
603.038	18.48
603.231	18.51
603.424	18.36
603.617	18.3
603.809	18.37
604.002	18.44
604.195	18.67
604.388	18.77
604.581	18.74
604.774	18.82
604.966	18.94
605.159	19.02
605.352	19.06
605.545	19.22
605.737	19.27
605.93	19.33
606.123	19.44
606.316	19.39
606.508	19.52
606.701	19.61
606.894	19.74
607.086	19.86
607.279	19.85
607.471	19.98
607.664	20.25
607.857	20.5
608.049	20.86
608.242	21.12
608.434	21.47
608.627	21.85
608.819	22.53
609.012	23.09
609.204	23.76
609.397	24.49
609.589	25.39
609.782	26.19
609.974	27.19
610.166	27.94
610.359	28.79
610.551	29.56
610.743	30.27
610.936	30.81
611.128	31.29
611.32	31.64
611.513	31.86
611.705	31.66
611.897	31.52
612.09	31.03
612.282	30.57
612.474	30.37
612.666	30.11
612.858	29.61
613.051	29.16
613.243	28.77
613.435	28.19
613.627	27.65
613.819	27.52
614.011	27.34
614.203	27.13
614.395	26.71
614.588	26.23
614.78	25.88
614.972	25.71
615.164	25.07
615.356	24.71
615.548	24.47
615.74	24.21
615.932	23.9
616.124	23.29
616.315	22.94
616.507	22.96
616.699	22.67
616.891	22.59
617.083	22.35
617.275	22.54
617.467	22.23
617.659	22.13
617.85	21.93
618.042	21.83
618.234	21.94
618.426	21.8
618.618	21.75
618.809	21.61
619.001	21.4
619.193	21.35
619.384	21.33
619.576	21.52
619.768	21.31
619.959	21.48
620.151	21.44
620.343	21.41
620.534	21.36
620.726	21.31
620.917	21.5
621.109	21.41
621.301	21.32
621.492	21.29
621.684	21.3
621.875	21.64
622.067	21.56
622.258	21.56
622.45	21.49
622.641	21.61
622.832	21.68
623.024	21.69
623.215	21.85
623.407	21.85
623.598	21.87
623.789	21.86
623.981	21.69
624.172	21.64
624.363	21.6
624.555	21.76
624.746	21.78
624.937	21.56
625.129	21.47
625.32	21.32
625.511	21.41
625.702	21.41
625.893	21.2
626.085	21.15
626.276	21.1
626.467	21.02
626.658	20.9
626.849	20.78
627.04	21.07
627.231	21.24
627.422	21.37
627.614	21.26
627.805	21.15
627.996	21.21
628.187	21.27
628.378	21.44
628.569	21.71
628.76	21.73
628.951	21.91
629.142	21.78
629.332	21.89
629.523	22.08
629.714	22.38
629.905	22.65
630.096	22.9
630.287	23.03
630.478	23.14
630.669	22.88
630.859	23.09
631.05	23.02
631.241	23.19
631.432	23.02
631.623	22.77
631.813	22.65
632.004	22.32
632.195	22.12
632.385	21.81
632.576	21.72
632.767	21.92
632.957	21.65
633.148	21.53
633.339	21.17
633.529	21.03
633.72	20.86
633.91	20.61
634.101	20.48
634.292	20.43
634.482	20.6
634.673	20.48
634.863	20.26
635.054	20.21
635.244	20.04
635.435	20.12
635.625	19.98
635.815	20
636.006	19.95
636.196	20.23
636.387	20.18
636.577	20.28
636.767	20.31
636.958	20.23
637.148	20.3
637.338	20.52
637.529	20.57
637.719	20.64
637.909	20.72
638.099	21
638.29	20.85
638.48	20.95
638.67	20.74
638.86	20.56
639.05	20.8
639.241	20.93
639.431	20.86
639.621	20.74
639.811	20.67
640.001	20.59
640.191	20.34
640.381	20.54
640.571	20.4
640.761	20.33
640.951	20.59
641.141	20.51
641.331	20.54
641.521	20.49
641.711	20.56
641.901	20.78
642.091	20.8
642.281	21
642.471	21.05
642.661	20.87
642.851	21.09
643.041	20.96
643.231	20.94
643.42	20.65
643.61	20.93
643.8	21.03
643.99	20.94
644.18	20.96
644.369	20.89
644.559	20.81
644.749	21.05
644.939	20.8
645.128	20.82
645.318	20.77
645.508	20.79
645.697	20.58
645.887	20.41
646.076	20.37
646.266	20.35
646.456	20.45
646.645	20.22
646.835	20.13
647.024	20.38
647.214	20.44
647.403	20.44
647.593	20.52
647.782	20.59
647.972	20.75
648.161	20.86
648.351	20.84
648.54	21.02
648.73	21.26
648.919	21.48
649.108	21.53
649.298	21.38
649.487	21.51
649.677	21.6
649.866	21.54
650.055	21.47
650.244	21.39
650.434	21.48
650.623	21.36
650.812	21.28
651.002	21.23
651.191	21.32
651.38	21.29
651.569	21.34
651.758	21.41
651.947	21.67
652.137	21.91
652.326	21.95
652.515	21.9
652.704	21.71
652.893	21.83
653.082	21.79
653.271	21.91
653.46	22.06
653.649	22.04
653.838	22.11
654.027	21.95
654.216	21.88
654.405	22.11
654.594	22.03
654.783	22.28
654.972	22.27
655.161	22.31
655.35	22.09
655.539	22.1
655.728	22.06
655.916	21.95
656.105	21.94
656.294	22.04
656.483	21.96
656.672	22.05
656.86	21.63
657.049	21.41
657.238	21.42
657.427	21.35
657.615	21.36
657.804	21.16
657.993	21.13
658.181	20.98
658.37	20.99
658.559	20.73
658.747	20.56
658.936	20.69
659.125	21.1
659.313	21.1
659.502	21.04
659.69	21.02
659.879	21.17
660.067	21.21
660.256	21.36
660.444	21.07
660.633	21.36
660.821	21.64
661.01	21.92
661.198	21.47
661.387	21.54
661.575	21.63
661.763	21.82
661.952	21.68
662.14	21.78
662.328	21.91
662.517	22.05
662.705	21.93
662.893	21.96
663.082	21.89
663.27	21.96
663.458	21.72
663.646	21.95
663.834	21.58
664.023	21.78
664.211	21.45
664.399	21.45
664.587	21.48
664.775	21.44
664.963	21.15
665.152	21.32
665.34	21.29
665.528	21.65
665.716	21.41
665.904	21.78
666.092	21.78
666.28	21.94
666.468	21.75
666.656	21.76
666.844	21.95
667.032	22.17
667.22	21.79
667.408	21.91
667.596	21.52
667.784	21.54
667.971	21.56
668.159	21.6
668.347	21.71
668.535	21.88
668.723	22.05
668.911	21.92
669.098	21.82
669.286	21.86
669.474	21.82
669.662	22.16
669.849	22.19
670.037	22.07
670.225	21.92
670.413	21.72
670.6	21.53
670.788	21.48
670.976	21.18
671.163	21.37
671.351	21.38
671.538	21.39
671.726	21.34
671.913	21.37
672.101	21.34
672.289	21.56
672.476	21.58
672.664	21.68
672.851	21.65
673.039	22.14
673.226	22.09
673.413	22.14
673.601	22.35
673.788	22.32
673.976	22.11
674.163	22.32
674.35	22.45
674.538	22.61
674.725	22.61
674.912	22.57
675.1	22.26
675.287	22.37
675.474	22.48
675.662	22.46
675.849	22.43
676.036	22.55
676.223	22.26
676.411	22.28
676.598	22.29
676.785	22.42
676.972	22.47
677.159	22.56
677.346	22.28
677.533	21.95
677.721	21.91
677.908	21.83
678.095	21.79
678.282	21.93
678.469	21.36
678.656	21.47
678.843	21.39
679.03	21.36
679.217	21.18
679.404	21.34
679.591	21.58
679.778	21.35
679.964	21.49
680.151	21.51
680.338	21.38
680.525	21.62
680.712	21.37
680.899	21.36
681.086	21.49
681.272	21.73
681.459	21.89
681.646	21.66
681.833	21.78
682.02	21.72
682.206	21.73
682.393	21.95
682.58	22.18
682.766	22.36
682.953	22.46
683.14	22.5
683.326	22.65
683.513	22.25
683.7	22.67
683.886	22.73
684.073	22.71
684.259	22.8
684.446	22.65
684.632	22.36
684.819	22.48
685.005	22.4
685.192	22.4
685.378	22.34
685.565	22.58
685.751	22.28
685.938	22.47
686.124	22.54
686.31	22.39
686.497	22.55
686.683	22.45
686.87	22.7
687.056	22.8
687.242	22.79
687.429	22.78
687.615	22.93
687.801	22.89
687.987	22.55
688.174	22.4
688.36	22.43
688.546	22.36
688.732	22.74
688.918	22.45
689.105	22.24
689.291	22
689.477	22.24
689.663	22.48
689.849	22.78
690.035	22.99
690.221	23.02
690.407	22.77
690.593	22.64
690.779	22.55
690.965	22.45
691.151	22.71
691.337	23.1
691.523	22.88
691.709	22.41
691.895	22.31
692.081	22.55
692.267	22.52
692.453	23.12
692.639	23.39
692.825	23.14
693.011	23.34
693.196	23.36
693.382	23.02
693.568	22.93
693.754	23.18
693.94	23.12
694.125	22.95
694.311	23.34
694.497	23.03
694.682	22.63
694.868	22.48
695.054	22.25
695.239	22.2
695.425	22.24
695.611	22.08
695.796	21.76
695.982	21.7
696.168	21.45
696.353	21.07
696.539	21.17
696.724	21.2
696.91	21.5
697.095	21.53
697.281	21.38
697.466	21.23
697.652	21.44
697.837	21.38
698.023	21.38
698.208	21.42
698.393	21.47
698.579	21.46
698.764	21.59
698.949	21.59
699.135	21.62
699.32	21.84
699.505	21.79
699.691	21.55
699.876	21.53
700.061	21.62
700.246	21.74
700.432	21.89
700.617	21.9
700.802	21.96
700.987	22.2
701.172	22.36
701.358	22.44
701.543	22.51
701.728	22.89
701.913	23.04
702.098	23.12
702.283	22.96
702.468	22.99
702.653	23.06
702.838	23.4
703.023	23.12
703.208	23.15
703.393	22.95
703.578	23.03
703.763	23.03
703.948	23.17
704.133	23.28
704.318	23.54
704.503	23.94
704.688	24.3
704.873	24.34
705.057	24.75
705.242	24.92
705.427	25.55
705.612	25.73
705.797	25.75
705.981	26.12
706.166	26.24
706.351	26.53
706.536	26.31
706.72	26.26
706.905	26.21
707.09	26.5
707.274	26.5
707.459	25.86
707.644	26.17
707.828	26.35
708.013	26.37
708.197	26.43
708.382	26.23
708.567	26.26
708.751	26.34
708.936	26.22
709.12	26.09
709.305	25.94
709.489	26.03
709.673	25.66
709.858	25.44
710.042	25.24
710.227	25.06
710.411	25.29
710.596	25.25
710.78	25.2
710.964	25.17
711.149	24.66
711.333	24.77
711.517	25.24
711.702	25.48
711.886	24.98
712.07	25.41
712.254	25.43
712.438	25.01
712.623	24.68
712.807	24.09
712.991	24.18
713.175	24.23
713.359	24.11
713.544	23.51
713.728	23.47
713.912	23.9
714.096	23.01
714.28	22.66
714.464	22.8
714.648	22.99
714.832	23.01
715.016	22.68
715.2	22.44
715.384	22.13
715.568	21.98
715.752	21.8
715.936	22.01
716.12	22.18
716.304	22.28
716.488	22
716.671	21.59
716.855	21.89
717.039	21.65
717.223	21.69
717.407	21.8
717.59	21.89
717.774	21.87
717.958	21.85
718.142	21.48
718.325	21.52
718.509	21.87
718.693	21.89
718.877	21.5
719.06	21.81
719.244	21.72
719.428	21.38
719.611	21.87
719.795	21.93
719.978	21.83
720.162	22.3
720.345	22.62
720.529	22.62
720.713	22.96
720.896	22.91
721.08	22.98
721.263	23.06
721.446	23.69
721.63	23.66
721.813	23.49
721.997	22.94
722.18	22.49
722.364	22.13
722.547	21.65
722.73	21.62
722.914	21.64
723.097	21.5
723.28	21.46
723.464	21.47
723.647	21.34
723.83	21.38
724.013	21.68
724.197	22.05
724.38	22.17
724.563	22.14
724.746	22.46
724.929	22.82
725.112	22.58
725.296	22.34
725.479	22.48
725.662	22.63
725.845	22.72
726.028	22.87
726.211	23.13
726.394	22.96
726.577	23.23
726.76	23.43
726.943	23.73
727.126	24.2
727.309	24.94
727.492	24.64
727.675	23.98
727.858	24.31
728.041	24.12
728.224	24.24
728.407	24.33
728.589	24.36
728.772	23.9
728.955	23.6
729.138	23.28
729.321	22.65
729.503	22.56
729.686	22.74
729.869	22.43
730.052	22.72
730.234	22.56
730.417	22.51
730.6	22.47
730.782	22.65
730.965	22.57
731.148	22.55
731.33	22.97
731.513	22.73
731.695	22.55
731.878	22.44
732.061	22.35
732.243	22.58
732.426	22.25
732.608	22.51
732.791	22.63
732.973	22.8
733.156	23.02
733.338	22.74
733.52	22.85
733.703	23.11
733.885	23.18
734.068	23.2
734.25	23.22
734.432	24
734.615	24.04
734.797	24.08
734.979	24.12
735.162	24.18
735.344	24.97
735.526	25.17
735.708	25.33
735.891	25.41
736.073	25.42
736.255	25.3
736.437	25.07
736.619	25.22
736.802	25.06
736.984	24.38
737.166	24.39
737.348	23.61
737.53	23.67
737.712	23.5
737.894	23.55
738.076	23.36
738.258	23
738.44	22.57
738.622	22.61
738.804	22.56
738.986	23.8
739.168	23.67
739.35	23.96
739.532	23.93
739.714	24.2
739.896	24.05
740.078	23.79
740.259	23.99
740.441	23.94
740.623	23.63
740.805	23.52
740.987	22.74
741.168	23.12
741.35	23.84
741.532	24.16
741.714	24.15
741.895	24.36
742.077	25.21
742.259	24.84
742.44	25.37
742.622	24.95
742.804	25.14
742.985	25.61
743.167	25.45
743.348	24.31
743.53	23.56
743.711	23.6
743.893	23.84
744.075	23.32
744.256	23.61
744.438	23.27
744.619	23.43
744.8	23.64
744.982	23.75
745.163	23.47
745.345	23.74
745.526	24.64
745.707	24.48
745.889	24.67
746.07	24.99
746.252	25.81
746.433	25.57
746.614	25.99
746.795	25.6
746.977	25.31
747.158	25.4
747.339	25.56
747.52	25.37
747.702	25.35
747.883	25.09
748.064	25.35
748.245	25.04
748.426	25.76
748.607	25.52
748.788	25.56
748.97	25.06
749.151	25.33
749.332	24.79
749.513	24.51
749.694	24.12
749.875	24.29
750.056	24.12
750.237	23.92
750.418	23.41
750.599	23.41
750.78	23.39
750.96	24.04
751.141	23.75
751.322	24.59
751.503	24.95
751.684	25.44
751.865	24.81
752.046	24.62
752.226	24.43
752.407	24.75
752.588	24.73
752.769	25.12
752.949	24.33
753.13	24.39
753.311	24.11
753.492	24.47
753.672	24.27
753.853	24.37
754.034	23.99
754.214	24.7
754.395	25.14
754.575	25.6
754.756	25.3
754.937	26.12
755.117	26.35
755.298	26.44
755.478	25.74
755.659	26.7
755.839	26.6
756.02	26.41
756.2	25.55
756.381	25.24
756.561	24.85
756.741	25.42
756.922	24.6
757.102	24.79
757.283	24.87
757.463	24.5
757.643	23.57
757.823	24.43
758.004	25.06
758.184	25.77
758.364	25.62
758.545	25.9
758.725	25.46
758.905	25.11
759.085	24.77
759.265	23.93
759.446	24.02
759.626	24.24
759.806	23.73
759.986	23.43
760.166	22.88
760.346	22.54
760.526	21.87
760.706	21.28
760.886	21.86
761.066	21.51
761.246	21.93
761.426	21.91
761.606	21.19
761.786	20.53
761.966	20.31
762.146	20.56
762.326	21.09
762.506	21.12
762.686	21.4
762.866	21.17
763.046	21.3
763.225	20.99
763.405	21.05
763.585	21.25
763.765	21.78
763.945	21.47
764.124	20.89
764.304	20.74
764.484	21
764.664	20.87
764.843	20.93
765.023	21.31
765.203	21.58
765.382	21.56
765.562	22.05
765.741	22.04
765.921	23.02
766.101	23.98
766.28	24.27
766.46	24.45
766.639	24.78
766.819	25.41
766.998	24.9
767.178	24.88
767.357	24.71
767.537	24.71
767.716	24.85
767.896	24.89
768.075	24.83
768.254	24.25
768.434	24.3
768.613	23.98
768.792	24
768.972	24.74
769.151	24.65
769.33	25.35
769.51	24.85
769.689	24.57
769.868	24.51
770.047	24.05
770.226	24.21
770.406	23.72
770.585	25.18
770.764	25.31
770.943	24.75
771.122	25.52
771.301	25.41
771.48	25.74
771.66	26.43
771.839	26.87
772.018	27.16
772.197	27.48
772.376	28.39
772.555	27.85
772.734	27.5
772.913	27.41
773.092	27.47
773.271	27.72
773.449	28.85
773.628	29.1
773.807	28.23
773.986	28.33
774.165	28.31
774.344	28.53
774.523	28.54
774.701	28.12
774.88	29.32
775.059	30.06
775.238	29.95
775.417	28.8
775.595	28.7
775.774	28.14
775.953	27.46
776.131	27.1
776.31	26.41
776.489	25.64
776.667	26.5
776.846	25.3
777.025	24.83
777.203	24.91
777.382	24.47
777.56	24.04
777.739	25.24
777.917	25.86
778.096	26.59
778.274	26.46
778.453	27.01
778.631	26.86
778.81	26.58
778.988	25.88
779.166	25.82
779.345	26.46
779.523	26.25
779.702	26.41
779.88	26.76
780.058	25.99
780.237	25.65
780.415	24.9
780.593	24.55
780.771	25.59
780.95	26.19
781.128	26.15
781.306	26.26
781.484	26.54
781.662	25.47
781.841	25.13
782.019	25.31
782.197	25.76
782.375	25.79
782.553	26.12
782.731	26.47
782.909	26.33
783.087	26.47
783.265	26.09
783.443	26.09
783.621	26.55
783.799	25.5
783.977	24.92
784.155	24.82
784.333	25.88
784.511	26.21
784.689	25.45
784.867	25.47
785.045	26.35
785.223	26.28
785.4	25.93
785.578	26.25
785.756	28.09
785.934	28.16
786.112	28.53
786.289	27.4
786.467	26.81
786.645	26.3
786.823	26.4
787	26.11
787.178	26.5
787.356	27.57
787.533	26.68
787.711	25.64
787.889	25.53
788.066	25.47
788.244	25.47
788.421	25.23
788.599	25.79
788.776	25.62
788.954	24.87
789.131	23.78
789.309	23.37
789.486	24.5
789.664	24.76
789.841	25.25
790.019	25.54
790.196	26.63
790.373	27.76
790.551	27.87
790.728	27.38
790.906	27.6
791.083	28.24
791.26	27.89
791.437	28.02
791.615	27.92
791.792	27.64
791.969	27.47
792.146	27.23
792.324	25.89
792.501	25.93
792.678	26.37
792.855	26.27
793.032	26.55
793.209	25.89
793.387	25.07
793.564	25.69
793.741	26.71
793.918	25.87
794.095	25.15
794.272	25.57
794.449	26.16
794.626	26.11
794.803	26.36
794.98	25.94
795.157	25.92
795.334	25.95
795.511	25.54
795.688	25.05
795.864	25.03
796.041	24.12
796.218	23.63
796.395	23.45
796.572	23.74
796.749	24.05
796.925	23.68
797.102	24.03
797.279	24.35
797.456	22.94
797.632	23.23
797.809	22.64
797.986	24.44
798.162	25.04
798.339	25.09
798.516	25.3
798.692	24.02
798.869	24.55
799.046	24.59
799.222	24.56
799.399	25.41
799.575	24.86
799.752	25.72
799.928	25.07
800.105	25.71
800.281	25.5
800.458	25.75
800.634	26.54
800.811	27.45
800.987	28.15
801.163	27.61
801.34	28.6
801.516	29.42
801.692	29.52
801.869	29.26
802.045	29.08
802.221	29.47
802.398	28.75
802.574	28.09
802.75	27.32
802.926	25.49
803.103	25.2
803.279	25.29
803.455	23.79
803.631	24.13
803.807	24.26
803.983	24.42
804.16	23.3
804.336	23.69
804.512	23.55
804.688	23.4
804.864	24.23
805.04	25.76
805.216	25.38
805.392	24.99
805.568	24.67
805.744	24.96
805.92	25.08
806.096	25.38
806.272	27.64
806.448	28.86
806.623	30.01
806.799	31.41
806.975	28.51
807.151	29.03
807.327	31.57
807.503	31.9
807.678	33.13
807.854	32.27
808.03	32.74
808.206	29.31
808.381	29.04
808.557	28.93
808.733	27.91
808.908	29.98
809.084	29.49
809.26	28.55
809.435	28.38
809.611	27.72
809.787	27.75
809.962	26.76
810.138	28.07
810.313	29.53
810.489	29.11
810.664	29.55
810.84	29.12
811.015	29.76
811.191	29.42
811.366	30.79
811.542	30.58
811.717	30.85
811.892	30.73
812.068	31.33
812.243	30.15
812.419	30.22
812.594	29.87
812.769	29.09
812.944	28.98
813.12	28.5
813.295	26.07
813.47	27.03
813.645	27.6
813.821	28.92
813.996	28.13
814.171	27.38
814.346	27.57
814.521	26.56
814.697	27.26
814.872	25.78
815.047	26.75
815.222	27.22
815.397	26.44
815.572	26.44
815.747	26.2
815.922	27.44
816.097	27.84
816.272	27.39
816.447	28.92
816.622	29.53
816.797	30.85
816.972	30.33
817.147	30.11
817.322	30.32
817.496	28.77
817.671	28.4
817.846	27.02
818.021	26.24
818.196	26.21
818.371	25.76
818.545	25.7
818.72	25.71
818.895	25.6
819.069	24.78
819.244	22.73
819.419	23.6
819.594	23.09
819.768	23.37
819.943	23.89
820.117	23.32
820.292	22.32
820.467	21.6
820.641	20.46
820.816	20.22
820.99	20.23
821.165	20.43
821.339	19.6
821.514	19.21
821.688	18.45
821.863	18.01
822.037	17.89
822.212	17.87
822.386	17.89
822.56	18.1
822.735	17.9
822.909	17.89
823.084	17.73
823.258	17.69
823.432	17.7
823.606	18.08
823.781	18.12
823.955	18.61
824.129	18.5
824.303	18.67
824.478	18.19
824.652	18.32
824.826	18.7
825	19.3
825.174	19.41
825.348	19.49
825.523	19.31
825.697	19.88
825.871	19.44
826.045	19.49
826.219	19.46
826.393	19.72
826.567	19.38
826.741	18.8
826.915	18.29
827.089	18.89
827.263	19.27
827.437	19.11
827.611	18.8
827.784	18.94
827.958	19.51
828.132	19.3
828.306	19.9
828.48	20.33
828.654	20.72
828.827	20.62
829.001	20.55
829.175	21.15
829.349	22.19
829.522	23.07
829.696	22.84
829.87	23.49
830.044	23.94
830.217	23.51
830.391	24.37
830.565	25.26
830.738	26.22
830.912	26.9
831.085	26.54
831.259	25.72
831.432	25.27
831.606	25.57
831.779	24.67
831.953	24.37
832.126	23.77
832.3	23.85
832.473	22.9
832.647	22.6
832.82	21.03
832.994	20.24
833.167	19.71
833.34	19.32
833.514	19.58
833.687	19.84
833.86	19.67
834.034	20.45
834.207	20.38
834.38	20.82
834.553	21.32
834.727	22.05
834.9	22.94
835.073	23.72
835.246	23.74
835.419	23.88
835.593	24.26
835.766	25.04
835.939	25.03
836.112	24.48
836.285	24.49
836.458	24.01
836.631	24.41
836.804	25
836.977	24.68
837.15	25.33
837.323	25.15
837.496	25.8
837.669	25.72
837.842	26.42
838.015	29.85
838.188	29.88
838.361	31.23
838.533	31.24
838.706	30.88
838.879	32.76
839.052	31.42
839.225	32.39
839.398	31.9
839.57	30.9
839.743	29.84
839.916	27.92
840.088	28.27
840.261	27.16
840.434	28.06
840.607	27.02
840.779	28
840.952	29.08
841.124	29.03
841.297	29.81
841.47	31.32
841.642	32.88
841.815	32.12
841.987	32.69
842.16	34.99
842.332	35.87
842.505	36.83
842.677	35.53
842.85	35.93
843.022	34.73
843.194	35.26
843.367	35.07
843.539	34.89
843.712	35.86
843.884	36.29
844.056	37.1
844.229	36.07
844.401	34.84
844.573	34.62
844.745	37.55
844.918	38.03
845.09	37.07
845.262	38.2
845.434	36.74
845.606	37.8
845.779	33.98
845.951	32.09
846.123	33.45
846.295	36.74
846.467	37.61
846.639	38.92
846.811	40.55
846.983	38.98
847.155	40.5
847.327	42.78
847.499	42.78
847.671	47.37
847.843	49.35
848.015	46.86
848.187	47.02
848.359	48.86
848.531	47.04
848.703	47.85
848.875	49.19
849.047	46.04
849.218	46.13
849.39	46.34
849.562	44.13
849.734	42.46
849.905	44.53
850.077	42.68
850.249	41.91
850.421	40.25
850.592	41.64
850.764	41.45
850.936	42.91
851.107	41.97
851.279	41.91
851.451	41.84
851.622	43.08
851.794	41.67
851.965	39.26
852.137	37.41
852.308	38.2
852.48	38.31
852.651	36.21
852.823	37.31
852.994	37.94
853.166	36.79
853.337	36.37
853.509	35.3
853.68	35.91
853.851	38.07
854.023	38.99
854.194	38.23
854.365	37.04
854.537	39.05
854.708	38.22
854.879	39.43
855.05	40.85
855.222	45.17
855.393	46.12
855.564	44.69
855.735	44.63
855.906	46.85
856.078	47.13
856.249	45.27
856.42	47.81
856.591	46.43
856.762	47.14
856.933	49.02
857.104	50.14
857.275	47.04
857.446	48.82
857.617	48.8
857.788	42.65
857.959	43.98
858.13	42.69
858.301	37.35
858.472	40.09
858.643	36.76
858.814	38.39
858.985	35.68
859.155	36.29
859.326	36.72
859.497	33.18
859.668	36.75
859.839	35.85
860.009	38.3
860.18	40.59
860.351	38.25
860.522	37.75
860.692	35.54
860.863	39.19
861.034	40.09
861.204	39.24
861.375	42.3
861.546	42.31
861.716	43.29
861.887	44.89
862.057	44.7
862.228	43.64
862.398	46.41
862.569	47.55
862.739	45.74
862.91	42.85
863.08	42.72
863.251	43.35
863.421	42.94
863.592	42.12
863.762	40.01
863.932	43.37
864.103	46.55
864.273	44.51
864.443	40.9
864.614	42.08
864.784	47.92
864.954	49.74
865.125	49.7
865.295	52.92
865.465	52.59
865.635	53.35
865.805	48.86
865.976	44.41
866.146	48.81
866.316	49.44
866.486	46.14
866.656	45.42
866.826	42.77
866.996	38.54
867.166	36.34
867.336	33.97
867.506	31.99
867.676	31.33
867.846	32.61
868.016	29.18
868.186	27.11
868.356	27.3
868.526	25.72
868.696	25.21
868.866	27.86
869.036	24.43
869.206	25.26
869.376	28.53
869.545	30.37
869.715	33.22
869.885	34.78
870.055	37.28
870.224	37
870.394	37.93
870.564	39.36
870.734	40.75
870.903	45.56
871.073	45.56
871.243	45.66
871.412	49.21
871.582	48.07
871.751	48.18
871.921	50.22
872.091	50.9
872.26	47.59
872.43	47.1
872.599	47.2
872.769	43.13
872.938	44.77
873.108	43.49
873.277	43.33
873.446	44.18
873.616	42.21
873.785	41.47
873.955	40.08
874.124	40.91
874.293	41.27
874.463	41.96
874.632	43.17
874.801	42.79
874.971	42.34
875.14	40.11
875.309	41.97
875.478	43.71
875.647	40.33
875.817	40.16
875.986	40.64
876.155	44.03
876.324	44.87
876.493	46.05
876.662	48.37
876.831	48.37
877	46.8
877.17	42.09
877.339	41.18
877.508	41.1
877.677	43.08
877.846	43.11
878.015	43.39
878.184	37.57
878.352	38.11
878.521	33.65
878.69	37.83
878.859	40.7
879.028	42.67
879.197	42.53
879.366	43.02
879.534	39.03
879.703	35.62
879.872	32.01
880.041	33.86
880.21	30.1
880.378	28.07
880.547	23.9
880.716	21.5
880.884	21.83
881.053	20.64
881.222	20.13
881.39	19.65
881.559	20.54
881.727	19.8
881.896	18.31
882.065	18.27
882.233	18.43
882.402	18.74
882.57	19.54
882.739	18.72
882.907	18.69
883.076	18.72
883.244	19.38
883.412	19.09
883.581	20
883.749	20.75
883.918	20.89
884.086	21.52
884.254	21.53
884.423	20.81
884.591	21.81
884.759	21.3
884.927	21.79
885.096	21.07
885.264	20.88
885.432	20.02
885.6	19.97
885.769	20.83
885.937	21.56
886.105	22.23
886.273	24.79
886.441	23.46
886.609	23.46
886.777	24.57
886.945	26.05
887.113	28.13
887.281	27.45
887.449	29.48
887.617	29.74
887.785	30.25
887.953	30.59
888.121	29.66
888.289	33.61
888.457	38.83
888.625	37.4
888.793	38.18
888.961	36.18
889.129	37.63
889.296	35.42
889.464	35.77
889.632	34.26
889.8	35.1
889.967	35.3
890.135	31.96
