Data from 2938728__Reflection_03.txt Node
Date: Sun Mar 15 19:18:22 EDT 2015
User: robert
Spectrometer: USB4E03002
Autoset integration time: false
Trigger mode: 4
Integration Time (sec): 1.000000E-1
Scans to average: 10
Electric dark correction enabled: false
Nonlinearity correction enabled: false
Boxcar width: 5
Stray light correction enabled: false
XAxis mode: Wavelengths
Stop averaging: false
Number of Pixels in Spectrum: 3648
>>>>>Begin Spectral Data<<<<<
177.575	71.85
177.794	69.34
178.014	68.1
178.233	90.37
178.452	82.17
178.672	112.2
178.891	68.67
179.11	128.67
179.33	309.37
179.549	140.35
179.768	93.75
179.987	104.46
180.207	86.71
180.426	-87.1
180.645	50.68
180.864	53.66
181.084	8.07
181.303	91.03
181.522	92
181.741	145
181.96	290.24
182.179	525.81
182.398	-221.09
182.618	-140.28
182.837	-42.41
183.056	-43.63
183.275	-47.99
183.494	-20.29
183.713	-0.15
183.932	-5.79
184.151	30.76
184.37	24.39
184.589	12.84
184.808	0.57
185.027	-25.84
185.246	-68.79
185.465	-193.53
185.684	-197.3
185.903	444.94
186.122	151.5
186.341	116.49
186.56	124.17
186.779	104.7
186.998	144.34
187.216	207.93
187.435	175.4
187.654	252.08
187.873	314.95
188.092	1036.17
188.311	-12033.33
188.53	-365.96
188.748	-199.47
188.967	-151.17
189.186	-141.46
189.405	-216.97
189.623	-271.35
189.842	-189.71
190.061	-190.22
190.28	-100
190.498	-50.77
190.717	-62
190.936	-50.38
191.154	-72.35
191.373	-70.13
191.592	-39.88
191.81	-31.26
192.029	-23.63
192.248	-39.58
192.466	-42.94
192.685	-65.9
192.904	-91.94
193.122	-98.74
193.341	-83.63
193.559	-90.77
193.778	-124.69
193.996	-184.91
194.215	-138.55
194.433	-110
194.652	-103.08
194.87	-255.92
195.089	-143.23
195.307	-85.66
195.526	-57.42
195.744	-42.37
195.963	13.04
196.181	-6.7
196.399	29.67
196.618	22.84
196.836	-49.43
197.055	-59.9
197.273	-0.94
197.491	-96.67
197.71	2514.29
197.928	3100
198.146	-1359.09
198.365	-562.65
198.583	-79.52
198.801	-155.23
199.019	-197.98
199.238	-79.58
199.456	-122.81
199.674	-90.58
199.892	-14.6
200.111	-24.43
200.329	-13.13
200.547	-73.83
200.765	-7.18
200.983	-23.25
201.202	-45.86
201.42	-62.33
201.638	-50.89
201.856	-28.78
202.074	-141.2
202.292	-205.44
202.51	-258.55
202.728	-266.92
202.946	-64.06
203.165	-401.45
203.383	748.48
203.601	238.81
203.819	103.85
204.037	48.25
204.255	-46.67
204.473	-295.24
204.691	770.59
204.909	-164.29
205.127	-147
205.345	-39.01
205.562	-28.46
205.78	-9.63
205.998	-26.28
206.216	-59.64
206.434	-50.1
206.652	-68.55
206.87	-71.14
207.088	-59.57
207.306	-54.05
207.523	-48.32
207.741	-42.61
207.959	-43.81
208.177	-131.64
208.395	-141.94
208.612	-66.14
208.83	-51.6
209.048	-37.35
209.266	-0.65
209.483	9.85
209.701	18.09
209.919	29.44
210.136	12.73
210.354	14.97
210.572	21.52
210.79	9.41
211.007	2.85
211.225	-9.01
211.442	-6.36
211.66	-31.53
211.878	-48.53
212.095	-68.46
212.313	-66.84
212.53	-109.22
212.748	-81.18
212.966	-35.62
213.183	3.61
213.401	-10.26
213.618	-2.79
213.836	-9.65
214.053	-24.6
214.271	-17.95
214.488	-24.2
214.705	-22.91
214.923	-17.75
215.14	-30.74
215.358	-34.08
215.575	-42.51
215.793	-21.89
216.01	-25.34
216.227	-19.1
216.445	-2.54
216.662	0.6
216.879	11.41
217.097	8.89
217.314	5.84
217.531	14.56
217.749	-4.34
217.966	-2.13
218.183	-16.45
218.4	-31.96
218.618	-15.25
218.835	-12.97
219.052	-31.8
219.269	-48.17
219.487	-35.52
219.704	-37.46
219.921	-39.38
220.138	-17.27
220.355	-35.18
220.572	-36.35
220.79	-24.02
221.007	-47.33
221.224	-52.07
221.441	-30.74
221.658	-24.02
221.875	-28.37
222.092	-28.85
222.309	-26.71
222.526	-19.72
222.743	-15.17
222.96	-19.18
223.177	-25.62
223.394	-16.43
223.611	-13.81
223.828	-11.08
224.045	-15.4
224.262	-16.35
224.479	-6.44
224.696	-13.64
224.913	-20.58
225.13	-11.15
225.347	-6.54
225.564	-3.75
225.781	-10.29
225.997	-8.35
226.214	-10.08
226.431	-7.3
226.648	-8.54
226.865	-9.9
227.082	-7.11
227.298	-4.79
227.515	-6.04
227.732	-6.16
227.949	-5.1
228.165	-4.3
228.382	-3.9
228.599	-3.89
228.816	-3.79
229.032	-2.92
229.249	-2.16
229.466	-2.15
229.682	-2.67
229.899	-2.04
230.116	-1.32
230.332	-2.38
230.549	-2.18
230.765	-2.5
230.982	-2.15
231.199	-2.19
231.415	-1.9
231.632	-3.32
231.848	-3.6
232.065	-3.09
232.281	-4.87
232.498	-5.08
232.714	-2.13
232.931	-1.28
233.147	-3.79
233.364	-5.3
233.58	-5.19
233.797	-4.96
234.013	-6.29
234.23	-4.09
234.446	-2.73
234.662	-2.66
234.879	-3.67
235.095	-4.61
235.312	-5.64
235.528	-3.85
235.744	-2.16
235.961	-3.42
236.177	-5.28
236.393	-4.25
236.61	-4.73
236.826	-6.83
237.042	-7.85
237.258	-7.84
237.475	-6.77
237.691	-6.04
237.907	-6.75
238.123	-6.51
238.339	-5.36
238.556	-4.22
238.772	-3.73
238.988	-5.9
239.204	-6.21
239.42	-4.69
239.636	-4.44
239.853	-6.11
240.069	-4.62
240.285	-4.57
240.501	-4.96
240.717	-4.17
240.933	-4.29
241.149	-3.34
241.365	-1.76
241.581	-0.9
241.797	-0.91
242.013	-1.22
242.229	-1.08
242.445	-1.54
242.661	-1.46
242.877	-1.34
243.093	-1.42
243.309	-1.6
243.525	-1.97
243.741	-2.66
243.957	-3.14
244.173	-3.41
244.388	-3.5
244.604	-3.52
244.82	-3.54
245.036	-3.36
245.252	-3.43
245.468	-3.61
245.683	-3.21
245.899	-3.01
246.115	-2.1
246.331	-2.02
246.547	-1.9
246.762	-1
246.978	-0.43
247.194	-0.15
247.409	0.15
247.625	0.13
247.841	0.34
248.057	0.51
248.272	0.56
248.488	-0.12
248.703	0.14
248.919	0.91
249.135	0.35
249.35	0.05
249.566	-0.33
249.782	-0.68
249.997	-0.35
250.213	-0.75
250.428	-0.55
250.644	-0.22
250.859	0.42
251.075	-0.11
251.29	-1.04
251.506	-1.41
251.721	-1.83
251.937	-2.09
252.152	-2.22
252.368	-3.43
252.583	-3.1
252.798	-3.44
253.014	-4.15
253.229	-4.62
253.445	-5
253.66	-5.35
253.875	-5.32
254.091	-5.82
254.306	-6.02
254.521	-6.26
254.737	-5.34
254.952	-5.94
255.167	-5.39
255.383	-5.23
255.598	-3.9
255.813	-2.64
256.028	-2.43
256.244	-1.47
256.459	-1.69
256.674	-1.45
256.889	-2.26
257.104	-1.72
257.32	-1.2
257.535	-2.08
257.75	-1.55
257.965	-2.07
258.18	-2.01
258.395	-1.93
258.61	-2.01
258.826	-1.42
259.041	-1.18
259.256	-0.43
259.471	-0.51
259.686	-0.72
259.901	-0.61
260.116	-0.49
260.331	-0.4
260.546	-0.5
260.761	-0.41
260.976	-0.63
261.191	-0.78
261.406	-0.95
261.621	-1.51
261.836	-1.38
262.05	-1.37
262.265	-1.27
262.48	-1.44
262.695	-1.01
262.91	-0.61
263.125	-0.39
263.34	-0.27
263.555	-0.31
263.769	0.17
263.984	0.39
264.199	0.19
264.414	0.28
264.629	0.65
264.843	-0.4
265.058	-0.68
265.273	-1.56
265.488	-2.48
265.702	-2.67
265.917	-2.21
266.132	-2.6
266.346	-2.63
266.561	-2.53
266.776	-2.28
266.99	-2.78
267.205	-1.9
267.42	-2.33
267.634	-2.26
267.849	-2.32
268.063	-2.24
268.278	-3.04
268.492	-3.28
268.707	-3.21
268.922	-2.92
269.136	-3.34
269.351	-3.33
269.565	-3.64
269.78	-3.58
269.994	-3.13
270.209	-3.12
270.423	-3.35
270.637	-3.1
270.852	-2.83
271.066	-3
271.281	-3.43
271.495	-3.09
271.709	-2.64
271.924	-2.52
272.138	-2.43
272.353	-2.66
272.567	-2.23
272.781	-1.88
272.996	-1.33
273.21	-0.85
273.424	-0.41
273.638	0.19
273.853	-0.06
274.067	0.23
274.281	0.09
274.495	0.12
274.71	0.29
274.924	0.17
275.138	0.12
275.352	-0.07
275.566	-0.58
275.781	-0.33
275.995	-0.53
276.209	-0.05
276.423	-0.34
276.637	0.06
276.851	-0.08
277.065	0.19
277.279	0.37
277.493	0.7
277.707	0.34
277.921	0.45
278.135	-0.2
278.349	-0.85
278.563	-1.24
278.777	-0.97
278.991	-1.06
279.205	-1.25
279.419	-1.9
279.633	-2.16
279.847	-2.13
280.061	-2.15
280.275	-2.79
280.489	-2.33
280.703	-1.97
280.917	-1.91
281.131	-2.27
281.344	-2.51
281.558	-2.1
281.772	-1.7
281.986	-1.72
282.2	-1.92
282.414	-1.67
282.627	-1.45
282.841	-1.38
283.055	-1.72
283.269	-1.61
283.482	-1.41
283.696	-1.55
283.91	-1.36
284.123	-1.17
284.337	-1.16
284.551	-1.26
284.764	-1.25
284.978	-0.84
285.192	-1.21
285.405	-0.65
285.619	-0.76
285.833	-0.75
286.046	-0.79
286.26	-1.17
286.473	-1.41
286.687	-1.25
286.9	-0.83
287.114	-0.9
287.327	-1.13
287.541	-0.7
287.754	-0.88
287.968	-0.93
288.181	-1.38
288.395	-0.88
288.608	-0.59
288.822	-0.47
289.035	-0.53
289.248	-0.78
289.462	-0.46
289.675	-0.44
289.889	-0.85
290.102	-0.8
290.315	-0.55
290.529	-0.2
290.742	-0.24
290.955	-0.39
291.169	-0.4
291.382	-0.5
291.595	-0.54
291.808	-0.7
292.022	-0.8
292.235	-0.62
292.448	-0.85
292.661	-0.89
292.875	-1.16
293.088	-1.22
293.301	-0.77
293.514	-0.62
293.727	-0.84
293.94	-0.94
294.153	-1.3
294.367	-0.87
294.58	-0.81
294.793	-0.77
295.006	-0.79
295.219	-0.66
295.432	-0.45
295.645	-0.67
295.858	-0.66
296.071	-0.28
296.284	-0.18
296.497	0.11
296.71	-0.23
296.923	-0.3
297.136	-0.32
297.349	-0.35
297.562	-0.35
297.775	-0.67
297.988	-0.75
298.201	-0.89
298.414	-0.99
298.626	-0.8
298.839	-1.07
299.052	-1.11
299.265	-1.3
299.478	-1.19
299.691	-1.08
299.903	-1.1
300.116	-1.11
300.329	-0.99
300.542	-0.82
300.755	-1.28
300.967	-1.31
301.18	-1.04
301.393	-0.88
301.605	-0.61
301.818	-0.8
302.031	-0.86
302.243	-0.84
302.456	-0.67
302.669	-0.61
302.881	-0.6
303.094	-0.07
303.307	-0.49
303.519	-0.79
303.732	-0.48
303.944	-0.13
304.157	0.15
304.37	0.46
304.582	0.57
304.795	0.2
305.007	0.26
305.22	0
305.432	-0.19
305.645	0.02
305.857	0.55
306.069	-0.01
306.282	-0.41
306.494	-0.45
306.707	-0.81
306.919	-0.97
307.132	-0.72
307.344	-1.02
307.556	-0.93
307.769	-0.81
307.981	-0.43
308.193	-0.78
308.406	-0.78
308.618	-0.48
308.83	-0.43
309.043	-0.43
309.255	0.03
309.467	-0.07
309.679	-0.09
309.892	-0.08
310.104	0.18
310.316	-0.07
310.528	0.34
310.74	0.51
310.953	0.51
311.165	0.63
311.377	0.83
311.589	0.39
311.801	0.59
312.013	0.61
312.225	1.06
312.437	1.11
312.649	1.04
312.862	0.69
313.074	0.53
313.286	0.56
313.498	0.24
313.71	0.13
313.922	0.37
314.134	0.69
314.346	1.09
314.558	0.61
314.77	0.25
314.982	0.57
315.193	0.77
315.405	0.83
315.617	0.74
315.829	0.5
316.041	0.07
316.253	-0.18
316.465	-0.23
316.677	-0.7
316.888	-0.47
317.1	-0.12
317.312	-0.3
317.524	-1.18
317.736	-1.13
317.947	-1.56
318.159	-1.32
318.371	-0.71
318.583	-0.44
318.794	-1.12
319.006	-1.22
319.218	-1.06
319.43	-1.23
319.641	-1.43
319.853	-0.7
320.064	-0.13
320.276	0.08
320.488	0.07
320.699	0.03
320.911	-0.18
321.123	0.53
321.334	0.81
321.546	0.93
321.757	1.11
321.969	1.52
322.18	1.72
322.392	1.38
322.603	1.4
322.815	1.46
323.026	1.55
323.238	1.91
323.449	1.8
323.661	1.57
323.872	1.63
324.083	1.52
324.295	1.37
324.506	1.15
324.718	1.28
324.929	1.46
325.14	1.79
325.352	1.91
325.563	2.1
325.774	2.38
325.986	2.72
326.197	2.69
326.408	2.99
326.62	3.62
326.831	4.09
327.042	4.25
327.253	4.7
327.464	4.82
327.676	4.61
327.887	4.58
328.098	4.72
328.309	4.35
328.52	4.29
328.732	4.16
328.943	3.67
329.154	3.27
329.365	3.52
329.576	3.1
329.787	2.83
329.998	3.36
330.209	3.31
330.42	3.28
330.631	4.01
330.842	3.69
331.053	3.29
331.264	3.59
331.475	4.15
331.686	4.09
331.897	4.37
332.108	4.69
332.319	4.59
332.53	4.85
332.741	4.39
332.952	4.72
333.163	4.89
333.374	5.01
333.585	5.15
333.795	4.85
334.006	4.96
334.217	5.1
334.428	5.03
334.639	5.38
334.849	5.32
335.06	5.85
335.271	5.62
335.482	6.32
335.692	6.8
335.903	6.72
336.114	6.8
336.325	6.49
336.535	6.05
336.746	6.04
336.957	5.5
337.167	5.56
337.378	5.49
337.589	5.88
337.799	5.1
338.01	5.1
338.22	5.27
338.431	5.48
338.642	5.66
338.852	5.97
339.063	5.84
339.273	5.62
339.484	5.76
339.694	5.72
339.905	5.29
340.115	5.1
340.326	5.07
340.536	4.87
340.746	4.98
340.957	4.76
341.167	4.57
341.378	5.03
341.588	5.32
341.799	5.33
342.009	5.18
342.219	5.17
342.43	5.77
342.64	5.56
342.85	5.28
343.061	5.03
343.271	5.12
343.481	5.29
343.691	5.1
343.902	5.26
344.112	4.78
344.322	4.97
344.532	5.05
344.743	4.94
344.953	5.07
345.163	5.01
345.373	5.19
345.583	5
345.793	5.11
346.004	5.08
346.214	5.17
346.424	5.4
346.634	5.31
346.844	4.86
347.054	4.41
347.264	4.33
347.474	4.57
347.684	4.03
347.894	4.42
348.104	4.29
348.314	3.99
348.524	3.62
348.734	3.7
348.944	3.75
349.154	4.43
349.364	4.85
349.574	4.95
349.784	5.1
349.994	5.34
350.204	5.24
350.413	5.39
350.623	5.74
350.833	5.75
351.043	5.81
351.253	6
351.463	5.88
351.672	5.81
351.882	6.12
352.092	5.97
352.302	6.07
352.511	6.15
352.721	6.01
352.931	5.98
353.141	6.14
353.35	5.97
353.56	5.85
353.77	5.41
353.979	5.59
354.189	5.51
354.399	5.7
354.608	5.81
354.818	6.09
355.027	6.15
355.237	6.08
355.447	6.11
355.656	5.97
355.866	5.92
356.075	6.25
356.285	6.19
356.494	5.92
356.704	5.78
356.913	5.88
357.123	5.65
357.332	5.56
357.542	5.57
357.751	5.72
357.96	5.93
358.17	5.88
358.379	5.92
358.589	5.88
358.798	5.88
359.007	5.92
359.217	5.53
359.426	5.53
359.635	5.68
359.845	5.68
360.054	5.46
360.263	5.46
360.472	5.74
360.682	5.82
360.891	5.96
361.1	6.01
361.309	6.2
361.519	6.32
361.728	6.3
361.937	6.3
362.146	6.39
362.355	6.54
362.564	6.39
362.774	6.12
362.983	5.95
363.192	5.78
363.401	5.74
363.61	5.59
363.819	5.55
364.028	5.8
364.237	5.84
364.446	5.91
364.655	5.86
364.864	6.18
365.073	6.11
365.282	5.96
365.491	6.28
365.7	6.48
365.909	6.34
366.118	6.35
366.327	6.18
366.536	5.77
366.745	5.59
366.954	5.54
367.162	5.42
367.371	5.33
367.58	5.54
367.789	5.32
367.998	4.96
368.207	5.14
368.415	5.15
368.624	5.2
368.833	5.39
369.042	5.45
369.25	5.29
369.459	4.94
369.668	5.3
369.877	5.09
370.085	5.08
370.294	5.28
370.503	5.28
370.711	5.19
370.92	5.01
371.129	5.23
371.337	5
371.546	5.13
371.754	5.69
371.963	5.81
372.171	6.07
372.38	5.96
372.589	6.05
372.797	5.96
373.006	5.99
373.214	5.96
373.423	5.84
373.631	6.03
373.84	5.89
374.048	5.35
374.256	4.97
374.465	4.76
374.673	4.7
374.882	4.45
375.09	4.63
375.298	4.68
375.507	4.79
375.715	5.08
375.923	5.02
376.132	5.55
376.34	5.59
376.548	5.83
376.757	5.96
376.965	5.96
377.173	6.06
377.381	5.92
377.59	5.72
377.798	5.68
378.006	5.21
378.214	5.33
378.423	4.99
378.631	5.1
378.839	5.03
379.047	4.99
379.255	5.19
379.463	5.1
379.671	4.98
379.879	5.14
380.088	5.08
380.296	5.31
380.504	5.36
380.712	5.23
380.92	5.24
381.128	5.21
381.336	5.12
381.544	5.14
381.752	5.18
381.96	5.25
382.168	5.32
382.376	5.43
382.584	5.57
382.791	5.62
382.999	5.58
383.207	5.45
383.415	5.54
383.623	5.85
383.831	5.77
384.039	5.99
384.247	6.03
384.454	6.13
384.662	6.16
384.87	5.9
385.078	5.67
385.285	5.7
385.493	5.76
385.701	5.72
385.909	5.52
386.116	5.42
386.324	5.39
386.532	5.29
386.739	5.16
386.947	5.04
387.155	4.85
387.362	4.89
387.57	4.77
387.778	4.84
387.985	4.86
388.193	4.75
388.4	4.93
388.608	4.7
388.816	4.72
389.023	5.03
389.231	4.88
389.438	5.01
389.646	5.19
389.853	5.38
390.061	5.26
390.268	5.29
390.475	5.43
390.683	5.35
390.89	5.46
391.098	5.73
391.305	5.44
391.512	5.75
391.72	5.78
391.927	5.55
392.135	5.44
392.342	5.71
392.549	5.68
392.756	5.75
392.964	5.72
393.171	5.68
393.378	5.52
393.586	5.51
393.793	5.51
394	5.72
394.207	5.9
394.414	5.98
394.622	5.9
394.829	5.89
395.036	5.68
395.243	5.56
395.45	5.58
395.657	5.51
395.864	5.64
396.072	5.63
396.279	5.48
396.486	5.51
396.693	5.54
396.9	5.47
397.107	5.34
397.314	5.6
397.521	5.71
397.728	5.84
397.935	5.84
398.142	5.86
398.349	5.58
398.556	5.42
398.763	5.1
398.97	5.26
399.177	5.39
399.383	5.44
399.59	5.39
399.797	5.51
400.004	5.49
400.211	5.42
400.418	5.54
400.625	5.75
400.831	5.96
401.038	6.22
401.245	6.09
401.452	6
401.658	6.03
401.865	5.98
402.072	5.84
402.279	5.92
402.485	6.13
402.692	5.97
402.899	5.99
403.105	6.09
403.312	6.19
403.519	6.27
403.725	6.26
403.932	6.42
404.138	6.43
404.345	6.49
404.552	6.38
404.758	6.2
404.965	6.07
405.171	5.99
405.378	5.85
405.584	5.65
405.791	5.57
405.997	5.57
406.204	5.43
406.41	5.47
406.617	5.46
406.823	5.28
407.029	5.29
407.236	5.37
407.442	5.37
407.649	5.3
407.855	5.24
408.061	5.14
408.268	5.07
408.474	5.1
408.68	5.13
408.887	5.14
409.093	5.15
409.299	5.24
409.505	5.3
409.712	5.36
409.918	5.41
410.124	5.67
410.33	5.84
410.537	5.72
410.743	5.7
410.949	5.62
411.155	5.67
411.361	5.89
411.567	5.82
411.773	5.85
411.98	5.99
412.186	6.05
412.392	6.04
412.598	5.89
412.804	6.14
413.01	6.3
413.216	6.28
413.422	6.25
413.628	6.38
413.834	6.58
414.04	6.53
414.246	6.4
414.452	6.35
414.658	6.3
414.864	6.34
415.07	6.26
415.275	6.23
415.481	6.23
415.687	6.18
415.893	6.13
416.099	6.11
416.305	6.05
416.511	6.05
416.716	6.26
416.922	6.27
417.128	6.34
417.334	6.42
417.539	6.34
417.745	6.39
417.951	6.52
418.157	6.52
418.362	6.48
418.568	6.68
418.774	6.67
418.979	6.67
419.185	6.61
419.391	6.65
419.596	6.68
419.802	6.66
420.008	6.74
420.213	6.72
420.419	6.79
420.624	6.82
420.83	6.88
421.035	6.98
421.241	6.88
421.446	6.95
421.652	6.94
421.857	6.92
422.063	6.99
422.268	6.92
422.474	6.9
422.679	6.85
422.885	6.88
423.09	6.88
423.295	6.88
423.501	6.98
423.706	7.07
423.911	7.05
424.117	7.07
424.322	7.14
424.527	7.2
424.733	7.32
424.938	7.35
425.143	7.35
425.349	7.27
425.554	7.21
425.759	7.22
425.964	7.09
426.169	7.15
426.375	7.14
426.58	7.12
426.785	7.06
426.99	6.86
427.195	6.94
427.4	6.89
427.605	6.87
427.811	6.9
428.016	6.82
428.221	6.83
428.426	6.86
428.631	6.96
428.836	6.9
429.041	6.85
429.246	6.99
429.451	7.04
429.656	6.97
429.861	7.03
430.066	7.07
430.271	7.18
430.476	7.25
430.681	7.3
430.886	7.2
431.09	7.21
431.295	7.31
431.5	7.28
431.705	7.24
431.91	7.25
432.115	7.24
432.32	7.2
432.524	7.18
432.729	7.23
432.934	7.26
433.139	7.35
433.343	7.62
433.548	7.82
433.753	7.95
433.958	8.23
434.162	8.54
434.367	8.77
434.572	9.03
434.776	9.36
434.981	9.54
435.186	9.65
435.39	9.84
435.595	9.85
435.799	9.91
436.004	9.86
436.209	9.58
436.413	9.49
436.618	9.34
436.822	9.12
437.027	8.86
437.231	8.65
437.436	8.49
437.64	8.31
437.845	8.12
438.049	7.97
438.253	7.97
438.458	7.94
438.662	7.91
438.867	7.96
439.071	7.89
439.275	7.89
439.48	7.92
439.684	8.06
439.888	8.07
440.093	8.08
440.297	8.02
440.501	8.03
440.706	8.06
440.91	7.96
441.114	7.91
441.318	7.95
441.523	7.89
441.727	7.91
441.931	7.82
442.135	7.82
442.339	7.87
442.543	7.93
442.748	7.85
442.952	7.84
443.156	7.89
443.36	7.99
443.564	8.12
443.768	8.19
443.972	8.31
444.176	8.29
444.38	8.33
444.584	8.4
444.788	8.37
444.992	8.4
445.196	8.33
445.4	8.43
445.604	8.45
445.808	8.45
446.012	8.5
446.216	8.41
446.42	8.46
446.624	8.46
446.828	8.38
447.032	8.39
447.235	8.41
447.439	8.52
447.643	8.41
447.847	8.37
448.051	8.37
448.254	8.29
448.458	8.25
448.662	8.16
448.866	8.02
449.069	8.01
449.273	8.02
449.477	8.04
449.681	7.9
449.884	7.95
450.088	7.88
450.292	7.7
450.495	7.74
450.699	7.83
450.902	7.82
451.106	7.87
451.31	7.83
451.513	7.79
451.717	7.71
451.92	7.78
452.124	7.75
452.327	7.83
452.531	7.97
452.734	7.89
452.938	7.98
453.141	8.03
453.345	7.97
453.548	8.01
453.752	8.11
453.955	8.07
454.158	8.07
454.362	7.98
454.565	7.9
454.769	7.93
454.972	8.1
455.175	7.98
455.379	7.99
455.582	8.05
455.785	8.06
455.988	7.97
456.192	8.15
456.395	8.1
456.598	8.19
456.801	8.14
457.005	8.1
457.208	8
457.411	8.08
457.614	8.29
457.817	8.36
458.021	8.37
458.224	8.46
458.427	8.36
458.63	8.45
458.833	8.55
459.036	8.59
459.239	8.56
459.442	8.56
459.645	8.52
459.848	8.41
460.051	8.4
460.254	8.38
460.457	8.38
460.66	8.38
460.863	8.39
461.066	8.37
461.269	8.44
461.472	8.45
461.675	8.41
461.878	8.39
462.081	8.39
462.284	8.33
462.486	8.24
462.689	8.13
462.892	8.17
463.095	8.16
463.298	8.13
463.5	7.96
463.703	8.02
463.906	7.99
464.109	8.1
464.311	7.92
464.514	8.04
464.717	8.27
464.92	8.38
465.122	8.41
465.325	8.37
465.528	8.38
465.73	8.47
465.933	8.36
466.135	8.32
466.338	8.25
466.541	8.39
466.743	8.27
466.946	8.19
467.148	8.07
467.351	8.06
467.553	8
467.756	7.96
467.958	7.99
468.161	8.14
468.363	8.23
468.566	8.29
468.768	8.29
468.971	8.44
469.173	8.43
469.375	8.5
469.578	8.51
469.78	8.51
469.983	8.54
470.185	8.56
470.387	8.37
470.59	8.39
470.792	8.27
470.994	8.26
471.196	8.18
471.399	8.16
471.601	8.16
471.803	8.14
472.005	8.2
472.208	8.19
472.41	8.15
472.612	8.17
472.814	8.16
473.016	8.14
473.218	8.11
473.421	8.16
473.623	8.33
473.825	8.33
474.027	8.38
474.229	8.33
474.431	8.33
474.633	8.33
474.835	8.32
475.037	8.3
475.239	8.32
475.441	8.44
475.643	8.38
475.845	8.36
476.047	8.32
476.249	8.29
476.451	8.32
476.653	8.45
476.855	8.43
477.057	8.53
477.258	8.56
477.46	8.56
477.662	8.48
477.864	8.48
478.066	8.32
478.268	8.41
478.469	8.49
478.671	8.57
478.873	8.5
479.075	8.53
479.276	8.63
479.478	8.73
479.68	8.8
479.882	8.9
480.083	8.99
480.285	9.11
480.487	9.07
480.688	9.02
480.89	8.97
481.091	9.03
481.293	9.04
481.495	9.03
481.696	8.99
481.898	9
482.099	8.97
482.301	8.99
482.502	9.03
482.704	9.09
482.905	9.13
483.107	9.16
483.308	9.17
483.51	9.18
483.711	9.18
483.913	9.23
484.114	9.25
484.315	9.28
484.517	9.32
484.718	9.32
484.92	9.33
485.121	9.34
485.322	9.37
485.524	9.37
485.725	9.38
485.926	9.44
486.127	9.45
486.329	9.43
486.53	9.43
486.731	9.41
486.932	9.42
487.134	9.43
487.335	9.42
487.536	9.44
487.737	9.46
487.938	9.48
488.139	9.47
488.341	9.46
488.542	9.5
488.743	9.54
488.944	9.58
489.145	9.6
489.346	9.61
489.547	9.66
489.748	9.67
489.949	9.66
490.15	9.65
490.351	9.63
490.552	9.66
490.753	9.62
490.954	9.64
491.155	9.63
491.356	9.56
491.557	9.58
491.758	9.52
491.959	9.5
492.159	9.5
492.36	9.53
492.561	9.52
492.762	9.49
492.963	9.58
493.164	9.54
493.364	9.54
493.565	9.61
493.766	9.59
493.967	9.58
494.167	9.59
494.368	9.57
494.569	9.48
494.769	9.48
494.97	9.46
495.171	9.38
495.371	9.41
495.572	9.42
495.773	9.39
495.973	9.44
496.174	9.5
496.375	9.49
496.575	9.46
496.776	9.52
496.976	9.57
497.177	9.63
497.377	9.67
497.578	9.65
497.778	9.58
497.979	9.6
498.179	9.58
498.38	9.58
498.58	9.58
498.78	9.62
498.981	9.57
499.181	9.55
499.382	9.51
499.582	9.41
499.782	9.36
499.983	9.52
500.183	9.49
500.383	9.44
500.584	9.37
500.784	9.39
500.984	9.42
501.184	9.39
501.385	9.39
501.585	9.35
501.785	9.43
501.985	9.47
502.185	9.34
502.386	9.39
502.586	9.42
502.786	9.42
502.986	9.37
503.186	9.32
503.386	9.35
503.586	9.34
503.786	9.41
503.987	9.43
504.187	9.45
504.387	9.53
504.587	9.5
504.787	9.51
504.987	9.61
505.187	9.66
505.387	9.68
505.587	9.72
505.786	9.76
505.986	9.82
506.186	9.76
506.386	9.8
506.586	9.79
506.786	9.81
506.986	9.79
507.186	9.74
507.386	9.7
507.585	9.82
507.785	9.83
507.985	9.82
508.185	9.75
508.384	9.82
508.584	9.8
508.784	9.77
508.984	9.71
509.183	9.78
509.383	9.93
509.583	9.95
509.782	9.93
509.982	9.94
510.182	10.01
510.381	10.09
510.581	10.15
510.781	10.18
510.98	10.18
511.18	10.26
511.379	10.23
511.579	10.13
511.778	10.09
511.978	10.09
512.177	10.13
512.377	10.17
512.576	10.13
512.776	10.09
512.975	10.12
513.175	10.12
513.374	10.09
513.573	10.2
513.773	10.29
513.972	10.43
514.172	10.45
514.371	10.47
514.57	10.46
514.77	10.48
514.969	10.5
515.168	10.47
515.367	10.5
515.567	10.61
515.766	10.59
515.965	10.63
516.164	10.57
516.364	10.7
516.563	10.79
516.762	10.76
516.961	10.79
517.16	10.89
517.359	10.98
517.559	11.04
517.758	11.06
517.957	11.07
518.156	11.06
518.355	11.15
518.554	11.17
518.753	11.16
518.952	11.19
519.151	11.19
519.35	11.16
519.549	11.15
519.748	11.17
519.947	11.12
520.146	11.12
520.345	11.22
520.544	11.13
520.743	11.1
520.942	11.07
521.141	11.07
521.339	11.08
521.538	11.2
521.737	11.15
521.936	11.14
522.135	11.22
522.333	11.31
522.532	11.14
522.731	11.3
522.93	11.29
523.129	11.32
523.327	11.33
523.526	11.43
523.725	11.37
523.923	11.44
524.122	11.52
524.321	11.58
524.519	11.58
524.718	11.63
524.917	11.53
525.115	11.58
525.314	11.59
525.512	11.68
525.711	11.7
525.909	11.7
526.108	11.75
526.306	11.79
526.505	11.74
526.703	11.73
526.902	11.74
527.1	11.85
527.299	11.9
527.497	11.95
527.696	11.94
527.894	11.92
528.092	11.94
528.291	11.94
528.489	11.9
528.688	11.94
528.886	11.96
529.084	12.02
529.283	12.02
529.481	12
529.679	11.99
529.877	12.03
530.076	12.07
530.274	12.06
530.472	12.06
530.67	12.09
530.869	12.08
531.067	12.09
531.265	12.07
531.463	12.06
531.661	12.05
531.859	12.1
532.057	12.04
532.255	12.1
532.454	12.15
532.652	12.18
532.85	12.21
533.048	12.27
533.246	12.29
533.444	12.33
533.642	12.38
533.84	12.41
534.038	12.38
534.236	12.41
534.434	12.42
534.632	12.39
534.83	12.42
535.027	12.45
535.225	12.5
535.423	12.57
535.621	12.58
535.819	12.66
536.017	12.77
536.215	12.9
536.412	12.99
536.61	13.07
536.808	13.18
537.006	13.3
537.203	13.38
537.401	13.49
537.599	13.66
537.797	13.87
537.994	13.95
538.192	14.09
538.39	14.26
538.587	14.54
538.785	14.7
538.983	15.09
539.18	15.41
539.378	15.71
539.575	15.94
539.773	16.12
539.97	16.33
540.168	16.54
540.366	16.72
540.563	16.92
540.761	17.04
540.958	17.15
541.155	17.17
541.353	17.23
541.55	17.33
541.748	17.46
541.945	17.54
542.143	17.63
542.34	17.69
542.537	17.81
542.735	17.91
542.932	17.97
543.129	18.26
543.327	18.6
543.524	19.03
543.721	19.65
543.919	20.24
544.116	20.97
544.313	21.75
544.51	22.6
544.708	23.39
544.905	24.1
545.102	24.86
545.299	25.47
545.496	25.9
545.693	26.03
545.891	25.86
546.088	25.55
546.285	25.18
546.482	24.67
546.679	24.13
546.876	23.54
547.073	23.08
547.27	22.57
547.467	21.93
547.664	21.4
547.861	20.98
548.058	20.59
548.255	20.4
548.452	20.16
548.649	19.91
548.846	19.7
549.043	19.4
549.24	19.2
549.437	18.84
549.633	18.61
549.83	18.35
550.027	18.09
550.224	17.82
550.421	17.49
550.618	17.21
550.814	17.02
551.011	16.76
551.208	16.55
551.405	16.26
551.601	16.13
551.798	16
551.995	15.8
552.191	15.65
552.388	15.55
552.585	15.36
552.781	15.21
552.978	14.98
553.175	14.98
553.371	14.92
553.568	14.87
553.764	14.75
553.961	14.55
554.157	14.54
554.354	14.45
554.55	14.43
554.747	14.45
554.943	14.38
555.14	14.41
555.336	14.17
555.533	14.18
555.729	14.03
555.926	14.01
556.122	13.98
556.318	13.8
556.515	13.87
556.711	13.85
556.907	13.76
557.104	13.69
557.3	13.71
557.496	13.8
557.693	13.82
557.889	13.84
558.085	13.78
558.281	13.72
558.478	13.86
558.674	13.84
558.87	13.81
559.066	13.81
559.262	13.9
559.459	13.77
559.655	13.72
559.851	13.55
560.047	13.58
560.243	13.68
560.439	13.77
560.635	13.61
560.831	13.71
561.027	13.63
561.223	13.64
561.419	13.62
561.615	13.73
561.811	13.68
562.007	13.64
562.203	13.63
562.399	13.53
562.595	13.6
562.791	13.65
562.987	13.44
563.183	13.41
563.379	13.41
563.575	13.39
563.771	13.53
563.966	13.58
564.162	13.74
564.358	13.89
564.554	13.85
564.75	13.71
564.945	13.73
565.141	13.82
565.337	13.75
565.533	13.8
565.728	13.82
565.924	13.64
566.12	13.67
566.315	13.7
566.511	13.58
566.707	13.72
566.902	13.88
567.098	13.89
567.293	13.81
567.489	14.01
567.684	13.97
567.88	14.02
568.076	13.97
568.271	14.01
568.467	14
568.662	14.01
568.858	13.92
569.053	13.87
569.248	13.91
569.444	13.97
569.639	13.8
569.835	13.86
570.03	13.75
570.225	13.8
570.421	13.76
570.616	13.76
570.812	13.68
571.007	13.68
571.202	13.64
571.397	13.66
571.593	13.72
571.788	13.8
571.983	13.77
572.178	13.85
572.374	13.96
572.569	13.96
572.764	14.02
572.959	14.07
573.154	14.17
573.35	14.18
573.545	14.13
573.74	14.08
573.935	14.08
574.13	14.15
574.325	14.28
574.52	14.43
574.715	14.61
574.91	14.68
575.105	14.94
575.3	15.07
575.495	15.27
575.69	15.61
575.885	15.87
576.08	16.22
576.275	16.5
576.47	16.71
576.665	16.88
576.86	16.98
577.055	17.27
577.25	17.38
577.444	17.57
577.639	17.9
577.834	18.08
578.029	18.29
578.224	18.41
578.418	18.52
578.613	18.69
578.808	18.76
579.003	18.9
579.197	18.93
579.392	18.95
579.587	18.89
579.781	18.74
579.976	18.63
580.171	18.68
580.365	18.46
580.56	18.32
580.755	18.1
580.949	18.1
581.144	18.08
581.338	18.04
581.533	18.09
581.727	18.31
581.922	18.58
582.116	18.77
582.311	18.75
582.505	18.85
582.7	18.93
582.894	19.13
583.089	19.11
583.283	19.23
583.478	19.35
583.672	19.3
583.866	19.2
584.061	19.24
584.255	19.23
584.449	19.33
584.644	19.46
584.838	19.67
585.032	19.84
585.226	20.13
585.421	20.16
585.615	20.37
585.809	20.76
586.003	21.05
586.198	20.98
586.392	21.07
586.586	21.16
586.78	21.27
586.974	21.19
587.168	21.02
587.363	20.87
587.557	20.88
587.751	20.51
587.945	20.25
588.139	19.94
588.333	19.74
588.527	19.5
588.721	19.1
588.915	18.81
589.109	18.59
589.303	18.51
589.497	18.41
589.691	18.38
589.885	18.42
590.079	18.4
590.273	18.31
590.466	18.44
590.66	18.62
590.854	18.9
591.048	19.25
591.242	19.5
591.436	19.69
591.629	19.96
591.823	20.07
592.017	20.24
592.211	20.38
592.404	20.63
592.598	20.56
592.792	20.31
592.986	20.3
593.179	20.27
593.373	20.15
593.567	19.93
593.76	19.68
593.954	19.56
594.147	19.36
594.341	19.25
594.535	19.04
594.728	18.81
594.922	18.66
595.115	18.35
595.309	17.9
595.502	17.84
595.696	17.75
595.889	17.74
596.083	17.55
596.276	17.53
596.47	17.45
596.663	17.45
596.856	17.62
597.05	17.69
597.243	17.84
597.437	18.04
597.63	18.23
597.823	18.34
598.017	18.35
598.21	18.66
598.403	18.82
598.596	18.98
598.79	19.16
598.983	19.28
599.176	19.46
599.369	19.41
599.563	19.43
599.756	19.24
599.949	19.21
600.142	19.07
600.335	18.77
600.528	18.65
600.722	18.33
600.915	18.12
601.108	17.82
601.301	17.68
601.494	17.73
601.687	17.66
601.88	17.48
602.073	17.35
602.266	17.19
602.459	17.08
602.652	16.9
602.845	17.06
603.038	17
603.231	16.97
603.424	16.96
603.617	16.71
603.809	16.59
604.002	16.67
604.195	16.61
604.388	16.77
604.581	16.84
604.774	16.89
604.966	16.83
605.159	16.91
605.352	17.15
605.545	17.13
605.737	17.36
605.93	17.72
606.123	17.96
606.316	18.24
606.508	18.65
606.701	18.98
606.894	19.4
607.086	19.87
607.279	20.46
607.471	20.82
607.664	21.67
607.857	22.63
608.049	23.71
608.242	24.94
608.434	26.86
608.627	28.92
608.819	31.34
609.012	34.08
609.204	37.22
609.397	40.4
609.589	44.1
609.782	47.87
609.974	51.75
610.166	55.65
610.359	59.55
610.551	62.92
610.743	65.82
610.936	68.06
611.128	70.07
611.32	71.18
611.513	71.86
611.705	71.79
611.897	71.27
612.09	69.98
612.282	68.24
612.474	66.34
612.666	64.34
612.858	62.14
613.051	60.2
613.243	58.26
613.435	56.5
613.627	54.49
613.819	52.65
614.011	50.96
614.203	49.33
614.395	47.58
614.588	45.88
614.78	44.12
614.972	42.32
615.164	40.7
615.356	38.91
615.548	37.18
615.74	35.76
615.932	34.38
616.124	32.77
616.315	31.44
616.507	30.51
616.699	29.37
616.891	28.22
617.083	27.19
617.275	26.35
617.467	25.62
617.659	24.98
617.85	24.48
618.042	24
618.234	23.63
618.426	23.23
618.618	22.81
618.809	22.72
619.001	22.7
619.193	22.76
619.384	22.89
619.576	22.77
619.768	22.84
619.959	22.73
620.151	22.55
620.343	22.69
620.534	22.97
620.726	22.97
620.917	22.77
621.109	22.89
621.301	23.27
621.492	23.46
621.684	23.68
621.875	23.61
622.067	24.09
622.258	24.41
622.45	24.49
622.641	24.56
622.832	24.6
623.024	25.04
623.215	24.77
623.407	24.7
623.598	24.61
623.789	24.57
623.981	24.58
624.172	24.37
624.363	24.43
624.555	24.26
624.746	24.09
624.937	23.95
625.129	23.56
625.32	23.65
625.511	23.36
625.702	23.3
625.893	23.28
626.085	23.26
626.276	22.92
626.467	22.74
626.658	22.89
626.849	22.8
627.04	23.05
627.231	23.27
627.422	23.36
627.614	23.62
627.805	23.69
627.996	23.9
628.187	24.02
628.378	24.51
628.569	24.99
628.76	25.33
628.951	25.97
629.142	26.51
629.332	26.91
629.523	27.44
629.714	27.9
629.905	28.26
630.096	28.59
630.287	28.85
630.478	28.69
630.669	28.36
630.859	27.97
631.05	27.72
631.241	27.02
631.432	26.42
631.623	25.64
631.813	24.8
632.004	24.15
632.195	23.23
632.385	22.45
632.576	21.89
632.767	21.38
632.957	20.92
633.148	20.26
633.339	19.98
633.529	19.58
633.72	19.27
633.91	19
634.101	18.71
634.292	18.69
634.482	18.7
634.673	18.51
634.863	18.45
635.054	18.21
635.244	18.26
635.435	17.84
635.625	17.85
635.815	17.97
636.006	17.9
636.196	17.9
636.387	17.94
636.577	18.06
636.767	18.07
636.958	18.11
637.148	18.4
637.338	18.24
637.529	18.41
637.719	18.35
637.909	18.27
638.099	18.49
638.29	18.26
638.48	17.98
638.67	17.68
638.86	17.73
639.05	17.55
639.241	17.46
639.431	17.32
639.621	17.08
639.811	17.1
640.001	16.91
640.191	16.61
640.381	16.8
640.571	16.88
640.761	16.96
640.951	16.91
641.141	16.89
641.331	16.71
641.521	16.74
641.711	17
641.901	16.97
642.091	17.13
642.281	17.27
642.471	17.24
642.661	17.46
642.851	17.33
643.041	17.65
643.231	17.94
643.42	18.18
643.61	18.14
643.8	18
643.99	17.96
644.18	18.11
644.369	18.19
644.559	18.26
644.749	17.95
644.939	18.11
645.128	17.86
645.318	17.73
645.508	17.75
645.697	17.85
645.887	17.99
646.076	17.86
646.266	17.87
646.456	17.63
646.645	17.62
646.835	17.71
647.024	17.54
647.214	17.69
647.403	17.61
647.593	17.51
647.782	17.78
647.972	17.78
648.161	18.04
648.351	17.91
648.54	18.54
648.73	18.83
648.919	19.18
649.108	19.33
649.298	19.58
649.487	19.84
649.677	20.08
649.866	20.08
650.055	20.39
650.244	20.42
650.434	20.77
650.623	20.37
650.812	20.18
651.002	20.06
651.191	20.45
651.38	20.27
651.569	20.01
651.758	19.78
651.947	19.6
652.137	19.37
652.326	19.14
652.515	18.75
652.704	18.78
652.893	18.89
653.082	18.91
653.271	18.7
653.46	18.53
653.649	18.64
653.838	18.71
654.027	18.86
654.216	18.59
654.405	18.68
654.594	18.63
654.783	18.44
654.972	18.14
655.161	18.14
655.35	17.98
655.539	18.04
655.728	17.85
655.916	17.8
656.105	17.65
656.294	17.81
656.483	17.86
656.672	17.9
656.86	18.08
657.049	17.91
657.238	17.87
657.427	17.79
657.615	17.65
657.804	17.66
657.993	17.53
658.181	17.42
658.37	17.37
658.559	17.14
658.747	17.06
658.936	17.1
659.125	17.37
659.313	17.2
659.502	17.32
659.69	17.49
659.879	17.55
660.067	17.6
660.256	17.63
660.444	17.83
660.633	18.12
660.821	18.4
661.01	18.48
661.198	18.43
661.387	18.62
661.575	18.58
661.763	18.45
661.952	18.82
662.14	18.94
662.328	19.19
662.517	19.6
662.705	19.57
662.893	19.44
663.082	19.57
663.27	19.5
663.458	19.6
663.646	19.56
663.834	19.65
664.023	19.47
664.211	19.39
664.399	19.22
664.587	18.44
664.775	18.33
664.963	18.24
665.152	17.55
665.34	17.85
665.528	17.57
665.716	17.66
665.904	17.65
666.092	17.51
666.28	17.45
666.468	17.51
666.656	17.77
666.844	18.12
667.032	18.1
667.22	18.55
667.408	17.97
667.596	18.21
667.784	18.16
667.971	18.25
668.159	18.13
668.347	18.15
668.535	18.06
668.723	17.99
668.911	17.76
669.098	17.95
669.286	18.14
669.474	18.21
669.662	17.94
669.849	17.79
670.037	17.97
670.225	18.13
670.413	18.27
670.6	18.44
670.788	18.14
670.976	18.22
671.163	17.84
671.351	17.46
671.538	17.41
671.726	17.52
671.913	17.66
672.101	17.16
672.289	17.15
672.476	17.13
672.664	16.97
672.851	17.08
673.039	17.11
673.226	17.15
673.413	17.01
673.601	17.09
673.788	16.79
673.976	16.53
674.163	16.58
674.35	16.56
674.538	16.74
674.725	16.9
674.912	16.94
675.1	16.9
675.287	17.09
675.474	16.89
675.662	17.31
675.849	17.34
676.036	17.64
676.223	17.83
676.411	17.76
676.598	17.37
676.785	17.24
676.972	17.11
677.159	17.16
677.346	17.08
677.533	17.76
677.721	17.42
677.908	17.56
678.095	17.58
678.282	17.66
678.469	17.73
678.656	17.67
678.843	17.59
679.03	17.97
679.217	18.03
679.404	17.82
679.591	17.45
679.778	17.58
679.964	17.78
680.151	17.53
680.338	17.4
680.525	17.16
680.712	17.37
680.899	17.63
681.086	17.53
681.272	17.6
681.459	17.78
681.646	17.71
681.833	17.89
682.02	17.54
682.206	17.89
682.393	18.03
682.58	18.53
682.766	18.58
682.953	18.33
683.14	18.22
683.326	17.92
683.513	18.1
683.7	18.51
683.886	18.5
684.073	18.67
684.259	18.25
684.446	18.22
684.632	17.62
684.819	17.33
685.005	17.38
685.192	17.43
685.378	17.58
685.565	17.35
685.751	17.35
685.938	17.56
686.124	18.15
686.31	18.61
686.497	18.83
686.683	19.22
686.87	19.68
687.056	19.95
687.242	20.12
687.429	20.17
687.615	20.4
687.801	20.37
687.987	19.89
688.174	19.76
688.36	19.88
688.546	19.6
688.732	19.64
688.918	19.53
689.105	19.29
689.291	19.03
689.477	18.86
689.663	18.51
689.849	18.73
690.035	18.8
690.221	19.03
690.407	18.96
690.593	18.92
690.779	18.62
690.965	18.46
691.151	18.32
691.337	18.58
691.523	18.92
691.709	19.17
691.895	19.29
692.081	19.26
692.267	18.63
692.453	18.59
692.639	18.77
692.825	18.93
693.011	19.02
693.196	19.43
693.382	19.33
693.568	19.04
693.754	18.94
693.94	18.28
694.125	18.11
694.311	18.04
694.497	17.6
694.682	17.76
694.868	17.54
695.054	17.11
695.239	16.4
695.425	16.23
695.611	16.11
695.796	16.18
695.982	16.54
696.168	16.57
696.353	16.34
696.539	16.52
696.724	16.02
696.91	15.98
697.095	16.2
697.281	16.69
697.466	16.99
697.652	17.25
697.837	17.01
698.023	16.71
698.208	16.61
698.393	16.6
698.579	16.7
698.764	16.76
698.949	16.71
699.135	16.79
699.32	16.55
699.505	16.33
699.691	16.08
699.876	16.14
700.061	16.19
700.246	16.38
700.432	16.62
700.617	16.44
700.802	16.56
700.987	16.8
701.172	16.7
701.358	16.74
701.543	16.66
701.728	16.87
701.913	17.09
702.098	17.07
702.283	16.66
702.468	16.7
702.653	16.68
702.838	16.87
703.023	17.15
703.208	17.16
703.393	17.81
703.578	18.4
703.763	18.54
703.948	19.23
704.133	19.87
704.318	20.56
704.503	21.12
704.688	22.21
704.873	22.39
705.057	23.19
705.242	23.86
705.427	24.34
705.612	25.24
705.797	25.95
705.981	26.51
706.166	27.47
706.351	28.69
706.536	29.09
706.72	28.59
706.905	29.35
707.09	29.38
707.274	30.08
707.459	30.05
707.644	29.79
707.828	29.78
708.013	29.29
708.197	29.17
708.382	28.16
708.567	28.05
708.751	28.21
708.936	28.21
709.12	27.65
709.305	27.36
709.489	26.89
709.673	26.58
709.858	26.3
710.042	26.19
710.227	25.66
710.411	26.25
710.596	26.32
710.78	26.29
710.964	25.96
711.149	25.95
711.333	26.04
711.517	26.44
711.702	26.48
711.886	26.46
712.07	26.21
712.254	26.25
712.438	25.22
712.623	24.87
712.807	24.45
712.991	24.01
713.175	23.78
713.359	22.76
713.544	21.67
713.728	20.83
713.912	19.97
714.096	19.28
714.28	18.03
714.464	18.18
714.648	17.08
714.832	16.63
715.016	16.69
715.2	16.59
715.384	16.61
715.568	16.67
715.752	16.54
715.936	16.51
716.12	16.62
716.304	17.08
716.488	16.88
716.671	16.98
716.855	17.08
717.039	16.63
717.223	16.84
717.407	16.78
717.59	16.44
717.774	16.57
717.958	16.69
718.142	16.64
718.325	16.44
718.509	16.36
718.693	16.55
718.877	16.55
719.06	16.46
719.244	15.9
719.428	15.78
719.611	16.35
719.795	16.37
719.978	16.63
720.162	16.37
720.345	16.26
720.529	16.21
720.713	16.59
720.896	16.28
721.08	16.17
721.263	15.92
721.446	15.79
721.63	15.23
721.813	14.62
721.997	14.38
722.18	14.15
722.364	14.35
722.547	14.77
722.73	14.07
722.914	14.4
723.097	14.76
723.28	14.7
723.464	14.6
723.647	14.61
723.83	15.22
724.013	14.95
724.197	15.29
724.38	15.36
724.563	15.13
724.746	15.84
724.929	15.83
725.112	15.42
725.296	15.8
725.479	16.22
725.662	16.49
725.845	16.21
726.028	16.06
726.211	16.21
726.394	16.29
726.577	15.7
726.76	15.3
726.943	14.89
727.126	14.77
727.309	14.45
727.492	13.9
727.675	13.48
727.858	13.74
728.041	14.1
728.224	14.35
728.407	14.15
728.589	14.6
728.772	14.49
728.955	14.63
729.138	14.36
729.321	14.15
729.503	14.1
729.686	14.11
729.869	13.87
730.052	13.68
730.234	13.7
730.417	13.45
730.6	13.22
730.782	12.86
730.965	13.31
731.148	14.01
731.33	14.32
731.513	14.99
731.695	15.09
731.878	14.94
732.061	14.55
732.243	14.22
732.426	14.43
732.608	15.17
732.791	15.6
732.973	14.94
733.156	14.33
733.338	14.02
733.52	13.18
733.703	13.56
733.885	13.85
734.068	14.76
734.25	14.5
734.432	14.88
734.615	14.19
734.797	14.51
734.979	14.84
735.162	15.22
735.344	15.71
735.526	16.11
735.708	16.31
735.891	16.29
736.073	15.63
736.255	16.04
736.437	15.39
736.619	15.57
736.802	15.55
736.984	15.7
737.166	15.19
737.348	15.18
737.53	15.37
737.712	14.88
737.894	14.71
738.076	14.74
738.258	14.73
738.44	15.23
738.622	15.15
738.804	15.11
738.986	14.83
739.168	15.43
739.35	15.11
739.532	15.46
739.714	15.61
739.896	15.51
740.078	15.55
740.259	15.37
740.441	14.54
740.623	14.15
740.805	13.94
740.987	13.95
741.168	14.24
741.35	14.87
741.532	13.91
741.714	14.11
741.895	14.45
742.077	15.11
742.259	15.22
742.44	16.22
742.622	16.28
742.804	16.16
742.985	16.98
743.167	16.37
743.348	16.12
743.53	16.32
743.711	16.41
743.893	16.32
744.075	15.92
744.256	16.11
744.438	15.88
744.619	16.34
744.8	16.1
744.982	15.71
745.163	15.65
745.345	16.13
745.526	16.67
745.707	16.51
745.889	16.58
746.07	16.4
746.252	16.34
746.433	16.02
746.614	16.04
746.795	16.25
746.977	16.85
747.158	17.31
747.339	16.17
747.52	15.35
747.702	15.41
747.883	15.2
748.064	14.84
748.245	14.28
748.426	14.31
748.607	13.62
748.788	13.4
748.97	12.91
749.151	13.33
749.332	14.4
749.513	14.96
749.694	15.61
749.875	15.43
750.056	15.49
750.237	15.36
750.418	14.97
750.599	15.22
750.78	15.58
750.96	15.12
751.141	14.12
751.322	12.75
751.503	12.78
751.684	11.73
751.865	12.02
752.046	12.15
752.226	12.1
752.407	13.16
752.588	13.42
752.769	13.4
752.949	13.46
753.13	13.78
753.311	15.49
753.492	15.58
753.672	15.16
753.853	14.8
754.034	15.59
754.214	16.79
754.395	16.74
754.575	16.93
754.756	16.18
754.937	15.73
755.117	14.99
755.298	13.49
755.478	12.33
755.659	11.73
755.839	11.52
756.02	10.37
756.2	9.59
756.381	8.76
756.561	8.88
756.741	9.22
756.922	9.66
757.102	9.98
757.283	10.48
757.463	11.16
757.643	12.2
757.823	13.75
758.004	14.96
758.184	15.5
758.364	14.67
758.545	13.72
758.725	14.34
758.905	14.77
759.085	14.63
759.265	14.1
759.446	14.35
759.626	13.88
759.806	12.62
759.986	12.02
760.166	11.44
760.346	12.88
760.526	13.02
760.706	12.79
760.886	12.2
761.066	12.86
761.246	13.48
761.426	14.13
761.606	14.47
761.786	14.03
761.966	14
762.146	14.51
762.326	14.54
762.506	14.9
762.686	14.91
762.866	14.98
763.046	14.69
763.225	14.54
763.405	13.85
763.585	14.14
763.765	14.4
763.945	14.72
764.124	14.58
764.304	14.13
764.484	14.02
764.664	13.9
764.843	14.44
765.023	14.51
765.203	14.04
765.382	14.08
765.562	13.56
765.741	13.97
765.921	12.7
766.101	12.59
766.28	13
766.46	12.69
766.639	12.68
766.819	11.89
766.998	11.89
767.178	12.31
767.357	12.31
767.537	12.58
767.716	12.1
767.896	12.84
768.075	12.53
768.254	11.99
768.434	12.45
768.613	11.84
768.792	11.24
768.972	11.36
769.151	11.03
769.33	11.02
769.51	10.46
769.689	11.12
769.868	10.95
770.047	11.67
770.226	11.57
770.406	11.56
770.585	11.46
770.764	11.83
770.943	11.46
771.122	11.07
771.301	11.71
771.48	11.79
771.66	11.52
771.839	11.45
772.018	11.23
772.197	10.96
772.376	11.63
772.555	11.66
772.734	11.86
772.913	12.14
773.092	12.63
773.271	11.87
773.449	12.15
773.628	11.35
773.807	11.82
773.986	11.55
774.165	12.65
774.344	12.29
774.523	13.41
774.701	14.31
774.88	13.8
775.059	14.34
775.238	16.25
775.417	16.54
775.595	16.69
775.774	16.69
775.953	15.8
776.131	15.82
776.31	15.96
776.489	15.62
776.667	14.64
776.846	15.27
777.025	15.48
777.203	13.86
777.382	13.7
777.56	13.42
777.739	12.54
777.917	12.58
778.096	11.77
778.274	12.36
778.453	11.64
778.631	10.98
778.81	11
778.988	10.39
779.166	9.94
779.345	10.57
779.523	12.33
779.702	13.47
779.88	14.17
780.058	13.7
780.237	12.52
780.415	13.14
780.593	13.37
780.771	12.51
780.95	12.71
781.128	12.32
781.306	11.38
781.484	10
781.662	9.44
781.841	8.43
782.019	8.05
782.197	8.04
782.375	8.66
782.553	8.47
782.731	10.19
782.909	10.04
783.087	10.94
783.265	10.53
783.443	11.07
783.621	10.53
783.799	10.76
783.977	11.94
784.155	11.38
784.333	10.58
784.511	11.85
784.689	11.24
784.867	10.91
785.045	12.55
785.223	12.76
785.4	12.39
785.578	14.16
785.756	14.12
785.934	14.07
786.112	14.18
786.289	14.8
786.467	14.08
786.645	13.75
786.823	14.81
787	13.75
787.178	13.58
787.356	13.71
787.533	12.12
787.711	13.21
787.889	13.47
788.066	13.34
788.244	12.35
788.421	12.71
788.599	12.23
788.776	10.91
788.954	10.31
789.131	10.13
789.309	9.66
789.486	10.44
789.664	9.98
789.841	8.52
790.019	8.65
790.196	8.82
790.373	8.2
790.551	7.42
790.728	8.94
790.906	8.84
791.083	9.09
791.26	9.26
791.437	7.61
791.615	6.51
791.792	8.2
791.969	7.91
792.146	7.64
792.324	7.67
792.501	8.44
792.678	7.15
792.855	7.46
793.032	7.55
793.209	7.86
793.387	9.84
793.564	10.37
793.741	10.58
793.918	11.19
794.095	12.03
794.272	12.66
794.449	12.53
794.626	13.08
794.803	13.33
794.98	13.08
795.157	13.22
795.334	12.68
795.511	13.33
795.688	12.29
795.864	11.69
796.041	12.2
796.218	11.31
796.395	11.35
796.572	11.15
796.749	10.95
796.925	11.57
797.102	11.98
797.279	11.3
797.456	11.38
797.632	11.6
797.809	11.8
797.986	10.32
798.162	10.27
798.339	10.55
798.516	9.84
798.692	8.34
798.869	7.28
799.046	5.79
799.222	7.15
799.399	5.69
799.575	6.26
799.752	6.01
799.928	7.04
800.105	7.79
800.281	8.05
800.458	7.48
800.634	8.55
800.811	9.49
800.987	8.98
801.163	6.51
801.34	6.88
801.516	7.09
801.692	8.11
801.869	7.98
802.045	8.19
802.221	7.78
802.398	8.45
802.574	7.5
802.75	7.03
802.926	6.89
803.103	7.65
803.279	8.3
803.455	6.77
803.631	5.26
803.807	5.55
803.983	6.67
804.16	5.45
804.336	4.71
804.512	5.78
804.688	6.41
804.864	5.41
805.04	5.75
805.216	4.87
805.392	5.67
805.568	7.6
805.744	6.58
805.92	3.15
806.096	4.92
806.272	4.4
806.448	4.47
806.623	4.09
806.799	6.73
806.975	7.39
807.151	9.84
807.327	9.53
807.503	7.07
807.678	6.28
807.854	8.72
808.03	9.14
808.206	11.13
808.381	11.19
808.557	10.54
808.733	10.18
808.908	9.85
809.084	6.97
809.26	6.91
809.435	8.64
809.611	10.13
809.787	9.74
809.962	9.16
810.138	8.39
810.313	8.63
810.489	8.57
810.664	8.66
810.84	7.26
811.015	9.04
811.191	9.24
811.366	9.23
811.542	7.71
811.717	7.02
811.892	6.39
812.068	4.51
812.243	3.65
812.419	4.31
812.594	3.9
812.769	4.82
812.944	3.51
813.12	5.79
813.295	4.82
813.47	5.71
813.645	7.67
813.821	7.97
813.996	10.7
814.171	10.53
814.346	11.07
814.521	10.57
814.697	10.74
814.872	10.6
815.047	9.25
815.222	11.69
815.397	11.74
815.572	8.36
815.747	9.57
815.922	5.91
816.097	6.16
816.272	5.96
816.447	5.54
816.622	6.4
816.797	6.75
816.972	6.14
817.147	4.87
817.322	5.06
817.496	6.77
817.671	5.94
817.846	7.29
818.021	7.36
818.196	6.79
818.371	7.29
818.545	7.52
818.72	8.18
818.895	7.7
819.069	6.32
819.244	6.24
819.419	7.74
819.594	7.44
819.768	8.9
819.943	8.66
820.117	9.03
820.292	8.96
820.467	9.47
820.641	9.35
820.816	9.84
820.99	9.87
821.165	10.48
821.339	9.99
821.514	10.33
821.688	10.44
821.863	10.56
822.037	10.86
822.212	11.07
822.386	10.76
822.56	10.92
822.735	11.15
822.909	11.57
823.084	11.33
823.258	11.22
823.432	10.81
823.606	10.58
823.781	10.51
823.955	10.58
824.129	10.47
824.303	10.61
824.478	10.55
824.652	10.06
824.826	9.75
825	9.63
825.174	9.9
825.348	10.19
825.523	10.57
825.697	10.57
825.871	9.96
826.045	9.7
826.219	9.72
826.393	9.55
826.567	9.62
826.741	9.49
826.915	9.44
827.089	8.97
827.263	9.33
827.437	8.99
827.611	9.32
827.784	9.56
827.958	9.33
828.132	8.78
828.306	8.79
828.48	8.88
828.654	8.91
828.827	9.18
829.001	9.47
829.175	8.99
829.349	8.79
829.522	8.13
829.696	7.64
829.87	8.18
830.044	9.37
830.217	8.3
830.391	8.69
830.565	9.01
830.738	9.74
830.912	10.56
831.085	9.75
831.259	9.94
831.432	10.18
831.606	9.83
831.779	9.89
831.953	10.89
832.126	12.04
832.3	11.21
832.473	11.93
832.647	11.91
832.82	10.97
832.994	12.37
833.167	12.3
833.34	12.41
833.514	12.04
833.687	12.28
833.86	11.13
834.034	10.82
834.207	10.89
834.38	9.38
834.553	8.98
834.727	9.23
834.9	8.25
835.073	8.38
835.246	8.63
835.419	8.73
835.593	8.03
835.766	8.4
835.939	8.92
836.112	9.04
836.285	10.07
836.458	9.31
836.631	8.81
836.804	10.15
836.977	10.45
837.15	9.63
837.323	8.83
837.496	7.81
837.669	9.14
837.842	7.57
838.015	6
838.188	5.56
838.361	5.95
838.533	5.41
838.706	3.31
838.879	1.98
839.052	1.68
839.225	3.94
839.398	7.34
839.57	3.31
839.743	3.14
839.916	5.02
840.088	3.82
840.261	4.08
840.434	4.17
840.607	4.67
840.779	2.58
840.952	1.43
841.124	-0.61
841.297	-1.34
841.47	-2.01
841.642	-0.68
841.815	-4.3
841.987	-1.86
842.16	-3.21
842.332	-4.75
842.505	-3.65
842.677	0.15
842.85	1.61
843.022	5.16
843.194	2.36
843.367	2.77
843.539	3.78
843.712	7.25
843.884	7.08
844.056	9.15
844.229	8.22
844.401	7.31
844.573	7.17
844.745	7.26
844.918	1.53
845.09	2.46
845.262	6.39
845.434	5.63
845.606	2.5
845.779	-0.21
845.951	-4.39
846.123	0.39
846.295	-5.01
846.467	-9.41
846.639	-7.44
846.811	-7.2
846.983	-9.61
847.155	-14.76
847.327	-16.97
847.499	-10.06
847.671	-14.39
847.843	-8.19
848.015	-15.28
848.187	-15.03
848.359	-15.57
848.531	-15.49
848.703	-14.8
848.875	-14.64
849.047	-8.63
849.218	-6.6
849.39	-13.81
849.562	-1.78
849.734	-6.54
849.905	-2.68
850.077	-1.76
850.249	1.46
850.421	-1.09
850.592	-0.87
850.764	1.73
850.936	-3.66
851.107	-4.13
851.279	-2.57
851.451	-10.35
851.622	-7.14
851.794	-2.07
851.965	3.49
852.137	10.43
852.308	13.34
852.48	11.87
852.651	9.98
852.823	9.72
852.994	7.1
853.166	8.93
853.337	13.63
853.509	12.21
853.68	10.01
853.851	9.52
854.023	2.87
854.194	-0.35
854.365	9.49
854.537	11.62
854.708	10.36
854.879	12.66
855.05	10.83
855.222	3.32
855.393	1.59
855.564	-2.97
855.735	-12.23
855.906	-13.53
856.078	-10.77
856.249	-15.86
856.42	-18.4
856.591	-9.62
856.762	-11.96
856.933	-12.44
857.104	1.42
857.275	1.72
857.446	8.9
857.617	11.31
857.788	14.01
857.959	13.45
858.13	9.84
858.301	9.39
858.472	7.21
858.643	1.63
858.814	-0.04
858.985	-14.86
859.155	-15.9
859.326	-26.12
859.497	-12.38
859.668	-21.4
859.839	-24.63
860.009	-19.08
860.18	-19.07
860.351	-22.37
860.522	-11.24
860.692	-3.73
860.863	-0.04
861.034	4.29
861.204	6.43
861.375	1.68
861.546	10.39
861.716	8.07
861.887	11.3
862.057	11.84
862.228	13.73
862.398	16.26
862.569	9.96
862.739	11.24
862.91	4.9
863.08	4.69
863.251	5.87
863.421	-1.14
863.592	10.14
863.762	8.72
863.932	0.4
864.103	0.12
864.273	-3.66
864.443	-6.91
864.614	-15.42
864.784	-17.63
864.954	-21.11
865.125	-22.94
865.295	-18.34
865.465	-22.99
865.635	-21.81
865.805	-13.4
865.976	-11.22
866.146	-14.56
866.316	-7.46
866.486	0.2
866.656	3.72
866.826	7.43
866.996	9.26
867.166	6.26
867.336	5.3
867.506	4.32
867.676	4.58
867.846	-1.75
868.016	3.15
868.186	5.06
868.356	1.19
868.526	1.3
868.696	-5.59
868.866	-11.79
869.036	-11.27
869.206	-4.92
869.376	-7.22
869.545	-5.37
869.715	-3.08
869.885	-8.7
870.055	-13.11
870.224	-13.04
870.394	-13.79
870.564	-12.72
870.734	-9.73
870.903	-9.03
871.073	-23.01
871.243	-27.65
871.412	-43.19
871.582	-39.3
871.751	-34.72
871.921	-26.17
872.091	-29.61
872.26	-33.75
872.43	-32.54
872.599	-30.79
872.769	-39.1
872.938	-25.42
873.108	-13.95
873.277	-10.71
873.446	-10.27
873.616	-17.56
873.785	-20.69
873.955	-14.13
874.124	-10.49
874.293	-8.41
874.463	-16.93
874.632	-7.32
874.801	-18.93
874.971	-21.93
875.14	-22.05
875.309	-21.56
875.478	-18.79
875.647	-19.26
875.817	-28.28
875.986	-29.57
876.155	-21.71
876.324	-12.86
876.493	-18.88
876.662	-18.26
876.831	-23.86
877	-18.81
877.17	-20.83
877.339	-13.37
877.508	-14.28
877.677	-10.16
877.846	-4.61
878.015	-12.65
878.184	-15.98
878.352	-11.7
878.521	-10.25
878.69	-6.47
878.859	-2.57
879.028	-4.22
879.197	-12.86
879.366	-14.16
879.534	-14.48
879.703	-16.52
879.872	-7.5
880.041	-4.63
880.21	-3.25
880.378	1.77
880.547	1
880.716	-0.1
880.884	1.17
881.053	4.52
881.222	5.81
881.39	6.83
881.559	7.36
881.727	6.28
881.896	6.69
882.065	6.61
882.233	6.21
882.402	7.4
882.57	7.01
882.739	7.2
882.907	6.8
883.076	6.58
883.244	6.05
883.412	6.83
883.581	7.1
883.749	6.96
883.918	5.96
884.086	4.75
884.254	3.58
884.423	4.09
884.591	2.89
884.759	2.48
884.927	1.94
885.096	3.54
885.264	1.92
885.432	1.09
885.6	-0.93
885.769	1.07
885.937	4.6
886.105	4.35
886.273	2.71
886.441	3.65
886.609	5.44
886.777	6.8
886.945	4.48
887.113	1.77
887.281	1.72
887.449	3.67
887.617	2.64
887.785	-5.79
887.953	-5.81
888.121	-4.21
888.289	-7.72
888.457	-18.5
888.625	-22.25
888.793	-17.92
888.961	-14.78
889.129	-14.26
889.296	-13.27
889.464	-14.53
889.632	-9.45
889.8	-9.3
889.967	-11.87
890.135	-2.99
