Data from 2938846__Reflection_03.txt Node
Date: Wed Mar 11 14:02:51 EDT 2015
User: robert
Spectrometer: USB4E03002
Autoset integration time: false
Trigger mode: 4
Integration Time (sec): 1.000000E-1
Scans to average: 10
Electric dark correction enabled: false
Nonlinearity correction enabled: false
Boxcar width: 5
Stray light correction enabled: false
XAxis mode: Wavelengths
Stop averaging: false
Number of Pixels in Spectrum: 3648
>>>>>Begin Spectral Data<<<<<
177.575	-337.04
177.794	241.67
178.014	31.51
178.233	-102.94
178.452	-69.34
178.672	29.57
178.891	30.71
179.11	32.9
179.33	-8.66
179.549	15.94
179.768	-7.21
179.987	-14.16
180.207	28.74
180.426	104.48
180.645	197.88
180.864	184.49
181.084	167.02
181.303	280.95
181.522	159.29
181.741	124.85
181.96	70.92
182.179	325.86
182.398	215.29
182.618	32.97
182.837	216.92
183.056	614.89
183.275	140.71
183.494	90.24
183.713	100
183.932	102.28
184.151	89.8
184.37	54.08
184.589	79.47
184.808	81.02
185.027	142.86
185.246	126.67
185.465	107.01
185.684	79.14
185.903	58.31
186.122	36.65
186.341	52.93
186.56	45.74
186.779	21.16
186.998	21.68
187.216	31.83
187.435	29.16
187.654	33.84
187.873	23.67
188.092	24.49
188.311	38.03
188.53	51.65
188.748	36.25
188.967	44.28
189.186	49.67
189.405	51.67
189.623	53.57
189.842	54.78
190.061	62.16
190.28	66.82
190.498	57.67
190.717	43.63
190.936	41.68
191.154	41.37
191.373	28.06
191.592	19.62
191.81	15.34
192.029	11.4
192.248	7.67
192.466	-17.04
192.685	-72
192.904	-48.61
193.122	25.5
193.341	-20.28
193.559	0.67
193.778	-164.2
193.996	-58.96
194.215	37.8
194.433	-7.44
194.652	-16.59
194.87	-51.83
195.089	-27.39
195.307	-50.99
195.526	-150.62
195.744	-56.66
195.963	-40.28
196.181	-11.66
196.399	9.36
196.618	-27.18
196.836	-24.59
197.055	-21.56
197.273	10.5
197.491	-21.15
197.71	-27.42
197.928	12.06
198.146	4.93
198.365	1.36
198.583	2.74
198.801	4.36
199.019	12.02
199.238	9.12
199.456	19.12
199.674	7.23
199.892	27.54
200.111	32.61
200.329	36.94
200.547	35.38
200.765	11.78
200.983	-8.04
201.202	-12.52
201.42	7.5
201.638	11
201.856	12.56
202.074	5.11
202.292	0.15
202.51	-9.27
202.728	-26.94
202.946	-1.71
203.165	22.06
203.383	59.32
203.601	41.48
203.819	29.62
204.037	28.06
204.255	3.86
204.473	-16.28
204.691	-5.44
204.909	-11.18
205.127	-27.31
205.345	-60.71
205.562	-24.96
205.78	-64.83
205.998	-137.86
206.216	-126.1
206.434	-54.6
206.652	-42.84
206.87	-34.64
207.088	-20.72
207.306	-11.06
207.523	-7.46
207.741	-12.9
207.959	-50.78
208.177	-15.85
208.395	3.08
208.612	-11.73
208.83	-28.27
209.048	-34.48
209.266	-5.66
209.483	-35.9
209.701	-47.23
209.919	-19.32
210.136	20.09
210.354	47.27
210.572	20.49
210.79	21.6
211.007	32.77
211.225	26.01
211.442	29.23
211.66	25.62
211.878	30.4
212.095	51.22
212.313	37.5
212.53	19.64
212.748	28.87
212.966	10.14
213.183	8.28
213.401	13.41
213.618	2.74
213.836	11.14
214.053	15.24
214.271	14.66
214.488	0.65
214.705	-5.78
214.923	-10.86
215.14	-24.58
215.358	-11.25
215.575	-1.35
215.793	-11.29
216.01	-10.43
216.227	-13.84
216.445	-4.72
216.662	-10.62
216.879	-4.39
217.097	0.41
217.314	8.56
217.531	8.48
217.749	12.8
217.966	13.49
218.183	19.68
218.4	17.85
218.618	3.73
218.835	-5.51
219.052	-3.54
219.269	-5.89
219.487	0.32
219.704	-7.66
219.921	-3.05
220.138	-3.62
220.355	-7.41
220.572	-6.45
220.79	-7.88
221.007	-0.3
221.224	-4.26
221.441	-8.25
221.658	-9.79
221.875	-14.44
222.092	-10.16
222.309	-12.28
222.526	-11.4
222.743	-9.84
222.96	-13.39
223.177	-10.42
223.394	-11.23
223.611	-9.95
223.828	1.29
224.045	7.46
224.262	10.19
224.479	11.45
224.696	13.54
224.913	15.59
225.13	16.96
225.347	14.32
225.564	16.45
225.781	15.32
225.997	15.16
226.214	11.58
226.431	10.72
226.648	9.16
226.865	8.53
227.082	8.41
227.298	6.35
227.515	4.4
227.732	5.74
227.949	4.52
228.165	3.62
228.382	3.23
228.599	3.44
228.816	3.53
229.032	4.34
229.249	3.95
229.466	3.64
229.682	3.56
229.899	3.88
230.116	2.91
230.332	2.63
230.549	2.76
230.765	2.75
230.982	1.91
231.199	0.95
231.415	-0.63
231.632	-0.92
231.848	-1.95
232.065	-1.06
232.281	-0.1
232.498	0.43
232.714	0.28
232.931	1.23
233.147	2.75
233.364	4.35
233.58	4.93
233.797	5.31
234.013	6.31
234.23	7.47
234.446	7.22
234.662	5.35
234.879	6.03
235.095	6.84
235.312	7.29
235.528	5.69
235.744	5.92
235.961	5.91
236.177	6.53
236.393	5.71
236.61	5.36
236.826	6.11
237.042	6.78
237.258	5.09
237.475	4.63
237.691	3.6
237.907	5.29
238.123	4
238.339	4.45
238.556	2.75
238.772	2.05
238.988	1.8
239.204	0.93
239.42	2.19
239.636	3.42
239.853	4.01
240.069	4.12
240.285	3.37
240.501	3.75
240.717	3.87
240.933	4.3
241.149	3.97
241.365	3.97
241.581	3.77
241.797	3.5
242.013	4.01
242.229	3.75
242.445	4.08
242.661	3.88
242.877	3.6
243.093	3.38
243.309	3.36
243.525	3.79
243.741	3.78
243.957	3.53
244.173	3.23
244.388	2.73
244.604	2.72
244.82	1.69
245.036	2.03
245.252	2.07
245.468	2.13
245.683	2.76
245.899	2.74
246.115	3.22
246.331	3.45
246.547	3.36
246.762	3.3
246.978	3.2
247.194	3.6
247.409	3.71
247.625	4.13
247.841	4
248.057	4
248.272	4.05
248.488	3.66
248.703	3.95
248.919	3.86
249.135	3.96
249.35	4.33
249.566	4.07
249.782	4.07
249.997	3.3
250.213	3.41
250.428	2.89
250.644	2.92
250.859	3.34
251.075	3.15
251.29	4.04
251.506	4.33
251.721	4.3
251.937	4.56
252.152	4.69
252.368	5.13
252.583	5.38
252.798	5.4
253.014	5.46
253.229	5.46
253.445	5.48
253.66	4.8
253.875	4.35
254.091	3.4
254.306	3.52
254.521	3.35
254.737	3.43
254.952	3.29
255.167	3.93
255.383	4.05
255.598	3.96
255.813	3.97
256.028	4.23
256.244	4.8
256.459	5.67
256.674	5.51
256.889	4.98
257.104	4.33
257.32	3.71
257.535	3.1
257.75	2.99
257.965	2.89
258.18	2.93
258.395	3.32
258.61	2.96
258.826	2.53
259.041	2.38
259.256	2.44
259.471	2.37
259.686	2.39
259.901	2.36
260.116	2.3
260.331	2.38
260.546	2.47
260.761	2.19
260.976	1.98
261.191	2.11
261.406	2.2
261.621	2.11
261.836	2.23
262.05	1.9
262.265	2
262.48	1.88
262.695	1.42
262.91	0.57
263.125	0.49
263.34	0.96
263.555	1.16
263.769	0.63
263.984	0.64
264.199	0.75
264.414	1.51
264.629	1.21
264.843	1.39
265.058	2
265.273	2.13
265.488	1.73
265.702	1.58
265.917	1.71
266.132	1.9
266.346	2.04
266.561	2.06
266.776	2.02
266.99	2.04
267.205	2.12
267.42	2.02
267.634	1.87
267.849	2.27
268.063	1.76
268.278	1.5
268.492	1.75
268.707	1.58
268.922	1.25
269.136	1.28
269.351	1.31
269.565	1.28
269.78	1.21
269.994	1.2
270.209	1.09
270.423	1.11
270.637	1.34
270.852	1.17
271.066	1.79
271.281	1.83
271.495	1.89
271.709	1.87
271.924	1.93
272.138	1.81
272.353	2.01
272.567	1.97
272.781	2.53
272.996	2.34
273.21	2.47
273.424	2.3
273.638	2.09
273.853	2.25
274.067	2.47
274.281	2.56
274.495	2.83
274.71	3
274.924	3.16
275.138	3.13
275.352	3.38
275.566	3.27
275.781	2.92
275.995	3.16
276.209	2.97
276.423	3.31
276.637	2.87
276.851	2.95
277.065	2.76
277.279	2.43
277.493	2.2
277.707	1.98
277.921	2.17
278.135	2.13
278.349	2.32
278.563	1.93
278.777	1.98
278.991	2.39
279.205	2.1
279.419	2.35
279.633	2.76
279.847	3.16
280.061	3.14
280.275	3.18
280.489	3.12
280.703	3.12
280.917	3.44
281.131	3.11
281.344	3.05
281.558	3.07
281.772	2.96
281.986	2.87
282.2	2.54
282.414	2.49
282.627	2.38
282.841	2.73
283.055	2.66
283.269	2.65
283.482	2.54
283.696	2.47
283.91	2.41
284.123	2.15
284.337	2.17
284.551	2.42
284.764	2.35
284.978	2.27
285.192	2.21
285.405	2.03
285.619	2.03
285.833	2.08
286.046	2.07
286.26	2.08
286.473	2.16
286.687	2.13
286.9	2.05
287.114	2.53
287.327	2.5
287.541	2.56
287.754	3.09
287.968	2.93
288.181	3.19
288.395	2.96
288.608	3.02
288.822	2.96
289.035	2.99
289.248	2.79
289.462	2.66
289.675	2.85
289.889	2.66
290.102	2.46
290.315	2.67
290.529	2.7
290.742	2.9
290.955	2.91
291.169	3.1
291.382	3.26
291.595	3.34
291.808	3.25
292.022	3.02
292.235	2.72
292.448	2.48
292.661	2.51
292.875	2.37
293.088	2.49
293.301	2.46
293.514	2.53
293.727	2.3
293.94	2.45
294.153	2.2
294.367	2.6
294.58	3.26
294.793	3.5
295.006	3.41
295.219	3.15
295.432	3.15
295.645	3.19
295.858	3.05
296.071	2.84
296.284	2.81
296.497	2.92
296.71	3.04
296.923	2.87
297.136	2.94
297.349	2.94
297.562	3.02
297.775	3.18
297.988	3.33
298.201	3.54
298.414	3.78
298.626	3.89
298.839	4
299.052	3.93
299.265	3.88
299.478	3.78
299.691	3.99
299.903	4.27
300.116	4
300.329	3.87
300.542	3.8
300.755	4.04
300.967	4.08
301.18	4.14
301.393	3.83
301.605	4.23
301.818	4.22
302.031	4.39
302.243	4.31
302.456	4.34
302.669	4.26
302.881	4.69
303.094	4.94
303.307	5.24
303.519	5.45
303.732	5.52
303.944	5.28
304.157	5.65
304.37	5.41
304.582	5.2
304.795	5.63
305.007	5.78
305.22	5.52
305.432	5.25
305.645	4.92
305.857	4.81
306.069	4.94
306.282	4.93
306.494	4.36
306.707	4.2
306.919	4.69
307.132	4.46
307.344	4.94
307.556	4.84
307.769	4.9
307.981	4.92
308.193	4.93
308.406	5.02
308.618	5.27
308.83	5.58
309.043	5.58
309.255	5.42
309.467	5.47
309.679	5.12
309.892	5.17
310.104	5.2
310.316	5.49
310.528	5.66
310.74	5.74
310.953	5.51
311.165	5.37
311.377	5.67
311.589	5.69
311.801	5.75
312.013	5.82
312.225	5.89
312.437	5.87
312.649	5.8
312.862	5.42
313.074	5.4
313.286	5.37
313.498	5.68
313.71	5.68
313.922	5.64
314.134	5.61
314.346	5.53
314.558	5.55
314.77	5.1
314.982	4.66
315.193	5.01
315.405	4.78
315.617	4.9
315.829	4.72
316.041	4.97
316.253	4.9
316.465	4.83
316.677	5
316.888	5.18
317.1	5.58
317.312	5.94
317.524	5.93
317.736	5.67
317.947	5.93
318.159	6.19
318.371	5.63
318.583	5.87
318.794	5.96
319.006	5.95
319.218	5.89
319.43	6.06
319.641	6.01
319.853	6.02
320.064	6.57
320.276	6.64
320.488	6.35
320.699	6.62
320.911	6.89
321.123	6.68
321.334	6.68
321.546	6.61
321.757	6.59
321.969	6.32
322.18	6.51
322.392	6.78
322.603	6.48
322.815	6.8
323.026	6.73
323.238	6.23
323.449	6.43
323.661	6.6
323.872	6.79
324.083	6.95
324.295	7.1
324.506	6.77
324.718	6.75
324.929	6.91
325.14	6.92
325.352	7.07
325.563	7.52
325.774	7.41
325.986	7.29
326.197	6.94
326.408	6.63
326.62	6.76
326.831	7.13
327.042	6.96
327.253	6.99
327.464	6.98
327.676	6.78
327.887	6.55
328.098	6.98
328.309	7.08
328.52	7.41
328.732	7.47
328.943	7.62
329.154	7.72
329.365	7.92
329.576	8.16
329.787	8.02
329.998	8.13
330.209	8.45
330.42	8.49
330.631	8.46
330.842	8.15
331.053	8.18
331.264	8.05
331.475	8.04
331.686	7.83
331.897	7.53
332.108	7.53
332.319	7.82
332.53	7.52
332.741	7.32
332.952	7.22
333.163	7.53
333.374	8.06
333.585	8.03
333.795	8.11
334.006	8.46
334.217	8.52
334.428	9.21
334.639	8.9
334.849	9.1
335.06	8.96
335.271	9.08
335.482	9.33
335.692	9.07
335.903	9.25
336.114	9.25
336.325	9.04
336.535	8.96
336.746	8.6
336.957	8.87
337.167	8.91
337.378	9.06
337.589	9.38
337.799	9.24
338.01	9.37
338.22	9.44
338.431	9.05
338.642	8.71
338.852	8.68
339.063	8.32
339.273	8.3
339.484	8.29
339.694	8.26
339.905	8.08
340.115	8.09
340.326	7.89
340.536	7.91
340.746	8.15
340.957	8.4
341.167	8.63
341.378	8.9
341.588	8.71
341.799	8.66
342.009	8.64
342.219	8.55
342.43	8.46
342.64	8.52
342.85	8.41
343.061	8.5
343.271	8.69
343.481	8.7
343.691	8.61
343.902	9
344.112	9.05
344.322	8.81
344.532	8.78
344.743	8.66
344.953	8.6
345.163	8.54
345.373	8.4
345.583	8.35
345.793	8.18
346.004	8.38
346.214	7.95
346.424	7.94
346.634	8.26
346.844	8.49
347.054	8.51
347.264	8.46
347.474	8.25
347.684	8.42
347.894	8.27
348.104	8.59
348.314	8.23
348.524	8.49
348.734	8.43
348.944	8.28
349.154	8.09
349.364	8.25
349.574	8.42
349.784	8.67
349.994	8.42
350.204	8.25
350.413	7.97
350.623	8.01
350.833	7.92
351.043	7.66
351.253	7.69
351.463	7.73
351.672	7.76
351.882	7.79
352.092	7.85
352.302	7.83
352.511	8.1
352.721	7.91
352.931	8.19
353.141	8.19
353.35	8.38
353.56	8.35
353.77	8.38
353.979	8.33
354.189	8.26
354.399	8.03
354.608	8.15
354.818	8.15
355.027	8.46
355.237	8.37
355.447	8.23
355.656	8.32
355.866	8.1
356.075	8.02
356.285	8.18
356.494	8.36
356.704	8.55
356.913	8.74
357.123	8.6
357.332	8.6
357.542	8.7
357.751	8.8
357.96	8.77
358.17	8.89
358.379	9.01
358.589	8.78
358.798	8.65
359.007	8.68
359.217	8.55
359.426	8.84
359.635	8.87
359.845	8.7
360.054	8.65
360.263	8.65
360.472	8.76
360.682	8.39
360.891	8.35
361.1	8.18
361.309	8.06
361.519	8.02
361.728	7.92
361.937	7.97
362.146	7.95
362.355	8.09
362.564	8.16
362.774	8.14
362.983	8.28
363.192	8.35
363.401	8.43
363.61	8.49
363.819	8.45
364.028	8.41
364.237	8.2
364.446	8.42
364.655	8.32
364.864	8.22
365.073	8.11
365.282	8.11
365.491	8.19
365.7	8.19
365.909	8.04
366.118	7.98
366.327	8.02
366.536	7.98
366.745	7.56
366.954	7.4
367.162	7.44
367.371	7.52
367.58	7.55
367.789	7.49
367.998	7.4
368.207	7.32
368.415	7.33
368.624	7.13
368.833	7.21
369.042	7.41
369.25	7.35
369.459	7.35
369.668	7.49
369.877	7.46
370.085	7.26
370.294	7.2
370.503	7.36
370.711	7.41
370.92	7.51
371.129	7.39
371.337	7.35
371.546	7.26
371.754	7.15
371.963	6.95
372.171	6.88
372.38	6.97
372.589	6.85
372.797	6.84
373.006	6.75
373.214	6.75
373.423	6.78
373.631	6.94
373.84	7.28
374.048	7.33
374.256	7.35
374.465	7.24
374.673	7.1
374.882	7.35
375.09	7.17
375.298	7.01
375.507	6.81
375.715	6.55
375.923	6.07
376.132	5.9
376.34	5.91
376.548	5.68
376.757	5.72
376.965	5.76
377.173	5.78
377.381	5.78
377.59	5.92
377.798	6.04
378.006	6.21
378.214	6.47
378.423	6.43
378.631	6.3
378.839	6.4
379.047	6.38
379.255	6.59
379.463	6.46
379.671	6.4
379.879	6.25
380.088	6.11
380.296	6.01
380.504	6.11
380.712	6.03
380.92	5.88
381.128	5.73
381.336	5.82
381.544	5.74
381.752	5.71
381.96	5.98
382.168	6.11
382.376	6.13
382.584	6.14
382.791	5.91
382.999	5.75
383.207	5.87
383.415	5.95
383.623	5.79
383.831	5.74
384.039	5.77
384.247	5.49
384.454	5.63
384.662	5.58
384.87	5.66
385.078	5.68
385.285	5.89
385.493	5.68
385.701	5.52
385.909	5.55
386.116	5.46
386.324	5.45
386.532	5.47
386.739	5.26
386.947	5.06
387.155	5.07
387.362	5.03
387.57	4.75
387.778	4.85
387.985	4.96
388.193	5.02
388.4	4.72
388.608	4.59
388.816	4.62
389.023	4.32
389.231	4.52
389.438	4.4
389.646	4.4
389.853	4.63
390.061	4.53
390.268	4.45
390.475	4.36
390.683	4.62
390.89	4.67
391.098	4.6
391.305	4.67
391.512	4.64
391.72	4.66
391.927	4.36
392.135	4.24
392.342	4.29
392.549	4.36
392.756	4.36
392.964	4.29
393.171	4.26
393.378	4.23
393.586	4.31
393.793	4.13
394	3.9
394.207	4.17
394.414	4.26
394.622	4.14
394.829	4.04
395.036	3.9
395.243	4.05
395.45	3.88
395.657	3.98
395.864	3.97
396.072	4.03
396.279	4.14
396.486	4
396.693	3.85
396.9	3.94
397.107	3.95
397.314	4.11
397.521	3.73
397.728	3.53
397.935	3.51
398.142	3.36
398.349	3.37
398.556	3.24
398.763	3.32
398.97	3.34
399.177	3.38
399.383	3.28
399.59	3.21
399.797	3.26
400.004	3.51
400.211	3.46
400.418	3.55
400.625	3.74
400.831	3.86
401.038	3.73
401.245	3.69
401.452	3.51
401.658	3.65
401.865	3.5
402.072	3.6
402.279	3.59
402.485	3.5
402.692	3.38
402.899	3.16
403.105	3.19
403.312	3.19
403.519	3.17
403.725	3.24
403.932	3.06
404.138	3.13
404.345	3.19
404.552	3.15
404.758	2.99
404.965	3
405.171	3.02
405.378	3.05
405.584	2.95
405.791	3
405.997	3.01
406.204	2.99
406.41	2.96
406.617	2.69
406.823	2.68
407.029	2.89
407.236	2.9
407.442	2.75
407.649	2.61
407.855	2.71
408.061	2.58
408.268	2.37
408.474	2.39
408.68	2.4
408.887	2.41
409.093	2.35
409.299	2.24
409.505	2.32
409.712	2.33
409.918	2.3
410.124	2.44
410.33	2.37
410.537	2.54
410.743	2.57
410.949	2.56
411.155	2.63
411.361	2.65
411.567	2.67
411.773	2.7
411.98	2.82
412.186	2.84
412.392	2.77
412.598	3.04
412.804	2.85
413.01	2.95
413.216	3.06
413.422	3.04
413.628	2.86
413.834	2.81
414.04	2.68
414.246	2.66
414.452	2.65
414.658	2.56
414.864	2.42
415.07	2.38
415.275	2.4
415.481	2.34
415.687	2.47
415.893	2.65
416.099	2.55
416.305	2.51
416.511	2.6
416.716	2.52
416.922	2.54
417.128	2.48
417.334	2.63
417.539	2.57
417.745	2.57
417.951	2.52
418.157	2.46
418.362	2.59
418.568	2.52
418.774	2.38
418.979	2.4
419.185	2.32
419.391	2.34
419.596	2.34
419.802	2.3
420.008	2.25
420.213	2.22
420.419	2.21
420.624	2.11
420.83	2.1
421.035	2.13
421.241	2.14
421.446	2.18
421.652	2.2
421.857	2.17
422.063	2.13
422.268	2.1
422.474	2.11
422.679	2.13
422.885	2.11
423.09	2.19
423.295	2.21
423.501	2.17
423.706	2.17
423.911	2.14
424.117	2.12
424.322	2.2
424.527	2.26
424.733	2.3
424.938	2.28
425.143	2.31
425.349	2.28
425.554	2.3
425.759	2.28
425.964	2.2
426.169	2.2
426.375	2.06
426.58	1.99
426.785	1.87
426.99	1.8
427.195	1.79
427.4	1.83
427.605	1.73
427.811	1.67
428.016	1.74
428.221	1.81
428.426	1.83
428.631	2.02
428.836	1.91
429.041	1.96
429.246	1.85
429.451	1.91
429.656	1.98
429.861	2
430.066	1.94
430.271	1.99
430.476	1.96
430.681	1.7
430.886	1.67
431.09	1.66
431.295	1.61
431.5	1.62
431.705	1.53
431.91	1.42
432.115	1.51
432.32	1.59
432.524	1.5
432.729	1.49
432.934	1.58
433.139	1.61
433.343	1.74
433.548	1.78
433.753	1.86
433.958	1.91
434.162	1.97
434.367	1.92
434.572	1.91
434.776	1.98
434.981	2
435.186	2.1
435.39	2.06
435.595	2
435.799	1.99
436.004	1.9
436.209	1.86
436.413	1.82
436.618	1.79
436.822	1.8
437.027	1.68
437.231	1.73
437.436	1.73
437.64	1.75
437.845	1.8
438.049	1.87
438.253	1.95
438.458	1.92
438.662	1.93
438.867	1.95
439.071	1.95
439.275	2.05
439.48	2.05
439.684	1.99
439.888	2.01
440.093	1.98
440.297	1.95
440.501	1.93
440.706	1.88
440.91	1.85
441.114	1.86
441.318	1.8
441.523	1.78
441.727	1.84
441.931	1.85
442.135	1.82
442.339	1.8
442.543	1.76
442.748	1.67
442.952	1.65
443.156	1.61
443.36	1.63
443.564	1.67
443.768	1.63
443.972	1.6
444.176	1.68
444.38	1.64
444.584	1.64
444.788	1.68
444.992	1.73
445.196	1.8
445.4	1.79
445.604	1.82
445.808	1.82
446.012	1.84
446.216	1.8
446.42	1.71
446.624	1.69
446.828	1.63
447.032	1.56
447.235	1.54
447.439	1.53
447.643	1.56
447.847	1.53
448.051	1.48
448.254	1.45
448.458	1.35
448.662	1.37
448.866	1.43
449.069	1.47
449.273	1.54
449.477	1.55
449.681	1.49
449.884	1.45
450.088	1.44
450.292	1.51
450.495	1.52
450.699	1.63
450.902	1.69
451.106	1.71
451.31	1.69
451.513	1.78
451.717	1.75
451.92	1.82
452.124	1.91
452.327	1.88
452.531	1.82
452.734	1.74
452.938	1.76
453.141	1.71
453.345	1.68
453.548	1.74
453.752	1.6
453.955	1.63
454.158	1.63
454.362	1.65
454.565	1.64
454.769	1.66
454.972	1.77
455.175	1.73
455.379	1.7
455.582	1.73
455.785	1.67
455.988	1.76
456.192	1.78
456.395	1.73
456.598	1.66
456.801	1.66
457.005	1.67
457.208	1.66
457.411	1.64
457.614	1.74
457.817	1.73
458.021	1.76
458.224	1.65
458.427	1.6
458.63	1.55
458.833	1.59
459.036	1.61
459.239	1.58
459.442	1.58
459.645	1.6
459.848	1.56
460.051	1.53
460.254	1.56
460.457	1.55
460.66	1.57
460.863	1.68
461.066	1.67
461.269	1.67
461.472	1.73
461.675	1.67
461.878	1.57
462.081	1.56
462.284	1.52
462.486	1.49
462.689	1.58
462.892	1.61
463.095	1.54
463.298	1.58
463.5	1.61
463.703	1.57
463.906	1.57
464.109	1.66
464.311	1.6
464.514	1.67
464.717	1.7
464.92	1.71
465.122	1.66
465.325	1.7
465.528	1.58
465.73	1.51
465.933	1.46
466.135	1.46
466.338	1.47
466.541	1.49
466.743	1.49
466.946	1.46
467.148	1.47
467.351	1.56
467.553	1.56
467.756	1.61
467.958	1.69
468.161	1.63
468.363	1.63
468.566	1.61
468.768	1.65
468.971	1.63
469.173	1.73
469.375	1.67
469.578	1.62
469.78	1.68
469.983	1.69
470.185	1.61
470.387	1.62
470.59	1.63
470.792	1.65
470.994	1.65
471.196	1.66
471.399	1.56
471.601	1.64
471.803	1.64
472.005	1.59
472.208	1.59
472.41	1.65
472.612	1.77
472.814	1.84
473.016	1.87
473.218	1.82
473.421	1.89
473.623	1.89
473.825	1.89
474.027	1.86
474.229	1.79
474.431	1.8
474.633	1.82
474.835	1.9
475.037	1.81
475.239	1.81
475.441	1.8
475.643	1.76
475.845	1.87
476.047	1.83
476.249	1.89
476.451	1.91
476.653	1.95
476.855	1.92
477.057	1.79
477.258	1.8
477.46	1.8
477.662	1.85
477.864	1.82
478.066	1.77
478.268	1.82
478.469	1.78
478.671	1.81
478.873	1.79
479.075	1.81
479.276	1.84
479.478	1.8
479.68	1.7
479.882	1.72
480.083	1.71
480.285	1.67
480.487	1.62
480.688	1.65
480.89	1.66
481.091	1.62
481.293	1.56
481.495	1.56
481.696	1.64
481.898	1.67
482.099	1.66
482.301	1.65
482.502	1.65
482.704	1.66
482.905	1.65
483.107	1.62
483.308	1.64
483.51	1.64
483.711	1.64
483.913	1.64
484.114	1.66
484.315	1.67
484.517	1.66
484.718	1.66
484.92	1.64
485.121	1.63
485.322	1.63
485.524	1.61
485.725	1.63
485.926	1.62
486.127	1.59
486.329	1.58
486.53	1.56
486.731	1.59
486.932	1.6
487.134	1.57
487.335	1.57
487.536	1.61
487.737	1.6
487.938	1.58
488.139	1.56
488.341	1.58
488.542	1.59
488.743	1.61
488.944	1.62
489.145	1.66
489.346	1.7
489.547	1.73
489.748	1.77
489.949	1.76
490.15	1.83
490.351	1.87
490.552	1.87
490.753	1.89
490.954	1.91
491.155	1.91
491.356	1.88
491.557	1.88
491.758	1.89
491.959	1.86
492.159	1.88
492.36	1.86
492.561	1.83
492.762	1.8
492.963	1.77
493.164	1.78
493.364	1.79
493.565	1.84
493.766	1.89
493.967	1.9
494.167	1.87
494.368	1.86
494.569	1.88
494.769	1.93
494.97	2.03
495.171	2
495.371	1.97
495.572	1.98
495.773	1.94
495.973	1.96
496.174	1.94
496.375	2
496.575	2.06
496.776	2.09
496.976	2.1
497.177	2.08
497.377	2.13
497.578	2.15
497.778	2.1
497.979	2.01
498.179	2
498.38	2.06
498.58	2.06
498.78	2.04
498.981	1.96
499.181	1.9
499.382	1.95
499.582	1.92
499.782	1.97
499.983	2.04
500.183	2.16
500.383	2.13
500.584	2.1
500.784	2.15
500.984	2.17
501.184	2.31
501.385	2.43
501.585	2.49
501.785	2.63
501.985	2.64
502.185	2.7
502.386	2.74
502.586	2.82
502.786	2.92
502.986	2.86
503.186	2.87
503.386	2.93
503.586	2.98
503.786	2.96
503.987	2.95
504.187	2.95
504.387	2.96
504.587	2.97
504.787	3
504.987	3.02
505.187	3.12
505.387	3.2
505.587	3.12
505.786	3.09
505.986	3.18
506.186	3.25
506.386	3.25
506.586	3.23
506.786	3.2
506.986	3.23
507.186	3.21
507.386	3.3
507.585	3.33
507.785	3.42
507.985	3.51
508.185	3.46
508.384	3.57
508.584	3.66
508.784	3.68
508.984	3.88
509.183	3.97
509.383	4.02
509.583	3.99
509.782	4.05
509.982	4.09
510.182	4.13
510.381	4.21
510.581	4.16
510.781	4.18
510.98	4.2
511.18	4.18
511.379	4.15
511.579	4.19
511.778	4.32
511.978	4.29
512.177	4.35
512.377	4.41
512.576	4.47
512.776	4.48
512.975	4.55
513.175	4.69
513.374	4.69
513.573	4.75
513.773	4.82
513.972	4.87
514.172	4.97
514.371	5
514.57	4.95
514.77	5.02
514.969	5.05
515.168	5.08
515.367	5.09
515.567	5.22
515.766	5.33
515.965	5.37
516.164	5.39
516.364	5.48
516.563	5.6
516.762	5.84
516.961	5.85
517.16	5.97
517.359	6.06
517.559	6.16
517.758	6.21
517.957	6.2
518.156	6.28
518.355	6.27
518.554	6.32
518.753	6.33
518.952	6.31
519.151	6.36
519.35	6.42
519.549	6.49
519.748	6.47
519.947	6.57
520.146	6.7
520.345	6.74
520.544	6.84
520.743	6.97
520.942	7.1
521.141	7.18
521.339	7.24
521.538	7.28
521.737	7.33
521.936	7.41
522.135	7.35
522.333	7.29
522.532	7.34
522.731	7.43
522.93	7.4
523.129	7.37
523.327	7.42
523.526	7.48
523.725	7.5
523.923	7.53
524.122	7.64
524.321	7.73
524.519	7.84
524.718	7.93
524.917	7.98
525.115	8.05
525.314	8.09
525.512	8.1
525.711	8.1
525.909	8.18
526.108	8.27
526.306	8.32
526.505	8.39
526.703	8.46
526.902	8.5
527.1	8.53
527.299	8.57
527.497	8.66
527.696	8.72
527.894	8.76
528.092	8.82
528.291	8.84
528.489	8.88
528.688	8.92
528.886	8.94
529.084	8.96
529.283	8.99
529.481	9.05
529.679	9.07
529.877	9.11
530.076	9.18
530.274	9.19
530.472	9.23
530.67	9.29
530.869	9.33
531.067	9.35
531.265	9.41
531.463	9.5
531.661	9.57
531.859	9.64
532.057	9.68
532.255	9.76
532.454	9.83
532.652	9.9
532.85	9.95
533.048	9.99
533.246	10.07
533.444	10.15
533.642	10.19
533.84	10.15
534.038	10.16
534.236	10.22
534.434	10.25
534.632	10.3
534.83	10.4
535.027	10.4
535.225	10.46
535.423	10.47
535.621	10.5
535.819	10.55
536.017	10.68
536.215	10.69
536.412	10.76
536.61	10.78
536.808	10.86
537.006	10.81
537.203	10.86
537.401	10.85
537.599	10.96
537.797	11.03
537.994	11.15
538.192	11.21
538.39	11.39
538.587	11.46
538.785	11.58
538.983	11.68
539.18	11.79
539.378	11.86
539.575	12.04
539.773	12.16
539.97	12.22
540.168	12.23
540.366	12.29
540.563	12.32
540.761	12.42
540.958	12.45
541.155	12.46
541.353	12.5
541.55	12.62
541.748	12.66
541.945	12.7
542.143	12.75
542.34	12.82
542.537	12.88
542.735	12.94
542.932	13.01
543.129	13.07
543.327	13.22
543.524	13.4
543.721	13.47
543.919	13.65
544.116	13.84
544.313	14
544.51	14.25
544.708	14.54
544.905	14.78
545.102	14.93
545.299	15.16
545.496	15.3
545.693	15.35
545.891	15.43
546.088	15.47
546.285	15.41
546.482	15.42
546.679	15.35
546.876	15.21
547.073	15.12
547.27	15.04
547.467	14.9
547.664	14.84
547.861	14.81
548.058	14.84
548.255	14.76
548.452	14.74
548.649	14.79
548.846	14.7
549.043	14.72
549.24	14.76
549.437	14.77
549.633	14.99
549.83	14.9
550.027	14.9
550.224	14.85
550.421	14.99
550.618	14.98
550.814	14.9
551.011	14.98
551.208	14.96
551.405	14.9
551.601	14.85
551.798	14.64
551.995	14.61
552.191	14.68
552.388	14.61
552.585	14.56
552.781	14.65
552.978	14.73
553.175	14.73
553.371	14.79
553.568	14.85
553.764	14.94
553.961	14.97
554.157	15.15
554.354	15.12
554.55	15.19
554.747	15.15
554.943	15.16
555.14	15.13
555.336	15.19
555.533	15.16
555.729	15.1
555.926	15.06
556.122	15.09
556.318	14.95
556.515	15.08
556.711	15.15
556.907	15.28
557.104	15.3
557.3	15.3
557.496	15.29
557.693	15.36
557.889	15.6
558.085	15.65
558.281	15.76
558.478	15.82
558.674	15.71
558.87	15.7
559.066	15.62
559.262	15.57
559.459	15.7
559.655	15.76
559.851	15.87
560.047	15.82
560.243	15.93
560.439	15.89
560.635	15.92
560.831	16.01
561.027	16.1
561.223	16.36
561.419	16.41
561.615	16.39
561.811	16.44
562.007	16.34
562.203	16.36
562.399	16.37
562.595	16.5
562.791	16.62
562.987	16.7
563.183	16.56
563.379	16.51
563.575	16.58
563.771	16.55
563.966	16.48
564.162	16.63
564.358	16.6
564.554	16.69
564.75	16.7
564.945	16.77
565.141	16.73
565.337	16.79
565.533	16.73
565.728	16.82
565.924	16.9
566.12	16.95
566.315	16.97
566.511	17.02
566.707	16.94
566.902	16.94
567.098	16.92
567.293	16.9
567.489	16.97
567.684	17.08
567.88	17.03
568.076	17.06
568.271	17.28
568.467	17.17
568.662	17.21
568.858	17.27
569.053	17.36
569.248	17.41
569.444	17.58
569.639	17.68
569.835	17.78
570.03	17.84
570.225	17.94
570.421	17.76
570.616	17.9
570.812	17.93
571.007	17.98
571.202	17.99
571.397	17.95
571.593	18
571.788	17.9
571.983	17.75
572.178	17.76
572.374	17.81
572.569	17.9
572.764	17.82
572.959	17.8
573.154	17.85
573.35	17.9
573.545	18
573.74	18.01
573.935	18.12
574.13	18.23
574.325	18.3
574.52	18.29
574.715	18.35
574.91	18.54
575.105	18.72
575.3	18.77
575.495	18.8
575.69	18.87
575.885	18.9
576.08	19.02
576.275	19.19
576.47	19.36
576.665	19.4
576.86	19.52
577.055	19.53
577.25	19.58
577.444	19.68
577.639	19.87
577.834	20.04
578.029	20.12
578.224	20.21
578.418	20.31
578.613	20.49
578.808	20.65
579.003	20.64
579.197	20.78
579.392	20.76
579.587	20.79
579.781	20.8
579.976	20.68
580.171	20.83
580.365	20.88
580.56	20.76
580.755	20.57
580.949	20.54
581.144	20.54
581.338	20.6
581.533	20.71
581.727	20.76
581.922	20.8
582.116	20.87
582.311	20.83
582.505	20.73
582.7	20.7
582.894	20.85
583.089	20.87
583.283	20.96
583.478	20.99
583.672	21.02
583.866	20.95
584.061	21
584.255	21.03
584.449	21.11
584.644	21.24
584.838	21.45
585.032	21.44
585.226	21.47
585.421	21.57
585.615	21.62
585.809	21.74
586.003	21.83
586.198	21.83
586.392	21.99
586.586	22.11
586.78	22.13
586.974	22.2
587.168	21.96
587.363	21.86
587.557	21.74
587.751	21.77
587.945	21.6
588.139	21.62
588.333	21.45
588.527	21.3
588.721	21.05
588.915	21.05
589.109	20.9
589.303	21.08
589.497	21.12
589.691	21.15
589.885	20.99
590.079	21.04
590.273	21
590.466	21.15
590.66	21.2
590.854	21.37
591.048	21.41
591.242	21.51
591.436	21.6
591.629	21.75
591.823	21.72
592.017	21.93
592.211	21.93
592.404	22.01
592.598	21.89
592.792	21.91
592.986	21.76
593.179	21.72
593.373	21.69
593.567	21.49
593.76	21.33
593.954	21.47
594.147	21.28
594.341	21.29
594.535	21.15
594.728	21.23
594.922	21.2
595.115	21.33
595.309	21.31
595.502	21.21
595.696	21.25
595.889	21.24
596.083	21.1
596.276	21.07
596.47	20.97
596.663	20.95
596.856	20.94
597.05	20.93
597.243	20.9
597.437	21.01
597.63	21.11
597.823	21.15
598.017	21.23
598.21	21.34
598.403	21.39
598.596	21.5
598.79	21.65
598.983	21.61
599.176	21.63
599.369	21.73
599.563	21.66
599.756	21.68
599.949	21.85
600.142	21.69
600.335	21.59
600.528	21.59
600.722	21.59
600.915	21.44
601.108	21.38
601.301	21.4
601.494	21.29
601.687	21.24
601.88	21.12
602.073	20.8
602.266	20.84
602.459	20.77
602.652	20.81
602.845	20.74
603.038	20.81
603.231	20.88
603.424	20.85
603.617	20.78
603.809	20.77
604.002	20.76
604.195	20.82
604.388	20.88
604.581	20.99
604.774	20.94
604.966	20.97
605.159	20.89
605.352	20.89
605.545	20.93
605.737	21.01
605.93	21.08
606.123	21.15
606.316	21.38
606.508	21.39
606.701	21.4
606.894	21.7
607.086	21.91
607.279	22.26
607.471	22.56
607.664	22.78
607.857	23.05
608.049	23.48
608.242	23.98
608.434	24.42
608.627	25.3
608.819	26.3
609.012	27.1
609.204	28.41
609.397	29.72
609.589	31.06
609.782	32.55
609.974	34.12
610.166	35.53
610.359	37.05
610.551	38.53
610.743	39.73
610.936	40.64
611.128	41.49
611.32	41.65
611.513	41.79
611.705	41.79
611.897	41.4
612.09	40.89
612.282	40.24
612.474	39.38
612.666	38.49
612.858	37.64
613.051	36.74
613.243	36.09
613.435	35.54
613.627	34.98
613.819	34.29
614.011	33.76
614.203	33.15
614.395	32.5
614.588	32.07
614.78	31.39
614.972	30.81
615.164	30.29
615.356	29.58
615.548	28.98
615.74	28.23
615.932	27.69
616.124	27.22
616.315	26.75
616.507	26.47
616.699	25.98
616.891	25.66
617.083	25.34
617.275	25.21
617.467	25.04
617.659	24.92
617.85	24.81
618.042	24.52
618.234	24.29
618.426	24.28
618.618	24.15
618.809	24.04
619.001	23.95
619.193	23.87
619.384	23.58
619.576	23.48
619.768	23.35
619.959	23.56
620.151	23.7
620.343	23.81
620.534	23.84
620.726	23.77
620.917	23.77
621.109	23.89
621.301	23.98
621.492	24.11
621.684	24.17
621.875	24.32
622.067	24.18
622.258	24.09
622.45	24.22
622.641	24.2
622.832	24.35
623.024	24.5
623.215	24.51
623.407	24.56
623.598	24.59
623.789	24.58
623.981	24.47
624.172	24.41
624.363	24.48
624.555	24.44
624.746	24.32
624.937	24.26
625.129	24.18
625.32	24.07
625.511	23.99
625.702	24
625.893	23.99
626.085	23.99
626.276	23.97
626.467	24.05
626.658	23.83
626.849	23.95
627.04	23.97
627.231	23.96
627.422	24.15
627.614	24.19
627.805	24.37
627.996	24.46
628.187	24.51
628.378	24.74
628.569	24.89
628.76	25.22
628.951	25.44
629.142	25.69
629.332	25.84
629.523	25.95
629.714	25.91
629.905	25.9
630.096	26.04
630.287	26.33
630.478	26.18
630.669	26.13
630.859	26.06
631.05	25.78
631.241	25.64
631.432	25.36
631.623	25
631.813	25.01
632.004	24.82
632.195	24.48
632.385	24.06
632.576	23.98
632.767	23.68
632.957	23.53
633.148	23.41
633.339	23.1
633.529	23.08
633.72	23.08
633.91	22.86
634.101	22.7
634.292	22.68
634.482	22.65
634.673	22.68
634.863	22.65
635.054	22.53
635.244	22.55
635.435	22.56
635.625	22.65
635.815	22.59
636.006	22.67
636.196	22.75
636.387	22.72
636.577	22.8
636.767	22.7
636.958	22.81
637.148	22.67
637.338	22.59
637.529	22.58
637.719	22.5
637.909	22.56
638.099	22.67
638.29	22.56
638.48	22.57
638.67	22.43
638.86	22.43
639.05	22.3
639.241	22.45
639.431	22.5
639.621	22.6
639.811	22.55
640.001	22.54
640.191	22.32
640.381	22.45
640.571	22.38
640.761	22.49
640.951	22.41
641.141	22.57
641.331	22.48
641.521	22.58
641.711	22.57
641.901	22.72
642.091	22.77
642.281	22.75
642.471	22.78
642.661	22.93
642.851	23.09
643.041	23.2
643.231	23.16
643.42	23.39
643.61	23.53
643.8	23.58
643.99	23.46
644.18	23.37
644.369	23.57
644.559	23.65
644.749	23.66
644.939	23.5
645.128	23.34
645.318	23.3
645.508	23.25
645.697	23.04
645.887	22.83
646.076	22.8
646.266	22.8
646.456	22.67
646.645	22.5
646.835	22.41
647.024	22.42
647.214	22.57
647.403	22.47
647.593	22.58
647.782	22.62
647.972	22.76
648.161	22.74
648.351	22.94
648.54	23.02
648.73	23.22
648.919	23.31
649.108	23.53
649.298	23.56
649.487	23.78
649.677	23.81
649.866	23.92
650.055	24.16
650.244	24.36
650.434	24.22
650.623	24.33
650.812	24.25
651.002	24.26
651.191	24.04
651.38	23.96
651.569	23.89
651.758	23.74
651.947	23.6
652.137	23.57
652.326	23.41
652.515	23.42
652.704	23.45
652.893	23.4
653.082	23.55
653.271	23.42
653.46	23.33
653.649	23.38
653.838	23.43
654.027	23.34
654.216	23.26
654.405	23.14
654.594	23.06
654.783	22.89
654.972	23
655.161	22.8
655.35	23.01
655.539	23.12
655.728	23.11
655.916	23.06
656.105	23.21
656.294	23.14
656.483	23.42
656.672	23.28
656.86	23.22
657.049	23.1
657.238	23.04
657.427	22.96
657.615	23.03
657.804	22.91
657.993	23.11
658.181	23.07
658.37	23.22
658.559	23.23
658.747	23.46
658.936	23.47
659.125	23.13
659.313	23.07
659.502	22.98
659.69	23
659.879	23.09
660.067	23.02
660.256	23.03
660.444	22.8
660.633	22.66
660.821	22.69
661.01	22.79
661.198	23.21
661.387	23.47
661.575	23.72
661.763	23.59
661.952	23.55
662.14	23.56
662.328	23.71
662.517	23.98
662.705	24.18
662.893	24.03
663.082	24.22
663.27	24.42
663.458	24.47
663.646	24.51
663.834	24.62
664.023	24.84
664.211	24.79
664.399	24.75
664.587	24.53
664.775	24.53
664.963	24.67
665.152	24.41
665.34	24.4
665.528	24.28
665.716	23.92
665.904	23.99
666.092	23.94
666.28	23.94
666.468	23.75
666.656	23.87
666.844	23.78
667.032	23.67
667.22	23.82
667.408	23.66
667.596	23.82
667.784	24.01
667.971	23.95
668.159	23.77
668.347	23.61
668.535	23.72
668.723	24
668.911	24.03
669.098	23.86
669.286	23.7
669.474	23.77
669.662	23.52
669.849	23.43
670.037	23.54
670.225	23.48
670.413	23.72
670.6	23.66
670.788	23.15
670.976	23.31
671.163	23.52
671.351	23.68
671.538	23.74
671.726	23.91
671.913	24.12
672.101	23.96
672.289	24.07
672.476	23.89
672.664	23.84
672.851	24.13
673.039	23.92
673.226	23.88
673.413	23.8
673.601	23.54
673.788	23.24
673.976	23.06
674.163	23.07
674.35	23.22
674.538	23.16
674.725	23.31
674.912	23.29
675.1	23.18
675.287	23.31
675.474	23.38
675.662	23.72
675.849	23.88
676.036	23.88
676.223	23.87
676.411	24.04
676.598	24.25
676.785	24.09
676.972	23.98
677.159	24.05
677.346	24.03
677.533	23.79
677.721	23.67
677.908	23.79
678.095	23.98
678.282	23.84
678.469	23.36
678.656	23.4
678.843	23.6
679.03	23.71
679.217	23.81
679.404	23.6
679.591	23.9
679.778	23.9
679.964	23.83
680.151	23.59
680.338	23.69
680.525	23.8
680.712	23.79
680.899	23.82
681.086	23.87
681.272	24.03
681.459	24.16
681.646	24.17
681.833	24.36
682.02	24.36
682.206	24.35
682.393	24.4
682.58	24.47
682.766	24.4
682.953	24.25
683.14	24.3
683.326	24.15
683.513	24.42
683.7	24.33
683.886	24.11
684.073	24.19
684.259	24.76
684.446	25.01
684.632	25.17
684.819	25.15
685.005	25.44
685.192	25.63
685.378	25.84
685.565	25.87
685.751	25.86
685.938	25.99
686.124	26.01
686.31	25.81
686.497	25.88
686.683	25.84
686.87	25.81
687.056	25.78
687.242	25.52
687.429	25.1
687.615	25.2
687.801	25.39
687.987	25.55
688.174	25.44
688.36	25.59
688.546	25.39
688.732	25.43
688.918	25.44
689.105	25.5
689.291	25.53
689.477	25.73
689.663	25.45
689.849	25.4
690.035	25.33
690.221	25.39
690.407	25.33
690.593	25.27
690.779	25.27
690.965	25.72
691.151	25.44
691.337	25.43
691.523	25.45
691.709	25.53
691.895	25.83
692.081	25.53
692.267	25.51
692.453	25.54
692.639	25.59
692.825	25.7
693.011	25.37
693.196	25.55
693.382	25.54
693.568	25.76
693.754	25.92
693.94	25.41
694.125	25.59
694.311	25.99
694.497	25.82
694.682	26.08
694.868	25.98
695.054	26.2
695.239	26.16
695.425	26.13
695.611	25.81
695.796	25.67
695.982	25.79
696.168	25.69
696.353	25.61
696.539	25.37
696.724	25.25
696.91	25.25
697.095	24.85
697.281	24.94
697.466	24.64
697.652	24.68
697.837	24.51
698.023	24.41
698.208	24.35
698.393	24.32
698.579	24.38
698.764	24.31
698.949	24.36
699.135	24.44
699.32	24.44
699.505	24.81
699.691	24.83
699.876	25
700.061	25.22
700.246	25.28
700.432	25.31
700.617	25.39
700.802	25.46
700.987	25.5
701.172	25.49
701.358	25.47
701.543	25.44
701.728	25.82
701.913	26.02
702.098	25.81
702.283	26.13
702.468	26.1
702.653	26.45
702.838	26.69
703.023	26.82
703.208	27.11
703.393	27.21
703.578	27.45
703.763	27.44
703.948	27.58
704.133	28.44
704.318	28.75
704.503	29.2
704.688	29.4
704.873	29.95
705.057	30.54
705.242	30.96
705.427	31.51
705.612	31.88
705.797	31.77
705.981	32.11
706.166	31.93
706.351	31.79
706.536	31.97
706.72	31.81
706.905	31.57
707.09	31.45
707.274	31.65
707.459	31.56
707.644	31.63
707.828	32.23
708.013	32.49
708.197	32.51
708.382	32.66
708.567	32.57
708.751	32.93
708.936	32.52
709.12	32.51
709.305	32
709.489	31.83
709.673	31.49
709.858	31.39
710.042	31.25
710.227	30.93
710.411	30.7
710.596	30.73
710.78	30.83
710.964	31.07
711.149	30.85
711.333	31.08
711.517	31.18
711.702	31.32
711.886	30.98
712.07	30.52
712.254	30.67
712.438	30.56
712.623	30.12
712.807	29.61
712.991	29.43
713.175	29.1
713.359	28.71
713.544	28.45
713.728	28.12
713.912	27.66
714.096	27.89
714.28	27.69
714.464	27.51
714.648	27.55
714.832	27.29
715.016	27.28
715.2	27.2
715.384	27.27
715.568	27.07
715.752	26.99
715.936	26.99
716.12	26.53
716.304	26.25
716.488	26.27
716.671	25.67
716.855	25.65
717.039	25.3
717.223	25
717.407	24.84
717.59	24.64
717.774	24.38
717.958	24.7
718.142	24.41
718.325	24.59
718.509	24.62
718.693	24.9
718.877	24.54
719.06	24.84
719.244	25.19
719.428	25.55
719.611	25.56
719.795	25.7
719.978	25.44
720.162	25.78
720.345	26.02
720.529	26.07
720.713	26.3
720.896	26.85
721.08	26.48
721.263	26.67
721.446	26.4
721.63	26.57
721.813	26.33
721.997	26.44
722.18	26.16
722.364	26.11
722.547	25.97
722.73	26.17
722.914	26.17
723.097	26.71
723.28	26.64
723.464	26.63
723.647	27.02
723.83	27.24
724.013	27.36
724.197	27.52
724.38	27.44
724.563	27.51
724.746	27.41
724.929	27.08
725.112	26.65
725.296	26.69
725.479	26.61
725.662	25.94
725.845	25.71
726.028	25.65
726.211	25.67
726.394	25.26
726.577	25.69
726.76	26
726.943	25.97
727.126	26.17
727.309	26.3
727.492	26.49
727.675	26.5
727.858	26.69
728.041	26.36
728.224	26.22
728.407	26.18
728.589	25.96
728.772	25.39
728.955	25.96
729.138	25.55
729.321	25.54
729.503	25.53
729.686	25.63
729.869	25.92
730.052	25.88
730.234	25.89
730.417	25.96
730.6	25.9
730.782	26.1
730.965	25.79
731.148	25.89
731.33	25.61
731.513	25.23
731.695	25.28
731.878	24.9
732.061	25.41
732.243	25.83
732.426	26.02
732.608	25.98
732.791	25.85
732.973	26.03
733.156	26.31
733.338	26.71
733.52	26.68
733.703	26.59
733.885	27.31
734.068	27.29
734.25	26.96
734.432	27.04
734.615	27.21
734.797	27.39
734.979	27.57
735.162	27.42
735.344	26.96
735.526	27.56
735.708	27.77
735.891	27.47
736.073	27.57
736.255	27.39
736.437	27.31
736.619	27.27
736.802	27.38
736.984	26.85
737.166	27.45
737.348	28.15
737.53	28.12
737.712	28.64
737.894	28.69
738.076	28.31
738.258	29.04
738.44	29.43
738.622	29.25
738.804	29.37
738.986	29.69
739.168	29.61
739.35	29.19
739.532	29.2
739.714	28.91
739.896	28.99
740.078	28.93
740.259	29.21
740.441	28.95
740.623	29.51
740.805	29.92
740.987	29.91
741.168	30.09
741.35	30.14
741.532	30.15
741.714	30.21
741.895	29.89
742.077	30.61
742.259	30.33
742.44	30.94
742.622	30.37
742.804	29.98
742.985	29.5
743.167	28.91
743.348	29.46
743.53	29.42
743.711	29.56
743.893	29.53
744.075	29.17
744.256	29.13
744.438	28.6
744.619	28.88
744.8	28.51
744.982	28.92
745.163	29.75
745.345	29.22
745.526	29.89
745.707	30.15
745.889	30.39
746.07	31.02
746.252	30.66
746.433	30.94
746.614	30.98
746.795	31.44
746.977	31.66
747.158	31.4
747.339	31.74
747.52	31.03
747.702	30.84
747.883	31.04
748.064	30.07
748.245	30.07
748.426	30
748.607	29.9
748.788	29.74
748.97	29.85
749.151	29.49
749.332	29.33
749.513	29.46
749.694	29.99
749.875	30.04
750.056	30.55
750.237	30.88
750.418	31.17
750.599	31.09
750.78	31.29
750.96	31.18
751.141	31.62
751.322	32.1
751.503	32.15
751.684	31.77
751.865	31.16
752.046	30.99
752.226	30.73
752.407	30.53
752.588	30.49
752.769	30.64
752.949	30.45
753.13	29.28
753.311	29.14
753.492	28.93
753.672	28.44
753.853	28.92
754.034	29.84
754.214	30.12
754.395	29.69
754.575	30.66
754.756	30.45
754.937	30.8
755.117	31.99
755.298	31.74
755.478	32.2
755.659	32.32
755.839	32.34
756.02	31.79
756.2	31.46
756.381	32
756.561	31.11
756.741	30.9
756.922	30.71
757.102	30.33
757.283	29.78
757.463	29.44
757.643	29.83
757.823	30.25
758.004	29.5
758.184	29.69
758.364	28.97
758.545	28.8
758.725	28.35
758.905	28.08
759.085	28
759.265	28.33
759.446	28.02
759.626	27.44
759.806	26.19
759.986	26.09
760.166	26.36
760.346	26.23
760.526	26.28
760.706	26.57
760.886	26.57
761.066	26.05
761.246	25.76
761.426	26.09
761.606	25.81
761.786	26.67
761.966	26.62
762.146	26.11
762.326	25.89
762.506	25.69
762.686	25.21
762.866	25.05
763.046	25.65
763.225	25.81
763.405	25.25
763.585	25.28
763.765	24.73
763.945	24.78
764.124	24.83
764.304	25.12
764.484	24.94
764.664	25.22
764.843	25.62
765.023	25.17
765.203	25.44
765.382	26.43
765.562	26.52
765.741	27.43
765.921	27.92
766.101	27.87
766.28	28.13
766.46	28.91
766.639	29.7
766.819	29.94
766.998	30.64
767.178	31.01
767.357	30.35
767.537	30.83
767.716	30.26
767.896	30.38
768.075	31.11
768.254	31.33
768.434	31.05
768.613	30.63
768.792	30.34
768.972	30.48
769.151	30
769.33	30.23
769.51	30.36
769.689	30.72
769.868	30.46
770.047	30.14
770.226	30.07
770.406	30.26
770.585	30.58
770.764	31.09
770.943	30.78
771.122	31.01
771.301	31.92
771.48	31.82
771.66	31.23
771.839	31.3
772.018	31.49
772.197	31.63
772.376	32.27
772.555	32.7
772.734	32.37
772.913	32.88
773.092	33.26
773.271	33.34
773.449	33.36
773.628	34.17
773.807	34.19
773.986	34.32
774.165	34.21
774.344	33.62
774.523	33.05
774.701	32.67
774.88	32.95
775.059	32.2
775.238	32.13
775.417	32.14
775.595	32.2
775.774	32.34
775.953	32.31
776.131	32.65
776.31	33.18
776.489	32.67
776.667	32.85
776.846	32.35
777.025	32.35
777.203	31.85
777.382	32.23
777.56	32.11
777.739	32.2
777.917	32.04
778.096	32.73
778.274	31.83
778.453	32.47
778.631	33.54
778.81	33.59
778.988	33.23
779.166	33.47
779.345	33.24
779.523	33.68
779.702	33.53
779.88	33.68
780.058	33.13
780.237	33.93
780.415	34.52
780.593	34.71
780.771	34.74
780.95	35.59
781.128	35.17
781.306	35.9
781.484	35.19
781.662	35.35
781.841	35.64
782.019	34.98
782.197	34.82
782.375	34.95
782.553	33.67
782.731	33.55
782.909	32.61
783.087	33.09
783.265	32.88
783.443	33.97
783.621	33.55
783.799	33.48
783.977	33.46
784.155	33.59
784.333	33.06
784.511	33.28
784.689	33.7
784.867	34.58
785.045	34.17
785.223	33.89
785.4	31.77
785.578	32.96
785.756	33.39
785.934	33.64
786.112	33.64
786.289	32.12
786.467	32.79
786.645	31.75
786.823	31.16
787	30.57
787.178	30.71
787.356	31.63
787.533	30.38
787.711	29.75
787.889	29.46
788.066	30.02
788.244	31.02
788.421	30.63
788.599	31.44
788.776	31.5
788.954	31.42
789.131	30.95
789.309	31
789.486	32.12
789.664	32.25
789.841	32.55
790.019	31.84
790.196	31
790.373	30.45
790.551	30.2
790.728	30.92
790.906	31.36
791.083	30.35
791.26	30.52
791.437	30.16
791.615	30.24
791.792	30.85
791.969	30.2
792.146	30.67
792.324	30.42
792.501	30.28
792.678	29.54
792.855	29.93
793.032	31.55
793.209	30.89
793.387	30.61
793.564	29.83
793.741	29.64
793.918	31.06
794.095	32.06
794.272	33.41
794.449	32.96
794.626	32.88
794.803	32.5
794.98	32.16
795.157	32.38
795.334	32.7
795.511	32.84
795.688	32.92
795.864	31.88
796.041	31.42
796.218	30.09
796.395	30.59
796.572	31.15
796.749	31.88
796.925	31.34
797.102	31.99
797.279	31.08
797.456	30.86
797.632	30.71
797.809	30.69
797.986	31.21
798.162	31.96
798.339	31.45
798.516	30.68
798.692	30.26
798.869	31.16
799.046	30.9
799.222	31.49
799.399	31.65
799.575	30.9
799.752	31.61
799.928	31.84
800.105	32.13
800.281	33.29
800.458	33.71
800.634	33.51
800.811	32.69
800.987	32.18
801.163	32.5
801.34	32.5
801.516	32.39
801.692	32.79
801.869	31.67
802.045	31.95
802.221	31.68
802.398	32.5
802.574	32.29
802.75	32.99
802.926	33.64
803.103	32.45
803.279	31.98
803.455	32.33
803.631	30.93
803.807	31.49
803.983	31.54
804.16	32.3
804.336	31.18
804.512	32.76
804.688	31.62
804.864	31.08
805.04	32.46
805.216	32.63
805.392	33.51
805.568	33.64
805.744	33.22
805.92	33.06
806.096	30.64
806.272	31.33
806.448	29.63
806.623	30.54
806.799	31.82
806.975	31.19
807.151	31.63
807.327	31.18
807.503	30.97
807.678	31.83
807.854	31.26
808.03	32.6
808.206	32.1
808.381	33.12
808.557	32.87
808.733	31.88
808.908	31.78
809.084	31.04
809.26	31.39
809.435	32.74
809.611	30.95
809.787	30.95
809.962	30.81
810.138	31.87
810.313	31.89
810.489	32.7
810.664	32.08
810.84	31.14
811.015	32.67
811.191	31.53
811.366	31
811.542	31.8
811.717	31.1
811.892	30.52
812.068	29.57
812.243	29.01
812.419	28.24
812.594	28.09
812.769	28.35
812.944	25.65
813.12	26.02
813.295	25.59
813.47	25.14
813.645	25.82
813.821	27.52
813.996	27.11
814.171	26.72
814.346	25.4
814.521	26.25
814.697	27.66
814.872	29.24
815.047	29.08
815.222	30.14
815.397	30.77
815.572	30.2
815.747	28.36
815.922	28.32
816.097	27.08
816.272	28.09
816.447	27.78
816.622	27.71
816.797	27.81
816.972	27.63
817.147	26.92
817.322	26.1
817.496	27.02
817.671	27.18
817.846	27.01
818.021	27.72
818.196	26.54
818.371	27.07
818.545	26.17
818.72	26.33
818.895	26.96
819.069	26.21
819.244	26.56
819.419	26.56
819.594	26.89
819.768	27.38
819.943	27.45
820.117	27.96
820.292	27.1
820.467	27.07
820.641	26.89
820.816	26.05
820.99	26.33
821.165	26.28
821.339	25.53
821.514	25.3
821.688	25.08
821.863	24.83
822.037	24.63
822.212	24.63
822.386	24.53
822.56	24.42
822.735	24.42
822.909	24.28
823.084	24.15
823.258	24.18
823.432	24.34
823.606	24.3
823.781	24.44
823.955	24.68
824.129	24.87
824.303	25.03
824.478	25.42
824.652	25.53
824.826	25.74
825	26.15
825.174	26.4
825.348	26.17
825.523	26.1
825.697	25.9
825.871	25.63
826.045	25.4
826.219	25.03
826.393	25.06
826.567	25.29
826.741	24.99
826.915	24.5
827.089	24.84
827.263	24.63
827.437	25.21
827.611	25.59
827.784	25.8
827.958	26.05
828.132	26.28
828.306	25.66
828.48	26.01
828.654	26.14
828.827	26.35
829.001	25.91
829.175	26.55
829.349	26.4
829.522	26.97
829.696	27.22
829.87	27.45
830.044	27.6
830.217	29.7
830.391	29.33
830.565	29.75
830.738	31.33
830.912	32.27
831.085	32.01
831.259	31.68
831.432	30.5
831.606	30.66
831.779	29.43
831.953	30.43
832.126	28.56
832.3	28.54
832.473	29.19
832.647	27.79
832.82	27.67
832.994	26.87
833.167	27.06
833.34	26.73
833.514	27.11
833.687	27.61
833.86	27.53
834.034	27.19
834.207	27.11
834.38	26.54
834.553	26.5
834.727	26.54
834.9	27.15
835.073	26.87
835.246	26.56
835.419	25.79
835.593	25.6
835.766	24.86
835.939	25.02
836.112	25.32
836.285	25.4
836.458	26.07
836.631	25.33
836.804	24.88
836.977	25.61
837.15	27.34
837.323	28.51
837.496	29.39
837.669	29.18
837.842	30.28
838.015	30.84
838.188	31.96
838.361	32.55
838.533	32.57
838.706	34.22
838.879	34.06
839.052	34.78
839.225	34.93
839.398	34.79
839.57	35.8
839.743	34.78
839.916	32.55
840.088	32.71
840.261	30.73
840.434	32.24
840.607	31.73
840.779	31.5
840.952	30.39
841.124	29.35
841.297	29.21
841.47	29.79
841.642	29.75
841.815	31.95
841.987	30.72
842.16	31.72
842.332	31.71
842.505	31.25
842.677	32.63
842.85	32.97
843.022	33.15
843.194	33.22
843.367	33.45
843.539	34.37
843.712	34.26
843.884	34.14
844.056	34.35
844.229	34.85
844.401	35.79
844.573	35.61
844.745	36.93
844.918	35.79
845.09	37.02
845.262	35.73
845.434	34
845.606	32.54
845.779	35.36
845.951	36.69
846.123	37.31
846.295	37.86
846.467	37.38
846.639	35.09
846.811	35.89
846.983	36.06
847.155	36.43
847.327	37.41
847.499	37.56
847.671	34.55
847.843	34.8
848.015	32.79
848.187	30.12
848.359	29.76
848.531	30.31
848.703	30.84
848.875	25.81
849.047	26.83
849.218	23.95
849.39	24.17
849.562	25.11
849.734	26.59
849.905	26.62
850.077	28.47
850.249	28.64
850.421	28.28
850.592	26.59
850.764	29.87
850.936	27.94
851.107	32.18
851.279	33.72
851.451	34.35
851.622	30.03
851.794	29.33
851.965	33.09
852.137	30.8
852.308	29.15
852.48	34.36
852.651	33.11
852.823	35.36
852.994	31.89
853.166	31.63
853.337	31.81
853.509	31.82
853.68	35.04
853.851	30.13
854.023	30.25
854.194	31.47
854.365	27.81
854.537	28.93
854.708	28.62
854.879	29.41
855.05	28.42
855.222	29.17
855.393	31.98
855.564	28.95
855.735	28.2
855.906	29.89
856.078	31.49
856.249	30.1
856.42	30.54
856.591	31.48
856.762	33.96
856.933	33.88
857.104	28.21
857.275	29.02
857.446	32.42
857.617	35.16
857.788	32.92
857.959	32.55
858.13	35.88
858.301	32.75
858.472	29.02
858.643	26.24
858.814	27.23
858.985	30.74
859.155	29.9
859.326	29.28
859.497	34.28
859.668	34.99
859.839	32.61
860.009	31.47
860.18	34.63
860.351	37.43
860.522	36.65
860.692	33.96
860.863	33.74
861.034	32.6
861.204	30.45
861.375	27.08
861.546	28.21
861.716	31.97
861.887	31.15
862.057	32.66
862.228	28.86
862.398	31.88
862.569	32.11
862.739	33.28
862.91	35.37
863.08	32.09
863.251	28.67
863.421	26.48
863.592	25.51
863.762	25.67
863.932	23.54
864.103	27.15
864.273	25.15
864.443	27.42
864.614	23.59
864.784	17.1
864.954	20.54
865.125	20.81
865.295	23.62
865.465	21.05
865.635	20.75
865.805	23.66
865.976	25.18
866.146	25.75
866.316	21.94
866.486	24.05
866.656	25.37
866.826	28.02
866.996	27.48
867.166	28.15
867.336	23.12
867.506	20.7
867.676	20.38
867.846	15.19
868.016	14.58
868.186	18.13
868.356	19.37
868.526	21.49
868.696	23.61
868.866	23.5
869.036	20.76
869.206	25.22
869.376	29.91
869.545	28.91
869.715	35.15
869.885	34.94
870.055	39.57
870.224	36.28
870.394	34.06
870.564	29.36
870.734	28.83
870.903	33.21
871.073	36.17
871.243	30.83
871.412	31.62
871.582	29.44
871.751	24.67
871.921	20.02
872.091	22.76
872.26	24.11
872.43	24.32
872.599	28.36
872.769	24
872.938	23.38
873.108	28.65
873.277	27.6
873.446	26.97
873.616	29.3
873.785	27.99
873.955	26.86
874.124	29.41
874.293	28.01
874.463	27.31
874.632	29.21
874.801	30.66
874.971	25.94
875.14	27.6
875.309	29.03
875.478	30.23
875.647	32.08
875.817	31.28
875.986	31.42
876.155	29.72
876.324	28.03
876.493	27.88
876.662	28.37
876.831	29.05
877	27.19
877.17	26.96
877.339	30.93
877.508	25.61
877.677	25.93
877.846	26.79
878.015	31.51
878.184	30.22
878.352	30.23
878.521	26.76
878.69	27.67
878.859	24.02
879.028	22.99
879.197	21.5
879.366	24.7
879.534	25.81
879.703	23.84
879.872	24.59
880.041	25.38
880.21	24.98
880.378	24.63
880.547	24.59
880.716	27.15
880.884	26.87
881.053	26.22
881.222	26.49
881.39	25.28
881.559	25.49
881.727	25.42
881.896	24.71
882.065	24.74
882.233	24.82
882.402	24.62
882.57	24.27
882.739	23.75
882.907	23.29
883.076	22.98
883.244	24.04
883.412	23.64
883.581	23.78
883.749	23.94
883.918	23.51
884.086	22.95
884.254	23.57
884.423	23.21
884.591	23.76
884.759	24.42
884.927	24.8
885.096	24.11
885.264	24.82
885.432	24.48
885.6	24.68
885.769	25.99
885.937	27.52
886.105	26.93
886.273	28.06
886.441	27.33
886.609	29.13
886.777	28.19
886.945	29.08
887.113	28.49
887.281	26.31
887.449	28.06
887.617	28.02
887.785	28
887.953	28.97
888.121	27.58
888.289	28.1
888.457	22.8
888.625	24.53
888.793	24.81
888.961	23.85
889.129	28.03
889.296	27.45
889.464	26.5
889.632	26.4
889.8	23.59
889.967	22.11
890.135	23.61
