Data from 2938802__Reflection_01.txt Node
Date: Thu Mar 12 22:37:20 EDT 2015
User: robert
Spectrometer: USB4E03002
Autoset integration time: false
Trigger mode: 4
Integration Time (sec): 1.000000E-1
Scans to average: 10
Electric dark correction enabled: false
Nonlinearity correction enabled: false
Boxcar width: 5
Stray light correction enabled: false
XAxis mode: Wavelengths
Stop averaging: false
Number of Pixels in Spectrum: 3648
>>>>>Begin Spectral Data<<<<<
177.575	60.75
177.794	-44.44
178.014	14.1
178.233	-26
178.452	21.54
178.672	24.94
178.891	10.39
179.11	-14.94
179.33	4
179.549	7.69
179.768	36.12
179.987	36.24
180.207	46.11
180.426	56.26
180.645	57.25
180.864	70.42
181.084	76.76
181.303	59.1
181.522	66.79
181.741	58.26
181.96	70.67
182.179	62.67
182.398	70.23
182.618	66.17
182.837	60.89
183.056	69.82
183.275	63.86
183.494	61.93
183.713	75.31
183.932	73.52
184.151	75.91
184.37	67.73
184.589	65.32
184.808	70.16
185.027	87.38
185.246	92.55
185.465	79.3
185.684	89.3
185.903	84.48
186.122	80.97
186.341	80.7
186.56	83.96
186.779	89.18
186.998	96.01
187.216	87.26
187.435	69.53
187.654	75.32
187.873	80.6
188.092	72.76
188.311	86.72
188.53	83.18
188.748	79.69
188.967	75.66
189.186	67.6
189.405	66
189.623	63.36
189.842	71.91
190.061	65.63
190.28	62.58
190.498	63.79
190.717	54.73
190.936	54.37
191.154	55.63
191.373	53.21
191.592	56.92
191.81	59.83
192.029	60.84
192.248	56.19
192.466	45.61
192.685	46.03
192.904	45.81
193.122	47.31
193.341	49.64
193.559	60.59
193.778	64.9
193.996	47.16
194.215	44.42
194.433	53.74
194.652	58.72
194.87	76.93
195.089	81.39
195.307	87.27
195.526	79.07
195.744	80.99
195.963	68.64
196.181	66.24
196.399	90.86
196.618	78.3
196.836	77.62
197.055	79.1
197.273	67.43
197.491	74.66
197.71	69.72
197.928	79.66
198.146	67.09
198.365	59.89
198.583	67.38
198.801	62.53
199.019	69.01
199.238	73.76
199.456	70.5
199.674	76.9
199.892	67.9
200.111	70.42
200.329	71.09
200.547	82.7
200.765	93
200.983	86.91
201.202	75
201.42	79.95
201.638	77.16
201.856	78.11
202.074	79.07
202.292	80.94
202.51	73.3
202.728	74.15
202.946	72.96
203.165	73.73
203.383	68.82
203.601	76.53
203.819	82.74
204.037	72.98
204.255	75.73
204.473	70.87
204.691	62.1
204.909	59.37
205.127	56.32
205.345	55.75
205.562	60.14
205.78	69.28
205.998	66.37
206.216	57.56
206.434	69.76
206.652	67.37
206.87	72.48
207.088	74.54
207.306	79.65
207.523	73.03
207.741	70.35
207.959	76.09
208.177	62.88
208.395	62.98
208.612	70.3
208.83	61.29
209.048	66.75
209.266	63.42
209.483	65.66
209.701	59.87
209.919	66.42
210.136	61.94
210.354	59.53
210.572	64.08
210.79	59.94
211.007	52.78
211.225	54.29
211.442	50.05
211.66	55.17
211.878	51.22
212.095	50.99
212.313	51.28
212.53	52.47
212.748	45.63
212.966	46.53
213.183	40.75
213.401	48.61
213.618	48.48
213.836	48.43
214.053	42.42
214.271	39.61
214.488	47.03
214.705	48.41
214.923	48.8
215.14	45.13
215.358	43.37
215.575	58.06
215.793	50.33
216.01	46.32
216.227	46.22
216.445	47.65
216.662	54.76
216.879	52.29
217.097	40.15
217.314	33.93
217.531	45.3
217.749	45.79
217.966	43.07
218.183	33.04
218.4	36.34
218.618	37.81
218.835	40.87
219.052	37.19
219.269	35.52
219.487	39.78
219.704	46.39
219.921	43.62
220.138	37.46
220.355	40.06
220.572	48.6
220.79	43.81
221.007	37.51
221.224	37.55
221.441	36.65
221.658	34.22
221.875	31.83
222.092	26.36
222.309	24.98
222.526	30.66
222.743	28.46
222.96	27.64
223.177	26.18
223.394	31
223.611	29.31
223.828	31.26
224.045	32.65
224.262	34.87
224.479	35.78
224.696	36.74
224.913	33.12
225.13	31.36
225.347	26.02
225.564	26.83
225.781	25.04
225.997	22.75
226.214	19.96
226.431	16.38
226.648	12.56
226.865	12.18
227.082	11.1
227.298	8.97
227.515	7.92
227.732	8.39
227.949	7.87
228.165	6.63
228.382	5.79
228.599	5.74
228.816	6.27
229.032	6.23
229.249	5.69
229.466	4.48
229.682	4.56
229.899	4.95
230.116	4.19
230.332	4.03
230.549	3.97
230.765	5.56
230.982	6.96
231.199	7.14
231.415	8.39
231.632	10.09
231.848	11.63
232.065	12.34
232.281	11.82
232.498	12.43
232.714	12.8
232.931	13.77
233.147	11.38
233.364	9.07
233.58	8.52
233.797	7.99
234.013	6.63
234.23	6.46
234.446	7.39
234.662	7.96
234.879	8.24
235.095	7.65
235.312	6.6
235.528	7.73
235.744	9.19
235.961	9.4
236.177	8.88
236.393	8.57
236.61	8.53
236.826	8.49
237.042	7.91
237.258	8.12
237.475	8.76
237.691	9.72
237.907	9.22
238.123	7.65
238.339	7.3
238.556	8.35
238.772	7.93
238.988	8.35
239.204	7.73
239.42	7.23
239.636	6.72
239.853	7.16
240.069	6.42
240.285	5.57
240.501	4.16
240.717	4.66
240.933	3.83
241.149	3.89
241.365	3.03
241.581	3.09
241.797	2.98
242.013	3.47
242.229	3.63
242.445	3.82
242.661	4.05
242.877	4.58
243.093	4.69
243.309	5.03
243.525	5.02
243.741	5.24
243.957	5.31
244.173	5.7
244.388	5.55
244.604	4.65
244.82	4.05
245.036	3.77
245.252	4.08
245.468	3.03
245.683	2.91
245.899	3.44
246.115	3.55
246.331	3.58
246.547	3.8
246.762	3.69
246.978	3.8
247.194	3.78
247.409	3.94
247.625	3.96
247.841	3.95
248.057	3.89
248.272	3.61
248.488	3.68
248.703	3.92
248.919	3.82
249.135	4.34
249.35	4.63
249.566	5.36
249.782	5.37
249.997	5.68
250.213	6.5
250.428	6.86
250.644	6.72
250.859	6.49
251.075	6.03
251.29	5.29
251.506	4.58
251.721	4.34
251.937	3.71
252.152	3.72
252.368	3.55
252.583	3.24
252.798	2.96
253.014	3.05
253.229	2.96
253.445	3.41
253.66	3.54
253.875	2.86
254.091	2.58
254.306	3.22
254.521	2.67
254.737	2.73
254.952	2.83
255.167	2.87
255.383	2.48
255.598	2.88
255.813	2.15
256.028	2.65
256.244	3.56
256.459	4.07
256.674	4.39
256.889	4.81
257.104	4.84
257.32	4.84
257.535	4.87
257.75	5.85
257.965	6.32
258.18	6.06
258.395	5.67
258.61	5.06
258.826	4.78
259.041	4.21
259.256	4.1
259.471	4.11
259.686	4.27
259.901	4.27
260.116	3.6
260.331	3.23
260.546	3.18
260.761	3.34
260.976	3.7
261.191	3.73
261.406	3.81
261.621	4.13
261.836	3.99
262.05	3.82
262.265	3.48
262.48	4.1
262.695	4.44
262.91	4.65
263.125	4.93
263.34	4.92
263.555	5.01
263.769	4.61
263.984	4.3
264.199	4.49
264.414	4.55
264.629	5.35
264.843	5.89
265.058	5.31
265.273	4.73
265.488	4.28
265.702	3.96
265.917	3.76
266.132	4.25
266.346	4.17
266.561	3.89
266.776	4.16
266.99	3.55
267.205	3.16
267.42	3.12
267.634	3.72
267.849	3.67
268.063	3.82
268.278	3.95
268.492	3.96
268.707	3.81
268.922	3.9
269.136	3.3
269.351	3.97
269.565	3.91
269.78	4.19
269.994	3.98
270.209	3.98
270.423	3.47
270.637	3.19
270.852	2.87
271.066	2.94
271.281	2.97
271.495	3.09
271.709	3.09
271.924	3.01
272.138	2.76
272.353	2.51
272.567	2.61
272.781	3.03
272.996	3.31
273.21	3.53
273.424	3.35
273.638	3.38
273.853	3.27
274.067	2.75
274.281	2.8
274.495	2.93
274.71	2.9
274.924	2.72
275.138	2.55
275.352	2.34
275.566	2.5
275.781	2.61
275.995	2.37
276.209	2.69
276.423	3.09
276.637	3.21
276.851	3.41
277.065	3.77
277.279	4.32
277.493	4.09
277.707	3.99
277.921	3.94
278.135	4.24
278.349	4.42
278.563	4.2
278.777	4.18
278.991	3.68
279.205	3.42
279.419	3.61
279.633	3.03
279.847	3.16
280.061	3.46
280.275	3.38
280.489	3.51
280.703	3.33
280.917	3.23
281.131	3.05
281.344	3.2
281.558	3.25
281.772	2.71
281.986	2.34
282.2	2.38
282.414	2.57
282.627	2.58
282.841	2.33
283.055	2.34
283.269	2.56
283.482	2.55
283.696	2.64
283.91	2.58
284.123	2.99
284.337	3.53
284.551	3.39
284.764	3.37
284.978	3.42
285.192	3.26
285.405	3.36
285.619	3.28
285.833	3.31
286.046	3.6
286.26	3.85
286.473	3.79
286.687	3.88
286.9	3.74
287.114	3.49
287.327	3.81
287.541	3.78
287.754	4.01
287.968	3.88
288.181	3.71
288.395	3.39
288.608	3.59
288.822	3.48
289.035	3.25
289.248	3.76
289.462	3.74
289.675	3.26
289.889	3.15
290.102	2.72
290.315	2.92
290.529	3.23
290.742	3.36
290.955	3.14
291.169	3.13
291.382	3.33
291.595	3.29
291.808	3.36
292.022	3.39
292.235	3.88
292.448	4.07
292.661	3.83
292.875	3.74
293.088	3.93
293.301	3.97
293.514	3.98
293.727	3.73
293.94	3.89
294.153	3.77
294.367	3.8
294.58	3.55
294.793	3.87
295.006	4.22
295.219	4.16
295.432	3.73
295.645	3.72
295.858	3.61
296.071	3.78
296.284	3.6
296.497	3.65
296.71	3.76
296.923	3.93
297.136	3.52
297.349	3.28
297.562	3.32
297.775	3.39
297.988	3.24
298.201	3.32
298.414	3.19
298.626	2.87
298.839	2.91
299.052	2.81
299.265	2.92
299.478	3.32
299.691	3.33
299.903	3.15
300.116	3.32
300.329	3.46
300.542	3.68
300.755	3.8
300.967	4.48
301.18	4.54
301.393	4.66
301.605	4.23
301.818	4.31
302.031	4.19
302.243	4.53
302.456	4.77
302.669	4.75
302.881	4.65
303.094	4.5
303.307	4.23
303.519	4.02
303.732	3.74
303.944	3.95
304.157	3.91
304.37	4.12
304.582	3.99
304.795	3.73
305.007	3.98
305.22	4
305.432	4.05
305.645	4.08
305.857	4.26
306.069	4.7
306.282	4.63
306.494	4.53
306.707	4.47
306.919	4.66
307.132	4.46
307.344	4.19
307.556	4.02
307.769	4.41
307.981	4.4
308.193	4.33
308.406	4.03
308.618	3.96
308.83	3.94
309.043	4.08
309.255	4.17
309.467	4.69
309.679	4.8
309.892	4.99
310.104	4.83
310.316	4.82
310.528	5.05
310.74	5.1
310.953	5.19
311.165	5.45
311.377	5.51
311.589	5.18
311.801	4.87
312.013	4.7
312.225	4.68
312.437	4.99
312.649	4.93
312.862	4.63
313.074	4.74
313.286	5.26
313.498	5.08
313.71	5.33
313.922	5.65
314.134	5.71
314.346	5.98
314.558	6.26
314.77	5.96
314.982	5.81
315.193	5.87
315.405	5.86
315.617	5.4
315.829	5.37
316.041	5.13
316.253	4.71
316.465	5.14
316.677	5.15
316.888	5.2
317.1	4.89
317.312	5.16
317.524	5.03
317.736	5.11
317.947	4.95
318.159	5.04
318.371	4.86
318.583	5.44
318.794	5.14
319.006	5.19
319.218	5.32
319.43	5.66
319.641	5.97
319.853	6.32
320.064	6.46
320.276	6.77
320.488	6.86
320.699	7.52
320.911	7.15
321.123	7.19
321.334	7.55
321.546	7.58
321.757	7.47
321.969	7.63
322.18	7.61
322.392	8.03
322.603	8.6
322.815	9.23
323.026	8.93
323.238	9.42
323.449	9.51
323.661	9.23
323.872	9.43
324.083	9.69
324.295	9.37
324.506	9.66
324.718	9.56
324.929	9.82
325.14	9.65
325.352	10.19
325.563	10.45
325.774	11.11
325.986	11.79
326.197	11.93
326.408	12.41
326.62	12.82
326.831	13.4
327.042	13.8
327.253	13.75
327.464	14.07
327.676	14.2
327.887	14.54
328.098	14.61
328.309	14.74
328.52	14.84
328.732	15.14
328.943	15.65
329.154	16.08
329.365	16.64
329.576	17.38
329.787	17.56
329.998	18.36
330.209	18.25
330.42	18.55
330.631	18.75
330.842	19
331.053	19.68
331.264	20.04
331.475	20.12
331.686	20.21
331.897	20.35
332.108	20.74
332.319	20.93
332.53	21.6
332.741	21.69
332.952	22.33
333.163	22.97
333.374	22.79
333.585	23.06
333.795	23.75
334.006	23.99
334.217	24.17
334.428	24.48
334.639	24.46
334.849	24.7
335.06	25.07
335.271	25.02
335.482	25.22
335.692	25.33
335.903	25.62
336.114	25.39
336.325	25.54
336.535	25.47
336.746	25.61
336.957	25.32
337.167	25.53
337.378	25.5
337.589	25.42
337.799	25.59
338.01	26.06
338.22	25.85
338.431	25.91
338.642	25.76
338.852	25.95
339.063	25.89
339.273	26.21
339.484	26.12
339.694	26.45
339.905	26.43
340.115	26.17
340.326	25.7
340.536	25.99
340.746	25.88
340.957	25.94
341.167	25.97
341.378	26.03
341.588	26.13
341.799	25.91
342.009	25.33
342.219	25.71
342.43	25.78
342.64	26.09
342.85	26.18
343.061	26.32
343.271	26.52
343.481	26.44
343.691	26.42
343.902	26.52
344.112	26.89
344.322	27.52
344.532	27.07
344.743	27.29
344.953	27.15
345.163	26.9
345.373	26.97
345.583	26.78
345.793	26.59
346.004	26.32
346.214	26.25
346.424	26.03
346.634	25.72
346.844	26.15
347.054	25.99
347.264	26.09
347.474	26.12
347.684	25.85
347.894	26.16
348.104	26.21
348.314	26.4
348.524	26.18
348.734	26.31
348.944	26.45
349.154	25.9
349.364	25.9
349.574	25.44
349.784	25.03
349.994	25.15
350.204	24.98
350.413	25.18
350.623	25.14
350.833	25.24
351.043	25.33
351.253	25.24
351.463	25.5
351.672	25.23
351.882	25.55
352.092	25.89
352.302	25.73
352.511	25.66
352.721	25.79
352.931	25.98
353.141	26.04
353.35	25.87
353.56	25.9
353.77	25.99
353.979	26.01
354.189	25.92
354.399	26.01
354.608	26.09
354.818	26.03
355.027	25.82
355.237	25.68
355.447	25.53
355.656	25.59
355.866	25.43
356.075	25.31
356.285	25.44
356.494	25.51
356.704	25.2
356.913	24.95
357.123	25.17
357.332	25.03
357.542	25
357.751	25.11
357.96	24.92
358.17	24.89
358.379	24.7
358.589	24.49
358.798	24.48
359.007	24.68
359.217	24.74
359.426	24.44
359.635	24.5
359.845	24.32
360.054	24.17
360.263	24.25
360.472	24.24
360.682	24.35
360.891	24.31
361.1	24.17
361.309	24.12
361.519	24.06
361.728	24.19
361.937	24.2
362.146	24.33
362.355	24.54
362.564	24.62
362.774	24.76
362.983	24.79
363.192	24.98
363.401	24.79
363.61	24.66
363.819	24.9
364.028	24.73
364.237	24.61
364.446	24.53
364.655	24.33
364.864	24.13
365.073	23.96
365.282	23.87
365.491	23.8
365.7	24
365.909	24.16
366.118	24.21
366.327	24.2
366.536	24.31
366.745	24.35
366.954	24.21
367.162	24.4
367.371	24.17
367.58	24.25
367.789	24.24
367.998	24.34
368.207	24.47
368.415	24.38
368.624	24.47
368.833	24.47
369.042	24.28
369.25	24.46
369.459	24.39
369.668	24.8
369.877	24.66
370.085	24.52
370.294	24.45
370.503	24.29
370.711	24.26
370.92	24.15
371.129	24.14
371.337	24.29
371.546	24.26
371.754	24.18
371.963	23.99
372.171	24.01
372.38	24.09
372.589	24.15
372.797	24.04
373.006	23.72
373.214	23.73
373.423	23.68
373.631	23.67
373.84	23.55
374.048	23.4
374.256	23.49
374.465	23.52
374.673	23.46
374.882	23.39
375.09	23.49
375.298	23.65
375.507	23.51
375.715	23.49
375.923	23.41
376.132	23.4
376.34	23.46
376.548	23.29
376.757	23.28
376.965	23.16
377.173	23.15
377.381	23.22
377.59	23.08
377.798	23.09
378.006	23.05
378.214	23.07
378.423	22.84
378.631	22.78
378.839	22.65
379.047	22.55
379.255	22.72
379.463	22.64
379.671	22.5
379.879	22.69
380.088	22.87
380.296	22.94
380.504	22.95
380.712	23.03
380.92	22.92
381.128	23.1
381.336	23.21
381.544	23.09
381.752	23.24
381.96	23.19
382.168	23.28
382.376	23.18
382.584	23.18
382.791	23.11
382.999	23.25
383.207	23.27
383.415	23.14
383.623	23.15
383.831	23.12
384.039	23.17
384.247	23.18
384.454	23.11
384.662	23.02
384.87	23
385.078	22.93
385.285	22.83
385.493	22.89
385.701	23.01
385.909	22.89
386.116	22.75
386.324	22.72
386.532	22.66
386.739	22.56
386.947	22.63
387.155	22.71
387.362	22.7
387.57	22.8
387.778	22.9
387.985	22.93
388.193	23.16
388.4	23.17
388.608	23.09
388.816	23.08
389.023	23.2
389.231	23.21
389.438	22.98
389.646	22.91
389.853	22.84
390.061	22.79
390.268	22.75
390.475	22.55
390.683	22.63
390.89	22.72
391.098	22.72
391.305	22.72
391.512	22.66
391.72	22.7
391.927	22.78
392.135	22.83
392.342	22.77
392.549	22.62
392.756	22.54
392.964	22.5
393.171	22.5
393.378	22.37
393.586	22.28
393.793	22.27
394	22.28
394.207	22.32
394.414	22.28
394.622	22.36
394.829	22.56
395.036	22.63
395.243	22.77
395.45	22.77
395.657	22.96
395.864	23.05
396.072	23.25
396.279	23.34
396.486	23.43
396.693	23.5
396.9	23.37
397.107	23.16
397.314	23.17
397.521	22.93
397.728	22.78
397.935	22.7
398.142	22.47
398.349	22.26
398.556	22.24
398.763	22.28
398.97	22.19
399.177	22.23
399.383	22.38
399.59	22.4
399.797	22.69
400.004	22.63
400.211	22.65
400.418	22.88
400.625	22.79
400.831	22.72
401.038	22.55
401.245	22.39
401.452	22.33
401.658	22.16
401.865	22.03
402.072	21.87
402.279	21.96
402.485	21.9
402.692	21.69
402.899	21.75
403.105	21.77
403.312	21.76
403.519	21.93
403.725	21.99
403.932	22.21
404.138	22.29
404.345	22.44
404.552	22.44
404.758	22.41
404.965	22.48
405.171	22.5
405.378	22.4
405.584	22.38
405.791	22.34
405.997	22.22
406.204	22.07
406.41	22.12
406.617	21.98
406.823	21.98
407.029	22.09
407.236	22.04
407.442	21.99
407.649	22.07
407.855	22.14
408.061	22.14
408.268	22.16
408.474	22.32
408.68	22.29
408.887	22.21
409.093	22.21
409.299	22.19
409.505	22.17
409.712	22.22
409.918	22.38
410.124	22.37
410.33	22.55
410.537	22.52
410.743	22.41
410.949	22.33
411.155	22.53
411.361	22.44
411.567	22.51
411.773	22.51
411.98	22.55
412.186	22.37
412.392	22.4
412.598	22.16
412.804	22.29
413.01	22.27
413.216	22.26
413.422	22.05
413.628	22.27
413.834	22.19
414.04	22.25
414.246	22.1
414.452	22.21
414.658	22.16
414.864	22.17
415.07	22.02
415.275	22.06
415.481	22.03
415.687	22.06
415.893	21.9
416.099	21.98
416.305	22.09
416.511	22.16
416.716	22.04
416.922	22.13
417.128	22.23
417.334	22.28
417.539	22.24
417.745	22.27
417.951	22.34
418.157	22.35
418.362	22.23
418.568	22.16
418.774	22.12
418.979	22.1
419.185	22.03
419.391	21.91
419.596	21.92
419.802	21.92
420.008	21.86
420.213	21.28
420.419	21.28
420.624	21.29
420.83	21.29
421.035	21.36
421.241	21.36
421.446	21.34
421.652	21.27
421.857	21.23
422.063	21.18
422.268	21.29
422.474	21.8
422.679	21.79
422.885	21.8
423.09	21.72
423.295	21.62
423.501	21.69
423.706	21.74
423.911	21.87
424.117	21.96
424.322	22
424.527	21.88
424.733	21.88
424.938	21.87
425.143	21.87
425.349	22
425.554	22.06
425.759	22.11
425.964	22.1
426.169	22.14
426.375	22.08
426.58	22.14
426.785	22.2
426.99	22.2
427.195	22.24
427.4	22.27
427.605	22.2
427.811	22.23
428.016	22.09
428.221	22.12
428.426	22.01
428.631	22.07
428.836	22.08
429.041	22.24
429.246	22.21
429.451	22.08
429.656	21.98
429.861	21.91
430.066	21.92
430.271	21.92
430.476	21.86
430.681	21.92
430.886	21.86
431.09	21.87
431.295	21.82
431.5	21.86
431.705	21.95
431.91	22.09
432.115	22.12
432.32	22.19
432.524	22.24
432.729	22.22
432.934	22.13
433.139	22.16
433.343	22.07
433.548	22.02
433.753	21.96
433.958	22.03
434.162	21.95
434.367	21.98
434.572	21.85
434.776	21.82
434.981	21.89
435.186	21.99
435.39	21.97
435.595	21.99
435.799	22.04
436.004	22.1
436.209	22.09
436.413	22.05
436.618	21.99
436.822	22.06
437.027	22.01
437.231	21.98
437.436	22
437.64	22
437.845	22.03
438.049	22.09
438.253	22.22
438.458	22.27
438.662	22.39
438.867	22.51
439.071	22.58
439.275	22.55
439.48	22.53
439.684	22.5
439.888	22.59
440.093	22.52
440.297	22.47
440.501	22.36
440.706	22.32
440.91	22.27
441.114	22.21
441.318	22.22
441.523	22.25
441.727	22.3
441.931	22.34
442.135	22.21
442.339	22.33
442.543	22.26
442.748	22.24
442.952	22.22
443.156	22.24
443.36	22.27
443.564	22.18
443.768	22.24
443.972	22.19
444.176	22.19
444.38	22.29
444.584	22.28
444.788	22.27
444.992	22.29
445.196	22.3
445.4	22.33
445.604	22.38
445.808	22.34
446.012	22.33
446.216	22.32
446.42	22.27
446.624	22.21
446.828	22.23
447.032	22.26
447.235	22.23
447.439	22.24
447.643	22.19
447.847	22.13
448.051	22.04
448.254	22.01
448.458	22.09
448.662	22.08
448.866	22.06
449.069	21.95
449.273	21.98
449.477	22.04
449.681	21.98
449.884	21.99
450.088	22.03
450.292	22.08
450.495	22.04
450.699	21.96
450.902	22.07
451.106	22.12
451.31	22.23
451.513	22.17
451.717	22.08
451.92	22.15
452.124	22.19
452.327	22.14
452.531	22.22
452.734	22.25
452.938	22.25
453.141	22.11
453.345	22.06
453.548	22.04
453.752	22.05
453.955	22.22
454.158	22.13
454.362	22.07
454.565	22.06
454.769	21.97
454.972	22.04
455.175	22.09
455.379	22.22
455.582	22.31
455.785	22.26
455.988	22.24
456.192	22.22
456.395	22.36
456.598	22.45
456.801	22.57
457.005	22.65
457.208	22.67
457.411	22.56
457.614	22.5
457.817	22.29
458.021	22.26
458.224	22.25
458.427	22.14
458.63	22.09
458.833	22.08
459.036	22.07
459.239	22.14
459.442	22.07
459.645	22.09
459.848	22.13
460.051	22.23
460.254	22.37
460.457	22.41
460.66	22.46
460.863	22.47
461.066	22.39
461.269	22.36
461.472	22.34
461.675	22.33
461.878	22.31
462.081	22.31
462.284	22.32
462.486	22.18
462.689	22.18
462.892	22.19
463.095	22.15
463.298	22.23
463.5	22.22
463.703	22.28
463.906	22.33
464.109	22.48
464.311	22.46
464.514	22.41
464.717	22.47
464.92	22.42
465.122	22.5
465.325	22.5
465.528	22.46
465.73	22.51
465.933	22.44
466.135	22.48
466.338	22.42
466.541	22.43
466.743	22.44
466.946	22.44
467.148	22.41
467.351	22.26
467.553	22.29
467.756	22.25
467.958	22.14
468.161	22.12
468.363	22.15
468.566	22.24
468.768	22.29
468.971	22.37
469.173	22.4
469.375	22.42
469.578	22.52
469.78	22.49
469.983	22.57
470.185	22.68
470.387	22.66
470.59	22.67
470.792	22.69
470.994	22.58
471.196	22.54
471.399	22.48
471.601	22.54
471.803	22.46
472.005	22.5
472.208	22.52
472.41	22.55
472.612	22.61
472.814	22.49
473.016	22.42
473.218	22.41
473.421	22.48
473.623	22.54
473.825	22.55
474.027	22.52
474.229	22.55
474.431	22.57
474.633	22.51
474.835	22.52
475.037	22.57
475.239	22.55
475.441	22.59
475.643	22.53
475.845	22.44
476.047	22.46
476.249	22.59
476.451	22.59
476.653	22.63
476.855	22.72
477.057	22.76
477.258	22.77
477.46	22.79
477.662	22.82
477.864	22.8
478.066	22.86
478.268	22.87
478.469	22.82
478.671	22.83
478.873	22.83
479.075	22.76
479.276	22.78
479.478	22.76
479.68	22.7
479.882	22.63
480.083	22.65
480.285	22.68
480.487	22.64
480.688	22.64
480.89	22.6
481.091	22.53
481.293	22.52
481.495	22.46
481.696	22.48
481.898	22.49
482.099	22.48
482.301	22.47
482.502	22.45
482.704	22.45
482.905	22.43
483.107	22.43
483.308	22.43
483.51	22.4
483.711	22.38
483.913	22.4
484.114	22.41
484.315	22.42
484.517	22.43
484.718	22.44
484.92	22.47
485.121	22.49
485.322	22.53
485.524	22.54
485.725	22.55
485.926	22.55
486.127	22.53
486.329	22.52
486.53	22.52
486.731	22.54
486.932	22.5
487.134	22.48
487.335	22.48
487.536	22.45
487.737	22.46
487.938	22.47
488.139	22.49
488.341	22.52
488.542	22.52
488.743	22.56
488.944	22.54
489.145	22.54
489.346	22.52
489.547	22.53
489.748	22.53
489.949	22.55
490.15	22.57
490.351	22.62
490.552	22.59
490.753	22.59
490.954	22.58
491.155	22.59
491.356	22.61
491.557	22.65
491.758	22.69
491.959	22.68
492.159	22.68
492.36	22.69
492.561	22.65
492.762	22.69
492.963	22.76
493.164	22.76
493.364	22.81
493.565	22.88
493.766	22.93
493.967	22.87
494.167	22.92
494.368	23
494.569	23.11
494.769	23.16
494.97	23.11
495.171	23.07
495.371	23.1
495.572	23.1
495.773	23.07
495.973	23.01
496.174	23.07
496.375	23.04
496.575	23.03
496.776	22.96
496.976	23.04
497.177	23.14
497.377	23.15
497.578	23.11
497.778	23.06
497.979	23.04
498.179	23.08
498.38	23.13
498.58	23.15
498.78	23.12
498.981	23.12
499.181	23.07
499.382	23.04
499.582	23.08
499.782	23.17
499.983	23.2
500.183	23.23
500.383	23.27
500.584	23.25
500.784	23.28
500.984	23.28
501.184	23.41
501.385	23.45
501.585	23.52
501.785	23.54
501.985	23.51
502.185	23.51
502.386	23.52
502.586	23.54
502.786	23.58
502.986	23.58
503.186	23.62
503.386	23.53
503.586	23.54
503.786	23.45
503.987	23.53
504.187	23.57
504.387	23.65
504.587	23.7
504.787	23.74
504.987	23.8
505.187	23.86
505.387	23.9
505.587	23.95
505.786	24
505.986	24.16
506.186	24.13
506.386	24.1
506.586	24.07
506.786	24.06
506.986	24
507.186	23.99
507.386	23.91
507.585	23.87
507.785	23.93
507.985	23.97
508.185	23.93
508.384	23.99
508.584	24.11
508.784	24.16
508.984	24.25
509.183	24.34
509.383	24.27
509.583	24.38
509.782	24.4
509.982	24.38
510.182	24.39
510.381	24.38
510.581	24.37
510.781	24.38
510.98	24.44
511.18	24.46
511.379	24.46
511.579	24.61
511.778	24.65
511.978	24.66
512.177	24.69
512.377	24.64
512.576	24.6
512.776	24.65
512.975	24.63
513.175	24.56
513.374	24.51
513.573	24.5
513.773	24.54
513.972	24.53
514.172	24.65
514.371	24.72
514.57	24.74
514.77	24.77
514.969	24.65
515.168	24.75
515.367	24.84
515.567	24.93
515.766	25.01
515.965	25.03
516.164	25.13
516.364	25.01
516.563	24.99
516.762	25.08
516.961	25.21
517.16	25.39
517.359	25.44
517.559	25.53
517.758	25.56
517.957	25.68
518.156	25.69
518.355	25.63
518.554	25.78
518.753	25.84
518.952	25.86
519.151	25.81
519.35	25.76
519.549	25.71
519.748	25.72
519.947	25.79
520.146	25.72
520.345	25.69
520.544	25.71
520.743	25.75
520.942	25.71
521.141	25.73
521.339	25.81
521.538	25.92
521.737	25.94
521.936	25.97
522.135	25.92
522.333	25.92
522.532	25.98
522.731	26.1
522.93	26
523.129	26.01
523.327	26.03
523.526	26.08
523.725	26.16
523.923	26.17
524.122	26.25
524.321	26.38
524.519	26.4
524.718	26.46
524.917	26.54
525.115	26.67
525.314	26.76
525.512	26.86
525.711	26.86
525.909	26.83
526.108	26.89
526.306	26.9
526.505	26.89
526.703	26.93
526.902	26.95
527.1	26.95
527.299	26.92
527.497	27
527.696	26.99
527.894	27
528.092	27.02
528.291	27.05
528.489	27.04
528.688	27.08
528.886	27.09
529.084	27.13
529.283	27.18
529.481	27.19
529.679	27.18
529.877	27.23
530.076	27.28
530.274	27.35
530.472	27.37
530.67	27.4
530.869	27.39
531.067	27.45
531.265	27.44
531.463	27.43
531.661	27.51
531.859	27.48
532.057	27.53
532.255	27.56
532.454	27.58
532.652	27.58
532.85	27.66
533.048	27.71
533.246	27.76
533.444	27.84
533.642	27.8
533.84	27.84
534.038	27.92
534.236	27.91
534.434	27.92
534.632	27.95
534.83	28.04
535.027	28.03
535.225	28.04
535.423	28.02
535.621	28.05
535.819	28.1
536.017	28.14
536.215	28.15
536.412	28.19
536.61	28.22
536.808	28.23
537.006	28.2
537.203	28.24
537.401	28.31
537.599	28.38
537.797	28.4
537.994	28.49
538.192	28.47
538.39	28.56
538.587	28.54
538.785	28.68
538.983	28.77
539.18	28.87
539.378	28.94
539.575	28.99
539.773	29.02
539.97	29.13
540.168	29.12
540.366	29.18
540.563	29.16
540.761	29.21
540.958	29.17
541.155	29.13
541.353	29.12
541.55	29.1
541.748	29.09
541.945	29.14
542.143	29.09
542.34	29.11
542.537	29.14
542.735	29.16
542.932	29.26
543.129	29.31
543.327	29.37
543.524	29.43
543.721	29.47
543.919	29.57
544.116	29.54
544.313	29.58
544.51	29.63
544.708	29.61
544.905	29.62
545.102	29.53
545.299	29.57
545.496	29.63
545.693	29.58
545.891	29.53
546.088	29.54
546.285	29.66
546.482	29.72
546.679	29.87
546.876	29.93
547.073	29.96
547.27	30
547.467	30.03
547.664	30.02
547.861	30.09
548.058	30.22
548.255	30.21
548.452	30.12
548.649	30.09
548.846	30.02
549.043	30
549.24	30.07
549.437	30.12
549.633	30
549.83	30
550.027	30.1
550.224	30.06
550.421	30.03
550.618	30.04
550.814	30.13
551.011	30.05
551.208	30.01
551.405	30.05
551.601	29.95
551.798	29.98
551.995	29.96
552.191	29.98
552.388	29.95
552.585	29.97
552.781	30.04
552.978	29.98
553.175	30
553.371	30.04
553.568	29.92
553.764	29.94
553.961	30
554.157	30.06
554.354	30.06
554.55	30.09
554.747	30.17
554.943	30.25
555.14	30.29
555.336	30.44
555.533	30.5
555.729	30.64
555.926	30.73
556.122	30.76
556.318	30.84
556.515	30.74
556.711	30.77
556.907	30.7
557.104	30.73
557.3	30.76
557.496	30.66
557.693	30.67
557.889	30.72
558.085	30.8
558.281	30.82
558.478	30.79
558.674	30.88
558.87	30.96
559.066	30.96
559.262	30.89
559.459	30.92
559.655	30.85
559.851	30.79
560.047	30.77
560.243	30.75
560.439	30.69
560.635	30.73
560.831	30.65
561.027	30.59
561.223	30.71
561.419	30.64
561.615	30.72
561.811	30.9
562.007	31.1
562.203	31.1
562.399	31.22
562.595	31.2
562.791	31.27
562.987	31.4
563.183	31.41
563.379	31.31
563.575	31.39
563.771	31.28
563.966	31.15
564.162	31.18
564.358	31.31
564.554	31.33
564.75	31.36
564.945	31.41
565.141	31.44
565.337	31.5
565.533	31.56
565.728	31.6
565.924	31.64
566.12	31.71
566.315	31.49
566.511	31.45
566.707	31.34
566.902	31.38
567.098	31.29
567.293	31.21
567.489	31.23
567.684	31.26
567.88	31.25
568.076	31.09
568.271	31.11
568.467	31.23
568.662	31.22
568.858	31.31
569.053	31.4
569.248	31.43
569.444	31.56
569.639	31.56
569.835	31.47
570.03	31.39
570.225	31.61
570.421	31.6
570.616	31.67
570.812	31.64
571.007	31.71
571.202	31.78
571.397	31.8
571.593	31.79
571.788	31.83
571.983	31.8
572.178	31.83
572.374	31.85
572.569	31.85
572.764	31.83
572.959	31.98
573.154	31.85
573.35	31.71
573.545	31.72
573.74	31.73
573.935	31.75
574.13	31.9
574.325	32.03
574.52	31.99
574.715	31.98
574.91	32.04
575.105	32.02
575.3	32.1
575.495	32.09
575.69	32.04
575.885	32.03
576.08	32.12
576.275	32.1
576.47	31.99
576.665	32.06
576.86	32.18
577.055	32.1
577.25	32.03
577.444	32
577.639	32.22
577.834	32.27
578.029	32.33
578.224	32.16
578.418	32.14
578.613	32.11
578.808	31.97
579.003	31.79
579.197	31.82
579.392	31.91
579.587	32
579.781	31.86
579.976	31.84
580.171	31.77
580.365	31.77
580.56	31.78
580.755	31.89
580.949	32.06
581.144	32.32
581.338	32.42
581.533	32.34
581.727	32.09
581.922	32.15
582.116	32.14
582.311	32.04
582.505	32.15
582.7	32.3
582.894	32.4
583.089	32.32
583.283	32.19
583.478	32.12
583.672	32.05
583.866	32.18
584.061	32.13
584.255	32.29
584.449	32.4
584.644	32.38
584.838	32.32
585.032	32.43
585.226	32.37
585.421	32.41
585.615	32.29
585.809	32.46
586.003	32.66
586.198	32.74
586.392	32.74
586.586	32.85
586.78	32.82
586.974	32.7
587.168	32.61
587.363	32.8
587.557	32.72
587.751	33
587.945	32.94
588.139	32.88
588.333	32.93
588.527	32.9
588.721	32.91
588.915	32.95
589.109	33.08
589.303	33.11
589.497	33.02
589.691	33.2
589.885	33.12
590.079	33.2
590.273	33.24
590.466	33.24
590.66	33.25
590.854	33.31
591.048	33.47
591.242	33.51
591.436	33.47
591.629	33.56
591.823	33.48
592.017	33.4
592.211	33.39
592.404	33.39
592.598	33.44
592.792	33.52
592.986	33.55
593.179	33.48
593.373	33.41
593.567	33.45
593.76	33.48
593.954	33.57
594.147	33.8
594.341	33.86
594.535	33.84
594.728	33.87
594.922	33.91
595.115	33.79
595.309	33.78
595.502	33.78
595.696	33.74
595.889	33.83
596.083	33.76
596.276	33.64
596.47	33.59
596.663	33.6
596.856	33.59
597.05	33.48
597.243	33.37
597.437	33.29
597.63	33.33
597.823	33.34
598.017	33.3
598.21	33.42
598.403	33.56
598.596	33.61
598.79	33.74
598.983	33.72
599.176	33.78
599.369	33.94
599.563	34.11
599.756	34.11
599.949	34.19
600.142	34.21
600.335	34.14
600.528	34.03
600.722	34.08
600.915	33.96
601.108	33.89
601.301	33.88
601.494	34.05
601.687	34.07
601.88	34.19
602.073	34.32
602.266	34.23
602.459	34.37
602.652	34.39
602.845	34.4
603.038	34.46
603.231	34.61
603.424	34.54
603.617	34.4
603.809	34.44
604.002	34.4
604.195	34.3
604.388	34.38
604.581	34.36
604.774	34.29
604.966	34.25
605.159	34.22
605.352	34.16
605.545	34.25
605.737	34.33
605.93	34.35
606.123	34.42
606.316	34.55
606.508	34.53
606.701	34.45
606.894	34.6
607.086	34.58
607.279	34.65
607.471	34.68
607.664	34.8
607.857	34.77
608.049	34.76
608.242	34.68
608.434	34.7
608.627	34.78
608.819	34.92
609.012	34.95
609.204	35.05
609.397	35.1
609.589	35.21
609.782	35.26
609.974	35.4
610.166	35.55
610.359	35.67
610.551	35.73
610.743	35.78
610.936	35.89
611.128	35.92
611.32	36.01
611.513	36.01
611.705	36.02
611.897	36.09
612.09	36.09
612.282	36.02
612.474	36.03
612.666	35.96
612.858	35.82
613.051	35.81
613.243	35.88
613.435	35.76
613.627	35.61
613.819	35.53
614.011	35.5
614.203	35.4
614.395	35.25
614.588	35.36
614.78	35.34
614.972	35.29
615.164	35.1
615.356	34.81
615.548	34.91
615.74	35.24
615.932	35.5
616.124	35.38
616.315	35.55
616.507	35.63
616.699	35.56
616.891	35.66
617.083	35.87
617.275	35.94
617.467	36.09
617.659	36.05
617.85	35.82
618.042	35.63
618.234	35.68
618.426	35.71
618.618	35.74
618.809	35.67
619.001	35.44
619.193	35.47
619.384	35.55
619.576	35.42
619.768	35.4
619.959	35.43
620.151	35.51
620.343	35.47
620.534	35.27
620.726	35.14
620.917	35.13
621.109	35.42
621.301	35.41
621.492	35.46
621.684	35.58
621.875	35.63
622.067	35.65
622.258	35.39
622.45	35.42
622.641	35.55
622.832	35.83
623.024	35.86
623.215	35.81
623.407	35.78
623.598	35.55
623.789	35.47
623.981	35.5
624.172	35.77
624.363	35.94
624.555	36.05
624.746	36.02
624.937	35.98
625.129	36.05
625.32	35.84
625.511	35.9
625.702	36.14
625.893	36.13
626.085	36.16
626.276	36.02
626.467	36.02
626.658	35.93
626.849	35.82
627.04	35.72
627.231	35.73
627.422	35.84
627.614	35.81
627.805	35.6
627.996	35.66
628.187	35.69
628.378	35.75
628.569	35.8
628.76	35.7
628.951	35.84
629.142	35.92
629.332	35.99
629.523	35.98
629.714	35.81
629.905	36.05
630.096	36.16
630.287	36.18
630.478	36.06
630.669	36.12
630.859	36.25
631.05	36.21
631.241	36.19
631.432	36
631.623	36.02
631.813	36.22
632.004	36
632.195	36.11
632.385	36.12
632.576	36.05
632.767	36.03
632.957	35.85
633.148	35.96
633.339	35.98
633.529	35.99
633.72	35.88
633.91	35.93
634.101	36.07
634.292	35.88
634.482	35.73
634.673	35.95
634.863	35.87
635.054	36.08
635.244	36.14
635.435	36.02
635.625	36.15
635.815	36.2
636.006	36.13
636.196	36.1
636.387	36.34
636.577	36.38
636.767	36.31
636.958	36.31
637.148	36.29
637.338	36.32
637.529	36.46
637.719	36.49
637.909	36.71
638.099	36.66
638.29	36.54
638.48	36.31
638.67	36.39
638.86	36.4
639.05	36.38
639.241	36.44
639.431	36.33
639.621	36.27
639.811	36.31
640.001	36.2
640.191	36.34
640.381	36.42
640.571	36.45
640.761	36.6
640.951	36.59
641.141	36.66
641.331	36.8
641.521	36.92
641.711	36.95
641.901	36.72
642.091	36.92
642.281	36.71
642.471	36.68
642.661	36.8
642.851	36.86
643.041	37
643.231	37.08
643.42	36.95
643.61	36.81
643.8	36.88
643.99	36.87
644.18	36.78
644.369	36.89
644.559	37.15
644.749	37.22
644.939	37.04
645.128	36.7
645.318	36.7
645.508	36.82
645.697	36.7
645.887	36.64
646.076	36.85
646.266	36.68
646.456	36.86
646.645	36.67
646.835	36.53
647.024	36.66
647.214	36.94
647.403	36.94
647.593	36.8
647.782	37.02
647.972	36.86
648.161	36.92
648.351	37.09
648.54	36.8
648.73	36.91
648.919	37.06
649.108	36.91
649.298	36.78
649.487	36.81
649.677	36.92
649.866	36.75
650.055	37.08
650.244	36.77
650.434	36.67
650.623	36.77
650.812	36.61
651.002	36.48
651.191	36.43
651.38	36.69
651.569	36.75
651.758	36.56
651.947	36.63
652.137	36.55
652.326	36.76
652.515	36.98
652.704	36.99
652.893	37.26
653.082	37.28
653.271	37.55
653.46	37.14
653.649	37.05
653.838	37.04
654.027	37.09
654.216	36.98
654.405	36.96
654.594	36.83
654.783	36.88
654.972	36.74
655.161	36.94
655.35	36.91
655.539	37
655.728	37.1
655.916	37.35
656.105	37.27
656.294	37.58
656.483	37.44
656.672	37.44
656.86	37.5
657.049	37.55
657.238	37.34
657.427	37.25
657.615	37.36
657.804	37.29
657.993	37.23
658.181	37.24
658.37	36.97
658.559	37.14
658.747	37.27
658.936	37.32
659.125	37.24
659.313	37.24
659.502	37.13
659.69	37.01
659.879	37.08
660.067	37.21
660.256	37.31
660.444	37.58
660.633	37.46
660.821	37.27
661.01	37.3
661.198	37.16
661.387	37.27
661.575	37.29
661.763	37.33
661.952	37.34
662.14	37.28
662.328	37.28
662.517	37.06
662.705	37.25
662.893	37.22
663.082	37.37
663.27	37.47
663.458	37.39
663.646	37.53
663.834	37.87
664.023	37.7
664.211	37.71
664.399	37.48
664.587	37.4
664.775	37.39
664.963	37.61
665.152	37.6
665.34	37.92
665.528	37.98
665.716	38
665.904	37.66
666.092	37.85
666.28	37.92
666.468	38.3
666.656	38.44
666.844	38.37
667.032	38.32
667.22	38.09
667.408	37.95
667.596	37.91
667.784	37.6
667.971	37.67
668.159	37.55
668.347	37.6
668.535	37.83
668.723	37.79
668.911	38.07
669.098	38.12
669.286	38.17
669.474	37.98
669.662	38.07
669.849	38.44
670.037	38.56
670.225	38.71
670.413	38.59
670.6	38.44
670.788	38.48
670.976	38.36
671.163	38.24
671.351	38.42
671.538	38.5
671.726	38.15
671.913	38
672.101	37.93
672.289	37.6
672.476	37.74
672.664	37.48
672.851	37.62
673.039	37.59
673.226	37.59
673.413	37.17
673.601	37.54
673.788	38
673.976	38.37
674.163	38.25
674.35	38.58
674.538	38.37
674.725	38.3
674.912	38.19
675.1	37.87
675.287	37.94
675.474	38.04
675.662	37.83
675.849	37.66
676.036	37.5
676.223	37.71
676.411	37.58
676.598	37.59
676.785	37.86
676.972	37.9
677.159	38.05
677.346	38.04
677.533	38.29
677.721	38.25
677.908	38.16
678.095	38.2
678.282	38.23
678.469	38.45
678.656	38.55
678.843	38.57
679.03	38.77
679.217	38.85
679.404	38.69
679.591	38.59
679.778	38.5
679.964	38.4
680.151	38.25
680.338	38.15
680.525	38.11
680.712	38.14
680.899	37.89
681.086	37.7
681.272	37.7
681.459	37.92
681.646	38.07
681.833	38.18
682.02	38.44
682.206	38.53
682.393	38.49
682.58	38.34
682.766	38.35
682.953	38.58
683.14	38.47
683.326	38.64
683.513	38.63
683.7	38.43
683.886	38.36
684.073	38.43
684.259	38.33
684.446	38.59
684.632	38.52
684.819	38.14
685.005	38.16
685.192	38.24
685.378	38.17
685.565	38.22
685.751	38.16
685.938	38.36
686.124	38.31
686.31	38.51
686.497	38.43
686.683	38.59
686.87	38.73
687.056	38.46
687.242	38.08
687.429	38.07
687.615	37.74
687.801	37.89
687.987	37.47
688.174	37.41
688.36	37.28
688.546	37.07
688.732	36.91
688.918	36.84
689.105	36.94
689.291	37.22
689.477	37.3
689.663	37.45
689.849	37.41
690.035	37.55
690.221	37.6
690.407	37.75
690.593	38.04
690.779	38.12
690.965	38.37
691.151	38.3
691.337	38.54
691.523	38.51
691.709	38.51
691.895	38.51
692.081	38.92
692.267	38.76
692.453	38.63
692.639	38.65
692.825	38.46
693.011	38.22
693.196	38.29
693.382	37.95
693.568	37.72
693.754	37.74
693.94	37.64
694.125	37.55
694.311	37.9
694.497	38.07
694.682	37.98
694.868	38.25
695.054	38.73
695.239	38.63
695.425	38.88
695.611	39.13
695.796	39.18
695.982	39.3
696.168	39
696.353	38.86
696.539	38.63
696.724	38.5
696.91	38.57
697.095	38.11
697.281	38.37
697.466	38.24
697.652	38.23
697.837	38.28
698.023	38.31
698.208	38.48
698.393	38.27
698.579	38.27
698.764	38.23
698.949	38
699.135	37.95
699.32	37.61
699.505	37.77
699.691	37.64
699.876	37.45
700.061	37.36
700.246	37
700.432	37.09
700.617	37.2
700.802	37.39
700.987	37.54
701.172	37.92
701.358	38.22
701.543	38.05
701.728	38.12
701.913	38.38
702.098	38.18
702.283	38.28
702.468	38.22
702.653	37.85
702.838	37.89
703.023	37.96
703.208	37.7
703.393	37.61
703.578	37.74
703.763	37.8
703.948	37.5
704.133	38.11
704.318	38.38
704.503	38.59
704.688	38.68
704.873	38.62
705.057	38.63
705.242	38.67
705.427	38.7
705.612	38.36
705.797	38.36
705.981	38.83
706.166	38.52
706.351	38.48
706.536	38.38
706.72	38.65
706.905	38.4
707.09	38.29
707.274	38.48
707.459	38.66
707.644	39.12
707.828	39.28
708.013	39.13
708.197	39.27
708.382	39.47
708.567	39.71
708.751	39.59
708.936	39.59
709.12	39.55
709.305	39.36
709.489	39.34
709.673	39.28
709.858	38.95
710.042	38.79
710.227	38.66
710.411	38.52
710.596	38.22
710.78	38.04
710.964	38.29
711.149	38.35
711.333	38.31
711.517	38.05
711.702	38.19
711.886	38.37
712.07	38.17
712.254	37.83
712.438	37.76
712.623	37.65
712.807	37.87
712.991	37.45
713.175	37.52
713.359	37.38
713.544	37.5
713.728	37.26
713.912	37.32
714.096	37.39
714.28	37.65
714.464	37.54
714.648	37.49
714.832	37.34
715.016	37.6
715.2	37.57
715.384	37.56
715.568	37.65
715.752	37.62
715.936	37.58
716.12	37.73
716.304	38.07
716.488	38.23
716.671	37.83
716.855	38.04
717.039	37.94
717.223	37.68
717.407	37.73
717.59	37.57
717.774	37.31
717.958	37.16
718.142	37.3
718.325	36.92
718.509	36.87
718.693	37.66
718.877	37.11
719.06	36.78
719.244	36.68
719.428	36.7
719.611	36.5
719.795	36.5
719.978	36.98
720.162	36.96
720.345	37.1
720.529	37.27
720.713	37
720.896	37.49
721.08	38.04
721.263	38.19
721.446	38.5
721.63	38.9
721.813	39.32
721.997	38.8
722.18	38.41
722.364	38.15
722.547	38.02
722.73	38.11
722.914	38.25
723.097	38.24
723.28	38.43
723.464	38
723.647	38.11
723.83	38.06
724.013	37.91
724.197	38.34
724.38	38.39
724.563	38.04
724.746	38.07
724.929	37.79
725.112	37.89
725.296	37.97
725.479	38.36
725.662	38
725.845	37.9
726.028	37.97
726.211	37.85
726.394	37.93
726.577	37.65
726.76	37.91
726.943	38.17
727.126	37.94
727.309	37.87
727.492	37.48
727.675	37.63
727.858	37.69
728.041	38.01
728.224	37.93
728.407	37.77
728.589	38.42
728.772	38.14
728.955	37.76
729.138	37.81
729.321	37.56
729.503	37.71
729.686	37.75
729.869	37.58
730.052	36.81
730.234	36.76
730.417	36.84
730.6	36.8
730.782	36.68
730.965	37.12
731.148	37.47
731.33	37.7
731.513	38.04
731.695	38.04
731.878	37.79
732.061	38.29
732.243	38.41
732.426	38.55
732.608	38.24
732.791	38.17
732.973	37.88
733.156	37.45
733.338	37.29
733.52	36.92
733.703	36.62
733.885	37.06
734.068	37.29
734.25	37.16
734.432	37.63
734.615	37.68
734.797	37.86
734.979	37.67
735.162	37.49
735.344	37.28
735.526	37.35
735.708	37.18
735.891	37.06
736.073	37.08
736.255	37.4
736.437	36.13
736.619	36.17
736.802	36.42
736.984	36.54
737.166	36.81
737.348	37.16
737.53	37.36
737.712	37.14
737.894	37.11
738.076	36.64
738.258	36.31
738.44	36.7
738.622	36.8
738.804	36.48
738.986	36.99
739.168	37.03
739.35	36.94
739.532	36.75
739.714	36.98
739.896	36.86
740.078	36.73
740.259	37.02
740.441	37.43
740.623	37.56
740.805	37.77
740.987	37.35
741.168	37.14
741.35	36.99
741.532	36.7
741.714	36.68
741.895	36.81
742.077	36.8
742.259	36.33
742.44	36.04
742.622	35.7
742.804	35.62
742.985	35.59
743.167	35.93
743.348	36.28
743.53	36.25
743.711	36.28
743.893	36.11
744.075	36.17
744.256	36.05
744.438	36.24
744.619	36.39
744.8	36.3
744.982	36.39
745.163	36.47
745.345	36.39
745.526	36.42
745.707	36.67
745.889	37.05
746.07	37.23
746.252	37.65
746.433	36.75
746.614	36.81
746.795	36.48
746.977	36.25
747.158	35.83
747.339	34.99
747.52	35.21
747.702	35.36
747.883	34.91
748.064	34.97
748.245	34.3
748.426	34.78
748.607	34.86
748.788	35.1
748.97	35.03
749.151	35.04
749.332	36.03
749.513	35.73
749.694	35.67
749.875	36.27
750.056	35.98
750.237	37.36
750.418	38.13
750.599	38.12
750.78	37.72
750.96	37.87
751.141	37.85
751.322	37.67
751.503	38.39
751.684	38.64
751.865	38.08
752.046	38.53
752.226	37.22
752.407	36.46
752.588	36.67
752.769	37.18
752.949	36.79
753.13	36.71
753.311	36.67
753.492	36.59
753.672	36.1
753.853	36.23
754.034	35.73
754.214	36.03
754.395	36.21
754.575	36.15
754.756	36.64
754.937	36.97
755.117	37.14
755.298	37.44
755.478	36.96
755.659	37.78
755.839	38.45
756.02	38.41
756.2	38.86
756.381	38.97
756.561	38.13
756.741	37.56
756.922	37.81
757.102	37.53
757.283	37.06
757.463	37.58
757.643	37.41
757.823	36.62
758.004	37.14
758.184	36.84
758.364	36.97
758.545	37.4
758.725	37.31
758.905	36.9
759.085	37.01
759.265	36.79
759.446	36.32
759.626	35.5
759.806	35.76
759.986	35.89
760.166	35.4
760.346	35.4
760.526	35.88
760.706	36.27
760.886	36.28
761.066	36.06
761.246	36.18
761.426	35.99
761.606	35.97
761.786	35.77
761.966	35.41
762.146	35.84
762.326	35.9
762.506	35.42
762.686	35.54
762.866	36.25
763.046	36.05
763.225	36.35
763.405	36.47
763.585	36.82
763.765	36.58
763.945	36.37
764.124	36.2
764.304	36.12
764.484	36.38
764.664	36.45
764.843	36.19
765.023	36.48
765.203	36.09
765.382	36.05
765.562	36.07
765.741	36.25
765.921	36.71
766.101	37.21
766.28	36.97
766.46	36.66
766.639	36.74
766.819	36.1
766.998	35.63
767.178	36.12
767.357	36.23
767.537	36.02
767.716	36.16
767.896	35.58
768.075	35.31
768.254	34.69
768.434	34.9
768.613	34.43
768.792	34.82
768.972	35.46
769.151	35.15
769.33	35.41
769.51	35.37
769.689	35.18
769.868	35.7
770.047	35.4
770.226	36.17
770.406	36
770.585	36.24
770.764	36.63
770.943	36.73
771.122	36.49
771.301	36.18
771.48	36.19
771.66	36.44
771.839	36.21
772.018	36.1
772.197	35.85
772.376	36.11
772.555	35.48
772.734	34.96
772.913	34.63
773.092	34.83
773.271	35.08
773.449	34.91
773.628	34.5
773.807	34.02
773.986	33.63
774.165	33.56
774.344	33.3
774.523	33.13
774.701	33.29
774.88	33.55
775.059	33.94
775.238	33.09
775.417	33.06
775.595	33.33
775.774	34.09
775.953	34.1
776.131	34.27
776.31	34.22
776.489	34.39
776.667	34.03
776.846	33.65
777.025	33.08
777.203	34.28
777.382	34.56
777.56	34.1
777.739	33.76
777.917	34.84
778.096	34.81
778.274	35
778.453	36.19
778.631	35.84
778.81	36.14
778.988	35.56
779.166	35.75
779.345	35.88
779.523	36.61
779.702	36.99
779.88	36.74
780.058	36.21
780.237	35.65
780.415	34.58
780.593	35.11
780.771	35.31
780.95	36.76
781.128	36.23
781.306	36.39
781.484	35.81
781.662	35.68
781.841	35.02
782.019	35.09
782.197	35.84
782.375	35.67
782.553	35.53
782.731	35.39
782.909	34.69
783.087	34.54
783.265	34.24
783.443	34.79
783.621	35.39
783.799	35.16
783.977	35.98
784.155	34.64
784.333	35.13
784.511	35.95
784.689	36.06
784.867	35.97
785.045	35.23
785.223	34.99
785.4	35.18
785.578	34.84
785.756	35.91
785.934	36.35
786.112	38.18
786.289	37.6
786.467	36.49
786.645	36.34
786.823	36.18
787	36.85
787.178	36.9
787.356	36.19
787.533	36.19
787.711	35.74
787.889	35.69
788.066	35.35
788.244	35.36
788.421	35.58
788.599	35.57
788.776	35.14
788.954	34.98
789.131	35.24
789.309	35.4
789.486	35.11
789.664	34.79
789.841	34.92
790.019	33.82
790.196	34.66
790.373	34.3
790.551	33.72
790.728	35.05
790.906	35.73
791.083	35.38
791.26	35.47
791.437	35.79
791.615	36.63
791.792	36.19
791.969	36.98
792.146	35.91
792.324	36.16
792.501	37.58
792.678	36.73
792.855	36.39
793.032	35.63
793.209	36.65
793.387	35.96
793.564	35.54
793.741	34.16
793.918	33.94
794.095	33.53
794.272	33.39
794.449	31.92
794.626	32.04
794.803	31.05
794.98	32.65
795.157	31.25
795.334	31.05
795.511	30.97
795.688	32.34
795.864	31.28
796.041	32.77
796.218	32.44
796.395	31.54
796.572	30.86
796.749	31.86
796.925	31.17
797.102	32.31
797.279	32.89
797.456	31.93
797.632	31.35
797.809	33.41
797.986	32.07
798.162	32.57
798.339	33.72
798.516	34.64
798.692	34.7
798.869	34.46
799.046	33.51
799.222	32.54
799.399	34.2
799.575	34.13
799.752	33.13
799.928	33.53
800.105	33.94
800.281	35
800.458	34.89
800.634	34.04
800.811	33.72
800.987	34.05
801.163	34.9
801.34	33.52
801.516	33.75
801.692	34.01
801.869	34.02
802.045	33.81
802.221	33.42
802.398	33
802.574	34.11
802.75	34.7
802.926	34.19
803.103	34.75
803.279	35.63
803.455	35.48
803.631	35.34
803.807	36.14
803.983	37.52
804.16	37.22
804.336	38
804.512	38.46
804.688	38.7
804.864	40.64
805.04	41.5
805.216	41.75
805.392	42.52
805.568	42.55
805.744	42.98
805.92	41.97
806.096	41.61
806.272	40.64
806.448	39.22
806.623	37.82
806.799	35.77
806.975	34.95
807.151	34.83
807.327	34.47
807.503	34.49
807.678	33.59
807.854	33.85
808.03	35.08
808.206	36.27
808.381	36.23
808.557	36.83
808.733	37.44
808.908	37.57
809.084	36.7
809.26	36.55
809.435	35.69
809.611	34.72
809.787	33.77
809.962	33.88
810.138	32.46
810.313	32.46
810.489	32.11
810.664	31.68
810.84	30.55
811.015	31.17
811.191	31.87
811.366	33.28
811.542	33.64
811.717	34.59
811.892	33.01
812.068	33.33
812.243	32.54
812.419	32.15
812.594	32.86
812.769	32.96
812.944	33.86
813.12	32.95
813.295	32.29
813.47	33.22
813.645	32.4
813.821	31.43
813.996	31.01
814.171	31.7
814.346	32.01
814.521	31.41
814.697	32.19
814.872	30.62
815.047	29.67
815.222	30.01
815.397	29.18
815.572	29.7
815.747	29.91
815.922	30.61
816.097	31.19
816.272	31.94
816.447	32.34
816.622	32.05
816.797	32.12
816.972	32.28
817.147	31.78
817.322	31.54
817.496	31.55
817.671	32.84
817.846	32.29
818.021	31.8
818.196	30.81
818.371	30.46
818.545	29.97
818.72	30.58
818.895	30.9
819.069	30.52
819.244	31.11
819.419	31.15
819.594	31.81
819.768	32.45
819.943	32.65
820.117	32.8
820.292	31.5
820.467	31.39
820.641	31.46
820.816	31.77
820.99	32.07
821.165	31.5
821.339	31.3
821.514	30.97
821.688	30.8
821.863	30.86
822.037	30.97
822.212	31.09
822.386	30.82
822.56	30.46
822.735	30.34
822.909	30.04
823.084	30.19
823.258	30.01
823.432	29.78
823.606	29.57
823.781	29.4
823.955	29.11
824.129	29.09
824.303	29
824.478	28.93
824.652	28.94
824.826	28.9
825	28.55
825.174	28.51
825.348	28.54
825.523	28.39
825.697	28.13
825.871	28.37
826.045	28.48
826.219	29.01
826.393	29.28
826.567	28.81
826.741	28.97
826.915	29.21
827.089	29.67
827.263	29.93
827.437	30.34
827.611	30.45
827.784	30.48
827.958	30.77
828.132	30.22
828.306	30.27
828.48	30.48
828.654	31.41
828.827	31.32
829.001	30.35
829.175	29.97
829.349	29.63
829.522	29.66
829.696	30.03
829.87	29.71
830.044	30.01
830.217	30.66
830.391	30.91
830.565	29.23
830.738	29.97
830.912	30.49
831.085	31.32
831.259	32.42
831.432	31.97
831.606	32.37
831.779	32.09
831.953	32.99
832.126	32.49
832.3	32.4
832.473	31.7
832.647	31.65
832.82	31.83
832.994	30.48
833.167	30.67
833.34	31.74
833.514	31.21
833.687	31.71
833.86	31.35
834.034	30.75
834.207	30.43
834.38	30.5
834.553	29.74
834.727	29.8
834.9	29.78
835.073	30.05
835.246	29.19
835.419	28.94
835.593	29.12
835.766	28.93
835.939	29.92
836.112	30.73
836.285	30.91
836.458	31.48
836.631	30.35
836.804	31.7
836.977	29.99
837.15	30.93
837.323	31.85
837.496	31.38
837.669	32.17
837.842	32.66
838.015	31.73
838.188	32.25
838.361	32.32
838.533	33.87
838.706	32.89
838.879	33.02
839.052	32.74
839.225	32.17
839.398	32.6
839.57	32.73
839.743	32.17
839.916	33.38
840.088	32.92
840.261	34.54
840.434	35.49
840.607	37.44
840.779	36.97
840.952	35.8
841.124	35.33
841.297	33.67
841.47	32.82
841.642	31.51
841.815	30.72
841.987	29.68
842.16	28.45
842.332	28.81
842.505	28.45
842.677	29.26
842.85	29.57
843.022	29.51
843.194	31.18
843.367	32.28
843.539	33.38
843.712	34.26
843.884	37.43
844.056	38.13
844.229	38.35
844.401	38.3
844.573	39.15
844.745	38.35
844.918	37.46
845.09	38.87
845.262	38.85
845.434	38.49
845.606	37.24
845.779	39.34
845.951	39.56
846.123	36.82
846.295	35.8
846.467	33.38
846.639	36.9
846.811	37.52
846.983	35.58
847.155	33.25
847.327	34.69
847.499	33.9
847.671	30.67
847.843	30.45
848.015	32.68
848.187	30.9
848.359	33.6
848.531	33.11
848.703	33.4
848.875	34.66
849.047	34.5
849.218	33.68
849.39	36.38
849.562	36.31
849.734	35.66
849.905	36.34
850.077	38.93
850.249	41.78
850.421	40.56
850.592	39.75
850.764	38.52
850.936	42.39
851.107	42.21
851.279	39.87
851.451	41.28
851.622	38.84
851.794	37.91
851.965	37.77
852.137	32.88
852.308	33.41
852.48	35.79
852.651	37.9
852.823	35.3
852.994	33.25
853.166	34.23
853.337	29.97
853.509	33.81
853.68	34.09
853.851	35.54
854.023	37.23
854.194	34.84
854.365	32.42
854.537	31.26
854.708	30.94
854.879	30.84
855.05	30.35
855.222	34.54
855.393	34.9
855.564	33.82
855.735	32.66
855.906	30.31
856.078	30.58
856.249	35.4
856.42	33.25
856.591	37.03
856.762	38.4
856.933	40.29
857.104	36.86
857.275	34.59
857.446	35.37
857.617	33.18
857.788	34.66
857.959	36.77
858.13	33.99
858.301	33.89
858.472	33.31
858.643	34.32
858.814	29.85
858.985	29.43
859.155	32.36
859.326	34.26
859.497	36.8
859.668	37.05
859.839	36.45
860.009	37.34
860.18	38.26
860.351	36.46
860.522	38.22
860.692	41.82
860.863	44.15
861.034	44.85
861.204	44.11
861.375	45.16
861.546	47.6
861.716	46.96
861.887	43
862.057	41.97
862.228	45.51
862.398	46.16
862.569	47.4
862.739	49.99
862.91	48
863.08	48.56
863.251	46.97
863.421	42.34
863.592	41.29
863.762	45.5
863.932	43.55
864.103	38.9
864.273	33.94
864.443	31.54
864.614	30.15
864.784	28.27
864.954	25.22
865.125	24.25
865.295	26.58
865.465	29.94
865.635	28.14
865.805	32.3
865.976	33.74
866.146	33.48
866.316	33.99
866.486	33.16
866.656	35.93
866.826	37.85
866.996	35.43
867.166	35.47
867.336	33.94
867.506	35.21
867.676	32.69
867.846	32.93
868.016	36.43
868.186	34.1
868.356	34.56
868.526	33.17
868.696	33.95
868.866	37.39
869.036	38.08
869.206	36.12
869.376	36.7
869.545	35.09
869.715	37.8
869.885	31.99
870.055	36.53
870.224	36.25
870.394	32.59
870.564	31.28
870.734	31.79
870.903	32.12
871.073	32.72
871.243	32.09
871.412	32.63
871.582	28.78
871.751	31.21
871.921	33.26
872.091	34.62
872.26	38.88
872.43	38.19
872.599	35.12
872.769	35.63
872.938	33.44
873.108	34.67
873.277	38.51
873.446	40.59
873.616	39.9
873.785	34.46
873.955	34.02
874.124	30.09
874.293	29.92
874.463	30.28
874.632	30.43
874.801	33.87
874.971	30.82
875.14	30.01
875.309	28.64
875.478	27.45
875.647	28.86
875.817	28.06
875.986	32.22
876.155	32.93
876.324	32.05
876.493	32.4
876.662	33.83
876.831	36.08
877	35.13
877.17	39.17
877.339	41.6
877.508	43.36
877.677	44.32
877.846	44.13
878.015	43.98
878.184	45.18
878.352	44.32
878.521	43.05
878.69	42.28
878.859	40.68
879.028	37.79
879.197	37.64
879.366	35.24
879.534	33.46
879.703	32.99
879.872	32.77
880.041	33.14
880.21	30.79
880.378	29.46
880.547	27.41
880.716	26.87
880.884	26.92
881.053	27.09
881.222	28.08
881.39	27.95
881.559	27.23
881.727	27.24
881.896	26.84
882.065	27.34
882.233	26.77
882.402	27.32
882.57	27.43
882.739	27.11
882.907	26.93
883.076	26.15
883.244	26.58
883.412	26.57
883.581	25.85
883.749	26.07
883.918	25.65
884.086	26.66
884.254	26.05
884.423	26.25
884.591	26.66
884.759	26.4
884.927	25.91
885.096	25.25
885.264	25.32
885.432	25.64
885.6	25.13
885.769	25.43
885.937	24.38
886.105	26.78
886.273	29.03
886.441	29.08
886.609	30
886.777	30.06
886.945	30.06
887.113	29.95
887.281	31.12
887.449	30.03
887.617	31.75
887.785	33.02
887.953	33.09
888.121	29.53
888.289	29.02
888.457	28.35
888.625	33.01
888.793	34.47
888.961	34.66
889.129	35.8
889.296	37.66
889.464	35.68
889.632	35.28
889.8	33.75
889.967	36.61
890.135	39.51
