Data from 2938728__Reflection_01.txt Node
Date: Sun Mar 15 19:17:38 EDT 2015
User: robert
Spectrometer: USB4E03002
Autoset integration time: false
Trigger mode: 4
Integration Time (sec): 1.000000E-1
Scans to average: 10
Electric dark correction enabled: false
Nonlinearity correction enabled: false
Boxcar width: 5
Stray light correction enabled: false
XAxis mode: Wavelengths
Stop averaging: false
Number of Pixels in Spectrum: 3648
>>>>>Begin Spectral Data<<<<<
177.575	99.1
177.794	107.84
178.014	121.27
178.233	143.79
178.452	120.61
178.672	137.28
178.891	145.78
179.11	-4.9
179.33	4.69
179.549	-170.18
179.768	404.17
179.987	303.57
180.207	292.41
180.426	-1096.77
180.645	-145.21
180.864	-178.05
181.084	-116.15
181.303	-65.17
181.522	-34.67
181.741	-90.5
181.96	-103.66
182.179	156.45
182.398	-25.78
182.618	-52.08
182.837	26.9
183.056	47.31
183.275	43.97
183.494	7.87
183.713	19.76
183.932	8.52
184.151	25.14
184.37	28.33
184.589	60.32
184.808	93.71
185.027	94.65
185.246	90.46
185.465	161.87
185.684	255.86
185.903	-98.88
186.122	28.9
186.341	21.15
186.56	57.87
186.779	53.78
186.998	114.89
187.216	178.28
187.435	175.4
187.654	258.33
187.873	405.61
188.092	991.49
188.311	-8733.33
188.53	-294.68
188.748	-166.32
188.967	-74.18
189.186	-72.26
189.405	-99.28
189.623	-89.58
189.842	-77.78
190.061	-91.3
190.28	-39.94
190.498	-28.13
190.717	-28.2
190.936	-6.49
191.154	5.69
191.373	-16.7
191.592	-17.69
191.81	-18.66
192.029	-7.74
192.248	-18.3
192.466	-19.77
192.685	-46.17
192.904	-44.63
193.122	-49.37
193.341	-36.8
193.559	-67.81
193.778	-91.77
193.996	-98.49
194.215	-60.31
194.433	-35
194.652	-19.62
194.87	-126.97
195.089	-109.61
195.307	-24.73
195.526	3.55
195.744	-17.56
195.963	56.88
196.181	-38.66
196.399	5.33
196.618	19.73
196.836	-55.17
197.055	-7.73
197.273	19.5
197.491	-8.33
197.71	3285.71
197.928	6440
198.146	-1300
198.365	-569.88
198.583	-53.01
198.801	-96.75
199.019	-116.67
199.238	-49.65
199.456	-92.4
199.674	-66.67
199.892	19.17
200.111	-12.44
200.329	13.37
200.547	-42.58
200.765	30.26
200.983	49.02
201.202	79.7
201.42	66
201.638	60.71
201.856	90.5
202.074	159.66
202.292	123.13
202.51	196.71
202.728	308.27
202.946	183.2
203.165	398.55
203.383	-1178.79
203.601	-600
203.819	-258.46
204.037	-212.59
204.255	-294.67
204.473	-595.24
204.691	-1900
204.909	488.1
205.127	64
205.345	120.57
205.562	107.69
205.78	15.3
205.998	7.37
206.216	-15.62
206.434	-35.33
206.652	-17.45
206.87	-2.94
207.088	-30.97
207.306	11.49
207.523	5.29
207.741	0.48
207.959	-25.83
208.177	-110.39
208.395	-106.11
208.612	-62.73
208.83	-45.43
209.048	-36.39
209.266	-31.81
209.483	-10.31
209.701	-24.36
209.919	-4.7
210.136	15.03
210.354	55.08
210.572	86.47
210.79	57.85
211.007	62.66
211.225	91.27
211.442	77.62
211.66	64.71
211.878	66.57
212.095	75.05
212.313	52.01
212.53	45.16
212.748	41.37
212.966	47.77
213.183	32.4
213.401	39.79
213.618	30.35
213.836	18.07
214.053	23.12
214.271	8.06
214.488	12.88
214.705	21.24
214.923	11.63
215.14	-5.67
215.358	-7.25
215.575	-3.83
215.793	-5.05
216.01	-5.15
216.227	-5.42
216.445	-5.97
216.662	9.66
216.879	17.26
217.097	7.52
217.314	5.51
217.531	5.3
217.749	-2.72
217.966	-0.65
218.183	-1
218.4	-28.7
218.618	-12.49
218.835	-2.03
219.052	-28.57
219.269	-37.44
219.487	-26.34
219.704	-40.49
219.921	-28.98
220.138	-7.54
220.355	-20.41
220.572	-26.32
220.79	-12.31
221.007	-40.17
221.224	-59.25
221.441	-29.63
221.658	-20.17
221.875	-21.54
222.092	-5.81
222.309	-5.55
222.526	-15.29
222.743	-4.97
222.96	-13.49
223.177	-10.63
223.394	4.32
223.611	5.17
223.828	-2.94
224.045	-10.46
224.262	-12.82
224.479	-11.64
224.696	-20.38
224.913	-19.46
225.13	-17.67
225.347	-10.53
225.564	-10.21
225.781	-11.39
225.997	-8.2
226.214	-7.25
226.431	-2.77
226.648	-4.3
226.865	-4.47
227.082	-2.51
227.298	-1
227.515	0.02
227.732	-1.63
227.949	-0.86
228.165	-1.39
228.382	-1.47
228.599	-1.71
228.816	-1.57
229.032	-0.8
229.249	-0.76
229.466	-0.13
229.682	-0.47
229.899	-1.16
230.116	0.43
230.332	-0.12
230.549	0.11
230.765	0.61
230.982	1.53
231.199	0.78
231.415	-0.53
231.632	0.25
231.848	0.52
232.065	1.23
232.281	0.15
232.498	-2.11
232.714	-0.6
232.931	-1.54
233.147	-3.44
233.364	-4.34
233.58	-5.84
233.797	-4.4
234.013	-8.41
234.23	-8.28
234.446	-6.68
234.662	-5.05
234.879	-4.43
235.095	-5.23
235.312	-3.98
235.528	-3.71
235.744	-3.14
235.961	-2.62
236.177	-2.11
236.393	0.76
236.61	-0.11
236.826	-1.95
237.042	-2.72
237.258	-2.23
237.475	-0.07
237.691	-0.38
237.907	0.48
238.123	0.18
238.339	2.37
238.556	2.04
238.772	1.17
238.988	0.44
239.204	1.19
239.42	1.41
239.636	1.82
239.853	0.08
240.069	0.23
240.285	-0.32
240.501	-0.36
240.717	-0.86
240.933	-0.96
241.149	-1.02
241.365	-0.11
241.581	0.11
241.797	0.39
242.013	-0.19
242.229	-0.24
242.445	-0.13
242.661	0.34
242.877	0.81
243.093	1.04
243.309	0.98
243.525	0.49
243.741	0.1
243.957	-0.37
244.173	-0.71
244.388	-0.84
244.604	-0.81
244.82	-1.38
245.036	-1.58
245.252	-2.2
245.468	-2.37
245.683	-1.92
245.899	-0.72
246.115	-0.34
246.331	-0.18
246.547	0.01
246.762	0.24
246.978	0.68
247.194	1.23
247.409	1.39
247.625	1.48
247.841	1.72
248.057	1.66
248.272	1.57
248.488	1.54
248.703	1.46
248.919	1.6
249.135	1.59
249.35	1.59
249.566	1.24
249.782	0.63
249.997	0.65
250.213	-0.3
250.428	0.37
250.644	-0.13
250.859	0.36
251.075	-0.34
251.29	-0.7
251.506	-1.07
251.721	-1.18
251.937	-1.74
252.152	-1.09
252.368	-1.09
252.583	-0.37
252.798	-0.82
253.014	-0.76
253.229	-1.45
253.445	-0.96
253.66	-0.96
253.875	-0.59
254.091	-1.62
254.306	-1.53
254.521	-1.82
254.737	-2.15
254.952	-2.44
255.167	-3.08
255.383	-2.57
255.598	-1.73
255.813	-1.28
256.028	-1.39
256.244	-0.54
256.459	-1.06
256.674	-0.97
256.889	-1.68
257.104	-1.45
257.32	-0.95
257.535	-0.74
257.75	-0.8
257.965	-1.02
258.18	-0.87
258.395	-0.51
258.61	-0.74
258.826	-0.44
259.041	-0.03
259.256	0.36
259.471	0.4
259.686	0.38
259.901	0.41
260.116	0.45
260.331	0.42
260.546	0.34
260.761	0.42
260.976	0.41
261.191	0.46
261.406	0.44
261.621	-0.02
261.836	0.17
262.05	-0.02
262.265	0.01
262.48	0.02
262.695	0.69
262.91	1.13
263.125	0.78
263.34	0.52
263.555	0.12
263.769	-0.45
263.984	-0.6
264.199	-0.87
264.414	-1.28
264.629	-1.18
264.843	-1.71
265.058	-2.48
265.273	-3.14
265.488	-3.48
265.702	-3.04
265.917	-2.6
266.132	-2.66
266.346	-2.27
266.561	-2.48
266.776	-2.09
266.99	-2.3
267.205	-2.02
267.42	-2.62
267.634	-2.41
267.849	-2.44
268.063	-2.06
268.278	-2.14
268.492	-1.86
268.707	-1.51
268.922	-1.06
269.136	-1.3
269.351	-1.47
269.565	-1.6
269.78	-1.1
269.994	-0.66
270.209	-0.43
270.423	-1.09
270.637	-1.16
270.852	-1.15
271.066	-1.36
271.281	-1.42
271.495	-1.48
271.709	-0.84
271.924	-0.74
272.138	-0.68
272.353	-1.12
272.567	-0.87
272.781	-0.61
272.996	-0.16
273.21	0.18
273.424	0.68
273.638	1.17
273.853	1.57
274.067	1.52
274.281	1.27
274.495	1.3
274.71	1.42
274.924	1.44
275.138	1.32
275.352	0.77
275.566	0.62
275.781	0.58
275.995	0.18
276.209	0.47
276.423	0.01
276.637	0.7
276.851	0.35
277.065	0.59
277.279	0.26
277.493	0.4
277.707	0.4
277.921	0.22
278.135	0.02
278.349	-0.68
278.563	-1.28
278.777	-0.95
278.991	-1.38
279.205	-1.61
279.419	-1.72
279.633	-1.58
279.847	-1.77
280.061	-1.32
280.275	-1.74
280.489	-1.83
280.703	-1.5
280.917	-1.32
281.131	-1.09
281.344	-1.26
281.558	-0.62
281.772	-0.44
281.986	-0.15
282.2	0.03
282.414	0.01
282.627	0.15
282.841	0.33
283.055	0.37
283.269	0.33
283.482	0.25
283.696	0.51
283.91	0.65
284.123	0.69
284.337	0.48
284.551	0.36
284.764	-0.22
284.978	0.12
285.192	-0.07
285.405	-0
285.619	-0.03
285.833	-0.27
286.046	-0.57
286.26	-0.96
286.473	-1.3
286.687	-1.43
286.9	-1.22
287.114	-0.98
287.327	-1.07
287.541	-0.65
287.754	-0.65
287.968	-0.48
288.181	-0.48
288.395	0.09
288.608	0.55
288.822	0.47
289.035	0.82
289.248	0.65
289.462	1.15
289.675	1.13
289.889	0.79
290.102	0.69
290.315	0.95
290.529	0.84
290.742	0.62
290.955	0.55
291.169	1.03
291.382	0.46
291.595	0.56
291.808	0.17
292.022	-0.18
292.235	-0.18
292.448	-0.37
292.661	-0.57
292.875	-0.67
293.088	-0.53
293.301	-0.59
293.514	-0.74
293.727	-0.33
293.94	-0.41
294.153	-0.45
294.367	0.13
294.58	0.23
294.793	0.37
295.006	0.16
295.219	0.59
295.432	0.47
295.645	0.38
295.858	0.2
296.071	0.27
296.284	0.18
296.497	0.56
296.71	0.15
296.923	0.11
297.136	0.46
297.349	0.6
297.562	0.34
297.775	0.26
297.988	0.35
298.201	0.35
298.414	0.17
298.626	0.48
298.839	0.21
299.052	0.44
299.265	0.4
299.478	0.15
299.691	-0.17
299.903	-0.2
300.116	-0.04
300.329	0.04
300.542	0.15
300.755	0.04
300.967	0.21
301.18	0.03
301.393	-0.09
301.605	-0.01
301.818	0.13
302.031	0.4
302.243	0.85
302.456	0.93
302.669	0.92
302.881	0.9
303.094	1.13
303.307	0.49
303.519	0.68
303.732	1
303.944	1.21
304.157	1.06
304.37	1.1
304.582	0.96
304.795	0.69
305.007	0.79
305.22	0.82
305.432	0.84
305.645	1.2
305.857	1.74
306.069	1.32
306.282	1.07
306.494	0.98
306.707	0.78
306.919	0.59
307.132	0.88
307.344	0.43
307.556	0.56
307.769	0.45
307.981	0.6
308.193	0.2
308.406	0.55
308.618	0.52
308.83	1
309.043	0.98
309.255	1.55
309.467	1.35
309.679	1.81
309.892	1.75
310.104	1.9
310.316	1.71
310.528	1.97
310.74	2.03
310.953	2.19
311.165	1.7
311.377	1.96
311.589	1.85
311.801	1.82
312.013	1.65
312.225	1.95
312.437	2.23
312.649	2.33
312.862	2.07
313.074	1.64
313.286	1.92
313.498	2.31
313.71	2.5
313.922	2.61
314.134	3.07
314.346	3.2
314.558	2.96
314.77	2.63
314.982	2.53
315.193	2.28
315.405	2.44
315.617	2.22
315.829	2.17
316.041	1.89
316.253	1.39
316.465	1.54
316.677	1.46
316.888	1.52
317.1	2.05
317.312	2.36
317.524	2.61
317.736	2.76
317.947	2.52
318.159	2.47
318.371	2.99
318.583	3.56
318.794	3.01
319.006	2.87
319.218	3.08
319.43	2.46
319.641	2.41
319.853	2.7
320.064	2.63
320.276	2.99
320.488	3.07
320.699	2.56
320.911	2.59
321.123	3.36
321.334	3.09
321.546	3.2
321.757	3.57
321.969	3.72
322.18	3.53
322.392	3.91
322.603	4.07
322.815	4.13
323.026	4.61
323.238	4.43
323.449	3.99
323.661	3.68
323.872	4.02
324.083	3.62
324.295	3.72
324.506	4.15
324.718	4.63
324.929	4.42
325.14	4.58
325.352	4.67
325.563	4.68
325.774	5.57
325.986	6.6
326.197	6.55
326.408	7.17
326.62	7.81
326.831	7.91
327.042	8.1
327.253	8.49
327.464	8.68
327.676	8.61
327.887	9
328.098	8.99
328.309	8.92
328.52	9.14
328.732	9.21
328.943	8.88
329.154	8.89
329.365	8.66
329.576	8.52
329.787	8.59
329.998	8.86
330.209	9.45
330.42	9.82
330.631	10.43
330.842	10.23
331.053	10.43
331.264	10.77
331.475	11.05
331.686	11.67
331.897	12.37
332.108	12.8
332.319	13.64
332.53	13.23
332.741	12.87
332.952	13.02
333.163	13.32
333.374	13.26
333.585	13.71
333.795	14.04
334.006	14.13
334.217	13.94
334.428	13.99
334.639	13.77
334.849	14.12
335.06	14.43
335.271	14.21
335.482	14.75
335.692	14.95
335.903	14.94
336.114	15.05
336.325	15.05
336.535	15.12
336.746	15.02
336.957	14.89
337.167	14.73
337.378	14.81
337.589	15.21
337.799	14.92
338.01	15.09
338.22	15.07
338.431	15.17
338.642	14.79
338.852	15.18
339.063	15.32
339.273	15.21
339.484	15.74
339.694	15.79
339.905	15.5
340.115	14.99
340.326	15
340.536	15.18
340.746	15.07
340.957	15.42
341.167	14.97
341.378	14.93
341.588	15.08
341.799	14.92
342.009	14.68
342.219	14.65
342.43	15.43
342.64	15.56
342.85	15.38
343.061	15.44
343.271	15.47
343.481	15.43
343.691	15.5
343.902	15.43
344.112	15.22
344.322	15.3
344.532	15.47
344.743	15.27
344.953	15.63
345.163	15.47
345.373	15.64
345.583	15.51
345.793	15.9
346.004	16.16
346.214	16.2
346.424	16.16
346.634	16.02
346.844	15.87
347.054	15.62
347.264	15.01
347.474	15.32
347.684	14.93
347.894	15.29
348.104	15.3
348.314	15.14
348.524	14.91
348.734	15.02
348.944	15.2
349.154	15.68
349.364	16.22
349.574	16.4
349.784	16.39
349.994	16.47
350.204	16.22
350.413	16.15
350.623	16.02
350.833	15.99
351.043	15.64
351.253	15.67
351.463	15.33
351.672	15.03
351.882	15.22
352.092	15.1
352.302	15.11
352.511	15.07
352.721	15
352.931	15.08
353.141	15.56
353.35	15.97
353.56	16.18
353.77	16.04
353.979	16.07
354.189	15.98
354.399	15.79
354.608	15.77
354.818	16.21
355.027	15.97
355.237	16.13
355.447	16.28
355.656	16.17
355.866	15.9
356.075	16.03
356.285	16.01
356.494	15.83
356.704	15.83
356.913	16.03
357.123	15.89
357.332	15.92
357.542	15.71
357.751	15.26
357.96	15.47
358.17	15.48
358.379	15.52
358.589	15.44
358.798	15.42
359.007	15.69
359.217	15.21
359.426	15.1
359.635	15.14
359.845	15.26
360.054	15.3
360.263	15.08
360.472	15.44
360.682	15.58
360.891	15.59
361.1	15.69
361.309	15.51
361.519	15.7
361.728	15.58
361.937	15.53
362.146	15.51
362.355	15.78
362.564	15.55
362.774	15.27
362.983	15.01
363.192	15.06
363.401	15.1
363.61	15.15
363.819	15.15
364.028	15.11
364.237	15.36
364.446	15.29
364.655	14.98
364.864	15.21
365.073	15.09
365.282	15.01
365.491	14.9
365.7	15.03
365.909	15.28
366.118	15.22
366.327	15.34
366.536	15.25
366.745	15.28
366.954	15.35
367.162	15.36
367.371	15.33
367.58	15.55
367.789	15.71
367.998	15.33
368.207	15.14
368.415	15.37
368.624	15.51
368.833	15.59
369.042	15.46
369.25	15.25
369.459	14.95
369.668	15.16
369.877	15.16
370.085	15.26
370.294	15.4
370.503	15.39
370.711	15.29
370.92	15
371.129	14.99
371.337	15.05
371.546	15.32
371.754	16.06
371.963	16.05
372.171	16.22
372.38	15.98
372.589	15.95
372.797	15.9
373.006	15.82
373.214	15.87
373.423	15.88
373.631	15.99
373.84	15.73
374.048	15.4
374.256	15.12
374.465	15.06
374.673	15.14
374.882	15.18
375.09	15.27
375.298	15.28
375.507	15.38
375.715	15.6
375.923	15.41
376.132	15.65
376.34	15.38
376.548	15.71
376.757	15.68
376.965	15.57
377.173	15.71
377.381	15.6
377.59	15.52
377.798	15.43
378.006	15
378.214	15.15
378.423	15.09
378.631	15.22
378.839	14.97
379.047	14.71
379.255	14.7
379.463	14.51
379.671	14.35
379.879	14.66
380.088	14.74
380.296	14.73
380.504	14.79
380.712	15.01
380.92	15.03
381.128	15.07
381.336	14.92
381.544	15.04
381.752	15.03
381.96	15.04
382.168	14.77
382.376	14.7
382.584	14.87
382.791	14.94
382.999	14.7
383.207	14.62
383.415	14.68
383.623	15.03
383.831	14.95
384.039	15.27
384.247	15.55
384.454	15.78
384.662	15.95
384.87	15.96
385.078	15.85
385.285	15.67
385.493	15.93
385.701	15.95
385.909	15.88
386.116	15.94
386.324	15.94
386.532	15.72
386.739	15.7
386.947	15.53
387.155	15.15
387.362	14.86
387.57	15.18
387.778	15.01
387.985	15.01
388.193	14.88
388.4	15.11
388.608	14.71
388.816	14.89
389.023	15
389.231	15.03
389.438	15.3
389.646	15.61
389.853	15.4
390.061	15.33
390.268	15.18
390.475	15.28
390.683	15.07
390.89	15.29
391.098	15.14
391.305	14.83
391.512	14.91
391.72	15.02
391.927	14.92
392.135	14.95
392.342	15.18
392.549	15.32
392.756	15.33
392.964	15.21
393.171	15.32
393.378	15.41
393.586	15.59
393.793	15.57
394	15.61
394.207	15.65
394.414	15.8
394.622	15.76
394.829	15.63
395.036	15.53
395.243	15.68
395.45	15.6
395.657	15.54
395.864	15.71
396.072	15.81
396.279	15.81
396.486	15.91
396.693	15.68
396.9	15.66
397.107	15.78
397.314	16.04
397.521	16.05
397.728	15.89
397.935	15.95
398.142	15.7
398.349	15.52
398.556	15.47
398.763	15.55
398.97	15.74
399.177	15.75
399.383	15.79
399.59	15.76
399.797	15.89
400.004	16.07
400.211	15.99
400.418	16.1
400.625	16.19
400.831	16.15
401.038	16.21
401.245	16.31
401.452	16.33
401.658	16.32
401.865	16.3
402.072	16.26
402.279	16.39
402.485	16.46
402.692	16.39
402.899	16.37
403.105	16.48
403.312	16.36
403.519	16.33
403.725	16.43
403.932	16.52
404.138	16.55
404.345	16.45
404.552	16.27
404.758	16.27
404.965	16.27
405.171	16.4
405.378	16.38
405.584	16.3
405.791	16.21
405.997	16.11
406.204	16.2
406.41	16.31
406.617	16.26
406.823	16.36
407.029	16.3
407.236	16.15
407.442	16.13
407.649	16.09
407.855	16.2
408.061	16.16
408.268	16.03
408.474	15.75
408.68	15.72
408.887	15.98
409.093	15.76
409.299	16
409.505	16.18
409.712	16.2
409.918	16.23
410.124	16.29
410.33	16.49
410.537	16.48
410.743	16.61
410.949	16.43
411.155	16.38
411.361	16.62
411.567	16.61
411.773	16.59
411.98	16.63
412.186	16.67
412.392	16.73
412.598	16.51
412.804	16.72
413.01	16.94
413.216	17
413.422	16.97
413.628	17.05
413.834	17.03
414.04	17.15
414.246	17.17
414.452	17.32
414.658	17.13
414.864	17.36
415.07	17.36
415.275	17.34
415.481	17.42
415.687	17.33
415.893	17.18
416.099	17.21
416.305	17.28
416.511	17.31
416.716	17.25
416.922	17.37
417.128	17.42
417.334	17.38
417.539	17.28
417.745	17.25
417.951	17.34
418.157	17.53
418.362	17.52
418.568	17.61
418.774	17.54
418.979	17.64
419.185	17.61
419.391	17.57
419.596	17.69
419.802	17.72
420.008	17.79
420.213	17.82
420.419	17.81
420.624	17.85
420.83	17.76
421.035	17.82
421.241	17.75
421.446	17.76
421.652	17.8
421.857	17.79
422.063	17.88
422.268	17.89
422.474	17.93
422.679	17.84
422.885	17.85
423.09	17.85
423.295	17.87
423.501	17.98
423.706	18.12
423.911	18.03
424.117	18.1
424.322	17.99
424.527	17.91
424.733	17.98
424.938	18.05
425.143	18.05
425.349	18.05
425.554	18.06
425.759	17.97
425.964	17.91
426.169	17.98
426.375	17.91
426.58	18.04
426.785	18.16
426.99	17.99
427.195	18.02
427.4	18.04
427.605	18.08
427.811	18.15
428.016	18.28
428.221	18.31
428.426	18.42
428.631	18.65
428.836	18.61
429.041	18.54
429.246	18.59
429.451	18.66
429.656	18.63
429.861	18.62
430.066	18.57
430.271	18.62
430.476	18.6
430.681	18.53
430.886	18.47
431.09	18.47
431.295	18.6
431.5	18.68
431.705	18.61
431.91	18.64
432.115	18.72
432.32	18.79
432.524	18.59
432.729	18.54
432.934	18.59
433.139	18.59
433.343	18.76
433.548	18.79
433.753	18.85
433.958	18.94
434.162	19.08
434.367	19.2
434.572	19.24
434.776	19.49
434.981	19.68
435.186	19.78
435.39	19.89
435.595	20
435.799	20.08
436.004	20.22
436.209	20.25
436.413	20.2
436.618	20.13
436.822	20.1
437.027	20.03
437.231	19.97
437.436	20
437.64	19.74
437.845	19.59
438.049	19.56
438.253	19.4
438.458	19.38
438.662	19.42
438.867	19.38
439.071	19.44
439.275	19.49
439.48	19.48
439.684	19.4
439.888	19.54
440.093	19.57
440.297	19.6
440.501	19.69
440.706	19.6
440.91	19.56
441.114	19.71
441.318	19.78
441.523	19.75
441.727	19.71
441.931	19.73
442.135	19.64
442.339	19.64
442.543	19.58
442.748	19.58
442.952	19.65
443.156	19.75
443.36	19.67
443.564	19.59
443.768	19.58
443.972	19.72
444.176	19.68
444.38	19.83
444.584	19.89
444.788	19.87
444.992	19.79
445.196	19.87
445.4	19.81
445.604	19.79
445.808	19.8
446.012	19.81
446.216	19.79
446.42	19.8
446.624	19.76
446.828	19.71
447.032	19.74
447.235	19.77
447.439	19.77
447.643	19.78
447.847	19.72
448.051	19.71
448.254	19.73
448.458	19.65
448.662	19.65
448.866	19.58
449.069	19.53
449.273	19.53
449.477	19.56
449.681	19.43
449.884	19.45
450.088	19.57
450.292	19.5
450.495	19.48
450.699	19.67
450.902	19.69
451.106	19.83
451.31	19.88
451.513	19.82
451.717	19.77
451.92	19.88
452.124	19.87
452.327	19.88
452.531	20.03
452.734	19.97
452.938	19.94
453.141	20
453.345	19.91
453.548	19.9
453.752	20.09
453.955	20.11
454.158	20.08
454.362	20.02
454.565	19.99
454.769	19.82
454.972	19.92
455.175	19.94
455.379	19.95
455.582	20.05
455.785	20.08
455.988	20.01
456.192	20.14
456.395	20.23
456.598	20.29
456.801	20.23
457.005	20.38
457.208	20.27
457.411	20.24
457.614	20.31
457.817	20.22
458.021	20.24
458.224	20.23
458.427	20.07
458.63	20.03
458.833	20.06
459.036	20.11
459.239	20
459.442	20.04
459.645	20.03
459.848	19.98
460.051	20.09
460.254	20.13
460.457	20.13
460.66	20.19
460.863	20.25
461.066	20.23
461.269	20.23
461.472	20.32
461.675	20.39
461.878	20.4
462.081	20.43
462.284	20.32
462.486	20.2
462.689	20.2
462.892	20.2
463.095	20.17
463.298	20.2
463.5	20.16
463.703	20.22
463.906	20.16
464.109	20.18
464.311	20.11
464.514	20.23
464.717	20.29
464.92	20.34
465.122	20.45
465.325	20.52
465.528	20.59
465.73	20.63
465.933	20.68
466.135	20.67
466.338	20.69
466.541	20.62
466.743	20.46
466.946	20.5
467.148	20.4
467.351	20.31
467.553	20.24
467.756	20.14
467.958	20.13
468.161	20.03
468.363	20.09
468.566	20.05
468.768	20.07
468.971	20.2
469.173	20.18
469.375	20.32
469.578	20.34
469.78	20.28
469.983	20.44
470.185	20.45
470.387	20.44
470.59	20.41
470.792	20.45
470.994	20.47
471.196	20.49
471.399	20.47
471.601	20.44
471.803	20.39
472.005	20.46
472.208	20.39
472.41	20.42
472.612	20.38
472.814	20.38
473.016	20.34
473.218	20.36
473.421	20.37
473.623	20.49
473.825	20.46
474.027	20.6
474.229	20.5
474.431	20.48
474.633	20.42
474.835	20.51
475.037	20.43
475.239	20.45
475.441	20.44
475.643	20.32
475.845	20.29
476.047	20.35
476.249	20.27
476.451	20.35
476.653	20.42
476.855	20.43
477.057	20.42
477.258	20.48
477.46	20.43
477.662	20.4
477.864	20.41
478.066	20.37
478.268	20.35
478.469	20.32
478.671	20.28
478.873	20.25
479.075	20.26
479.276	20.26
479.478	20.27
479.68	20.31
479.882	20.44
480.083	20.57
480.285	20.53
480.487	20.56
480.688	20.63
480.89	20.65
481.091	20.65
481.293	20.76
481.495	20.71
481.696	20.62
481.898	20.64
482.099	20.51
482.301	20.47
482.502	20.51
482.704	20.45
482.905	20.43
483.107	20.45
483.308	20.41
483.51	20.37
483.711	20.39
483.913	20.41
484.114	20.39
484.315	20.43
484.517	20.45
484.718	20.43
484.92	20.48
485.121	20.51
485.322	20.52
485.524	20.55
485.725	20.56
485.926	20.58
486.127	20.63
486.329	20.66
486.53	20.66
486.731	20.68
486.932	20.68
487.134	20.67
487.335	20.67
487.536	20.67
487.737	20.67
487.938	20.68
488.139	20.64
488.341	20.64
488.542	20.68
488.743	20.74
488.944	20.76
489.145	20.76
489.346	20.79
489.547	20.85
489.748	20.91
489.949	20.96
490.15	21
490.351	21.05
490.552	21.09
490.753	21.05
490.954	21.04
491.155	20.97
491.356	21.01
491.557	21
491.758	20.98
491.959	20.95
492.159	20.92
492.36	20.94
492.561	20.94
492.762	20.89
492.963	20.94
493.164	20.91
493.364	20.98
493.565	21
493.766	21.04
493.967	20.99
494.167	20.96
494.368	20.95
494.569	20.99
494.769	21.03
494.97	21.11
495.171	21.12
495.371	21.2
495.572	21.21
495.773	21.24
495.973	21.23
496.174	21.31
496.375	21.36
496.575	21.41
496.776	21.43
496.976	21.46
497.177	21.49
497.377	21.49
497.578	21.58
497.778	21.53
497.979	21.54
498.179	21.44
498.38	21.45
498.58	21.5
498.78	21.54
498.981	21.5
499.181	21.5
499.382	21.55
499.582	21.55
499.782	21.42
499.983	21.48
500.183	21.45
500.383	21.48
500.584	21.49
500.784	21.49
500.984	21.44
501.184	21.49
501.385	21.48
501.585	21.39
501.785	21.54
501.985	21.51
502.185	21.53
502.386	21.55
502.586	21.68
502.786	21.76
502.986	21.74
503.186	21.75
503.386	21.74
503.586	21.75
503.786	21.75
503.987	21.61
504.187	21.77
504.387	21.77
504.587	21.83
504.787	21.83
504.987	21.73
505.187	21.74
505.387	21.85
505.587	21.89
505.786	21.99
505.986	21.94
506.186	22.04
506.386	21.96
506.586	22.11
506.786	22.13
506.986	22.18
507.186	22.15
507.386	22.14
507.585	22.17
507.785	22.09
507.985	22.1
508.185	22.18
508.384	22.19
508.584	22.21
508.784	22.18
508.984	22.06
509.183	22.04
509.383	22.17
509.583	22.22
509.782	22.16
509.982	22.27
510.182	22.32
510.381	22.37
510.581	22.34
510.781	22.36
510.98	22.36
511.18	22.59
511.379	22.65
511.579	22.63
511.778	22.67
511.978	22.82
512.177	22.79
512.377	22.78
512.576	22.79
512.776	22.88
512.975	23.03
513.175	22.93
513.374	22.9
513.573	22.91
513.773	22.91
513.972	22.94
514.172	22.92
514.371	22.96
514.57	22.99
514.77	22.97
514.969	22.99
515.168	22.84
515.367	22.95
515.567	22.97
515.766	22.97
515.965	22.95
516.164	22.97
516.364	23
516.563	23.05
516.762	23.09
516.961	23.14
517.16	23.13
517.359	23.33
517.559	23.33
517.758	23.26
517.957	23.24
518.156	23.25
518.355	23.27
518.554	23.28
518.753	23.28
518.952	23.25
519.151	23.29
519.35	23.23
519.549	23.13
519.748	23.13
519.947	23.2
520.146	23.29
520.345	23.45
520.544	23.41
520.743	23.36
520.942	23.47
521.141	23.49
521.339	23.54
521.538	23.68
521.737	23.64
521.936	23.65
522.135	23.67
522.333	23.72
522.532	23.69
522.731	23.72
522.93	23.82
523.129	23.83
523.327	23.89
523.526	23.86
523.725	23.89
523.923	23.96
524.122	24.03
524.321	24.05
524.519	23.95
524.718	23.88
524.917	23.88
525.115	23.84
525.314	23.76
525.512	23.74
525.711	23.74
525.909	23.73
526.108	23.7
526.306	23.7
526.505	23.69
526.703	23.71
526.902	23.74
527.1	23.79
527.299	23.78
527.497	23.81
527.696	23.81
527.894	23.83
528.092	23.85
528.291	23.86
528.489	23.88
528.688	23.88
528.886	23.88
529.084	23.91
529.283	23.93
529.481	23.95
529.679	23.94
529.877	23.99
530.076	24.05
530.274	24.03
530.472	24.08
530.67	24.11
530.869	24.15
531.067	24.16
531.265	24.18
531.463	24.12
531.661	24.21
531.859	24.31
532.057	24.32
532.255	24.31
532.454	24.34
532.652	24.32
532.85	24.3
533.048	24.36
533.246	24.39
533.444	24.38
533.642	24.51
533.84	24.49
534.038	24.44
534.236	24.43
534.434	24.42
534.632	24.46
534.83	24.48
535.027	24.51
535.225	24.5
535.423	24.59
535.621	24.65
535.819	24.67
536.017	24.78
536.215	24.82
536.412	24.91
536.61	24.97
536.808	25
537.006	25.08
537.203	25.16
537.401	25.28
537.599	25.33
537.797	25.48
537.994	25.57
538.192	25.65
538.39	25.83
538.587	25.99
538.785	26.16
538.983	26.37
539.18	26.53
539.378	26.71
539.575	26.79
539.773	26.96
539.97	27.03
540.168	27.09
540.366	27.2
540.563	27.31
540.761	27.4
540.958	27.42
541.155	27.48
541.353	27.54
541.55	27.58
541.748	27.74
541.945	27.8
542.143	27.88
542.34	27.95
542.537	28.03
542.735	28.12
542.932	28.17
543.129	28.39
543.327	28.6
543.524	28.86
543.721	29.3
543.919	29.63
544.116	30.03
544.313	30.46
544.51	31
544.708	31.53
544.905	32.01
545.102	32.47
545.299	32.82
545.496	33.12
545.693	33.23
545.891	33.12
546.088	32.92
546.285	32.74
546.482	32.54
546.679	32.17
546.876	31.79
547.073	31.38
547.27	31.02
547.467	30.67
547.664	30.29
547.861	29.99
548.058	29.73
548.255	29.6
548.452	29.46
548.649	29.24
548.846	29.19
549.043	29.04
549.24	29
549.437	28.86
549.633	28.66
549.83	28.48
550.027	28.37
550.224	28.27
550.421	28.09
550.618	27.8
550.814	27.74
551.011	27.52
551.208	27.38
551.405	27.23
551.601	27.15
551.798	27.12
551.995	27.1
552.191	27.03
552.388	27.02
552.585	26.97
552.781	26.94
552.978	26.76
553.175	26.72
553.371	26.65
553.568	26.56
553.764	26.49
553.961	26.28
554.157	26.23
554.354	26.18
554.55	26.13
554.747	26.09
554.943	26.08
555.14	26.12
555.336	25.91
555.533	26.05
555.729	26.03
555.926	26.13
556.122	26.23
556.318	26.25
556.515	26.24
556.711	26.1
556.907	26.16
557.104	26.26
557.3	26.3
557.496	26.51
557.693	26.4
557.889	26.39
558.085	26.29
558.281	26.31
558.478	26.26
558.674	26.29
558.87	26.37
559.066	26.26
559.262	26.24
559.459	26.12
559.655	26.04
559.851	26
560.047	25.99
560.243	25.92
560.439	25.89
560.635	25.79
560.831	25.8
561.027	25.76
561.223	25.8
561.419	25.81
561.615	26.01
561.811	26.23
562.007	26.27
562.203	26.31
562.399	26.38
562.595	26.51
562.791	26.75
562.987	26.78
563.183	26.81
563.379	26.79
563.575	26.7
563.771	26.7
563.966	26.61
564.162	26.62
564.358	26.66
564.554	26.67
564.75	26.5
564.945	26.36
565.141	26.37
565.337	26.29
565.533	26.35
565.728	26.46
565.924	26.26
566.12	26.2
566.315	26.22
566.511	26.17
566.707	26.24
566.902	26.4
567.098	26.44
567.293	26.35
567.489	26.52
567.684	26.51
567.88	26.37
568.076	26.35
568.271	26.46
568.467	26.43
568.662	26.52
568.858	26.51
569.053	26.36
569.248	26.33
569.444	26.47
569.639	26.37
569.835	26.36
570.03	26.39
570.225	26.48
570.421	26.38
570.616	26.45
570.812	26.5
571.007	26.42
571.202	26.52
571.397	26.55
571.593	26.45
571.788	26.44
571.983	26.45
572.178	26.6
572.374	26.74
572.569	26.74
572.764	26.74
572.959	26.72
573.154	26.75
573.35	26.69
573.545	26.67
573.74	26.7
573.935	26.78
574.13	26.84
574.325	26.75
574.52	26.73
574.715	26.89
574.91	27.02
575.105	27.13
575.3	27.26
575.495	27.49
575.69	27.66
575.885	27.73
576.08	27.93
576.275	28.1
576.47	28.23
576.665	28.38
576.86	28.48
577.055	28.53
577.25	28.58
577.444	28.84
577.639	28.93
577.834	29.17
578.029	29.4
578.224	29.34
578.418	29.38
578.613	29.61
578.808	29.6
579.003	29.57
579.197	29.69
579.392	29.67
579.587	29.56
579.781	29.49
579.976	29.31
580.171	29.28
580.365	29.17
580.56	29.08
580.755	29.01
580.949	29.08
581.144	29.14
581.338	29
581.533	29.03
581.727	29
581.922	28.95
582.116	29.09
582.311	29.03
582.505	29.25
582.7	29.4
582.894	29.39
583.089	29.26
583.283	29.15
583.478	29.17
583.672	29.17
583.866	29.28
584.061	29.46
584.255	29.47
584.449	29.51
584.644	29.49
584.838	29.59
585.032	29.59
585.226	30.08
585.421	30.38
585.615	30.67
585.809	30.81
586.003	31
586.198	31.07
586.392	31.15
586.586	31.22
586.78	31.23
586.974	31.09
587.168	30.97
587.363	30.73
587.557	30.55
587.751	30.32
587.945	30.29
588.139	30.03
588.333	29.84
588.527	29.74
588.721	29.68
588.915	29.76
589.109	29.6
589.303	29.78
589.497	29.78
589.691	29.8
589.885	29.78
590.079	29.78
590.273	29.76
590.466	29.85
590.66	29.89
590.854	29.82
591.048	29.86
591.242	30.15
591.436	30.09
591.629	30.12
591.823	30.29
592.017	30.33
592.211	30.41
592.404	30.5
592.598	30.41
592.792	30.41
592.986	30.55
593.179	30.63
593.373	30.68
593.567	30.82
593.76	30.75
593.954	30.53
594.147	30.52
594.341	30.31
594.535	30.18
594.728	30.32
594.922	30.21
595.115	30.1
595.309	29.9
595.502	29.8
595.696	29.74
595.889	29.69
596.083	29.75
596.276	29.78
596.47	29.84
596.663	29.88
596.856	29.75
597.05	29.92
597.243	29.98
597.437	29.93
597.63	30.03
597.823	30.11
598.017	30.24
598.21	30.41
598.403	30.47
598.596	30.54
598.79	30.61
598.983	30.84
599.176	30.76
599.369	30.76
599.563	30.92
599.756	30.74
599.949	30.67
600.142	30.61
600.335	30.64
600.528	30.51
600.722	30.35
600.915	30.31
601.108	30.28
601.301	30.26
601.494	30.4
601.687	30.16
601.88	30.12
602.073	29.96
602.266	29.77
602.459	29.44
602.652	29.53
602.845	29.69
603.038	29.72
603.231	29.54
603.424	29.55
603.617	29.54
603.809	29.74
604.002	29.79
604.195	29.76
604.388	29.79
604.581	29.89
604.774	29.96
604.966	30.03
605.159	30.09
605.352	30.3
605.545	30.24
605.737	30.19
605.93	30.32
606.123	30.55
606.316	30.84
606.508	31.26
606.701	31.59
606.894	31.73
607.086	31.98
607.279	32.26
607.471	32.42
607.664	32.94
607.857	33.49
608.049	34.05
608.242	34.85
608.434	36.02
608.627	37.42
608.819	39.03
609.012	40.82
609.204	43.06
609.397	45.49
609.589	48.08
609.782	50.91
609.974	53.67
610.166	56.57
610.359	59.23
610.551	61.63
610.743	63.73
610.936	65.52
611.128	66.99
611.32	67.53
611.513	67.83
611.705	67.65
611.897	66.97
612.09	66.04
612.282	64.71
612.474	63.27
612.666	61.82
612.858	60.1
613.051	58.46
613.243	56.93
613.435	55.8
613.627	54.26
613.819	53.13
614.011	52.08
614.203	50.95
614.395	49.84
614.588	48.78
614.78	47.68
614.972	46.48
615.164	45.25
615.356	44.19
615.548	42.93
615.74	42.14
615.932	41.11
616.124	40.05
616.315	39
616.507	38.29
616.699	37.59
616.891	36.85
617.083	36.26
617.275	35.8
617.467	35.3
617.659	35.13
617.85	34.65
618.042	34.53
618.234	34.34
618.426	34.26
618.618	34.16
618.809	33.94
619.001	33.88
619.193	33.8
619.384	33.71
619.576	33.66
619.768	33.54
619.959	33.58
620.151	33.45
620.343	33.48
620.534	33.5
620.726	33.27
620.917	33.37
621.109	33.3
621.301	33.61
621.492	33.87
621.684	34.02
621.875	34.12
622.067	34.44
622.258	34.53
622.45	34.51
622.641	34.67
622.832	34.69
623.024	34.9
623.215	34.93
623.407	34.92
623.598	34.94
623.789	35.1
623.981	35.12
624.172	34.95
624.363	35.03
624.555	34.99
624.746	34.78
624.937	35.06
625.129	34.89
625.32	34.97
625.511	34.91
625.702	34.95
625.893	34.94
626.085	34.96
626.276	34.93
626.467	34.9
626.658	35.16
626.849	35.32
627.04	35.36
627.231	35.37
627.422	35.41
627.614	35.46
627.805	35.39
627.996	35.48
628.187	35.49
628.378	35.65
628.569	36.11
628.76	36.13
628.951	36.48
629.142	36.7
629.332	36.99
629.523	37.27
629.714	37.42
629.905	37.72
630.096	37.95
630.287	38.29
630.478	38.23
630.669	37.78
630.859	37.57
631.05	37.3
631.241	36.95
631.432	36.7
631.623	36.43
631.813	36.13
632.004	35.66
632.195	35.03
632.385	34.58
632.576	34.32
632.767	34.13
632.957	33.99
633.148	33.79
633.339	33.56
633.529	33.14
633.72	32.77
633.91	32.68
634.101	32.53
634.292	32.71
634.482	32.57
634.673	32.57
634.863	32.51
635.054	32.48
635.244	32.47
635.435	32.28
635.625	32.51
635.815	32.66
636.006	32.64
636.196	32.6
636.387	32.45
636.577	32.43
636.767	32.44
636.958	32.57
637.148	32.53
637.338	32.45
637.529	32.71
637.719	32.7
637.909	32.77
638.099	32.67
638.29	32.8
638.48	32.62
638.67	32.46
638.86	32.39
639.05	32.25
639.241	32.26
639.431	32.04
639.621	31.79
639.811	31.74
640.001	31.66
640.191	31.79
640.381	31.84
640.571	32.29
640.761	32.53
640.951	32.46
641.141	32.52
641.331	32.49
641.521	32.42
641.711	32.71
641.901	32.86
642.091	33.05
642.281	33.06
642.471	33.2
642.661	33.1
642.851	33.12
643.041	33.52
643.231	33.46
643.42	33.5
643.61	33.79
643.8	33.75
643.99	33.66
644.18	33.62
644.369	33.55
644.559	33.45
644.749	33.31
644.939	33.26
645.128	33.03
645.318	33.12
645.508	33.03
645.697	33.06
645.887	33.03
646.076	33.04
646.266	32.87
646.456	32.93
646.645	33.13
646.835	32.95
647.024	32.83
647.214	32.96
647.403	32.9
647.593	33.09
647.782	33.39
647.972	33.48
648.161	33.62
648.351	33.92
648.54	33.83
648.73	33.58
648.919	33.96
649.108	34.12
649.298	34.09
649.487	34.32
649.677	34.49
649.866	34.28
650.055	34.32
650.244	34.2
650.434	34.32
650.623	34.68
650.812	34.72
651.002	34.76
651.191	34.85
651.38	34.75
651.569	34.66
651.758	34.63
651.947	34.48
652.137	34.36
652.326	34.66
652.515	34.29
652.704	34.15
652.893	34.11
653.082	34.02
653.271	34
653.46	34.18
653.649	34.06
653.838	33.93
654.027	34.02
654.216	34.15
654.405	33.85
654.594	33.94
654.783	33.97
654.972	34.08
655.161	33.98
655.35	34.12
655.539	34.16
655.728	34.3
655.916	34.28
656.105	34.56
656.294	34.51
656.483	34.39
656.672	34.45
656.86	34.4
657.049	34.3
657.238	34.34
657.427	34.21
657.615	34.05
657.804	33.98
657.993	34.02
658.181	33.71
658.37	33.71
658.559	33.95
658.747	33.95
658.936	33.88
659.125	34.1
659.313	34.07
659.502	34.21
659.69	34.38
659.879	34.39
660.067	34.29
660.256	34.49
660.444	34.56
660.633	34.51
660.821	34.66
661.01	34.94
661.198	34.85
661.387	35
661.575	35.09
661.763	34.91
661.952	35.05
662.14	35.68
662.328	35.61
662.517	35.81
662.705	35.81
662.893	35.83
663.082	35.71
663.27	35.67
663.458	35.57
663.646	35.29
663.834	35.3
664.023	35.15
664.211	34.72
664.399	34.7
664.587	34.49
664.775	34.5
664.963	34.21
665.152	34.18
665.34	34.39
665.528	34.39
665.716	34.53
665.904	34.67
666.092	34.77
666.28	34.77
666.468	34.92
666.656	34.91
666.844	34.8
667.032	35.07
667.22	35.09
667.408	34.81
667.596	34.71
667.784	34.64
667.971	34.49
668.159	34.56
668.347	34.41
668.535	34.32
668.723	34.19
668.911	34.48
669.098	34.27
669.286	34.42
669.474	34.52
669.662	34.48
669.849	34.51
670.037	34.61
670.225	34.65
670.413	35.2
670.6	35.31
670.788	35.17
670.976	35
671.163	34.92
671.351	34.69
671.538	34.59
671.726	35.01
671.913	35.08
672.101	35.15
672.289	35.02
672.476	34.54
672.664	34.49
672.851	34.76
673.039	34.77
673.226	35.09
673.413	34.7
673.601	34.9
673.788	34.66
673.976	34.53
674.163	34.71
674.35	34.89
674.538	34.99
674.725	35.03
674.912	35.25
675.1	35.3
675.287	35.42
675.474	35.62
675.662	35.58
675.849	35.42
676.036	35.48
676.223	35.25
676.411	35.38
676.598	35.34
676.785	35.48
676.972	35.14
677.159	35.12
677.346	34.96
677.533	35.45
677.721	35.5
677.908	35.52
678.095	35.62
678.282	35.83
678.469	35.6
678.656	35.68
678.843	35.66
679.03	35.96
679.217	35.95
679.404	35.74
679.591	35.45
679.778	35.39
679.964	35.4
680.151	35.05
680.338	34.84
680.525	35.03
680.712	34.99
680.899	35.18
681.086	34.96
681.272	34.99
681.459	35.17
681.646	35.29
681.833	35.38
682.02	35.59
682.206	35.92
682.393	35.89
682.58	35.74
682.766	35.7
682.953	35.24
683.14	35.2
683.326	35.16
683.513	35.08
683.7	35.12
683.886	35.15
684.073	35.05
684.259	35.13
684.446	35.07
684.632	35.08
684.819	35.05
685.005	35.27
685.192	35.68
685.378	36.03
685.565	36.09
685.751	36.01
685.938	35.94
686.124	35.89
686.31	36
686.497	36.26
686.683	36.46
686.87	36.56
687.056	36.65
687.242	36.83
687.429	36.54
687.615	36.43
687.801	36.5
687.987	36.39
688.174	36.71
688.36	36.63
688.546	36.64
688.732	36.57
688.918	36.82
689.105	36.7
689.291	36.5
689.477	36.4
689.663	36.28
689.849	36.45
690.035	36.63
690.221	36.58
690.407	36.56
690.593	36.36
690.779	35.94
690.965	35.72
691.151	35.75
691.337	35.54
691.523	36.02
691.709	36.26
691.895	36.13
692.081	36.23
692.267	36.26
692.453	36.37
692.639	36.59
692.825	37.15
693.011	37.12
693.196	37.66
693.382	37.29
693.568	36.74
693.754	36.83
693.94	36.58
694.125	36.11
694.311	36.09
694.497	35.93
694.682	35.83
694.868	35.59
695.054	35.2
695.239	34.45
695.425	34.92
695.611	35.11
695.796	34.85
695.982	35.17
696.168	35.54
696.353	35.28
696.539	35.35
696.724	35.4
696.91	35.36
697.095	35.84
697.281	36.07
697.466	35.91
697.652	36.09
697.837	36.38
698.023	36.28
698.208	36.26
698.393	36.49
698.579	36.66
698.764	36.59
698.949	36.65
699.135	36.62
699.32	36.3
699.505	36.54
699.691	36.34
699.876	36.37
700.061	36.2
700.246	35.98
700.432	35.82
700.617	35.62
700.802	35.61
700.987	35.62
701.172	35.52
701.358	35.67
701.543	35.39
701.728	35.76
701.913	35.36
702.098	35.51
702.283	35.67
702.468	35.66
702.653	35.55
702.838	35.83
703.023	35.93
703.208	36.2
703.393	36.75
703.578	37.22
703.763	37.08
703.948	37.7
704.133	38.12
704.318	38.33
704.503	38.44
704.688	38.82
704.873	39.04
705.057	39.01
705.242	39.31
705.427	39.43
705.612	39.54
705.797	39.87
705.981	40.55
706.166	41.19
706.351	41.85
706.536	42.02
706.72	42.05
706.905	42.1
707.09	42.59
707.274	42.97
707.459	43
707.644	43.22
707.828	43.17
708.013	42.84
708.197	42.63
708.382	42.15
708.567	42.61
708.751	42.41
708.936	42.18
709.12	41.68
709.305	41.11
709.489	40.99
709.673	40.3
709.858	40.41
710.042	40.18
710.227	39.73
710.411	40.04
710.596	39.67
710.78	40.01
710.964	40.17
711.149	40.32
711.333	40.66
711.517	40.61
711.702	41.15
711.886	41.11
712.07	40.75
712.254	40.69
712.438	40.26
712.623	40.24
712.807	39.63
712.991	39.19
713.175	39.19
713.359	38.51
713.544	38.32
713.728	37.93
713.912	37.46
714.096	37.26
714.28	37.17
714.464	37.07
714.648	36.65
714.832	36.7
715.016	37.04
715.2	36.95
715.384	36.76
715.568	37.14
715.752	37.12
715.936	36.8
716.12	37.06
716.304	37.16
716.488	36.94
716.671	37.17
716.855	37.52
717.039	37.42
717.223	37.39
717.407	37.33
717.59	36.37
717.774	36.14
717.958	36.18
718.142	36.2
718.325	36.02
718.509	36.51
718.693	36.14
718.877	35.84
719.06	36.04
719.244	35.73
719.428	36.06
719.611	36.48
719.795	36.45
719.978	36.74
720.162	36.07
720.345	36.14
720.529	35.57
720.713	35.55
720.896	35.55
721.08	35.03
721.263	35.02
721.446	34.75
721.63	34.32
721.813	34.57
721.997	34.39
722.18	34.68
722.364	34.09
722.547	34.45
722.73	34.55
722.914	34.61
723.097	34.88
723.28	34.89
723.464	34.76
723.647	34.87
723.83	34.46
724.013	34.94
724.197	35.07
724.38	35.49
724.563	35.43
724.746	36
724.929	35.63
725.112	35.38
725.296	35.57
725.479	36.24
725.662	36.67
725.845	36.42
726.028	35.78
726.211	35.5
726.394	35.65
726.577	35.31
726.76	35.05
726.943	34.59
727.126	34.4
727.309	33.78
727.492	33.38
727.675	33.13
727.858	33.53
728.041	33.57
728.224	34.32
728.407	33.67
728.589	33.58
728.772	32.72
728.955	33.31
729.138	33.22
729.321	33.84
729.503	33.8
729.686	33.45
729.869	33.64
730.052	33.74
730.234	33.65
730.417	34.24
730.6	34.37
730.782	34.76
730.965	35.28
731.148	35.86
731.33	35.55
731.513	35.46
731.695	36.27
731.878	36.09
732.061	36.06
732.243	35.59
732.426	35.45
732.608	35.57
732.791	35.69
732.973	34.96
733.156	34.61
733.338	34.3
733.52	34.29
733.703	33.51
733.885	33.51
734.068	33.96
734.25	33.8
734.432	34.05
734.615	33.92
734.797	34.55
734.979	34.71
735.162	34.67
735.344	35.12
735.526	35.14
735.708	35.61
735.891	35.4
736.073	35.22
736.255	35.36
736.437	35.47
736.619	35.73
736.802	35.56
736.984	35.84
737.166	35.85
737.348	35.37
737.53	35.49
737.712	35.58
737.894	35.58
738.076	35.32
738.258	35.47
738.44	34.98
738.622	34.84
738.804	34.42
738.986	34.35
739.168	34.57
739.35	35.3
739.532	35.54
739.714	35.18
739.896	35.66
740.078	35.52
740.259	35.86
740.441	36.03
740.623	36.01
740.805	35.63
740.987	35.76
741.168	35.7
741.35	35.6
741.532	34.85
741.714	35.4
741.895	34.85
742.077	35.3
742.259	34.56
742.44	34.79
742.622	35.13
742.804	36.13
742.985	35.97
743.167	35.23
743.348	35.12
743.53	35.06
743.711	34.77
743.893	34.75
744.075	34.57
744.256	34.68
744.438	34.05
744.619	33.6
744.8	32.58
744.982	32.34
745.163	32.62
745.345	32.48
745.526	33.16
745.707	33.05
745.889	33.44
746.07	33.22
746.252	33.41
746.433	33.39
746.614	33.59
746.795	33.95
746.977	33.96
747.158	34.66
747.339	34.39
747.52	34.25
747.702	34.15
747.883	33.73
748.064	33.28
748.245	32.64
748.426	32.46
748.607	31.9
748.788	30.81
748.97	31.03
749.151	30.84
749.332	31.99
749.513	31.84
749.694	32.83
749.875	32.35
750.056	32.76
750.237	33.31
750.418	33.64
750.599	34.05
750.78	35.38
750.96	34.94
751.141	34.53
751.322	33.44
751.503	33.11
751.684	31.84
751.865	32.66
752.046	32.63
752.226	33.05
752.407	32.75
752.588	32.61
752.769	32.43
752.949	32.44
753.13	32.85
753.311	32.63
753.492	33.54
753.672	33.51
753.853	32.79
754.034	32.47
754.214	32.03
754.395	31.86
754.575	32.09
754.756	31.85
754.937	31.81
755.117	32.01
755.298	32.01
755.478	30.68
755.659	30.58
755.839	31.21
756.02	32.51
756.2	32.21
756.381	32.76
756.561	32.55
756.741	32.76
756.922	33.61
757.102	32.71
757.283	33.46
757.463	33.93
757.643	34.89
757.823	34.52
758.004	34.1
758.184	34.9
758.364	33.97
758.545	33.62
758.725	33.63
758.905	33.46
759.085	33.34
759.265	32.45
759.446	32.66
759.626	32.1
759.806	32.04
759.986	31.35
760.166	31.1
760.346	31.9
760.526	31.36
760.706	31.2
760.886	30.85
761.066	30.41
761.246	31.09
761.426	31.39
761.606	31.71
761.786	31.43
761.966	31.97
762.146	32.73
762.326	32.83
762.506	33.22
762.686	33.43
762.866	33.3
763.046	34.11
763.225	33.97
763.405	33.98
763.585	33.72
763.765	33.77
763.945	33.58
764.124	32.71
764.304	32.7
764.484	32.85
764.664	32.63
764.843	32.73
765.023	32.4
765.203	32.23
765.382	31.97
765.562	31.74
765.741	32.13
765.921	32.42
766.101	32.3
766.28	32.17
766.46	31.53
766.639	31.33
766.819	31.45
766.998	31.64
767.178	31.68
767.357	32.38
767.537	32.57
767.716	32.35
767.896	32.64
768.075	32.64
768.254	32.63
768.434	33.28
768.613	33.32
768.792	32.39
768.972	32.23
769.151	32.32
769.33	31.24
769.51	31.32
769.689	31.89
769.868	31.14
770.047	32.16
770.226	31.6
770.406	32.15
770.585	32.21
770.764	32.7
770.943	32.7
771.122	32.28
771.301	32.55
771.48	32.23
771.66	32.45
771.839	31.86
772.018	31.67
772.197	31.74
772.376	31.55
772.555	31.05
772.734	31.26
772.913	31.08
773.092	31.09
773.271	31.1
773.449	31.03
773.628	29.67
773.807	28.86
773.986	28.81
774.165	29.03
774.344	28.5
774.523	29.59
774.701	29.37
774.88	29.88
775.059	30.11
775.238	30.98
775.417	31.31
775.595	31.49
775.774	32.18
775.953	31.61
776.131	31.52
776.31	32.16
776.489	30.72
776.667	30.16
776.846	29.85
777.025	30.04
777.203	28.34
777.382	29.08
777.56	28.97
777.739	28.84
777.917	27.74
778.096	28.07
778.274	28.2
778.453	28.91
778.631	29.03
778.81	29.19
778.988	29.08
779.166	29.91
779.345	28.97
779.523	29.04
779.702	29.53
779.88	30.54
780.058	29.56
780.237	28.58
780.415	28.62
780.593	29.82
780.771	28.81
780.95	28.92
781.128	28.89
781.306	28.72
781.484	29.17
781.662	29.29
781.841	29.16
782.019	30.19
782.197	31.08
782.375	31.73
782.553	30.21
782.731	31.31
782.909	29.7
783.087	29.48
783.265	29.98
783.443	30.29
783.621	30.1
783.799	30.29
783.977	29.79
784.155	28.07
784.333	27.49
784.511	28.53
784.689	29.22
784.867	30.59
785.045	30.67
785.223	29.57
785.4	29.48
785.578	29.86
785.756	30.54
785.934	30.46
786.112	31.24
786.289	31.67
786.467	31.06
786.645	30.45
786.823	31.2
787	31.51
787.178	31.81
787.356	31.59
787.533	31.29
787.711	30.61
787.889	31.85
788.066	31.72
788.244	30.91
788.421	30.21
788.599	29.52
788.776	27.47
788.954	25.87
789.131	26.49
789.309	25.84
789.486	25.84
789.664	25.59
789.841	24.32
790.019	24.3
790.196	24.4
790.373	25.18
790.551	24.34
790.728	26.03
790.906	27.67
791.083	27.43
791.26	27.67
791.437	26.49
791.615	26.05
791.792	26.47
791.969	26.83
792.146	26.99
792.324	26.99
792.501	27.31
792.678	25.46
792.855	24.93
793.032	24.83
793.209	25.14
793.387	26.89
793.564	26.69
793.741	27.31
793.918	26.8
794.095	26.5
794.272	24.94
794.449	26.33
794.626	28.15
794.803	27.91
794.98	28.02
795.157	27.18
795.334	26.6
795.511	27.11
795.688	26.15
795.864	25.68
796.041	25.75
796.218	26.86
796.395	25.59
796.572	25.01
796.749	24.97
796.925	25.06
797.102	27.04
797.279	26.83
797.456	26.54
797.632	26.28
797.809	26.63
797.986	25.98
798.162	25.27
798.339	25.99
798.516	25.78
798.692	24.3
798.869	23.55
799.046	22.21
799.222	22.58
799.399	23.09
799.575	23.57
799.752	23.58
799.928	25.31
800.105	26.87
800.281	26.65
800.458	27.96
800.634	30.18
800.811	30.66
800.987	30.25
801.163	29.4
801.34	28.73
801.516	30.12
801.692	29.93
801.869	28.6
802.045	28.13
802.221	27.27
802.398	25.99
802.574	24.92
802.75	25.11
802.926	25.13
803.103	25.47
803.279	26.59
803.455	23.85
803.631	23.31
803.807	23.42
803.983	24.27
804.16	25.43
804.336	24.62
804.512	24.59
804.688	23.84
804.864	21.28
805.04	21.25
805.216	18.89
805.392	21.72
805.568	23.48
805.744	22.4
805.92	21.06
806.096	21.02
806.272	21.69
806.448	23.78
806.623	23.66
806.799	26.58
806.975	27.54
807.151	29.3
807.327	27.62
807.503	26.9
807.678	28.23
807.854	28.36
808.03	28.49
808.206	28.95
808.381	27.2
808.557	26.78
808.733	26.61
808.908	24.76
809.084	23.61
809.26	23.64
809.435	22.44
809.611	21.84
809.787	21
809.962	21.16
810.138	21.31
810.313	22.52
810.489	22.39
810.664	22.88
810.84	22.83
811.015	23.46
811.191	22.75
811.366	24.24
811.542	24.33
811.717	24.87
811.892	25.9
812.068	25.21
812.243	23.56
812.419	24.38
812.594	23.58
812.769	25.89
812.944	25.4
813.12	28.19
813.295	26.86
813.47	26.6
813.645	27.92
813.821	27.04
813.996	26.9
814.171	26.01
814.346	25.77
814.521	26.48
814.697	25.25
814.872	25.25
815.047	24.17
815.222	24.88
815.397	25.05
815.572	22.72
815.747	22.9
815.922	21.79
816.097	22.69
816.272	22.38
816.447	19.73
816.622	19.33
816.797	18.31
816.972	17.82
817.147	19.29
817.322	20.15
817.496	21.75
817.671	21.33
817.846	22.24
818.021	23.36
818.196	22.91
818.371	23.2
818.545	24.91
818.72	26.41
818.895	25.69
819.069	24.68
819.244	25.64
819.419	26.02
819.594	25.63
819.768	26.7
819.943	26.6
820.117	26.71
820.292	27.55
820.467	27.1
820.641	26.82
820.816	26.74
820.99	26.9
821.165	26.9
821.339	26.79
821.514	27.2
821.688	27.2
821.863	26.74
822.037	27.16
822.212	27.25
822.386	27.03
822.56	27.32
822.735	27.36
822.909	27.29
823.084	27.04
823.258	26.79
823.432	26.39
823.606	26.26
823.781	26.55
823.955	26.39
824.129	25.76
824.303	25.82
824.478	25.63
824.652	25.42
824.826	24.57
825	24.17
825.174	24.31
825.348	24.22
825.523	23.95
825.697	23.86
825.871	23.78
826.045	24.17
826.219	23.61
826.393	22.93
826.567	23.16
826.741	23.84
826.915	24.03
827.089	23.5
827.263	23.47
827.437	22.81
827.611	22.79
827.784	22.98
827.958	22.78
828.132	23.3
828.306	23.58
828.48	23.83
828.654	23.72
828.827	23.14
829.001	23.81
829.175	24.37
829.349	24.42
829.522	23.84
829.696	23.21
829.87	22.79
830.044	22.44
830.217	21.3
830.391	19.53
830.565	19.61
830.738	20.49
830.912	18.39
831.085	16.55
831.259	17.19
831.432	17.54
831.606	16.86
831.779	18.25
831.953	19.34
832.126	19.97
832.3	21.01
832.473	21.94
832.647	23.03
832.82	25.08
832.994	24.81
833.167	26.32
833.34	26.05
833.514	25.42
833.687	24.77
833.86	25.29
834.034	25.12
834.207	25.15
834.38	24.31
834.553	23.25
834.727	22.55
834.9	23.08
835.073	22.08
835.246	22.85
835.419	22.46
835.593	23.42
835.766	22.48
835.939	23.93
836.112	24.25
836.285	25.44
836.458	25.54
836.631	25.67
836.804	25.88
836.977	26.02
837.15	25.6
837.323	26.62
837.496	24.37
837.669	24.61
837.842	23.21
838.015	20.46
838.188	19.57
838.361	19.44
838.533	20.2
838.706	20.38
838.879	21.14
839.052	18.9
839.225	20.86
839.398	24.38
839.57	21.64
839.743	20.36
839.916	23.86
840.088	24.74
840.261	24.86
840.434	23.62
840.607	22.18
840.779	20.54
840.952	20.21
841.124	19.34
841.297	17.55
841.47	19.34
841.642	21.53
841.815	20.46
841.987	19.07
842.16	18.66
842.332	18.91
842.505	21.55
842.677	21.7
842.85	22.55
843.022	26.63
843.194	28.76
843.367	28.26
843.539	27.38
843.712	26.32
843.884	27.21
844.056	29.62
844.229	29.31
844.401	27.93
844.573	31.42
844.745	31.71
844.918	25.41
845.09	22.39
845.262	23.7
845.434	22.36
845.606	19.19
845.779	16.58
845.951	15.73
846.123	14.48
846.295	13.38
846.467	10.82
846.639	11.56
846.811	13.05
846.983	11.62
847.155	7.3
847.327	11.65
847.499	18.32
847.671	17.37
847.843	17.01
848.015	18.26
848.187	14
848.359	14.21
848.531	14.78
848.703	15.74
848.875	17.6
849.047	17.65
849.218	15.34
849.39	10.79
849.562	16.94
849.734	15
849.905	14.91
850.077	22.52
850.249	24.97
850.421	22.88
850.592	20.19
850.764	19.63
850.936	18.45
851.107	17.36
851.279	12.1
851.451	5.79
851.622	9.94
851.794	10.98
851.965	10.17
852.137	11.01
852.308	11.27
852.48	11.53
852.651	10.18
852.823	14.9
852.994	14.93
853.166	23.44
853.337	28.68
853.509	28.58
853.68	26.69
853.851	20.51
854.023	15.05
854.194	18.13
854.365	23
854.537	26.68
854.708	25.79
854.879	25.77
855.05	23.95
855.222	19.95
855.393	17.33
855.564	13.25
855.735	13.59
855.906	10.53
856.078	9.52
856.249	5.35
856.42	5.16
856.591	5.77
856.762	6.64
856.933	8.12
857.104	13.34
857.275	9.52
857.446	16.5
857.617	15.93
857.788	20.1
857.959	15.52
858.13	11.86
858.301	5.13
858.472	6.21
858.643	-2.8
858.814	-6.43
858.985	-15.37
859.155	-9.2
859.326	-16.53
859.497	-7.66
859.668	-16.89
859.839	-13.95
860.009	-10.02
860.18	-3.39
860.351	1.51
860.522	11.16
860.692	15.44
860.863	17.49
861.034	21.16
861.204	22.49
861.375	24.41
861.546	28.58
861.716	26.53
861.887	30.02
862.057	24.31
862.228	19.49
862.398	20.3
862.569	17.34
862.739	17.96
862.91	16.55
863.08	17.23
863.251	13.48
863.421	17.48
863.592	21.95
863.762	15.15
863.932	15.97
864.103	19.51
864.273	16.7
864.443	15.13
864.614	8
864.784	0.16
864.954	-1.02
865.125	-0.04
865.295	-0.17
865.465	-0.78
865.635	7.14
865.805	9.36
865.976	6.11
866.146	5.79
866.316	2.86
866.486	11.95
866.656	15.49
866.826	14.38
866.996	15.32
867.166	13.18
867.336	15.26
867.506	15
867.676	16.16
867.846	13.38
868.016	10.63
868.186	16.37
868.356	18.97
868.526	19.78
868.696	22.36
868.866	18.39
869.036	18.09
869.206	19.27
869.376	16.95
869.545	21.6
869.715	26.86
869.885	27.65
870.055	23.87
870.224	14.71
870.394	14.48
870.564	12.34
870.734	17.92
870.903	16.64
871.073	11.05
871.243	5.05
871.412	-8.07
871.582	-12.64
871.751	-9.35
871.921	-2.54
872.091	-5.74
872.26	-15.54
872.43	-16.71
872.599	-17.19
872.769	-18.3
872.938	-8.29
873.108	3.73
873.277	5
873.446	6.09
873.616	5.55
873.785	1.82
873.955	10.39
874.124	19.34
874.293	18.95
874.463	11.88
874.632	11.49
874.801	1.36
874.971	-0.23
875.14	-0.04
875.309	-0.08
875.478	-4.23
875.647	-0.79
875.817	-14.62
875.986	-18.32
876.155	-9.95
876.324	-0.87
876.493	3.15
876.662	10.16
876.831	7.16
877	12
877.17	15.19
877.339	19.39
877.508	14.89
877.677	23.67
877.846	23.26
878.015	15.69
878.184	12.18
878.352	12.85
878.521	10.16
878.69	6.86
878.859	6.69
879.028	4.81
879.197	0.32
879.366	3.46
879.534	3.39
879.703	5.69
879.872	9.82
880.041	11.87
880.21	10.42
880.378	13.73
880.547	14.96
880.716	15.07
880.884	15.32
881.053	17.35
881.222	17.51
881.39	16.43
881.559	16.72
881.727	17.66
881.896	18.13
882.065	18.7
882.233	19.5
882.402	18.89
882.57	18.21
882.739	18.82
882.907	18.36
883.076	18.12
883.244	18.86
883.412	18.13
883.581	17.61
883.749	17.39
883.918	16.31
884.086	15.04
884.254	15.37
884.423	16.26
884.591	15.02
884.759	13.07
884.927	14.27
885.096	13.5
885.264	13.62
885.432	12.63
885.6	9.1
885.769	10.7
885.937	11.4
886.105	12.25
886.273	11.98
886.441	15.19
886.609	18.81
886.777	16.63
886.945	15.1
887.113	12.9
887.281	12
887.449	16.02
887.617	13.71
887.785	6.71
887.953	3.9
888.121	3.26
888.289	-5.96
888.457	-10.83
888.625	-12.31
888.793	-5.95
888.961	-1.64
889.129	-2.04
889.296	4.05
889.464	5.39
889.632	11.12
889.8	14.2
889.967	10.37
890.135	19.16
