Data from 2938782__Reflection_03.txt Node
Date: Fri Mar 13 12:36:11 EDT 2015
User: robert
Spectrometer: USB4E03002
Autoset integration time: false
Trigger mode: 4
Integration Time (sec): 1.000000E-1
Scans to average: 10
Electric dark correction enabled: false
Nonlinearity correction enabled: false
Boxcar width: 5
Stray light correction enabled: false
XAxis mode: Wavelengths
Stop averaging: false
Number of Pixels in Spectrum: 3648
>>>>>Begin Spectral Data<<<<<
177.575	85.32
177.794	75.46
178.014	75.65
178.233	81.64
178.452	86.06
178.672	79.75
178.891	76.99
179.11	74.53
179.33	76.82
179.549	73.22
179.768	75.09
179.987	77.31
180.207	81.16
180.426	78.31
180.645	77.1
180.864	72.82
181.084	72.39
181.303	74.47
181.522	77.93
181.741	77.78
181.96	82.36
182.179	84.46
182.398	80.74
182.618	81.83
182.837	82.07
183.056	82.59
183.275	81.16
183.494	82.42
183.713	84.39
183.932	84.8
184.151	82.07
184.37	82.12
184.589	83.09
184.808	84.51
185.027	81.26
185.246	86.86
185.465	85.27
185.684	91.7
185.903	93.51
186.122	89.27
186.341	84.85
186.56	83.13
186.779	81.93
186.998	78.72
187.216	77.94
187.435	79.8
187.654	74.59
187.873	75.57
188.092	74.97
188.311	73.74
188.53	74.87
188.748	75.97
188.967	80.01
189.186	75.51
189.405	77.6
189.623	78.42
189.842	81.31
190.061	85.8
190.28	84.58
190.498	87.92
190.717	87.99
190.936	89.35
191.154	89.71
191.373	87.08
191.592	88.21
191.81	85.1
192.029	85.1
192.248	83.56
192.466	84.57
192.685	79.81
192.904	75.53
193.122	78.86
193.341	81.14
193.559	81.32
193.778	80.5
193.996	86.78
194.215	82.52
194.433	84.35
194.652	82.73
194.87	76.04
195.089	81.64
195.307	81.27
195.526	83.56
195.744	82.63
195.963	83.15
196.181	84.49
196.399	79.99
196.618	84.55
196.836	84.27
197.055	85.14
197.273	92.14
197.491	93.03
197.71	93.88
197.928	92.21
198.146	86.39
198.365	87.58
198.583	91.11
198.801	92.73
199.019	95.06
199.238	90.97
199.456	93.57
199.674	89.34
199.892	82.54
200.111	83.08
200.329	83.03
200.547	84.59
200.765	83.72
200.983	81.06
201.202	78.24
201.42	77.05
201.638	77.92
201.856	75.11
202.074	73.99
202.292	75.77
202.51	72.01
202.728	73.23
202.946	73.35
203.165	73.02
203.383	74.55
203.601	75.01
203.819	70.53
204.037	70.14
204.255	69.29
204.473	68.81
204.691	69.9
204.909	69.15
205.127	67.77
205.345	70.11
205.562	67.69
205.78	66.25
205.998	67.3
206.216	69.98
206.434	73.11
206.652	74.84
206.87	79.59
207.088	78.92
207.306	78.29
207.523	76.47
207.741	77.07
207.959	78.33
208.177	76.22
208.395	77.02
208.612	78.32
208.83	78.65
209.048	76.14
209.266	74.91
209.483	74.69
209.701	79.01
209.919	79.38
210.136	81.63
210.354	82.77
210.572	84.35
210.79	81.79
211.007	83.27
211.225	82.79
211.442	85.24
211.66	83.47
211.878	88.69
212.095	88.49
212.313	89.41
212.53	85.27
212.748	82.26
212.966	82.63
213.183	82.92
213.401	79.05
213.618	75.44
213.836	73.6
214.053	72.73
214.271	69.39
214.488	65.44
214.705	64.21
214.923	63.31
215.14	64.17
215.358	61.3
215.575	60.3
215.793	65.05
216.01	67.71
216.227	67.29
216.445	67.08
216.662	66.12
216.879	70.32
217.097	68.62
217.314	67.17
217.531	65.77
217.749	68.12
217.966	65.36
218.183	64.22
218.4	61.09
218.618	62.62
218.835	61.03
219.052	59.96
219.269	57.62
219.487	58.55
219.704	61.08
219.921	61.88
220.138	58.6
220.355	59.66
220.572	56.4
220.79	59.15
221.007	59.53
221.224	59.85
221.441	58.77
221.658	60.36
221.875	61.15
222.092	58.8
222.309	56.92
222.526	56.83
222.743	56.15
222.96	56.29
223.177	55.13
223.394	50.64
223.611	49.48
223.828	51.86
224.045	48.91
224.262	46.77
224.479	44.64
224.696	45.24
224.913	44.32
225.13	42.73
225.347	42.2
225.564	41.08
225.781	42.28
225.997	40.72
226.214	37.15
226.431	34.1
226.648	32.44
226.865	31.6
227.082	30.17
227.298	28.75
227.515	27.36
227.732	25.15
227.949	23.42
228.165	21.71
228.382	20.77
228.599	20.46
228.816	20.48
229.032	19.74
229.249	18.87
229.466	17.48
229.682	17.37
229.899	18.05
230.116	17.98
230.332	18.17
230.549	18.68
230.765	19.73
230.982	19.72
231.199	20.79
231.415	21.97
231.632	23.4
231.848	26.04
232.065	27.13
232.281	27.32
232.498	27.4
232.714	26.49
232.931	26.68
233.147	25.05
233.364	25.48
233.58	25.05
233.797	24.76
234.013	24.8
234.23	24.33
234.446	24.08
234.662	23.19
234.879	23.14
235.095	24.41
235.312	23.88
235.528	27.28
235.744	27.43
235.961	27.72
236.177	28.2
236.393	28.06
236.61	28
236.826	27.05
237.042	26.67
237.258	27.35
237.475	26.16
237.691	26.43
237.907	24.74
238.123	23.99
238.339	23.88
238.556	23.89
238.772	24.28
238.988	23.92
239.204	23.88
239.42	23.62
239.636	22.71
239.853	22.88
240.069	21.52
240.285	20.24
240.501	19.47
240.717	18.38
240.933	17.09
241.149	16.08
241.365	15.65
241.581	15.27
241.797	14.83
242.013	14.4
242.229	13.83
242.445	13.69
242.661	13.87
242.877	13.74
243.093	13.61
243.309	13.73
243.525	14.14
243.741	13.81
243.957	14.13
244.173	14.94
244.388	15.29
244.604	15.88
244.82	15.98
245.036	15.41
245.252	15.08
245.468	14.83
245.683	14.77
245.899	13.87
246.115	13.72
246.331	13.11
246.547	12.72
246.762	12.03
246.978	11.71
247.194	11.78
247.409	11.66
247.625	11.78
247.841	11.67
248.057	11.28
248.272	11.47
248.488	11.42
248.703	11.34
248.919	11.24
249.135	11.95
249.35	12.57
249.566	13.07
249.782	13.29
249.997	14.15
250.213	14.31
250.428	14.78
250.644	15
250.859	14.91
251.075	14.95
251.29	15.45
251.506	14.86
251.721	14.16
251.937	13.59
252.152	13.97
252.368	12.73
252.583	12.9
252.798	13.09
253.014	13.37
253.229	13.6
253.445	14.16
253.66	13.65
253.875	13.99
254.091	14.83
254.306	14.84
254.521	15.26
254.737	16.84
254.952	16.74
255.167	17.07
255.383	16.32
255.598	16.53
255.813	16.36
256.028	16.59
256.244	16.92
256.459	16.44
256.674	16.29
256.889	15.39
257.104	14.8
257.32	15.07
257.535	13.79
257.75	13.15
257.965	12.98
258.18	12.27
258.395	11.4
258.61	10.69
258.826	9.99
259.041	9.99
259.256	9.49
259.471	8.93
259.686	8.64
259.901	8.59
260.116	8.58
260.331	8.08
260.546	8.25
260.761	8.46
260.976	8.52
261.191	8.46
261.406	8.13
261.621	8.48
261.836	8.56
262.05	8.73
262.265	9.18
262.48	9.66
262.695	10.37
262.91	10.66
263.125	10.69
263.34	11.03
263.555	12.02
263.769	13.23
263.984	13.39
264.199	14.2
264.414	13.86
264.629	13.92
264.843	13.92
265.058	13.76
265.273	13.47
265.488	13.34
265.702	13.03
265.917	12.53
266.132	11.69
266.346	11.25
266.561	10.78
266.776	10.96
266.99	10.76
267.205	10.61
267.42	10.65
267.634	9.93
267.849	9.9
268.063	9.83
268.278	9.71
268.492	9.83
268.707	9.66
268.922	9.84
269.136	10.38
269.351	9.87
269.565	9.76
269.78	9.68
269.994	9.96
270.209	9.89
270.423	9.58
270.637	9.7
270.852	9.51
271.066	9.56
271.281	9.53
271.495	9.01
271.709	9.46
271.924	9.21
272.138	9.08
272.353	9.33
272.567	9.61
272.781	10.02
272.996	9.71
273.21	9.88
273.424	10.11
273.638	9.73
273.853	9.65
274.067	9.55
274.281	9.9
274.495	10.28
274.71	10.36
274.924	10.35
275.138	10.5
275.352	10.62
275.566	10.73
275.781	10.53
275.995	10.93
276.209	11.22
276.423	11.18
276.637	11.16
276.851	11.26
277.065	10.82
277.279	10.44
277.493	10.01
277.707	10.32
277.921	10.12
278.135	10.13
278.349	10.01
278.563	9.76
278.777	9.66
278.991	9.2
279.205	8.96
279.419	8.96
279.633	8.92
279.847	9.23
280.061	9.45
280.275	8.9
280.489	9.06
280.703	9.48
280.917	9.6
281.131	9.74
281.344	9.52
281.558	9.15
281.772	9.65
281.986	9.82
282.2	9.9
282.414	9.59
282.627	9.81
282.841	9.6
283.055	9.12
283.269	8.82
283.482	8.67
283.696	8.92
283.91	8.96
284.123	8.45
284.337	8.42
284.551	8.16
284.764	7.82
284.978	7.56
285.192	7.67
285.405	7.84
285.619	7.79
285.833	7.79
286.046	7.86
286.26	8.09
286.473	8.23
286.687	8.15
286.9	8.15
287.114	8.3
287.327	8.6
287.541	8.75
287.754	8.7
287.968	9.03
288.181	9.2
288.395	9.16
288.608	8.99
288.822	9.1
289.035	8.99
289.248	8.82
289.462	9.06
289.675	8.9
289.889	8.92
290.102	8.72
290.315	8.49
290.529	8.36
290.742	8.36
290.955	8.32
291.169	8.4
291.382	8.5
291.595	8.87
291.808	8.9
292.022	9.32
292.235	9.13
292.448	9.27
292.661	9.5
292.875	9.57
293.088	9.48
293.301	9.33
293.514	9.11
293.727	8.97
293.94	8.72
294.153	8.79
294.367	8.26
294.58	8.22
294.793	8.45
295.006	8.01
295.219	7.69
295.432	7.83
295.645	7.89
295.858	7.85
296.071	7.6
296.284	7.5
296.497	7.18
296.71	7.3
296.923	7.41
297.136	7.35
297.349	7.52
297.562	7.72
297.775	7.54
297.988	7.52
298.201	7.74
298.414	8.05
298.626	8.17
298.839	8.21
299.052	8.21
299.265	8.4
299.478	8.43
299.691	8.77
299.903	9.18
300.116	9.54
300.329	9.82
300.542	9.62
300.755	9.76
300.967	9.93
301.18	10.1
301.393	10.36
301.605	10.07
301.818	9.75
302.031	9.55
302.243	9.1
302.456	8.97
302.669	8.96
302.881	8.6
303.094	8.8
303.307	8.94
303.519	9.01
303.732	8.96
303.944	8.87
304.157	9.41
304.37	9.3
304.582	9.55
304.795	9.53
305.007	9.6
305.22	10.15
305.432	9.85
305.645	9.83
305.857	10.02
306.069	10.23
306.282	10.47
306.494	10.11
306.707	10.37
306.919	10.34
307.132	10.35
307.344	10.19
307.556	10.02
307.769	10.29
307.981	10.03
308.193	9.92
308.406	9.66
308.618	9.69
308.83	9.76
309.043	9.41
309.255	9.33
309.467	9.41
309.679	9.28
309.892	9.16
310.104	9.08
310.316	9.02
310.528	8.83
310.74	9.1
310.953	8.77
311.165	8.84
311.377	9.2
311.589	9.42
311.801	9.28
312.013	9.34
312.225	9.37
312.437	9.15
312.649	9.41
312.862	9.58
313.074	9.52
313.286	9.79
313.498	10.03
313.71	10.03
313.922	9.88
314.134	10.07
314.346	10.29
314.558	10.63
314.77	11.43
314.982	11.57
315.193	11.61
315.405	11.82
315.617	12.07
315.829	12.33
316.041	12.38
316.253	12.43
316.465	12.7
316.677	12.52
316.888	12.51
317.1	12.02
317.312	12.07
317.524	12.46
317.736	12.54
317.947	12.76
318.159	12.57
318.371	12.7
318.583	12.87
318.794	13.01
319.006	13.46
319.218	13.21
319.43	13.37
319.641	13.15
319.853	12.93
320.064	13.07
320.276	12.79
320.488	12.96
320.699	12.71
320.911	13.21
321.123	13.12
321.334	12.81
321.546	13.38
321.757	13.6
321.969	13.94
322.18	14.24
322.392	14.04
322.603	14.33
322.815	14.07
323.026	14.18
323.238	13.82
323.449	13.22
323.661	13.47
323.872	13.35
324.083	13.07
324.295	12.82
324.506	12.6
324.718	12.17
324.929	12.09
325.14	12.1
325.352	12.3
325.563	12.42
325.774	12.86
325.986	13.05
326.197	13.36
326.408	13.62
326.62	13.84
326.831	13.98
327.042	14.55
327.253	14.74
327.464	15.11
327.676	15.05
327.887	15.31
328.098	15.66
328.309	15.66
328.52	15.54
328.732	15.48
328.943	15.83
329.154	16.29
329.365	16.24
329.576	16.33
329.787	16.3
329.998	16.96
330.209	16.57
330.42	16.43
330.631	16.61
330.842	16.67
331.053	16.93
331.264	16.38
331.475	16.39
331.686	16.38
331.897	16.44
332.108	16.72
332.319	16.51
332.53	16.56
332.741	16.54
332.952	16.42
333.163	16.33
333.374	16.65
333.585	16.76
333.795	16.6
334.006	16.83
334.217	16.62
334.428	16.25
334.639	16.35
334.849	16.4
335.06	16.45
335.271	16.21
335.482	16.66
335.692	16.08
335.903	16.19
336.114	16.18
336.325	16.19
336.535	16.45
336.746	16.43
336.957	16.42
337.167	16.7
337.378	16.87
337.589	17.14
337.799	16.56
338.01	16.79
338.22	16.54
338.431	16.44
338.642	16.17
338.852	16.07
339.063	16.12
339.273	15.83
339.484	15.51
339.694	15.32
339.905	15.48
340.115	15.66
340.326	15.55
340.536	15.53
340.746	15.62
340.957	15.65
341.167	15.67
341.378	15.48
341.588	15.48
341.799	15.52
342.009	15.52
342.219	15.33
342.43	15.39
342.64	15.65
342.85	15.95
343.061	15.8
343.271	15.87
343.481	15.81
343.691	15.99
343.902	16.08
344.112	16.09
344.322	16
344.532	15.95
344.743	15.61
344.953	15.26
345.163	15.08
345.373	14.91
345.583	14.76
345.793	15
346.004	15.02
346.214	14.87
346.424	15.07
346.634	15.1
346.844	15.18
347.054	15.43
347.264	15.54
347.474	15.6
347.684	15.55
347.894	15.51
348.104	15.39
348.314	14.89
348.524	14.71
348.734	14.46
348.944	14.69
349.154	14.8
349.364	14.8
349.574	14.9
349.784	15.01
349.994	15.32
350.204	15.64
350.413	15.55
350.623	15.82
350.833	15.99
351.043	15.86
351.253	15.7
351.463	15.44
351.672	15.43
351.882	15.2
352.092	15.12
352.302	14.95
352.511	14.65
352.721	14.59
352.931	14.55
353.141	14.49
353.35	14.65
353.56	14.43
353.77	14.36
353.979	14.28
354.189	14.51
354.399	14.39
354.608	14.55
354.818	14.46
355.027	14.51
355.237	14.47
355.447	14.5
355.656	14.27
355.866	14.34
356.075	14.42
356.285	14.47
356.494	14.39
356.704	14.36
356.913	14.25
357.123	14.21
357.332	13.87
357.542	13.91
357.751	13.69
357.96	13.77
358.17	13.6
358.379	13.42
358.589	13.38
358.798	13.23
359.007	13.4
359.217	13.35
359.426	13.24
359.635	13.34
359.845	13.32
360.054	13.3
360.263	13.11
360.472	13.3
360.682	13.31
360.891	13.23
361.1	13.07
361.309	12.8
361.519	12.83
361.728	12.89
361.937	12.88
362.146	12.9
362.355	12.98
362.564	13.38
362.774	13.4
362.983	13.41
363.192	13.43
363.401	13.54
363.61	13.59
363.819	13.42
364.028	13.49
364.237	13.68
364.446	13.56
364.655	13.6
364.864	13.13
365.073	12.9
365.282	12.86
365.491	12.95
365.7	12.82
365.909	12.92
366.118	13.04
366.327	13.16
366.536	13.08
366.745	13.22
366.954	13.25
367.162	13.37
367.371	13.46
367.58	13.67
367.789	13.45
367.998	13.56
368.207	13.69
368.415	13.87
368.624	13.95
368.833	13.91
369.042	13.87
369.25	13.81
369.459	13.97
369.668	13.97
369.877	13.81
370.085	13.69
370.294	13.88
370.503	13.79
370.711	13.63
370.92	13.44
371.129	13.55
371.337	13.49
371.546	13.44
371.754	13.51
371.963	13.36
372.171	13.32
372.38	13.65
372.589	13.45
372.797	13.31
373.006	13.36
373.214	13.26
373.423	13.09
373.631	12.88
373.84	12.95
374.048	12.57
374.256	12.79
374.465	12.86
374.673	12.76
374.882	12.87
375.09	13.02
375.298	12.95
375.507	12.89
375.715	12.87
375.923	13.1
376.132	12.9
376.34	13.05
376.548	12.95
376.757	12.78
376.965	12.73
377.173	12.73
377.381	12.59
377.59	12.89
377.798	12.92
378.006	12.87
378.214	12.73
378.423	12.92
378.631	12.84
378.839	12.79
379.047	12.74
379.255	12.79
379.463	12.73
379.671	12.64
379.879	12.38
380.088	12.33
380.296	12.36
380.504	12.44
380.712	12.15
380.92	12.24
381.128	12.32
381.336	12.33
381.544	12.06
381.752	11.97
381.96	11.91
382.168	11.63
382.376	11.68
382.584	11.54
382.791	11.4
382.999	11.41
383.207	11.29
383.415	11.31
383.623	11.34
383.831	11.34
384.039	11.2
384.247	11.38
384.454	11.61
384.662	11.66
384.87	11.68
385.078	11.81
385.285	11.95
385.493	12.06
385.701	11.84
385.909	11.8
386.116	11.93
386.324	12.03
386.532	11.74
386.739	11.51
386.947	11.35
387.155	11.47
387.362	11.43
387.57	11.29
387.778	11.13
387.985	11.22
388.193	11.17
388.4	10.96
388.608	11.13
388.816	11.35
389.023	11.49
389.231	11.34
389.438	11.14
389.646	11.01
389.853	10.99
390.061	11
390.268	10.92
390.475	10.82
390.683	10.93
390.89	10.62
391.098	10.59
391.305	10.5
391.512	10.56
391.72	10.49
391.927	10.51
392.135	10.53
392.342	10.45
392.549	10.51
392.756	10.46
392.964	10.31
393.171	10.5
393.378	10.42
393.586	10.26
393.793	10.17
394	10.11
394.207	10.14
394.414	10.14
394.622	10.17
394.829	10.09
395.036	10.28
395.243	10.4
395.45	10.3
395.657	10.39
395.864	10.58
396.072	10.66
396.279	10.86
396.486	10.82
396.693	10.72
396.9	10.72
397.107	10.77
397.314	10.87
397.521	10.85
397.728	10.8
397.935	10.77
398.142	10.68
398.349	10.77
398.556	10.68
398.763	10.6
398.97	10.56
399.177	10.4
399.383	10.29
399.59	10.22
399.797	10.22
400.004	10.29
400.211	10.32
400.418	10.31
400.625	10.19
400.831	10.17
401.038	10.25
401.245	10.28
401.452	10.3
401.658	10.24
401.865	10.29
402.072	10.36
402.279	10.25
402.485	9.95
402.692	9.84
402.899	9.83
403.105	9.74
403.312	9.61
403.519	9.43
403.725	9.43
403.932	9.38
404.138	9.24
404.345	9.1
404.552	9.08
404.758	9.19
404.965	9.14
405.171	9.23
405.378	9.19
405.584	9.22
405.791	9.37
405.997	9.51
406.204	9.59
406.41	9.58
406.617	9.67
406.823	9.78
407.029	9.83
407.236	10.03
407.442	9.93
407.649	10.15
407.855	10.15
408.061	10.29
408.268	10.19
408.474	10.25
408.68	10.22
408.887	10.09
409.093	9.98
409.299	10.01
409.505	9.88
409.712	9.77
409.918	9.63
410.124	9.43
410.33	9.23
410.537	9.27
410.743	9.12
410.949	9.2
411.155	9.16
411.361	9.13
411.567	9.02
411.773	8.97
411.98	9.11
412.186	8.99
412.392	9.24
412.598	9.15
412.804	8.96
413.01	8.97
413.216	8.97
413.422	9.02
413.628	9.02
413.834	8.85
414.04	8.92
414.246	8.78
414.452	8.79
414.658	8.84
414.864	8.77
415.07	8.94
415.275	8.79
415.481	8.72
415.687	8.72
415.893	8.55
416.099	8.58
416.305	8.45
416.511	8.55
416.716	8.43
416.922	8.28
417.128	8.28
417.334	8
417.539	8.01
417.745	7.82
417.951	7.71
418.157	7.72
418.362	7.67
418.568	7.67
418.774	7.42
418.979	7.47
419.185	7.41
419.391	7.33
419.596	7.38
419.802	7.3
420.008	7.28
420.213	7.95
420.419	7.99
420.624	7.98
420.83	7.98
421.035	8.07
421.241	7.96
421.446	7.87
421.652	7.87
421.857	7.81
422.063	7.8
422.268	7.78
422.474	7.11
422.679	7.06
422.885	7.08
423.09	7.02
423.295	6.94
423.501	7
423.706	7.09
423.911	7.06
424.117	7.11
424.322	7.1
424.527	7.12
424.733	7.08
424.938	7.09
425.143	7.01
425.349	7.04
425.554	7.06
425.759	7.08
425.964	7.06
426.169	7.16
426.375	7.19
426.58	7.28
426.785	7.32
426.99	7.4
427.195	7.4
427.4	7.51
427.605	7.51
427.811	7.67
428.016	7.67
428.221	7.78
428.426	7.72
428.631	7.69
428.836	7.72
429.041	7.74
429.246	7.76
429.451	7.79
429.656	7.85
429.861	7.91
430.066	7.75
430.271	7.74
430.476	7.62
430.681	7.65
430.886	7.65
431.09	7.63
431.295	7.61
431.5	7.73
431.705	7.7
431.91	7.71
432.115	7.63
432.32	7.73
432.524	7.65
432.729	7.72
432.934	7.71
433.139	7.66
433.343	7.61
433.548	7.55
433.753	7.54
433.958	7.47
434.162	7.42
434.367	7.48
434.572	7.43
434.776	7.49
434.981	7.47
435.186	7.48
435.39	7.63
435.595	7.63
435.799	7.64
436.004	7.48
436.209	7.56
436.413	7.54
436.618	7.51
436.822	7.51
437.027	7.51
437.231	7.49
437.436	7.5
437.64	7.37
437.845	7.36
438.049	7.46
438.253	7.49
438.458	7.42
438.662	7.36
438.867	7.32
439.071	7.29
439.275	7.23
439.48	7.19
439.684	7.12
439.888	7.11
440.093	7.13
440.297	7.03
440.501	7.01
440.706	7.02
440.91	7.01
441.114	7.04
441.318	7.11
441.523	7.16
441.727	7.11
441.931	7.18
442.135	7.22
442.339	7.27
442.543	7.4
442.748	7.38
442.952	7.43
443.156	7.5
443.36	7.41
443.564	7.36
443.768	7.4
443.972	7.45
444.176	7.38
444.38	7.31
444.584	7.27
444.788	7.13
444.992	7.14
445.196	7.1
445.4	6.96
445.604	7.07
445.808	7.09
446.012	6.97
446.216	6.94
446.42	6.96
446.624	6.95
446.828	6.84
447.032	6.87
447.235	6.83
447.439	6.84
447.643	6.92
447.847	6.76
448.051	6.72
448.254	6.74
448.458	6.73
448.662	6.71
448.866	6.68
449.069	6.86
449.273	6.88
449.477	6.92
449.681	6.93
449.884	7.01
450.088	7.22
450.292	7.21
450.495	7.29
450.699	7.33
450.902	7.22
451.106	7.24
451.31	7.17
451.513	7.19
451.717	7.2
451.92	7.18
452.124	7.09
452.327	6.97
452.531	7.01
452.734	6.96
452.938	7.04
453.141	7.24
453.345	7.35
453.548	7.3
453.752	7.25
453.955	7.33
454.158	7.3
454.362	7.27
454.565	7.26
454.769	7.25
454.972	7.24
455.175	7.2
455.379	7.14
455.582	7.13
455.785	7.22
455.988	7.21
456.192	7.18
456.395	7.21
456.598	7.32
456.801	7.36
457.005	7.31
457.208	7.42
457.411	7.38
457.614	7.27
457.817	7.18
458.021	7.05
458.224	7.02
458.427	6.88
458.63	6.82
458.833	6.71
459.036	6.65
459.239	6.59
459.442	6.47
459.645	6.41
459.848	6.44
460.051	6.45
460.254	6.49
460.457	6.47
460.66	6.55
460.863	6.58
461.066	6.62
461.269	6.59
461.472	6.72
461.675	6.74
461.878	6.81
462.081	6.84
462.284	6.89
462.486	6.94
462.689	6.97
462.892	7
463.095	7.01
463.298	7.13
463.5	7.24
463.703	7.09
463.906	7.24
464.109	7.25
464.311	7.23
464.514	7.25
464.717	7.25
464.92	7.31
465.122	7.3
465.325	7.36
465.528	7.26
465.73	7.26
465.933	7.34
466.135	7.31
466.338	7.18
466.541	7.14
466.743	7.07
466.946	7.02
467.148	6.99
467.351	7.02
467.553	7.13
467.756	7.07
467.958	7.03
468.161	7.07
468.363	6.96
468.566	7.08
468.768	7.18
468.971	7.15
469.173	7.23
469.375	7.22
469.578	7.21
469.78	6.95
469.983	7.02
470.185	7.02
470.387	7.09
470.59	7.17
470.792	7.15
470.994	7.13
471.196	7.14
471.399	7.16
471.601	7.24
471.803	7.23
472.005	7.28
472.208	7.24
472.41	7.22
472.612	7.19
472.814	7.27
473.016	7.34
473.218	7.42
473.421	7.42
473.623	7.36
473.825	7.25
474.027	7.29
474.229	7.33
474.431	7.3
474.633	7.33
474.835	7.28
475.037	7.24
475.239	7.2
475.441	7.11
475.643	7.1
475.845	7.08
476.047	7.12
476.249	7.15
476.451	7.22
476.653	7.26
476.855	7.25
477.057	7.2
477.258	7.16
477.46	7.16
477.662	7.22
477.864	7.24
478.066	7.28
478.268	7.22
478.469	7.12
478.671	6.99
478.873	7.04
479.075	6.96
479.276	6.97
479.478	7.01
479.68	6.96
479.882	6.89
480.083	6.9
480.285	6.83
480.487	6.87
480.688	6.81
480.89	6.76
481.091	6.74
481.293	6.73
481.495	6.61
481.696	6.51
481.898	6.46
482.099	6.36
482.301	6.26
482.502	6.26
482.704	6.21
482.905	6.19
483.107	6.12
483.308	6.06
483.51	6.02
483.711	6.05
483.913	6.03
484.114	6.02
484.315	6.03
484.517	6.03
484.718	5.99
484.92	5.99
485.121	5.99
485.322	6.06
485.524	6.07
485.725	6.1
485.926	6.1
486.127	6.14
486.329	6.14
486.53	6.11
486.731	6.11
486.932	6.1
487.134	6.06
487.335	6.02
487.536	5.94
487.737	5.92
487.938	5.9
488.139	5.92
488.341	5.94
488.542	5.95
488.743	5.94
488.944	5.94
489.145	6.01
489.346	6.08
489.547	6.11
489.748	6.21
489.949	6.23
490.15	6.27
490.351	6.29
490.552	6.26
490.753	6.26
490.954	6.29
491.155	6.31
491.356	6.32
491.557	6.33
491.758	6.39
491.959	6.38
492.159	6.43
492.36	6.44
492.561	6.42
492.762	6.45
492.963	6.53
493.164	6.56
493.364	6.59
493.565	6.58
493.766	6.59
493.967	6.56
494.167	6.65
494.368	6.65
494.569	6.72
494.769	6.76
494.97	6.81
495.171	6.82
495.371	6.91
495.572	6.92
495.773	6.87
495.973	6.92
496.174	6.97
496.375	6.98
496.575	6.98
496.776	7.05
496.976	7.05
497.177	7.07
497.377	6.99
497.578	6.96
497.778	7.01
497.979	7.13
498.179	7.11
498.38	7.16
498.58	7.22
498.78	7.22
498.981	7.19
499.181	7.27
499.382	7.32
499.582	7.43
499.782	7.49
499.983	7.53
500.183	7.59
500.383	7.58
500.584	7.63
500.784	7.55
500.984	7.59
501.184	7.62
501.385	7.6
501.585	7.55
501.785	7.51
501.985	7.6
502.185	7.59
502.386	7.6
502.586	7.67
502.786	7.65
502.986	7.66
503.186	7.7
503.386	7.69
503.586	7.76
503.786	7.81
503.987	7.88
504.187	7.79
504.387	7.79
504.587	7.75
504.787	7.79
504.987	7.91
505.187	7.97
505.387	7.98
505.587	8.06
505.786	7.97
505.986	7.93
506.186	7.96
506.386	8.01
506.586	8.05
506.786	8.11
506.986	8.24
507.186	8.11
507.386	8.13
507.585	8.23
507.785	8.22
507.985	8.38
508.185	8.47
508.384	8.48
508.584	8.51
508.784	8.47
508.984	8.54
509.183	8.53
509.383	8.67
509.583	8.76
509.782	8.71
509.982	8.76
510.182	8.74
510.381	8.82
510.581	8.88
510.781	8.93
510.98	9.04
511.18	8.99
511.379	8.99
511.579	8.95
511.778	8.94
511.978	8.99
512.177	8.99
512.377	8.99
512.576	8.96
512.776	8.99
512.975	9.08
513.175	9.17
513.374	9.27
513.573	9.35
513.773	9.49
513.972	9.62
514.172	9.73
514.371	9.94
514.57	10.06
514.77	10.17
514.969	10.21
515.168	10.23
515.367	10.28
515.567	10.3
515.766	10.37
515.965	10.37
516.164	10.26
516.364	10.3
516.563	10.13
516.762	10.13
516.961	10.09
517.16	10.14
517.359	10.16
517.559	10.16
517.758	10.26
517.957	10.17
518.156	10.18
518.355	10.24
518.554	10.2
518.753	10.25
518.952	10.31
519.151	10.31
519.35	10.32
519.549	10.38
519.748	10.4
519.947	10.41
520.146	10.5
520.345	10.54
520.544	10.62
520.743	10.73
520.942	10.81
521.141	10.87
521.339	11
521.538	11
521.737	11.03
521.936	11.13
522.135	11.2
522.333	11.28
522.532	11.38
522.731	11.45
522.93	11.49
523.129	11.6
523.327	11.64
523.526	11.7
523.725	11.82
523.923	11.83
524.122	11.85
524.321	11.89
524.519	11.89
524.718	11.88
524.917	11.85
525.115	11.89
525.314	11.88
525.512	11.94
525.711	11.96
525.909	12.01
526.108	12.03
526.306	11.99
526.505	12.05
526.703	12.14
526.902	12.16
527.1	12.21
527.299	12.16
527.497	12.15
527.696	12.19
527.894	12.19
528.092	12.21
528.291	12.24
528.489	12.27
528.688	12.27
528.886	12.27
529.084	12.33
529.283	12.38
529.481	12.46
529.679	12.57
529.877	12.62
530.076	12.71
530.274	12.78
530.472	12.85
530.67	13
530.869	13.08
531.067	13.2
531.265	13.3
531.463	13.36
531.661	13.45
531.859	13.5
532.057	13.54
532.255	13.58
532.454	13.65
532.652	13.66
532.85	13.69
533.048	13.79
533.246	13.83
533.444	13.86
533.642	13.93
533.84	13.95
534.038	14.01
534.236	14.07
534.434	14.12
534.632	14.12
534.83	14.3
535.027	14.32
535.225	14.31
535.423	14.4
535.621	14.45
535.819	14.47
536.017	14.59
536.215	14.64
536.412	14.72
536.61	14.81
536.808	14.82
537.006	14.83
537.203	14.95
537.401	15.06
537.599	15.09
537.797	15.18
537.994	15.36
538.192	15.47
538.39	15.48
538.587	15.6
538.785	15.63
538.983	15.84
539.18	15.89
539.378	15.98
539.575	16.06
539.773	16.19
539.97	16.23
540.168	16.28
540.366	16.28
540.563	16.35
540.761	16.35
540.958	16.39
541.155	16.39
541.353	16.48
541.55	16.51
541.748	16.54
541.945	16.56
542.143	16.68
542.34	16.79
542.537	16.85
542.735	16.99
542.932	17.1
543.129	17.27
543.327	17.38
543.524	17.55
543.721	17.76
543.919	17.98
544.116	18.16
544.313	18.34
544.51	18.47
544.708	18.71
544.905	18.92
545.102	19.15
545.299	19.26
545.496	19.48
545.693	19.56
545.891	19.63
546.088	19.59
546.285	19.6
546.482	19.46
546.679	19.47
546.876	19.41
547.073	19.38
547.27	19.28
547.467	19.3
547.664	19.23
547.861	19.18
548.058	19.15
548.255	19.22
548.452	19.25
548.649	19.34
548.846	19.34
549.043	19.41
549.24	19.45
549.437	19.55
549.633	19.55
549.83	19.6
550.027	19.6
550.224	19.58
550.421	19.59
550.618	19.53
550.814	19.55
551.011	19.5
551.208	19.61
551.405	19.63
551.601	19.64
551.798	19.65
551.995	19.62
552.191	19.74
552.388	19.78
552.585	19.77
552.781	19.9
552.978	20.02
553.175	20.11
553.371	20.15
553.568	20.18
553.764	20.14
553.961	20.25
554.157	20.29
554.354	20.28
554.55	20.3
554.747	20.35
554.943	20.44
555.14	20.42
555.336	20.45
555.533	20.43
555.729	20.42
555.926	20.58
556.122	20.63
556.318	20.72
556.515	20.74
556.711	20.83
556.907	20.88
557.104	20.93
557.3	20.98
557.496	20.96
557.693	21
557.889	21.07
558.085	21.12
558.281	21.1
558.478	21.19
558.674	21.28
558.87	21.37
559.066	21.5
559.262	21.58
559.459	21.6
559.655	21.81
559.851	21.82
560.047	21.81
560.243	21.87
560.439	22.01
560.635	22.11
560.831	22.16
561.027	22.2
561.223	22.14
561.419	22.08
561.615	22.15
561.811	22.09
562.007	22.1
562.203	22.36
562.399	22.41
562.595	22.4
562.791	22.37
562.987	22.53
563.183	22.62
563.379	22.68
563.575	22.81
563.771	22.93
563.966	22.99
564.162	23.14
564.358	23.01
564.554	22.96
564.75	22.94
564.945	22.9
565.141	22.81
565.337	22.75
565.533	22.75
565.728	22.78
565.924	22.73
566.12	22.82
566.315	22.77
566.511	22.85
566.707	22.91
566.902	22.92
567.098	23.05
567.293	23.15
567.489	23.27
567.684	23.37
567.88	23.31
568.076	23.39
568.271	23.36
568.467	23.57
568.662	23.53
568.858	23.57
569.053	23.66
569.248	23.66
569.444	23.65
569.639	23.62
569.835	23.79
570.03	23.91
570.225	23.88
570.421	24.01
570.616	23.89
570.812	24
571.007	23.97
571.202	24.07
571.397	24.07
571.593	24.08
571.788	24.17
571.983	24.14
572.178	24.07
572.374	24.19
572.569	24.16
572.764	24.23
572.959	24.23
573.154	24.39
573.35	24.42
573.545	24.56
573.74	24.59
573.935	24.59
574.13	24.52
574.325	24.73
574.52	24.8
574.715	24.95
574.91	25.03
575.105	25.16
575.3	25.2
575.495	25.3
575.69	25.38
575.885	25.52
576.08	25.74
576.275	26.04
576.47	26.1
576.665	26.15
576.86	26.14
577.055	26.24
577.25	26.38
577.444	26.57
577.639	26.68
577.834	26.73
578.029	26.87
578.224	26.91
578.418	26.91
578.613	27.07
578.808	27.11
579.003	27.3
579.197	27.4
579.392	27.23
579.587	27.25
579.781	27.31
579.976	27.37
580.171	27.31
580.365	27.3
580.56	27.3
580.755	27.3
580.949	27.34
581.144	27.36
581.338	27.46
581.533	27.65
581.727	27.71
581.922	27.65
582.116	27.77
582.311	28.06
582.505	28.06
582.7	28.19
582.894	28.26
583.089	28.34
583.283	28.38
583.478	28.38
583.672	28.52
583.866	28.51
584.061	28.58
584.255	28.54
584.449	28.45
584.644	28.46
584.838	28.61
585.032	28.59
585.226	28.57
585.421	28.81
585.615	28.84
585.809	28.86
586.003	28.85
586.198	28.98
586.392	28.99
586.586	29.09
586.78	29.24
586.974	29
587.168	28.89
587.363	28.95
587.557	28.83
587.751	28.76
587.945	28.69
588.139	28.73
588.333	28.45
588.527	28.39
588.721	28.22
588.915	28.08
589.109	28.21
589.303	28.28
589.497	28.23
589.691	28.04
589.885	28.06
590.079	28.15
590.273	28.11
590.466	28.38
590.66	28.6
590.854	28.74
591.048	28.86
591.242	28.79
591.436	28.84
591.629	28.98
591.823	29.26
592.017	29.34
592.211	29.28
592.404	29.23
592.598	29.26
592.792	29.16
592.986	29.33
593.179	29.15
593.373	29.21
593.567	29.22
593.76	29.1
593.954	28.93
594.147	28.86
594.341	28.95
594.535	28.98
594.728	28.92
594.922	28.82
595.115	28.59
595.309	28.61
595.502	28.54
595.696	28.39
595.889	28.3
596.083	28.32
596.276	28.31
596.47	28.36
596.663	28.48
596.856	28.57
597.05	28.69
597.243	28.8
597.437	28.98
597.63	29.17
597.823	29.4
598.017	29.65
598.21	29.77
598.403	30.09
598.596	30.11
598.79	30.07
598.983	30.1
599.176	30.24
599.369	30.3
599.563	30.28
599.756	30.39
599.949	30.4
600.142	30.34
600.335	30.45
600.528	30.18
600.722	30.21
600.915	30.17
601.108	30.05
601.301	29.94
601.494	29.84
601.687	29.78
601.88	29.58
602.073	29.55
602.266	29.5
602.459	29.31
602.652	29.31
602.845	29.23
603.038	29.27
603.231	29.3
603.424	29.16
603.617	29.21
603.809	29.27
604.002	29.34
604.195	29.3
604.388	29.41
604.581	29.31
604.774	29.41
604.966	29.41
605.159	29.47
605.352	29.42
605.545	29.72
605.737	29.87
605.93	29.86
606.123	29.97
606.316	30.15
606.508	30.23
606.701	30.52
606.894	30.57
607.086	30.89
607.279	31.13
607.471	31.25
607.664	31.34
607.857	31.39
608.049	31.87
608.242	32.25
608.434	32.73
608.627	33.35
608.819	34.2
609.012	35.07
609.204	35.92
609.397	37.05
609.589	38.46
609.782	39.75
609.974	41.16
610.166	42.41
610.359	43.73
610.551	44.92
610.743	46.01
610.936	46.86
611.128	47.64
611.32	48.11
611.513	48.42
611.705	48.5
611.897	48.38
612.09	48.06
612.282	47.5
612.474	46.92
612.666	46.32
612.858	45.64
613.051	44.94
613.243	44.31
613.435	43.73
613.627	42.99
613.819	42.29
614.011	41.68
614.203	41.02
614.395	40.51
614.588	39.7
614.78	39.12
614.972	38.53
615.164	38.09
615.356	37.47
615.548	37
615.74	36.54
615.932	36.02
616.124	35.63
616.315	35.44
616.507	35.29
616.699	35.09
616.891	34.72
617.083	34.6
617.275	34.23
617.467	34.01
617.659	33.8
617.85	33.59
618.042	33.32
618.234	33.08
618.426	32.86
618.618	32.6
618.809	32.55
619.001	32.54
619.193	32.43
619.384	32.42
619.576	32.66
619.768	32.65
619.959	32.68
620.151	32.79
620.343	32.91
620.534	33.01
620.726	33.02
620.917	32.98
621.109	32.97
621.301	33.03
621.492	33.1
621.684	32.82
621.875	32.7
622.067	32.64
622.258	32.96
622.45	33.06
622.641	32.89
622.832	33.14
623.024	33.17
623.215	33.04
623.407	33.01
623.598	33.07
623.789	33.26
623.981	33.39
624.172	33.49
624.363	33.33
624.555	33.2
624.746	33.17
624.937	33.04
625.129	32.99
625.32	33.03
625.511	32.92
625.702	32.82
625.893	32.77
626.085	32.7
626.276	32.66
626.467	32.58
626.658	32.62
626.849	32.76
627.04	32.64
627.231	32.67
627.422	32.93
627.614	32.96
627.805	33
627.996	33.02
628.187	33.12
628.378	33.14
628.569	33.3
628.76	33.45
628.951	33.54
629.142	33.92
629.332	34.16
629.523	34.22
629.714	34.5
629.905	34.84
630.096	34.94
630.287	35.12
630.478	35.29
630.669	35.41
630.859	35.41
631.05	35.42
631.241	35.16
631.432	34.82
631.623	34.58
631.813	34.24
632.004	33.71
632.195	33.37
632.385	33.02
632.576	32.81
632.767	32.42
632.957	32.03
633.148	31.7
633.339	31.4
633.529	31.36
633.72	31.25
633.91	31.23
634.101	31.34
634.292	31.34
634.482	31.38
634.673	31.21
634.863	31.38
635.054	31.47
635.244	31.49
635.435	31.6
635.625	31.63
635.815	31.53
636.006	31.56
636.196	31.39
636.387	31.48
636.577	31.41
636.767	31.47
636.958	31.26
637.148	31.29
637.338	31.33
637.529	31.37
637.719	31.32
637.909	31.49
638.099	31.39
638.29	31.51
638.48	31.52
638.67	31.63
638.86	31.66
639.05	31.74
639.241	31.73
639.431	31.7
639.621	31.62
639.811	31.77
640.001	31.73
640.191	31.74
640.381	31.87
640.571	32
640.761	31.93
640.951	31.97
641.141	32.03
641.331	32.1
641.521	32.22
641.711	32.34
641.901	32.37
642.091	32.58
642.281	32.76
642.471	32.86
642.661	32.69
642.851	32.77
643.041	32.65
643.231	32.65
643.42	32.63
643.61	32.63
643.8	32.62
643.99	32.62
644.18	32.26
644.369	32.26
644.559	32.07
644.749	32.24
644.939	32.19
645.128	32.41
645.318	32.35
645.508	32.43
645.697	32.2
645.887	32.17
646.076	32.06
646.266	32.34
646.456	32.3
646.645	32.32
646.835	32.18
647.024	32.32
647.214	32.26
647.403	32.47
647.593	32.37
647.782	32.66
647.972	32.74
648.161	32.87
648.351	32.81
648.54	32.88
648.73	32.91
648.919	33
649.108	32.82
649.298	32.91
649.487	32.84
649.677	32.92
649.866	32.96
650.055	32.95
650.244	32.84
650.434	32.92
650.623	32.75
650.812	32.72
651.002	32.7
651.191	33.02
651.38	32.78
651.569	32.76
651.758	32.7
651.947	32.64
652.137	32.82
652.326	33.02
652.515	32.98
652.704	33.03
652.893	33.1
653.082	32.97
653.271	32.61
653.46	32.79
653.649	32.91
653.838	32.93
654.027	32.96
654.216	32.79
654.405	32.57
654.594	32.45
654.783	32.49
654.972	32.27
655.161	32.58
655.35	32.63
655.539	32.59
655.728	32.53
655.916	32.52
656.105	32.23
656.294	32.3
656.483	32.2
656.672	32.08
656.86	32.03
657.049	32.16
657.238	31.82
657.427	31.82
657.615	31.87
657.804	31.65
657.993	31.59
658.181	31.71
658.37	31.51
658.559	31.8
658.747	31.96
658.936	32.07
659.125	31.93
659.313	31.91
659.502	31.87
659.69	31.79
659.879	31.91
660.067	32.01
660.256	32
660.444	32
660.633	31.92
660.821	32.01
661.01	31.99
661.198	32.29
661.387	32.61
661.575	32.67
661.763	32.7
661.952	32.81
662.14	32.85
662.328	32.8
662.517	33.1
662.705	33.13
662.893	33.03
663.082	33.07
663.27	32.99
663.458	32.77
663.646	33.06
663.834	33.17
664.023	33.13
664.211	33.2
664.399	33.57
664.587	33.39
664.775	33.28
664.963	33.47
665.152	33.22
665.34	33.27
665.528	33.6
665.716	33.49
665.904	33.47
666.092	33.5
666.28	33.35
666.468	33.07
666.656	33.27
666.844	33.45
667.032	33.4
667.22	33.63
667.408	33.69
667.596	33.52
667.784	33.72
667.971	33.53
668.159	33.5
668.347	33.61
668.535	33.87
668.723	33.72
668.911	33.59
669.098	33.55
669.286	33.63
669.474	33.44
669.662	33.39
669.849	33.28
670.037	33.5
670.225	33.59
670.413	33.5
670.6	33.59
670.788	33.53
670.976	33.5
671.163	33.45
671.351	33.37
671.538	33.49
671.726	33.42
671.913	33.09
672.101	33.04
672.289	32.97
672.476	33.02
672.664	32.94
672.851	33.01
673.039	33.2
673.226	33.39
673.413	33.33
673.601	33.19
673.788	33.54
673.976	33.82
674.163	33.83
674.35	33.75
674.538	33.98
674.725	34.05
674.912	34.19
675.1	34.19
675.287	33.98
675.474	33.89
675.662	34.11
675.849	33.99
676.036	33.87
676.223	34.01
676.411	34.08
676.598	34.04
676.785	33.67
676.972	33.76
677.159	33.59
677.346	33.84
677.533	33.88
677.721	33.91
677.908	33.91
678.095	33.94
678.282	33.64
678.469	33.58
678.656	33.3
678.843	33.2
679.03	33
679.217	33.02
679.404	32.95
679.591	32.9
679.778	32.64
679.964	32.51
680.151	32.39
680.338	32.62
680.525	32.76
680.712	32.7
680.899	32.88
681.086	33.07
681.272	32.99
681.459	32.85
681.646	32.98
681.833	33.05
682.02	32.95
682.206	33.22
682.393	33.11
682.58	32.98
682.766	33.1
682.953	33.2
683.14	33.06
683.326	33.36
683.513	33.58
683.7	33.7
683.886	33.67
684.073	33.59
684.259	33.33
684.446	33.37
684.632	33.47
684.819	33.54
685.005	33.74
685.192	33.78
685.378	33.66
685.565	33.57
685.751	33.51
685.938	33.68
686.124	34.05
686.31	34.55
686.497	34.46
686.683	34.39
686.87	34.73
687.056	34.41
687.242	34.34
687.429	34.08
687.615	34.19
687.801	34.35
687.987	34.4
688.174	34.46
688.36	34.24
688.546	34.5
688.732	34.65
688.918	34.26
689.105	34.51
689.291	34.58
689.477	34.86
689.663	34.73
689.849	34.39
690.035	34.45
690.221	34.44
690.407	34.25
690.593	34.17
690.779	33.97
690.965	33.7
691.151	33.47
691.337	33.57
691.523	33.72
691.709	33.69
691.895	33.97
692.081	34.13
692.267	34.05
692.453	34.45
692.639	34.35
692.825	34.73
693.011	35.3
693.196	35.34
693.382	35.39
693.568	35.35
693.754	35.88
693.94	35.74
694.125	35.49
694.311	35.52
694.497	35.18
694.682	35.06
694.868	34.64
695.054	34.4
695.239	34.61
695.425	34.5
695.611	34.37
695.796	33.89
695.982	33.71
696.168	33.76
696.353	33.6
696.539	33.48
696.724	33.57
696.91	33.37
697.095	33.26
697.281	32.95
697.466	32.84
697.652	32.63
697.837	32.33
698.023	32.48
698.208	32.26
698.393	32.26
698.579	32.3
698.764	32.24
698.949	32.34
699.135	32.44
699.32	32.52
699.505	32.54
699.691	32.69
699.876	32.84
700.061	32.92
700.246	33.05
700.432	33.08
700.617	33.14
700.802	33.35
700.987	33.37
701.172	33.47
701.358	33.67
701.543	33.95
701.728	34.16
701.913	34.33
702.098	34.38
702.283	34.59
702.468	34.88
702.653	35.37
702.838	35.68
703.023	35.83
703.208	35.96
703.393	36.04
703.578	35.9
703.763	36.28
703.948	36.49
704.133	36.45
704.318	36.61
704.503	36.76
704.688	36.8
704.873	36.62
705.057	37.14
705.242	37.68
705.427	37.94
705.612	38.37
705.797	38.44
705.981	38.74
706.166	39.17
706.351	39.52
706.536	39.61
706.72	39.92
706.905	40.06
707.09	39.81
707.274	39.8
707.459	39.81
707.644	40.12
707.828	39.99
708.013	40.09
708.197	39.85
708.382	39.83
708.567	39.99
708.751	39.85
708.936	39.7
709.12	39.83
709.305	39.56
709.489	39.45
709.673	39.21
709.858	38.8
710.042	38.78
710.227	39.22
710.411	38.82
710.596	38.61
710.78	38.46
710.964	38.9
711.149	38.95
711.333	38.81
711.517	39.05
711.702	38.74
711.886	38.87
712.07	38.43
712.254	38.13
712.438	38.23
712.623	38.11
712.807	37.69
712.991	37.48
713.175	37.24
713.359	37.27
713.544	36.71
713.728	36.62
713.912	36.32
714.096	36.2
714.28	35.59
714.464	35.39
714.648	35.1
714.832	35.2
715.016	34.81
715.2	34.59
715.384	34.28
715.568	34.28
715.752	34.16
715.936	34.6
716.12	34.56
716.304	34.99
716.488	34.93
716.671	35.05
716.855	34.83
717.039	34.77
717.223	34.98
717.407	34.55
717.59	34.54
717.774	34.35
717.958	33.9
718.142	34.25
718.325	34.02
718.509	33.9
718.693	33.57
718.877	33.91
719.06	34.08
719.244	33.99
719.428	34.69
719.611	34.96
719.795	35.22
719.978	35.62
720.162	35.39
720.345	35.58
720.529	35.95
720.713	36.12
720.896	35.74
721.08	35.91
721.263	36.03
721.446	36.03
721.63	35.77
721.813	35.81
721.997	35.83
722.18	36.07
722.364	36.07
722.547	35.93
722.73	35.93
722.914	36.06
723.097	35.92
723.28	36.19
723.464	36.2
723.647	36.56
723.83	36.35
724.013	36.15
724.197	36.07
724.38	35.91
724.563	35.94
724.746	36.1
724.929	35.89
725.112	36.27
725.296	35.64
725.479	35.5
725.662	35.85
725.845	35.86
726.028	35.91
726.211	35.81
726.394	35.82
726.577	35.62
726.76	35.74
726.943	35.96
727.126	35.28
727.309	35.74
727.492	35.61
727.675	34.7
727.858	34.36
728.041	34.13
728.224	34.05
728.407	34.11
728.589	34.04
728.772	34.08
728.955	34.18
729.138	34.15
729.321	33.72
729.503	34.05
729.686	34.43
729.869	35.01
730.052	34.89
730.234	35.12
730.417	35.36
730.6	35.16
730.782	34.96
730.965	35.02
731.148	35.46
731.33	35.67
731.513	35.34
731.695	35.58
731.878	35.62
732.061	35.84
732.243	35.38
732.426	35.08
732.608	35.52
732.791	35.41
732.973	35.25
733.156	35.25
733.338	35.17
733.52	35.24
733.703	35.01
733.885	35
734.068	35.22
734.25	35.7
734.432	35.79
734.615	36.17
734.797	36.25
734.979	36.37
735.162	36.52
735.344	36.52
735.526	36.66
735.708	37.04
735.891	36.99
736.073	36.65
736.255	36.98
736.437	36.9
736.619	36.77
736.802	36.93
736.984	36.83
737.166	37.17
737.348	37.56
737.53	37.37
737.712	36.98
737.894	36.8
738.076	36.95
738.258	36.81
738.44	37.13
738.622	36.9
738.804	37.35
738.986	37.5
739.168	37.08
739.35	37.15
739.532	37.52
739.714	37.86
739.896	38.23
740.078	38.37
740.259	37.9
740.441	37.91
740.623	37.9
740.805	37.42
740.987	37.57
741.168	37.61
741.35	37.26
741.532	37.2
741.714	37.07
741.895	37.16
742.077	37.41
742.259	37.92
742.44	37.96
742.622	38
742.804	37.77
742.985	37.86
743.167	37.5
743.348	37.81
743.53	37.8
743.711	37.94
743.893	38.08
744.075	38.08
744.256	37.95
744.438	38.18
744.619	38.72
744.8	39.2
744.982	39.58
745.163	40.46
745.345	40.61
745.526	40.88
745.707	40.52
745.889	40.72
746.07	40.39
746.252	40.18
746.433	40.17
746.614	39.55
746.795	38.82
746.977	38.44
747.158	37.96
747.339	38.01
747.52	38.1
747.702	38.34
747.883	37.88
748.064	38.24
748.245	38.47
748.426	38
748.607	38.81
748.788	39.45
748.97	39.5
749.151	39.59
749.332	39.59
749.513	39.04
749.694	39.3
749.875	39.46
750.056	39.78
750.237	39.94
750.418	40.24
750.599	39.17
750.78	39.4
750.96	39.66
751.141	39.87
751.322	39.86
751.503	40.05
751.684	39.93
751.865	39.95
752.046	39.74
752.226	39.56
752.407	39.35
752.588	40.13
752.769	40.06
752.949	39.41
753.13	38.77
753.311	38.46
753.492	38.85
753.672	38.84
753.853	38.78
754.034	38.89
754.214	38.42
754.395	38.67
754.575	38.79
754.756	38.73
754.937	38.82
755.117	38.99
755.298	39.19
755.478	39.29
755.659	39.14
755.839	39.3
756.02	39.18
756.2	39.09
756.381	38.62
756.561	38.49
756.741	38.31
756.922	38.5
757.102	38.79
757.283	38.47
757.463	38.06
757.643	37.9
757.823	37.27
758.004	36.81
758.184	37.46
758.364	37.94
758.545	37.35
758.725	37.19
758.905	37.09
759.085	36.72
759.265	36.91
759.446	36.05
759.626	36.08
759.806	36.31
759.986	36.62
760.166	35.89
760.346	35.4
760.526	35.99
760.706	36.28
760.886	36.02
761.066	35.7
761.246	35.44
761.426	35.7
761.606	36.09
761.786	35.89
761.966	35.18
762.146	34.79
762.326	34.8
762.506	34.04
762.686	33.77
762.866	33.74
763.046	33.62
763.225	33.13
763.405	33.1
763.585	32.79
763.765	32.9
763.945	32.82
764.124	33.33
764.304	33
764.484	33.47
764.664	33.65
764.843	33.54
765.023	33.94
765.203	34.52
765.382	34.91
765.562	35.03
765.741	35.2
765.921	36.11
766.101	36.5
766.28	37.02
766.46	37.14
766.639	37.57
766.819	37.92
766.998	37.7
767.178	38.17
767.357	38.68
767.537	38.43
767.716	38.79
767.896	38.81
768.075	38.63
768.254	38.38
768.434	38.79
768.613	38.74
768.792	38.83
768.972	39.31
769.151	39.53
769.33	39.27
769.51	39.44
769.689	39.24
769.868	38.81
770.047	39.24
770.226	39.71
770.406	38.92
770.585	39.25
770.764	39.72
770.943	39.64
771.122	39.34
771.301	39.8
771.48	40.63
771.66	40.63
771.839	40.83
772.018	40.8
772.197	41.47
772.376	41.78
772.555	41.94
772.734	41.82
772.913	42.37
773.092	42.46
773.271	41.8
773.449	41.73
773.628	42.46
773.807	42.49
773.986	42.73
774.165	42.27
774.344	42.5
774.523	42.55
774.701	42.59
774.88	42.88
775.059	42.77
775.238	43.12
775.417	43.03
775.595	42.84
775.774	43.25
775.953	42.64
776.131	43.01
776.31	43.2
776.489	42.99
776.667	43.35
776.846	42.58
777.025	42.1
777.203	42.07
777.382	42.37
777.56	41.77
777.739	41.04
777.917	40.68
778.096	40.54
778.274	40.87
778.453	40.01
778.631	40.14
778.81	40.49
778.988	40.52
779.166	40.54
779.345	40.24
779.523	40.13
779.702	40.59
779.88	40.93
780.058	40.79
780.237	40.96
780.415	41.69
780.593	41.31
780.771	41.7
780.95	41.88
781.128	42.66
781.306	42.29
781.484	42.77
781.662	42.67
781.841	43.55
782.019	44.23
782.197	43.63
782.375	43.61
782.553	43.17
782.731	42.8
782.909	43.37
783.087	42.44
783.265	42.74
783.443	42.78
783.621	43.5
783.799	43.31
783.977	43.02
784.155	43.17
784.333	43.29
784.511	43.19
784.689	43.24
784.867	43.87
785.045	44.2
785.223	43.66
785.4	44.37
785.578	43.94
785.756	43.7
785.934	43.19
786.112	43.46
786.289	42.74
786.467	42.66
786.645	42.72
786.823	41.61
787	41.04
787.178	41.23
787.356	40.04
787.533	39.59
787.711	39.46
787.889	39.18
788.066	38.42
788.244	38.46
788.421	38.76
788.599	38.45
788.776	39.01
788.954	39.64
789.131	39.49
789.309	40.33
789.486	40.55
789.664	41.1
789.841	41.37
790.019	42.14
790.196	42.48
790.373	42.38
790.551	42.64
790.728	42.29
790.906	41.6
791.083	43.02
791.26	42.41
791.437	43.02
791.615	42.17
791.792	42.81
791.969	42.36
792.146	42.89
792.324	42.74
792.501	42.88
792.678	43.14
792.855	43.87
793.032	42.4
793.209	42.77
793.387	42.45
793.564	42.89
793.741	42.66
793.918	42.19
794.095	41.17
794.272	41.79
794.449	41.27
794.626	40.99
794.803	40.43
794.98	41.47
795.157	41.18
795.334	40.07
795.511	39.56
795.688	39.66
795.864	39.41
796.041	40.48
796.218	40.64
796.395	41.2
796.572	40.37
796.749	41.18
796.925	40.93
797.102	41.65
797.279	42.63
797.456	42.91
797.632	42.43
797.809	42.88
797.986	42.16
798.162	42.31
798.339	41.32
798.516	42.47
798.692	42.29
798.869	42.04
799.046	40.57
799.222	41.39
799.399	41.44
799.575	41.97
799.752	42.09
799.928	41.98
800.105	41.78
800.281	42.04
800.458	41.93
800.634	41.62
800.811	41.93
800.987	42.72
801.163	41.76
801.34	42.16
801.516	41.44
801.692	41.85
801.869	42.08
802.045	42.43
802.221	42.58
802.398	42.89
802.574	42.75
802.75	42.58
802.926	43.38
803.103	43.73
803.279	42.86
803.455	43.32
803.631	43.98
803.807	44.47
803.983	44.01
804.16	43.68
804.336	42.99
804.512	42.52
804.688	42.38
804.864	40.78
805.04	40.69
805.216	41.53
805.392	41.32
805.568	41.42
805.744	41.02
805.92	40.53
806.096	41.73
806.272	42.54
806.448	43.75
806.623	43.61
806.799	44.13
806.975	43.25
807.151	42.59
807.327	43.07
807.503	41.79
807.678	41.79
807.854	42.16
808.03	41.85
808.206	41.89
808.381	41.08
808.557	40.52
808.733	40.94
808.908	41.11
809.084	41.22
809.26	40.87
809.435	41.64
809.611	42.57
809.787	42.82
809.962	42.43
810.138	42.54
810.313	43.22
810.489	43.1
810.664	43.35
810.84	44.25
811.015	44.99
811.191	45.83
811.366	46.25
811.542	45.99
811.717	46.04
811.892	46.68
812.068	45.89
812.243	45.56
812.419	46.51
812.594	46.04
812.769	45.56
812.944	45.31
813.12	45.06
813.295	44.15
813.47	43.55
813.645	42.72
813.821	42.88
813.996	42.87
814.171	43.5
814.346	43.98
814.521	44.78
814.697	44.63
814.872	44.86
815.047	44.93
815.222	44.53
815.397	43.57
815.572	44.36
815.747	43.41
815.922	43.84
816.097	43.67
816.272	42.58
816.447	42.57
816.622	42.31
816.797	42.24
816.972	41.34
817.147	41.41
817.322	42.82
817.496	42.02
817.671	42.92
817.846	43.08
818.021	42.32
818.196	42.33
818.371	40.67
818.545	40.97
818.72	39.76
818.895	40.08
819.069	39.57
819.244	38.33
819.419	37.93
819.594	37.01
819.768	36.02
819.943	35.91
820.117	35.72
820.292	35.95
820.467	35.13
820.641	34.43
820.816	32.93
820.99	32.89
821.165	32.22
821.339	31.75
821.514	31.4
821.688	30.75
821.863	30.08
822.037	29.62
822.212	29.03
822.386	28.8
822.56	28.73
822.735	28.8
822.909	28.66
823.084	28.78
823.258	28.8
823.432	28.71
823.606	28.92
823.781	29.29
823.955	29.51
824.129	29.98
824.303	30.35
824.478	30.49
824.652	31.08
824.826	31.2
825	31.6
825.174	31.96
825.348	32.33
825.523	32.55
825.697	32.84
825.871	32.83
826.045	32.9
826.219	32.84
826.393	33.29
826.567	33.33
826.741	33.27
826.915	33
827.089	32.74
827.263	32.28
827.437	32.64
827.611	32.87
827.784	33
827.958	32.99
828.132	32.79
828.306	32.82
828.48	32.78
828.654	33.38
828.827	34.16
829.001	34.86
829.175	35.95
829.349	36.2
829.522	36.31
829.696	36.8
829.87	36.82
830.044	38.41
830.217	38.63
830.391	38.94
830.565	38.63
830.738	37.91
830.912	37.66
831.085	38.54
831.259	39.3
831.432	38.87
831.606	38.59
831.779	38.52
831.953	37.83
832.126	37.06
832.3	36.44
832.473	37.04
832.647	36.89
832.82	36.63
832.994	35.66
833.167	35.23
833.34	35.19
833.514	34.91
833.687	35.4
833.86	34.44
834.034	34.65
834.207	34.66
834.38	34.47
834.553	34.71
834.727	34.58
834.9	34.31
835.073	34.14
835.246	34.09
835.419	34.53
835.593	34.56
835.766	35.65
835.939	36.61
836.112	37.14
836.285	37.33
836.458	37.58
836.631	38.71
836.804	39.62
836.977	40.27
837.15	40.73
837.323	41.67
837.496	42.66
837.669	43.55
837.842	42.61
838.015	42.9
838.188	44.66
838.361	45.65
838.533	45.61
838.706	45.83
838.879	45.92
839.052	46.25
839.225	46.52
839.398	44.84
839.57	43.81
839.743	44.26
839.916	44.62
840.088	44.33
840.261	44.71
840.434	45.93
840.607	46.56
840.779	47.34
840.952	47.47
841.124	47.4
841.297	48.71
841.47	48.91
841.642	49.19
841.815	49.83
841.987	50.1
842.16	49.81
842.332	48.49
842.505	49.14
842.677	48.71
842.85	49.3
843.022	49.46
843.194	49.8
843.367	51.73
843.539	52.8
843.712	52.11
843.884	50.97
844.056	50.61
844.229	52.13
844.401	51.83
844.573	52.31
844.745	52.15
844.918	52.82
845.09	53.2
845.262	51.91
845.434	52.55
845.606	55.45
845.779	57.6
845.951	58.76
846.123	58.32
846.295	57.65
846.467	56.86
846.639	58.5
846.811	57.36
846.983	57.82
847.155	60.02
847.327	59.41
847.499	57.65
847.671	57.32
847.843	56.84
848.015	56.71
848.187	57.01
848.359	58.66
848.531	58.15
848.703	59.44
848.875	60.45
849.047	59.22
849.218	62.6
849.39	61.95
849.562	61.42
849.734	59.56
849.905	60.18
850.077	61.7
850.249	61.18
850.421	60.67
850.592	61.32
850.764	61.01
850.936	59.5
851.107	57.21
851.279	59.66
851.451	59.31
851.622	62.63
851.794	63.07
851.965	62.76
852.137	61.5
852.308	60.88
852.48	59.81
852.651	60.87
852.823	61.09
852.994	59.36
853.166	55.52
853.337	56.25
853.509	54.49
853.68	53.93
853.851	54.01
854.023	53.86
854.194	53.92
854.365	55.63
854.537	54.35
854.708	54.85
854.879	56.05
855.05	59.22
855.222	58.23
855.393	59.57
855.564	61.03
855.735	59.58
855.906	61.07
856.078	62.22
856.249	59.3
856.42	59.7
856.591	60.52
856.762	62.47
856.933	62.03
857.104	62.02
857.275	60.4
857.446	59.05
857.617	58.95
857.788	59.35
857.959	58.76
858.13	58.39
858.301	59.7
858.472	60.18
858.643	56.95
858.814	55.79
858.985	55.93
859.155	57.26
859.326	57.32
859.497	57.83
859.668	55.37
859.839	54.02
860.009	55.35
860.18	54.37
860.351	53.67
860.522	53.54
860.692	52.71
860.863	51.42
861.034	51.82
861.204	52.44
861.375	54.68
861.546	57.67
861.716	60.53
861.887	61.7
862.057	61.23
862.228	62
862.398	61.57
862.569	62.27
862.739	63.63
862.91	63.26
863.08	60.15
863.251	58.76
863.421	56.99
863.592	55.82
863.762	53.89
863.932	52.92
864.103	50.97
864.273	52.2
864.443	51.55
864.614	52.44
864.784	51.48
864.954	54.18
865.125	55.82
865.295	56.79
865.465	57.39
865.635	56.78
865.805	57.19
865.976	58.56
866.146	58.24
866.316	58.69
866.486	57.79
866.656	57.97
866.826	58.92
866.996	57.06
867.166	54.78
867.336	55.12
867.506	56.61
867.676	58.26
867.846	59.18
868.016	59.08
868.186	61.15
868.356	60.29
868.526	61.31
868.696	56.91
868.866	56.92
869.036	58.25
869.206	57.98
869.376	57.71
869.545	56.01
869.715	55.2
869.885	55.72
870.055	53.74
870.224	52.46
870.394	51.19
870.564	54.07
870.734	55.2
870.903	55.38
871.073	56.7
871.243	55.78
871.412	56.11
871.582	55.18
871.751	55.91
871.921	57.42
872.091	58.42
872.26	60.29
872.43	60.34
872.599	60.88
872.769	62.31
872.938	59.8
873.108	61.51
873.277	60.67
873.446	60.66
873.616	61.06
873.785	62
873.955	61.28
874.124	60.2
874.293	59.69
874.463	57.07
874.632	56.14
874.801	56.43
874.971	56.76
875.14	57.84
875.309	58.77
875.478	58.65
875.647	55.46
875.817	56.95
875.986	57.61
876.155	57.26
876.324	58.06
876.493	59.33
876.662	60.51
876.831	57.94
877	57.46
877.17	56.69
877.339	55.29
877.508	55.74
877.677	56.04
877.846	56.33
878.015	57.77
878.184	57.1
878.352	56.9
878.521	54.96
878.69	55.53
878.859	54.51
879.028	53.01
879.197	52.97
879.366	52.08
879.534	50.47
879.703	48.34
879.872	46.64
880.041	44.72
880.21	42.33
880.378	41.99
880.547	40.59
880.716	39.7
880.884	38.65
881.053	37.66
881.222	35.82
881.39	35.03
881.559	33.89
881.727	32.3
881.896	32.43
882.065	32.46
882.233	31.72
882.402	31.4
882.57	31.41
882.739	31.62
882.907	31.13
883.076	32.12
883.244	32.26
883.412	32.68
883.581	33.76
883.749	34.13
883.918	33.53
884.086	34.77
884.254	35.09
884.423	34.41
884.591	35.16
884.759	35.21
884.927	35.69
885.096	35.72
885.264	36.74
885.432	36.56
885.6	36.28
885.769	38.74
885.937	38.01
886.105	39.26
886.273	41.25
886.441	41.26
886.609	43.6
886.777	43.9
886.945	45.69
887.113	44.21
887.281	45.59
887.449	47.7
887.617	47.06
887.785	49.24
887.953	49.85
888.121	52.13
888.289	51.36
888.457	51.43
888.625	50.58
888.793	49.64
888.961	52.36
889.129	54.77
889.296	54.73
889.464	55.25
889.632	53.51
889.8	54.05
889.967	52.77
890.135	54.98
