Data from 2938785__Reflection_03.txt Node
Date: Fri Mar 13 12:03:25 EDT 2015
User: robert
Spectrometer: USB4E03002
Autoset integration time: false
Trigger mode: 4
Integration Time (sec): 1.000000E-1
Scans to average: 10
Electric dark correction enabled: false
Nonlinearity correction enabled: false
Boxcar width: 5
Stray light correction enabled: false
XAxis mode: Wavelengths
Stop averaging: false
Number of Pixels in Spectrum: 3648
>>>>>Begin Spectral Data<<<<<
177.575	-851.67
177.794	-9185.71
178.014	-1330.43
178.233	-942.86
178.452	-624.03
178.672	-455.75
178.891	-522.25
179.11	-542.89
179.33	-519.62
179.549	-592.49
179.768	-665.67
179.987	-1065.07
180.207	-662.99
180.426	-1059.93
180.645	-1937.82
180.864	-7592.68
181.084	2350.75
181.303	3423.6
181.522	1637.85
181.741	3959.46
181.96	1734.66
182.179	797.08
182.398	691.91
182.618	558.49
182.837	611.01
183.056	445.78
183.275	414.17
183.494	465.04
183.713	420
183.932	425.21
184.151	382.01
184.37	429.57
184.589	506.38
184.808	603
185.027	604.46
185.246	624.59
185.465	2333.33
185.684	1255.08
185.903	1446.31
186.122	1658.1
186.341	5731.37
186.56	2708.62
186.779	3734.94
186.998	1787.36
187.216	-4335.94
187.435	-1090.35
187.654	-1203.98
187.873	-1671.59
188.092	-4078.26
188.311	22115.38
188.53	-3412.35
188.748	9025
188.967	-1356.41
189.186	-1630.23
189.405	-812.65
189.623	-2913.73
189.842	6770.21
190.061	2416.15
190.28	3332.61
190.498	-1877.65
190.717	-1431.65
190.936	-1149.63
191.154	-710.87
191.373	-2024.16
191.592	-1600.58
191.81	-1312.38
192.029	-1072.4
192.248	-996.39
192.466	-3739.44
192.685	-18250
192.904	-934.11
193.122	-4420
193.341	1078.4
193.559	651.78
193.778	774.74
193.996	601.36
194.215	637.68
194.433	644.63
194.652	577.07
194.87	1085.25
195.089	885.68
195.307	449.6
195.526	509.1
195.744	575.84
195.963	472.38
196.181	411.61
196.399	469
196.618	395.34
196.836	451.19
197.055	514.9
197.273	528.36
197.491	621.02
197.71	579.21
197.928	831.76
198.146	921.86
198.365	8684.38
198.583	-5254.72
198.801	-2057.58
199.019	-2170.31
199.238	-5612
199.456	1970.47
199.674	1052.41
199.892	818.67
200.111	1303.86
200.329	1210.97
200.547	941.7
200.765	666.34
200.983	577.85
201.202	591.88
201.42	743.7
201.638	754.27
201.856	1193.88
202.074	1463.06
202.292	-3637.1
202.51	15012.5
202.728	8410.34
202.946	-3125.97
203.165	-3023.75
203.383	4859.62
203.601	1861.48
203.819	4420
204.037	884.17
204.255	1027.2
204.473	1195.39
204.691	644.5
204.909	558.59
205.127	556.1
205.345	626.34
205.562	803.23
205.78	995.95
205.998	1029.79
206.216	610.89
206.434	1023.95
206.652	599.13
206.87	635.9
207.088	595.05
207.306	811.84
207.523	677.98
207.741	542.28
207.959	487.48
208.177	701.82
208.395	734.67
208.612	1076.15
208.83	743.24
209.048	875.71
209.266	1081.85
209.483	970.53
209.701	1092.16
209.919	1721.82
210.136	1355.16
210.354	1090.26
210.572	762.17
210.79	585.44
211.007	599.01
211.225	683.41
211.442	694.68
211.66	485.55
211.878	513.01
212.095	-1304.51
212.313	-3377.66
212.53	-2053.33
212.748	-1528.78
212.966	-2770.09
213.183	-1805.42
213.401	-2733.93
213.618	5809.09
213.836	-18905.88
214.053	-10570.97
214.271	12573.08
214.488	313.57
214.705	316.3
214.923	270.11
215.14	274.71
215.358	300
215.575	339.45
215.793	311.85
216.01	450.74
216.227	411.75
216.445	423.34
216.662	473.64
216.879	587.11
217.097	501.93
217.314	452.89
217.531	319.46
217.749	276.4
217.966	230.46
218.183	204.75
218.4	194.5
218.618	197.49
218.835	175.36
219.052	182.61
219.269	157.01
219.487	153.48
219.704	170.92
219.921	169.35
220.138	168.95
220.355	178.84
220.572	178.97
220.79	160.8
221.007	154.09
221.224	163.01
221.441	162.58
221.658	162.32
221.875	155.69
222.092	153.35
222.309	147.77
222.526	148.38
222.743	141.86
222.96	134.06
223.177	134.4
223.394	124.21
223.611	119.46
223.828	107.7
224.045	108.06
224.262	111.1
224.479	100.41
224.696	98.9
224.913	86.89
225.13	81.04
225.347	76.02
225.564	72.67
225.781	70.21
225.997	63.92
226.214	58
226.431	50.93
226.648	45.4
226.865	42.74
227.082	36.68
227.298	32.38
227.515	28.93
227.732	26.34
227.949	23.42
228.165	20.77
228.382	20.11
228.599	19.85
228.816	19.13
229.032	18.36
229.249	17.46
229.466	16.44
229.682	16.83
229.899	17.12
230.116	16.82
230.332	16.83
230.549	17.49
230.765	18.36
230.982	18.55
231.199	19.7
231.415	21.67
231.632	22.95
231.848	25.11
232.065	26.82
232.281	27.12
232.498	27.64
232.714	29.97
232.931	30.78
233.147	31.13
233.364	31.02
233.58	31.56
233.797	30.96
234.013	30.86
234.23	31.61
234.446	30.92
234.662	30.08
234.879	31.23
235.095	30.51
235.312	30.39
235.528	29.66
235.744	29.9
235.961	29.04
236.177	29.37
236.393	28.29
236.61	28.32
236.826	27.9
237.042	28.38
237.258	26.95
237.475	27.72
237.691	27.97
237.907	27.71
238.123	28.79
238.339	29.02
238.556	28.65
238.772	29.17
238.988	28.41
239.204	28.89
239.42	28.22
239.636	27.82
239.853	25.47
240.069	24.28
240.285	23.77
240.501	22.01
240.717	20.54
240.933	18.58
241.149	17.39
241.365	16
241.581	15.29
241.797	15.18
242.013	14.47
242.229	14.07
242.445	13.57
242.661	13.03
242.877	12.74
243.093	12.44
243.309	12.52
243.525	13.15
243.741	13.11
243.957	12.94
244.173	13.95
244.388	14.38
244.604	15.12
244.82	15.32
245.036	14.93
245.252	14.01
245.468	13.85
245.683	13.39
245.899	11.82
246.115	11.34
246.331	10.47
246.547	9.31
246.762	8.92
246.978	8.3
247.194	8.05
247.409	7.99
247.625	8.17
247.841	7.99
248.057	7.83
248.272	8
248.488	7.98
248.703	8.35
248.919	8.61
249.135	8.88
249.35	9.62
249.566	10.28
249.782	10.81
249.997	11.72
250.213	11.69
250.428	12.44
250.644	13.29
250.859	13.86
251.075	14.42
251.29	15.05
251.506	14.77
251.721	14.21
251.937	14.12
252.152	13.76
252.368	13.39
252.583	13.9
252.798	13.81
253.014	13.92
253.229	14.47
253.445	14.68
253.66	14.24
253.875	14.69
254.091	15.77
254.306	15.65
254.521	17.38
254.737	18.42
254.952	18.13
255.167	17.73
255.383	17.51
255.598	17.71
255.813	17.33
256.028	17.71
256.244	16.71
256.459	15.97
256.674	15.47
256.889	13.78
257.104	12.79
257.32	12.17
257.535	11.41
257.75	10.63
257.965	9.84
258.18	9.49
258.395	8.98
258.61	8.58
258.826	7.85
259.041	7.84
259.256	7.51
259.471	7.07
259.686	6.94
259.901	6.89
260.116	6.82
260.331	6.45
260.546	6.37
260.761	6.22
260.976	6.4
261.191	6.4
261.406	6.16
261.621	6.52
261.836	6.52
262.05	6.83
262.265	7.24
262.48	7.75
262.695	8.53
262.91	8.9
263.125	9.16
263.34	8.92
263.555	9.44
263.769	10.4
263.984	10.13
264.199	10.61
264.414	10.45
264.629	10.2
264.843	10.58
265.058	10.66
265.273	10.4
265.488	10.28
265.702	10.61
265.917	10.89
266.132	10.3
266.346	10.36
266.561	10.67
266.776	10.66
266.99	11.07
267.205	10.56
267.42	10.05
267.634	9.6
267.849	9.62
268.063	9.91
268.278	9.62
268.492	9.88
268.707	9.72
268.922	8.89
269.136	9.13
269.351	8.57
269.565	8.64
269.78	8.63
269.994	8.33
270.209	8.25
270.423	7.55
270.637	7.34
270.852	6.86
271.066	6.68
271.281	6.95
271.495	6.89
271.709	6.94
271.924	6.73
272.138	6.86
272.353	7.08
272.567	7.07
272.781	7.45
272.996	7.47
273.21	7.67
273.424	7.71
273.638	7.62
273.853	7.76
274.067	7.61
274.281	7.72
274.495	8.09
274.71	8.55
274.924	8.85
275.138	8.7
275.352	8.82
275.566	9.14
275.781	9.33
275.995	9.66
276.209	9.65
276.423	9.65
276.637	10.17
276.851	10.53
277.065	10.55
277.279	10.27
277.493	10.28
277.707	10.53
277.921	10.24
278.135	10.23
278.349	10.09
278.563	10.19
278.777	10.57
278.991	9.9
279.205	9.87
279.419	9.8
279.633	9.63
279.847	9.28
280.061	9.31
280.275	8.66
280.489	8.75
280.703	9
280.917	8.56
281.131	8.2
281.344	8.02
281.558	7.21
281.772	7.13
281.986	7.22
282.2	7.5
282.414	7.36
282.627	7.85
282.841	7.8
283.055	7.75
283.269	8.02
283.482	7.92
283.696	8.11
283.91	8.32
284.123	7.59
284.337	7.41
284.551	7.1
284.764	6.97
284.978	6.52
285.192	6.15
285.405	6.03
285.619	5.69
285.833	5.88
286.046	5.7
286.26	5.48
286.473	5.97
286.687	5.86
286.9	6.13
287.114	6.01
287.327	6.32
287.541	6.56
287.754	6.45
287.968	6.88
288.181	6.69
288.395	6.83
288.608	7.1
288.822	7.17
289.035	7.12
289.248	6.83
289.462	6.71
289.675	6.61
289.889	6.67
290.102	6.6
290.315	6.32
290.529	6.63
290.742	6.54
290.955	6.5
291.169	6.59
291.382	7.08
291.595	7.28
291.808	7.78
292.022	8.05
292.235	8.02
292.448	8.24
292.661	8.65
292.875	8.57
293.088	8.75
293.301	8.71
293.514	8.3
293.727	8.25
293.94	8.2
294.153	7.75
294.367	7.71
294.58	7.29
294.793	7.17
295.006	6.82
295.219	6.6
295.432	6.63
295.645	6.47
295.858	6.35
296.071	5.87
296.284	5.61
296.497	5.44
296.71	5.44
296.923	5.79
297.136	5.88
297.349	5.75
297.562	5.69
297.775	5.57
297.988	5.8
298.201	5.99
298.414	6.36
298.626	6.53
298.839	6.59
299.052	6.45
299.265	6.49
299.478	6.33
299.691	6.85
299.903	7.18
300.116	7.4
300.329	7.23
300.542	7.35
300.755	7.28
300.967	7.63
301.18	7.91
301.393	8.14
301.605	8.05
301.818	8.17
302.031	8.06
302.243	8.04
302.456	7.85
302.669	8.22
302.881	8.28
303.094	8.9
303.307	8.7
303.519	8.53
303.732	8.74
303.944	8.98
304.157	9.21
304.37	8.67
304.582	9.1
304.795	9.76
305.007	9.42
305.22	9.51
305.432	9.06
305.645	9.35
305.857	9.9
306.069	10.18
306.282	9.68
306.494	9.81
306.707	10.29
306.919	9.87
307.132	9.09
307.344	9.04
307.556	9.12
307.769	9.08
307.981	8.93
308.193	8.66
308.406	7.99
308.618	8.17
308.83	7.77
309.043	7.66
309.255	7.44
309.467	7.53
309.679	7.33
309.892	7.38
310.104	7.42
310.316	7.53
310.528	7.42
310.74	7.54
310.953	7.4
311.165	7.75
311.377	7.89
311.589	8.39
311.801	8.37
312.013	8.71
312.225	8.51
312.437	8.41
312.649	8.25
312.862	8.43
313.074	8.67
313.286	9.01
313.498	8.95
313.71	8.95
313.922	8.65
314.134	9.01
314.346	9.11
314.558	9.25
314.77	9.63
314.982	9.85
315.193	9.93
315.405	9.81
315.617	9.85
315.829	10.12
316.041	10.63
316.253	10.5
316.465	10.74
316.677	10.86
316.888	10.66
317.1	10.81
317.312	10.93
317.524	11.16
317.736	11.21
317.947	11.97
318.159	11.55
318.371	10.98
318.583	11.27
318.794	11.19
319.006	11.44
319.218	11.69
319.43	11.59
319.641	11.38
319.853	11.49
320.064	11.89
320.276	11.06
320.488	11.71
320.699	11.8
320.911	12.05
321.123	12.12
321.334	11.61
321.546	11.67
321.757	11.87
321.969	12.47
322.18	12.11
322.392	11.69
322.603	12.32
322.815	11.91
323.026	12.18
323.238	12.18
323.449	11.43
323.661	11.75
323.872	11.94
324.083	11.3
324.295	10.81
324.506	10.82
324.718	11.08
324.929	10.94
325.14	10.87
325.352	10.43
325.563	10.79
325.774	11.33
325.986	11.18
326.197	11.2
326.408	11.61
326.62	11.75
326.831	11.82
327.042	11.93
327.253	12.28
327.464	12.58
327.676	12.82
327.887	12.78
328.098	12.81
328.309	12.81
328.52	12.8
328.732	12.76
328.943	13.18
329.154	13.48
329.365	13.41
329.576	13.43
329.787	13.44
329.998	14.26
330.209	14.14
330.42	14.07
330.631	14.61
330.842	14.68
331.053	15.13
331.264	14.69
331.475	14.4
331.686	14.33
331.897	14.11
332.108	14.26
332.319	14.12
332.53	13.78
332.741	13.87
332.952	13.65
333.163	13.75
333.374	13.61
333.585	13.93
333.795	14.22
334.006	14.19
334.217	14
334.428	13.93
334.639	13.61
334.849	13.64
335.06	13.77
335.271	13.77
335.482	13.88
335.692	13.21
335.903	12.99
336.114	12.91
336.325	12.94
336.535	12.8
336.746	12.41
336.957	12.54
337.167	12.86
337.378	12.74
337.589	12.69
337.799	12.28
338.01	12.63
338.22	12.75
338.431	12.74
338.642	12.78
338.852	12.79
339.063	13.07
339.273	13.05
339.484	12.75
339.694	12.66
339.905	12.77
340.115	13.15
340.326	13.25
340.536	13.39
340.746	13.39
340.957	13.43
341.167	13.38
341.378	13.34
341.588	13.31
341.799	13.25
342.009	13.24
342.219	13.2
342.43	12.96
342.64	13.15
342.85	12.8
343.061	12.5
343.271	12.59
343.481	12.63
343.691	12.35
343.902	12.37
344.112	12.39
344.322	12.44
344.532	12.35
344.743	12.05
344.953	11.58
345.163	11.81
345.373	11.63
345.583	11.27
345.793	11.57
346.004	11.71
346.214	11.4
346.424	11.59
346.634	11.76
346.844	11.81
347.054	12.22
347.264	12.33
347.474	12.23
347.684	12.51
347.894	12.6
348.104	12.36
348.314	12.42
348.524	12.46
348.734	12.47
348.944	12.5
349.154	12.2
349.364	12.1
349.574	12.31
349.784	12.34
349.994	12.43
350.204	12.57
350.413	12.55
350.623	12.43
350.833	12.46
351.043	12.23
351.253	11.98
351.463	11.97
351.672	12.23
351.882	12.08
352.092	11.7
352.302	11.83
352.511	11.81
352.721	11.9
352.931	11.94
353.141	12.17
353.35	12.2
353.56	12.4
353.77	12.49
353.979	12.1
354.189	12.22
354.399	12.55
354.608	12.42
354.818	12.19
355.027	12.14
355.237	12.11
355.447	12.2
355.656	11.98
355.866	12.06
356.075	12.21
356.285	12.29
356.494	12.32
356.704	12.12
356.913	11.91
357.123	12.09
357.332	11.92
357.542	11.89
357.751	11.4
357.96	11.67
358.17	11.2
358.379	10.84
358.589	10.89
358.798	10.84
359.007	10.78
359.217	11.1
359.426	10.68
359.635	10.67
359.845	10.67
360.054	10.65
360.263	10.32
360.472	10.45
360.682	10.42
360.891	10.34
361.1	9.98
361.309	9.89
361.519	9.67
361.728	9.86
361.937	9.73
362.146	9.65
362.355	9.76
362.564	10.06
362.774	10.06
362.983	10.09
363.192	10.02
363.401	10.22
363.61	10.33
363.819	10.45
364.028	10.61
364.237	10.83
364.446	10.84
364.655	10.87
364.864	10.44
365.073	10.44
365.282	10.52
365.491	10.73
365.7	10.7
365.909	10.64
366.118	10.75
366.327	10.7
366.536	10.57
366.745	10.68
366.954	10.68
367.162	10.98
367.371	10.92
367.58	11.04
367.789	10.82
367.998	10.9
368.207	10.98
368.415	10.84
368.624	10.89
368.833	10.94
369.042	10.84
369.25	10.9
369.459	10.88
369.668	10.87
369.877	10.39
370.085	10.48
370.294	10.54
370.503	10.77
370.711	10.65
370.92	10.38
371.129	10.5
371.337	10.49
371.546	10.5
371.754	10.63
371.963	10.59
372.171	10.75
372.38	10.86
372.589	10.52
372.797	10.18
373.006	10.2
373.214	10.17
373.423	9.93
373.631	10.03
373.84	9.65
374.048	9.27
374.256	9.25
374.465	9.41
374.673	9.4
374.882	9.73
375.09	9.9
375.298	9.71
375.507	9.7
375.715	9.77
375.923	9.67
376.132	9.8
376.34	9.74
376.548	9.78
376.757	9.69
376.965	9.4
377.173	9.09
377.381	8.82
377.59	9.21
377.798	9.18
378.006	9.04
378.214	8.82
378.423	8.93
378.631	9
378.839	8.92
379.047	8.87
379.255	8.98
379.463	9.19
379.671	9.29
379.879	9.02
380.088	8.93
380.296	8.88
380.504	8.83
380.712	8.62
380.92	8.6
381.128	8.63
381.336	8.62
381.544	8.39
381.752	8.32
381.96	8.31
382.168	8.2
382.376	8.36
382.584	8.43
382.791	8.69
382.999	8.68
383.207	8.71
383.415	8.8
383.623	8.76
383.831	8.72
384.039	8.57
384.247	8.47
384.454	8.61
384.662	8.56
384.87	8.49
385.078	8.47
385.285	8.41
385.493	8.21
385.701	7.99
385.909	7.95
386.116	8.08
386.324	8.07
386.532	8.08
386.739	7.85
386.947	7.87
387.155	8.14
387.362	7.98
387.57	7.99
387.778	8.19
387.985	8.23
388.193	8.15
388.4	8.14
388.608	8.31
388.816	8.41
389.023	8.45
389.231	8.42
389.438	8.13
389.646	8.21
389.853	8.22
390.061	8.07
390.268	8.21
390.475	8.23
390.683	8.11
390.89	8.05
391.098	7.9
391.305	7.9
391.512	7.8
391.72	7.93
391.927	7.81
392.135	7.84
392.342	7.87
392.549	7.77
392.756	7.71
392.964	7.62
393.171	7.54
393.378	7.67
393.586	7.54
393.793	7.37
394	7.2
394.207	7.3
394.414	7.29
394.622	7.21
394.829	7.3
395.036	7.39
395.243	7.48
395.45	7.44
395.657	7.25
395.864	7.47
396.072	7.58
396.279	7.72
396.486	7.57
396.693	7.69
396.9	7.78
397.107	7.66
397.314	7.7
397.521	7.77
397.728	7.79
397.935	7.78
398.142	7.62
398.349	7.9
398.556	7.9
398.763	7.88
398.97	7.45
399.177	7.46
399.383	7.49
399.59	7.57
399.797	7.71
400.004	7.68
400.211	7.79
400.418	7.84
400.625	7.61
400.831	7.56
401.038	7.82
401.245	8.06
401.452	8.11
401.658	8.06
401.865	8.22
402.072	8.22
402.279	8.12
402.485	8.08
402.692	7.93
402.899	7.91
403.105	7.88
403.312	7.72
403.519	7.39
403.725	7.42
403.932	7.22
404.138	6.91
404.345	6.86
404.552	6.81
404.758	6.8
404.965	6.75
405.171	6.78
405.378	6.69
405.584	6.7
405.791	7
405.997	6.91
406.204	7.14
406.41	7.17
406.617	7.08
406.823	7.34
407.029	7.31
407.236	7.51
407.442	7.55
407.649	7.61
407.855	7.74
408.061	7.8
408.268	7.93
408.474	7.94
408.68	7.9
408.887	7.97
409.093	7.89
409.299	8.09
409.505	8.03
409.712	8.04
409.918	8.01
410.124	7.83
410.33	7.87
410.537	7.79
410.743	7.68
410.949	7.89
411.155	7.92
411.361	7.91
411.567	7.84
411.773	7.85
411.98	7.86
412.186	7.84
412.392	8.1
412.598	8.03
412.804	8.06
413.01	8.09
413.216	8.03
413.422	7.9
413.628	7.8
413.834	7.7
414.04	7.81
414.246	7.91
414.452	7.87
414.658	7.61
414.864	7.46
415.07	7.53
415.275	7.41
415.481	7.41
415.687	7.39
415.893	7.3
416.099	7.3
416.305	7.19
416.511	7.05
416.716	6.95
416.922	6.95
417.128	6.93
417.334	6.76
417.539	6.84
417.745	6.66
417.951	6.57
418.157	6.59
418.362	6.48
418.568	6.37
418.774	6.28
418.979	6.35
419.185	6.24
419.391	6.2
419.596	6.08
419.802	5.93
420.008	5.96
420.213	6.62
420.419	6.54
420.624	6.49
420.83	6.51
421.035	6.55
421.241	6.5
421.446	6.5
421.652	6.44
421.857	6.46
422.063	6.5
422.268	6.42
422.474	5.82
422.679	5.86
422.885	5.87
423.09	5.86
423.295	5.74
423.501	5.75
423.706	5.81
423.911	5.84
424.117	5.85
424.322	5.85
424.527	5.84
424.733	5.82
424.938	5.81
425.143	5.85
425.349	5.83
425.554	5.91
425.759	5.94
425.964	5.93
426.169	5.94
426.375	6.04
426.58	6.11
426.785	6.21
426.99	6.32
427.195	6.39
427.4	6.47
427.605	6.49
427.811	6.65
428.016	6.68
428.221	6.83
428.426	6.88
428.631	6.87
428.836	6.85
429.041	6.92
429.246	6.9
429.451	6.89
429.656	6.79
429.861	6.92
430.066	6.77
430.271	6.71
430.476	6.65
430.681	6.79
430.886	6.88
431.09	6.93
431.295	6.86
431.5	6.98
431.705	6.99
431.91	7.13
432.115	7.14
432.32	7.3
432.524	7.3
432.729	7.44
432.934	7.39
433.139	7.33
433.343	7.35
433.548	7.32
433.753	7.23
433.958	7.22
434.162	7.21
434.367	7.24
434.572	7.15
434.776	7.14
434.981	7.01
435.186	7.07
435.39	7.2
435.595	7.21
435.799	7.31
436.004	7.31
436.209	7.42
436.413	7.42
436.618	7.29
436.822	7.25
437.027	7.37
437.231	7.29
437.436	7.28
437.64	7.27
437.845	7.27
438.049	7.25
438.253	7.19
438.458	7.14
438.662	7
438.867	7.09
439.071	7.07
439.275	6.94
439.48	6.95
439.684	6.83
439.888	6.7
440.093	6.7
440.297	6.63
440.501	6.62
440.706	6.62
440.91	6.67
441.114	6.67
441.318	6.72
441.523	6.79
441.727	6.74
441.931	6.85
442.135	6.93
442.339	6.94
442.543	7.16
442.748	7.21
442.952	7.21
443.156	7.28
443.36	7.15
443.564	7.17
443.768	7.19
443.972	7.2
444.176	7.19
444.38	7.09
444.584	6.99
444.788	6.77
444.992	6.75
445.196	6.72
445.4	6.69
445.604	6.78
445.808	6.74
446.012	6.71
446.216	6.72
446.42	6.67
446.624	6.65
446.828	6.6
447.032	6.57
447.235	6.56
447.439	6.57
447.643	6.59
447.847	6.56
448.051	6.58
448.254	6.58
448.458	6.71
448.662	6.79
448.866	6.83
449.069	6.99
449.273	7.16
449.477	7.19
449.681	7.29
449.884	7.33
450.088	7.48
450.292	7.49
450.495	7.5
450.699	7.43
450.902	7.39
451.106	7.4
451.31	7.45
451.513	7.41
451.717	7.42
451.92	7.3
452.124	7.32
452.327	7.24
452.531	7.26
452.734	7.27
452.938	7.26
453.141	7.36
453.345	7.47
453.548	7.45
453.752	7.47
453.955	7.63
454.158	7.6
454.362	7.62
454.565	7.7
454.769	7.8
454.972	7.94
455.175	7.9
455.379	7.96
455.582	7.94
455.785	7.93
455.988	7.96
456.192	7.82
456.395	7.83
456.598	7.78
456.801	7.76
457.005	7.59
457.208	7.56
457.411	7.6
457.614	7.47
457.817	7.35
458.021	7.25
458.224	7.16
458.427	7.01
458.63	7.08
458.833	6.97
459.036	6.87
459.239	6.89
459.442	6.75
459.645	6.69
459.848	6.65
460.051	6.65
460.254	6.69
460.457	6.66
460.66	6.81
460.863	6.77
461.066	6.9
461.269	6.9
461.472	7.02
461.675	7.15
461.878	7.27
462.081	7.35
462.284	7.44
462.486	7.44
462.689	7.56
462.892	7.62
463.095	7.64
463.298	7.64
463.5	7.84
463.703	7.68
463.906	7.71
464.109	7.65
464.311	7.64
464.514	7.6
464.717	7.71
464.92	7.71
465.122	7.73
465.325	7.9
465.528	7.87
465.73	7.79
465.933	7.81
466.135	7.83
466.338	7.65
466.541	7.6
466.743	7.63
466.946	7.52
467.148	7.5
467.351	7.47
467.553	7.39
467.756	7.38
467.958	7.33
468.161	7.48
468.363	7.43
468.566	7.61
468.768	7.72
468.971	7.67
469.173	7.8
469.375	7.81
469.578	7.81
469.78	7.76
469.983	7.91
470.185	7.93
470.387	7.86
470.59	7.87
470.792	7.94
470.994	7.93
471.196	7.98
471.399	7.87
471.601	7.94
471.803	7.85
472.005	7.89
472.208	7.78
472.41	7.8
472.612	7.84
472.814	7.91
473.016	8.01
473.218	8.03
473.421	8.04
473.623	8.07
473.825	8.09
474.027	8.21
474.229	8.09
474.431	8.08
474.633	8.09
474.835	8.08
475.037	8.05
475.239	7.85
475.441	7.8
475.643	7.86
475.845	7.82
476.047	7.7
476.249	7.6
476.451	7.71
476.653	7.7
476.855	7.75
477.057	7.63
477.258	7.64
477.46	7.64
477.662	7.66
477.864	7.6
478.066	7.59
478.268	7.51
478.469	7.52
478.671	7.48
478.873	7.44
479.075	7.34
479.276	7.35
479.478	7.32
479.68	7.4
479.882	7.34
480.083	7.34
480.285	7.32
480.487	7.42
480.688	7.35
480.89	7.33
481.091	7.27
481.293	7.21
481.495	7.09
481.696	6.98
481.898	6.79
482.099	6.7
482.301	6.57
482.502	6.53
482.704	6.42
482.905	6.36
483.107	6.25
483.308	6.2
483.51	6.13
483.711	6.13
483.913	6.1
484.114	6.12
484.315	6.12
484.517	6.11
484.718	6.09
484.92	6.08
485.121	6.12
485.322	6.17
485.524	6.19
485.725	6.26
485.926	6.25
486.127	6.27
486.329	6.3
486.53	6.27
486.731	6.28
486.932	6.26
487.134	6.27
487.335	6.23
487.536	6.2
487.737	6.2
487.938	6.18
488.139	6.21
488.341	6.29
488.542	6.3
488.743	6.38
488.944	6.44
489.145	6.52
489.346	6.58
489.547	6.62
489.748	6.71
489.949	6.79
490.15	6.79
490.351	6.77
490.552	6.73
490.753	6.7
490.954	6.64
491.155	6.63
491.356	6.62
491.557	6.59
491.758	6.61
491.959	6.6
492.159	6.59
492.36	6.64
492.561	6.69
492.762	6.75
492.963	6.81
493.164	6.89
493.364	6.95
493.565	7
493.766	7.11
493.967	7.14
494.167	7.28
494.368	7.39
494.569	7.43
494.769	7.53
494.97	7.55
495.171	7.6
495.371	7.65
495.572	7.67
495.773	7.57
495.973	7.63
496.174	7.67
496.375	7.63
496.575	7.61
496.776	7.72
496.976	7.67
497.177	7.62
497.377	7.61
497.578	7.62
497.778	7.67
497.979	7.83
498.179	7.79
498.38	7.82
498.58	7.88
498.78	7.97
498.981	7.94
499.181	8.01
499.382	8.14
499.582	8.17
499.782	8.25
499.983	8.35
500.183	8.39
500.383	8.4
500.584	8.42
500.784	8.41
500.984	8.42
501.184	8.42
501.385	8.41
501.585	8.38
501.785	8.36
501.985	8.3
502.185	8.29
502.386	8.23
502.586	8.36
502.786	8.41
502.986	8.47
503.186	8.46
503.386	8.42
503.586	8.46
503.786	8.44
503.987	8.5
504.187	8.55
504.387	8.53
504.587	8.58
504.787	8.55
504.987	8.63
505.187	8.57
505.387	8.59
505.587	8.71
505.786	8.79
505.986	8.85
506.186	8.89
506.386	8.93
506.586	8.98
506.786	9.01
506.986	9.05
507.186	8.95
507.386	8.95
507.585	9
507.785	8.97
507.985	8.96
508.185	8.93
508.384	8.88
508.584	8.79
508.784	8.66
508.984	8.79
509.183	8.77
509.383	8.84
509.583	8.9
509.782	8.85
509.982	8.86
510.182	8.92
510.381	8.97
510.581	9.04
510.781	9.09
510.98	9.2
511.18	9.07
511.379	9.09
511.579	9.07
511.778	9.09
511.978	9.2
512.177	9.24
512.377	9.21
512.576	9.2
512.776	9.24
512.975	9.4
513.175	9.59
513.374	9.71
513.573	9.86
513.773	10.03
513.972	10.26
514.172	10.27
514.371	10.47
514.57	10.54
514.77	10.68
514.969	10.67
515.168	10.66
515.367	10.59
515.567	10.7
515.766	10.69
515.965	10.67
516.164	10.47
516.364	10.53
516.563	10.4
516.762	10.42
516.961	10.36
517.16	10.42
517.359	10.43
517.559	10.45
517.758	10.42
517.957	10.39
518.156	10.45
518.355	10.52
518.554	10.48
518.753	10.52
518.952	10.53
519.151	10.56
519.35	10.62
519.549	10.64
519.748	10.66
519.947	10.72
520.146	10.81
520.345	10.83
520.544	11.01
520.743	11.18
520.942	11.22
521.141	11.33
521.339	11.5
521.538	11.49
521.737	11.61
521.936	11.75
522.135	11.81
522.333	11.86
522.532	11.97
522.731	11.94
522.93	11.9
523.129	12.01
523.327	12.1
523.526	12.15
523.725	12.27
523.923	12.21
524.122	12.22
524.321	12.23
524.519	12.25
524.718	12.14
524.917	12.09
525.115	12.06
525.314	12.05
525.512	12.05
525.711	12.01
525.909	12.04
526.108	12.08
526.306	12.04
526.505	12.07
526.703	12.04
526.902	12.07
527.1	12.07
527.299	12.12
527.497	12.11
527.696	12.09
527.894	12.07
528.092	12.04
528.291	12.03
528.489	12.07
528.688	12.09
528.886	12.14
529.084	12.16
529.283	12.2
529.481	12.23
529.679	12.31
529.877	12.4
530.076	12.5
530.274	12.57
530.472	12.72
530.67	12.85
530.869	12.96
531.067	13.04
531.265	13.2
531.463	13.29
531.661	13.38
531.859	13.42
532.057	13.47
532.255	13.49
532.454	13.55
532.652	13.54
532.85	13.58
533.048	13.61
533.246	13.66
533.444	13.64
533.642	13.72
533.84	13.79
534.038	13.84
534.236	13.92
534.434	14.04
534.632	14.11
534.83	14.28
535.027	14.31
535.225	14.35
535.423	14.46
535.621	14.63
535.819	14.67
536.017	14.78
536.215	14.82
536.412	14.83
536.61	14.87
536.808	14.93
537.006	14.95
537.203	15.07
537.401	15.28
537.599	15.4
537.797	15.52
537.994	15.7
538.192	15.87
538.39	16.03
538.587	16.22
538.785	16.38
538.983	16.54
539.18	16.63
539.378	16.73
539.575	16.7
539.773	16.72
539.97	16.68
540.168	16.7
540.366	16.63
540.563	16.61
540.761	16.63
540.958	16.62
541.155	16.63
541.353	16.65
541.55	16.66
541.748	16.68
541.945	16.67
542.143	16.74
542.34	16.82
542.537	16.89
542.735	17.02
542.932	17.1
543.129	17.32
543.327	17.42
543.524	17.68
543.721	17.9
543.919	18.21
544.116	18.56
544.313	18.94
544.51	19.18
544.708	19.53
544.905	19.85
545.102	20.21
545.299	20.32
545.496	20.6
545.693	20.71
545.891	20.74
546.088	20.8
546.285	20.85
546.482	20.69
546.679	20.65
546.876	20.53
547.073	20.43
547.27	20.23
547.467	20.18
547.664	20.13
547.861	20.09
548.058	20.23
548.255	20.24
548.452	20.25
548.649	20.37
548.846	20.51
549.043	20.61
549.24	20.83
549.437	20.88
549.633	21.11
549.83	21.26
550.027	21.28
550.224	21.16
550.421	21.09
550.618	21
550.814	21.04
551.011	20.91
551.208	21.04
551.405	20.89
551.601	20.99
551.798	20.84
551.995	20.64
552.191	20.6
552.388	20.59
552.585	20.57
552.781	20.54
552.978	20.43
553.175	20.44
553.371	20.38
553.568	20.32
553.764	20.28
553.961	20.35
554.157	20.43
554.354	20.45
554.55	20.55
554.747	20.67
554.943	20.83
555.14	20.99
555.336	21.16
555.533	21.15
555.729	21.3
555.926	21.42
556.122	21.51
556.318	21.67
556.515	21.73
556.711	21.79
556.907	21.85
557.104	21.9
557.3	21.97
557.496	22
557.693	22
557.889	22.07
558.085	22.14
558.281	22.15
558.478	22.29
558.674	22.4
558.87	22.46
559.066	22.48
559.262	22.57
559.459	22.5
559.655	22.62
559.851	22.66
560.047	22.68
560.243	22.75
560.439	22.82
560.635	22.7
560.831	22.68
561.027	22.71
561.223	22.64
561.419	22.6
561.615	22.7
561.811	22.68
562.007	22.78
562.203	22.92
562.399	22.86
562.595	22.85
562.791	22.95
562.987	23.02
563.183	23.04
563.379	23.08
563.575	23.14
563.771	23.19
563.966	23.2
564.162	23.17
564.358	23.07
564.554	23.09
564.75	23.08
564.945	22.97
565.141	22.88
565.337	22.85
565.533	22.79
565.728	22.62
565.924	22.65
566.12	22.57
566.315	22.52
566.511	22.51
566.707	22.51
566.902	22.51
567.098	22.72
567.293	22.76
567.489	22.84
567.684	22.99
567.88	23.16
568.076	23.22
568.271	23.36
568.467	23.52
568.662	23.57
568.858	23.65
569.053	23.68
569.248	23.58
569.444	23.63
569.639	23.65
569.835	23.74
570.03	23.78
570.225	23.64
570.421	23.57
570.616	23.59
570.812	23.62
571.007	23.63
571.202	23.59
571.397	23.61
571.593	23.6
571.788	23.69
571.983	23.68
572.178	23.69
572.374	23.82
572.569	23.99
572.764	24.05
572.959	24.05
573.154	24.08
573.35	24.15
573.545	24.23
573.74	24.25
573.935	24.22
574.13	24.1
574.325	24.26
574.52	24.43
574.715	24.46
574.91	24.48
575.105	24.61
575.3	24.71
575.495	24.95
575.69	25.01
575.885	25.28
576.08	25.47
576.275	25.83
576.47	25.98
576.665	26
576.86	26.2
577.055	26.4
577.25	26.67
577.444	26.77
577.639	27.1
577.834	27.26
578.029	27.43
578.224	27.61
578.418	27.76
578.613	27.89
578.808	28.03
579.003	28.15
579.197	28.26
579.392	28.1
579.587	28.21
579.781	28.06
579.976	28.2
580.171	28.11
580.365	28.09
580.56	28.19
580.755	28.26
580.949	28.33
581.144	28.26
581.338	28.32
581.533	28.66
581.727	28.81
581.922	28.91
582.116	29.04
582.311	29.2
582.505	29.08
582.7	29.13
582.894	29.1
583.089	29.14
583.283	29.26
583.478	29.37
583.672	29.36
583.866	29.26
584.061	29.28
584.255	29.17
584.449	29.24
584.644	29.44
584.838	29.58
585.032	29.7
585.226	29.79
585.421	29.92
585.615	29.96
585.809	30
586.003	30.17
586.198	30.13
586.392	30.29
586.586	30.23
586.78	30.34
586.974	30.11
587.168	29.94
587.363	29.85
587.557	29.63
587.751	29.39
587.945	29.12
588.139	29.07
588.333	29.08
588.527	29.04
588.721	28.93
588.915	28.65
589.109	28.48
589.303	28.43
589.497	28.27
589.691	28.26
589.885	28.35
590.079	28.52
590.273	28.45
590.466	28.4
590.66	28.41
590.854	28.73
591.048	28.85
591.242	29.19
591.436	29.37
591.629	29.56
591.823	29.79
592.017	29.87
592.211	29.92
592.404	30.06
592.598	30.14
592.792	30.06
592.986	29.92
593.179	29.86
593.373	29.62
593.567	29.47
593.76	29.33
593.954	29.1
594.147	29.16
594.341	29.08
594.535	29.06
594.728	28.92
594.922	28.82
595.115	28.64
595.309	28.57
595.502	28.56
595.696	28.51
595.889	28.41
596.083	28.3
596.276	28.15
596.47	28.22
596.663	28.04
596.856	28.05
597.05	28.07
597.243	28.11
597.437	28.26
597.63	28.37
597.823	28.51
598.017	28.79
598.21	29.14
598.403	29.33
598.596	29.43
598.79	29.62
598.983	29.87
599.176	30.07
599.369	30.31
599.563	30.45
599.756	30.6
599.949	30.54
600.142	30.58
600.335	30.62
600.528	30.53
600.722	30.42
600.915	30.49
601.108	30.37
601.301	30.2
601.494	30.05
601.687	29.83
601.88	29.62
602.073	29.65
602.266	29.5
602.459	29.05
602.652	28.79
602.845	28.6
603.038	28.41
603.231	28.33
603.424	28.32
603.617	28.24
603.809	28.17
604.002	28.16
604.195	28.06
604.388	28.12
604.581	28.33
604.774	28.46
604.966	28.58
605.159	28.76
605.352	28.77
605.545	28.86
605.737	29.02
605.93	29.3
606.123	29.56
606.316	29.91
606.508	30.2
606.701	30.38
606.894	30.67
607.086	30.85
607.279	31.1
607.471	31.37
607.664	31.49
607.857	31.88
608.049	32.34
608.242	32.69
608.434	33.15
608.627	33.65
608.819	34.43
609.012	35.42
609.204	36.74
609.397	38.12
609.589	39.79
609.782	41.5
609.974	43.11
610.166	44.64
610.359	46.33
610.551	47.89
610.743	49.27
610.936	50.51
611.128	51.5
611.32	52.2
611.513	52.5
611.705	52.39
611.897	52.32
612.09	51.93
612.282	51.23
612.474	50.76
612.666	50.06
612.858	49.56
613.051	48.92
613.243	48.09
613.435	47.2
613.627	46.45
613.819	45.99
614.011	45.31
614.203	44.63
614.395	44.1
614.588	43.11
614.78	42.34
614.972	41.5
615.164	40.73
615.356	40.08
615.548	39.35
615.74	38.94
615.932	38.22
616.124	37.76
616.315	37.47
616.507	37.19
616.699	36.87
616.891	36.49
617.083	36.37
617.275	35.92
617.467	35.71
617.659	35.68
617.85	35.34
618.042	35.15
618.234	34.91
618.426	34.42
618.618	34.29
618.809	34.1
619.001	34.19
619.193	33.88
619.384	34.09
619.576	34.28
619.768	34.25
619.959	34.29
620.151	34.33
620.343	34.38
620.534	34.55
620.726	34.39
620.917	34.45
621.109	34.46
621.301	34.62
621.492	34.56
621.684	34.46
621.875	34.49
622.067	34.52
622.258	34.66
622.45	34.71
622.641	34.76
622.832	35.07
623.024	35.25
623.215	35.25
623.407	35.11
623.598	35.17
623.789	35.15
623.981	34.97
624.172	35.05
624.363	34.85
624.555	34.7
624.746	34.47
624.937	34.36
625.129	34.09
625.32	33.73
625.511	33.78
625.702	33.5
625.893	33.36
626.085	33.29
626.276	33.11
626.467	33.01
626.658	32.9
626.849	33.01
627.04	32.75
627.231	32.82
627.422	33.08
627.614	32.93
627.805	33.01
627.996	32.97
628.187	33.19
628.378	33.26
628.569	33.64
628.76	33.93
628.951	34
629.142	34.25
629.332	34.48
629.523	34.58
629.714	34.93
629.905	35.31
630.096	35.7
630.287	35.96
630.478	36.06
630.669	35.8
630.859	35.76
631.05	35.74
631.241	35.79
631.432	35.61
631.623	35.56
631.813	35.31
632.004	34.91
632.195	34.4
632.385	34.02
632.576	34.05
632.767	34
632.957	33.92
633.148	33.78
633.339	33.46
633.529	33.28
633.72	33.03
633.91	32.97
634.101	33.06
634.292	33.24
634.482	33.27
634.673	33.11
634.863	33.19
635.054	33.04
635.244	32.97
635.435	33.12
635.625	33.15
635.815	33.04
636.006	33.04
636.196	32.86
636.387	32.88
636.577	32.75
636.767	32.79
636.958	32.6
637.148	32.57
637.338	32.8
637.529	32.96
637.719	32.94
637.909	33.18
638.099	33.1
638.29	33.14
638.48	33.14
638.67	33.28
638.86	33.1
639.05	33.29
639.241	33.44
639.431	33.37
639.621	33.29
639.811	33.27
640.001	33.25
640.191	33.38
640.381	33.56
640.571	33.71
640.761	33.65
640.951	34.02
641.141	33.85
641.331	33.83
641.521	33.88
641.711	33.92
641.901	34.18
642.091	34.3
642.281	34.44
642.471	34.57
642.661	34.55
642.851	34.54
643.041	34.5
643.231	34.62
643.42	34.72
643.61	34.64
643.8	34.51
643.99	34.44
644.18	34.38
644.369	34.4
644.559	34.25
644.749	34.29
644.939	34.3
645.128	34.16
645.318	34.02
645.508	33.84
645.697	33.74
645.887	33.87
646.076	33.7
646.266	33.53
646.456	33.41
646.645	33.36
646.835	33.26
647.024	33.23
647.214	33.18
647.403	33.13
647.593	33.25
647.782	33.4
647.972	33.46
648.161	33.57
648.351	33.84
648.54	33.77
648.73	33.69
648.919	33.64
649.108	33.85
649.298	34.15
649.487	34.46
649.677	34.68
649.866	34.77
650.055	34.68
650.244	34.74
650.434	34.36
650.623	34.4
650.812	34.41
651.002	34.35
651.191	34.1
651.38	34.02
651.569	34.04
651.758	33.93
651.947	33.87
652.137	33.74
652.326	33.82
652.515	33.96
652.704	33.88
652.893	34.08
653.082	34.03
653.271	33.99
653.46	33.94
653.649	33.81
653.838	33.68
654.027	33.61
654.216	33.59
654.405	33.61
654.594	33.65
654.783	33.75
654.972	33.58
655.161	33.75
655.35	33.86
655.539	33.72
655.728	33.54
655.916	33.61
656.105	33.43
656.294	33.63
656.483	33.58
656.672	33.68
656.86	33.52
657.049	33.48
657.238	33.37
657.427	33.34
657.615	33.17
657.804	33
657.993	32.86
658.181	33
658.37	32.77
658.559	32.83
658.747	32.64
658.936	32.7
659.125	32.3
659.313	32.21
659.502	32.36
659.69	32.35
659.879	32.47
660.067	32.51
660.256	32.56
660.444	32.6
660.633	32.37
660.821	32.5
661.01	32.75
661.198	33.34
661.387	33.43
661.575	33.58
661.763	33.93
661.952	34.08
662.14	34.37
662.328	34.22
662.517	34.49
662.705	34.89
662.893	35.1
663.082	35.17
663.27	35.37
663.458	35.52
663.646	35.47
663.834	35.69
664.023	35.82
664.211	35.74
664.399	35.9
664.587	35.73
664.775	35.53
664.963	35.68
665.152	35.75
665.34	35.64
665.528	36.03
665.716	35.83
665.904	35.67
666.092	35.79
666.28	35.66
666.468	35.83
666.656	36
666.844	36.23
667.032	36.21
667.22	35.99
667.408	36.08
667.596	35.77
667.784	35.9
667.971	35.49
668.159	35.31
668.347	35.24
668.535	35.14
668.723	35.16
668.911	34.74
669.098	34.6
669.286	34.95
669.474	34.72
669.662	34.66
669.849	34.75
670.037	35.38
670.225	35.4
670.413	35.47
670.6	35.54
670.788	35.61
670.976	36.07
671.163	36
671.351	35.56
671.538	35.97
671.726	36.11
671.913	35.79
672.101	35.45
672.289	35.58
672.476	35.68
672.664	35.66
672.851	35.73
673.039	35.49
673.226	35.63
673.413	35.45
673.601	35.33
673.788	35.54
673.976	35.92
674.163	35.92
674.35	35.98
674.538	36.14
674.725	36.27
674.912	36.05
675.1	36.07
675.287	36
675.474	36.37
675.662	36.32
675.849	36.14
676.036	36
676.223	36.2
676.411	36.17
676.598	36.17
676.785	35.98
676.972	36.11
677.159	36.25
677.346	36.06
677.533	35.92
677.721	35.99
677.908	35.86
678.095	35.55
678.282	35.33
678.469	35
678.656	34.87
678.843	34.73
679.03	34.6
679.217	34.44
679.404	34.6
679.591	34.47
679.778	34.14
679.964	34.08
680.151	34.13
680.338	34.29
680.525	34.29
680.712	34.09
680.899	34.24
681.086	34.36
681.272	34.29
681.459	34.14
681.646	34.36
681.833	34.51
682.02	34.76
682.206	34.95
682.393	34.69
682.58	34.71
682.766	35.06
682.953	35.18
683.14	35.18
683.326	35.54
683.513	35.97
683.7	35.72
683.886	35.65
684.073	35.75
684.259	35.49
684.446	35.91
684.632	36.41
684.819	36.28
685.005	36.44
685.192	36.46
685.378	36.47
685.565	36.33
685.751	36.68
685.938	36.82
686.124	36.67
686.31	37.12
686.497	36.93
686.683	36.82
686.87	36.61
687.056	36.59
687.242	36.65
687.429	36.41
687.615	36.38
687.801	36.48
687.987	36.36
688.174	36.46
688.36	36.12
688.546	36.22
688.732	36.27
688.918	36.6
689.105	36.62
689.291	36.43
689.477	36.49
689.663	36.51
689.849	36.15
690.035	36.49
690.221	36.5
690.407	36.65
690.593	36.65
690.779	36.34
690.965	36.4
691.151	36.18
691.337	36.42
691.523	36.44
691.709	36.63
691.895	37.04
692.081	37
692.267	37.13
692.453	37.46
692.639	37.64
692.825	37.86
693.011	38.02
693.196	38.14
693.382	38.25
693.568	38.27
693.754	38.38
693.94	38.12
694.125	38.02
694.311	37.62
694.497	37.31
694.682	36.99
694.868	37.02
695.054	36.84
695.239	36.83
695.425	36.91
695.611	37.02
695.796	36.56
695.982	36.34
696.168	36.37
696.353	36.05
696.539	35.71
696.724	35.28
696.91	34.85
697.095	34.57
697.281	34.28
697.466	33.86
697.652	33.61
697.837	33.17
698.023	33.23
698.208	32.77
698.393	32.87
698.579	32.98
698.764	32.95
698.949	33.1
699.135	33.19
699.32	33.42
699.505	33.2
699.691	33.09
699.876	33.36
700.061	33.43
700.246	33.57
700.432	33.66
700.617	33.84
700.802	34.24
700.987	34.36
701.172	34.43
701.358	34.67
701.543	35.3
701.728	35.9
701.913	36.39
702.098	36.71
702.283	37.47
702.468	37.92
702.653	38.19
702.838	38.68
703.023	38.97
703.208	39.41
703.393	39.57
703.578	39.82
703.763	40.14
703.948	40.51
704.133	40.69
704.318	40.54
704.503	40.98
704.688	41.45
704.873	41.63
705.057	42.01
705.242	42.55
705.427	42.95
705.612	43.13
705.797	43.28
705.981	43.29
706.166	44.05
706.351	44.83
706.536	44.53
706.72	44.17
706.905	44.52
707.09	44.53
707.274	44.42
707.459	44.07
707.644	44.35
707.828	44.33
708.013	44.53
708.197	43.94
708.382	43.45
708.567	43.44
708.751	43.59
708.936	42.9
709.12	42.74
709.305	42.41
709.489	42.08
709.673	41.58
709.858	41.46
710.042	41.09
710.227	40.98
710.411	41.01
710.596	41.13
710.78	41.18
710.964	41.27
711.149	41.45
711.333	41.74
711.517	42.02
711.702	42.26
711.886	41.91
712.07	41.78
712.254	41.63
712.438	41.34
712.623	41.34
712.807	41.1
712.991	41.04
713.175	40.65
713.359	40.15
713.544	39.76
713.728	39.66
713.912	39.56
714.096	39.18
714.28	38.72
714.464	38.71
714.648	38.28
714.832	37.83
715.016	37.79
715.2	37.53
715.384	37.14
715.568	37.05
715.752	36.72
715.936	36.41
716.12	36.39
716.304	36.48
716.488	36.3
716.671	36.39
716.855	36.4
717.039	36.18
717.223	36.18
717.407	36.04
717.59	36.11
717.774	35.98
717.958	36.28
718.142	36.53
718.325	36.63
718.509	36.58
718.693	36.4
718.877	36.55
719.06	36.42
719.244	36.8
719.428	37.25
719.611	37.23
719.795	37.49
719.978	37.73
720.162	37.81
720.345	37.81
720.529	38.3
720.713	38.37
720.896	38.32
721.08	38.64
721.263	38.29
721.446	38.39
721.63	38.42
721.813	38.93
721.997	39.03
722.18	39.08
722.364	39.2
722.547	39.08
722.73	38.96
722.914	39.53
723.097	39.65
723.28	39.99
723.464	39.91
723.647	40.23
723.83	39.64
724.013	39.53
724.197	39.67
724.38	39.62
724.563	39.6
724.746	39.77
724.929	39.5
725.112	38.81
725.296	38.43
725.479	38.52
725.662	38.51
725.845	38.39
726.028	38
726.211	38.05
726.394	38.49
726.577	38.42
726.76	38.18
726.943	37.57
727.126	37.63
727.309	37.83
727.492	37.49
727.675	37.33
727.858	37.16
728.041	37.11
728.224	36.67
728.407	36.52
728.589	36.48
728.772	36.73
728.955	37.17
729.138	37.43
729.321	37.08
729.503	37.12
729.686	36.64
729.869	37.23
730.052	37.21
730.234	37.61
730.417	37.8
730.6	37.48
730.782	37.6
730.965	37.55
731.148	37.47
731.33	37.82
731.513	37.74
731.695	38.05
731.878	37.52
732.061	37.43
732.243	37.41
732.426	37.05
732.608	37.48
732.791	37.24
732.973	37.31
733.156	37.67
733.338	37.47
733.52	37.86
733.703	38.17
733.885	38.4
734.068	38.73
734.25	39.04
734.432	39.09
734.615	39.18
734.797	39.3
734.979	39.61
735.162	39.54
735.344	39.67
735.526	39.86
735.708	40.05
735.891	40.06
736.073	40.6
736.255	40.79
736.437	40.71
736.619	40.65
736.802	41.07
736.984	41.16
737.166	42.17
737.348	42.63
737.53	42.72
737.712	42.27
737.894	42.48
738.076	42.55
738.258	41.7
738.44	41.95
738.622	42.08
738.804	41.99
738.986	41.95
739.168	41.25
739.35	40.81
739.532	41.08
739.714	41.36
739.896	41.15
740.078	41.3
740.259	41.77
740.441	41.8
740.623	41.81
740.805	41.97
740.987	41.59
741.168	41.8
741.35	42.53
741.532	42.15
741.714	42.52
741.895	43.14
742.077	43.07
742.259	43.34
742.44	43.85
742.622	43.95
742.804	44
742.985	44.74
743.167	44.37
743.348	44.07
743.53	44.53
743.711	44.35
743.893	44.9
744.075	45.19
744.256	45.51
744.438	45.4
744.619	45.34
744.8	45.42
744.982	45.74
745.163	45.76
745.345	46.08
745.526	46.01
745.707	46.19
745.889	45.91
746.07	45.76
746.252	45.44
746.433	45.94
746.614	45.77
746.795	45.7
746.977	44.73
747.158	45.8
747.339	45.48
747.52	45.22
747.702	45.06
747.883	45.1
748.064	44.62
748.245	45.05
748.426	44.4
748.607	45.35
748.788	45.66
748.97	46.55
749.151	46.49
749.332	46.2
749.513	46.19
749.694	46.41
749.875	46.63
750.056	46.78
750.237	47
750.418	47.29
750.599	46.56
750.78	46.01
750.96	45.93
751.141	45.56
751.322	46.47
751.503	46.25
751.684	46.14
751.865	45.41
752.046	45.29
752.226	44.52
752.407	44.27
752.588	44.09
752.769	44.3
752.949	44.08
753.13	43.94
753.311	42.7
753.492	43.29
753.672	43.94
753.853	44.4
754.034	44.99
754.214	45.11
754.395	45.06
754.575	45.73
754.756	45.85
754.937	45.65
755.117	45.89
755.298	47.12
755.478	47.37
755.659	46.45
755.839	46.32
756.02	45.51
756.2	44.78
756.381	44.9
756.561	44.68
756.741	44.88
756.922	44.97
757.102	44.76
757.283	44.31
757.463	44.23
757.643	44.82
757.823	44.06
758.004	44.1
758.184	44.77
758.364	45.27
758.545	44.44
758.725	43.74
758.905	42.9
759.085	42.81
759.265	42.28
759.446	41.93
759.626	41.18
759.806	40.95
759.986	41.41
760.166	40.76
760.346	39.9
760.526	39.77
760.706	39.69
760.886	40.24
761.066	39.72
761.246	40.13
761.426	39.94
761.606	39.25
761.786	39.21
761.966	38.04
762.146	37.03
762.326	37.27
762.506	37.11
762.686	36.8
762.866	36.23
763.046	36.17
763.225	35.41
763.405	34.71
763.585	34.79
763.765	34.89
763.945	34.69
764.124	35.01
764.304	34.88
764.484	35.07
764.664	35.18
764.843	35.56
765.023	35.67
765.203	36.27
765.382	36.79
765.562	37.54
765.741	38.04
765.921	38.82
766.101	40.02
766.28	40.38
766.46	40.92
766.639	41.44
766.819	41.77
766.998	41.96
767.178	42.57
767.357	43.12
767.537	42.81
767.716	43.38
767.896	44.36
768.075	44
768.254	44.13
768.434	44.94
768.613	45.54
768.792	46.14
768.972	46.88
769.151	47.04
769.33	47.23
769.51	48.01
769.689	48.21
769.868	48.17
770.047	48.73
770.226	49
770.406	48.43
770.585	48.95
770.764	49.3
770.943	49.54
771.122	49.58
771.301	49.68
771.48	49.95
771.66	49.82
771.839	49.53
772.018	50.17
772.197	49.9
772.376	50.17
772.555	50.22
772.734	48.97
772.913	48.51
773.092	47.98
773.271	48.64
773.449	48.81
773.628	48.91
773.807	49.2
773.986	48.31
774.165	48.86
774.344	49.01
774.523	48.72
774.701	49.97
774.88	51.36
775.059	52.53
775.238	52.35
775.417	51.72
775.595	51.86
775.774	51.4
775.953	52.22
776.131	51.79
776.31	50.87
776.489	51.26
776.667	51.45
776.846	50.55
777.025	50.01
777.203	50.04
777.382	49.59
777.56	48.9
777.739	49.15
777.917	48.49
778.096	48.95
778.274	49.96
778.453	49.71
778.631	49.75
778.81	49.35
778.988	48.75
779.166	48.45
779.345	49.09
779.523	48.91
779.702	49.31
779.88	49.86
780.058	49.86
780.237	50.13
780.415	50.39
780.593	49.4
780.771	49.36
780.95	50.04
781.128	51.31
781.306	51.79
781.484	52.64
781.662	51.88
781.841	51.16
782.019	50.23
782.197	49.64
782.375	49.07
782.553	49.51
782.731	50.96
782.909	51.68
783.087	50.62
783.265	50.21
783.443	49.87
783.621	51.02
783.799	52.24
783.977	53.71
784.155	54.63
784.333	54.96
784.511	54.77
784.689	53.43
784.867	53.12
785.045	52.39
785.223	52.64
785.4	53.08
785.578	52.66
785.756	52.66
785.934	52.29
786.112	51.44
786.289	51.25
786.467	51.2
786.645	51.26
786.823	49.74
787	49.44
787.178	49.11
787.356	48.47
787.533	48.37
787.711	47.6
787.889	47.14
788.066	46.38
788.244	46.06
788.421	45.61
788.599	45.67
788.776	46.39
788.954	47.41
789.131	46.85
789.309	46.89
789.486	47.16
789.664	47.91
789.841	47.62
790.019	48.63
790.196	49.01
790.373	48.66
790.551	49.72
790.728	49.49
790.906	49.54
791.083	50.79
791.26	51.17
791.437	50.39
791.615	49.48
791.792	50.8
791.969	51.1
792.146	50.87
792.324	52.13
792.501	50.67
792.678	51.67
792.855	50.93
793.032	51.03
793.209	51.26
793.387	51.8
793.564	52.41
793.741	51.48
793.918	50.8
794.095	50.79
794.272	51.09
794.449	51.08
794.626	50.89
794.803	51.25
794.98	51.77
795.157	51.62
795.334	51.81
795.511	51.52
795.688	51.11
795.864	50.84
796.041	50.65
796.218	50.73
796.395	50.94
796.572	50.32
796.749	49.82
796.925	48.44
797.102	47.88
797.279	48.13
797.456	47.45
797.632	48.24
797.809	49.3
797.986	48.7
798.162	49.31
798.339	49.09
798.516	49.78
798.692	50.83
798.869	52.13
799.046	51.9
799.222	50.55
799.399	50.46
799.575	51.44
799.752	51.02
799.928	52.49
800.105	51.8
800.281	52.85
800.458	52.66
800.634	52.56
800.811	51.03
800.987	51.46
801.163	51.02
801.34	52.16
801.516	51.34
801.692	51.51
801.869	50.87
802.045	51.07
802.221	50.04
802.398	49.82
802.574	48.18
802.75	49.04
802.926	48.55
803.103	50.63
803.279	50.46
803.455	51.14
803.631	50.39
803.807	50.35
803.983	49.87
804.16	50.86
804.336	50.62
804.512	52.18
804.688	52.75
804.864	53.46
805.04	54.17
805.216	54.71
805.392	54.3
805.568	55.79
805.744	57.24
805.92	57.39
806.096	57.96
806.272	58.58
806.448	59.38
806.623	59.18
806.799	59.08
806.975	58.51
807.151	57.24
807.327	57.87
807.503	57.88
807.678	57.36
807.854	56.7
808.03	56
808.206	57.45
808.381	57.74
808.557	57.83
808.733	58.5
808.908	58.53
809.084	58.6
809.26	57.56
809.435	57.55
809.611	57.94
809.787	58.4
809.962	59.29
810.138	57.72
810.313	57.64
810.489	57.23
810.664	56.55
810.84	55.6
811.015	56.33
811.191	56.35
811.366	56.64
811.542	56.7
811.717	57.36
811.892	56.47
812.068	57.24
812.243	56.37
812.419	57.83
812.594	58.12
812.769	59.55
812.944	59.22
813.12	59.38
813.295	58.51
813.47	58.88
813.645	57.78
813.821	58
813.996	57.01
814.171	57.24
814.346	56.45
814.521	56.56
814.697	57.06
814.872	58.19
815.047	58.72
815.222	58.62
815.397	56.45
815.572	56.96
815.747	54.34
815.922	53.33
816.097	54.33
816.272	52.97
816.447	53.1
816.622	52.69
816.797	51.43
816.972	50.93
817.147	51.65
817.322	50.8
817.496	49.94
817.671	51.65
817.846	52.56
818.021	49.46
818.196	49.62
818.371	48.48
818.545	47.15
818.72	47.71
818.895	48.33
819.069	45.8
819.244	45.8
819.419	44.66
819.594	43.92
819.768	42.5
819.943	42.33
820.117	40.34
820.292	39.18
820.467	37.79
820.641	36.25
820.816	34.26
820.99	33.34
821.165	32.17
821.339	31.78
821.514	30.89
821.688	30.46
821.863	29.54
822.037	29.4
822.212	28.98
822.386	28.47
822.56	27.94
822.735	27.73
822.909	27.83
823.084	27.84
823.258	27.6
823.432	27.68
823.606	27.78
823.781	28.26
823.955	28.21
824.129	28.51
824.303	29.06
824.478	29.65
824.652	30.1
824.826	30.29
825	31.06
825.174	31.72
825.348	32.36
825.523	32.28
825.697	32.4
825.871	32.9
826.045	32.96
826.219	33.16
826.393	33.15
826.567	33.06
826.741	33.4
826.915	33.25
827.089	32.9
827.263	32.11
827.437	32.59
827.611	32.76
827.784	32.91
827.958	33.45
828.132	33.6
828.306	33.92
828.48	34.24
828.654	34.87
828.827	35.33
829.001	36.35
829.175	38.56
829.349	40.06
829.522	41.48
829.696	42.02
829.87	41.92
830.044	42.8
830.217	44.41
830.391	45.65
830.565	44.97
830.738	46.13
830.912	48.01
831.085	47.21
831.259	47.07
831.432	46.09
831.606	46.88
831.779	46.37
831.953	47.46
832.126	45.77
832.3	44.7
832.473	44.22
832.647	42.21
832.82	40.65
832.994	40.02
833.167	39.38
833.34	39.3
833.514	38.56
833.687	39.2
833.86	37.39
834.034	37.32
834.207	37.43
834.38	37.67
834.553	38.14
834.727	38.45
834.9	38.24
835.073	37.91
835.246	38.05
835.419	39.08
835.593	40.01
835.766	41.26
835.939	42.76
836.112	43.41
836.285	44.78
836.458	46.74
836.631	47.27
836.804	49.49
836.977	51.86
837.15	53.61
837.323	55.05
837.496	55.06
837.669	55.84
837.842	57.01
838.015	59.38
838.188	59.8
838.361	60.67
838.533	61.49
838.706	61.98
838.879	61.15
839.052	60.69
839.225	60.64
839.398	61.02
839.57	62.61
839.743	62.15
839.916	62
840.088	62.49
840.261	60.59
840.434	61.74
840.607	61.83
840.779	61.52
840.952	62.57
841.124	62.55
841.297	63.81
841.47	62.98
841.642	62.35
841.815	64.57
841.987	65.61
842.16	68.67
842.332	70.15
842.505	69.67
842.677	72.81
842.85	73.63
843.022	75.71
843.194	78.57
843.367	83.99
843.539	86.26
843.712	84.14
843.884	84.81
844.056	83.8
844.229	82.7
844.401	88.57
844.573	90.75
844.745	92.49
844.918	94.21
845.09	91.75
845.262	93.33
845.434	97.57
845.606	98.13
845.779	98.48
845.951	100.54
846.123	102.95
846.295	104.57
846.467	98.92
846.639	100.84
846.811	98.49
846.983	102.04
847.155	98.08
847.327	97.32
847.499	97.57
847.671	100.99
847.843	101.56
848.015	102.21
848.187	98.81
848.359	100.61
848.531	97.81
848.703	97.81
848.875	99.67
849.047	99.49
849.218	96.54
849.39	98.57
849.562	97.68
849.734	98.24
849.905	96.29
850.077	97.35
850.249	100.21
850.421	101.43
850.592	103.26
850.764	102.62
850.936	100.31
851.107	101.35
851.279	98.57
851.451	98.95
851.622	96.82
851.794	103.69
851.965	103.37
852.137	103.91
852.308	101.7
852.48	104.76
852.651	99.78
852.823	104.74
852.994	107.93
853.166	109.37
853.337	108.34
853.509	108.46
853.68	102.67
853.851	100.94
854.023	102.46
854.194	105.97
854.365	101.81
854.537	108.18
854.708	104.62
854.879	102.61
855.05	105.47
855.222	106.67
855.393	107.32
855.564	107.28
855.735	111.87
855.906	109.89
856.078	111.57
856.249	112.13
856.42	107.39
856.591	111.09
856.762	114.27
856.933	110.48
857.104	109.78
857.275	111.07
857.446	107.75
857.617	106.79
857.788	109.59
857.959	102.55
858.13	106.89
858.301	107.79
858.472	103.33
858.643	97.06
858.814	99.97
858.985	103.37
859.155	106.68
859.326	112
859.497	107.61
859.668	103.01
859.839	114.32
860.009	112.57
860.18	114.1
860.351	112.36
860.522	119.25
860.692	114.9
860.863	108.94
861.034	108.56
861.204	108.58
861.375	111.49
861.546	117.22
861.716	115.74
861.887	112.47
862.057	110.23
862.228	112.81
862.398	109.35
862.569	109.22
862.739	115.23
862.91	115.12
863.08	108.46
863.251	106.5
863.421	101.36
863.592	97.7
863.762	100.36
863.932	98.74
864.103	102.35
864.273	101.27
864.443	102.28
864.614	100.38
864.784	97.71
864.954	102.27
865.125	99.77
865.295	99.72
865.465	102.34
865.635	102.82
865.805	104.69
865.976	100.34
866.146	98.96
866.316	100.26
866.486	101.26
866.656	103.75
866.826	106.75
866.996	118.36
867.166	122.54
867.336	120.28
867.506	122.05
867.676	122.12
867.846	130.85
868.016	134.98
868.186	126.52
868.356	123.07
868.526	121.51
868.696	118
868.866	111.22
869.036	114.25
869.206	117.18
869.376	108.24
869.545	107.84
869.715	103.38
869.885	106.1
870.055	114.45
870.224	114.43
870.394	117.37
870.564	115.69
870.734	115.2
870.903	112.05
871.073	114.56
871.243	119.17
871.412	120.98
871.582	121.78
871.751	119.37
871.921	115.25
872.091	115.21
872.26	108.37
872.43	108.77
872.599	105.99
872.769	107.9
872.938	105.93
873.108	102.45
873.277	100.43
873.446	97.91
873.616	99.52
873.785	100.45
873.955	98.16
874.124	102.5
874.293	104.31
874.463	105.91
874.632	102.48
874.801	103.49
874.971	107.47
875.14	108.3
875.309	105.9
875.478	107.21
875.647	102.01
875.817	109.15
875.986	101.95
876.155	102.16
876.324	97.66
876.493	98.23
876.662	93.83
876.831	94.54
877	91.48
877.17	91.9
877.339	91.64
877.508	97.49
877.677	93.39
877.846	97.34
878.015	95.72
878.184	96.81
878.352	97.14
878.521	99.26
878.69	98.11
878.859	98.95
879.028	96.54
879.197	89.73
879.366	82.79
879.534	80.23
879.703	76.75
879.872	69.39
880.041	66.29
880.21	59.66
880.378	53.85
880.547	49.57
880.716	46.51
880.884	43.87
881.053	42.1
881.222	40.79
881.39	37.93
881.559	36.46
881.727	34.86
881.896	34.53
882.065	34.11
882.233	33.64
882.402	32.68
882.57	33.12
882.739	33.59
882.907	32.78
883.076	33.09
883.244	33.68
883.412	33.48
883.581	34.64
883.749	34.52
883.918	34.85
884.086	36.33
884.254	37.96
884.423	37.41
884.591	38.26
884.759	40.23
884.927	42
885.096	43
885.264	45.42
885.432	48.03
885.6	50.25
885.769	52.87
885.937	53.79
886.105	58.25
886.273	62.02
886.441	64.63
886.609	68.8
886.777	69.77
886.945	75.69
887.113	79.96
887.281	80.26
887.449	84.35
887.617	88.76
887.785	90.92
887.953	90.52
888.121	94.94
888.289	96.06
888.457	96.72
888.625	100.5
888.793	100.52
888.961	102.11
889.129	106.81
889.296	105.47
889.464	104
889.632	106.19
889.8	105.35
889.967	104.65
890.135	110.92
