Data from 2938794__Reflection_01.txt Node
Date: Fri Mar 13 10:50:40 EDT 2015
User: robert
Spectrometer: USB4E03002
Autoset integration time: false
Trigger mode: 4
Integration Time (sec): 1.000000E-1
Scans to average: 10
Electric dark correction enabled: false
Nonlinearity correction enabled: false
Boxcar width: 5
Stray light correction enabled: false
XAxis mode: Wavelengths
Stop averaging: false
Number of Pixels in Spectrum: 3648
>>>>>Begin Spectral Data<<<<<
177.575	205
177.794	1521.43
178.014	85.22
178.233	41.76
178.452	25.97
178.672	59.07
178.891	22.7
179.11	12.34
179.33	-5.38
179.549	-37.34
179.768	-47.24
179.987	-116.18
180.207	-93.79
180.426	-115.44
180.645	-258.97
180.864	-821.95
181.084	388.06
181.303	459.55
181.522	240.11
181.741	397.3
181.96	203.98
182.179	97.81
182.398	62.98
182.618	57.12
182.837	67.35
183.056	64.45
183.275	83.27
183.494	89.78
183.713	87.76
183.932	109.56
184.151	112.78
184.37	94.8
184.589	140.8
184.808	183.94
185.027	141.07
185.246	121.04
185.465	317.95
185.684	116.1
185.903	112.81
186.122	53.63
186.341	-129.41
186.56	-104.31
186.779	-4.82
186.998	-8.05
187.216	345.31
187.435	88.8
187.654	46.22
187.873	142.61
188.092	307.25
188.311	-376.92
188.53	-140.74
188.748	868.75
188.967	-86.15
189.186	-89.53
189.405	0.3
189.623	-108.82
189.842	508.51
190.061	206.92
190.28	392.39
190.498	-265.88
190.717	-180.73
190.936	-74.07
191.154	-14.73
191.373	-169.8
191.592	-191.28
191.81	-119.05
192.029	-106.8
192.248	-108.03
192.466	-567.61
192.685	-1985.71
192.904	-34.88
193.122	-194.55
193.341	130.4
193.559	67.11
193.778	53.09
193.996	41.47
194.215	80.21
194.433	92.98
194.652	97.88
194.87	115.83
195.089	146.76
195.307	90.78
195.526	97.54
195.744	93.24
195.963	86.54
196.181	82.89
196.399	82.44
196.618	51.14
196.836	28.25
197.055	8.4
197.273	19.8
197.491	-13.67
197.71	-28.71
197.928	-54.71
198.146	-51.77
198.365	-659.38
198.583	488.68
198.801	196.21
199.019	11.72
199.238	52
199.456	0
199.674	15.17
199.892	5.07
200.111	-21.03
200.329	-58.23
200.547	-49.12
200.765	-39.6
200.983	-15.3
201.202	-11.14
201.42	-56.89
201.638	-27.13
201.856	-44.39
202.074	-17.83
202.292	4.84
202.51	243.75
202.728	-55.17
202.946	10.39
203.165	-143.75
203.383	134.62
203.601	102.96
203.819	210.91
204.037	58.99
204.255	38.8
204.473	-5.53
204.691	16.5
204.909	17.84
205.127	11.09
205.345	11.95
205.562	-31.94
205.78	-30.77
205.998	-96.17
206.216	-58.66
206.434	-80.61
206.652	-29.13
206.87	-42.41
207.088	-82.31
207.306	-81.58
207.523	-25.73
207.741	-19.03
207.959	0.89
208.177	-17.14
208.395	-15.2
208.612	-28.46
208.83	-29.73
209.048	-28.08
209.266	-99.19
209.483	-39.3
209.701	-89.02
209.919	-195.15
210.136	-130.04
210.354	-104.12
210.572	-25.93
210.79	17.05
211.007	23.81
211.225	50.48
211.442	62.28
211.66	60.5
211.878	90.69
212.095	-226.23
212.313	-775.53
212.53	-470.67
212.748	-306.83
212.966	-449.57
213.183	-237.95
213.401	-344.64
213.618	770.91
213.836	-1629.41
214.053	-1470.97
214.271	1553.85
214.488	42.38
214.705	36.36
214.923	35.72
215.14	39.75
215.358	37.75
215.575	47.02
215.793	52.82
216.01	41.51
216.227	30.53
216.445	29.44
216.662	-10.25
216.879	-16.25
217.097	-4.83
217.314	-49.11
217.531	-32.53
217.749	-22.53
217.966	-8.52
218.183	-9.66
218.4	-8.05
218.618	-11.34
218.835	-26.67
219.052	-4.51
219.269	-1.87
219.487	9.22
219.704	26.32
219.921	27.05
220.138	33.88
220.355	19.71
220.572	19.78
220.79	21.3
221.007	26.68
221.224	32.87
221.441	27.42
221.658	29.85
221.875	24.4
222.092	13.24
222.309	11.55
222.526	9
222.743	17.35
222.96	20.78
223.177	23.22
223.394	20.69
223.611	16.02
223.828	20.44
224.045	18.77
224.262	13.71
224.479	16.29
224.696	20.75
224.913	18.06
225.13	16.66
225.347	16.38
225.564	18.55
225.781	20.01
225.997	17.79
226.214	11.78
226.431	8.8
226.648	11
226.865	10.65
227.082	10.66
227.298	10.32
227.515	8.78
227.732	7.38
227.949	6.43
228.165	5.92
228.382	7.12
228.599	8.01
228.816	8.6
229.032	7.66
229.249	7.3
229.466	6.8
229.682	7.23
229.899	8.03
230.116	7.79
230.332	7.44
230.549	7.5
230.765	7.09
230.982	6.46
231.199	6.38
231.415	7.63
231.632	8.03
231.848	7.65
232.065	8.69
232.281	6.62
232.498	6.83
232.714	5.89
232.931	7.12
233.147	7.05
233.364	7.64
233.58	7.25
233.797	4.95
234.013	5.46
234.23	5.59
234.446	3.26
234.662	3.75
234.879	3.86
235.095	3.46
235.312	2.39
235.528	2.94
235.744	1.74
235.961	1.39
236.177	1.91
236.393	0.51
236.61	0.84
236.826	0.37
237.042	-0.84
237.258	-0.97
237.475	1.09
237.691	-1.32
237.907	-1.54
238.123	-0.48
238.339	0.23
238.556	-0.11
238.772	0.35
238.988	0.38
239.204	1.42
239.42	3.35
239.636	4.18
239.853	3.33
240.069	4.96
240.285	4.81
240.501	4.33
240.717	5.26
240.933	6.18
241.149	6.26
241.365	5.92
241.581	6.6
241.797	6.28
242.013	6.24
242.229	7.04
242.445	7.52
242.661	7.76
242.877	7.67
243.093	7.39
243.309	7.28
243.525	7.39
243.741	7.09
243.957	6.26
244.173	6.65
244.388	6.28
244.604	5.51
244.82	5.11
245.036	5.25
245.252	5.23
245.468	5.15
245.683	5.68
245.899	5.24
246.115	5.73
246.331	5.69
246.547	5.8
246.762	5.54
246.978	5.47
247.194	5.53
247.409	5.33
247.625	5.39
247.841	5.23
248.057	4.81
248.272	4.95
248.488	4.56
248.703	4.28
248.919	3.94
249.135	4
249.35	4.16
249.566	3.59
249.782	3.25
249.997	3.24
250.213	2.76
250.428	2.82
250.644	3.6
250.859	3.94
251.075	4.44
251.29	4.57
251.506	4.57
251.721	4.27
251.937	4.93
252.152	5.3
252.368	5.56
252.583	6.31
252.798	6.33
253.014	6.42
253.229	6.48
253.445	6.37
253.66	5.86
253.875	6.69
254.091	6.77
254.306	5.75
254.521	6.23
254.737	6.56
254.952	5.51
255.167	5.41
255.383	5.19
255.598	4.64
255.813	4.25
256.028	4.25
256.244	4.04
256.459	4.02
256.674	3.67
256.889	2.25
257.104	1.9
257.32	2.36
257.535	2.46
257.75	1.74
257.965	2.08
258.18	3.37
258.395	3.68
258.61	3.36
258.826	3.44
259.041	3.9
259.256	4.06
259.471	3.81
259.686	3.89
259.901	3.81
260.116	4.08
260.331	4.21
260.546	3.93
260.761	4.04
260.976	4.1
261.191	3.8
261.406	3.86
261.621	3.97
261.836	3.82
262.05	3.74
262.265	3.95
262.48	3.59
262.695	3.79
262.91	3.55
263.125	3.21
263.34	3.14
263.555	3.92
263.769	3.93
263.984	3.79
264.199	4.17
264.414	3.78
264.629	3.65
264.843	3.81
265.058	3.26
265.273	3.31
265.488	3.36
265.702	3.32
265.917	3.49
266.132	3.36
266.346	3.3
266.561	3.62
266.776	3.69
266.99	3.61
267.205	3.71
267.42	3.41
267.634	3.19
267.849	3.25
268.063	3.23
268.278	2.89
268.492	2.76
268.707	2.72
268.922	2.35
269.136	3.09
269.351	2.8
269.565	2.57
269.78	2.69
269.994	2.47
270.209	2.21
270.423	1.92
270.637	1.83
270.852	2.17
271.066	2.43
271.281	2.66
271.495	2
271.709	2.21
271.924	2.33
272.138	2.35
272.353	2.86
272.567	3.02
272.781	3.66
272.996	3.72
273.21	3.55
273.424	3.33
273.638	2.82
273.853	3.06
274.067	2.94
274.281	3.09
274.495	3.54
274.71	3.73
274.924	3.96
275.138	3.76
275.352	3.23
275.566	3.36
275.781	3.36
275.995	4.1
276.209	4.09
276.423	4
276.637	3.89
276.851	3.92
277.065	3.47
277.279	3.11
277.493	2.34
277.707	3.15
277.921	2.73
278.135	2.58
278.349	2.19
278.563	2.29
278.777	2.62
278.991	2.24
279.205	2.37
279.419	2.52
279.633	2.33
279.847	2.91
280.061	2.95
280.275	2.76
280.489	3.1
280.703	3.54
280.917	3.19
281.131	3.18
281.344	3.38
281.558	3.09
281.772	3.2
281.986	3.77
282.2	3.98
282.414	4.2
282.627	4.35
282.841	4.37
283.055	4.36
283.269	4.79
283.482	4.59
283.696	4.74
283.91	4.73
284.123	4.09
284.337	3.71
284.551	3.52
284.764	3.27
284.978	3.26
285.192	3.21
285.405	3.32
285.619	3.05
285.833	3.09
286.046	2.98
286.26	3
286.473	3.5
286.687	3.55
286.9	3.82
287.114	3.78
287.327	3.95
287.541	3.99
287.754	3.61
287.968	3.78
288.181	3.89
288.395	4.21
288.608	4.21
288.822	4.14
289.035	4.14
289.248	3.81
289.462	3.59
289.675	3.59
289.889	3.7
290.102	3.51
290.315	3.35
290.529	3.46
290.742	3.17
290.955	3.42
291.169	3.71
291.382	3.86
291.595	4.03
291.808	4.25
292.022	4.29
292.235	4.4
292.448	5.07
292.661	5.54
292.875	5.48
293.088	5.73
293.301	5.54
293.514	5.07
293.727	4.9
293.94	4.82
294.153	4.66
294.367	4.68
294.58	4.45
294.793	4.42
295.006	4.04
295.219	3.71
295.432	3.76
295.645	3.62
295.858	3.8
296.071	3.8
296.284	3.78
296.497	3.78
296.71	3.77
296.923	3.77
297.136	3.85
297.349	3.85
297.562	4.09
297.775	3.71
297.988	3.97
298.201	4.22
298.414	4.28
298.626	4.14
298.839	4.16
299.052	4.04
299.265	4.38
299.478	4.02
299.691	4.5
299.903	4.83
300.116	5.6
300.329	5.42
300.542	4.95
300.755	5.1
300.967	5.45
301.18	5.59
301.393	5.84
301.605	5.48
301.818	5.5
302.031	5.34
302.243	5.09
302.456	4.79
302.669	5.15
302.881	5.26
303.094	5.48
303.307	5.55
303.519	5.66
303.732	5.84
303.944	5.82
304.157	6.09
304.37	5.8
304.582	6.04
304.795	5.81
305.007	5.43
305.22	5.71
305.432	5.16
305.645	4.84
305.857	4.79
306.069	4.67
306.282	4.71
306.494	4.55
306.707	4.71
306.919	4.81
307.132	4.93
307.344	4.92
307.556	4.78
307.769	4.87
307.981	4.99
308.193	5.09
308.406	5.13
308.618	5.19
308.83	5.4
309.043	5.38
309.255	5.04
309.467	5.24
309.679	5.13
309.892	5.08
310.104	5.5
310.316	5.67
310.528	5.56
310.74	5.45
310.953	5.46
311.165	5.4
311.377	5.69
311.589	5.81
311.801	5.76
312.013	5.8
312.225	5.75
312.437	5.45
312.649	5.59
312.862	5.76
313.074	5.98
313.286	6.03
313.498	6.24
313.71	6.04
313.922	6.26
314.134	6.37
314.346	6.6
314.558	6.91
314.77	7.31
314.982	7.39
315.193	7.67
315.405	7.78
315.617	7.93
315.829	7.71
316.041	8.17
316.253	7.65
316.465	7.54
316.677	7.6
316.888	7.26
317.1	7.16
317.312	6.79
317.524	6.76
317.736	6.57
317.947	6.89
318.159	6.89
318.371	6.06
318.583	6.3
318.794	6.56
319.006	6.58
319.218	6.7
319.43	6.6
319.641	6.66
319.853	6.31
320.064	6.01
320.276	5.38
320.488	5.68
320.699	5.42
320.911	5.85
321.123	5.95
321.334	5.43
321.546	5.48
321.757	5.57
321.969	5.61
322.18	6.17
322.392	6.49
322.603	6.93
322.815	6.26
323.026	6.89
323.238	6.59
323.449	5.84
323.661	6.76
323.872	6.78
324.083	6.53
324.295	6.37
324.506	6
324.718	5.88
324.929	6.03
325.14	6.44
325.352	6.29
325.563	6.63
325.774	7.14
325.986	6.68
326.197	6.98
326.408	7.3
326.62	7.8
326.831	7.77
327.042	8.09
327.253	8.23
327.464	8.45
327.676	8.66
327.887	8.64
328.098	8.79
328.309	8.88
328.52	8.58
328.732	8.24
328.943	8.17
329.154	8.55
329.365	8.39
329.576	8.02
329.787	8.04
329.998	8.5
330.209	8.18
330.42	8.1
330.631	8.35
330.842	8.12
331.053	8.75
331.264	8.6
331.475	8.61
331.686	9.06
331.897	9.02
332.108	9
332.319	8.99
332.53	9.16
332.741	9.2
332.952	9.26
333.163	9.59
333.374	9.68
333.585	9.88
333.795	10.12
334.006	9.89
334.217	9.84
334.428	9.59
334.639	9.51
334.849	9.61
335.06	9.47
335.271	9.49
335.482	9.91
335.692	9.67
335.903	9.73
336.114	9.24
336.325	9.22
336.535	9.35
336.746	9.17
336.957	8.98
337.167	9.31
337.378	9.6
337.589	9.68
337.799	9.34
338.01	9.42
338.22	9.15
338.431	9.36
338.642	9.19
338.852	9.39
339.063	9.97
339.273	10.13
339.484	9.65
339.694	9.38
339.905	9.21
340.115	9.49
340.326	9.36
340.536	9.63
340.746	9.7
340.957	9.83
341.167	10
341.378	9.81
341.588	9.82
341.799	9.91
342.009	9.88
342.219	9.94
342.43	9.74
342.64	9.76
342.85	9.84
343.061	9.5
343.271	9.81
343.481	9.61
343.691	9.74
343.902	9.58
344.112	9.71
344.322	9.85
344.532	9.91
344.743	9.89
344.953	9.79
345.163	9.55
345.373	9.55
345.583	9.32
345.793	9.37
346.004	9.18
346.214	9.19
346.424	9.32
346.634	9.45
346.844	9.45
347.054	9.79
347.264	9.69
347.474	9.6
347.684	9.55
347.894	9.69
348.104	9.43
348.314	9.34
348.524	9.41
348.734	9.17
348.944	9.12
349.154	9.03
349.364	8.72
349.574	8.88
349.784	9.24
349.994	9.44
350.204	9.3
350.413	9.33
350.623	9.4
350.833	9.3
351.043	9.29
351.253	9.42
351.463	9.19
351.672	9.18
351.882	8.99
352.092	8.67
352.302	8.57
352.511	8.39
352.721	8.53
352.931	8.53
353.141	8.44
353.35	8.32
353.56	8
353.77	8.33
353.979	8.21
354.189	8.52
354.399	8.51
354.608	8.62
354.818	8.44
355.027	8.45
355.237	8.36
355.447	8.72
355.656	8.7
355.866	8.81
356.075	8.73
356.285	8.94
356.494	8.89
356.704	8.94
356.913	8.82
357.123	9.05
357.332	9
357.542	9
357.751	8.82
357.96	9.06
358.17	8.92
358.379	8.89
358.589	8.9
358.798	8.86
359.007	9
359.217	9.2
359.426	9.11
359.635	9.18
359.845	9.11
360.054	8.87
360.263	8.62
360.472	8.79
360.682	8.68
360.891	8.56
361.1	8.46
361.309	8.38
361.519	8.37
361.728	8.44
361.937	8.38
362.146	8.66
362.355	8.61
362.564	8.59
362.774	8.47
362.983	8.35
363.192	8.46
363.401	8.53
363.61	8.52
363.819	8.5
364.028	8.57
364.237	8.6
364.446	8.35
364.655	8.55
364.864	8.32
365.073	8.29
365.282	8.44
365.491	8.21
365.7	8.2
365.909	8.12
366.118	8.11
366.327	8.05
366.536	7.86
366.745	7.86
366.954	7.88
367.162	8.39
367.371	8.48
367.58	8.53
367.789	8.7
367.998	8.71
368.207	8.53
368.415	8.59
368.624	8.71
368.833	8.96
369.042	9.03
369.25	9.06
369.459	8.89
369.668	9
369.877	8.97
370.085	8.74
370.294	8.71
370.503	8.95
370.711	8.82
370.92	8.47
371.129	8.36
371.337	8.1
371.546	7.92
371.754	8.02
371.963	7.6
372.171	7.51
372.38	7.84
372.589	7.71
372.797	7.64
373.006	7.63
373.214	7.73
373.423	7.58
373.631	7.69
373.84	7.88
374.048	7.55
374.256	7.88
374.465	8.04
374.673	7.75
374.882	7.88
375.09	8.03
375.298	7.93
375.507	7.88
375.715	7.98
375.923	7.99
376.132	7.8
376.34	8.07
376.548	7.85
376.757	7.64
376.965	7.75
377.173	7.71
377.381	7.45
377.59	7.63
377.798	7.51
378.006	7.49
378.214	7.4
378.423	7.52
378.631	7.29
378.839	7.25
379.047	7.1
379.255	6.86
379.463	6.86
379.671	6.88
379.879	6.62
380.088	6.62
380.296	6.34
380.504	6.31
380.712	5.99
380.92	6.06
381.128	6.06
381.336	6.11
381.544	6.05
381.752	6
381.96	5.82
382.168	5.8
382.376	5.87
382.584	6.09
382.791	6.12
382.999	6.04
383.207	5.84
383.415	6.05
383.623	6.13
383.831	5.99
384.039	5.85
384.247	6
384.454	5.93
384.662	5.9
384.87	5.82
385.078	5.78
385.285	5.86
385.493	5.99
385.701	5.81
385.909	5.7
386.116	5.83
386.324	5.77
386.532	5.66
386.739	5.7
386.947	5.71
387.155	5.69
387.362	5.76
387.57	5.74
387.778	5.76
387.985	5.83
388.193	5.9
388.4	5.97
388.608	6.24
388.816	6.37
389.023	6.43
389.231	6.53
389.438	6.55
389.646	6.36
389.853	6.41
390.061	6.4
390.268	6.47
390.475	6.27
390.683	6.24
390.89	6.07
391.098	6.06
391.305	5.89
391.512	5.65
391.72	5.63
391.927	5.8
392.135	5.87
392.342	5.81
392.549	5.69
392.756	5.67
392.964	5.68
393.171	5.74
393.378	5.69
393.586	5.75
393.793	5.78
394	5.72
394.207	5.72
394.414	5.67
394.622	5.62
394.829	5.63
395.036	5.85
395.243	5.76
395.45	5.63
395.657	5.58
395.864	5.7
396.072	5.5
396.279	5.66
396.486	5.51
396.693	5.4
396.9	5.52
397.107	5.46
397.314	5.5
397.521	5.36
397.728	5.41
397.935	5.24
398.142	5.16
398.349	5.51
398.556	5.3
398.763	5.32
398.97	5.31
399.177	5.25
399.383	5.2
399.59	5.05
399.797	5.24
400.004	5.07
400.211	5.3
400.418	5.16
400.625	5.05
400.831	5.12
401.038	5.11
401.245	5.15
401.452	5.07
401.658	5.1
401.865	5.21
402.072	5.25
402.279	5.44
402.485	5.19
402.692	5.2
402.899	5.15
403.105	5.26
403.312	5.2
403.519	5.02
403.725	5.05
403.932	5.05
404.138	4.93
404.345	4.87
404.552	4.63
404.758	4.65
404.965	4.45
405.171	4.53
405.378	4.38
405.584	4.46
405.791	4.59
405.997	4.54
406.204	4.5
406.41	4.53
406.617	4.51
406.823	4.72
407.029	4.77
407.236	5.03
407.442	4.9
407.649	4.92
407.855	4.95
408.061	5.01
408.268	5.02
408.474	4.87
408.68	4.82
408.887	4.97
409.093	5.06
409.299	5.14
409.505	5.29
409.712	5.32
409.918	5.28
410.124	5.21
410.33	5.24
410.537	5.21
410.743	5.3
410.949	5.45
411.155	5.28
411.361	5.06
411.567	5.19
411.773	4.87
411.98	4.91
412.186	4.76
412.392	4.83
412.598	4.74
412.804	4.62
413.01	4.81
413.216	4.76
413.422	4.81
413.628	4.78
413.834	4.63
414.04	4.76
414.246	4.82
414.452	4.86
414.658	4.7
414.864	4.54
415.07	4.71
415.275	4.47
415.481	4.47
415.687	4.43
415.893	4.45
416.099	4.46
416.305	4.49
416.511	4.36
416.716	4.54
416.922	4.59
417.128	4.71
417.334	4.58
417.539	4.7
417.745	4.56
417.951	4.58
418.157	4.64
418.362	4.62
418.568	4.52
418.774	4.5
418.979	4.47
419.185	4.47
419.391	4.47
419.596	4.49
419.802	4.4
420.008	4.48
420.213	5.04
420.419	4.94
420.624	4.94
420.83	5.03
421.035	5.06
421.241	5.05
421.446	4.99
421.652	4.96
421.857	4.92
422.063	4.9
422.268	4.82
422.474	4.23
422.679	4.33
422.885	4.3
423.09	4.25
423.295	4.17
423.501	4.09
423.706	4.12
423.911	4.14
424.117	4.16
424.322	4.18
424.527	4.22
424.733	4.23
424.938	4.21
425.143	4.2
425.349	4.2
425.554	4.25
425.759	4.24
425.964	4.3
426.169	4.28
426.375	4.3
426.58	4.3
426.785	4.26
426.99	4.25
427.195	4.27
427.4	4.26
427.605	4.23
427.811	4.32
428.016	4.42
428.221	4.51
428.426	4.53
428.631	4.49
428.836	4.43
429.041	4.5
429.246	4.46
429.451	4.38
429.656	4.38
429.861	4.39
430.066	4.17
430.271	4.1
430.476	3.92
430.681	3.97
430.886	4.04
431.09	4.13
431.295	4.03
431.5	4.13
431.705	4.09
431.91	4.17
432.115	4.15
432.32	4.32
432.524	4.36
432.729	4.49
432.934	4.43
433.139	4.34
433.343	4.31
433.548	4.37
433.753	4.37
433.958	4.35
434.162	4.31
434.367	4.37
434.572	4.42
434.776	4.4
434.981	4.3
435.186	4.36
435.39	4.44
435.595	4.46
435.799	4.41
436.004	4.38
436.209	4.39
436.413	4.33
436.618	4.27
436.822	4.2
437.027	4.29
437.231	4.28
437.436	4.3
437.64	4.31
437.845	4.34
438.049	4.47
438.253	4.5
438.458	4.56
438.662	4.56
438.867	4.53
439.071	4.47
439.275	4.45
439.48	4.5
439.684	4.44
439.888	4.39
440.093	4.3
440.297	4.17
440.501	4.17
440.706	4.12
440.91	4.11
441.114	4.18
441.318	4.29
441.523	4.22
441.727	4.06
441.931	4.06
442.135	4.06
442.339	4.1
442.543	4.22
442.748	4.25
442.952	4.27
443.156	4.3
443.36	4.26
443.564	4.13
443.768	4.13
443.972	4.25
444.176	4.23
444.38	4.25
444.584	4.3
444.788	4.22
444.992	4.21
445.196	4.18
445.4	4.2
445.604	4.3
445.808	4.3
446.012	4.34
446.216	4.34
446.42	4.42
446.624	4.35
446.828	4.28
447.032	4.26
447.235	4.25
447.439	4.24
447.643	4.22
447.847	4.11
448.051	4.19
448.254	4.16
448.458	4.16
448.662	4.05
448.866	4.06
449.069	4.14
449.273	4.21
449.477	4.15
449.681	4.17
449.884	4.2
450.088	4.3
450.292	4.26
450.495	4.2
450.699	4.2
450.902	4.2
451.106	4.2
451.31	4.19
451.513	4.2
451.717	4.16
451.92	4.23
452.124	4.2
452.327	4.05
452.531	3.98
452.734	4.04
452.938	3.98
453.141	3.99
453.345	4.04
453.548	4.05
453.752	3.94
453.955	4.06
454.158	4.05
454.362	3.95
454.565	4.03
454.769	4.01
454.972	3.96
455.175	3.99
455.379	4.05
455.582	4.06
455.785	3.99
455.988	4.07
456.192	4.01
456.395	3.88
456.598	4.05
456.801	4.11
457.005	4.07
457.208	4.14
457.411	4.14
457.614	4.1
457.817	4.06
458.021	4.01
458.224	4.08
458.427	4.03
458.63	4.08
458.833	3.96
459.036	3.87
459.239	3.92
459.442	3.92
459.645	3.91
459.848	3.92
460.051	3.93
460.254	4
460.457	3.93
460.66	4.03
460.863	3.98
461.066	4.02
461.269	4.06
461.472	4.12
461.675	4.1
461.878	4.12
462.081	4.14
462.284	4.24
462.486	4.22
462.689	4.27
462.892	4.23
463.095	4.33
463.298	4.45
463.5	4.45
463.703	4.38
463.906	4.33
464.109	4.28
464.311	4.23
464.514	4.07
464.717	4.12
464.92	4.13
465.122	4.18
465.325	4.2
465.528	4.1
465.73	4.18
465.933	4.12
466.135	4.19
466.338	4.18
466.541	4.09
466.743	4.14
466.946	4.07
467.148	4
467.351	4
467.553	3.97
467.756	3.94
467.958	3.82
468.161	4.01
468.363	4.02
468.566	4.08
468.768	4.23
468.971	4.29
469.173	4.38
469.375	4.41
469.578	4.4
469.78	4.41
469.983	4.46
470.185	4.5
470.387	4.41
470.59	4.39
470.792	4.4
470.994	4.4
471.196	4.36
471.399	4.3
471.601	4.36
471.803	4.23
472.005	4.22
472.208	4.22
472.41	4.16
472.612	4.17
472.814	4.18
473.016	4.24
473.218	4.23
473.421	4.22
473.623	4.28
473.825	4.27
474.027	4.34
474.229	4.34
474.431	4.33
474.633	4.45
474.835	4.47
475.037	4.49
475.239	4.35
475.441	4.35
475.643	4.36
475.845	4.26
476.047	4.14
476.249	4.14
476.451	4.13
476.653	4.08
476.855	3.99
477.057	3.89
477.258	3.92
477.46	3.9
477.662	3.89
477.864	3.94
478.066	4.05
478.268	4.14
478.469	4.18
478.671	4.18
478.873	4.32
479.075	4.31
479.276	4.3
479.478	4.36
479.68	4.41
479.882	4.43
480.083	4.38
480.285	4.25
480.487	4.28
480.688	4.2
480.89	4.21
481.091	4.15
481.293	4.14
481.495	4.15
481.696	4.11
481.898	4.04
482.099	4.03
482.301	4.04
482.502	4.09
482.704	4.06
482.905	4.07
483.107	4.05
483.308	4.03
483.51	4.01
483.711	4.03
483.913	4.02
484.114	4.06
484.315	4.03
484.517	4.01
484.718	3.97
484.92	3.96
485.121	3.97
485.322	3.97
485.524	3.96
485.725	3.97
485.926	3.96
486.127	3.95
486.329	3.95
486.53	3.95
486.731	3.98
486.932	3.99
487.134	3.99
487.335	3.98
487.536	3.97
487.737	4
487.938	3.99
488.139	4.02
488.341	4.04
488.542	4.06
488.743	4.08
488.944	4.01
489.145	4.05
489.346	4.07
489.547	4.08
489.748	4.09
489.949	4.12
490.15	4.15
490.351	4.11
490.552	4.11
490.753	4.09
490.954	4.1
491.155	4.16
491.356	4.18
491.557	4.17
491.758	4.18
491.959	4.22
492.159	4.17
492.36	4.19
492.561	4.23
492.762	4.22
492.963	4.28
493.164	4.27
493.364	4.27
493.565	4.26
493.766	4.25
493.967	4.21
494.167	4.22
494.368	4.29
494.569	4.28
494.769	4.26
494.97	4.31
495.171	4.31
495.371	4.43
495.572	4.48
495.773	4.47
495.973	4.55
496.174	4.6
496.375	4.61
496.575	4.64
496.776	4.73
496.976	4.74
497.177	4.7
497.377	4.6
497.578	4.57
497.778	4.56
497.979	4.58
498.179	4.6
498.38	4.64
498.58	4.67
498.78	4.64
498.981	4.56
499.181	4.57
499.382	4.66
499.582	4.79
499.782	4.79
499.983	4.78
500.183	4.9
500.383	4.88
500.584	4.91
500.784	4.83
500.984	4.85
501.184	4.84
501.385	4.84
501.585	4.79
501.785	4.82
501.985	4.84
502.185	4.96
502.386	4.91
502.586	4.9
502.786	4.95
502.986	5.04
503.186	5.12
503.386	5.28
503.586	5.3
503.786	5.34
503.987	5.3
504.187	5.25
504.387	5.22
504.587	5.27
504.787	5.27
504.987	5.3
505.187	5.3
505.387	5.27
505.587	5.25
505.786	5.29
505.986	5.27
506.186	5.42
506.386	5.51
506.586	5.55
506.786	5.51
506.986	5.71
507.186	5.68
507.386	5.66
507.585	5.73
507.785	5.77
507.985	5.84
508.185	5.88
508.384	5.81
508.584	5.78
508.784	5.76
508.984	5.93
509.183	5.85
509.383	5.87
509.583	6.01
509.782	6.03
509.982	6.03
510.182	6
510.381	6.08
510.581	6.15
510.781	6.24
510.98	6.3
511.18	6.26
511.379	6.26
511.579	6.34
511.778	6.26
511.978	6.29
512.177	6.43
512.377	6.48
512.576	6.49
512.776	6.5
512.975	6.54
513.175	6.66
513.374	6.7
513.573	6.76
513.773	6.83
513.972	6.99
514.172	7.07
514.371	7.11
514.57	7.22
514.77	7.3
514.969	7.37
515.168	7.5
515.367	7.56
515.567	7.67
515.766	7.78
515.965	7.79
516.164	7.74
516.364	7.72
516.563	7.64
516.762	7.62
516.961	7.61
517.16	7.71
517.359	7.7
517.559	7.68
517.758	7.65
517.957	7.64
518.156	7.71
518.355	7.76
518.554	7.77
518.753	7.82
518.952	7.88
519.151	7.98
519.35	7.96
519.549	7.97
519.748	7.98
519.947	8.01
520.146	8.1
520.345	8.1
520.544	8.19
520.743	8.3
520.942	8.35
521.141	8.41
521.339	8.42
521.538	8.5
521.737	8.52
521.936	8.63
522.135	8.7
522.333	8.7
522.532	8.82
522.731	8.86
522.93	8.77
523.129	8.87
523.327	8.91
523.526	8.96
523.725	9.01
523.923	9.06
524.122	9.1
524.321	9.19
524.519	9.19
524.718	9.15
524.917	9.17
525.115	9.3
525.314	9.32
525.512	9.4
525.711	9.39
525.909	9.45
526.108	9.53
526.306	9.51
526.505	9.55
526.703	9.59
526.902	9.66
527.1	9.68
527.299	9.69
527.497	9.76
527.696	9.77
527.894	9.84
528.092	9.84
528.291	9.86
528.489	9.94
528.688	9.94
528.886	10.01
529.084	10.07
529.283	10.14
529.481	10.23
529.679	10.3
529.877	10.37
530.076	10.43
530.274	10.51
530.472	10.59
530.67	10.67
530.869	10.76
531.067	10.8
531.265	10.85
531.463	10.91
531.661	10.94
531.859	10.92
532.057	10.92
532.255	10.92
532.454	10.95
532.652	10.95
532.85	10.97
533.048	11.04
533.246	11.1
533.444	11.13
533.642	11.21
533.84	11.26
534.038	11.32
534.236	11.39
534.434	11.53
534.632	11.61
534.83	11.74
535.027	11.79
535.225	11.83
535.423	11.91
535.621	12.02
535.819	11.94
536.017	12.03
536.215	12.08
536.412	12.14
536.61	12.11
536.808	12.12
537.006	12.14
537.203	12.18
537.401	12.29
537.599	12.34
537.797	12.43
537.994	12.59
538.192	12.62
538.39	12.64
538.587	12.71
538.785	12.76
538.983	12.83
539.18	12.86
539.378	13.02
539.575	13.04
539.773	13.05
539.97	12.99
540.168	13.03
540.366	13.02
540.563	13.1
540.761	13.13
540.958	13.19
541.155	13.29
541.353	13.38
541.55	13.39
541.748	13.44
541.945	13.51
542.143	13.62
542.34	13.68
542.537	13.81
542.735	13.88
542.932	13.93
543.129	14.09
543.327	14.09
543.524	14.19
543.721	14.26
543.919	14.33
544.116	14.39
544.313	14.43
544.51	14.54
544.708	14.61
544.905	14.73
545.102	14.87
545.299	14.86
545.496	14.94
545.693	14.97
545.891	15.09
546.088	15.2
546.285	15.28
546.482	15.32
546.679	15.37
546.876	15.4
547.073	15.39
547.27	15.39
547.467	15.44
547.664	15.52
547.861	15.57
548.058	15.6
548.255	15.57
548.452	15.66
548.649	15.82
548.846	15.91
549.043	15.96
549.24	16.05
549.437	16.18
549.633	16.29
549.83	16.41
550.027	16.49
550.224	16.5
550.421	16.58
550.618	16.56
550.814	16.53
551.011	16.51
551.208	16.58
551.405	16.7
551.601	16.77
551.798	16.79
551.995	16.72
552.191	16.79
552.388	17.01
552.585	17.11
552.781	17.15
552.978	17.27
553.175	17.36
553.371	17.53
553.568	17.56
553.764	17.54
553.961	17.72
554.157	17.81
554.354	17.88
554.55	17.81
554.747	17.89
554.943	18.05
555.14	18.03
555.336	18.11
555.533	18.06
555.729	18.09
555.926	18.23
556.122	18.33
556.318	18.52
556.515	18.57
556.711	18.52
556.907	18.58
557.104	18.6
557.3	18.71
557.496	18.83
557.693	18.87
557.889	19.03
558.085	19.13
558.281	19.08
558.478	19.13
558.674	19.08
558.87	19.16
559.066	19.27
559.262	19.45
559.459	19.46
559.655	19.43
559.851	19.47
560.047	19.38
560.243	19.5
560.439	19.65
560.635	19.66
560.831	19.77
561.027	19.92
561.223	19.91
561.419	19.83
561.615	19.96
561.811	20.12
562.007	20.18
562.203	20.35
562.399	20.31
562.595	20.21
562.791	20.26
562.987	20.32
563.183	20.41
563.379	20.52
563.575	20.6
563.771	20.61
563.966	20.64
564.162	20.69
564.358	20.62
564.554	20.75
564.75	20.9
564.945	20.96
565.141	21.08
565.337	21.12
565.533	21.13
565.728	21.16
565.924	21.27
566.12	21.2
566.315	21.25
566.511	21.39
566.707	21.36
566.902	21.3
567.098	21.41
567.293	21.38
567.489	21.34
567.684	21.4
567.88	21.43
568.076	21.44
568.271	21.67
568.467	21.79
568.662	21.83
568.858	21.93
569.053	22.07
569.248	22.05
569.444	22.18
569.639	22.21
569.835	22.25
570.03	22.3
570.225	22.28
570.421	22.24
570.616	22.2
570.812	22.21
571.007	22.3
571.202	22.34
571.397	22.39
571.593	22.33
571.788	22.5
571.983	22.57
572.178	22.6
572.374	22.7
572.569	22.75
572.764	22.87
572.959	22.9
573.154	22.89
573.35	22.93
573.545	22.97
573.74	23.1
573.935	23.05
574.13	23.01
574.325	23.11
574.52	23.16
574.715	23.3
574.91	23.32
575.105	23.38
575.3	23.42
575.495	23.47
575.69	23.45
575.885	23.34
576.08	23.4
576.275	23.41
576.47	23.47
576.665	23.45
576.86	23.38
577.055	23.33
577.25	23.46
577.444	23.51
577.639	23.6
577.834	23.74
578.029	24.06
578.224	24.15
578.418	24.24
578.613	24.24
578.808	24.31
579.003	24.44
579.197	24.53
579.392	24.45
579.587	24.37
579.781	24.3
579.976	24.27
580.171	24.16
580.365	24.17
580.56	24.26
580.755	24.35
580.949	24.29
581.144	24.14
581.338	24.08
581.533	24.25
581.727	24.43
581.922	24.42
582.116	24.55
582.311	24.6
582.505	24.55
582.7	24.55
582.894	24.52
583.089	24.61
583.283	24.74
583.478	24.81
583.672	24.73
583.866	24.71
584.061	24.81
584.255	24.67
584.449	24.76
584.644	24.82
584.838	24.89
585.032	24.88
585.226	25.01
585.421	25.12
585.615	25.19
585.809	25.16
586.003	25.01
586.198	25.02
586.392	24.94
586.586	24.86
586.78	25.05
586.974	25
587.168	24.97
587.363	25.05
587.557	25
587.751	24.99
587.945	25.01
588.139	25.15
588.333	25.08
588.527	25.32
588.721	25.27
588.915	25.13
589.109	25.2
589.303	25.21
589.497	25.06
589.691	24.95
589.885	25.03
590.079	25.24
590.273	25.23
590.466	25.33
590.66	25.35
590.854	25.57
591.048	25.56
591.242	25.53
591.436	25.63
591.629	25.69
591.823	25.93
592.017	25.93
592.211	25.8
592.404	25.87
592.598	25.86
592.792	25.86
592.986	25.7
593.179	25.68
593.373	25.68
593.567	25.64
593.76	25.54
593.954	25.38
594.147	25.3
594.341	25.36
594.535	25.31
594.728	25.48
594.922	25.39
595.115	25.44
595.309	25.53
595.502	25.55
595.696	25.61
595.889	25.68
596.083	25.77
596.276	25.73
596.47	25.75
596.663	25.71
596.856	25.61
597.05	25.74
597.243	25.77
597.437	25.86
597.63	25.9
597.823	25.88
598.017	26
598.21	25.97
598.403	26.04
598.596	26.09
598.79	26.24
598.983	26.21
599.176	26.17
599.369	26.04
599.563	25.95
599.756	26.02
599.949	26.08
600.142	26.01
600.335	26.14
600.528	26.27
600.722	26.3
600.915	26.25
601.108	26.35
601.301	26.37
601.494	26.46
601.687	26.35
601.88	26.26
602.073	26.16
602.266	26.19
602.459	26.02
602.652	25.87
602.845	25.7
603.038	25.69
603.231	25.66
603.424	25.75
603.617	25.79
603.809	25.87
604.002	25.8
604.195	25.89
604.388	25.97
604.581	25.95
604.774	25.99
604.966	26.07
605.159	26.15
605.352	26.11
605.545	26.17
605.737	26.1
605.93	26.19
606.123	26.35
606.316	26.41
606.508	26.38
606.701	26.52
606.894	26.68
607.086	26.65
607.279	26.61
607.471	26.74
607.664	26.52
607.857	26.67
608.049	26.78
608.242	26.84
608.434	27.02
608.627	27.1
608.819	27.25
609.012	27.5
609.204	27.88
609.397	28.29
609.589	28.58
609.782	29.04
609.974	29.51
610.166	29.83
610.359	30.18
610.551	30.47
610.743	30.71
610.936	30.98
611.128	31.18
611.32	31.37
611.513	31.5
611.705	31.69
611.897	31.58
612.09	31.37
612.282	31.1
612.474	31
612.666	30.8
612.858	30.75
613.051	30.81
613.243	30.38
613.435	30.08
613.627	29.78
613.819	29.44
614.011	29.22
614.203	29.07
614.395	28.97
614.588	28.76
614.78	28.71
614.972	28.49
615.164	28.23
615.356	28.23
615.548	28.27
615.74	28.19
615.932	28.21
616.124	28.36
616.315	28.53
616.507	28.58
616.699	28.41
616.891	28.21
617.083	28.32
617.275	28.14
617.467	28.18
617.659	27.99
617.85	27.98
618.042	27.8
618.234	27.57
618.426	27.23
618.618	27.02
618.809	27.04
619.001	27.2
619.193	27.01
619.384	27.12
619.576	27.18
619.768	27.22
619.959	27.16
620.151	27.26
620.343	27.4
620.534	27.6
620.726	27.88
620.917	27.88
621.109	27.9
621.301	28.13
621.492	28.01
621.684	28.03
621.875	28.11
622.067	28.17
622.258	28.39
622.45	28.49
622.641	28.28
622.832	28.33
623.024	28.52
623.215	28.26
623.407	28.17
623.598	28.15
623.789	28
623.981	27.97
624.172	27.88
624.363	27.72
624.555	27.67
624.746	27.84
624.937	27.66
625.129	27.61
625.32	27.6
625.511	27.58
625.702	27.71
625.893	27.81
626.085	27.9
626.276	27.94
626.467	27.85
626.658	27.82
626.849	27.78
627.04	27.68
627.231	27.69
627.422	27.83
627.614	27.87
627.805	27.84
627.996	27.87
628.187	27.86
628.378	27.79
628.569	27.96
628.76	28.05
628.951	28.29
629.142	28.6
629.332	28.6
629.523	28.67
629.714	28.84
629.905	29.08
630.096	29.09
630.287	28.98
630.478	28.99
630.669	28.86
630.859	28.83
631.05	28.68
631.241	28.53
631.432	28.43
631.623	28.47
631.813	28.3
632.004	27.96
632.195	27.8
632.385	27.81
632.576	27.94
632.767	28
632.957	27.92
633.148	27.75
633.339	27.71
633.529	27.77
633.72	27.7
633.91	27.58
634.101	27.8
634.292	27.83
634.482	27.86
634.673	27.73
634.863	27.54
635.054	27.58
635.244	27.71
635.435	27.74
635.625	27.77
635.815	27.75
636.006	28
636.196	27.79
636.387	27.81
636.577	27.66
636.767	27.78
636.958	27.99
637.148	27.97
637.338	27.9
637.529	28.21
637.719	28.05
637.909	27.91
638.099	27.59
638.29	27.8
638.48	28.1
638.67	28.35
638.86	28.52
639.05	28.43
639.241	28.56
639.431	28.56
639.621	28.28
639.811	28.36
640.001	28.48
640.191	28.55
640.381	28.34
640.571	28.22
640.761	28.06
640.951	28.01
641.141	27.87
641.331	27.81
641.521	27.78
641.711	27.82
641.901	27.85
642.091	27.99
642.281	27.96
642.471	28.3
642.661	28.24
642.851	28.41
643.041	28.19
643.231	28.37
643.42	28.33
643.61	28.45
643.8	28.31
643.99	28.43
644.18	28.31
644.369	28.45
644.559	28.34
644.749	28.38
644.939	28.24
645.128	28.38
645.318	28.3
645.508	28.39
645.697	28.39
645.887	28.57
646.076	28.45
646.266	28.41
646.456	28.66
646.645	28.45
646.835	28.41
647.024	28.48
647.214	28.37
647.403	28.55
647.593	28.56
647.782	28.62
647.972	28.55
648.161	28.62
648.351	28.8
648.54	28.61
648.73	28.78
648.919	28.73
649.108	28.71
649.298	28.74
649.487	28.77
649.677	28.8
649.866	28.72
650.055	28.89
650.244	28.91
650.434	28.84
650.623	28.89
650.812	28.9
651.002	29.02
651.191	28.96
651.38	28.96
651.569	29.24
651.758	29.13
651.947	29.43
652.137	29.24
652.326	29.31
652.515	29.21
652.704	29.14
652.893	29.21
653.082	29.15
653.271	28.98
653.46	29.02
653.649	29.01
653.838	29.06
654.027	28.96
654.216	29.13
654.405	29.07
654.594	29.21
654.783	29.4
654.972	29.34
655.161	29.21
655.35	29.57
655.539	29.55
655.728	29.19
655.916	29.26
656.105	28.94
656.294	29.03
656.483	28.89
656.672	28.78
656.86	28.62
657.049	28.66
657.238	28.83
657.427	28.78
657.615	28.69
657.804	28.65
657.993	28.62
658.181	28.79
658.37	28.58
658.559	28.86
658.747	28.84
658.936	28.91
659.125	28.37
659.313	28.37
659.502	28.47
659.69	28.55
659.879	28.6
660.067	28.7
660.256	28.69
660.444	28.77
660.633	28.65
660.821	28.68
661.01	28.64
661.198	29.05
661.387	28.86
661.575	28.83
661.763	28.8
661.952	28.86
662.14	28.79
662.328	28.7
662.517	28.7
662.705	28.59
662.893	28.69
663.082	28.8
663.27	29.03
663.458	29.08
663.646	29.14
663.834	29.36
664.023	29.24
664.211	29.4
664.399	29.75
664.587	29.57
664.775	29.81
664.963	29.79
665.152	29.62
665.34	29.16
665.528	29.57
665.716	29.54
665.904	29.17
666.092	29.2
666.28	28.87
666.468	28.74
666.656	29.08
666.844	29.02
667.032	29.16
667.22	29.3
667.408	29.59
667.596	29.51
667.784	29.53
667.971	29.69
668.159	29.85
668.347	30.07
668.535	30.09
668.723	29.96
668.911	30.09
669.098	29.96
669.286	29.99
669.474	30.11
669.662	30.08
669.849	30.05
670.037	30.27
670.225	30.16
670.413	30.21
670.6	29.96
670.788	29.77
670.976	29.54
671.163	29.51
671.351	29.42
671.538	29.7
671.726	29.48
671.913	29.22
672.101	28.88
672.289	29.02
672.476	28.74
672.664	28.91
672.851	29.24
673.039	29.14
673.226	28.92
673.413	28.82
673.601	28.33
673.788	28.61
673.976	28.69
674.163	28.98
674.35	28.97
674.538	29.18
674.725	29.14
674.912	29.19
675.1	29.27
675.287	29.56
675.474	29.77
675.662	29.83
675.849	29.8
676.036	30.25
676.223	30.16
676.411	30.3
676.598	30.2
676.785	30.28
676.972	30.31
677.159	30.35
677.346	30.48
677.533	30.46
677.721	30.6
677.908	30.28
678.095	29.9
678.282	30
678.469	29.92
678.656	30
678.843	29.91
679.03	29.85
679.217	30.07
679.404	30.01
679.591	29.88
679.778	29.78
679.964	29.99
680.151	30.13
680.338	30.11
680.525	30.27
680.712	30.12
680.899	30.3
681.086	30.34
681.272	30.11
681.459	30.09
681.646	30.28
681.833	30.53
682.02	30.59
682.206	30.61
682.393	30.62
682.58	30.39
682.766	30.59
682.953	30.31
683.14	29.97
683.326	30.01
683.513	30.24
683.7	29.98
683.886	29.86
684.073	29.74
684.259	29.48
684.446	29.66
684.632	29.59
684.819	29.5
685.005	29.76
685.192	29.99
685.378	30.03
685.565	29.72
685.751	30.03
685.938	29.75
686.124	29.61
686.31	29.93
686.497	29.64
686.683	29.67
686.87	29.63
687.056	29.47
687.242	29.52
687.429	29.56
687.615	29.72
687.801	29.56
687.987	29.9
688.174	30.06
688.36	29.85
688.546	30.48
688.732	30.48
688.918	30.51
689.105	30.83
689.291	30.86
689.477	30.94
689.663	30.8
689.849	30.84
690.035	30.68
690.221	30.68
690.407	30.6
690.593	30.16
690.779	30.25
690.965	30.16
691.151	29.76
691.337	29.99
691.523	29.87
691.709	29.8
691.895	29.66
692.081	29.62
692.267	29.79
692.453	29.96
692.639	30.06
692.825	29.75
693.011	29.92
693.196	30.12
693.382	29.92
693.568	29.97
693.754	29.99
693.94	30
694.125	29.88
694.311	29.46
694.497	29.65
694.682	29.22
694.868	29.69
695.054	29.54
695.239	29.77
695.425	29.74
695.611	29.79
695.796	29.92
695.982	29.81
696.168	30.05
696.353	30.38
696.539	30.08
696.724	29.99
696.91	29.99
697.095	30
697.281	29.9
697.466	29.97
697.652	30.08
697.837	29.83
698.023	30.04
698.208	30.06
698.393	30.04
698.579	30.23
698.764	30.55
698.949	30.34
699.135	30.16
699.32	30.03
699.505	29.84
699.691	29.72
699.876	30.07
700.061	30.06
700.246	30.04
700.432	29.95
700.617	29.77
700.802	29.67
700.987	29.63
701.172	29.97
701.358	29.85
701.543	29.82
701.728	29.86
701.913	29.67
702.098	29.8
702.283	29.71
702.468	29.71
702.653	29.84
702.838	29.78
703.023	29.93
703.208	30.18
703.393	30.28
703.578	30.39
703.763	30.94
703.948	31.1
704.133	30.98
704.318	30.86
704.503	30.96
704.688	30.95
704.873	31.16
705.057	31.44
705.242	30.91
705.427	31.04
705.612	31.13
705.797	30.6
705.981	30.37
706.166	30.71
706.351	31.2
706.536	31.2
706.72	31.59
706.905	31.67
707.09	31.26
707.274	31.7
707.459	31.86
707.644	32.18
707.828	32.41
708.013	32.69
708.197	32.6
708.382	32.49
708.567	32.55
708.751	32.22
708.936	32.15
709.12	32.17
709.305	32.14
709.489	32
709.673	31.93
709.858	31.46
710.042	31.49
710.227	31.55
710.411	31.54
710.596	31.37
710.78	31.61
710.964	31.7
711.149	32
711.333	32.1
711.517	32.01
711.702	31.7
711.886	31.87
712.07	31.7
712.254	31.45
712.438	31.35
712.623	32.09
712.807	31.66
712.991	31.36
713.175	31.35
713.359	31.11
713.544	31.27
713.728	31.52
713.912	31.85
714.096	31.57
714.28	31.19
714.464	31.27
714.648	30.5
714.832	30.51
715.016	30.46
715.2	30.22
715.384	30.12
715.568	30.42
715.752	30.37
715.936	30.09
716.12	30.31
716.304	30.67
716.488	30.46
716.671	30.86
716.855	31.16
717.039	31.15
717.223	31.23
717.407	30.97
717.59	30.39
717.774	30.27
717.958	30.24
718.142	30.42
718.325	30.38
718.509	30.61
718.693	30.07
718.877	29.91
719.06	30.06
719.244	30.37
719.428	30.81
719.611	30.82
719.795	30.82
719.978	31.04
720.162	30.84
720.345	30.58
720.529	30.68
720.713	30.71
720.896	30.58
721.08	30.59
721.263	30.37
721.446	30.47
721.63	30.53
721.813	30.83
721.997	30.64
722.18	30.88
722.364	31.28
722.547	31.02
722.73	31.46
722.914	31.48
723.097	31.3
723.28	31.22
723.464	31.07
723.647	31.42
723.83	30.88
724.013	30.78
724.197	30.67
724.38	30.1
724.563	30.44
724.746	30.12
724.929	30.12
725.112	29.94
725.296	29.52
725.479	29.66
725.662	29.87
725.845	29.85
726.028	29.47
726.211	29.36
726.394	29.47
726.577	29.41
726.76	29.16
726.943	29.25
727.126	28.98
727.309	28.98
727.492	28.45
727.675	28.24
727.858	28.31
728.041	28.58
728.224	28.54
728.407	29.46
728.589	29.38
728.772	29.43
728.955	29.63
729.138	30.31
729.321	30.7
729.503	31.44
729.686	31.36
729.869	31.56
730.052	31.41
730.234	31.34
730.417	31.17
730.6	31.09
730.782	31.19
730.965	30.95
731.148	30.44
731.33	30.51
731.513	30.03
731.695	29.85
731.878	30.02
732.061	30.22
732.243	30.43
732.426	30.23
732.608	30.27
732.791	30.48
732.973	30.78
733.156	31.14
733.338	30.59
733.52	30.66
733.703	30.53
733.885	29.88
734.068	29.9
734.25	29.95
734.432	29.69
734.615	29.25
734.797	29
734.979	28.75
735.162	29.01
735.344	29.49
735.526	29.85
735.708	30.2
735.891	30.8
736.073	31.15
736.255	31.16
736.437	31.31
736.619	32.06
736.802	32.7
736.984	32.54
737.166	32.7
737.348	32.79
737.53	32.58
737.712	32.74
737.894	32.53
738.076	31.94
738.258	31.33
738.44	30.94
738.622	30.79
738.804	30.25
738.986	30.77
739.168	30.18
739.35	30.26
739.532	30.57
739.714	30.96
739.896	30.66
740.078	31.17
740.259	31.69
740.441	32.18
740.623	31.97
740.805	31.94
740.987	31.24
741.168	31.74
741.35	31.68
741.532	31.15
741.714	30.88
741.895	31.38
742.077	31.23
742.259	31.07
742.44	30.79
742.622	30.77
742.804	30.65
742.985	31.09
743.167	30.64
743.348	30.15
743.53	30.03
743.711	29.48
743.893	29.1
744.075	28.72
744.256	28.59
744.438	28.47
744.619	28.84
744.8	28.94
744.982	29.12
745.163	29.19
745.345	29.32
745.526	29.71
745.707	29.68
745.889	30.06
746.07	30.66
746.252	30.63
746.433	30.5
746.614	29.97
746.795	29.87
746.977	30.03
747.158	30.01
747.339	30.62
747.52	30.93
747.702	31.4
747.883	30.87
748.064	30.54
748.245	31.04
748.426	31.26
748.607	32.38
748.788	33.16
748.97	32.78
749.151	32.95
749.332	32.48
749.513	32.06
749.694	31.89
749.875	32.73
750.056	32.71
750.237	32.8
750.418	33.04
750.599	31.8
750.78	31.66
750.96	31.76
751.141	32.11
751.322	32.66
751.503	32.31
751.684	32.43
751.865	31.7
752.046	31.39
752.226	30.75
752.407	29.9
752.588	29.93
752.769	29.46
752.949	29.52
753.13	28.79
753.311	28.24
753.492	28.69
753.672	28.79
753.853	29.03
754.034	29.48
754.214	30.26
754.395	30.96
754.575	31.74
754.756	32.18
754.937	32.37
755.117	32.04
755.298	32.44
755.478	32.67
755.659	33.15
755.839	33.56
756.02	33.67
756.2	32.3
756.381	32.38
756.561	31.84
756.741	31.33
756.922	30.69
757.102	31.04
757.283	30.55
757.463	30.6
757.643	30.45
757.823	30.17
758.004	29.91
758.184	31.31
758.364	31.17
758.545	30.94
758.725	30.76
758.905	30.98
759.085	31.5
759.265	32.18
759.446	32.22
759.626	31.09
759.806	31.11
759.986	31.42
760.166	31.25
760.346	31.25
760.526	31.86
760.706	32.48
760.886	32.36
761.066	31.8
761.246	31.45
761.426	31.12
761.606	31.58
761.786	31.23
761.966	30.91
762.146	30.27
762.326	30.12
762.506	29.64
762.686	29.21
762.866	29.15
763.046	29.39
763.225	29.31
763.405	29.34
763.585	29.45
763.765	29.65
763.945	29.49
764.124	29.41
764.304	29.04
764.484	29.04
764.664	29.06
764.843	28.92
765.023	28.85
765.203	28.78
765.382	28.83
765.562	28.89
765.741	28.9
765.921	29.12
766.101	29.95
766.28	30.47
766.46	30.81
766.639	31.25
766.819	31.71
766.998	31.73
767.178	31.74
767.357	31.82
767.537	31.35
767.716	31.62
767.896	31.64
768.075	31.32
768.254	31.69
768.434	31.4
768.613	31.68
768.792	31.69
768.972	31.95
769.151	31.97
769.33	31.36
769.51	31.38
769.689	31.66
769.868	31.91
770.047	32.21
770.226	32.04
770.406	31.92
770.585	31.78
770.764	31.62
770.943	31.77
771.122	32.04
771.301	32.54
771.48	33.61
771.66	32.56
771.839	31.59
772.018	30.74
772.197	30.76
772.376	31.69
772.555	31.52
772.734	32.04
772.913	32.35
773.092	32.29
773.271	32.45
773.449	31.79
773.628	32.21
773.807	32.98
773.986	33.28
774.165	33.4
774.344	32.67
774.523	32.44
774.701	31.92
774.88	31.33
775.059	31.52
775.238	31.08
775.417	31.36
775.595	31.5
775.774	31.92
775.953	31.81
776.131	31.52
776.31	31.61
776.489	31.66
776.667	32.68
776.846	31.99
777.025	31.23
777.203	31.37
777.382	31.16
777.56	31.06
777.739	30.9
777.917	30.29
778.096	30.11
778.274	29.8
778.453	29.31
778.631	28.45
778.81	29.16
778.988	28.86
779.166	28.76
779.345	29.4
779.523	29.39
779.702	29.8
779.88	30.77
780.058	31.5
780.237	32.81
780.415	33.87
780.593	33.71
780.771	33.72
780.95	33.54
781.128	33.86
781.306	33.54
781.484	33.84
781.662	32.56
781.841	33.16
782.019	32.86
782.197	31.42
782.375	31.29
782.553	31.1
782.731	30.74
782.909	32.51
783.087	32.25
783.265	31.64
783.443	31.11
783.621	32.29
783.799	31.32
783.977	30.71
784.155	31.62
784.333	30.86
784.511	31.37
784.689	31.62
784.867	31.46
785.045	31.56
785.223	31.62
785.4	31.68
785.578	31.29
785.756	31.57
785.934	32.35
786.112	32.05
786.289	33.22
786.467	33.29
786.645	33.11
786.823	32.65
787	32.28
787.178	31.57
787.356	31.86
787.533	31.79
787.711	31.11
787.889	31.05
788.066	31
788.244	30.01
788.421	28.77
788.599	28.34
788.776	28.83
788.954	29.36
789.131	29.12
789.309	28.96
789.486	29.67
789.664	30.62
789.841	29.76
790.019	30.56
790.196	30.61
790.373	31.35
790.551	32.3
790.728	31.63
790.906	31.43
791.083	33.24
791.26	32.9
791.437	32.38
791.615	31.68
791.792	32.65
791.969	31.69
792.146	31.41
792.324	31.82
792.501	31.25
792.678	31.13
792.855	30.84
793.032	31.05
793.209	31.81
793.387	30.97
793.564	31.69
793.741	31.36
793.918	30.64
794.095	30.54
794.272	30.45
794.449	31.46
794.626	30.69
794.803	31.04
794.98	30.22
795.157	29.81
795.334	30.36
795.511	30.06
795.688	30.38
795.864	30.32
796.041	30.14
796.218	30.2
796.395	29.27
796.572	29.74
796.749	29.36
796.925	29.39
797.102	28.82
797.279	30
797.456	28.65
797.632	28.13
797.809	29
797.986	28.94
798.162	29.48
798.339	28.78
798.516	29.98
798.692	30.26
798.869	30.39
799.046	31.36
799.222	30.3
799.399	31.17
799.575	32.31
799.752	31.67
799.928	32.37
800.105	32.39
800.281	33.32
800.458	33.25
800.634	33.47
800.811	33.1
800.987	34.02
801.163	33.61
801.34	34.11
801.516	33.57
801.692	33.69
801.869	33.59
802.045	32.43
802.221	32.2
802.398	31.62
802.574	30.84
802.75	31.91
802.926	31.25
803.103	32.37
803.279	32.17
803.455	32.32
803.631	33.25
803.807	34.31
803.983	34.96
804.16	35.82
804.336	34.87
804.512	36.08
804.688	35.28
804.864	33.68
805.04	32.67
805.216	32.01
805.392	32.54
805.568	32.8
805.744	31.55
805.92	30.92
806.096	29.97
806.272	31.34
806.448	31.11
806.623	30.75
806.799	31.27
806.975	31.5
807.151	32.23
807.327	32.4
807.503	32.34
807.678	33.12
807.854	33.19
808.03	34.1
808.206	34.7
808.381	34.35
808.557	34.28
808.733	34.96
808.908	35.17
809.084	34.33
809.26	33.38
809.435	33.44
809.611	33.33
809.787	33.27
809.962	33.59
810.138	32.43
810.313	32.53
810.489	32.93
810.664	32.08
810.84	31.3
811.015	32.38
811.191	32.19
811.366	30.83
811.542	30.53
811.717	30.39
811.892	29.87
812.068	30.8
812.243	31.33
812.419	30.88
812.594	30.69
812.769	31.49
812.944	30.54
813.12	29.99
813.295	30.59
813.47	30.54
813.645	29.42
813.821	28.85
813.996	27.12
814.171	26.56
814.346	28.01
814.521	28.8
814.697	29.17
814.872	29.51
815.047	29.41
815.222	28.02
815.397	26.24
815.572	27.82
815.747	27.64
815.922	27.04
816.097	27.66
816.272	26.82
816.447	26.73
816.622	26.26
816.797	25.96
816.972	26.74
817.147	28.9
817.322	30.55
817.496	29.73
817.671	30.35
817.846	32.87
818.021	31.72
818.196	32.64
818.371	33.28
818.545	32.44
818.72	33.29
818.895	34.44
819.069	32.07
819.244	31.71
819.419	31.33
819.594	31.3
819.768	30.25
819.943	30.18
820.117	29.39
820.292	28.98
820.467	28.59
820.641	28.82
820.816	27.65
820.99	28.62
821.165	28.17
821.339	28.65
821.514	28.57
821.688	28.4
821.863	28.36
822.037	28.14
822.212	27.86
822.386	28.03
822.56	27.82
822.735	28.05
822.909	28.11
823.084	28.19
823.258	28.02
823.432	27.85
823.606	27.89
823.781	28.08
823.955	28.09
824.129	28.31
824.303	28.42
824.478	28.36
824.652	28.38
824.826	28.08
825	27.9
825.174	28.12
825.348	28.4
825.523	28.43
825.697	28.43
825.871	28.44
826.045	28.63
826.219	28.53
826.393	28.59
826.567	28.57
826.741	28.98
826.915	29.63
827.089	29.31
827.263	28.92
827.437	28.88
827.611	28.8
827.784	29.22
827.958	29.13
828.132	29.57
828.306	29.62
828.48	29.32
828.654	29.28
828.827	29.58
829.001	29.83
829.175	30.56
829.349	31.26
829.522	31.02
829.696	31.12
829.87	30.65
830.044	29.79
830.217	29.53
830.391	29.39
830.565	28.74
830.738	26.81
830.912	27.38
831.085	26.42
831.259	26.08
831.432	26.04
831.606	25.63
831.779	25.12
831.953	26.45
832.126	26.54
832.3	27.81
832.473	27.2
832.647	28.35
832.82	27.98
832.994	29.5
833.167	29.85
833.34	30.16
833.514	29.45
833.687	30.01
833.86	28.78
834.034	28.72
834.207	28.87
834.38	29.52
834.553	29.72
834.727	30.16
834.9	29.45
835.073	28.84
835.246	28.46
835.419	29.06
835.593	29.56
835.766	30.82
835.939	31.87
836.112	31.3
836.285	30.95
836.458	30.42
836.631	29.98
836.804	30.48
836.977	31.77
837.15	32.58
837.323	33.83
837.496	33.76
837.669	32.77
837.842	33.18
838.015	33.4
838.188	34.31
838.361	35.76
838.533	34.92
838.706	34.21
838.879	30.79
839.052	29.93
839.225	28.23
839.398	28
839.57	28.99
839.743	28.63
839.916	29.89
840.088	29
840.261	29.16
840.434	30.99
840.607	30.62
840.779	30.93
840.952	31.5
841.124	33.04
841.297	32.78
841.47	32.35
841.642	31.02
841.815	30.45
841.987	30.5
842.16	31.03
842.332	31.09
842.505	32.13
842.677	35.04
842.85	36.19
843.022	33.21
843.194	34.16
843.367	33.32
843.539	32.25
843.712	32.33
843.884	33.3
844.056	30.17
844.229	29.11
844.401	27.73
844.573	28.26
844.745	29.06
844.918	31.36
845.09	28.72
845.262	29.98
845.434	34.37
845.606	34.41
845.779	35.91
845.951	36.21
846.123	35.58
846.295	34.27
846.467	31.24
846.639	32.01
846.811	31.7
846.983	36.84
847.155	36.53
847.327	35.96
847.499	36.42
847.671	34.29
847.843	34.78
848.015	37.01
848.187	38.6
848.359	38.6
848.531	37.45
848.703	36.77
848.875	31.85
849.047	32.93
849.218	32.84
849.39	30.29
849.562	31.62
849.734	32.12
849.905	29.75
850.077	32.72
850.249	35.91
850.421	35.48
850.592	37.68
850.764	42.12
850.936	38.28
851.107	38.97
851.279	41.81
851.451	41.47
851.622	41.62
851.794	42.55
851.965	38.44
852.137	37.04
852.308	33.47
852.48	32.6
852.651	29.91
852.823	32.28
852.994	28.45
853.166	23.43
853.337	23.49
853.509	21.79
853.68	22.37
853.851	20.35
854.023	22.07
854.194	22.59
854.365	22.55
854.537	24.09
854.708	23.05
854.879	24.44
855.05	30.28
855.222	30.75
855.393	34.48
855.564	36.76
855.735	38.44
855.906	35.73
856.078	38.69
856.249	36.58
856.42	34.71
856.591	36.03
856.762	37.27
856.933	39.21
857.104	39.64
857.275	37.94
857.446	35.13
857.617	40.11
857.788	42.77
857.959	41.1
858.13	39.22
858.301	37.67
858.472	39.92
858.643	35.08
858.814	30.47
858.985	29.16
859.155	33.88
859.326	36.93
859.497	30.55
859.668	28.56
859.839	27.92
860.009	28.56
860.18	30.56
860.351	31.84
860.522	40.09
860.692	40.58
860.863	36.83
861.034	30.33
861.204	25.3
861.375	29.77
861.546	30.63
861.716	32.64
861.887	35.56
862.057	36.49
862.228	37.56
862.398	32.16
862.569	30.9
862.739	36.14
862.91	37.85
863.08	39.04
863.251	37.71
863.421	33.84
863.592	31.99
863.762	33.33
863.932	32.26
864.103	26.92
864.273	31.86
864.443	29.46
864.614	27.69
864.784	26.25
864.954	28.59
865.125	29.06
865.295	30.69
865.465	34.82
865.635	37.04
865.805	42.59
865.976	45.13
866.146	43.62
866.316	46.42
866.486	46.4
866.656	47.25
866.826	48.32
866.996	52.22
867.166	51.04
867.336	52.36
867.506	48.18
867.676	42.04
867.846	44.61
868.016	44.36
868.186	42.4
868.356	39.32
868.526	38.63
868.696	33.64
868.866	32.22
869.036	37.6
869.206	33.51
869.376	34.95
869.545	31.96
869.715	26.76
869.885	23.51
870.055	23.58
870.224	24.08
870.394	24.49
870.564	28.41
870.734	29.54
870.903	24.2
871.073	24.99
871.243	27.31
871.412	30.8
871.582	33.72
871.751	30.86
871.921	33.41
872.091	36.68
872.26	36.15
872.43	37.45
872.599	28.76
872.769	30.21
872.938	30.43
873.108	26.8
873.277	22.44
873.446	22.11
873.616	27.13
873.785	25.33
873.955	27.32
874.124	28.67
874.293	26.81
874.463	32.43
874.632	31.39
874.801	30.77
874.971	29.11
875.14	32.64
875.309	28.8
875.478	25.3
875.647	26.19
875.817	23.74
875.986	21.6
876.155	23.61
876.324	23.29
876.493	23.21
876.662	22.14
876.831	27.72
877	30.98
877.17	33.66
877.339	38.8
877.508	37.04
877.677	38.08
877.846	39.67
878.015	38.92
878.184	40.71
878.352	46.14
878.521	45.76
878.69	43.83
878.859	40.74
879.028	39.38
879.197	40.57
879.366	41.14
879.534	36.81
879.703	38.49
879.872	36.37
880.041	35.92
880.21	35.27
880.378	33.62
880.547	32.42
880.716	31.56
880.884	31.29
881.053	29.08
881.222	28.35
881.39	28.08
881.559	27.7
881.727	27.36
881.896	27.73
882.065	27.53
882.233	27.99
882.402	27.53
882.57	28.03
882.739	28.39
882.907	28.43
883.076	29.43
883.244	30.15
883.412	29.56
883.581	30.18
883.749	29.62
883.918	29.26
884.086	29.43
884.254	30.22
884.423	29.75
884.591	29.64
884.759	30.11
884.927	28.33
885.096	26.69
885.264	26.59
885.432	25.75
885.6	25.94
885.769	27.02
885.937	26.47
886.105	26.59
886.273	26.8
886.441	27.47
886.609	27.47
886.777	28.43
886.945	27.1
887.113	29.75
887.281	28.17
887.449	27.37
887.617	23.92
887.785	24.34
887.953	26.49
888.121	30.39
888.289	27.08
888.457	24.51
888.625	26.97
888.793	31.54
888.961	27.75
889.129	33.48
889.296	35.09
889.464	35.87
889.632	35.34
889.8	32.05
889.967	27.53
890.135	31.3
