Data from 2938852__Reflection_03.txt Node
Date: Wed Mar 11 12:24:13 EDT 2015
User: robert
Spectrometer: USB4E03002
Autoset integration time: false
Trigger mode: 4
Integration Time (sec): 1.000000E-1
Scans to average: 10
Electric dark correction enabled: false
Nonlinearity correction enabled: false
Boxcar width: 5
Stray light correction enabled: false
XAxis mode: Wavelengths
Stop averaging: false
Number of Pixels in Spectrum: 3648
>>>>>Begin Spectral Data<<<<<
177.575	637.04
177.794	-500
178.014	-192.47
178.233	-592.65
178.452	-261.31
178.672	-54.27
178.891	-44.96
179.11	-19.83
179.33	-22.63
179.549	-34.38
179.768	-90.87
179.987	-110.96
180.207	-78.35
180.426	-63.68
180.645	32.63
180.864	24.68
181.084	-104.26
181.303	-807.14
181.522	-255.75
181.741	-187.57
181.96	-309.93
182.179	-698.28
182.398	-318.82
182.618	340.66
182.837	492.31
183.056	993.62
183.275	200
183.494	217.48
183.713	320.61
183.932	200.57
184.151	190.65
184.37	208.16
184.589	383.44
184.808	471.53
185.027	-1476.19
185.246	-673.33
185.465	-180.07
185.684	-75.66
185.903	-86.19
186.122	-45.97
186.341	-42.89
186.56	-48.94
186.779	-28.7
186.998	-7.78
187.216	0.21
187.435	-10.96
187.654	-10.26
187.873	-5.1
188.092	-7.44
188.311	3.58
188.53	19.3
188.748	11.42
188.967	24.07
189.186	18.97
189.405	-0.46
189.623	10.59
189.842	19.23
190.061	29.57
190.28	13.07
190.498	3.81
190.717	1.66
190.936	-11.14
191.154	-2.01
191.373	-30.66
191.592	-35.67
191.81	-9.69
192.029	-37.4
192.248	-67.85
192.466	-106.11
192.685	-121
192.904	-131.6
193.122	-140.11
193.341	-460.14
193.559	-392
193.778	-786.42
193.996	-373.88
194.215	-354.27
194.433	-189.32
194.652	-152.24
194.87	-164.84
195.089	-152.44
195.307	-163.52
195.526	-186.73
195.744	-57.84
195.963	-51.94
196.181	-5.28
196.399	-38.58
196.618	-35.21
196.836	-50.27
197.055	-8.51
197.273	9.17
197.491	2.79
197.71	11.78
197.928	-0.33
198.146	-9.97
198.365	-33.17
198.583	-29.08
198.801	-15.03
199.019	-24.13
199.238	-21.4
199.456	-51.18
199.674	-73.42
199.892	-32.74
200.111	-25.82
200.329	-29.34
200.547	-52.74
200.765	-33.33
200.983	-55.84
201.202	-63.87
201.42	-34.86
201.638	-25.43
201.856	-20.4
202.074	-54.7
202.292	-72.04
202.51	-97.63
202.728	-128.4
202.946	-92.32
203.165	-136.03
203.383	-131.82
203.601	-152.93
203.819	-238.68
204.037	-274.82
204.255	-148.93
204.473	-112.68
204.691	-98.19
204.909	-94.92
205.127	-102.12
205.345	-135.94
205.562	-91.92
205.78	-91.9
205.998	-118.8
206.216	-103.41
206.434	-39.84
206.652	-19.28
206.87	-39.11
207.088	-27.71
207.306	-9.91
207.523	8.86
207.741	14.44
207.959	16.88
208.177	21.18
208.395	21.92
208.612	20.31
208.83	31.47
209.048	-1.72
209.266	29.94
209.483	11.75
209.701	-37.45
209.919	-40.34
210.136	-66.12
210.354	-45.66
210.572	-42.58
210.79	-49.76
211.007	-59.4
211.225	-75.28
211.442	-62.02
211.66	-100.95
211.878	-57.97
212.095	-138.08
212.313	-159.01
212.53	-113.7
212.748	-85.46
212.966	-87.27
213.183	-79.56
213.401	-48.02
213.618	-45.1
213.836	-29.84
214.053	-19.99
214.271	-21.92
214.488	30.32
214.705	24.41
214.923	4.81
215.14	-3.35
215.358	0.26
215.575	3.37
215.793	2.92
216.01	-10.76
216.227	-21.64
216.445	-14.26
216.662	-21.49
216.879	-29.33
217.097	-10.84
217.314	-6.15
217.531	-12.72
217.749	-15.26
217.966	-15.94
218.183	-12.44
218.4	-11.74
218.618	-13.67
218.835	-20.53
219.052	-18.83
219.269	-11.05
219.487	-16.06
219.704	-4.9
219.921	2.72
220.138	1.7
220.355	-3.63
220.572	-10.94
220.79	-4.59
221.007	-3.39
221.224	-12.19
221.441	-12.42
221.658	-7.44
221.875	-8.76
222.092	-10
222.309	-9.97
222.526	-9.44
222.743	-11.25
222.96	-9.29
223.177	-10.28
223.394	-10.23
223.611	-7.2
223.828	-1.71
224.045	-0.76
224.262	0.52
224.479	0.56
224.696	-0.14
224.913	2.56
225.13	3.9
225.347	-3.12
225.564	-1.59
225.781	-1.64
225.997	1.8
226.214	-1.09
226.431	-3.28
226.648	-2.3
226.865	-1.72
227.082	0.4
227.298	-1.73
227.515	-1.61
227.732	0.39
227.949	-0.16
228.165	0.1
228.382	-0.23
228.599	0.5
228.816	1.55
229.032	1.37
229.249	1.56
229.466	0.62
229.682	1.14
229.899	2.29
230.116	2.57
230.332	2.73
230.549	3.18
230.765	3.13
230.982	2.63
231.199	1.96
231.415	1.86
231.632	1.35
231.848	1.97
232.065	2.89
232.281	2.24
232.498	1.46
232.714	0.13
232.931	-0.19
233.147	-1.01
233.364	-0.64
233.58	-0.04
233.797	0.3
234.013	0.84
234.23	1.46
234.446	1.36
234.662	0.04
234.879	0.8
235.095	2.2
235.312	2.8
235.528	1.6
235.744	1.22
235.961	0.29
236.177	-0.26
236.393	-0.14
236.61	-0.88
236.826	-1.12
237.042	-0.4
237.258	-1.47
237.475	-2.13
237.691	-3.56
237.907	-1.39
238.123	-0.81
238.339	0.04
238.556	0.87
238.772	-0.53
238.988	0.28
239.204	0.56
239.42	1.41
239.636	2.23
239.853	2.45
240.069	2.63
240.285	3.01
240.501	3.13
240.717	3.07
240.933	2.54
241.149	3.23
241.365	2.43
241.581	2.44
241.797	1.94
242.013	2.41
242.229	3.17
242.445	3.15
242.661	3.04
242.877	3.09
243.093	3.04
243.309	3.31
243.525	3.45
243.741	3.62
243.957	3.69
244.173	3.76
244.388	3.22
244.604	2.59
244.82	1.68
245.036	1.82
245.252	1.62
245.468	2.11
245.683	2.62
245.899	2.51
246.115	3.35
246.331	3.44
246.547	3.49
246.762	3.73
246.978	3.47
247.194	3.72
247.409	3.84
247.625	4.23
247.841	3.65
248.057	3.45
248.272	3.46
248.488	2.77
248.703	2.72
248.919	2.59
249.135	2.14
249.35	2.1
249.566	2.07
249.782	1.61
249.997	0.93
250.213	1.15
250.428	0.92
250.644	0.86
250.859	1.22
251.075	1.49
251.29	1.93
251.506	2.18
251.721	2.75
251.937	2.88
252.152	3.2
252.368	3.25
252.583	3.68
252.798	3.69
253.014	3.82
253.229	4.14
253.445	3.58
253.66	2.83
253.875	3.24
254.091	2.21
254.306	2.63
254.521	2.42
254.737	2.51
254.952	2.27
255.167	2.65
255.383	1.49
255.598	0.87
255.813	1.73
256.028	2.82
256.244	2.64
256.459	3.26
256.674	2.65
256.889	2.82
257.104	2.73
257.32	2.94
257.535	2.28
257.75	2.94
257.965	2.85
258.18	2.33
258.395	2.58
258.61	2.41
258.826	2.17
259.041	2.32
259.256	2.45
259.471	2.3
259.686	2.21
259.901	2.59
260.116	2.59
260.331	2.74
260.546	3.13
260.761	2.97
260.976	3.04
261.191	3.32
261.406	3.2
261.621	3.22
261.836	3.51
262.05	3.21
262.265	3.15
262.48	3.13
262.695	2.65
262.91	2.02
263.125	1.98
263.34	2.19
263.555	1.87
263.769	1.39
263.984	0.49
264.199	0.16
264.414	1.1
264.629	0.98
264.843	1.38
265.058	2.07
265.273	1.71
265.488	1.3
265.702	1.16
265.917	2.02
266.132	2.28
266.346	2.81
266.561	2.65
266.776	2.53
266.99	2.4
267.205	1.87
267.42	1.85
267.634	2.04
267.849	2.3
268.063	2.06
268.278	1.58
268.492	2.16
268.707	2.12
268.922	2.2
269.136	2.03
269.351	1.91
269.565	2.16
269.78	1.99
269.994	2.04
270.209	2.06
270.423	2.11
270.637	2
270.852	2.02
271.066	2.06
271.281	2.3
271.495	2.42
271.709	2.01
271.924	2.27
272.138	2.17
272.353	2.24
272.567	2.04
272.781	2.16
272.996	1.99
273.21	1.97
273.424	2.03
273.638	1.66
273.853	1.81
274.067	2.65
274.281	2.74
274.495	3.05
274.71	2.78
274.924	3.01
275.138	3.2
275.352	3.96
275.566	4.1
275.781	3.78
275.995	3.88
276.209	3.48
276.423	3.27
276.637	2.84
276.851	2.89
277.065	3.05
277.279	2.9
277.493	2.96
277.707	2.68
277.921	2.41
278.135	2.47
278.349	2.65
278.563	2.67
278.777	2.75
278.991	2.67
279.205	2.18
279.419	2.38
279.633	2.37
279.847	2.29
280.061	2.22
280.275	2.47
280.489	2.55
280.703	2.61
280.917	2.71
281.131	2.54
281.344	2.59
281.558	2.83
281.772	2.33
281.986	2.27
282.2	2.34
282.414	2.48
282.627	2.42
282.841	2.58
283.055	2.55
283.269	2.73
283.482	2.71
283.696	2.83
283.91	2.71
284.123	3
284.337	3.29
284.551	3.06
284.764	3.03
284.978	2.87
285.192	2.84
285.405	2.55
285.619	2.41
285.833	2.41
286.046	2.6
286.26	2.77
286.473	2.92
286.687	2.63
286.9	2.92
287.114	2.85
287.327	2.81
287.541	2.53
287.754	3.02
287.968	3.03
288.181	3.37
288.395	3.1
288.608	2.89
288.822	2.78
289.035	3.01
289.248	2.83
289.462	2.87
289.675	2.9
289.889	3.28
290.102	2.97
290.315	3
290.529	2.59
290.742	2.67
290.955	2.64
291.169	2.6
291.382	2.63
291.595	2.52
291.808	2.69
292.022	2.92
292.235	2.27
292.448	2.16
292.661	1.93
292.875	1.94
293.088	1.96
293.301	2.11
293.514	2.57
293.727	2.55
293.94	2.41
294.153	2.07
294.367	1.9
294.58	2.35
294.793	2.54
295.006	2.63
295.219	2.71
295.432	2.51
295.645	2.53
295.858	2.49
296.071	2.42
296.284	2.66
296.497	2.76
296.71	2.8
296.923	2.88
297.136	2.93
297.349	2.97
297.562	3.14
297.775	3.5
297.988	3.58
298.201	3.39
298.414	3.61
298.626	3.52
298.839	3.59
299.052	3.72
299.265	3.66
299.478	3.64
299.691	3.83
299.903	3.83
300.116	3.44
300.329	3.54
300.542	3.68
300.755	3.72
300.967	3.72
301.18	3.98
301.393	3.89
301.605	4.34
301.818	4.57
302.031	4.73
302.243	4.76
302.456	5.15
302.669	4.92
302.881	4.83
303.094	5.01
303.307	5.36
303.519	5.07
303.732	4.99
303.944	5
304.157	5.38
304.37	5.3
304.582	5.16
304.795	4.78
305.007	5.05
305.22	5.15
305.432	4.88
305.645	4.74
305.857	4.84
306.069	4.9
306.282	4.68
306.494	4.31
306.707	3.91
306.919	4.29
307.132	4.29
307.344	4.27
307.556	4.12
307.769	4.15
307.981	4.33
308.193	4.28
308.406	4.35
308.618	4.47
308.83	4.44
309.043	4.48
309.255	4.04
309.467	4.17
309.679	4.08
309.892	4.12
310.104	4.23
310.316	4.25
310.528	4.36
310.74	4.56
310.953	4.39
311.165	4.22
311.377	4.65
311.589	4.64
311.801	4.76
312.013	4.85
312.225	4.86
312.437	4.93
312.649	5.01
312.862	4.79
313.074	4.69
313.286	4.49
313.498	4.82
313.71	4.5
313.922	4.79
314.134	4.66
314.346	4.73
314.558	5.06
314.77	4.57
314.982	4.18
315.193	4.33
315.405	4.07
315.617	4.22
315.829	3.75
316.041	3.82
316.253	3.58
316.465	3.38
316.677	3.17
316.888	3.11
317.1	3.3
317.312	3.37
317.524	3.63
317.736	3.94
317.947	4.43
318.159	4.87
318.371	4.67
318.583	5.01
318.794	5.39
319.006	5.65
319.218	5.79
319.43	5.87
319.641	5.81
319.853	5.55
320.064	5.39
320.276	5
320.488	4.93
320.699	5.21
320.911	5.69
321.123	5.98
321.334	5.77
321.546	5.44
321.757	5.62
321.969	5.88
322.18	6.32
322.392	6.49
322.603	6.36
322.815	6.29
323.026	6.28
323.238	5.44
323.449	5.19
323.661	5.16
323.872	5.22
324.083	4.97
324.295	5.01
324.506	4.46
324.718	4.33
324.929	4.44
325.14	4.5
325.352	4.47
325.563	4.67
325.774	4.37
325.986	4.18
326.197	4.14
326.408	4.29
326.62	4.17
326.831	4.38
327.042	4.59
327.253	4.59
327.464	4.24
327.676	4.41
327.887	4.38
328.098	4.58
328.309	4.86
328.52	4.62
328.732	4.42
328.943	4.56
329.154	4.96
329.365	4.72
329.576	4.84
329.787	5.19
329.998	5.12
330.209	5.43
330.42	5.75
330.631	6
330.842	6.27
331.053	6.49
331.264	6.26
331.475	6.25
331.686	6.13
331.897	5.97
332.108	5.72
332.319	5.61
332.53	5.58
332.741	5.13
332.952	4.46
333.163	4.51
333.374	4.77
333.585	4.93
333.795	4.83
334.006	4.86
334.217	4.99
334.428	5.31
334.639	5.4
334.849	5.28
335.06	5.51
335.271	5.72
335.482	6.11
335.692	6.01
335.903	5.66
336.114	5.86
336.325	5.98
336.535	5.9
336.746	5.91
336.957	5.61
337.167	5.49
337.378	5.64
337.589	6.1
337.799	5.66
338.01	5.43
338.22	5.43
338.431	4.97
338.642	4.72
338.852	4.79
339.063	4.64
339.273	4.73
339.484	4.86
339.694	4.78
339.905	4.67
340.115	4.51
340.326	4.66
340.536	5.2
340.746	5.35
340.957	5.4
341.167	5.38
341.378	5.57
341.588	5.63
341.799	5.71
342.009	5.5
342.219	5.23
342.43	5.4
342.64	5.3
342.85	4.68
343.061	4.91
343.271	5.23
343.481	5.13
343.691	4.97
343.902	5.3
344.112	5.02
344.322	5.1
344.532	5.29
344.743	5.04
344.953	5.01
345.163	5.31
345.373	5.11
345.583	4.9
345.793	4.9
346.004	4.96
346.214	4.5
346.424	4.66
346.634	4.78
346.844	4.87
347.054	4.97
347.264	5.16
347.474	4.96
347.684	4.85
347.894	5.23
348.104	5.3
348.314	5.11
348.524	5.16
348.734	5.22
348.944	5.26
349.154	5.16
349.364	5.17
349.574	5.1
349.784	5.45
349.994	5.36
350.204	5.21
350.413	5.22
350.623	5.33
350.833	5.29
351.043	5.02
351.253	4.8
351.463	4.89
351.672	4.96
351.882	5.01
352.092	5.09
352.302	5.18
352.511	5.26
352.721	4.97
352.931	4.87
353.141	4.97
353.35	4.95
353.56	5.28
353.77	5.24
353.979	5.48
354.189	5.48
354.399	5.1
354.608	5.32
354.818	5.14
355.027	5.59
355.237	5.63
355.447	5.77
355.656	6.1
355.866	5.51
356.075	5.41
356.285	5.36
356.494	5.37
356.704	5.57
356.913	5.5
357.123	5.35
357.332	5.29
357.542	5.38
357.751	5.44
357.96	5.42
358.17	5.84
358.379	5.99
358.589	5.74
358.798	5.67
359.007	5.56
359.217	5.27
359.426	5.45
359.635	5.37
359.845	5.38
360.054	5.39
360.263	5.25
360.472	5.12
360.682	4.96
360.891	5.12
361.1	5.18
361.309	5.25
361.519	5.47
361.728	5.36
361.937	5.31
362.146	5.31
362.355	5.15
362.564	5.16
362.774	5.3
362.983	5.25
363.192	5.44
363.401	5.47
363.61	5.46
363.819	5.28
364.028	5.39
364.237	5.25
364.446	5.34
364.655	5.33
364.864	5.24
365.073	5.14
365.282	5.21
365.491	5.1
365.7	4.99
365.909	5
366.118	5.13
366.327	5.18
366.536	5.35
366.745	5.2
366.954	5.35
367.162	5.71
367.371	5.64
367.58	5.68
367.789	5.57
367.998	5.4
368.207	5.25
368.415	5.14
368.624	5.13
368.833	5.11
369.042	5.11
369.25	4.8
369.459	4.29
369.668	4.39
369.877	4.38
370.085	4.22
370.294	4.4
370.503	4.41
370.711	4.35
370.92	4.25
371.129	4.19
371.337	4.16
371.546	4.31
371.754	4.56
371.963	4.44
372.171	4.4
372.38	4.32
372.589	4.13
372.797	4.13
373.006	4.16
373.214	4.31
373.423	4.31
373.631	4.2
373.84	4.12
374.048	4.09
374.256	4.18
374.465	4.09
374.673	4.21
374.882	4.33
375.09	4.3
375.298	4.08
375.507	3.82
375.715	3.73
375.923	3.62
376.132	3.62
376.34	3.68
376.548	3.54
376.757	3.58
376.965	3.5
377.173	3.51
377.381	3.59
377.59	3.75
377.798	3.87
378.006	3.89
378.214	3.98
378.423	3.94
378.631	3.93
378.839	3.97
379.047	3.94
379.255	3.93
379.463	4.03
379.671	3.93
379.879	3.97
380.088	3.84
380.296	3.64
380.504	3.84
380.712	3.97
380.92	3.77
381.128	3.61
381.336	3.81
381.544	3.89
381.752	3.71
381.96	3.82
382.168	3.93
382.376	3.88
382.584	4.02
382.791	3.74
382.999	3.4
383.207	3.29
383.415	3.36
383.623	3.19
383.831	3.17
384.039	3.26
384.247	3.06
384.454	3.03
384.662	3.01
384.87	3.15
385.078	3.15
385.285	3.28
385.493	3.34
385.701	3.19
385.909	3.16
386.116	3.1
386.324	3.13
386.532	3.24
386.739	3.08
386.947	3.14
387.155	3.17
387.362	3.26
387.57	3.23
387.778	3.35
387.985	3.46
388.193	3.44
388.4	3.28
388.608	3
388.816	2.89
389.023	2.7
389.231	2.61
389.438	2.41
389.646	2.37
389.853	2.48
390.061	2.25
390.268	2.14
390.475	2.16
390.683	2.38
390.89	2.52
391.098	2.59
391.305	2.77
391.512	2.78
391.72	2.78
391.927	2.76
392.135	2.72
392.342	2.83
392.549	2.94
392.756	2.81
392.964	2.72
393.171	2.78
393.378	2.81
393.586	2.83
393.793	2.78
394	2.71
394.207	2.68
394.414	2.6
394.622	2.46
394.829	2.37
395.036	2.35
395.243	2.24
395.45	2.12
395.657	2.13
395.864	2.24
396.072	2.08
396.279	2.19
396.486	2.08
396.693	2.11
396.9	2.27
397.107	2.2
397.314	2.33
397.521	2.23
397.728	2.14
397.935	2.02
398.142	1.83
398.349	2
398.556	1.89
398.763	1.91
398.97	1.85
399.177	1.93
399.383	2.04
399.59	1.97
399.797	2.2
400.004	2.4
400.211	2.38
400.418	2.45
400.625	2.5
400.831	2.61
401.038	2.64
401.245	2.64
401.452	2.51
401.658	2.5
401.865	2.45
402.072	2.27
402.279	2.17
402.485	2.03
402.692	1.88
402.899	1.72
403.105	1.69
403.312	1.73
403.519	1.77
403.725	1.72
403.932	1.67
404.138	1.61
404.345	1.59
404.552	1.53
404.758	1.58
404.965	1.69
405.171	1.8
405.378	1.81
405.584	1.73
405.791	1.73
405.997	1.93
406.204	2
406.41	2.07
406.617	2.17
406.823	2.2
407.029	2.36
407.236	2.29
407.442	2.25
407.649	2.16
407.855	2.25
408.061	2.22
408.268	2.05
408.474	2
408.68	2.1
408.887	2.11
409.093	2.11
409.299	2.02
409.505	1.96
409.712	1.95
409.918	1.95
410.124	1.97
410.33	2.01
410.537	2.06
410.743	2.15
410.949	2.17
411.155	2.1
411.361	2.01
411.567	2.08
411.773	2.1
411.98	2.09
412.186	2.07
412.392	2.11
412.598	2.29
412.804	2.24
413.01	2.11
413.216	2.08
413.422	2.08
413.628	2.13
413.834	1.97
414.04	2.04
414.246	2.04
414.452	2.07
414.658	1.96
414.864	1.68
415.07	1.61
415.275	1.58
415.481	1.62
415.687	1.58
415.893	1.65
416.099	1.64
416.305	1.56
416.511	1.55
416.716	1.49
416.922	1.54
417.128	1.54
417.334	1.61
417.539	1.74
417.745	1.75
417.951	1.84
418.157	1.73
418.362	1.82
418.568	1.81
418.774	1.84
418.979	1.86
419.185	1.83
419.391	1.93
419.596	2.01
419.802	1.93
420.008	1.87
420.213	1.9
420.419	1.95
420.624	2
420.83	2.05
421.035	2.02
421.241	2.1
421.446	2.14
421.652	2.1
421.857	2.05
422.063	2.04
422.268	2.02
422.474	2.04
422.679	1.99
422.885	1.91
423.09	1.95
423.295	1.94
423.501	1.86
423.706	1.83
423.911	1.78
424.117	1.79
424.322	1.83
424.527	1.93
424.733	1.93
424.938	2
425.143	2.04
425.349	1.98
425.554	2.07
425.759	2.14
425.964	2.11
426.169	2.18
426.375	2.09
426.58	2.03
426.785	1.88
426.99	1.9
427.195	1.89
427.4	1.85
427.605	1.89
427.811	1.9
428.016	1.91
428.221	1.98
428.426	1.98
428.631	2.07
428.836	2.16
429.041	2.19
429.246	2.09
429.451	2.11
429.656	2.14
429.861	2.11
430.066	1.98
430.271	1.87
430.476	1.91
430.681	1.77
430.886	1.78
431.09	1.75
431.295	1.72
431.5	1.66
431.705	1.59
431.91	1.6
432.115	1.66
432.32	1.72
432.524	1.72
432.729	1.72
432.934	1.78
433.139	1.81
433.343	1.82
433.548	1.85
433.753	1.96
433.958	1.92
434.162	1.97
434.367	1.86
434.572	1.89
434.776	1.94
434.981	1.94
435.186	1.95
435.39	1.95
435.595	1.97
435.799	1.99
436.004	1.89
436.209	1.97
436.413	1.93
436.618	2.01
436.822	1.93
437.027	1.88
437.231	1.91
437.436	1.95
437.64	1.91
437.845	1.91
438.049	1.88
438.253	1.92
438.458	1.85
438.662	1.85
438.867	1.84
439.071	1.91
439.275	2
439.48	1.94
439.684	1.9
439.888	1.88
440.093	1.86
440.297	1.81
440.501	1.88
440.706	1.92
440.91	1.96
441.114	1.93
441.318	1.81
441.523	1.75
441.727	1.87
441.931	1.81
442.135	1.8
442.339	1.81
442.543	1.83
442.748	1.7
442.952	1.65
443.156	1.52
443.36	1.5
443.564	1.6
443.768	1.66
443.972	1.49
444.176	1.58
444.38	1.56
444.584	1.52
444.788	1.5
444.992	1.58
445.196	1.66
445.4	1.68
445.604	1.76
445.808	1.74
446.012	1.71
446.216	1.68
446.42	1.62
446.624	1.62
446.828	1.58
447.032	1.58
447.235	1.58
447.439	1.51
447.643	1.52
447.847	1.51
448.051	1.47
448.254	1.42
448.458	1.42
448.662	1.48
448.866	1.52
449.069	1.58
449.273	1.62
449.477	1.54
449.681	1.6
449.884	1.65
450.088	1.64
450.292	1.71
450.495	1.76
450.699	1.89
450.902	1.86
451.106	1.82
451.31	1.84
451.513	1.89
451.717	1.99
451.92	1.89
452.124	1.88
452.327	1.75
452.531	1.69
452.734	1.58
452.938	1.52
453.141	1.49
453.345	1.5
453.548	1.48
453.752	1.43
453.955	1.32
454.158	1.37
454.362	1.32
454.565	1.5
454.769	1.55
454.972	1.7
455.175	1.7
455.379	1.79
455.582	1.77
455.785	1.79
455.988	1.82
456.192	1.87
456.395	1.96
456.598	2.02
456.801	1.92
457.005	1.88
457.208	1.79
457.411	1.79
457.614	1.82
457.817	1.82
458.021	1.87
458.224	1.83
458.427	1.84
458.63	1.74
458.833	1.71
459.036	1.69
459.239	1.67
459.442	1.71
459.645	1.65
459.848	1.65
460.051	1.65
460.254	1.62
460.457	1.61
460.66	1.59
460.863	1.6
461.066	1.58
461.269	1.59
461.472	1.65
461.675	1.59
461.878	1.6
462.081	1.55
462.284	1.59
462.486	1.59
462.689	1.69
462.892	1.62
463.095	1.6
463.298	1.66
463.5	1.63
463.703	1.53
463.906	1.5
464.109	1.55
464.311	1.48
464.514	1.44
464.717	1.43
464.92	1.41
465.122	1.53
465.325	1.64
465.528	1.47
465.73	1.61
465.933	1.6
466.135	1.6
466.338	1.64
466.541	1.67
466.743	1.69
466.946	1.63
467.148	1.58
467.351	1.65
467.553	1.59
467.756	1.71
467.958	1.68
468.161	1.65
468.363	1.57
468.566	1.55
468.768	1.57
468.971	1.5
469.173	1.51
469.375	1.47
469.578	1.4
469.78	1.39
469.983	1.39
470.185	1.21
470.387	1.28
470.59	1.45
470.792	1.48
470.994	1.46
471.196	1.46
471.399	1.5
471.601	1.52
471.803	1.45
472.005	1.45
472.208	1.45
472.41	1.56
472.612	1.57
472.814	1.55
473.016	1.62
473.218	1.62
473.421	1.68
473.623	1.59
473.825	1.66
474.027	1.71
474.229	1.65
474.431	1.63
474.633	1.69
474.835	1.69
475.037	1.66
475.239	1.65
475.441	1.71
475.643	1.7
475.845	1.77
476.047	1.75
476.249	1.73
476.451	1.77
476.653	1.85
476.855	1.75
477.057	1.72
477.258	1.69
477.46	1.65
477.662	1.61
477.864	1.6
478.066	1.63
478.268	1.6
478.469	1.58
478.671	1.6
478.873	1.59
479.075	1.6
479.276	1.6
479.478	1.62
479.68	1.58
479.882	1.62
480.083	1.61
480.285	1.64
480.487	1.59
480.688	1.63
480.89	1.65
481.091	1.62
481.293	1.66
481.495	1.69
481.696	1.69
481.898	1.73
482.099	1.71
482.301	1.69
482.502	1.69
482.704	1.77
482.905	1.77
483.107	1.75
483.308	1.75
483.51	1.73
483.711	1.72
483.913	1.74
484.114	1.74
484.315	1.75
484.517	1.76
484.718	1.74
484.92	1.7
485.121	1.68
485.322	1.66
485.524	1.66
485.725	1.64
485.926	1.65
486.127	1.62
486.329	1.62
486.53	1.59
486.731	1.6
486.932	1.62
487.134	1.63
487.335	1.64
487.536	1.66
487.737	1.63
487.938	1.66
488.139	1.64
488.341	1.62
488.542	1.62
488.743	1.66
488.944	1.67
489.145	1.68
489.346	1.7
489.547	1.72
489.748	1.72
489.949	1.76
490.15	1.77
490.351	1.82
490.552	1.83
490.753	1.82
490.954	1.82
491.155	1.82
491.356	1.8
491.557	1.8
491.758	1.81
491.959	1.82
492.159	1.83
492.36	1.79
492.561	1.77
492.762	1.79
492.963	1.78
493.164	1.79
493.364	1.85
493.565	1.87
493.766	1.88
493.967	1.84
494.167	1.87
494.368	1.86
494.569	1.91
494.769	1.9
494.97	1.98
495.171	2.03
495.371	2
495.572	1.92
495.773	1.84
495.973	1.83
496.174	1.81
496.375	1.8
496.575	1.89
496.776	1.87
496.976	1.92
497.177	1.84
497.377	1.82
497.578	1.81
497.778	1.75
497.979	1.74
498.179	1.75
498.38	1.78
498.58	1.79
498.78	1.66
498.981	1.59
499.181	1.52
499.382	1.59
499.582	1.54
499.782	1.55
499.983	1.52
500.183	1.62
500.383	1.59
500.584	1.67
500.784	1.61
500.984	1.67
501.184	1.85
501.385	1.92
501.585	1.98
501.785	2.09
501.985	2.17
502.185	2.25
502.386	2.2
502.586	2.26
502.786	2.3
502.986	2.28
503.186	2.25
503.386	2.22
503.586	2.28
503.786	2.19
503.987	2.12
504.187	2.04
504.387	2.08
504.587	2.12
504.787	2.11
504.987	2.11
505.187	2.22
505.387	2.29
505.587	2.32
505.786	2.31
505.986	2.37
506.186	2.46
506.386	2.49
506.586	2.54
506.786	2.54
506.986	2.55
507.186	2.56
507.386	2.57
507.585	2.62
507.785	2.68
507.985	2.7
508.185	2.7
508.384	2.77
508.584	2.84
508.784	2.82
508.984	2.96
509.183	3.07
509.383	3.05
509.583	3.07
509.782	3.05
509.982	3.02
510.182	3.08
510.381	3.16
510.581	3.16
510.781	3.16
510.98	3.19
511.18	3.13
511.379	3.03
511.579	3.08
511.778	3.12
511.978	3.16
512.177	3.21
512.377	3.22
512.576	3.22
512.776	3.17
512.975	3.3
513.175	3.39
513.374	3.41
513.573	3.47
513.773	3.51
513.972	3.64
514.172	3.65
514.371	3.68
514.57	3.61
514.77	3.68
514.969	3.75
515.168	3.72
515.367	3.69
515.567	3.75
515.766	3.87
515.965	3.88
516.164	3.86
516.364	3.94
516.563	4
516.762	4.19
516.961	4.2
517.16	4.27
517.359	4.33
517.559	4.42
517.758	4.44
517.957	4.43
518.156	4.52
518.355	4.55
518.554	4.57
518.753	4.57
518.952	4.54
519.151	4.57
519.35	4.61
519.549	4.63
519.748	4.63
519.947	4.73
520.146	4.79
520.345	4.82
520.544	4.91
520.743	5.04
520.942	5.12
521.141	5.19
521.339	5.24
521.538	5.24
521.737	5.36
521.936	5.46
522.135	5.45
522.333	5.49
522.532	5.51
522.731	5.52
522.93	5.5
523.129	5.6
523.327	5.7
523.526	5.81
523.725	5.87
523.923	5.89
524.122	5.94
524.321	6.06
524.519	6.1
524.718	6.25
524.917	6.28
525.115	6.29
525.314	6.3
525.512	6.31
525.711	6.34
525.909	6.41
526.108	6.47
526.306	6.49
526.505	6.55
526.703	6.61
526.902	6.61
527.1	6.67
527.299	6.77
527.497	6.86
527.696	6.91
527.894	6.93
528.092	6.98
528.291	7.03
528.489	7.06
528.688	7.09
528.886	7.14
529.084	7.17
529.283	7.22
529.481	7.24
529.679	7.26
529.877	7.27
530.076	7.32
530.274	7.36
530.472	7.38
530.67	7.48
530.869	7.54
531.067	7.59
531.265	7.68
531.463	7.72
531.661	7.77
531.859	7.84
532.057	7.94
532.255	8.05
532.454	8.09
532.652	8.14
532.85	8.15
533.048	8.2
533.246	8.22
533.444	8.22
533.642	8.3
533.84	8.32
534.038	8.33
534.236	8.32
534.434	8.31
534.632	8.36
534.83	8.41
535.027	8.47
535.225	8.51
535.423	8.53
535.621	8.6
535.819	8.67
536.017	8.77
536.215	8.78
536.412	8.9
536.61	8.92
536.808	9
537.006	9.01
537.203	9.05
537.401	9.06
537.599	9.13
537.797	9.23
537.994	9.24
538.192	9.29
538.39	9.36
538.587	9.35
538.785	9.42
538.983	9.45
539.18	9.52
539.378	9.59
539.575	9.64
539.773	9.67
539.97	9.64
540.168	9.68
540.366	9.73
540.563	9.79
540.761	9.88
540.958	9.94
541.155	9.93
541.353	9.95
541.55	9.99
541.748	10.04
541.945	10.09
542.143	10.14
542.34	10.16
542.537	10.17
542.735	10.2
542.932	10.27
543.129	10.28
543.327	10.33
543.524	10.4
543.721	10.43
543.919	10.47
544.116	10.51
544.313	10.56
544.51	10.67
544.708	10.74
544.905	10.85
545.102	10.82
545.299	10.87
545.496	10.97
545.693	11.02
545.891	11.09
546.088	11.14
546.285	11.15
546.482	11.24
546.679	11.29
546.876	11.27
547.073	11.29
547.27	11.36
547.467	11.39
547.664	11.41
547.861	11.47
548.058	11.49
548.255	11.54
548.452	11.57
548.649	11.63
548.846	11.57
549.043	11.66
549.24	11.6
549.437	11.6
549.633	11.76
549.83	11.8
550.027	11.77
550.224	11.8
550.421	11.87
550.618	11.92
550.814	11.86
551.011	11.92
551.208	12.06
551.405	12.18
551.601	12.23
551.798	12.15
551.995	12.12
552.191	12.27
552.388	12.22
552.585	12.23
552.781	12.32
552.978	12.46
553.175	12.47
553.371	12.48
553.568	12.55
553.764	12.54
553.961	12.69
554.157	12.75
554.354	12.72
554.55	12.87
554.747	12.94
554.943	13.01
555.14	12.99
555.336	13.03
555.533	13.08
555.729	13.05
555.926	13.04
556.122	12.97
556.318	12.99
556.515	13.07
556.711	13.08
556.907	13.17
557.104	13.16
557.3	13.15
557.496	13.17
557.693	13.19
557.889	13.26
558.085	13.41
558.281	13.57
558.478	13.65
558.674	13.65
558.87	13.76
559.066	13.68
559.262	13.66
559.459	13.83
559.655	13.88
559.851	13.88
560.047	13.85
560.243	13.88
560.439	13.75
560.635	13.62
560.831	13.58
561.027	13.57
561.223	13.65
561.419	13.59
561.615	13.55
561.811	13.62
562.007	13.65
562.203	13.69
562.399	13.68
562.595	13.77
562.791	14.05
562.987	14.12
563.183	14.05
563.379	14.1
563.575	14.26
563.771	14.28
563.966	14.36
564.162	14.43
564.358	14.48
564.554	14.49
564.75	14.61
564.945	14.51
565.141	14.53
565.337	14.63
565.533	14.58
565.728	14.67
565.924	14.69
566.12	14.61
566.315	14.63
566.511	14.61
566.707	14.69
566.902	14.66
567.098	14.74
567.293	14.71
567.489	14.77
567.684	14.79
567.88	14.79
568.076	14.85
568.271	15.01
568.467	15.04
568.662	15.1
568.858	15.13
569.053	15.1
569.248	15.15
569.444	15.3
569.639	15.24
569.835	15.31
570.03	15.29
570.225	15.39
570.421	15.41
570.616	15.4
570.812	15.41
571.007	15.45
571.202	15.4
571.397	15.43
571.593	15.44
571.788	15.45
571.983	15.52
572.178	15.56
572.374	15.58
572.569	15.58
572.764	15.65
572.959	15.67
573.154	15.62
573.35	15.79
573.545	15.75
573.74	15.82
573.935	15.93
574.13	15.93
574.325	16
574.52	15.9
574.715	15.86
574.91	15.91
575.105	15.96
575.3	16.06
575.495	15.98
575.69	16.02
575.885	15.93
576.08	15.93
576.275	15.91
576.47	15.8
576.665	15.87
576.86	15.85
577.055	15.79
577.25	15.85
577.444	15.88
577.639	16.05
577.834	16.06
578.029	16.01
578.224	15.95
578.418	16.06
578.613	16.17
578.808	16.22
579.003	16.35
579.197	16.36
579.392	16.22
579.587	16.12
579.781	16.13
579.976	16.16
580.171	16.31
580.365	16.34
580.56	16.31
580.755	16.28
580.949	16.21
581.144	16.06
581.338	16.09
581.533	16.2
581.727	16.28
581.922	16.31
582.116	16.28
582.311	16.3
582.505	16.31
582.7	16.28
582.894	16.3
583.089	16.35
583.283	16.4
583.478	16.41
583.672	16.42
583.866	16.4
584.061	16.33
584.255	16.38
584.449	16.38
584.644	16.45
584.838	16.48
585.032	16.42
585.226	16.42
585.421	16.41
585.615	16.49
585.809	16.55
586.003	16.57
586.198	16.57
586.392	16.59
586.586	16.84
586.78	16.74
586.974	16.82
587.168	16.8
587.363	16.75
587.557	16.83
587.751	16.79
587.945	16.75
588.139	16.89
588.333	16.85
588.527	16.86
588.721	16.63
588.915	16.67
589.109	16.6
589.303	16.83
589.497	16.85
589.691	16.9
589.885	16.95
590.079	17.01
590.273	16.95
590.466	17.14
590.66	17.11
590.854	17.25
591.048	17.39
591.242	17.46
591.436	17.37
591.629	17.52
591.823	17.4
592.017	17.44
592.211	17.57
592.404	17.53
592.598	17.39
592.792	17.46
592.986	17.4
593.179	17.23
593.373	17.25
593.567	17.17
593.76	17.09
593.954	17.18
594.147	17.06
594.341	17.01
594.535	17.03
594.728	17.15
594.922	17.22
595.115	17.24
595.309	17.36
595.502	17.33
595.696	17.38
595.889	17.41
596.083	17.42
596.276	17.5
596.47	17.49
596.663	17.41
596.856	17.36
597.05	17.29
597.243	17.25
597.437	17.19
597.63	17.17
597.823	17.25
598.017	17.25
598.21	17.35
598.403	17.31
598.596	17.32
598.79	17.51
598.983	17.46
599.176	17.58
599.369	17.58
599.563	17.69
599.756	17.72
599.949	17.77
600.142	17.85
600.335	17.68
600.528	17.75
600.722	17.71
600.915	17.67
601.108	17.67
601.301	17.55
601.494	17.65
601.687	17.56
601.88	17.52
602.073	17.38
602.266	17.3
602.459	17.35
602.652	17.38
602.845	17.37
603.038	17.32
603.231	17.35
603.424	17.31
603.617	17.3
603.809	17.45
604.002	17.57
604.195	17.62
604.388	17.64
604.581	17.69
604.774	17.65
604.966	17.68
605.159	17.77
605.352	17.82
605.545	17.97
605.737	18.04
605.93	17.93
606.123	17.87
606.316	17.87
606.508	17.8
606.701	17.74
606.894	17.79
607.086	17.8
607.279	17.75
607.471	17.78
607.664	17.68
607.857	17.61
608.049	17.67
608.242	17.75
608.434	17.75
608.627	17.94
608.819	17.9
609.012	17.95
609.204	18.02
609.397	18.18
609.589	18.22
609.782	18.31
609.974	18.37
610.166	18.37
610.359	18.39
610.551	18.43
610.743	18.42
610.936	18.45
611.128	18.42
611.32	18.29
611.513	18.13
611.705	18.08
611.897	17.99
612.09	17.88
612.282	17.75
612.474	17.78
612.666	17.91
612.858	17.83
613.051	17.89
613.243	18.03
613.435	18.01
613.627	18.05
613.819	18.05
614.011	18.22
614.203	18.27
614.395	18.28
614.588	18.32
614.78	18.17
614.972	18.27
615.164	18.27
615.356	18.06
615.548	18.22
615.74	18.29
615.932	18.22
616.124	18.09
616.315	18.14
616.507	18.47
616.699	18.26
616.891	18.23
617.083	18.25
617.275	18.28
617.467	18.38
617.659	18.4
617.85	18.3
618.042	18.48
618.234	18.37
618.426	18.42
618.618	18.19
618.809	18.22
619.001	18.38
619.193	18.18
619.384	18.24
619.576	18.15
619.768	18.03
619.959	18.15
620.151	18.12
620.343	18.36
620.534	18.28
620.726	18.32
620.917	18.3
621.109	18.28
621.301	18.42
621.492	18.35
621.684	18.39
621.875	18.37
622.067	18.23
622.258	18.1
622.45	18.14
622.641	18.02
622.832	17.92
623.024	18.05
623.215	17.86
623.407	17.78
623.598	17.8
623.789	17.71
623.981	17.87
624.172	17.94
624.363	17.98
624.555	17.67
624.746	17.8
624.937	17.97
625.129	17.95
625.32	18.13
625.511	18.24
625.702	18.28
625.893	18.32
626.085	18.27
626.276	18.38
626.467	18.47
626.658	18.58
626.849	18.71
627.04	18.6
627.231	18.51
627.422	18.58
627.614	18.64
627.805	18.65
627.996	18.73
628.187	18.61
628.378	18.51
628.569	18.54
628.76	18.52
628.951	18.46
629.142	18.66
629.332	18.64
629.523	18.55
629.714	18.46
629.905	18.57
630.096	18.61
630.287	18.8
630.478	18.77
630.669	18.6
630.859	18.67
631.05	18.64
631.241	18.7
631.432	18.79
631.623	18.69
631.813	18.78
632.004	18.72
632.195	18.65
632.385	18.62
632.576	18.69
632.767	18.75
632.957	18.84
633.148	18.86
633.339	18.7
633.529	18.77
633.72	18.9
633.91	18.78
634.101	18.7
634.292	18.78
634.482	18.74
634.673	18.8
634.863	18.81
635.054	18.78
635.244	18.78
635.435	18.87
635.625	19.03
635.815	19.02
636.006	19.06
636.196	19.04
636.387	19.01
636.577	19.03
636.767	18.84
636.958	18.89
637.148	18.92
637.338	19.04
637.529	18.92
637.719	18.75
637.909	18.81
638.099	18.95
638.29	18.96
638.48	18.84
638.67	18.89
638.86	19
639.05	19.2
639.241	19
639.431	19.02
639.621	19.06
639.811	18.97
640.001	19
640.191	18.89
640.381	18.98
640.571	19.08
640.761	19.14
640.951	19.22
641.141	18.99
641.331	19.14
641.521	19.04
641.711	19
641.901	19.1
642.091	19.1
642.281	19.06
642.471	19.16
642.661	19.24
642.851	19.23
643.041	19.15
643.231	19.19
643.42	19.18
643.61	19.29
643.8	19.45
643.99	19.43
644.18	19.22
644.369	19.38
644.559	19.33
644.749	19.35
644.939	19.3
645.128	19.3
645.318	19.32
645.508	19.35
645.697	19.1
645.887	18.91
646.076	18.99
646.266	19.03
646.456	18.89
646.645	18.86
646.835	18.67
647.024	18.76
647.214	18.88
647.403	18.67
647.593	18.66
647.782	18.72
647.972	18.81
648.161	18.6
648.351	18.81
648.54	18.72
648.73	18.76
648.919	19
649.108	19.08
649.298	18.85
649.487	19.1
649.677	19.05
649.866	18.96
650.055	19.01
650.244	19.25
650.434	19.23
650.623	19.47
650.812	19.35
651.002	19.23
651.191	19.05
651.38	18.98
651.569	18.88
651.758	18.92
651.947	18.95
652.137	18.96
652.326	18.98
652.515	18.93
652.704	18.81
652.893	18.98
653.082	19.06
653.271	19.07
653.46	19.26
653.649	19.54
653.838	19.5
654.027	19.29
654.216	19.2
654.405	19.13
654.594	19.16
654.783	19.3
654.972	19.33
655.161	19.29
655.35	19.38
655.539	19.53
655.728	19.22
655.916	19.32
656.105	19.58
656.294	19.46
656.483	19.39
656.672	19.29
656.86	19.04
657.049	18.97
657.238	18.96
657.427	19
657.615	18.97
657.804	18.98
657.993	19.01
658.181	19
658.37	19.22
658.559	19.31
658.747	19.34
658.936	19.29
659.125	19.3
659.313	19.49
659.502	19.46
659.69	19.48
659.879	19.63
660.067	19.62
660.256	19.74
660.444	19.51
660.633	19.38
660.821	19.38
661.01	19.37
661.198	19.31
661.387	19.29
661.575	19.36
661.763	19.19
661.952	18.87
662.14	18.71
662.328	18.86
662.517	19.14
662.705	19.1
662.893	19.05
663.082	19.5
663.27	19.79
663.458	19.6
663.646	19.51
663.834	19.66
664.023	19.92
664.211	20.01
664.399	19.89
664.587	19.57
664.775	19.74
664.963	19.85
665.152	19.65
665.34	19.61
665.528	19.88
665.716	19.8
665.904	19.6
666.092	19.6
666.28	19.5
666.468	19.48
666.656	19.64
666.844	19.49
667.032	19.43
667.22	19.46
667.408	19.04
667.596	18.99
667.784	19.01
667.971	19.4
668.159	19.34
668.347	19.38
668.535	19.41
668.723	19.56
668.911	19.81
669.098	19.64
669.286	19.43
669.474	19.69
669.662	19.65
669.849	19.61
670.037	19.59
670.225	19.67
670.413	19.88
670.6	19.87
670.788	19.53
670.976	19.46
671.163	19.53
671.351	19.75
671.538	19.7
671.726	19.57
671.913	19.65
672.101	19.21
672.289	19.31
672.476	19.12
672.664	18.97
672.851	19.13
673.039	19.07
673.226	19.16
673.413	19.07
673.601	18.82
673.788	19.03
673.976	19.05
674.163	19.26
674.35	19.16
674.538	19.16
674.725	19.16
674.912	19.19
675.1	19.05
675.287	18.97
675.474	18.91
675.662	19.29
675.849	19.03
676.036	19.18
676.223	19.32
676.411	19.51
676.598	19.5
676.785	19.66
676.972	19.8
677.159	19.83
677.346	20.08
677.533	20.2
677.721	20.27
677.908	20.43
678.095	20.48
678.282	20.25
678.469	20.03
678.656	20.17
678.843	20.02
679.03	19.97
679.217	19.98
679.404	19.96
679.591	19.98
679.778	20.14
679.964	19.88
680.151	19.57
680.338	19.68
680.525	19.57
680.712	19.66
680.899	19.76
681.086	19.91
681.272	20.12
681.459	20.01
681.646	20.22
681.833	19.99
682.02	20.2
682.206	20.05
682.393	20.23
682.58	20.49
682.766	20.63
682.953	20.74
683.14	20.71
683.326	20.58
683.513	20.63
683.7	20.5
683.886	20.43
684.073	20.34
684.259	21.08
684.446	20.87
684.632	20.58
684.819	20.27
685.005	20.18
685.192	20.12
685.378	20.3
685.565	20.26
685.751	20.26
685.938	20.23
686.124	20.29
686.31	20.06
686.497	20.22
686.683	20.53
686.87	20.59
687.056	20.7
687.242	20.97
687.429	20.72
687.615	20.83
687.801	20.83
687.987	20.81
688.174	20.88
688.36	21.05
688.546	20.94
688.732	20.67
688.918	20.52
689.105	20.41
689.291	20.16
689.477	20.09
689.663	20.01
689.849	20.06
690.035	20.12
690.221	19.91
690.407	19.7
690.593	19.55
690.779	19.71
690.965	19.89
691.151	19.79
691.337	20.08
691.523	20.33
691.709	20.31
691.895	20.32
692.081	20.44
692.267	20.75
692.453	21.25
692.639	21.26
692.825	21.42
693.011	21.43
693.196	21.57
693.382	21.15
693.568	21.29
693.754	21.35
693.94	21.24
694.125	21.03
694.311	20.93
694.497	20.6
694.682	20.9
694.868	20.86
695.054	20.95
695.239	20.75
695.425	21.09
695.611	20.9
695.796	20.98
695.982	21.14
696.168	21.15
696.353	21.26
696.539	20.97
696.724	21.23
696.91	21.31
697.095	20.91
697.281	21.09
697.466	20.81
697.652	20.7
697.837	20.83
698.023	20.67
698.208	20.73
698.393	20.65
698.579	20.71
698.764	20.44
698.949	20.49
699.135	20.65
699.32	20.76
699.505	20.96
699.691	21.13
699.876	21.12
700.061	21.29
700.246	21.34
700.432	21.22
700.617	21.22
700.802	21.37
700.987	21.1
701.172	21.41
701.358	21.23
701.543	21.07
701.728	21.29
701.913	21.23
702.098	21.1
702.283	21.54
702.468	21.93
702.653	22.27
702.838	22.42
703.023	22.76
703.208	22.72
703.393	22.88
703.578	23.32
703.763	23.15
703.948	23.16
704.133	23.55
704.318	23.43
704.503	23.01
704.688	22.85
704.873	22.79
705.057	22.94
705.242	23.03
705.427	23.18
705.612	23.24
705.797	23.34
705.981	23.28
706.166	23.13
706.351	22.99
706.536	23.33
706.72	23.73
706.905	23.55
707.09	23.25
707.274	23.29
707.459	23.49
707.644	23.35
707.828	23.73
708.013	24.35
708.197	24.24
708.382	24.18
708.567	24.38
708.751	24.17
708.936	24.29
709.12	24.44
709.305	24.55
709.489	24.54
709.673	24.67
709.858	24.11
710.042	23.72
710.227	23.8
710.411	23.77
710.596	23.82
710.78	23.76
710.964	23.82
711.149	23.87
711.333	23.75
711.517	23.81
711.702	23.88
711.886	24.04
712.07	23.87
712.254	23.73
712.438	23.77
712.623	23.72
712.807	23.61
712.991	23.44
713.175	23.48
713.359	23.24
713.544	22.95
713.728	22.56
713.912	22.39
714.096	22.84
714.28	22.85
714.464	22.7
714.648	22.53
714.832	22.27
715.016	22.45
715.2	22.23
715.384	22.25
715.568	22.02
715.752	22.11
715.936	22
716.12	21.55
716.304	21.42
716.488	21.61
716.671	21.61
716.855	21.87
717.039	21.94
717.223	21.83
717.407	21.68
717.59	22.04
717.774	21.78
717.958	21.95
718.142	21.78
718.325	21.84
718.509	21.76
718.693	21.52
718.877	21.23
719.06	21.12
719.244	21.16
719.428	21.25
719.611	21.02
719.795	20.93
719.978	21.05
720.162	21
720.345	21.31
720.529	21.17
720.713	21.28
720.896	21.64
721.08	21.31
721.263	21.58
721.446	21.59
721.63	21.67
721.813	21.62
721.997	21.68
722.18	21.85
722.364	21.67
722.547	22
722.73	22.17
722.914	21.89
723.097	21.77
723.28	21.73
723.464	21.99
723.647	21.87
723.83	22.1
724.013	22.18
724.197	21.75
724.38	22.19
724.563	22.31
724.746	22.05
724.929	22.64
725.112	22.92
725.296	22.92
725.479	23
725.662	23.18
725.845	22.86
726.028	22.91
726.211	23.47
726.394	23.03
726.577	23.01
726.76	23.12
726.943	22.76
727.126	22.76
727.309	22.66
727.492	23.06
727.675	23.08
727.858	23.45
728.041	23.2
728.224	22.88
728.407	22.96
728.589	22.5
728.772	22.43
728.955	22.64
729.138	22.55
729.321	22.5
729.503	21.9
729.686	21.92
729.869	21.96
730.052	22.16
730.234	22.23
730.417	22.27
730.6	22.51
730.782	22.82
730.965	23
731.148	22.94
731.33	23.19
731.513	23.07
731.695	22.99
731.878	22.88
732.061	23.1
732.243	23.07
732.426	23.2
732.608	23.54
732.791	23.21
732.973	22.94
733.156	23.19
733.338	23
733.52	22.98
733.703	22.93
733.885	23.28
734.068	23.11
734.25	23.52
734.432	23.53
734.615	23.32
734.797	23.2
734.979	23.07
735.162	23.15
735.344	23.29
735.526	24.05
735.708	24.28
735.891	23.92
736.073	24.18
736.255	24.34
736.437	24.14
736.619	24.07
736.802	24.84
736.984	24.82
737.166	24.73
737.348	25.3
737.53	25.1
737.712	24.74
737.894	25.12
738.076	24.68
738.258	24.56
738.44	24.56
738.622	24.31
738.804	24.37
738.986	24.67
739.168	24.95
739.35	24.72
739.532	24.69
739.714	24.64
739.896	24.17
740.078	24.36
740.259	24.38
740.441	24.34
740.623	24.39
740.805	24.54
740.987	24.35
741.168	24.18
741.35	23.86
741.532	23.53
741.714	23.62
741.895	24.17
742.077	24.32
742.259	24.49
742.44	24.76
742.622	24.72
742.804	24.57
742.985	24.99
743.167	24.7
743.348	24.86
743.53	25.15
743.711	25.5
743.893	25.37
744.075	25.32
744.256	24.76
744.438	24.68
744.619	25.25
744.8	24.93
744.982	24.69
745.163	24.93
745.345	24.93
745.526	24.84
745.707	25.51
745.889	25.41
746.07	25.17
746.252	25.52
746.433	25.43
746.614	25.31
746.795	25.4
746.977	25.26
747.158	25.73
747.339	25.92
747.52	26.06
747.702	25.03
747.883	25.37
748.064	25.31
748.245	25.42
748.426	25.34
748.607	25.36
748.788	25.16
748.97	25.26
749.151	24.85
749.332	24.73
749.513	25.04
749.694	26.26
749.875	26.2
750.056	26.44
750.237	26.81
750.418	26.92
750.599	26.49
750.78	26.92
750.96	26.76
751.141	26.57
751.322	26.98
751.503	26.7
751.684	25.97
751.865	25.68
752.046	25.84
752.226	25.2
752.407	25.4
752.588	25.83
752.769	25.38
752.949	25.81
753.13	25.5
753.311	24.83
753.492	24.61
753.672	24.64
753.853	24.87
754.034	24.65
754.214	24.66
754.395	24.89
754.575	25.13
754.756	25.27
754.937	25.02
755.117	25.81
755.298	25.89
755.478	26.87
755.659	26.49
755.839	26.92
756.02	26.66
756.2	27.12
756.381	26.93
756.561	26.57
756.741	26.47
756.922	26.42
757.102	26.49
757.283	26.08
757.463	24.94
757.643	25.6
757.823	25.37
758.004	25.27
758.184	24.93
758.364	24.97
758.545	24.87
758.725	24.26
758.905	23.89
759.085	23.19
759.265	23.65
759.446	23.6
759.626	22.92
759.806	22.58
759.986	22.42
760.166	22.1
760.346	21.5
760.526	21.5
760.706	22.25
760.886	22.2
761.066	22.29
761.246	22.36
761.426	22.6
761.606	22.5
761.786	22.95
761.966	22.81
762.146	22.78
762.326	22.8
762.506	22.39
762.686	22.09
762.866	22.26
763.046	22.36
763.225	22.36
763.405	22.05
763.585	21.78
763.765	21.22
763.945	21.38
764.124	21.12
764.304	21.37
764.484	21.8
764.664	22.35
764.843	22.3
765.023	22.27
765.203	22.17
765.382	22.32
765.562	22.52
765.741	23.18
765.921	23.35
766.101	23.69
766.28	23.31
766.46	23.85
766.639	23.21
766.819	23.81
766.998	23.35
767.178	23.81
767.357	24.34
767.537	24.86
767.716	24.69
767.896	24.89
768.075	25.13
768.254	26
768.434	25.01
768.613	25.4
768.792	25.06
768.972	26.18
769.151	25.65
769.33	25.32
769.51	25.14
769.689	25.06
769.868	24.81
770.047	25.29
770.226	24.77
770.406	26.34
770.585	25.88
770.764	26.3
770.943	26.26
771.122	26.41
771.301	26.75
771.48	26.94
771.66	27.3
771.839	26.96
772.018	27.17
772.197	27.2
772.376	26.36
772.555	27.14
772.734	27.47
772.913	27.52
773.092	27.58
773.271	27.65
773.449	27.16
773.628	27.34
773.807	28.19
773.986	28.55
774.165	28.48
774.344	28.14
774.523	27.59
774.701	26.57
774.88	27.04
775.059	27.01
775.238	27.11
775.417	28.14
775.595	27.95
775.774	27.69
775.953	26.79
776.131	27.36
776.31	27.7
776.489	27.59
776.667	28.25
776.846	27.3
777.025	27.33
777.203	27.92
777.382	27.27
777.56	26.27
777.739	26.55
777.917	26.23
778.096	26.87
778.274	26.88
778.453	27.88
778.631	28.04
778.81	28.6
778.988	28.65
779.166	28.62
779.345	29.36
779.523	30.33
779.702	30.15
779.88	30.77
780.058	29.79
780.237	30
780.415	29.57
780.593	30.07
780.771	29.17
780.95	29.09
781.128	27.76
781.306	27.43
781.484	26.82
781.662	27.03
781.841	27.07
782.019	26.8
782.197	26.25
782.375	25.53
782.553	24.36
782.731	25.06
782.909	25.6
783.087	26.57
783.265	26.91
783.443	27.71
783.621	27.18
783.799	26.54
783.977	26.96
784.155	26.6
784.333	27.17
784.511	27.41
784.689	27.12
784.867	27.33
785.045	27.31
785.223	27.14
785.4	26.44
785.578	27.36
785.756	27.88
785.934	27.69
786.112	28.55
786.289	27.78
786.467	28.09
786.645	28.44
786.823	27.83
787	27.51
787.178	27.27
787.356	26.57
787.533	26.15
787.711	25.93
787.889	25.78
788.066	25.35
788.244	24.98
788.421	24.66
788.599	24.72
788.776	24.69
788.954	24.81
789.131	24.63
789.309	25.48
789.486	26
789.664	26.42
789.841	26.58
790.019	26.75
790.196	28.03
790.373	29.09
790.551	29.48
790.728	29.9
790.906	30.12
791.083	31.04
791.26	30.73
791.437	30.33
791.615	29.93
791.792	30.56
791.969	30.3
792.146	29
792.324	27.34
792.501	26.85
792.678	26.64
792.855	26.46
793.032	25.61
793.209	25.34
793.387	24.92
793.564	25.53
793.741	25.4
793.918	24.8
794.095	26.19
794.272	27.18
794.449	26.84
794.626	25.74
794.803	25.57
794.98	25.86
795.157	25.72
795.334	26.89
795.511	25.88
795.688	25.03
795.864	24.45
796.041	24.28
796.218	23.51
796.395	23.35
796.572	23.84
796.749	24.35
796.925	24.07
797.102	25.28
797.279	24.7
797.456	25.04
797.632	25.96
797.809	27.91
797.986	28.26
798.162	28.45
798.339	28.9
798.516	28.76
798.692	28
798.869	28.38
799.046	27.51
799.222	26.49
799.399	27.04
799.575	26.12
799.752	25.01
799.928	24.67
800.105	24.61
800.281	24.09
800.458	24.02
800.634	23.85
800.811	23.12
800.987	23.47
801.163	24.3
801.34	24.42
801.516	24.96
801.692	25.76
801.869	25.53
802.045	25.98
802.221	26.33
802.398	27.34
802.574	27.88
802.75	28.02
802.926	27.93
803.103	27.22
803.279	26.36
803.455	25.94
803.631	25.44
803.807	26.01
803.983	25.36
804.16	25.75
804.336	24.99
804.512	24.83
804.688	24.85
804.864	25.19
805.04	24.36
805.216	24.01
805.392	24.03
805.568	23.51
805.744	21.27
805.92	21.88
806.096	21.84
806.272	21.31
806.448	20.92
806.623	21.32
806.799	21.01
806.975	22.54
807.151	22.58
807.327	23.78
807.503	23.65
807.678	26.1
807.854	24.86
808.03	24.39
808.206	24.61
808.381	25.32
808.557	25.93
808.733	25.72
808.908	26.52
809.084	26.8
809.26	26.36
809.435	27.2
809.611	25.06
809.787	26.36
809.962	26.44
810.138	28.25
810.313	28.04
810.489	27.86
810.664	27.39
810.84	26.05
811.015	26.45
811.191	26.21
811.366	25.46
811.542	27.68
811.717	27.74
811.892	29.04
812.068	27.51
812.243	27.59
812.419	26.32
812.594	25.9
812.769	26.26
812.944	24.72
813.12	24.06
813.295	24.46
813.47	22.06
813.645	22.41
813.821	22.02
813.996	22.11
814.171	20.5
814.346	21.22
814.521	21.75
814.697	21.54
814.872	21.92
815.047	23.15
815.222	23.36
815.397	24.29
815.572	23.54
815.747	22.15
815.922	22.71
816.097	24.13
816.272	24.3
816.447	24.45
816.622	24.23
816.797	24.41
816.972	23.62
817.147	23.33
817.322	23.37
817.496	23.87
817.671	23.96
817.846	22.85
818.021	22.26
818.196	21.41
818.371	21.72
818.545	20.32
818.72	20.56
818.895	21.22
819.069	21.16
819.244	20.42
819.419	19.79
819.594	20.07
819.768	21.13
819.943	20.87
820.117	21.84
820.292	22.05
820.467	22.83
820.641	22.43
820.816	21.42
820.99	21.22
821.165	21.89
821.339	21.9
821.514	21.76
821.688	21.41
821.863	21.26
822.037	21.07
822.212	20.94
822.386	20.8
822.56	21.27
822.735	21.37
822.909	21.2
823.084	21.12
823.258	20.93
823.432	20.85
823.606	20.97
823.781	21.11
823.955	21.29
824.129	21.38
824.303	21.75
824.478	21.55
824.652	21.31
824.826	21.91
825	21.92
825.174	22.15
825.348	22.3
825.523	21.94
825.697	22.26
825.871	21.5
826.045	21.36
826.219	21.26
826.393	21.4
826.567	21.88
826.741	21.61
826.915	21.49
827.089	21.33
827.263	20.81
827.437	21.42
827.611	21.24
827.784	21.59
827.958	21.93
828.132	21.8
828.306	21.28
828.48	21.36
828.654	20.97
828.827	21.07
829.001	21.87
829.175	22.65
829.349	22.46
829.522	22.42
829.696	22.01
829.87	22.1
830.044	22.38
830.217	22.72
830.391	23.52
830.565	23.73
830.738	24.37
830.912	23.64
831.085	23.71
831.259	23.38
831.432	24
831.606	25.44
831.779	23.49
831.953	22.43
832.126	23.12
832.3	23.31
832.473	23.95
832.647	23.44
832.82	23.49
832.994	23.84
833.167	24.5
833.34	23.8
833.514	23.84
833.687	24.16
833.86	24.52
834.034	23.35
834.207	22.51
834.38	22.52
834.553	22.35
834.727	22.38
834.9	22.54
835.073	21.64
835.246	22.04
835.419	21.76
835.593	21.44
835.766	21.71
835.939	22.44
836.112	22.79
836.285	22.93
836.458	23.68
836.631	23.67
836.804	23.1
836.977	23.54
837.15	23.22
837.323	23.31
837.496	24.7
837.669	23.59
837.842	23.79
838.015	24.17
838.188	23.78
838.361	22.57
838.533	21.59
838.706	23.15
838.879	24.25
839.052	26.07
839.225	25.49
839.398	25.54
839.57	25.74
839.743	27.97
839.916	26.14
840.088	27.99
840.261	27.31
840.434	28.23
840.607	27.17
840.779	26.58
840.952	24.99
841.124	27.04
841.297	27.15
841.47	27.56
841.642	25.15
841.815	26.23
841.987	23.6
842.16	23.52
842.332	23.32
842.505	23.38
842.677	23.28
842.85	23.95
843.022	22.22
843.194	22.06
843.367	20.96
843.539	22.19
843.712	23.9
843.884	25.36
844.056	26.71
844.229	27.63
844.401	26.25
844.573	26.72
844.745	27.4
844.918	24.76
845.09	24.9
845.262	29.28
845.434	25.9
845.606	23.31
845.779	24.27
845.951	24.43
846.123	26.6
846.295	25.97
846.467	26.72
846.639	25.12
846.811	25.42
846.983	24.45
847.155	22.85
847.327	22.44
847.499	21.04
847.671	19.84
847.843	20.78
848.015	18.97
848.187	20.08
848.359	18.48
848.531	19.94
848.703	21.46
848.875	17.16
849.047	14.95
849.218	16.92
849.39	20.55
849.562	19.81
849.734	21.03
849.905	18.46
850.077	19.93
850.249	21.11
850.421	20.97
850.592	21.91
850.764	24.12
850.936	27.35
851.107	27.29
851.279	27.99
851.451	27.37
851.622	25.15
851.794	26.05
851.965	25.88
852.137	22.74
852.308	21.79
852.48	21.04
852.651	22.32
852.823	20.3
852.994	21.47
853.166	21.35
853.337	22.22
853.509	23.91
853.68	26.98
853.851	25.55
854.023	25.68
854.194	25.98
854.365	24.54
854.537	26.46
854.708	24.02
854.879	24.17
855.05	20.69
855.222	21.95
855.393	22.64
855.564	16.15
855.735	17.39
855.906	20.64
856.078	20.72
856.249	17.2
856.42	13.45
856.591	19.5
856.762	20.2
856.933	20.4
857.104	17.18
857.275	17.99
857.446	23.19
857.617	18.9
857.788	14.22
857.959	13.6
858.13	17.55
858.301	17.65
858.472	12.76
858.643	10.47
858.814	9.86
858.985	8.64
859.155	9.38
859.326	7.79
859.497	14.32
859.668	17
859.839	18.55
860.009	19.69
860.18	18.47
860.351	19.68
860.522	19.73
860.692	22.96
860.863	29.84
861.034	28.28
861.204	29.05
861.375	27.47
861.546	30.25
861.716	30.91
861.887	31.01
862.057	35.04
862.228	31.68
862.398	31
862.569	28.02
862.739	24.32
862.91	24.4
863.08	22.28
863.251	20.67
863.421	17.43
863.592	15
863.762	12.56
863.932	10.2
864.103	11.01
864.273	12.16
864.443	18.33
864.614	17.56
864.784	12.69
864.954	13
865.125	12.62
865.295	14.49
865.465	14.72
865.635	16.47
865.805	12.46
865.976	17.34
866.146	16.06
866.316	12.93
866.486	14.14
866.656	15.57
866.826	19.25
866.996	19.79
867.166	22.39
867.336	19.4
867.506	16.44
867.676	22.33
867.846	19.3
868.016	22.39
868.186	23.77
868.356	23.9
868.526	24.88
868.696	24.98
868.866	23.43
869.036	20.98
869.206	24.57
869.376	26.8
869.545	27.67
869.715	26.12
869.885	21.26
870.055	23.79
870.224	21.3
870.394	19.1
870.564	18.11
870.734	17.89
870.903	20.61
871.073	19.79
871.243	18.65
871.412	15.65
871.582	18.44
871.751	20.92
871.921	15.91
872.091	17.85
872.26	20.22
872.43	18.92
872.599	18.04
872.769	17.39
872.938	17.07
873.108	18.35
873.277	18.96
873.446	17.03
873.616	17.13
873.785	18.28
873.955	18.6
874.124	18.48
874.293	17.57
874.463	19.64
874.632	15.66
874.801	17.05
874.971	13.25
875.14	11.26
875.309	13.09
875.478	17.73
875.647	16.01
875.817	13.49
875.986	10.49
876.155	12.98
876.324	14.97
876.493	19.57
876.662	18.46
876.831	23.45
877	25.25
877.17	26.18
877.339	22.46
877.508	25.48
877.677	26.64
877.846	29.56
878.015	29.19
878.184	26.3
878.352	26.92
878.521	22.44
878.69	22.75
878.859	24.9
879.028	22.87
879.197	25.24
879.366	24.1
879.534	24.68
879.703	24.45
879.872	26.16
880.041	27.89
880.21	25.86
880.378	27.21
880.547	26.16
880.716	26.2
880.884	25.67
881.053	24.98
881.222	24.88
881.39	24.42
881.559	23.9
881.727	23.39
881.896	22.09
882.065	21.82
882.233	21.64
882.402	21.57
882.57	21.14
882.739	21.04
882.907	20.75
883.076	20.22
883.244	20.75
883.412	20.7
883.581	20.77
883.749	21.35
883.918	21.7
884.086	21.52
884.254	21.75
884.423	21.94
884.591	23.25
884.759	23.41
884.927	24.55
885.096	24.16
885.264	24.44
885.432	25.19
885.6	24.86
885.769	24.99
885.937	25.51
886.105	25.82
886.273	27.19
886.441	25.01
886.609	25.35
886.777	24.06
886.945	24.08
887.113	24.36
887.281	22.68
887.449	24.46
887.617	26.88
887.785	26.87
887.953	29.57
888.121	25.09
888.289	24.7
888.457	26.04
888.625	27.05
888.793	26.82
888.961	28.12
889.129	25.54
889.296	26.29
889.464	23.2
889.632	24.74
889.8	18.24
889.967	22.43
890.135	26.36
