Data from 2938748__Reflection_04.txt Node
Date: Sun Mar 15 11:31:40 EDT 2015
User: robert
Spectrometer: USB4E03002
Autoset integration time: false
Trigger mode: 4
Integration Time (sec): 1.000000E-1
Scans to average: 10
Electric dark correction enabled: false
Nonlinearity correction enabled: false
Boxcar width: 5
Stray light correction enabled: false
XAxis mode: Wavelengths
Stop averaging: false
Number of Pixels in Spectrum: 3648
>>>>>Begin Spectral Data<<<<<
177.575	601.11
177.794	553.77
178.014	505.63
178.233	495.04
178.452	468.65
178.672	444.34
178.891	414.58
179.11	404.22
179.33	359.8
179.549	344.47
179.768	342.26
179.987	340
180.207	325.99
180.426	319.53
180.645	307.16
180.864	305.4
181.084	291.12
181.303	286.84
181.522	267.16
181.741	276.76
181.96	267.69
182.179	279.42
182.398	270.22
182.618	255.46
182.837	261.52
183.056	254.9
183.275	247.26
183.494	246.45
183.713	239.41
183.932	241.92
184.151	248.97
184.37	262.39
184.589	252.96
184.808	271.22
185.027	283.19
185.246	266.93
185.465	270.26
185.684	266.77
185.903	267.9
186.122	258.62
186.341	265.36
186.56	257.95
186.779	239.86
186.998	237.27
187.216	226.04
187.435	233.42
187.654	234.8
187.873	236.29
188.092	235.67
188.311	244.77
188.53	266.71
188.748	273.08
188.967	253.64
189.186	272.35
189.405	280.41
189.623	290.63
189.842	282.38
190.061	296.8
190.28	283.99
190.498	287.28
190.717	301.02
190.936	287.84
191.154	261.12
191.373	278.15
191.592	271.59
191.81	256.85
192.029	261.8
192.248	256.56
192.466	256.09
192.685	255.53
192.904	260.14
193.122	254.53
193.341	259.99
193.559	288.12
193.778	296.22
193.996	293.68
194.215	308.17
194.433	294.85
194.652	294.52
194.87	285.73
195.089	298.41
195.307	296.71
195.526	276.87
195.744	277.39
195.963	270.67
196.181	251.34
196.399	246.13
196.618	242.19
196.836	237.35
197.055	242.66
197.273	246.86
197.491	257.36
197.71	253.49
197.928	262.13
198.146	258.74
198.365	246.8
198.583	251.34
198.801	253.81
199.019	261.51
199.238	290.23
199.456	294.1
199.674	286.35
199.892	274.37
200.111	291.66
200.329	289.65
200.547	288.18
200.765	304.55
200.983	312.33
201.202	290.11
201.42	288.34
201.638	264.42
201.856	255.35
202.074	256.8
202.292	246.51
202.51	241.56
202.728	242.57
202.946	254.86
203.165	249.24
203.383	238.92
203.601	254.26
203.819	255.95
204.037	263.74
204.255	272.8
204.473	260.55
204.691	273.88
204.909	270.04
205.127	278.44
205.345	247.53
205.562	236.52
205.78	251.98
205.998	247.62
206.216	251.5
206.434	262.47
206.652	266.71
206.87	281.33
207.088	277.76
207.306	275.74
207.523	270.86
207.741	272.6
207.959	284.95
208.177	265.25
208.395	268.95
208.612	266.38
208.83	244.48
209.048	238.78
209.266	234.24
209.483	219.7
209.701	220.07
209.919	215.51
210.136	220.56
210.354	231.53
210.572	236.5
210.79	240.93
211.007	238.54
211.225	233.76
211.442	228.51
211.66	232.33
211.878	246.51
212.095	289.37
212.313	282.92
212.53	289.82
212.748	256.43
212.966	239.95
213.183	222.89
213.401	215.76
213.618	223.79
213.836	229.3
214.053	223.87
214.271	231.6
214.488	215.65
214.705	214.59
214.923	221.12
215.14	224.56
215.358	239.84
215.575	248.29
215.793	249.09
216.01	242.63
216.227	234.23
216.445	239.13
216.662	229.14
216.879	218.45
217.097	217.48
217.314	205.02
217.531	210.67
217.749	210.94
217.966	211.53
218.183	219.51
218.4	220.09
218.618	213.35
218.835	213.51
219.052	202.09
219.269	200.3
219.487	201.28
219.704	204.99
219.921	199.74
220.138	196
220.355	195.66
220.572	186.58
220.79	184.24
221.007	185.56
221.224	179.44
221.441	181.66
221.658	180.28
221.875	176.65
222.092	177.95
222.309	175.86
222.526	169.89
222.743	171.99
222.96	164.48
223.177	166.42
223.394	165.86
223.611	162.66
223.828	171.13
224.045	169.23
224.262	171.9
224.479	164.67
224.696	161.83
224.913	155.53
225.13	143.03
225.347	142.8
225.564	135.2
225.781	132.53
225.997	130.47
226.214	119.03
226.431	112.29
226.648	105.47
226.865	96.39
227.082	88.69
227.298	82.19
227.515	75.33
227.732	68.81
227.949	61.94
228.165	56.95
228.382	52.08
228.599	49.23
228.816	46.88
229.032	44.01
229.249	43.01
229.466	42.6
229.682	42.16
229.899	42.41
230.116	42.68
230.332	44.9
230.549	46.22
230.765	48.88
230.982	51
231.199	53.48
231.415	56.99
231.632	59.52
231.848	61.81
232.065	64.68
232.281	67.82
232.498	69.22
232.714	70.22
232.931	71.61
233.147	70.04
233.364	69.74
233.58	68.56
233.797	68.61
234.013	68.46
234.23	68.27
234.446	67.89
234.662	67.03
234.879	67.72
235.095	67.42
235.312	67.02
235.528	69.89
235.744	71.15
235.961	70.85
236.177	69.6
236.393	71.09
236.61	71.8
236.826	71.96
237.042	72.32
237.258	73.02
237.475	73.98
237.691	73.98
237.907	72.79
238.123	73.01
238.339	72.65
238.556	73.36
238.772	71.14
238.988	68.99
239.204	67.4
239.42	65.82
239.636	62.99
239.853	59.58
240.069	57.57
240.285	55.23
240.501	50.64
240.717	48.71
240.933	45.01
241.149	41.86
241.365	39.48
241.581	37.01
241.797	34.92
242.013	33.65
242.229	32.28
242.445	31.27
242.661	30.37
242.877	31.06
243.093	30.54
243.309	31.36
243.525	31.87
243.741	32.68
243.957	34.31
244.173	34.97
244.388	36.01
244.604	37.21
244.82	37.48
245.036	36.31
245.252	34.22
245.468	32.55
245.683	30.43
245.899	28.97
246.115	27.01
246.331	25.24
246.547	24.03
246.762	22.68
246.978	21.62
247.194	20.79
247.409	20.44
247.625	20.17
247.841	19.92
248.057	20.26
248.272	20.5
248.488	20.95
248.703	21.18
248.919	21.98
249.135	23.05
249.35	24.43
249.566	26.26
249.782	28.19
249.997	30.52
250.213	32.37
250.428	32.47
250.644	33.45
250.859	34.36
251.075	34.78
251.29	33.86
251.506	33.32
251.721	32.86
251.937	32.2
252.152	31.55
252.368	31.11
252.583	31.99
252.798	32.39
253.014	32.91
253.229	33.39
253.445	34.16
253.66	36.08
253.875	36.85
254.091	37.9
254.306	38.79
254.521	40.96
254.737	41.7
254.952	41.05
255.167	42.38
255.383	41.99
255.598	42.64
255.813	42.49
256.028	42.14
256.244	43.37
256.459	42.58
256.674	42.02
256.889	40.12
257.104	39.29
257.32	39.23
257.535	36.95
257.75	34.46
257.965	31.48
258.18	29.06
258.395	26.52
258.61	23.53
258.826	21.51
259.041	20.04
259.256	18.86
259.471	17.79
259.686	16.49
259.901	15.78
260.116	15.63
260.331	15.56
260.546	15.79
260.761	16.06
260.976	16.6
261.191	17.66
261.406	18.67
261.621	19.71
261.836	20.8
262.05	22.27
262.265	24.28
262.48	26.17
262.695	27.65
262.91	28.48
263.125	29.45
263.34	30.42
263.555	30.99
263.769	31.16
263.984	31.43
264.199	31.8
264.414	31.91
264.629	31.71
264.843	31.25
265.058	31.46
265.273	31.17
265.488	30.56
265.702	30.15
265.917	29.08
266.132	28.57
266.346	28.01
266.561	26.94
266.776	26.14
266.99	25.72
267.205	25.46
267.42	25.02
267.634	25.08
267.849	24.68
268.063	24.15
268.278	23.93
268.492	23.84
268.707	23.95
268.922	24.07
269.136	24.67
269.351	24.71
269.565	24.24
269.78	23.5
269.994	22.76
270.209	22.73
270.423	22.43
270.637	22.52
270.852	22.18
271.066	21.82
271.281	21.4
271.495	20.63
271.709	20.27
271.924	20.17
272.138	20.32
272.353	20.7
272.567	20.72
272.781	20.73
272.996	21
273.21	21.23
273.424	21.19
273.638	21.81
273.853	22.28
274.067	22.22
274.281	22.48
274.495	22.94
274.71	23.11
274.924	23.67
275.138	24.03
275.352	23.86
275.566	23.9
275.781	24.56
275.995	23.97
276.209	24.4
276.423	24.7
276.637	24.71
276.851	24.62
277.065	24.74
277.279	24.41
277.493	24.85
277.707	25.02
277.921	25.46
278.135	24.98
278.349	25.61
278.563	25.07
278.777	25.4
278.991	25.37
279.205	25.19
279.419	25.21
279.633	25.57
279.847	25.16
280.061	24.96
280.275	24.27
280.489	23.89
280.703	23.03
280.917	22.55
281.131	21.78
281.344	21.27
281.558	20.94
281.772	20.75
281.986	20.12
282.2	20.09
282.414	19.55
282.627	19.11
282.841	19.24
283.055	19.56
283.269	19.81
283.482	20.36
283.696	20.56
283.91	20.98
284.123	20.25
284.337	19.83
284.551	19.06
284.764	19.16
284.978	19.33
285.192	18.81
285.405	18.55
285.619	17.88
285.833	17.26
286.046	17.08
286.26	16.52
286.473	16.75
286.687	17.34
286.9	17.45
287.114	17.48
287.327	17.5
287.541	17.93
287.754	18.01
287.968	18.53
288.181	18.47
288.395	18.57
288.608	18.84
288.822	18.61
289.035	18.12
289.248	17.99
289.462	17.43
289.675	17.41
289.889	17.08
290.102	16.86
290.315	16.81
290.529	16.83
290.742	17.12
290.955	17.16
291.169	17.64
291.382	17.83
291.595	18.51
291.808	19.34
292.022	19.81
292.235	20.38
292.448	20.99
292.661	21.5
292.875	21.98
293.088	21.64
293.301	21.82
293.514	21.66
293.727	21.4
293.94	20.89
294.153	20.8
294.367	20.06
294.58	19.35
294.793	18.99
295.006	18.81
295.219	18.44
295.432	18.21
295.645	17.5
295.858	16.91
296.071	16.7
296.284	16.53
296.497	15.8
296.71	15.72
296.923	15.69
297.136	15.31
297.349	14.83
297.562	14.7
297.775	14.77
297.988	15.02
298.201	15.49
298.414	15.66
298.626	15.87
298.839	16.34
299.052	16.57
299.265	17.11
299.478	17.98
299.691	18.49
299.903	18.85
300.116	19.01
300.329	19.43
300.542	19.47
300.755	19.85
300.967	19.89
301.18	20.03
301.393	20.34
301.605	20.28
301.818	20.25
302.031	20.26
302.243	20.22
302.456	20.59
302.669	20.32
302.881	20.56
303.094	20.43
303.307	20.23
303.519	20.7
303.732	20.44
303.944	20.33
304.157	20.16
304.37	20.22
304.582	20.4
304.795	20.36
305.007	20.53
305.22	20.23
305.432	20.79
305.645	21.35
305.857	21.12
306.069	21.68
306.282	21.77
306.494	21.88
306.707	21.78
306.919	21.91
307.132	21.76
307.344	21.47
307.556	21.69
307.769	21.25
307.981	20.69
308.193	20.47
308.406	19.43
308.618	19.36
308.83	18.97
309.043	18.54
309.255	18.47
309.467	18.19
309.679	18.46
309.892	18.06
310.104	17.53
310.316	17.58
310.528	17.43
310.74	17.72
310.953	17.82
311.165	17.99
311.377	18.29
311.589	18.47
311.801	18.3
312.013	18.15
312.225	18.56
312.437	19.41
312.649	20.07
312.862	20.59
313.074	20.86
313.286	21.04
313.498	21.37
313.71	21.65
313.922	21.69
314.134	22.46
314.346	22.69
314.558	22.9
314.77	22.52
314.982	22.18
315.193	22.13
315.405	22.29
315.617	22.39
315.829	21.96
316.041	21.93
316.253	22.05
316.465	22.3
316.677	22.25
316.888	22.5
317.1	22.35
317.312	22.99
317.524	23.09
317.736	23.52
317.947	23.36
318.159	24.1
318.371	24.15
318.583	24.33
318.794	23.92
319.006	24.16
319.218	23.63
319.43	23.89
319.641	23.83
319.853	24.39
320.064	24.53
320.276	25.47
320.488	25.38
320.699	25.85
320.911	25.72
321.123	26.14
321.334	26.42
321.546	26.8
321.757	27.08
321.969	27.2
322.18	26.48
322.392	26.28
322.603	25.31
322.815	25.92
323.026	25.37
323.238	25.26
323.449	24.82
323.661	24.56
323.872	23.85
324.083	23.42
324.295	22.78
324.506	22.49
324.718	22
324.929	22.3
325.14	21.76
325.352	22.3
325.563	22.1
325.774	22.32
325.986	22.33
326.197	22.68
326.408	22.72
326.62	22.58
326.831	22.85
327.042	22.91
327.253	22.61
327.464	22.28
327.676	21.84
327.887	22.03
328.098	22.24
328.309	22.51
328.52	22.88
328.732	22.96
328.943	23.41
329.154	23.74
329.365	23.86
329.576	24.61
329.787	25.06
329.998	25.5
330.209	25.85
330.42	25.7
330.631	25.75
330.842	25.41
331.053	25.58
331.264	25.27
331.475	25.38
331.686	25.49
331.897	24.99
332.108	24.65
332.319	24.57
332.53	24.53
332.741	24.13
332.952	23.86
333.163	24.12
333.374	23.62
333.585	23.81
333.795	23.59
334.006	23.49
334.217	23.34
334.428	23.53
334.639	23.37
334.849	23.01
335.06	23.38
335.271	23.14
335.482	22.84
335.692	23.06
335.903	23.08
336.114	22.81
336.325	22.75
336.535	23.11
336.746	23.31
336.957	23.6
337.167	23.71
337.378	23.65
337.589	23.73
337.799	23.66
338.01	23.55
338.22	23.34
338.431	23.37
338.642	23.88
338.852	23.16
339.063	22.66
339.273	22.06
339.484	21.97
339.694	21.71
339.905	21.89
340.115	22.02
340.326	21.95
340.536	22.14
340.746	22.21
340.957	22.07
341.167	22.17
341.378	22.36
341.588	22.23
341.799	22.19
342.009	21.73
342.219	21.56
342.43	21.36
342.64	21.58
342.85	21.14
343.061	20.63
343.271	20.19
343.481	20.63
343.691	20.38
343.902	20.3
344.112	20.19
344.322	20.24
344.532	20.14
344.743	20.12
344.953	19.91
345.163	19.92
345.373	20.14
345.583	20.28
345.793	19.66
346.004	19.74
346.214	19.8
346.424	19.76
346.634	19.93
346.844	19.82
347.054	20.11
347.264	20.04
347.474	20.2
347.684	20.24
347.894	20.49
348.104	21.03
348.314	21.06
348.524	21.3
348.734	20.92
348.944	21.09
349.154	21.28
349.364	20.56
349.574	20.5
349.784	20.51
349.994	20.64
350.204	20.32
350.413	20.15
350.623	20.25
350.833	19.97
351.043	20.18
351.253	20.31
351.463	19.97
351.672	20.32
351.882	20.4
352.092	20.3
352.302	20.43
352.511	20.24
352.721	20.04
352.931	19.96
353.141	20.05
353.35	20.25
353.56	19.8
353.77	19.9
353.979	19.61
354.189	19.48
354.399	19.38
354.608	19.16
354.818	19.19
355.027	19.05
355.237	18.72
355.447	18.4
355.656	17.97
355.866	18.07
356.075	17.88
356.285	17.83
356.494	17.63
356.704	17.63
356.913	17.59
357.123	17.26
357.332	17.06
357.542	16.98
357.751	16.8
357.96	16.83
358.17	16.58
358.379	16.64
358.589	16.69
358.798	16.85
359.007	16.4
359.217	16.12
359.426	16.09
359.635	16.23
359.845	16.01
360.054	15.75
360.263	15.64
360.472	15.61
360.682	15.2
360.891	15.09
361.1	14.77
361.309	14.92
361.519	14.88
361.728	14.82
361.937	14.85
362.146	14.96
362.355	15.12
362.564	15.33
362.774	15.2
362.983	15.63
363.192	15.74
363.401	15.9
363.61	16.03
363.819	16.16
364.028	16.31
364.237	16.19
364.446	16.09
364.655	16.03
364.864	15.76
365.073	16.08
365.282	15.96
365.491	15.89
365.7	16.13
365.909	16.2
366.118	16.08
366.327	16.16
366.536	16.13
366.745	16.3
366.954	16.63
367.162	16.85
367.371	16.72
367.58	16.67
367.789	16.54
367.998	16.6
368.207	16.74
368.415	16.79
368.624	16.87
368.833	17.24
369.042	17.27
369.25	17.2
369.459	17.38
369.668	17.33
369.877	17.11
370.085	17.02
370.294	16.66
370.503	16.34
370.711	16.38
370.92	16.1
371.129	15.73
371.337	15.58
371.546	15.65
371.754	15.23
371.963	15.03
372.171	15.12
372.38	14.97
372.589	15.29
372.797	15.25
373.006	15.07
373.214	15.19
373.423	15.37
373.631	15.43
373.84	15.37
374.048	15.59
374.256	15.91
374.465	16.04
374.673	16.23
374.882	15.96
375.09	16.02
375.298	15.86
375.507	15.61
375.715	15.44
375.923	15.38
376.132	15.13
376.34	14.9
376.548	14.52
376.757	14.11
376.965	14.16
377.173	14.18
377.381	14.05
377.59	14.16
377.798	14.59
378.006	14.72
378.214	14.71
378.423	15
378.631	15.24
378.839	15.46
379.047	15.6
379.255	15.51
379.463	15.51
379.671	15.54
379.879	15.57
380.088	15.38
380.296	15.24
380.504	15.19
380.712	15.34
380.92	15.18
381.128	15.33
381.336	15.44
381.544	15.53
381.752	15.46
381.96	15.44
382.168	15.39
382.376	15.13
382.584	15.22
382.791	15.18
382.999	14.8
383.207	14.6
383.415	14.46
383.623	14.52
383.831	14.48
384.039	14.57
384.247	14.58
384.454	14.55
384.662	14.28
384.87	13.91
385.078	13.98
385.285	13.6
385.493	13.59
385.701	13.47
385.909	13.32
386.116	13.25
386.324	13.12
386.532	12.84
386.739	12.94
386.947	13.38
387.155	13.66
387.362	13.72
387.57	14.05
387.778	14.09
387.985	14.03
388.193	13.9
388.4	13.89
388.608	14.01
388.816	14.14
389.023	13.9
389.231	13.63
389.438	13.63
389.646	13.45
389.853	13.38
390.061	13.33
390.268	13.24
390.475	13.15
390.683	13.12
390.89	12.83
391.098	12.7
391.305	12.67
391.512	12.66
391.72	12.47
391.927	12.25
392.135	12.26
392.342	12.16
392.549	12.32
392.756	12.3
392.964	12.3
393.171	12.41
393.378	12.54
393.586	12.43
393.793	12.34
394	12.21
394.207	12.47
394.414	12.41
394.622	12.48
394.829	12.35
395.036	12.36
395.243	12.53
395.45	12.22
395.657	12.25
395.864	12.42
396.072	12.53
396.279	12.54
396.486	12.42
396.693	12.43
396.9	12.24
397.107	12.53
397.314	12.66
397.521	12.33
397.728	12.36
397.935	12.3
398.142	12.09
398.349	12.11
398.556	12.13
398.763	12.11
398.97	12.22
399.177	12.18
399.383	11.88
399.59	11.72
399.797	11.83
400.004	11.99
400.211	11.95
400.418	12.06
400.625	12.04
400.831	12.07
401.038	12.04
401.245	12.16
401.452	12.28
401.658	12.19
401.865	12.19
402.072	12.02
402.279	11.95
402.485	11.74
402.692	11.64
402.899	11.42
403.105	11.45
403.312	11.38
403.519	11.01
403.725	10.94
403.932	10.66
404.138	10.57
404.345	10.5
404.552	10.43
404.758	10.54
404.965	10.58
405.171	10.54
405.378	10.41
405.584	10.44
405.791	10.61
405.997	10.58
406.204	10.93
406.41	10.99
406.617	11.05
406.823	11.07
407.029	11.33
407.236	11.46
407.442	11.51
407.649	11.69
407.855	11.63
408.061	11.35
408.268	11.4
408.474	11.19
408.68	11.28
408.887	11.21
409.093	11.3
409.299	11.09
409.505	10.95
409.712	11.14
409.918	10.94
410.124	10.91
410.33	10.98
410.537	10.8
410.743	10.98
410.949	10.99
411.155	11.12
411.361	11.04
411.567	10.84
411.773	11.01
411.98	11
412.186	11.02
412.392	11.18
412.598	11.32
412.804	11.6
413.01	11.28
413.216	11.27
413.422	11.18
413.628	11.17
413.834	11.13
414.04	10.96
414.246	10.74
414.452	10.68
414.658	10.47
414.864	10.34
415.07	10.29
415.275	10.4
415.481	10.25
415.687	10.27
415.893	10.23
416.099	10.24
416.305	9.93
416.511	9.83
416.716	9.53
416.922	9.48
417.128	9.35
417.334	8.93
417.539	8.87
417.745	8.74
417.951	8.58
418.157	8.28
418.362	8.12
418.568	8.1
418.774	7.98
418.979	8.05
419.185	7.88
419.391	7.76
419.596	7.69
419.802	7.59
420.008	7.43
420.213	7.26
420.419	7.3
420.624	7.23
420.83	7.12
421.035	7.08
421.241	7.04
421.446	7.07
421.652	6.98
421.857	7.08
422.063	7.01
422.268	7
422.474	7.02
422.679	6.97
422.885	7.07
423.09	7.11
423.295	7.11
423.501	7.05
423.706	6.92
423.911	6.96
424.117	7
424.322	6.93
424.527	7.06
424.733	7.12
424.938	7.15
425.143	7.16
425.349	7.24
425.554	7.27
425.759	7.35
425.964	7.51
426.169	7.64
426.375	7.71
426.58	7.98
426.785	8.04
426.99	8.16
427.195	8.31
427.4	8.27
427.605	8.42
427.811	8.48
428.016	8.61
428.221	8.62
428.426	8.7
428.631	8.65
428.836	8.6
429.041	8.56
429.246	8.59
429.451	8.54
429.656	8.65
429.861	8.61
430.066	8.66
430.271	8.6
430.476	8.66
430.681	8.6
430.886	8.6
431.09	8.64
431.295	8.62
431.5	8.64
431.705	8.64
431.91	8.47
432.115	8.24
432.32	8.23
432.524	8.21
432.729	8.19
432.934	8.19
433.139	8.24
433.343	8.13
433.548	8.06
433.753	7.98
433.958	7.97
434.162	8.07
434.367	8.28
434.572	8.26
434.776	8.19
434.981	8.22
435.186	8.14
435.39	8.09
435.595	8.17
435.799	8.22
436.004	8.23
436.209	8.21
436.413	8.13
436.618	7.98
436.822	8.07
437.027	8.13
437.231	8.04
437.436	8
437.64	8
437.845	7.92
438.049	7.83
438.253	7.72
438.458	7.7
438.662	7.66
438.867	7.55
439.071	7.47
439.275	7.29
439.48	7.37
439.684	7.23
439.888	7.07
440.093	7
440.297	6.91
440.501	6.9
440.706	6.86
440.91	6.92
441.114	6.98
441.318	7
441.523	7.05
441.727	6.91
441.931	7.05
442.135	7.21
442.339	7.2
442.543	7.38
442.748	7.42
442.952	7.44
443.156	7.5
443.36	7.54
443.564	7.49
443.768	7.55
443.972	7.61
444.176	7.54
444.38	7.35
444.584	7.34
444.788	7.23
444.992	7.1
445.196	7.05
445.4	6.83
445.604	6.76
445.808	6.69
446.012	6.57
446.216	6.46
446.42	6.41
446.624	6.47
446.828	6.41
447.032	6.3
447.235	6.29
447.439	6.34
447.643	6.27
447.847	6.36
448.051	6.38
448.254	6.42
448.458	6.58
448.662	6.62
448.866	6.58
449.069	6.7
449.273	6.96
449.477	7.08
449.681	7.16
449.884	7.47
450.088	7.49
450.292	7.49
450.495	7.6
450.699	7.64
450.902	7.8
451.106	7.93
451.31	7.98
451.513	7.86
451.717	7.9
451.92	7.9
452.124	7.81
452.327	7.93
452.531	8
452.734	8.05
452.938	7.95
453.141	7.86
453.345	7.83
453.548	7.87
453.752	7.92
453.955	8.06
454.158	8.06
454.362	8.05
454.565	7.87
454.769	7.87
454.972	7.88
455.175	7.94
455.379	8
455.582	8
455.785	7.96
455.988	7.96
456.192	7.72
456.395	7.7
456.598	7.61
456.801	7.61
457.005	7.52
457.208	7.49
457.411	7.33
457.614	7.27
457.817	7.24
458.021	7.06
458.224	6.95
458.427	6.94
458.63	6.8
458.833	6.86
459.036	6.75
459.239	6.66
459.442	6.46
459.645	6.42
459.848	6.29
460.051	6.24
460.254	6.26
460.457	6.2
460.66	6.28
460.863	6.36
461.066	6.32
461.269	6.44
461.472	6.6
461.675	6.76
461.878	6.93
462.081	7.11
462.284	7.27
462.486	7.49
462.689	7.62
462.892	7.69
463.095	7.83
463.298	7.87
463.5	7.99
463.703	8.1
463.906	8.29
464.109	8.3
464.311	8.36
464.514	8.38
464.717	8.34
464.92	8.36
465.122	8.36
465.325	8.44
465.528	8.53
465.73	8.46
465.933	8.31
466.135	8.12
466.338	8.12
466.541	7.97
466.743	7.86
466.946	7.83
467.148	7.89
467.351	7.85
467.553	7.75
467.756	7.67
467.958	7.59
468.161	7.59
468.363	7.63
468.566	7.62
468.768	7.69
468.971	7.67
469.173	7.64
469.375	7.57
469.578	7.34
469.78	7.29
469.983	7.4
470.185	7.48
470.387	7.39
470.59	7.39
470.792	7.43
470.994	7.52
471.196	7.62
471.399	7.66
471.601	7.67
471.803	7.94
472.005	7.94
472.208	7.94
472.41	7.85
472.612	7.96
472.814	7.86
473.016	7.82
473.218	7.83
473.421	7.74
473.623	7.77
473.825	7.84
474.027	7.7
474.229	7.65
474.431	7.57
474.633	7.68
474.835	7.6
475.037	7.68
475.239	7.62
475.441	7.54
475.643	7.55
475.845	7.45
476.047	7.38
476.249	7.35
476.451	7.3
476.653	7.28
476.855	7.17
477.057	7.07
477.258	6.89
477.46	6.98
477.662	6.99
477.864	6.94
478.066	6.98
478.268	6.94
478.469	7
478.671	7.06
478.873	6.96
479.075	6.98
479.276	7.02
479.478	7.11
479.68	7.02
479.882	7
480.083	7.02
480.285	6.95
480.487	6.93
480.688	6.76
480.89	6.65
481.091	6.56
481.293	6.39
481.495	6.22
481.696	6.03
481.898	5.79
482.099	5.52
482.301	5.34
482.502	5.13
482.704	4.95
482.905	4.88
483.107	4.72
483.308	4.63
483.51	4.58
483.711	4.52
483.913	4.49
484.114	4.45
484.315	4.47
484.517	4.49
484.718	4.54
484.92	4.59
485.121	4.59
485.322	4.65
485.524	4.69
485.725	4.7
485.926	4.77
486.127	4.76
486.329	4.82
486.53	4.84
486.731	4.77
486.932	4.72
487.134	4.68
487.335	4.65
487.536	4.65
487.737	4.63
487.938	4.64
488.139	4.65
488.341	4.68
488.542	4.69
488.743	4.75
488.944	4.83
489.145	4.9
489.346	5
489.547	5.11
489.748	5.15
489.949	5.21
490.15	5.21
490.351	5.16
490.552	5.2
490.753	5.13
490.954	5.03
491.155	4.99
491.356	4.97
491.557	4.96
491.758	4.93
491.959	4.94
492.159	4.97
492.36	5.04
492.561	5.14
492.762	5.22
492.963	5.4
493.164	5.52
493.364	5.6
493.565	5.7
493.766	5.74
493.967	5.85
494.167	5.96
494.368	6.03
494.569	6.13
494.769	6.13
494.97	6.18
495.171	6.21
495.371	6.3
495.572	6.39
495.773	6.38
495.973	6.38
496.174	6.44
496.375	6.47
496.575	6.47
496.776	6.43
496.976	6.47
497.177	6.5
497.377	6.48
497.578	6.44
497.778	6.4
497.979	6.48
498.179	6.57
498.38	6.49
498.58	6.48
498.78	6.47
498.981	6.55
499.181	6.6
499.382	6.51
499.582	6.56
499.782	6.67
499.983	6.76
500.183	6.73
500.383	6.76
500.584	6.91
500.784	6.92
500.984	7
501.184	6.94
501.385	6.99
501.585	7.13
501.785	7.14
501.985	7.13
502.185	7.2
502.386	7.25
502.586	7.24
502.786	7.33
502.986	7.29
503.186	7.33
503.386	7.43
503.586	7.5
503.786	7.47
503.987	7.41
504.187	7.41
504.387	7.37
504.587	7.45
504.787	7.51
504.987	7.47
505.187	7.56
505.387	7.55
505.587	7.5
505.786	7.45
505.986	7.53
506.186	7.58
506.386	7.6
506.586	7.6
506.786	7.48
506.986	7.48
507.186	7.37
507.386	7.42
507.585	7.43
507.785	7.44
507.985	7.41
508.185	7.35
508.384	7.4
508.584	7.36
508.784	7.32
508.984	7.46
509.183	7.39
509.383	7.48
509.583	7.47
509.782	7.47
509.982	7.57
510.182	7.58
510.381	7.62
510.581	7.57
510.781	7.55
510.98	7.64
511.18	7.6
511.379	7.73
511.579	7.68
511.778	7.57
511.978	7.54
512.177	7.5
512.377	7.56
512.576	7.57
512.776	7.64
512.975	7.7
513.175	7.76
513.374	7.69
513.573	7.68
513.773	7.8
513.972	7.97
514.172	8.09
514.371	8.2
514.57	8.12
514.77	8.15
514.969	8.15
515.168	8.21
515.367	8.17
515.567	8.32
515.766	8.26
515.965	8.18
516.164	8.17
516.364	8.13
516.563	8.01
516.762	8.06
516.961	7.99
517.16	7.92
517.359	7.85
517.559	7.8
517.758	7.8
517.957	7.8
518.156	7.81
518.355	7.79
518.554	7.82
518.753	7.84
518.952	7.82
519.151	7.9
519.35	7.95
519.549	8.05
519.748	8.1
519.947	8.17
520.146	8.27
520.345	8.41
520.544	8.52
520.743	8.55
520.942	8.56
521.141	8.71
521.339	8.82
521.538	8.93
521.737	8.99
521.936	9.16
522.135	9.17
522.333	9.31
522.532	9.31
522.731	9.35
522.93	9.4
523.129	9.62
523.327	9.56
523.526	9.49
523.725	9.43
523.923	9.39
524.122	9.28
524.321	9.21
524.519	9.09
524.718	9.12
524.917	9.08
525.115	9.03
525.314	8.91
525.512	8.91
525.711	8.86
525.909	8.88
526.108	8.91
526.306	8.88
526.505	8.92
526.703	8.86
526.902	8.79
527.1	8.68
527.299	8.65
527.497	8.62
527.696	8.57
527.894	8.54
528.092	8.51
528.291	8.46
528.489	8.46
528.688	8.42
528.886	8.44
529.084	8.46
529.283	8.55
529.481	8.61
529.679	8.65
529.877	8.79
530.076	8.88
530.274	9
530.472	9.09
530.67	9.17
530.869	9.34
531.067	9.44
531.265	9.58
531.463	9.64
531.661	9.7
531.859	9.77
532.057	9.8
532.255	9.86
532.454	9.82
532.652	9.81
532.85	9.81
533.048	9.79
533.246	9.83
533.444	9.74
533.642	9.73
533.84	9.79
534.038	9.85
534.236	9.86
534.434	9.96
534.632	10.06
534.83	10.13
535.027	10.24
535.225	10.31
535.423	10.39
535.621	10.52
535.819	10.61
536.017	10.64
536.215	10.66
536.412	10.75
536.61	10.75
536.808	10.79
537.006	10.82
537.203	10.91
537.401	10.99
537.599	10.94
537.797	11.03
537.994	11.15
538.192	11.27
538.39	11.43
538.587	11.48
538.785	11.55
538.983	11.51
539.18	11.62
539.378	11.55
539.575	11.58
539.773	11.7
539.97	11.64
540.168	11.59
540.366	11.57
540.563	11.41
540.761	11.36
540.958	11.28
541.155	11.29
541.353	11.27
541.55	11.3
541.748	11.31
541.945	11.29
542.143	11.34
542.34	11.39
542.537	11.41
542.735	11.57
542.932	11.64
543.129	11.75
543.327	11.87
543.524	11.98
543.721	12.09
543.919	12.19
544.116	12.33
544.313	12.41
544.51	12.52
544.708	12.61
544.905	12.61
545.102	12.68
545.299	12.76
545.496	12.85
545.693	12.91
545.891	12.98
546.088	13.04
546.285	13.06
546.482	13.13
546.679	13.09
546.876	13.08
547.073	13.14
547.27	13.25
547.467	13.29
547.664	13.43
547.861	13.53
548.058	13.66
548.255	13.67
548.452	13.85
548.649	14.02
548.846	14.24
549.043	14.36
549.24	14.52
549.437	14.67
549.633	14.73
549.83	14.77
550.027	14.82
550.224	14.88
550.421	14.95
550.618	14.93
550.814	14.94
551.011	14.9
551.208	15.1
551.405	15.02
551.601	15.14
551.798	15.23
551.995	15.22
552.191	15.24
552.388	15.17
552.585	15.27
552.781	15.3
552.978	15.29
553.175	15.39
553.371	15.36
553.568	15.53
553.764	15.47
553.961	15.41
554.157	15.43
554.354	15.5
554.55	15.8
554.747	15.94
554.943	15.91
555.14	16.03
555.336	16.01
555.533	16.07
555.729	16.08
555.926	16.14
556.122	16.4
556.318	16.42
556.515	16.5
556.711	16.49
556.907	16.53
557.104	16.78
557.3	16.77
557.496	16.84
557.693	16.97
557.889	17.18
558.085	17.09
558.281	17.26
558.478	17.36
558.674	17.34
558.87	17.3
559.066	17.18
559.262	17.23
559.459	17.24
559.655	17.31
559.851	17.27
560.047	17.36
560.243	17.45
560.439	17.34
560.635	17.4
560.831	17.44
561.027	17.42
561.223	17.38
561.419	17.37
561.615	17.49
561.811	17.48
562.007	17.53
562.203	17.3
562.399	17.41
562.595	17.36
562.791	17.52
562.987	17.57
563.183	17.67
563.379	17.87
563.575	17.84
563.771	17.67
563.966	17.59
564.162	17.68
564.358	17.78
564.554	17.72
564.75	17.67
564.945	17.57
565.141	17.59
565.337	17.49
565.533	17.51
565.728	17.44
565.924	17.41
566.12	17.46
566.315	17.42
566.511	17.43
566.707	17.47
566.902	17.59
567.098	17.52
567.293	17.54
567.489	17.57
567.684	17.57
567.88	17.55
568.076	17.74
568.271	17.89
568.467	17.82
568.662	17.79
568.858	17.82
569.053	17.79
569.248	17.95
569.444	18.11
569.639	18.11
569.835	18.07
570.03	18.16
570.225	18.06
570.421	17.99
570.616	18.11
570.812	18.14
571.007	18.06
571.202	18.15
571.397	18.19
571.593	17.95
571.788	18.05
571.983	18.11
572.178	18.17
572.374	18.32
572.569	18.35
572.764	18.32
572.959	18.29
573.154	18.31
573.35	18.32
573.545	18.28
573.74	18.4
573.935	18.38
574.13	18.26
574.325	18.24
574.52	18.27
574.715	18.44
574.91	18.49
575.105	18.7
575.3	18.81
575.495	18.89
575.69	18.96
575.885	19.12
576.08	19.18
576.275	19.24
576.47	19.22
576.665	19.2
576.86	19.19
577.055	19.26
577.25	19.18
577.444	19.18
577.639	19.39
577.834	19.3
578.029	19.42
578.224	19.5
578.418	19.79
578.613	20
578.808	20.08
579.003	20.08
579.197	20.08
579.392	20.11
579.587	20.32
579.781	20.16
579.976	20.34
580.171	20.14
580.365	20.11
580.56	20.08
580.755	20.09
580.949	20.25
581.144	20.35
581.338	20.43
581.533	20.63
581.727	20.64
581.922	20.64
582.116	20.81
582.311	20.99
582.505	21.22
582.7	21.19
582.894	21.38
583.089	21.26
583.283	21.16
583.478	21.39
583.672	21.31
583.866	21.19
584.061	21.14
584.255	20.98
584.449	20.87
584.644	20.91
584.838	20.9
585.032	20.7
585.226	20.79
585.421	20.78
585.615	20.59
585.809	20.59
586.003	20.76
586.198	20.87
586.392	20.98
586.586	21.06
586.78	21.07
586.974	21.28
587.168	21.42
587.363	21.38
587.557	21.41
587.751	21.47
587.945	21.61
588.139	21.64
588.333	21.48
588.527	21.44
588.721	21.37
588.915	21.24
589.109	20.94
589.303	20.9
589.497	20.85
589.691	20.94
589.885	20.79
590.079	20.79
590.273	20.76
590.466	20.93
590.66	20.95
590.854	21.02
591.048	21.09
591.242	21.24
591.436	21.27
591.629	21.28
591.823	21.22
592.017	21.47
592.211	21.27
592.404	21.14
592.598	21.02
592.792	21.04
592.986	21.05
593.179	20.96
593.373	21.05
593.567	21.02
593.76	21.14
593.954	21.21
594.147	21.07
594.341	21.14
594.535	21.27
594.728	21.23
594.922	21.21
595.115	21.18
595.309	21.13
595.502	21.03
595.696	20.83
595.889	20.6
596.083	20.59
596.276	20.56
596.47	20.44
596.663	20.36
596.856	20.45
597.05	20.38
597.243	20.33
597.437	20.48
597.63	20.5
597.823	20.75
598.017	21.07
598.21	20.99
598.403	21.08
598.596	21.24
598.79	21.4
598.983	21.52
599.176	21.72
599.369	21.96
599.563	21.99
599.756	22.08
599.949	22.03
600.142	21.95
600.335	22.18
600.528	22.25
600.722	22.49
600.915	22.53
601.108	22.56
601.301	22.59
601.494	22.4
601.687	22.41
601.88	22.32
602.073	22.23
602.266	22.29
602.459	22.18
602.652	21.9
602.845	21.64
603.038	21.53
603.231	21.41
603.424	21.21
603.617	21.19
603.809	21.02
604.002	20.91
604.195	20.95
604.388	20.81
604.581	20.76
604.774	20.92
604.966	20.89
605.159	20.79
605.352	20.84
605.545	20.89
605.737	20.86
605.93	20.92
606.123	21.17
606.316	21.14
606.508	21.29
606.701	21.47
606.894	21.49
607.086	21.66
607.279	21.77
607.471	21.62
607.664	21.82
607.857	22.06
608.049	22.25
608.242	22.16
608.434	22.19
608.627	22.14
608.819	21.99
609.012	21.99
609.204	22
609.397	22.11
609.589	22.37
609.782	22.31
609.974	22.37
610.166	22.51
610.359	22.73
610.551	22.95
610.743	23.11
610.936	23.37
611.128	23.5
611.32	23.72
611.513	23.9
611.705	23.97
611.897	24.17
612.09	24.3
612.282	24.26
612.474	24.38
612.666	24.64
612.858	24.74
613.051	24.74
613.243	24.98
613.435	24.96
613.627	24.85
613.819	24.86
614.011	25.19
614.203	25.12
614.395	25.12
614.588	24.84
614.78	24.77
614.972	24.95
615.164	24.79
615.356	24.77
615.548	24.74
615.74	24.84
615.932	24.96
616.124	24.62
616.315	24.69
616.507	24.78
616.699	24.94
616.891	24.9
617.083	24.75
617.275	25.1
617.467	24.97
617.659	25.18
617.85	25.19
618.042	25.06
618.234	25
618.426	24.84
618.618	24.88
618.809	24.76
619.001	24.42
619.193	24.4
619.384	24.32
619.576	24.37
619.768	24.28
619.959	24.32
620.151	24.57
620.343	24.66
620.534	24.76
620.726	24.59
620.917	24.8
621.109	25.11
621.301	25.21
621.492	25.1
621.684	25.19
621.875	25.25
622.067	25.17
622.258	25.12
622.45	25.03
622.641	25.13
622.832	25.1
623.024	25.01
623.215	24.99
623.407	24.89
623.598	25.19
623.789	25.11
623.981	24.83
624.172	24.9
624.363	24.72
624.555	24.76
624.746	24.42
624.937	24.34
625.129	24.3
625.32	24.15
625.511	24.16
625.702	23.84
625.893	23.92
626.085	23.87
626.276	23.65
626.467	23.49
626.658	23.31
626.849	23.44
627.04	23.5
627.231	23.38
627.422	23.42
627.614	23.42
627.805	23.44
627.996	23.33
628.187	23.4
628.378	23.4
628.569	23.69
628.76	23.92
628.951	23.93
629.142	23.86
629.332	23.91
629.523	24.21
629.714	24.34
629.905	24.6
630.096	24.69
630.287	24.77
630.478	25
630.669	24.86
630.859	25.05
631.05	25.09
631.241	25.34
631.432	25.4
631.623	25.22
631.813	25.04
632.004	24.97
632.195	24.89
632.385	24.87
632.576	24.9
632.767	24.9
632.957	24.6
633.148	24.75
633.339	24.61
633.529	24.58
633.72	24.46
633.91	24.6
634.101	24.41
634.292	24.45
634.482	24.51
634.673	24.76
634.863	24.87
635.054	24.96
635.244	24.8
635.435	24.91
635.625	25
635.815	24.91
636.006	24.81
636.196	24.88
636.387	24.87
636.577	25.06
636.767	24.94
636.958	24.83
637.148	24.87
637.338	25.08
637.529	25.07
637.719	25.13
637.909	25.33
638.099	25.36
638.29	25.17
638.48	25.11
638.67	25.08
638.86	25.04
639.05	25.32
639.241	25.63
639.431	25.48
639.621	25.54
639.811	25.67
640.001	25.61
640.191	25.79
640.381	26.03
640.571	26.38
640.761	26.3
640.951	26.38
641.141	26.37
641.331	26.19
641.521	26.33
641.711	26.44
641.901	26.57
642.091	26.87
642.281	26.76
642.471	26.74
642.661	26.85
642.851	26.96
643.041	27.06
643.231	26.95
643.42	26.85
643.61	26.94
643.8	26.93
643.99	26.76
644.18	26.58
644.369	26.5
644.559	26.78
644.749	26.63
644.939	26.55
645.128	26.46
645.318	26.53
645.508	26.55
645.697	26.57
645.887	26.51
646.076	26.52
646.266	26.85
646.456	27.33
646.645	27.23
646.835	27.21
647.024	27.14
647.214	27.17
647.403	27.46
647.593	27.47
647.782	27.52
647.972	27.61
648.161	27.8
648.351	27.45
648.54	27.25
648.73	27.34
648.919	27.17
649.108	27.37
649.298	27.26
649.487	27.12
649.677	27.06
649.866	26.99
650.055	27.12
650.244	26.75
650.434	26.71
650.623	26.58
650.812	26.59
651.002	26.66
651.191	26.71
651.38	26.9
651.569	26.93
651.758	26.99
651.947	27.01
652.137	26.86
652.326	27.22
652.515	27.4
652.704	27.53
652.893	27.33
653.082	27.43
653.271	27.29
653.46	27.17
653.649	27.17
653.838	27.41
654.027	27.24
654.216	27.21
654.405	27.4
654.594	27.19
654.783	27.25
654.972	27.75
655.161	27.82
655.35	27.58
655.539	28.01
655.728	27.84
655.916	27.39
656.105	27.34
656.294	27.4
656.483	26.93
656.672	26.86
656.86	26.79
657.049	26.2
657.238	25.93
657.427	26.1
657.615	25.82
657.804	25.57
657.993	25.45
658.181	25.38
658.37	25.35
658.559	25.29
658.747	25.52
658.936	25.46
659.125	25.95
659.313	25.9
659.502	25.9
659.69	25.78
659.879	26
660.067	26.15
660.256	26.33
660.444	26.17
660.633	26.28
660.821	26.33
661.01	26.33
661.198	25.98
661.387	26.19
661.575	26.34
661.763	26.48
661.952	26.68
662.14	27.1
662.328	27.39
662.517	27.75
662.705	27.97
662.893	28.11
663.082	28.36
663.27	28.81
663.458	28.98
663.646	28.99
663.834	29.17
664.023	29.24
664.211	29.29
664.399	29.32
664.587	29.44
664.775	29.58
664.963	29.53
665.152	29.75
665.34	29.68
665.528	29.35
665.716	29.82
665.904	29.99
666.092	29.98
666.28	29.77
666.468	29.35
666.656	29.26
666.844	29.31
667.032	29.46
667.22	29.17
667.408	28.93
667.596	29.25
667.784	28.62
667.971	28.49
668.159	28.44
668.347	28.67
668.535	28.99
668.723	28.95
668.911	28.97
669.098	28.67
669.286	28.85
669.474	28.95
669.662	28.74
669.849	29.06
670.037	29.15
670.225	29.06
670.413	29.21
670.6	29.25
670.788	29.54
670.976	29.32
671.163	29.31
671.351	29.1
671.538	29.08
671.726	29.41
671.913	29.57
672.101	29.19
672.289	29.11
672.476	28.79
672.664	28.88
672.851	28.72
673.039	28.89
673.226	29.07
673.413	28.98
673.601	28.9
673.788	29.06
673.976	28.8
674.163	29.11
674.35	29.3
674.538	29.39
674.725	29.65
674.912	29.64
675.1	29.53
675.287	29.68
675.474	30.09
675.662	30.04
675.849	29.74
676.036	29.68
676.223	29.41
676.411	29.52
676.598	29.72
676.785	29.34
676.972	29.28
677.159	29.5
677.346	29.31
677.533	28.92
677.721	29.05
677.908	29.28
678.095	29.32
678.282	29.35
678.469	29.26
678.656	28.93
678.843	28.38
679.03	28.28
679.217	28.15
679.404	28.05
679.591	28
679.778	27.81
679.964	27.47
680.151	27.46
680.338	27.54
680.525	27.46
680.712	27.43
680.899	28.21
681.086	28.57
681.272	28.49
681.459	28.62
681.646	28.96
681.833	28.94
682.02	29.29
682.206	29.66
682.393	29.84
682.58	29.86
682.766	30.19
682.953	29.91
683.14	29.47
683.326	30.18
683.513	30.29
683.7	30.29
683.886	30.41
684.073	30.65
684.259	30.65
684.446	30.67
684.632	31.14
684.819	31.21
685.005	31.15
685.192	31.41
685.378	31.22
685.565	31.22
685.751	31.14
685.938	31.28
686.124	31.15
686.31	30.92
686.497	30.98
686.683	30.65
686.87	30.74
687.056	30.82
687.242	31.02
687.429	30.81
687.615	31.07
687.801	31.46
687.987	31.67
688.174	31.61
688.36	31.85
688.546	31.78
688.732	32.15
688.918	32.07
689.105	32.12
689.291	32.09
689.477	32
689.663	32.05
689.849	31.41
690.035	31.68
690.221	32.13
690.407	32.38
690.593	32.5
690.779	32.45
690.965	32.4
691.151	32.71
691.337	32.82
691.523	33.22
691.709	33.27
691.895	33.67
692.081	33.58
692.267	33.29
692.453	33.02
692.639	33.12
692.825	32.79
693.011	32.85
693.196	32.7
693.382	32.43
693.568	32.13
693.754	32.34
693.94	32.59
694.125	32.74
694.311	32.97
694.497	32.93
694.682	32.85
694.868	33.25
695.054	33.42
695.239	33.48
695.425	33.59
695.611	33.79
695.796	33.42
695.982	33.25
696.168	32.55
696.353	31.71
696.539	31.48
696.724	30.93
696.91	30.44
697.095	30.26
697.281	29.69
697.466	29.37
697.652	28.86
697.837	28.69
698.023	28.39
698.208	28.31
698.393	28.14
698.579	28.14
698.764	28.08
698.949	28.09
699.135	27.89
699.32	28.16
699.505	28.35
699.691	28.53
699.876	28.62
700.061	28.81
700.246	29.06
700.432	29.77
700.617	29.94
700.802	30.32
700.987	30.89
701.172	31.51
701.358	32.04
701.543	32.76
701.728	33.01
701.913	33.3
702.098	34.1
702.283	34.62
702.468	34.73
702.653	35.12
702.838	35.78
703.023	35.91
703.208	35.77
703.393	35.86
703.578	35.68
703.763	36.23
703.948	36.67
704.133	36.56
704.318	36.93
704.503	37.47
704.688	37.43
704.873	37.79
705.057	37.88
705.242	38.08
705.427	37.82
705.612	37.42
705.797	37.29
705.981	37.55
706.166	37.32
706.351	37.19
706.536	36.87
706.72	36.71
706.905	36.25
707.09	35.95
707.274	35.74
707.459	36.11
707.644	36.15
707.828	36.34
708.013	35.92
708.197	35.66
708.382	35.47
708.567	35.12
708.751	34.83
708.936	34.49
709.12	34.74
709.305	34.64
709.489	34.67
709.673	34.94
709.858	34.91
710.042	35.24
710.227	35.51
710.411	35.61
710.596	35.65
710.78	36.08
710.964	35.87
711.149	35.82
711.333	35.71
711.517	35.2
711.702	35.44
711.886	35.13
712.07	34.43
712.254	34.66
712.438	34.54
712.623	34.56
712.807	34.78
712.991	35.49
713.175	35.41
713.359	35.55
713.544	35.9
713.728	35.76
713.912	35.5
714.096	36
714.28	35.52
714.464	35.47
714.648	35.67
714.832	35.13
715.016	34.88
715.2	34.87
715.384	35.32
715.568	35
715.752	34.44
715.936	34.8
716.12	34.65
716.304	35.12
716.488	35.03
716.671	34.8
716.855	35.35
717.039	35.43
717.223	35.3
717.407	35.36
717.59	36.09
717.774	36.53
717.958	36.83
718.142	36.73
718.325	36.58
718.509	37.33
718.693	37.83
718.877	37.58
719.06	37.64
719.244	37.97
719.428	38.18
719.611	38.52
719.795	38.76
719.978	39.1
720.162	39.86
720.345	40.53
720.529	40.27
720.713	39.83
720.896	39.93
721.08	40.06
721.263	40.57
721.446	40.37
721.63	39.65
721.813	39.91
721.997	39.93
722.18	39.82
722.364	39.33
722.547	39.42
722.73	39.96
722.914	40.45
723.097	40.77
723.28	40.43
723.464	40.34
723.647	41.02
723.83	40.87
724.013	40.93
724.197	40.95
724.38	41.43
724.563	41.55
724.746	41.68
724.929	41.98
725.112	41.9
725.296	42.05
725.479	41.86
725.662	41.14
725.845	41.24
726.028	40.58
726.211	40.75
726.394	40.38
726.577	40.21
726.76	39.47
726.943	38.65
727.126	38.73
727.309	38.5
727.492	38.99
727.675	38.8
727.858	38.5
728.041	38.45
728.224	37.85
728.407	37.61
728.589	37.52
728.772	38
728.955	38.57
729.138	37.96
729.321	38.25
729.503	37.75
729.686	38.11
729.869	38.16
730.052	38.39
730.234	38.62
730.417	38.35
730.6	38.31
730.782	38.32
730.965	37.9
731.148	37.99
731.33	37.53
731.513	38
731.695	38.02
731.878	38.12
732.061	37.63
732.243	38.14
732.426	38.47
732.608	38.71
732.791	39.26
732.973	39.42
733.156	40.31
733.338	40.51
733.52	40.36
733.703	40.1
733.885	40.36
734.068	41.13
734.25	40.7
734.432	40.74
734.615	40.14
734.797	40.13
734.979	40.36
735.162	39.69
735.344	40.27
735.526	40.45
735.708	41.4
735.891	41.7
736.073	41.77
736.255	41.88
736.437	41.87
736.619	42.59
736.802	42.51
736.984	42.81
737.166	43.56
737.348	43.43
737.53	43.43
737.712	42.82
737.894	42.8
738.076	42.87
738.258	43.33
738.44	43.45
738.622	43.56
738.804	43.46
738.986	43.23
739.168	42.67
739.35	42.59
739.532	42.7
739.714	43.37
739.896	42.71
740.078	42.86
740.259	42.52
740.441	42.84
740.623	42.51
740.805	42.53
740.987	42.68
741.168	42.93
741.35	43.14
741.532	43.88
741.714	44.18
741.895	44.82
742.077	44.89
742.259	44.68
742.44	44.69
742.622	45.48
742.804	45.31
742.985	45.09
743.167	45.24
743.348	45.32
743.53	44.3
743.711	43.93
743.893	44.23
744.075	44.01
744.256	44.22
744.438	44.65
744.619	44.73
744.8	45.15
744.982	46.15
745.163	46.83
745.345	46.94
745.526	47.83
745.707	48.08
745.889	48.58
746.07	49.59
746.252	50.22
746.433	50.32
746.614	50.5
746.795	50.25
746.977	49.44
747.158	49.75
747.339	50.03
747.52	50.22
747.702	49.95
747.883	49.72
748.064	49.61
748.245	49.76
748.426	50.01
748.607	50.32
748.788	50.32
748.97	50.81
749.151	50.51
749.332	50.39
749.513	50.26
749.694	50.24
749.875	51.15
750.056	51.38
750.237	51.19
750.418	50.86
750.599	50.57
750.78	51.48
750.96	51.51
751.141	51.4
751.322	51.19
751.503	50.45
751.684	50.95
751.865	49.67
752.046	48.64
752.226	48.19
752.407	48.35
752.588	48.13
752.769	47.97
752.949	47.45
753.13	47.77
753.311	48.3
753.492	48.92
753.672	49.02
753.853	49.57
754.034	50.26
754.214	50.89
754.395	50.93
754.575	51.12
754.756	51.22
754.937	51.91
755.117	52.02
755.298	52.04
755.478	52.08
755.659	51.91
755.839	51.95
756.02	52.02
756.2	51.92
756.381	52.28
756.561	51.52
756.741	51.42
756.922	51.14
757.102	50.9
757.283	50.46
757.463	50.64
757.643	50.91
757.823	51
758.004	50.47
758.184	50.57
758.364	50.51
758.545	50.82
758.725	50.51
758.905	50.47
759.085	49.87
759.265	49.23
759.446	48.46
759.626	47.72
759.806	47.19
759.986	47.11
760.166	46.18
760.346	45.32
760.526	45.45
760.706	45.02
760.886	44.77
761.066	45.18
761.246	45.39
761.426	45.85
761.606	45.54
761.786	45.2
761.966	44.95
762.146	44.91
762.326	44.43
762.506	43.9
762.686	43.62
762.866	42.94
763.046	41.85
763.225	41.54
763.405	40.66
763.585	40.14
763.765	39.79
763.945	39.77
764.124	40.26
764.304	40.46
764.484	40.7
764.664	40.45
764.843	40.69
765.023	41.53
765.203	42.06
765.382	42.57
765.562	43.55
765.741	44.02
765.921	44.42
766.101	44.36
766.28	44.83
766.46	45.02
766.639	46.67
766.819	47.7
766.998	47.4
767.178	47.54
767.357	48.09
767.537	48.37
767.716	48.89
767.896	48.61
768.075	48.54
768.254	49.19
768.434	50.08
768.613	49.31
768.792	49.11
768.972	49.84
769.151	50.31
769.33	50.67
769.51	51.86
769.689	52.24
769.868	53.26
770.047	54.26
770.226	54.66
770.406	54.34
770.585	55.56
770.764	55.44
770.943	55.73
771.122	56.2
771.301	57.76
771.48	56.56
771.66	56.87
771.839	56.99
772.018	57.46
772.197	57.27
772.376	57.4
772.555	56.85
772.734	57.45
772.913	57.26
773.092	56.56
773.271	55.12
773.449	55.71
773.628	54.7
773.807	54.66
773.986	54.32
774.165	54.86
774.344	55.35
774.523	55.11
774.701	55.27
774.88	54.99
775.059	55.4
775.238	56.42
775.417	56.78
775.595	59
775.774	58.79
775.953	58.7
776.131	58.58
776.31	58.13
776.489	57.93
776.667	58.26
776.846	59.35
777.025	59.02
777.203	58.05
777.382	58.25
777.56	57
777.739	58.39
777.917	58.9
778.096	59.7
778.274	59.79
778.453	59.98
778.631	60.61
778.81	60.39
778.988	60.99
779.166	61.33
779.345	60.4
779.523	60.81
779.702	59.99
779.88	60.65
780.058	59.99
780.237	60.79
780.415	61.81
780.593	61.43
780.771	61.51
780.95	62.15
781.128	62.59
781.306	63.02
781.484	63.32
781.662	62.87
781.841	62.45
782.019	61.42
782.197	61.48
782.375	61.39
782.553	60.69
782.731	61
782.909	60.46
783.087	61.41
783.265	62.38
783.443	61.83
783.621	62.86
783.799	63.01
783.977	64.09
784.155	63.97
784.333	63.9
784.511	64.36
784.689	63.67
784.867	63.7
785.045	62.34
785.223	61.78
785.4	62.35
785.578	61.82
785.756	61.56
785.934	61.13
786.112	61.19
786.289	60.96
786.467	60.95
786.645	61.55
786.823	60.75
787	60.94
787.178	60.73
787.356	60.86
787.533	60.37
787.711	59.99
787.889	60.72
788.066	59.87
788.244	59.93
788.421	59.69
788.599	59.3
788.776	60.88
788.954	60.92
789.131	60.68
789.309	60.37
789.486	61.74
789.664	62.7
789.841	62.79
790.019	64.42
790.196	65.11
790.373	65.73
790.551	66.9
790.728	65.49
790.906	66.26
791.083	67.77
791.26	68.17
791.437	67.52
791.615	66.92
791.792	66.41
791.969	65.3
792.146	65.25
792.324	65.8
792.501	66.06
792.678	67.32
792.855	66.72
793.032	66.11
793.209	67.4
793.387	67.71
793.564	68.47
793.741	68.34
793.918	68.48
794.095	68.97
794.272	68.01
794.449	67.08
794.626	66.84
794.803	67.55
794.98	67.91
795.157	66.96
795.334	67.84
795.511	66.45
795.688	66.77
795.864	66.91
796.041	67.15
796.218	68.25
796.395	68.56
796.572	68.74
796.749	68.31
796.925	67.29
797.102	68.24
797.279	67.04
797.456	67.25
797.632	67.46
797.809	67.25
797.986	66.6
798.162	65.57
798.339	64.61
798.516	64.98
798.692	64.66
798.869	65.31
799.046	64.46
799.222	64.75
799.399	65.42
799.575	66.17
799.752	66.51
799.928	66.48
800.105	67.24
800.281	68.79
800.458	68.68
800.634	69.16
800.811	69.28
800.987	70.33
801.163	70.43
801.34	71.66
801.516	71.09
801.692	71.8
801.869	72.07
802.045	71.91
802.221	72.89
802.398	73.01
802.574	73.75
802.75	74.96
802.926	73.65
803.103	74.26
803.279	72.61
803.455	73.24
803.631	72.52
803.807	72.36
803.983	72.75
804.16	72.05
804.336	71.45
804.512	71.79
804.688	71.45
804.864	71.8
805.04	71.29
805.216	72.16
805.392	71.2
805.568	72.74
805.744	72.21
805.92	72.92
806.096	73.1
806.272	74.53
806.448	76
806.623	75.57
806.799	77.18
806.975	77.03
807.151	77.73
807.327	77.97
807.503	76.97
807.678	77.78
807.854	76.74
808.03	76.37
808.206	75.19
808.381	72.45
808.557	71.93
808.733	70.3
808.908	70.59
809.084	69.6
809.26	70.24
809.435	71.11
809.611	72.2
809.787	71.64
809.962	71.23
810.138	72.87
810.313	73.21
810.489	76.19
810.664	79.1
810.84	78.34
811.015	79.05
811.191	79.5
811.366	79.35
811.542	79.45
811.717	80.2
811.892	80.96
812.068	80.34
812.243	82.58
812.419	81.19
812.594	79.03
812.769	81.21
812.944	81.46
813.12	79.16
813.295	79.18
813.47	78.07
813.645	79.86
813.821	79.75
813.996	79.87
814.171	78.1
814.346	76.88
814.521	76.42
814.697	76.87
814.872	77.29
815.047	78.46
815.222	77.72
815.397	77.8
815.572	77.54
815.747	77.21
815.922	76.72
816.097	76.53
816.272	77.76
816.447	78.83
816.622	78.48
816.797	78.45
816.972	77.08
817.147	77.78
817.322	77.75
817.496	76.67
817.671	76.07
817.846	75.74
818.021	75.08
818.196	72.15
818.371	71.13
818.545	69.53
818.72	69.29
818.895	70.16
819.069	68.49
819.244	66.89
819.419	65.43
819.594	64.63
819.768	62.54
819.943	60.92
820.117	59.85
820.292	57.5
820.467	54.59
820.641	51.49
820.816	47.79
820.99	44.79
821.165	42.19
821.339	40.19
821.514	38.41
821.688	37.48
821.863	36.12
822.037	34.93
822.212	34.03
822.386	33.42
822.56	32.59
822.735	32.72
822.909	32.78
823.084	32.91
823.258	32.95
823.432	33.1
823.606	33.25
823.781	33.86
823.955	34.35
824.129	35
824.303	35.6
824.478	36.35
824.652	37.17
824.826	38.16
825	39.45
825.174	40.03
825.348	40.47
825.523	40.96
825.697	40.79
825.871	41.83
826.045	41.82
826.219	42.28
826.393	42.9
826.567	42.46
826.741	41.92
826.915	40.92
827.089	41.37
827.263	41.56
827.437	41.74
827.611	42.32
827.784	42.51
827.958	42.51
828.132	42.38
828.306	43.24
828.48	44.66
828.654	45.45
828.827	46.61
829.001	48.48
829.175	50.28
829.349	52.03
829.522	53.9
829.696	56.02
829.87	59.64
830.044	62.77
830.217	63.98
830.391	65.42
830.565	68.21
830.738	70
830.912	70.09
831.085	71.35
831.259	71.14
831.432	72.3
831.606	72.58
831.779	70.21
831.953	69.77
832.126	68.72
832.3	65.82
832.473	65.04
832.647	63.28
832.82	61.11
832.994	59.51
833.167	57.97
833.34	55.82
833.514	54.09
833.687	53.59
833.86	53.11
834.034	52.46
834.207	52.49
834.38	51.47
834.553	52.1
834.727	52.85
834.9	52.58
835.073	52.4
835.246	53.69
835.419	54.69
835.593	56.07
835.766	55.79
835.939	57.46
836.112	59.23
836.285	60.25
836.458	60.72
836.631	62.28
836.804	64.99
836.977	68.86
837.15	71.75
837.323	73.94
837.496	75.97
837.669	80.46
837.842	82.33
838.015	83.61
838.188	87.83
838.361	90.01
838.533	90.18
838.706	91.49
838.879	89.54
839.052	87.98
839.225	89.14
839.398	87.3
839.57	85.14
839.743	84.51
839.916	83.56
840.088	84.16
840.261	84.09
840.434	85.48
840.607	85.09
840.779	86.42
840.952	87.56
841.124	86.44
841.297	87.53
841.47	87.56
841.642	87.62
841.815	90.01
841.987	89.51
842.16	90.97
842.332	92.72
842.505	94.62
842.677	96.9
842.85	95.24
843.022	98.67
843.194	101.34
843.367	104.25
843.539	105.56
843.712	107.51
843.884	109.61
844.056	110.89
844.229	109.68
844.401	110.31
844.573	109.51
844.745	113.51
844.918	112.55
845.09	112.58
845.262	116.52
845.434	121.61
845.606	121.75
845.779	123.32
845.951	124.8
846.123	128.08
846.295	128.63
846.467	130.84
846.639	130.48
846.811	132.74
846.983	133.73
847.155	129.83
847.327	127.64
847.499	129.95
847.671	126.7
847.843	124.87
848.015	123.75
848.187	124.44
848.359	122.15
848.531	121.26
848.703	120.34
848.875	124.83
849.047	126.71
849.218	125.13
849.39	125.64
849.562	126.87
849.734	131.61
849.905	134.28
850.077	138.56
850.249	139.91
850.421	142.75
850.592	141.55
850.764	137.95
850.936	138.32
851.107	139.88
851.279	136.39
851.451	135.43
851.622	137.53
851.794	136.4
851.965	132.83
852.137	134.87
852.308	131.97
852.48	135.05
852.651	133.32
852.823	130.88
852.994	129.13
853.166	127.3
853.337	125.63
853.509	125.86
853.68	126.59
853.851	128.55
854.023	124.52
854.194	125.92
854.365	122.54
854.537	125.85
854.708	125.74
854.879	128.32
855.05	135.4
855.222	138.17
855.393	132.73
855.564	132.02
855.735	130.61
855.906	136.76
856.078	138.53
856.249	142.66
856.42	142.15
856.591	145.24
856.762	144.48
856.933	139.02
857.104	139.01
857.275	140.72
857.446	144.68
857.617	145.81
857.788	140.71
857.959	138.17
858.13	138.37
858.301	138.2
858.472	137.18
858.643	137.58
858.814	142.78
858.985	144.6
859.155	143.42
859.326	140.6
859.497	138.62
859.668	140.94
859.839	145.07
860.009	145.58
860.18	143.55
860.351	139.71
860.522	137.77
860.692	131.89
860.863	129.39
861.034	131.14
861.204	132.93
861.375	136.23
861.546	138.12
861.716	137.87
861.887	134.68
862.057	137.98
862.228	142.09
862.398	144.13
862.569	145.52
862.739	151.88
862.91	149.61
863.08	152.79
863.251	152.31
863.421	149.75
863.592	144.3
863.762	146.36
863.932	144.19
864.103	145.4
864.273	144.98
864.443	146.09
864.614	141.75
864.784	143.03
864.954	137.93
865.125	139.39
865.295	144.84
865.465	147.14
865.635	145.81
865.805	149.99
865.976	148.75
866.146	150.09
866.316	148.94
866.486	152.21
866.656	154.74
866.826	155.64
866.996	151.41
867.166	147.86
867.336	150.98
867.506	152.79
867.676	148.5
867.846	147.4
868.016	146.61
868.186	148.19
868.356	145.83
868.526	144.98
868.696	141.75
868.866	144.61
869.036	145.3
869.206	143.57
869.376	145.59
869.545	148.12
869.715	147.23
869.885	144.84
870.055	145.56
870.224	146.13
870.394	146.35
870.564	150.55
870.734	149.81
870.903	150.58
871.073	150.72
871.243	149.29
871.412	145.44
871.582	145.16
871.751	144.58
871.921	143.23
872.091	140.67
872.26	139.78
872.43	138.34
872.599	139.09
872.769	138.21
872.938	142.63
873.108	137.17
873.277	136.1
873.446	136.89
873.616	144.54
873.785	145.56
873.955	150
874.124	153.63
874.293	155.16
874.463	153.72
874.632	152.58
874.801	149.84
874.971	157.89
875.14	161.67
875.309	164
875.478	158.57
875.647	158.07
875.817	155.88
875.986	155.3
876.155	150.83
876.324	154.84
876.493	156.57
876.662	153.74
876.831	148.64
877	148.31
877.17	144.8
877.339	143.33
877.508	140.99
877.677	138.05
877.846	133.65
878.015	134.97
878.184	128.92
878.352	125.81
878.521	125.5
878.69	125.36
878.859	124.59
879.028	121.36
879.197	120.91
879.366	115.5
879.534	115.49
879.703	110.46
879.872	105.23
880.041	103.23
880.21	95.77
880.378	89.02
880.547	83.38
880.716	76.76
880.884	72.87
881.053	67.75
881.222	64.45
881.39	61.27
881.559	58.8
881.727	56.17
881.896	53.82
882.065	52.91
882.233	51.53
882.402	50.89
882.57	50.85
882.739	51.19
882.907	52
883.076	52.78
883.244	51.83
883.412	52.27
883.581	53.29
883.749	54.27
883.918	55.62
884.086	57.62
884.254	58.97
884.423	61.32
884.591	62.36
884.759	64.28
884.927	66.49
885.096	71.37
885.264	75.83
885.432	80.15
885.6	84.47
885.769	88.4
885.937	91.11
886.105	96.74
886.273	98.33
886.441	103.47
886.609	107.67
886.777	109.56
886.945	109.4
887.113	109.73
887.281	110.63
887.449	113.06
887.617	114.11
887.785	117.53
887.953	118.78
888.121	120.88
888.289	120.15
888.457	123.08
888.625	127.69
888.793	131.17
888.961	138.51
889.129	137.73
889.296	138.85
889.464	141.06
889.632	142.89
889.8	142.07
889.967	144.8
890.135	149.91
