Data from 2938804__Reflection_01.txt Node
Date: Thu Mar 12 22:22:49 EDT 2015
User: robert
Spectrometer: USB4E03002
Autoset integration time: false
Trigger mode: 4
Integration Time (sec): 1.000000E-1
Scans to average: 10
Electric dark correction enabled: false
Nonlinearity correction enabled: false
Boxcar width: 5
Stray light correction enabled: false
XAxis mode: Wavelengths
Stop averaging: false
Number of Pixels in Spectrum: 3648
>>>>>Begin Spectral Data<<<<<
177.575	-1050.72
177.794	-2478.79
178.014	-1116.28
178.233	-2004.55
178.452	-1306.84
178.672	-1281.1
178.891	18020
179.11	1265.84
179.33	1059.42
179.549	716.72
179.768	1815
179.987	894.92
180.207	1508.44
180.426	1505.49
180.645	946.72
180.864	477.88
181.084	471.74
181.303	462.39
181.522	558.69
181.741	474.25
181.96	634.63
182.179	639.89
182.398	975.54
182.618	1655.91
182.837	2129.17
183.056	-8025
183.275	-475.21
183.494	-518.84
183.713	-601.58
183.932	-644.64
184.151	-410.56
184.37	-628.86
184.589	-1087.56
184.808	-1007.73
185.027	1851.47
185.246	998.77
185.465	762.1
185.684	542.24
185.903	601.58
186.122	773.19
186.341	2139.67
186.56	1144.75
186.779	617.27
186.998	660.24
187.216	625.73
187.435	1218.87
187.654	917.18
187.873	742.81
188.092	857.58
188.311	546.31
188.53	692.05
188.748	497.55
188.967	442.81
189.186	652.36
189.405	644.08
189.623	650.98
189.842	713.54
190.061	1247.6
190.28	-5152.17
190.498	-12652.94
190.717	-2922.22
190.936	2289.58
191.154	1832.54
191.373	1320.42
191.592	842.12
191.81	910.62
192.029	736.09
192.248	764.85
192.466	559.56
192.685	556.46
192.904	763.57
193.122	1081.91
193.341	1086.44
193.559	703.79
193.778	15136.36
193.996	-724.5
194.215	-1211.84
194.433	-1614.63
194.652	-2030.39
194.87	-762.21
195.089	-1398.04
195.307	-2696.59
195.526	-41916.67
195.744	-1915.15
195.963	-1487.28
196.181	-1809.63
196.399	-2650
196.618	-931.42
196.836	-546.39
197.055	-772.61
197.273	-6168.29
197.491	3911.29
197.71	1283.42
197.928	1990.91
198.146	725.28
198.365	557.8
198.583	457.84
198.801	405.26
199.019	310.51
199.238	289.92
199.456	318.63
199.674	370.01
199.892	404.79
200.111	678.11
200.329	587.9
200.547	724.65
200.765	900.41
200.983	1807.44
201.202	5865.71
201.42	2362.35
201.638	2443.24
201.856	514.29
202.074	398.38
202.292	452
202.51	374.73
202.728	403.3
202.946	407.36
203.165	335.44
203.383	336.94
203.601	306.55
203.819	399.05
204.037	379.14
204.255	826.56
204.473	1378.06
204.691	754.02
204.909	451.92
205.127	394.8
205.345	331.8
205.562	456.67
205.78	418.73
205.998	430.77
206.216	438.16
206.434	480.78
206.652	436.19
206.87	464.55
207.088	484.02
207.306	393.1
207.523	489.77
207.741	528.87
207.959	392.36
208.177	346.56
208.395	247.25
208.612	227
208.83	222.02
209.048	196.82
209.266	176.4
209.483	185.94
209.701	268.74
209.919	248.3
210.136	279
210.354	299.39
210.572	274.18
210.79	299.51
211.007	265.38
211.225	230.18
211.442	254.43
211.66	266.46
211.878	234.87
212.095	204
212.313	213.68
212.53	210.56
212.748	172.94
212.966	177.95
213.183	181.21
213.401	191.24
213.618	212.21
213.836	209.36
214.053	222.67
214.271	248.2
214.488	241.49
214.705	232.5
214.923	223.83
215.14	280.11
215.358	261.06
215.575	309.93
215.793	268.75
216.01	233.56
216.227	213.92
216.445	181.59
216.662	166
216.879	187.95
217.097	173.72
217.314	154.95
217.531	167.17
217.749	191.73
217.966	184.61
218.183	194.79
218.4	198.87
218.618	185.76
218.835	217.27
219.052	206.65
219.269	187.67
219.487	184.77
219.704	194.15
219.921	165.26
220.138	141.48
220.355	124.73
220.572	125.91
220.79	116.11
221.007	131.72
221.224	126.75
221.441	122.53
221.658	109.96
221.875	104.24
222.092	95.04
222.309	92.57
222.526	88.47
222.743	95.29
222.96	84.04
223.177	80.58
223.394	69.83
223.611	66.95
223.828	64.68
224.045	68.93
224.262	67.69
224.479	71.97
224.696	67.4
224.913	68.03
225.13	58.06
225.347	56.79
225.564	52.4
225.781	51.47
225.997	47.28
226.214	45.02
226.431	40.18
226.648	36.9
226.865	32.5
227.082	32.33
227.298	26.72
227.515	24.52
227.732	21.54
227.949	19.46
228.165	17.19
228.382	15.3
228.599	13.94
228.816	13.31
229.032	12.81
229.249	12.66
229.466	12.01
229.682	12.81
229.899	13.79
230.116	14.37
230.332	15.47
230.549	15.81
230.765	17.12
230.982	18.14
231.199	18.6
231.415	18.28
231.632	19.47
231.848	19.37
232.065	20.67
232.281	21.51
232.498	22.28
232.714	21.46
232.931	23.65
233.147	23.23
233.364	23.18
233.58	24.55
233.797	24.74
234.013	23.29
234.23	22.5
234.446	21.48
234.662	20.67
234.879	21.05
235.095	21.02
235.312	21.38
235.528	21.11
235.744	20.43
235.961	19.18
236.177	17.74
236.393	17.33
236.61	18.04
236.826	17.64
237.042	18.27
237.258	18.35
237.475	19.92
237.691	17.96
237.907	18.26
238.123	20.12
238.339	19.8
238.556	21.02
238.772	21.44
238.988	21.29
239.204	20.15
239.42	19.89
239.636	18.76
239.853	16.67
240.069	15.37
240.285	15.04
240.501	12.84
240.717	12.52
240.933	11.43
241.149	11.71
241.365	11.01
241.581	10.62
241.797	10.15
242.013	9.34
242.229	9.44
242.445	9.28
242.661	8.95
242.877	8.93
243.093	9.12
243.309	9.79
243.525	9.88
243.741	10.42
243.957	11.22
244.173	11.34
244.388	11.73
244.604	12.35
244.82	13.17
245.036	12.85
245.252	12.43
245.468	10.98
245.683	9.67
245.899	8.32
246.115	7.66
246.331	7.12
246.547	6.52
246.762	6.51
246.978	5.67
247.194	5.31
247.409	5.1
247.625	5.13
247.841	5.19
248.057	5.65
248.272	6.07
248.488	6.21
248.703	6.07
248.919	6.18
249.135	6.65
249.35	8.02
249.566	8.3
249.782	9.04
249.997	9.83
250.213	10.55
250.428	10.08
250.644	10.1
250.859	10.63
251.075	10.76
251.29	11.41
251.506	11
251.721	10.83
251.937	10.67
252.152	10.48
252.368	10.31
252.583	10.57
252.798	10.92
253.014	10.61
253.229	10.69
253.445	10.96
253.66	10.73
253.875	10.22
254.091	9.4
254.306	10.15
254.521	10.18
254.737	9.4
254.952	9.54
255.167	10.64
255.383	11.25
255.598	10.39
255.813	10.19
256.028	10.69
256.244	11.11
256.459	12.16
256.674	12.31
256.889	11.52
257.104	11.84
257.32	11.48
257.535	9.96
257.75	9.71
257.965	9.18
258.18	8.38
258.395	7.79
258.61	7.21
258.826	6.41
259.041	5.87
259.256	5.91
259.471	5.45
259.686	4.9
259.901	4.95
260.116	4.72
260.331	4.84
260.546	4.94
260.761	4.81
260.976	5
261.191	5.07
261.406	4.83
261.621	5.21
261.836	5.38
262.05	6.12
262.265	6.37
262.48	6.99
262.695	7.38
262.91	8.14
263.125	8.62
263.34	8.62
263.555	9.21
263.769	10.03
263.984	10.38
264.199	10.83
264.414	10.18
264.629	10.1
264.843	9.7
265.058	9.08
265.273	8.75
265.488	8.9
265.702	9.01
265.917	8.57
266.132	8.19
266.346	7.73
266.561	7.61
266.776	8.2
266.99	7.93
267.205	8.29
267.42	8.49
267.634	7.81
267.849	7.63
268.063	7.13
268.278	7.73
268.492	7.88
268.707	7.85
268.922	8.24
269.136	7.65
269.351	7.89
269.565	7.11
269.78	6.83
269.994	7.95
270.209	7.8
270.423	8.27
270.637	7.76
270.852	7.61
271.066	7.27
271.281	6.71
271.495	6.71
271.709	6.66
271.924	6.81
272.138	6.86
272.353	6.37
272.567	6.28
272.781	5.83
272.996	6.07
273.21	6.13
273.424	6.55
273.638	7.22
273.853	7.27
274.067	7.13
274.281	7.25
274.495	7.16
274.71	7.16
274.924	7.23
275.138	7.62
275.352	7.23
275.566	6.86
275.781	6.44
275.995	5.88
276.209	6.1
276.423	6.13
276.637	6.05
276.851	6.27
277.065	6.43
277.279	6.62
277.493	6.73
277.707	6.7
277.921	7.11
278.135	7.29
278.349	7.64
278.563	7.76
278.777	8.22
278.991	8.28
279.205	8.34
279.419	8.28
279.633	8.37
279.847	8.24
280.061	8.38
280.275	8.52
280.489	8.42
280.703	8
280.917	7.81
281.131	7.5
281.344	7.77
281.558	7.39
281.772	7.42
281.986	7.27
282.2	7.33
282.414	7.07
282.627	6.84
282.841	6.79
283.055	6.43
283.269	6.1
283.482	6.01
283.696	5.45
283.91	5.63
284.123	5.28
284.337	4.9
284.551	4.74
284.764	4.86
284.978	4.54
285.192	4.3
285.405	4.46
285.619	4.41
285.833	4.55
286.046	4.93
286.26	5.06
286.473	5.27
286.687	5.66
286.9	5.69
287.114	5.62
287.327	6.09
287.541	6.4
287.754	6.61
287.968	6.95
288.181	7.05
288.395	6.66
288.608	6.56
288.822	6.35
289.035	6.09
289.248	6.19
289.462	6.32
289.675	6.21
289.889	6
290.102	5.84
290.315	5.77
290.529	5.95
290.742	6.02
290.955	6.09
291.169	6.15
291.382	6.08
291.595	6.06
291.808	6.09
292.022	5.61
292.235	5.72
292.448	5.93
292.661	6.17
292.875	6.05
293.088	6.04
293.301	5.83
293.514	5.8
293.727	6.09
293.94	5.77
294.153	5.44
294.367	5.69
294.58	5.67
294.793	5.68
295.006	5.45
295.219	5.24
295.432	5.3
295.645	5.39
295.858	5.43
296.071	5.28
296.284	5.1
296.497	5.3
296.71	5.28
296.923	5.17
297.136	5.07
297.349	5.01
297.562	4.99
297.775	4.91
297.988	4.84
298.201	4.84
298.414	4.8
298.626	5.17
298.839	5.04
299.052	5.13
299.265	5.34
299.478	5.11
299.691	5.23
299.903	5.05
300.116	5.02
300.329	4.93
300.542	5.02
300.755	4.95
300.967	4.91
301.18	5.04
301.393	5.32
301.605	5
301.818	5.36
302.031	5.04
302.243	5.17
302.456	5.61
302.669	5.57
302.881	5.68
303.094	6.13
303.307	6.14
303.519	6
303.732	5.94
303.944	6.08
304.157	5.82
304.37	6.32
304.582	6.42
304.795	6.34
305.007	6.86
305.22	6.69
305.432	6.54
305.645	6.53
305.857	6.68
306.069	6.83
306.282	7.01
306.494	7.37
306.707	7.68
306.919	7.91
307.132	7.77
307.344	7.58
307.556	7.6
307.769	7.58
307.981	7.53
308.193	7.42
308.406	7.18
308.618	7.22
308.83	6.98
309.043	6.58
309.255	6.14
309.467	6.24
309.679	6.15
309.892	6.16
310.104	5.88
310.316	5.95
310.528	6.01
310.74	5.89
310.953	5.99
311.165	5.98
311.377	6.04
311.589	6.24
311.801	6.04
312.013	6.07
312.225	5.99
312.437	6.42
312.649	6.42
312.862	6.54
313.074	6.78
313.286	6.81
313.498	6.87
313.71	7.03
313.922	7.1
314.134	7.41
314.346	7.36
314.558	7.33
314.77	7.34
314.982	7.13
315.193	7.04
315.405	6.93
315.617	6.76
315.829	6.89
316.041	6.87
316.253	7
316.465	7.17
316.677	7.31
316.888	7.79
317.1	7.71
317.312	8.19
317.524	8.33
317.736	8.33
317.947	8.81
318.159	8.6
318.371	8.46
318.583	8.35
318.794	8.13
319.006	8.32
319.218	8.32
319.43	8.51
319.641	8.71
319.853	8.77
320.064	9.06
320.276	8.85
320.488	8.85
320.699	9.37
320.911	9.48
321.123	9.75
321.334	9.72
321.546	10.19
321.757	10.09
321.969	10.37
322.18	10.59
322.392	10.78
322.603	10.59
322.815	11.2
323.026	10.93
323.238	11.02
323.449	10.85
323.661	10.57
323.872	10.17
324.083	10.14
324.295	9.78
324.506	9.48
324.718	9.04
324.929	9.53
325.14	9.32
325.352	9.16
325.563	8.84
325.774	8.78
325.986	8.74
326.197	8.79
326.408	8.69
326.62	8.55
326.831	8.53
327.042	9.01
327.253	9.02
327.464	9.3
327.676	9.71
327.887	10.33
328.098	10.66
328.309	11.06
328.52	11.11
328.732	11.56
328.943	11.79
329.154	12.06
329.365	12.45
329.576	12.44
329.787	12.41
329.998	12.37
330.209	12.72
330.42	12.89
330.631	13.03
330.842	13.3
331.053	13.45
331.264	13.53
331.475	13.81
331.686	13.5
331.897	13.78
332.108	13.97
332.319	14.01
332.53	13.79
332.741	13.86
332.952	13.94
333.163	13.96
333.374	14.09
333.585	14.11
333.795	14.09
334.006	13.99
334.217	13.69
334.428	13.86
334.639	13.87
334.849	13.79
335.06	13.81
335.271	14.14
335.482	14.54
335.692	14.45
335.903	14.58
336.114	14.91
336.325	15.18
336.535	15.34
336.746	15.53
336.957	15.7
337.167	15.78
337.378	16.08
337.589	15.89
337.799	15.58
338.01	15.54
338.22	15.59
338.431	15.48
338.642	15.4
338.852	15.06
339.063	14.82
339.273	14.74
339.484	14.39
339.694	13.85
339.905	13.67
340.115	13.4
340.326	13.3
340.536	13.51
340.746	13.29
340.957	13.32
341.167	13.59
341.378	13.58
341.588	13.84
341.799	14.4
342.009	14.65
342.219	15.19
342.43	15.17
342.64	15.24
342.85	15.16
343.061	15.39
343.271	15.34
343.481	15.24
343.691	15.18
343.902	14.8
344.112	14.6
344.322	14.61
344.532	14.42
344.743	14.45
344.953	14.4
345.163	14.36
345.373	14.07
345.583	14.25
345.793	14.34
346.004	14.63
346.214	14.5
346.424	14.26
346.634	14.31
346.844	14.28
347.054	14.3
347.264	14.47
347.474	14.34
347.684	14.55
347.894	14.42
348.104	14.67
348.314	14.48
348.524	14.52
348.734	14.87
348.944	14.69
349.154	14.55
349.364	14.61
349.574	14.54
349.784	15.05
349.994	14.89
350.204	14.84
350.413	14.76
350.623	14.78
350.833	15.02
351.043	14.9
351.253	15.02
351.463	15.17
351.672	15.16
351.882	14.98
352.092	14.41
352.302	14.45
352.511	14.37
352.721	14.19
352.931	14.25
353.141	14.09
353.35	14.2
353.56	13.99
353.77	13.87
353.979	13.88
354.189	13.8
354.399	13.63
354.608	13.61
354.818	13.85
355.027	13.74
355.237	13.4
355.447	13.3
355.656	13.17
355.866	13.3
356.075	13.2
356.285	13.14
356.494	13.25
356.704	13.35
356.913	13.25
357.123	12.91
357.332	12.91
357.542	13.12
357.751	13.2
357.96	13.14
358.17	12.69
358.379	12.89
358.589	12.92
358.798	12.84
359.007	12.91
359.217	12.94
359.426	12.9
359.635	12.89
359.845	12.73
360.054	12.56
360.263	12.31
360.472	12.8
360.682	12.57
360.891	12.4
361.1	12.48
361.309	12.39
361.519	12.39
361.728	12.39
361.937	12.23
362.146	12.14
362.355	12.33
362.564	12.54
362.774	12.21
362.983	12.12
363.192	12.39
363.401	12.35
363.61	12.19
363.819	12.16
364.028	12.32
364.237	12.61
364.446	12.58
364.655	12.48
364.864	12.44
365.073	12.34
365.282	12.66
365.491	12.48
365.7	12.55
365.909	12.6
366.118	12.64
366.327	12.59
366.536	12.52
366.745	12.62
366.954	12.63
367.162	12.54
367.371	12.85
367.58	12.75
367.789	12.9
367.998	12.84
368.207	12.99
368.415	13.05
368.624	13.22
368.833	13.12
369.042	13.32
369.25	13.3
369.459	13.44
369.668	13.15
369.877	12.84
370.085	12.61
370.294	12.53
370.503	12.68
370.711	12.77
370.92	12.69
371.129	12.93
371.337	12.82
371.546	12.9
371.754	12.77
371.963	12.89
372.171	13.14
372.38	13.18
372.589	13.07
372.797	12.92
373.006	12.82
373.214	12.56
373.423	12.28
373.631	12.28
373.84	12.19
374.048	12.28
374.256	12.33
374.465	12.37
374.673	12.48
374.882	12.64
375.09	12.53
375.298	12.44
375.507	12.32
375.715	12.3
375.923	12.12
376.132	12.11
376.34	12.11
376.548	12.13
376.757	12.1
376.965	11.89
377.173	11.67
377.381	11.86
377.59	11.88
377.798	12.18
378.006	12.32
378.214	12.44
378.423	12.49
378.631	12.59
378.839	12.55
379.047	12.49
379.255	12.54
379.463	12.73
379.671	12.74
379.879	12.71
380.088	12.56
380.296	12.5
380.504	12.22
380.712	11.96
380.92	11.63
381.128	11.64
381.336	11.67
381.544	11.7
381.752	11.79
381.96	11.8
382.168	11.78
382.376	12.02
382.584	11.85
382.791	12.12
382.999	12.42
383.207	12.56
383.415	12.52
383.623	12.46
383.831	12.41
384.039	12.21
384.247	12.19
384.454	12.19
384.662	12.03
384.87	12.02
385.078	11.87
385.285	11.64
385.493	11.62
385.701	11.57
385.909	11.42
386.116	11.33
386.324	11.3
386.532	11.09
386.739	11.14
386.947	11.22
387.155	11.29
387.362	11.34
387.57	11.38
387.778	11.36
387.985	11.46
388.193	11.64
388.4	11.83
388.608	11.99
388.816	12.19
389.023	12
389.231	11.93
389.438	12.02
389.646	11.92
389.853	12.03
390.061	12.15
390.268	12.08
390.475	12.03
390.683	11.89
390.89	11.86
391.098	11.71
391.305	11.58
391.512	11.37
391.72	11.4
391.927	11.36
392.135	11.32
392.342	11.21
392.549	11.13
392.756	10.93
392.964	10.94
393.171	10.93
393.378	10.9
393.586	11.12
393.793	11.13
394	10.92
394.207	11.2
394.414	11.09
394.622	11.2
394.829	11.31
395.036	11.42
395.243	11.53
395.45	11.42
395.657	11.42
395.864	11.53
396.072	11.6
396.279	11.74
396.486	11.53
396.693	11.51
396.9	11.54
397.107	11.43
397.314	11.46
397.521	11.26
397.728	11.39
397.935	11.57
398.142	11.32
398.349	11.39
398.556	11.39
398.763	11.27
398.97	11.38
399.177	11.25
399.383	11.48
399.59	11.44
399.797	11.65
400.004	11.67
400.211	11.63
400.418	11.95
400.625	11.88
400.831	11.86
401.038	12.06
401.245	12.03
401.452	12.01
401.658	12.05
401.865	12.03
402.072	11.99
402.279	12.02
402.485	11.95
402.692	11.72
402.899	11.77
403.105	11.75
403.312	11.62
403.519	11.66
403.725	11.67
403.932	11.46
404.138	11.46
404.345	11.39
404.552	11.18
404.758	11.07
404.965	11.15
405.171	10.97
405.378	10.97
405.584	11.08
405.791	11.08
405.997	11.02
406.204	11.03
406.41	11.05
406.617	11.16
406.823	11.28
407.029	11.4
407.236	11.4
407.442	11.58
407.649	11.53
407.855	11.56
408.061	11.49
408.268	11.56
408.474	11.55
408.68	11.57
408.887	11.57
409.093	11.59
409.299	11.65
409.505	11.5
409.712	11.5
409.918	11.66
410.124	11.63
410.33	11.58
410.537	11.44
410.743	11.56
410.949	11.66
411.155	11.69
411.361	11.61
411.567	11.51
411.773	11.6
411.98	11.65
412.186	11.45
412.392	11.43
412.598	11.72
412.804	11.95
413.01	11.92
413.216	11.71
413.422	11.6
413.628	11.56
413.834	11.49
414.04	11.58
414.246	11.4
414.452	11.33
414.658	11.26
414.864	11.12
415.07	11.05
415.275	11.13
415.481	11.25
415.687	11.15
415.893	11.28
416.099	11.25
416.305	11.1
416.511	11.32
416.716	11.34
416.922	11.25
417.128	11.07
417.334	11.06
417.539	10.87
417.745	10.69
417.951	10.65
418.157	10.53
418.362	10.43
418.568	10.45
418.774	10.3
418.979	10.23
419.185	10.18
419.391	10.21
419.596	10.07
419.802	10.15
420.008	10.22
420.213	10.73
420.419	10.76
420.624	10.79
420.83	10.82
421.035	10.81
421.241	10.88
421.446	10.98
421.652	10.97
421.857	11.13
422.063	11.02
422.268	10.94
422.474	10.45
422.679	10.44
422.885	10.41
423.09	10.32
423.295	10.2
423.501	10.13
423.706	10.09
423.911	10.04
424.117	9.95
424.322	9.97
424.527	10.07
424.733	10.08
424.938	10.03
425.143	10.17
425.349	10.23
425.554	10.35
425.759	10.39
425.964	10.43
426.169	10.57
426.375	10.62
426.58	10.69
426.785	10.72
426.99	10.87
427.195	10.92
427.4	10.88
427.605	10.84
427.811	10.94
428.016	11.05
428.221	11.01
428.426	10.87
428.631	10.9
428.836	10.84
429.041	10.74
429.246	10.76
429.451	10.8
429.656	10.77
429.861	10.85
430.066	10.79
430.271	10.77
430.476	10.9
430.681	10.98
430.886	10.93
431.09	11.08
431.295	11.18
431.5	10.99
431.705	11.03
431.91	10.99
432.115	11.04
432.32	11.01
432.524	10.98
432.729	10.85
432.934	10.82
433.139	10.73
433.343	10.68
433.548	10.7
433.753	10.9
433.958	10.95
434.162	11.06
434.367	11.09
434.572	11.13
434.776	11.21
434.981	11.4
435.186	11.45
435.39	11.63
435.595	11.63
435.799	11.66
436.004	11.65
436.209	11.58
436.413	11.51
436.618	11.32
436.822	11.21
437.027	11.18
437.231	11.15
437.436	11.13
437.64	10.99
437.845	10.94
438.049	10.84
438.253	10.69
438.458	10.71
438.662	10.7
438.867	10.74
439.071	10.79
439.275	10.74
439.48	10.61
439.684	10.56
439.888	10.57
440.093	10.59
440.297	10.62
440.501	10.62
440.706	10.61
440.91	10.59
441.114	10.57
441.318	10.59
441.523	10.57
441.727	10.56
441.931	10.68
442.135	10.71
442.339	10.7
442.543	10.78
442.748	10.75
442.952	10.71
443.156	10.75
443.36	10.72
443.564	10.76
443.768	10.73
443.972	10.75
444.176	10.63
444.38	10.56
444.584	10.52
444.788	10.35
444.992	10.36
445.196	10.31
445.4	10.29
445.604	10.3
445.808	10.29
446.012	10.28
446.216	10.23
446.42	10.22
446.624	10.29
446.828	10.23
447.032	10.36
447.235	10.46
447.439	10.49
447.643	10.53
447.847	10.62
448.051	10.62
448.254	10.67
448.458	10.78
448.662	10.81
448.866	10.81
449.069	10.92
449.273	10.86
449.477	10.84
449.681	10.85
449.884	10.78
450.088	10.79
450.292	10.79
450.495	10.79
450.699	10.73
450.902	10.83
451.106	10.83
451.31	10.75
451.513	10.75
451.717	10.74
451.92	10.85
452.124	10.98
452.327	10.9
452.531	10.94
452.734	11.02
452.938	11.11
453.141	11.09
453.345	11.12
453.548	11.26
453.752	11.19
453.955	11.23
454.158	11.12
454.362	11.11
454.565	11.12
454.769	11.08
454.972	11.02
455.175	11.02
455.379	10.88
455.582	10.81
455.785	10.82
455.988	10.93
456.192	10.88
456.395	10.99
456.598	11
456.801	10.96
457.005	11
457.208	11.02
457.411	10.89
457.614	10.9
457.817	10.92
458.021	10.79
458.224	10.77
458.427	10.79
458.63	10.65
458.833	10.5
459.036	10.57
459.239	10.55
459.442	10.54
459.645	10.56
459.848	10.61
460.051	10.57
460.254	10.62
460.457	10.57
460.66	10.59
460.863	10.66
461.066	10.7
461.269	10.66
461.472	10.72
461.675	10.78
461.878	10.84
462.081	10.85
462.284	10.87
462.486	10.94
462.689	11.03
462.892	10.94
463.095	11.04
463.298	11.12
463.5	11.21
463.703	11.12
463.906	11.17
464.109	11.2
464.311	11.22
464.514	11.31
464.717	11.34
464.92	11.31
465.122	11.32
465.325	11.24
465.528	11.22
465.73	11.22
465.933	11.22
466.135	11.08
466.338	11.08
466.541	11.1
466.743	11.05
466.946	10.97
467.148	11.01
467.351	11
467.553	11.05
467.756	11.08
467.958	10.99
468.161	10.94
468.363	10.89
468.566	10.94
468.768	10.95
468.971	11
469.173	10.95
469.375	10.95
469.578	11.02
469.78	10.99
469.983	11.02
470.185	11.15
470.387	11.15
470.59	11.22
470.792	11.17
470.994	11.17
471.196	11.1
471.399	11.12
471.601	10.98
471.803	10.91
472.005	10.89
472.208	10.82
472.41	10.74
472.612	10.76
472.814	10.81
473.016	10.74
473.218	10.63
473.421	10.74
473.623	10.65
473.825	10.77
474.027	10.87
474.229	10.85
474.431	10.91
474.633	10.98
474.835	10.97
475.037	11.01
475.239	10.98
475.441	10.98
475.643	11.04
475.845	11.14
476.047	11.13
476.249	11.06
476.451	11.02
476.653	10.91
476.855	10.77
477.057	10.84
477.258	10.76
477.46	10.76
477.662	10.8
477.864	10.73
478.066	10.71
478.268	10.71
478.469	10.65
478.671	10.69
478.873	10.73
479.075	10.83
479.276	10.8
479.478	10.85
479.68	10.88
479.882	10.85
480.083	10.79
480.285	10.76
480.487	10.77
480.688	10.78
480.89	10.69
481.091	10.64
481.293	10.53
481.495	10.37
481.696	10.33
481.898	10.17
482.099	10.12
482.301	10.08
482.502	9.96
482.704	9.87
482.905	9.78
483.107	9.7
483.308	9.7
483.51	9.68
483.711	9.69
483.913	9.65
484.114	9.7
484.315	9.71
484.517	9.71
484.718	9.78
484.92	9.8
485.121	9.85
485.322	9.92
485.524	9.97
485.725	10.02
485.926	10.04
486.127	10.03
486.329	10.02
486.53	10.03
486.731	9.99
486.932	9.95
487.134	9.93
487.335	9.93
487.536	9.95
487.737	9.92
487.938	9.92
488.139	9.96
488.341	9.99
488.542	10
488.743	10.02
488.944	10.1
489.145	10.17
489.346	10.21
489.547	10.25
489.748	10.28
489.949	10.28
490.15	10.27
490.351	10.25
490.552	10.26
490.753	10.26
490.954	10.21
491.155	10.17
491.356	10.18
491.557	10.15
491.758	10.15
491.959	10.14
492.159	10.14
492.36	10.16
492.561	10.21
492.762	10.27
492.963	10.33
493.164	10.44
493.364	10.54
493.565	10.52
493.766	10.68
493.967	10.75
494.167	10.77
494.368	10.82
494.569	10.92
494.769	10.88
494.97	10.83
495.171	10.84
495.371	10.81
495.572	10.81
495.773	10.83
495.973	10.74
496.174	10.75
496.375	10.76
496.575	10.67
496.776	10.65
496.976	10.72
497.177	10.74
497.377	10.67
497.578	10.63
497.778	10.57
497.979	10.56
498.179	10.65
498.38	10.62
498.58	10.62
498.78	10.71
498.981	10.71
499.181	10.71
499.382	10.76
499.582	10.87
499.782	10.93
499.983	10.97
500.183	11.01
500.383	10.92
500.584	11.01
500.784	11.08
500.984	11.14
501.184	11.11
501.385	11.05
501.585	10.92
501.785	10.92
501.985	10.96
502.185	10.98
502.386	10.95
502.586	11.07
502.786	11.02
502.986	11.01
503.186	10.99
503.386	10.99
503.586	11.07
503.786	11.16
503.987	11.09
504.187	11.13
504.387	11
504.587	11.09
504.787	10.94
504.987	11.05
505.187	10.95
505.387	10.97
505.587	11.08
505.786	11.1
505.986	11.07
506.186	11.09
506.386	11.02
506.586	11.22
506.786	11.16
506.986	11.19
507.186	11.13
507.386	11.15
507.585	11.07
507.785	10.93
507.985	10.87
508.185	10.82
508.384	10.83
508.584	10.73
508.784	10.73
508.984	10.73
509.183	10.77
509.383	10.74
509.583	10.79
509.782	10.86
509.982	11
510.182	11.02
510.381	11.13
510.581	11.09
510.781	11.16
510.98	11.1
511.18	11.17
511.379	11.19
511.579	11.21
511.778	11.2
511.978	11.07
512.177	10.99
512.377	10.99
512.576	10.97
512.776	11.07
512.975	11.15
513.175	11.19
513.374	11.13
513.573	11.14
513.773	11.19
513.972	11.29
514.172	11.46
514.371	11.55
514.57	11.56
514.77	11.55
514.969	11.51
515.168	11.43
515.367	11.4
515.567	11.35
515.766	11.24
515.965	11.16
516.164	11.09
516.364	11.11
516.563	11.04
516.762	11.1
516.961	11.11
517.16	11.06
517.359	11.13
517.559	11.07
517.758	11.18
517.957	11.22
518.156	11.21
518.355	11.25
518.554	11.22
518.753	11.25
518.952	11.25
519.151	11.29
519.35	11.34
519.549	11.28
519.748	11.34
519.947	11.31
520.146	11.36
520.345	11.43
520.544	11.39
520.743	11.45
520.942	11.48
521.141	11.5
521.339	11.48
521.538	11.49
521.737	11.49
521.936	11.56
522.135	11.63
522.333	11.58
522.532	11.58
522.731	11.61
522.93	11.56
523.129	11.62
523.327	11.51
523.526	11.48
523.725	11.51
523.923	11.51
524.122	11.46
524.321	11.32
524.519	11.29
524.718	11.32
524.917	11.3
525.115	11.27
525.314	11.19
525.512	11.28
525.711	11.27
525.909	11.22
526.108	11.23
526.306	11.13
526.505	11.13
526.703	11.15
526.902	11.03
527.1	10.98
527.299	10.95
527.497	10.91
527.696	10.84
527.894	10.81
528.092	10.8
528.291	10.76
528.489	10.78
528.688	10.8
528.886	10.79
529.084	10.84
529.283	10.86
529.481	10.92
529.679	10.97
529.877	11.02
530.076	11.06
530.274	11.13
530.472	11.23
530.67	11.27
530.869	11.33
531.067	11.36
531.265	11.38
531.463	11.42
531.661	11.37
531.859	11.31
532.057	11.27
532.255	11.25
532.454	11.23
532.652	11.26
532.85	11.28
533.048	11.28
533.246	11.27
533.444	11.23
533.642	11.19
533.84	11.25
534.038	11.36
534.236	11.39
534.434	11.45
534.632	11.52
534.83	11.48
535.027	11.57
535.225	11.6
535.423	11.7
535.621	11.73
535.819	11.79
536.017	11.79
536.215	11.81
536.412	11.89
536.61	11.91
536.808	11.85
537.006	11.92
537.203	11.94
537.401	11.98
537.599	12.07
537.797	12.17
537.994	12.26
538.192	12.34
538.39	12.34
538.587	12.31
538.785	12.36
538.983	12.44
539.18	12.51
539.378	12.46
539.575	12.48
539.773	12.42
539.97	12.36
540.168	12.33
540.366	12.34
540.563	12.35
540.761	12.41
540.958	12.39
541.155	12.4
541.353	12.41
541.55	12.46
541.748	12.48
541.945	12.51
542.143	12.61
542.34	12.66
542.537	12.72
542.735	12.82
542.932	12.91
543.129	13.02
543.327	13.19
543.524	13.32
543.721	13.45
543.919	13.62
544.116	13.88
544.313	14.15
544.51	14.4
544.708	14.6
544.905	14.79
545.102	14.96
545.299	15.18
545.496	15.21
545.693	15.27
545.891	15.38
546.088	15.35
546.285	15.2
546.482	15
546.679	14.89
546.876	14.74
547.073	14.61
547.27	14.44
547.467	14.32
547.664	14.29
547.861	14.29
548.058	14.17
548.255	14.23
548.452	14.25
548.649	14.24
548.846	14.24
549.043	14.25
549.24	14.22
549.437	14.25
549.633	14.2
549.83	14.14
550.027	13.98
550.224	13.85
550.421	13.62
550.618	13.55
550.814	13.48
551.011	13.39
551.208	13.36
551.405	13.33
551.601	13.32
551.798	13.29
551.995	13.26
552.191	13.21
552.388	13.3
552.585	13.33
552.781	13.27
552.978	13.3
553.175	13.28
553.371	13.26
553.568	13.25
553.764	13.31
553.961	13.29
554.157	13.31
554.354	13.31
554.55	13.22
554.747	13.28
554.943	13.28
555.14	13.4
555.336	13.47
555.533	13.5
555.729	13.49
555.926	13.39
556.122	13.37
556.318	13.31
556.515	13.31
556.711	13.4
556.907	13.35
557.104	13.55
557.3	13.38
557.496	13.38
557.693	13.37
557.889	13.39
558.085	13.53
558.281	13.58
558.478	13.56
558.674	13.57
558.87	13.62
559.066	13.79
559.262	13.68
559.459	13.83
559.655	13.71
559.851	13.61
560.047	13.59
560.243	13.53
560.439	13.49
560.635	13.55
560.831	13.51
561.027	13.45
561.223	13.41
561.419	13.36
561.615	13.21
561.811	13.29
562.007	13.39
562.203	13.39
562.399	13.31
562.595	13.25
562.791	13.36
562.987	13.48
563.183	13.42
563.379	13.35
563.575	13.36
563.771	13.44
563.966	13.42
564.162	13.37
564.358	13.37
564.554	13.32
564.75	13.39
564.945	13.26
565.141	13.15
565.337	13.11
565.533	13.03
565.728	12.95
565.924	12.88
566.12	12.86
566.315	12.89
566.511	12.94
566.707	13.01
566.902	12.92
567.098	12.99
567.293	13.08
567.489	13.12
567.684	13.17
567.88	13.26
568.076	13.34
568.271	13.36
568.467	13.34
568.662	13.3
568.858	13.34
569.053	13.45
569.248	13.37
569.444	13.38
569.639	13.4
569.835	13.35
570.03	13.37
570.225	13.27
570.421	13.28
570.616	13.36
570.812	13.39
571.007	13.22
571.202	13.15
571.397	13.08
571.593	13.12
571.788	12.99
571.983	13
572.178	12.98
572.374	13.1
572.569	13.05
572.764	13.05
572.959	12.95
573.154	13.05
573.35	13.14
573.545	13.24
573.74	13.16
573.935	13.25
574.13	13.34
574.325	13.24
574.52	13.22
574.715	13.21
574.91	13.2
575.105	13.29
575.3	13.39
575.495	13.35
575.69	13.41
575.885	13.53
576.08	13.76
576.275	13.79
576.47	13.98
576.665	14.04
576.86	14.19
577.055	14.27
577.25	14.33
577.444	14.39
577.639	14.43
577.834	14.5
578.029	14.61
578.224	14.58
578.418	14.72
578.613	14.79
578.808	14.88
579.003	14.85
579.197	14.93
579.392	14.96
579.587	14.93
579.781	15.03
579.976	14.93
580.171	14.95
580.365	14.95
580.56	14.95
580.755	15.02
580.949	15.06
581.144	15.1
581.338	15.01
581.533	15.13
581.727	15.16
581.922	15.17
582.116	15.28
582.311	15.28
582.505	15.18
582.7	15.11
582.894	15.02
583.089	15.01
583.283	15.03
583.478	15.08
583.672	15.09
583.866	15.14
584.061	15.1
584.255	15.01
584.449	14.97
584.644	15.04
584.838	15.12
585.032	15.11
585.226	15.1
585.421	15.23
585.615	15.35
585.809	15.23
586.003	15.29
586.198	15.4
586.392	15.53
586.586	15.49
586.78	15.64
586.974	15.58
587.168	15.44
587.363	15.37
587.557	15.26
587.751	15.23
587.945	15.13
588.139	15.17
588.333	15.15
588.527	15.08
588.721	14.99
588.915	14.88
589.109	14.82
589.303	14.99
589.497	15.17
589.691	15.19
589.885	15.08
590.079	15.2
590.273	15.06
590.466	15.04
590.66	15.02
590.854	15.08
591.048	15.14
591.242	15.29
591.436	15.31
591.629	15.24
591.823	15.22
592.017	15.42
592.211	15.4
592.404	15.54
592.598	15.46
592.792	15.46
592.986	15.33
593.179	15.19
593.373	15.13
593.567	15.09
593.76	15.07
593.954	14.98
594.147	14.84
594.341	14.84
594.535	14.7
594.728	14.76
594.922	14.67
595.115	14.76
595.309	14.62
595.502	14.46
595.696	14.31
595.889	14.18
596.083	14.32
596.276	14.23
596.47	14.17
596.663	14.18
596.856	14.16
597.05	14.27
597.243	14.25
597.437	14.46
597.63	14.59
597.823	14.72
598.017	14.91
598.21	14.88
598.403	14.98
598.596	15.17
598.79	15.4
598.983	15.52
599.176	15.67
599.369	15.82
599.563	15.81
599.756	15.97
599.949	15.88
600.142	15.9
600.335	15.86
600.528	15.89
600.722	15.79
600.915	15.64
601.108	15.55
601.301	15.5
601.494	15.32
601.687	15.22
601.88	15.03
602.073	15.03
602.266	14.82
602.459	14.72
602.652	14.61
602.845	14.47
603.038	14.31
603.231	14.35
603.424	14.13
603.617	14.09
603.809	14.11
604.002	13.95
604.195	13.96
604.388	13.99
604.581	14.08
604.774	14.08
604.966	14.11
605.159	14.18
605.352	14.05
605.545	14.16
605.737	14.34
605.93	14.34
606.123	14.66
606.316	14.78
606.508	14.91
606.701	14.98
606.894	15.04
607.086	15.27
607.279	15.4
607.471	15.58
607.664	15.69
607.857	15.76
608.049	16.04
608.242	16.15
608.434	16.43
608.627	16.86
608.819	17.32
609.012	17.91
609.204	18.61
609.397	19.32
609.589	20.2
609.782	21.23
609.974	22.12
610.166	23.04
610.359	24.05
610.551	24.83
610.743	25.53
610.936	26.21
611.128	26.66
611.32	26.94
611.513	27.1
611.705	27.11
611.897	26.89
612.09	26.65
612.282	26.1
612.474	25.66
612.666	25.24
612.858	24.84
613.051	24.28
613.243	23.97
613.435	23.39
613.627	23.14
613.819	22.75
614.011	22.49
614.203	22.18
614.395	21.99
614.588	21.52
614.78	21.29
614.972	20.75
615.164	20.53
615.356	20.12
615.548	19.93
615.74	19.61
615.932	19.2
616.124	18.67
616.315	18.41
616.507	18.15
616.699	18.02
616.891	17.65
617.083	17.61
617.275	17.24
617.467	17.11
617.659	17.17
617.85	17.09
618.042	17.08
618.234	17.14
618.426	16.9
618.618	16.79
618.809	16.74
619.001	16.75
619.193	16.79
619.384	16.8
619.576	16.87
619.768	16.77
619.959	16.72
620.151	16.76
620.343	16.66
620.534	16.78
620.726	16.88
620.917	16.76
621.109	16.85
621.301	16.9
621.492	17.04
621.684	16.93
621.875	16.89
622.067	16.97
622.258	16.96
622.45	16.96
622.641	16.96
622.832	16.85
623.024	17.02
623.215	16.89
623.407	16.75
623.598	16.64
623.789	16.62
623.981	16.61
624.172	16.38
624.363	16.44
624.555	16.48
624.746	16.34
624.937	16.37
625.129	16.29
625.32	16.25
625.511	16.2
625.702	16.22
625.893	16.26
626.085	16.17
626.276	16.15
626.467	16.17
626.658	16.18
626.849	16.43
627.04	16.5
627.231	16.5
627.422	16.65
627.614	16.67
627.805	16.76
627.996	16.91
628.187	16.87
628.378	16.95
628.569	17.05
628.76	17.16
628.951	17.24
629.142	17.32
629.332	17.57
629.523	17.53
629.714	17.69
629.905	17.87
630.096	17.95
630.287	18.37
630.478	18.36
630.669	18.21
630.859	18.16
631.05	18.03
631.241	17.91
631.432	17.69
631.623	17.78
631.813	17.58
632.004	17.27
632.195	17.13
632.385	16.69
632.576	16.57
632.767	16.46
632.957	16.22
633.148	16.15
633.339	15.89
633.529	15.82
633.72	15.79
633.91	15.81
634.101	15.89
634.292	15.7
634.482	15.72
634.673	15.63
634.863	15.41
635.054	15.58
635.244	15.53
635.435	15.64
635.625	15.64
635.815	15.66
636.006	15.67
636.196	15.66
636.387	15.64
636.577	15.78
636.767	15.92
636.958	15.99
637.148	15.93
637.338	15.94
637.529	16.1
637.719	16.1
637.909	15.98
638.099	15.8
638.29	15.78
638.48	16.03
638.67	15.74
638.86	15.76
639.05	16.15
639.241	16.2
639.431	16.36
639.621	16.28
639.811	16.07
640.001	15.92
640.191	15.98
640.381	15.95
640.571	15.86
640.761	16.01
640.951	15.95
641.141	15.87
641.331	15.7
641.521	15.54
641.711	15.59
641.901	15.94
642.091	16.05
642.281	15.98
642.471	15.83
642.661	15.77
642.851	15.89
643.041	15.9
643.231	15.9
643.42	16.04
643.61	16.26
643.8	16.3
643.99	15.98
644.18	16.03
644.369	16.26
644.559	16.37
644.749	16.65
644.939	16.56
645.128	16.82
645.318	16.86
645.508	17.09
645.697	16.87
645.887	16.91
646.076	17.07
646.266	17.11
646.456	17.18
646.645	17.23
646.835	16.93
647.024	16.93
647.214	16.91
647.403	16.81
647.593	16.68
647.782	16.75
647.972	16.8
648.161	16.82
648.351	16.99
648.54	16.93
648.73	17.1
648.919	17.24
649.108	17.47
649.298	17.3
649.487	17.44
649.677	17.28
649.866	17.19
650.055	16.93
650.244	16.91
650.434	16.69
650.623	16.71
650.812	16.66
651.002	16.76
651.191	16.72
651.38	16.85
651.569	16.88
651.758	16.96
651.947	17.13
652.137	17.17
652.326	17.11
652.515	17.29
652.704	17.29
652.893	17.28
653.082	17.26
653.271	17.37
653.46	17.23
653.649	17.07
653.838	17.08
654.027	17.15
654.216	17.11
654.405	17.36
654.594	17.24
654.783	17.15
654.972	17.06
655.161	17.04
655.35	16.67
655.539	16.73
655.728	16.68
655.916	16.75
656.105	16.36
656.294	16.48
656.483	16.32
656.672	16.08
656.86	16.02
657.049	16.15
657.238	15.95
657.427	16.04
657.615	15.86
657.804	15.83
657.993	15.63
658.181	15.56
658.37	15.43
658.559	15.15
658.747	15.35
658.936	15.48
659.125	15.19
659.313	15.13
659.502	15.19
659.69	15.34
659.879	15.37
660.067	15.55
660.256	15.71
660.444	15.9
660.633	16.38
660.821	16.38
661.01	16.36
661.198	16.56
661.387	16.9
661.575	16.79
661.763	16.84
661.952	16.7
662.14	16.97
662.328	17.29
662.517	17.33
662.705	17.05
662.893	17
663.082	17.08
663.27	17.25
663.458	17.07
663.646	17.43
663.834	17.52
664.023	17.8
664.211	17.51
664.399	17.45
664.587	17.62
664.775	17.82
664.963	18.06
665.152	18.07
665.34	18.15
665.528	18.07
665.716	17.97
665.904	17.62
666.092	17.64
666.28	17.57
666.468	17.38
666.656	17.17
666.844	17.33
667.032	17.1
667.22	17.13
667.408	17.13
667.596	17.28
667.784	17.27
667.971	17.54
668.159	17.47
668.347	17.68
668.535	17.71
668.723	17.75
668.911	17.52
669.098	17.58
669.286	17.45
669.474	17.4
669.662	17.39
669.849	17.18
670.037	17.19
670.225	17.17
670.413	17.04
670.6	17
670.788	17.11
670.976	17.11
671.163	17.08
671.351	17.27
671.538	17.33
671.726	17.34
671.913	17.59
672.101	17.43
672.289	17.65
672.476	17.44
672.664	17.39
672.851	17.29
673.039	17.25
673.226	17.53
673.413	17.39
673.601	17.29
673.788	17.35
673.976	17.26
674.163	17.25
674.35	17.21
674.538	17.31
674.725	17.54
674.912	17.55
675.1	17.58
675.287	17.45
675.474	17.29
675.662	16.92
675.849	16.86
676.036	16.81
676.223	17.02
676.411	17
676.598	16.83
676.785	16.53
676.972	16.52
677.159	16.65
677.346	16.48
677.533	16.43
677.721	16.72
677.908	16.64
678.095	16.58
678.282	16.26
678.469	16.16
678.656	16.35
678.843	16.46
679.03	16.33
679.217	16.33
679.404	16.44
679.591	16.46
679.778	16.34
679.964	16.4
680.151	16.36
680.338	16.54
680.525	16.53
680.712	16.4
680.899	16.66
681.086	16.95
681.272	16.68
681.459	16.71
681.646	16.85
681.833	17
682.02	17.01
682.206	17.2
682.393	17.16
682.58	17.24
682.766	17.49
682.953	17.27
683.14	17.16
683.326	17.56
683.513	17.76
683.7	17.78
683.886	17.91
684.073	17.86
684.259	17.77
684.446	17.87
684.632	17.89
684.819	17.82
685.005	18.06
685.192	18.27
685.378	18.14
685.565	18.09
685.751	18.16
685.938	18.06
686.124	18.09
686.31	18.32
686.497	18.51
686.683	18.52
686.87	18.66
687.056	18.53
687.242	18.39
687.429	18.23
687.615	18.21
687.801	18.29
687.987	18.5
688.174	18.61
688.36	18.55
688.546	18.46
688.732	18.4
688.918	18.57
689.105	18.45
689.291	18.41
689.477	18.66
689.663	18.61
689.849	18.53
690.035	18.26
690.221	18.44
690.407	18.53
690.593	18.56
690.779	18.5
690.965	18.45
691.151	18.39
691.337	18.36
691.523	18.45
691.709	18.61
691.895	18.63
692.081	18.77
692.267	18.89
692.453	18.68
692.639	18.34
692.825	18.72
693.011	18.48
693.196	18.72
693.382	18.72
693.568	18.8
693.754	18.51
693.94	19
694.125	18.84
694.311	18.55
694.497	18.68
694.682	19
694.868	18.81
695.054	18.84
695.239	18.85
695.425	19.01
695.611	18.99
695.796	19.12
695.982	18.67
696.168	18.69
696.353	18.65
696.539	18.39
696.724	18.22
696.91	18.16
697.095	18.04
697.281	17.85
697.466	17.57
697.652	17.05
697.837	16.72
698.023	16.49
698.208	16.3
698.393	16.04
698.579	16
698.764	15.92
698.949	15.87
699.135	15.9
699.32	15.94
699.505	16.03
699.691	16.12
699.876	16.28
700.061	16.61
700.246	16.89
700.432	17.24
700.617	17.38
700.802	17.8
700.987	17.93
701.172	17.96
701.358	17.94
701.543	18
701.728	18.46
701.913	18.58
702.098	18.49
702.283	18.76
702.468	18.84
702.653	18.97
702.838	19.06
703.023	18.81
703.208	18.63
703.393	19.03
703.578	19.14
703.763	19.2
703.948	19.34
704.133	19.97
704.318	19.85
704.503	19.64
704.688	19.55
704.873	19.7
705.057	20.15
705.242	20.43
705.427	20.35
705.612	20.49
705.797	20.21
705.981	20.29
706.166	20.16
706.351	20.24
706.536	20.88
706.72	21.34
706.905	21.05
707.09	20.89
707.274	21.22
707.459	21.25
707.644	21.55
707.828	21.79
708.013	22
708.197	21.83
708.382	22.12
708.567	21.46
708.751	21.3
708.936	21.42
709.12	21.37
709.305	21.1
709.489	20.85
709.673	20.56
709.858	20.69
710.042	20.37
710.227	20.39
710.411	20.13
710.596	20.45
710.78	20.25
710.964	20.14
711.149	20.54
711.333	20.76
711.517	21.1
711.702	20.88
711.886	20.67
712.07	20.75
712.254	20.81
712.438	20.89
712.623	20.5
712.807	20.27
712.991	20.05
713.175	19.67
713.359	19.35
713.544	18.89
713.728	19.09
713.912	19.01
714.096	18.97
714.28	18.45
714.464	18.14
714.648	18.14
714.832	17.92
715.016	17.84
715.2	18
715.384	18.01
715.568	18.29
715.752	17.9
715.936	17.7
716.12	17.43
716.304	17.34
716.488	17.24
716.671	17.39
716.855	17.85
717.039	17.76
717.223	17.37
717.407	17.28
717.59	17.01
717.774	17.08
717.958	17.61
718.142	17.42
718.325	17.63
718.509	17.77
718.693	18.16
718.877	18.47
719.06	18.41
719.244	18.52
719.428	18.56
719.611	18.64
719.795	19.06
719.978	18.86
720.162	19.47
720.345	19.64
720.529	19.42
720.713	19.56
720.896	18.88
721.08	19.2
721.263	19.82
721.446	20.14
721.63	20.29
721.813	20.04
721.997	20.06
722.18	20.04
722.364	19.95
722.547	20.2
722.73	20.11
722.914	20.78
723.097	20.86
723.28	20.46
723.464	20.41
723.647	20.43
723.83	20.78
724.013	20.95
724.197	21.14
724.38	21.14
724.563	21.1
724.746	20.67
724.929	20.68
725.112	21.09
725.296	21.08
725.479	21.33
725.662	21.11
725.845	21.07
726.028	20.77
726.211	20.43
726.394	20.7
726.577	20.54
726.76	20.7
726.943	20.29
727.126	19.71
727.309	19.89
727.492	19.29
727.675	19.27
727.858	18.96
728.041	19.09
728.224	19.23
728.407	19.09
728.589	19.32
728.772	19.03
728.955	19.51
729.138	19.51
729.321	19.04
729.503	19.41
729.686	19.77
729.869	20.06
730.052	19.82
730.234	19.72
730.417	19.55
730.6	19.37
730.782	19.24
730.965	18.78
731.148	19.13
731.33	19.73
731.513	19.68
731.695	19.12
731.878	18.91
732.061	19.03
732.243	19.18
732.426	18.84
732.608	19.2
732.791	19.39
732.973	19.45
733.156	19.32
733.338	19.16
733.52	19.01
733.703	19.44
733.885	19.66
734.068	19.66
734.25	19.94
734.432	20.65
734.615	20.49
734.797	20.8
734.979	20.53
735.162	20.66
735.344	20.88
735.526	20.96
735.708	20.91
735.891	20.8
736.073	20.63
736.255	20.51
736.437	20.05
736.619	19.96
736.802	19.85
736.984	20.24
737.166	20.33
737.348	20.45
737.53	20.79
737.712	20.71
737.894	21.22
738.076	21.41
738.258	21.38
738.44	21.05
738.622	20.84
738.804	21.25
738.986	21.14
739.168	20.74
739.35	19.92
739.532	19.72
739.714	19.69
739.896	19.73
740.078	20.35
740.259	20.38
740.441	20.55
740.623	20.8
740.805	20.35
740.987	20.98
741.168	20.9
741.35	21.47
741.532	21.9
741.714	21.96
741.895	21.29
742.077	20.69
742.259	20.3
742.44	20.73
742.622	20.91
742.804	21.25
742.985	20.52
743.167	21.07
743.348	21.09
743.53	20.94
743.711	20.46
743.893	20.47
744.075	20.85
744.256	21.16
744.438	21.93
744.619	22.07
744.8	21.6
744.982	22.06
745.163	22.37
745.345	21.89
745.526	22.04
745.707	23.05
745.889	23.52
746.07	22.95
746.252	22.63
746.433	22.6
746.614	22.44
746.795	22.35
746.977	22.42
747.158	22.02
747.339	21.93
747.52	21.2
747.702	20.22
747.883	19.83
748.064	20.9
748.245	20.85
748.426	20.53
748.607	20.33
748.788	20.07
748.97	20
749.151	20.18
749.332	20.35
749.513	21
749.694	21.75
749.875	22.2
750.056	21.8
750.237	21.81
750.418	22.22
750.599	22.27
750.78	22.73
750.96	22.29
751.141	22.44
751.322	22.32
751.503	22.57
751.684	22.6
751.865	22.25
752.046	22.1
752.226	22.64
752.407	22
752.588	21.88
752.769	22.41
752.949	23.02
753.13	23.49
753.311	24.19
753.492	23.98
753.672	23.5
753.853	23.79
754.034	23.98
754.214	23.47
754.395	23.34
754.575	24.15
754.756	23.58
754.937	23.45
755.117	22.65
755.298	22.37
755.478	21.87
755.659	22.18
755.839	22.35
756.02	21.46
756.2	22.31
756.381	21.93
756.561	21.2
756.741	21.51
756.922	21.54
757.102	22.42
757.283	23.23
757.463	23.53
757.643	23.88
757.823	22.89
758.004	23.86
758.184	23.48
758.364	24
758.545	23.95
758.725	23.59
758.905	23.43
759.085	22.47
759.265	21.31
759.446	21.28
759.626	21.19
759.806	21.49
759.986	21.04
760.166	20.74
760.346	20.73
760.526	20.53
760.706	20.75
760.886	20.13
761.066	20.18
761.246	20.53
761.426	20.77
761.606	20.44
761.786	20.1
761.966	19.91
762.146	19.81
762.326	19.54
762.506	19.7
762.686	19.76
762.866	19.9
763.046	20.2
763.225	20.04
763.405	19.89
763.585	19.93
763.765	19.96
763.945	19.84
764.124	19.75
764.304	19.68
764.484	19.94
764.664	19.68
764.843	19.85
765.023	19.77
765.203	19.95
765.382	20
765.562	19.72
765.741	19.37
765.921	19.94
766.101	20.4
766.28	20.81
766.46	20.79
766.639	21.54
766.819	22.49
766.998	22.35
767.178	21.89
767.357	21.71
767.537	22.12
767.716	23
767.896	22.76
768.075	22.75
768.254	22.78
768.434	23.07
768.613	23.05
768.792	21.91
768.972	22.23
769.151	22.83
769.33	22.65
769.51	22.82
769.689	23.33
769.868	23.88
770.047	23.68
770.226	23.86
770.406	23.79
770.585	23.61
770.764	23.94
770.943	23.71
771.122	23.84
771.301	24.06
771.48	23.31
771.66	22.87
771.839	22.64
772.018	22.54
772.197	22.46
772.376	22.81
772.555	22.37
772.734	22.14
772.913	22.21
773.092	21.75
773.271	21.56
773.449	22.42
773.628	22.06
773.807	21.3
773.986	21.58
774.165	21.08
774.344	20.53
774.523	20.64
774.701	21.7
774.88	21.27
775.059	21.81
775.238	22.9
775.417	22.85
775.595	24.05
775.774	24.26
775.953	23.85
776.131	24.26
776.31	24.25
776.489	24.52
776.667	23.47
776.846	23.69
777.025	23.61
777.203	22.81
777.382	23.57
777.56	23.09
777.739	24.11
777.917	24.31
778.096	24.27
778.274	24.73
778.453	24.9
778.631	25.17
778.81	24.72
778.988	24.89
779.166	24.95
779.345	24.56
779.523	24.23
779.702	23.63
779.88	23.76
780.058	23.99
780.237	23.96
780.415	23.55
780.593	22.74
780.771	23.93
780.95	23.75
781.128	24.33
781.306	24.13
781.484	24.44
781.662	24.65
781.841	24.12
782.019	24.69
782.197	24.42
782.375	25.19
782.553	25.79
782.731	25.55
782.909	25.39
783.087	25.48
783.265	26
783.443	26.4
783.621	26.6
783.799	27.37
783.977	26.04
784.155	27.33
784.333	27.31
784.511	27.49
784.689	26.72
784.867	27.37
785.045	28.48
785.223	28.3
785.4	27.56
785.578	27.65
785.756	27.19
785.934	27.75
786.112	26.2
786.289	25.47
786.467	25.63
786.645	26.22
786.823	25.72
787	23.77
787.178	23.46
787.356	24.21
787.533	23.63
787.711	24.59
787.889	24.46
788.066	24.63
788.244	24.87
788.421	24.3
788.599	24.03
788.776	24.17
788.954	24.12
789.131	24.02
789.309	23.7
789.486	23.95
789.664	23.41
789.841	23.89
790.019	23.88
790.196	24.65
790.373	24.49
790.551	25.47
790.728	26.09
790.906	26.5
791.083	26.59
791.26	26.35
791.437	26.61
791.615	26.64
791.792	25.66
791.969	25.36
792.146	25.42
792.324	27.06
792.501	26.34
792.678	26.17
792.855	26.4
793.032	26.39
793.209	26.02
793.387	25.22
793.564	26.25
793.741	26.67
793.918	26.68
794.095	25.44
794.272	25.67
794.449	25.45
794.626	26.23
794.803	25.71
794.98	25.69
795.157	25.82
795.334	25.89
795.511	25.12
795.688	25.35
795.864	25.1
796.041	24.98
796.218	24.86
796.395	25.44
796.572	24.69
796.749	24.68
796.925	25.45
797.102	25.56
797.279	25.34
797.456	26.12
797.632	25.85
797.809	26.72
797.986	27.69
798.162	26.89
798.339	26.76
798.516	26.54
798.692	28.21
798.869	27.17
799.046	27.15
799.222	28.03
799.399	26.86
799.575	27.62
799.752	27.28
799.928	26.23
800.105	26.46
800.281	26.65
800.458	26.56
800.634	25.76
800.811	26.51
800.987	26.92
801.163	27.01
801.34	28.34
801.516	28.64
801.692	28.42
801.869	28.62
802.045	29.64
802.221	29.1
802.398	29.13
802.574	29.2
802.75	28.15
802.926	27.16
803.103	26.32
803.279	25.49
803.455	25.63
803.631	26.35
803.807	27.02
803.983	25.76
804.16	24.75
804.336	26.02
804.512	25.64
804.688	26.8
804.864	28.97
805.04	29.82
805.216	30.17
805.392	29.33
805.568	29.16
805.744	30.27
805.92	31.93
806.096	33.45
806.272	31.79
806.448	31.31
806.623	31.82
806.799	30.96
806.975	30.66
807.151	30.73
807.327	31.79
807.503	31.19
807.678	30.36
807.854	28.89
808.03	28.99
808.206	29.5
808.381	29.25
808.557	29.26
808.733	28.27
808.908	28.44
809.084	28.46
809.26	27.95
809.435	27.52
809.611	27.42
809.787	28.31
809.962	27.65
810.138	28.76
810.313	30.3
810.489	30.35
810.664	30.92
810.84	32.15
811.015	31.51
811.191	32.02
811.366	34.29
811.542	34.46
811.717	34.38
811.892	36.5
812.068	34.6
812.243	34.22
812.419	33.93
812.594	33.6
812.769	32.62
812.944	34.11
813.12	33.29
813.295	32.41
813.47	31.71
813.645	32.12
813.821	31.28
813.996	33.28
814.171	32.9
814.346	33.01
814.521	34
814.697	32.89
814.872	31.03
815.047	30.95
815.222	30.78
815.397	31.21
815.572	30.4
815.747	29.25
815.922	29.13
816.097	27.69
816.272	26.58
816.447	27.08
816.622	27.47
816.797	28.65
816.972	28.83
817.147	29.4
817.322	29.49
817.496	29.43
817.671	30.16
817.846	30.26
818.021	31.63
818.196	32.72
818.371	31.06
818.545	32.3
818.72	31.48
818.895	31.29
819.069	29.43
819.244	28.81
819.419	27.9
819.594	26.46
819.768	24.68
819.943	24.98
820.117	23.63
820.292	22.95
820.467	21.29
820.641	20.41
820.816	19.19
820.99	18.27
821.165	17.75
821.339	17.21
821.514	16.94
821.688	16.57
821.863	15.43
822.037	15.44
822.212	15.57
822.386	15.49
822.56	15.57
822.735	15.5
822.909	15.5
823.084	15.44
823.258	15.5
823.432	15.56
823.606	15.95
823.781	16.48
823.955	16.94
824.129	17.17
824.303	17.58
824.478	17.58
824.652	17.98
824.826	18.46
825	18.93
825.174	19.89
825.348	20.03
825.523	19.93
825.697	20.32
825.871	19.45
826.045	19.09
826.219	18.62
826.393	18.92
826.567	18.97
826.741	19.1
826.915	18.66
827.089	18.01
827.263	18.28
827.437	18.23
827.611	18.27
827.784	18.46
827.958	18.47
828.132	18.57
828.306	18.98
828.48	19.38
828.654	19.55
828.827	20.12
829.001	20.86
829.175	21.65
829.349	22.73
829.522	23.19
829.696	24.66
829.87	26.46
830.044	27.32
830.217	28.4
830.391	30.02
830.565	31.5
830.738	32.37
830.912	33.07
831.085	32.56
831.259	31.65
831.432	30.11
831.606	29.27
831.779	28.69
831.953	28.97
832.126	26.51
832.3	23.92
832.473	22.48
832.647	22.06
832.82	21.33
832.994	20.97
833.167	20.94
833.34	21.67
833.514	21.38
833.687	20.55
833.86	19.76
834.034	20.73
834.207	21.32
834.38	21.71
834.553	22.44
834.727	22.44
834.9	22.3
835.073	22.7
835.246	23.62
835.419	23.76
835.593	23.96
835.766	24.65
835.939	24.05
836.112	25.2
836.285	25.41
836.458	25.61
836.631	26.83
836.804	28.28
836.977	28.84
837.15	28.5
837.323	30.26
837.496	32.89
837.669	34.45
837.842	36.3
838.015	36.49
838.188	37.73
838.361	37.23
838.533	37.08
838.706	39.34
838.879	38.51
839.052	40.21
839.225	40.51
839.398	39.24
839.57	37.32
839.743	36.24
839.916	34.66
840.088	35.19
840.261	34.75
840.434	38.44
840.607	36.31
840.779	37.41
840.952	36.19
841.124	35.39
841.297	34.8
841.47	38.02
841.642	39.08
841.815	41.97
841.987	41.35
842.16	43.43
842.332	41.57
842.505	43.64
842.677	45.66
842.85	45.59
843.022	47.67
843.194	49.83
843.367	49.38
843.539	48.98
843.712	51.03
843.884	53.42
844.056	54.06
844.229	53.81
844.401	56.04
844.573	55.67
844.745	57.88
844.918	57.08
845.09	60.67
845.262	62.87
845.434	66.59
845.606	64.22
845.779	62.64
845.951	62.77
846.123	60.46
846.295	56.94
846.467	59.32
846.639	59.35
846.811	59.71
846.983	58.8
847.155	58.16
847.327	58.08
847.499	60.25
847.671	62.11
847.843	64.3
848.015	64.84
848.187	67
848.359	65.09
848.531	65.71
848.703	66.54
848.875	63.54
849.047	63.88
849.218	60.26
849.39	58.8
849.562	58.43
849.734	56.68
849.905	61.95
850.077	64.75
850.249	69.12
850.421	69.44
850.592	70.83
850.764	75.39
850.936	75.01
851.107	83.88
851.279	81.14
851.451	81.77
851.622	81.98
851.794	75.18
851.965	71.71
852.137	68.53
852.308	73.21
852.48	75.55
852.651	74.42
852.823	74.9
852.994	69.49
853.166	74.62
853.337	79.71
853.509	80.88
853.68	82.72
853.851	86.62
854.023	88.5
854.194	84.22
854.365	81.31
854.537	79.02
854.708	78.46
854.879	79.16
855.05	75.59
855.222	70.95
855.393	70.12
855.564	73.62
855.735	71.37
855.906	70.93
856.078	71.97
856.249	74.28
856.42	74.8
856.591	79
856.762	80.93
856.933	83.71
857.104	85.8
857.275	84.89
857.446	81.45
857.617	85.9
857.788	81.93
857.959	81.52
858.13	78.59
858.301	82.91
858.472	79.5
858.643	79.57
858.814	85.7
858.985	87.82
859.155	94.48
859.326	99.94
859.497	97.59
859.668	103.45
859.839	97.49
860.009	97.66
860.18	93.01
860.351	90.38
860.522	93.18
860.692	88.89
860.863	82.25
861.034	80.69
861.204	73.7
861.375	71.48
861.546	67.45
861.716	71.07
861.887	69.61
862.057	71.93
862.228	72.85
862.398	69.41
862.569	67.05
862.739	68.89
862.91	67.19
863.08	71.37
863.251	68.33
863.421	71.69
863.592	72.84
863.762	75.66
863.932	72.88
864.103	73.04
864.273	70.76
864.443	70.27
864.614	74.01
864.784	74.55
864.954	75.31
865.125	81.32
865.295	80.48
865.465	77.5
865.635	77.72
865.805	79.24
865.976	82.72
866.146	86.17
866.316	84.12
866.486	81.03
866.656	84.73
866.826	82.78
866.996	81.59
867.166	81.36
867.336	85.12
867.506	82.39
867.676	83.37
867.846	85.37
868.016	86.4
868.186	89.41
868.356	86.54
868.526	82.96
868.696	83.31
868.866	79.72
869.036	80.12
869.206	80.37
869.376	82.69
869.545	81.9
869.715	75.45
869.885	77.01
870.055	75.21
870.224	79.6
870.394	81.08
870.564	82.11
870.734	84.94
870.903	83.24
871.073	84.42
871.243	81.34
871.412	81.93
871.582	80.98
871.751	78.84
871.921	77.89
872.091	79.28
872.26	74.87
872.43	69.45
872.599	68.06
872.769	68.58
872.938	66.34
873.108	66.49
873.277	66.59
873.446	65.93
873.616	66.76
873.785	72.02
873.955	70
874.124	70.49
874.293	72.99
874.463	73.93
874.632	73.82
874.801	76.69
874.971	76.28
875.14	72.25
875.309	71.81
875.478	72.04
875.647	70.66
875.817	70.13
875.986	70.69
876.155	72.83
876.324	71.43
876.493	70.5
876.662	67.97
876.831	67.11
877	68.92
877.17	68.09
877.339	63.35
877.508	59.64
877.677	59.64
877.846	60.6
878.015	59.58
878.184	60.12
878.352	60.45
878.521	57.51
878.69	58.62
878.859	60.55
879.028	62.88
879.197	63.87
879.366	62.82
879.534	59.69
879.703	56.84
879.872	52.67
880.041	48.15
880.21	44.38
880.378	42.31
880.547	37.71
880.716	34.28
880.884	31.24
881.053	29.71
881.222	27.68
881.39	26.78
881.559	25.15
881.727	24.49
881.896	24.11
882.065	23.6
882.233	23.31
882.402	24.02
882.57	23.92
882.739	23.89
882.907	23.67
883.076	23.46
883.244	23.05
883.412	23.56
883.581	24.21
883.749	24.48
883.918	24.7
884.086	25.97
884.254	26.48
884.423	26.68
884.591	27.86
884.759	29.46
884.927	31.27
885.096	33.27
885.264	34.73
885.432	35.65
885.6	37.34
885.769	40.37
885.937	40.15
886.105	41.96
886.273	45.29
886.441	47.25
886.609	47.15
886.777	48.53
886.945	50.78
887.113	55.72
887.281	55.61
887.449	55.73
887.617	57.88
887.785	63.74
887.953	65.6
888.121	67.27
888.289	69.96
888.457	73.03
888.625	75.19
888.793	73.6
888.961	74.72
889.129	76.23
889.296	76.3
889.464	75.55
889.632	73.44
889.8	73.04
889.967	73.63
890.135	70.32
