Data from 2938759__Reflection_06.txt Node
Date: Fri Mar 13 18:28:37 EDT 2015
User: robert
Spectrometer: USB4E03002
Autoset integration time: false
Trigger mode: 4
Integration Time (sec): 1.000000E-1
Scans to average: 10
Electric dark correction enabled: false
Nonlinearity correction enabled: false
Boxcar width: 5
Stray light correction enabled: false
XAxis mode: Wavelengths
Stop averaging: false
Number of Pixels in Spectrum: 3648
>>>>>Begin Spectral Data<<<<<
177.575	-459.09
177.794	-3278.57
178.014	-300.86
178.233	-335.14
178.452	37500
178.672	233.53
178.891	188.17
179.11	-40.45
179.33	-78.05
179.549	-67.47
179.768	58.94
179.987	57.53
180.207	-15.91
180.426	34.97
180.645	358.33
180.864	101.9
181.084	50
181.303	52.34
181.522	19
181.741	34.28
181.96	75.59
182.179	84.89
182.398	111.83
182.618	107.08
182.837	73.63
183.056	126.27
183.275	52.17
183.494	59.62
183.713	-30.16
183.932	-265
184.151	3300
184.37	76.71
184.589	86.69
184.808	95.51
185.027	119.42
185.246	86.75
185.465	116.94
185.684	93.08
185.903	115.02
186.122	255.86
186.341	86.82
186.56	-2415.38
186.779	-49.73
186.998	-38.59
187.216	5.07
187.435	11.67
187.654	-1.38
187.873	2.73
188.092	21.58
188.311	36.33
188.53	50.94
188.748	21.65
188.967	34.11
189.186	47.13
189.405	60.78
189.623	95.44
189.842	24.18
190.061	-19.47
190.28	9.54
190.498	24.35
190.717	30.63
190.936	59.26
191.154	79.75
191.373	77.58
191.592	132.92
191.81	-850
192.029	-300
192.248	-160.51
192.466	-35.25
192.685	-34.48
192.904	-148.52
193.122	-736.17
193.341	-752.63
193.559	-815.38
193.778	3009.09
193.996	242.11
194.215	197.8
194.433	421.5
194.652	487.5
194.87	8700
195.089	341.46
195.307	-522.58
195.526	-27.08
195.744	12.83
195.963	11.64
196.181	52.11
196.399	59.61
196.618	38.14
196.836	81.31
197.055	93.44
197.273	62.3
197.491	41.81
197.71	27.13
197.928	11.39
198.146	-39.74
198.365	-28.28
198.583	-97.92
198.801	-10.2
199.019	74.45
199.238	2.19
199.456	-26.96
199.674	4.2
199.892	3.56
200.111	6.62
200.329	48.86
200.547	36.04
200.765	75.33
200.983	64.82
201.202	33.7
201.42	24.21
201.638	20.74
201.856	66.67
202.074	59.64
202.292	13.4
202.51	35.64
202.728	-6.01
202.946	16.47
203.165	1.13
203.383	-116.49
203.601	-265.22
203.819	-32.74
204.037	-21.43
204.255	-11.97
204.473	-30.85
204.691	27.7
204.909	10.44
205.127	10.14
205.345	4.8
205.562	0.17
205.78	-25.85
205.998	18.1
206.216	10.94
206.434	16.69
206.652	0.92
206.87	-8.75
207.088	-16.49
207.306	-10.89
207.523	-18.69
207.741	-4.65
207.959	2.25
208.177	15.42
208.395	25.82
208.612	-14.47
208.83	-12.23
209.048	7.4
209.266	29.54
209.483	37.61
209.701	18.23
209.919	35.57
210.136	11.95
210.354	-5.68
210.572	12.3
210.79	4.47
211.007	27.76
211.225	9.43
211.442	-19.16
211.66	-6.11
211.878	-11.44
212.095	-119.14
212.313	-282.97
212.53	-175.1
212.748	-165.91
212.966	-143.72
213.183	-204.18
213.401	-130.13
213.618	-119.24
213.836	-198.88
214.053	-425.12
214.271	-253.26
214.488	62.15
214.705	39.46
214.923	34.09
215.14	8.22
215.358	-3.23
215.575	14.59
215.793	-3.46
216.01	18.16
216.227	23.02
216.445	29.44
216.662	17.88
216.879	17.5
217.097	23.05
217.314	11.13
217.531	3.85
217.749	-13.68
217.966	-28.18
218.183	-19.57
218.4	-36.96
218.618	-26.26
218.835	-27.61
219.052	-27.79
219.269	-52.69
219.487	-43.54
219.704	-22.6
219.921	-10.17
220.138	0.52
220.355	1.64
220.572	13.33
220.79	17.14
221.007	11.86
221.224	2.11
221.441	8.56
221.658	21.39
221.875	25.77
222.092	27.64
222.309	29.4
222.526	24.42
222.743	28.76
222.96	18.84
223.177	15.58
223.394	16.64
223.611	17.01
223.828	17.11
224.045	7.32
224.262	5.14
224.479	5.28
224.696	0.65
224.913	2.9
225.13	3.19
225.347	-0.86
225.564	1.31
225.781	-0.54
225.997	0.03
226.214	-2.06
226.431	-1.08
226.648	-2.4
226.865	-3.73
227.082	-4.06
227.298	-2.72
227.515	-2.31
227.732	-1.38
227.949	-2.26
228.165	-0.57
228.382	0.6
228.599	1.32
228.816	1.73
229.032	1.95
229.249	1.42
229.466	2.64
229.682	2.86
229.899	3.17
230.116	3.04
230.332	2.87
230.549	2.72
230.765	1.34
230.982	0.23
231.199	0.17
231.415	0.23
231.632	1.28
231.848	0.64
232.065	-0.56
232.281	-1.91
232.498	-0.02
232.714	2.43
232.931	3.44
233.147	4.9
233.364	6.39
233.58	6.02
233.797	3.69
234.013	2.55
234.23	1.16
234.446	-0.04
234.662	0.25
234.879	-1.23
235.095	-1.23
235.312	-2.2
235.528	-3.21
235.744	-4.16
235.961	-2.77
236.177	-0.83
236.393	0.61
236.61	1.58
236.826	4.52
237.042	4.42
237.258	6.89
237.475	7.3
237.691	6.47
237.907	5.61
238.123	5.3
238.339	2.4
238.556	1.37
238.772	-0.93
238.988	-1.02
239.204	-1.48
239.42	-1.07
239.636	-1.76
239.853	-2.19
240.069	-0.84
240.285	-0.37
240.501	-0.04
240.717	0.51
240.933	0.31
241.149	1.47
241.365	1.75
241.581	1.76
241.797	1.95
242.013	1.47
242.229	1.18
242.445	0.58
242.661	0.83
242.877	0.89
243.093	1
243.309	1.23
243.525	0.86
243.741	0.49
243.957	0.91
244.173	1.51
244.388	2.75
244.604	2.44
244.82	3.03
245.036	3.08
245.252	2.87
245.468	3.38
245.683	3.1
245.899	3.31
246.115	3.04
246.331	2.03
246.547	1.65
246.762	1.17
246.978	1.34
247.194	0.92
247.409	0.91
247.625	0.71
247.841	0.42
248.057	0.77
248.272	0.54
248.488	0.57
248.703	0.91
248.919	0.66
249.135	0.56
249.35	0.66
249.566	1.08
249.782	1.23
249.997	2.09
250.213	2.74
250.428	2
250.644	2.14
250.859	2.27
251.075	1.94
251.29	2.1
251.506	2.07
251.721	2.05
251.937	2.32
252.152	1.92
252.368	1.39
252.583	1.21
252.798	1.68
253.014	1.66
253.229	1.19
253.445	1.35
253.66	0.98
253.875	1.04
254.091	1.93
254.306	1.96
254.521	1.72
254.737	1.98
254.952	1.59
255.167	2.63
255.383	1.99
255.598	2.45
255.813	2.5
256.028	2.14
256.244	1.65
256.459	1.04
256.674	0.64
256.889	1.65
257.104	1.02
257.32	0.8
257.535	-0.48
257.75	0.12
257.965	-0.16
258.18	-0.34
258.395	0.3
258.61	0.29
258.826	0.06
259.041	-0.03
259.256	-0.34
259.471	-0.15
259.686	-0.22
259.901	0.09
260.116	0.14
260.331	0.24
260.546	0.6
260.761	0.47
260.976	0.73
261.191	0.81
261.406	0.83
261.621	1.03
261.836	1.05
262.05	1.4
262.265	1.34
262.48	1.3
262.695	1.71
262.91	1.65
263.125	1.81
263.34	1.58
263.555	1.88
263.769	1.53
263.984	1.53
264.199	1.36
264.414	1.5
264.629	1.13
264.843	1.28
265.058	1.35
265.273	1.01
265.488	0.91
265.702	0.86
265.917	0.22
266.132	0.59
266.346	0.04
266.561	0.37
266.776	0.53
266.99	0.73
267.205	0.23
267.42	-0.22
267.634	0.26
267.849	0.44
268.063	0.76
268.278	1.24
268.492	1.04
268.707	1.91
268.922	1.55
269.136	1.14
269.351	1.63
269.565	1.79
269.78	2.02
269.994	1.82
270.209	1.7
270.423	1.18
270.637	0.61
270.852	0.97
271.066	0.48
271.281	0.75
271.495	0.28
271.709	-0.21
271.924	-0.07
272.138	-0.26
272.353	-0.3
272.567	-0.43
272.781	-0.3
272.996	-0.17
273.21	-0.17
273.424	0.26
273.638	0.3
273.853	0.74
274.067	1.11
274.281	0.77
274.495	0.93
274.71	1.05
274.924	1.68
275.138	2.03
275.352	2.14
275.566	2.03
275.781	1.82
275.995	1.36
276.209	1.43
276.423	0.74
276.637	1.08
276.851	1.68
277.065	1.5
277.279	0.62
277.493	0.51
277.707	0.32
277.921	0.49
278.135	0.4
278.349	1.03
278.563	1.22
278.777	1.76
278.991	1.65
279.205	1.29
279.419	0.99
279.633	1.9
279.847	1.67
280.061	1.83
280.275	1.93
280.489	2.12
280.703	2.02
280.917	1.85
281.131	1.45
281.344	1.21
281.558	1.03
281.772	0.83
281.986	0.64
282.2	0.69
282.414	0.84
282.627	0.83
282.841	0.6
283.055	0.42
283.269	0.55
283.482	0.69
283.696	1.01
283.91	0.62
284.123	0.89
284.337	0.59
284.551	0.69
284.764	0.71
284.978	0.81
285.192	0.65
285.405	0.8
285.619	0.88
285.833	1.08
286.046	1.26
286.26	1.53
286.473	1.56
286.687	1.56
286.9	1.69
287.114	1.8
287.327	1.63
287.541	2.05
287.754	1.82
287.968	2.02
288.181	1.96
288.395	1.71
288.608	1.81
288.822	1.96
289.035	2.04
289.248	1.75
289.462	1.47
289.675	1.21
289.889	0.97
290.102	1.03
290.315	0.63
290.529	0.47
290.742	0.68
290.955	0.88
291.169	0.86
291.382	0.93
291.595	1.27
291.808	1.35
292.022	1.25
292.235	1.35
292.448	1.21
292.661	1.2
292.875	1.87
293.088	1.78
293.301	1.78
293.514	1.63
293.727	1.34
293.94	1.37
294.153	1.49
294.367	1.69
294.58	1.68
294.793	1.84
295.006	1.82
295.219	1.26
295.432	1.04
295.645	0.81
295.858	0.99
296.071	1.28
296.284	1.34
296.497	1.34
296.71	1.61
296.923	1.76
297.136	2.08
297.349	2.15
297.562	2.25
297.775	2.44
297.988	2.77
298.201	2.9
298.414	2.85
298.626	2.72
298.839	2.66
299.052	2.55
299.265	2.33
299.478	2.08
299.691	1.96
299.903	1.78
300.116	1.63
300.329	1.18
300.542	1.02
300.755	0.91
300.967	1.24
301.18	1.27
301.393	0.96
301.605	1.08
301.818	0.96
302.031	0.95
302.243	1.28
302.456	1.48
302.669	1.42
302.881	1.11
303.094	1.17
303.307	0.72
303.519	0.72
303.732	1.07
303.944	1.11
304.157	1.26
304.37	1.88
304.582	1.78
304.795	1.45
305.007	1.6
305.22	1.79
305.432	2
305.645	1.84
305.857	2.17
306.069	2.34
306.282	2.23
306.494	2.48
306.707	1.99
306.919	2.6
307.132	2.78
307.344	2.92
307.556	2.88
307.769	2.74
307.981	2.92
308.193	2.8
308.406	2.67
308.618	2.69
308.83	2.32
309.043	2.38
309.255	1.99
309.467	2.08
309.679	2.03
309.892	2.41
310.104	2.38
310.316	2.4
310.528	2.45
310.74	2.38
310.953	2.22
311.165	2.54
311.377	2.79
311.589	2.95
311.801	3.11
312.013	3.04
312.225	2.85
312.437	3
312.649	2.98
312.862	3.06
313.074	3.31
313.286	3.74
313.498	4.06
313.71	3.92
313.922	3.91
314.134	3.95
314.346	4.3
314.558	4.68
314.77	5.18
314.982	5.36
315.193	5.23
315.405	4.98
315.617	4.9
315.829	4.15
316.041	4.4
316.253	4.4
316.465	4.28
316.677	3.84
316.888	3.15
317.1	2.69
317.312	2.93
317.524	2.55
317.736	2.79
317.947	2.84
318.159	3.11
318.371	3.01
318.583	2.81
318.794	3.15
319.006	3.83
319.218	4.1
319.43	4.36
319.641	4.5
319.853	4.28
320.064	4.35
320.276	4.48
320.488	4.91
320.699	4.73
320.911	4.55
321.123	4.63
321.334	4.51
321.546	4.44
321.757	4.15
321.969	3.85
322.18	4.45
322.392	4.26
322.603	4.15
322.815	4.1
323.026	4.23
323.238	4.85
323.449	4.57
323.661	4.3
323.872	4.27
324.083	4.22
324.295	4.16
324.506	4.74
324.718	4.94
324.929	5.19
325.14	5.18
325.352	5.65
325.563	5.49
325.774	5.56
325.986	6.15
326.197	6.6
326.408	7.05
326.62	7.71
326.831	7.58
327.042	7.7
327.253	7.74
327.464	8.44
327.676	8.39
327.887	9.01
328.098	9.21
328.309	9.12
328.52	9.57
328.732	9.6
328.943	9.05
329.154	8.95
329.365	8.76
329.576	9.1
329.787	8.39
329.998	8.52
330.209	8.04
330.42	8.27
330.631	7.91
330.842	8.02
331.053	7.94
331.264	8.48
331.475	8.68
331.686	9.34
331.897	9.48
332.108	9.72
332.319	9.87
332.53	9.9
332.741	9.95
332.952	10.32
333.163	9.79
333.374	10.32
333.585	10.14
333.795	10.35
334.006	9.78
334.217	9.58
334.428	9.4
334.639	9.56
334.849	9.99
335.06	10.24
335.271	9.98
335.482	10.17
335.692	9.94
335.903	9.95
336.114	10.08
336.325	10.58
336.535	10.59
336.746	11.15
336.957	10.66
337.167	10.67
337.378	10.57
337.589	10.99
337.799	10.82
338.01	10.92
338.22	11
338.431	10.83
338.642	10.81
338.852	10.69
339.063	10.39
339.273	11.15
339.484	11.05
339.694	11.07
339.905	10.64
340.115	10.92
340.326	10.67
340.536	10.71
340.746	11
340.957	11.28
341.167	11.22
341.378	11.41
341.588	10.62
341.799	10.52
342.009	10.31
342.219	10.78
342.43	10.86
342.64	10.9
342.85	10.95
343.061	10.93
343.271	10.37
343.481	10.56
343.691	10.65
343.902	11.23
344.112	11.42
344.322	11.55
344.532	11.55
344.743	11.54
344.953	11.62
345.163	11.53
345.373	11.23
345.583	11.59
345.793	11.85
346.004	11.47
346.214	11.04
346.424	10.72
346.634	10.76
346.844	10.64
347.054	10.32
347.264	10.25
347.474	10.75
347.684	10.94
347.894	10.94
348.104	10.84
348.314	10.9
348.524	11.22
348.734	11.53
348.944	11.51
349.154	11.69
349.364	11.71
349.574	11.86
349.784	11.53
349.994	11.52
350.204	11.35
350.413	11.2
350.623	11.13
350.833	10.86
351.043	11.04
351.253	11
351.463	10.8
351.672	10.72
351.882	10.44
352.092	10.53
352.302	10.51
352.511	10.64
352.721	10.63
352.931	10.7
353.141	10.63
353.35	10.55
353.56	10.53
353.77	10.35
353.979	10.62
354.189	10.37
354.399	10.08
354.608	9.73
354.818	9.68
355.027	9.55
355.237	9.63
355.447	9.78
355.656	9.58
355.866	9.49
356.075	9.58
356.285	9.73
356.494	10.05
356.704	10.23
356.913	10.63
357.123	10.58
357.332	10.64
357.542	10.53
357.751	10.75
357.96	10.87
358.17	11.09
358.379	11.11
358.589	10.93
358.798	11.21
359.007	11.27
359.217	11.26
359.426	11.27
359.635	11.34
359.845	11.61
360.054	11.4
360.263	11.34
360.472	11.03
360.682	11.05
360.891	11.02
361.1	10.89
361.309	10.82
361.519	10.66
361.728	10.81
361.937	10.68
362.146	10.44
362.355	10.44
362.564	10.22
362.774	10.44
362.983	10.42
363.192	10.42
363.401	10.33
363.61	10.38
363.819	10.41
364.028	10.46
364.237	10.75
364.446	10.64
364.655	10.59
364.864	10.68
365.073	10.77
365.282	10.69
365.491	10.6
365.7	10.51
365.909	10.27
366.118	10.38
366.327	10.19
366.536	10.03
366.745	10.38
366.954	10.33
367.162	10.33
367.371	10.13
367.58	10.05
367.789	10.07
367.998	10.19
368.207	10.39
368.415	10.14
368.624	10.15
368.833	10.17
369.042	9.91
369.25	9.92
369.459	10.03
369.668	9.9
369.877	10.11
370.085	10.16
370.294	10.35
370.503	10.32
370.711	10.6
370.92	10.53
371.129	10.43
371.337	10.5
371.546	10.6
371.754	10.31
371.963	10.62
372.171	10.53
372.38	10.68
372.589	10.36
372.797	10.31
373.006	10.27
373.214	10.24
373.423	10.26
373.631	10.5
373.84	10.5
374.048	10.73
374.256	10.81
374.465	10.71
374.673	10.39
374.882	10.41
375.09	10.44
375.298	10.32
375.507	10.51
375.715	10.46
375.923	10.19
376.132	10.06
376.34	10.04
376.548	9.83
376.757	9.87
376.965	10.08
377.173	10.14
377.381	10.09
377.59	9.84
377.798	9.87
378.006	9.93
378.214	9.84
378.423	9.85
378.631	9.91
378.839	9.84
379.047	9.81
379.255	9.6
379.463	9.75
379.671	9.73
379.879	9.9
380.088	9.58
380.296	9.47
380.504	9.44
380.712	9.41
380.92	9.3
381.128	9.26
381.336	9.31
381.544	9.62
381.752	9.3
381.96	9.22
382.168	9.31
382.376	9.53
382.584	9.73
382.791	9.76
382.999	9.91
383.207	10.04
383.415	9.73
383.623	9.73
383.831	9.54
384.039	9.8
384.247	9.97
384.454	9.97
384.662	9.83
384.87	9.6
385.078	9.52
385.285	9.42
385.493	9.41
385.701	9.63
385.909	9.56
386.116	9.57
386.324	9.52
386.532	9.38
386.739	9.38
386.947	9.38
387.155	9.39
387.362	9.61
387.57	9.53
387.778	9.41
387.985	9.58
388.193	9.58
388.4	9.58
388.608	9.6
388.816	9.61
389.023	9.68
389.231	9.58
389.438	9.56
389.646	9.49
389.853	9.57
390.061	9.54
390.268	9.59
390.475	9.52
390.683	9.51
390.89	9.39
391.098	9.41
391.305	9.17
391.512	9.2
391.72	9.27
391.927	9.2
392.135	8.97
392.342	8.97
392.549	8.79
392.756	8.87
392.964	8.92
393.171	8.89
393.378	8.92
393.586	8.95
393.793	9.21
394	9.23
394.207	9.3
394.414	9.33
394.622	9.28
394.829	9.31
395.036	9.09
395.243	9.11
395.45	9.14
395.657	9.02
395.864	9
396.072	8.57
396.279	8.47
396.486	8.4
396.693	8.49
396.9	8.47
397.107	8.42
397.314	8.69
397.521	8.54
397.728	8.5
397.935	8.44
398.142	8.48
398.349	8.73
398.556	8.78
398.763	8.78
398.97	8.86
399.177	8.88
399.383	8.96
399.59	8.87
399.797	9.02
400.004	9.06
400.211	9.09
400.418	9.16
400.625	9.14
400.831	9.07
401.038	8.99
401.245	9.01
401.452	9.06
401.658	8.95
401.865	8.98
402.072	8.66
402.279	8.57
402.485	8.58
402.692	8.45
402.899	8.51
403.105	8.6
403.312	8.72
403.519	8.61
403.725	8.57
403.932	8.58
404.138	8.56
404.345	8.73
404.552	8.65
404.758	8.8
404.965	8.96
405.171	8.8
405.378	8.76
405.584	8.76
405.791	8.95
405.997	8.91
406.204	9
406.41	9.01
406.617	9.13
406.823	9.15
407.029	9.22
407.236	9.22
407.442	9.14
407.649	9.24
407.855	9.24
408.061	9.16
408.268	9.24
408.474	9.28
408.68	9.36
408.887	9.27
409.093	9.44
409.299	9.42
409.505	9.21
409.712	9.43
409.918	9.31
410.124	9.14
410.33	9.13
410.537	9.2
410.743	9.22
410.949	9.1
411.155	9.1
411.361	9.05
411.567	8.92
411.773	8.98
411.98	8.92
412.186	9.1
412.392	9.16
412.598	9.17
412.804	9
413.01	8.99
413.216	9.04
413.422	9.19
413.628	9.19
413.834	9.31
414.04	9.38
414.246	9.29
414.452	9.16
414.658	9.27
414.864	9.15
415.07	9.22
415.275	9.21
415.481	9.25
415.687	9.1
415.893	9.03
416.099	8.98
416.305	8.93
416.511	9.06
416.716	9.05
416.922	8.98
417.128	9.11
417.334	9.18
417.539	9.14
417.745	9.06
417.951	9.03
418.157	9.05
418.362	9.07
418.568	9.12
418.774	9.1
418.979	9.17
419.185	9.23
419.391	9.18
419.596	9.18
419.802	9.15
420.008	9.19
420.213	9.25
420.419	9.27
420.624	9.26
420.83	9.22
421.035	9.23
421.241	9.13
421.446	9.06
421.652	9.09
421.857	9.09
422.063	9.01
422.268	9.07
422.474	8.97
422.679	8.99
422.885	8.93
423.09	9.01
423.295	9.01
423.501	9.05
423.706	9.05
423.911	9
424.117	9.02
424.322	9.12
424.527	9.03
424.733	9.15
424.938	9.2
425.143	9.25
425.349	9.18
425.554	9.18
425.759	9.13
425.964	9.13
426.169	9.13
426.375	9.08
426.58	9.1
426.785	9.19
426.99	9.15
427.195	9.05
427.4	9.08
427.605	9.07
427.811	9.12
428.016	9.31
428.221	9.39
428.426	9.48
428.631	9.56
428.836	9.58
429.041	9.52
429.246	9.42
429.451	9.52
429.656	9.44
429.861	9.54
430.066	9.51
430.271	9.35
430.476	9.26
430.681	9.2
430.886	9.2
431.09	9.18
431.295	9.11
431.5	9.21
431.705	9.15
431.91	9.22
432.115	9.22
432.32	9.15
432.524	9.2
432.729	9.23
432.934	9.28
433.139	9.27
433.343	9.25
433.548	9.33
433.753	9.39
433.958	9.38
434.162	9.32
434.367	9.25
434.572	9.35
434.776	9.31
434.981	9.37
435.186	9.36
435.39	9.28
435.595	9.31
435.799	9.34
436.004	9.25
436.209	9.3
436.413	9.38
436.618	9.45
436.822	9.47
437.027	9.54
437.231	9.55
437.436	9.63
437.64	9.72
437.845	9.72
438.049	9.6
438.253	9.69
438.458	9.63
438.662	9.67
438.867	9.65
439.071	9.62
439.275	9.6
439.48	9.54
439.684	9.49
439.888	9.46
440.093	9.54
440.297	9.57
440.501	9.6
440.706	9.74
440.91	9.75
441.114	9.76
441.318	9.77
441.523	9.77
441.727	9.82
441.931	9.81
442.135	9.8
442.339	9.75
442.543	9.83
442.748	9.76
442.952	9.67
443.156	9.58
443.36	9.67
443.564	9.65
443.768	9.68
443.972	9.62
444.176	9.57
444.38	9.54
444.584	9.51
444.788	9.47
444.992	9.48
445.196	9.48
445.4	9.51
445.604	9.46
445.808	9.43
446.012	9.42
446.216	9.47
446.42	9.51
446.624	9.52
446.828	9.51
447.032	9.49
447.235	9.5
447.439	9.48
447.643	9.45
447.847	9.41
448.051	9.5
448.254	9.52
448.458	9.47
448.662	9.47
448.866	9.59
449.069	9.62
449.273	9.63
449.477	9.59
449.681	9.59
449.884	9.65
450.088	9.71
450.292	9.7
450.495	9.7
450.699	9.85
450.902	9.81
451.106	9.68
451.31	9.53
451.513	9.59
451.717	9.56
451.92	9.6
452.124	9.53
452.327	9.48
452.531	9.34
452.734	9.24
452.938	9.19
453.141	9.36
453.345	9.44
453.548	9.53
453.752	9.46
453.955	9.43
454.158	9.39
454.362	9.42
454.565	9.48
454.769	9.67
454.972	9.77
455.175	9.69
455.379	9.61
455.582	9.65
455.785	9.66
455.988	9.7
456.192	9.81
456.395	9.82
456.598	9.78
456.801	9.64
457.005	9.58
457.208	9.56
457.411	9.56
457.614	9.47
457.817	9.29
458.021	9.31
458.224	9.3
458.427	9.21
458.63	9.24
458.833	9.27
459.036	9.3
459.239	9.3
459.442	9.39
459.645	9.41
459.848	9.5
460.051	9.61
460.254	9.63
460.457	9.68
460.66	9.76
460.863	9.77
461.066	9.81
461.269	9.87
461.472	9.86
461.675	9.78
461.878	9.76
462.081	9.77
462.284	9.83
462.486	9.85
462.689	9.78
462.892	9.76
463.095	9.67
463.298	9.74
463.5	9.76
463.703	9.79
463.906	9.81
464.109	9.76
464.311	9.71
464.514	9.53
464.717	9.51
464.92	9.55
465.122	9.68
465.325	9.82
465.528	9.74
465.73	9.72
465.933	9.56
466.135	9.57
466.338	9.63
466.541	9.68
466.743	9.77
466.946	9.73
467.148	9.72
467.351	9.58
467.553	9.54
467.756	9.56
467.958	9.55
468.161	9.74
468.363	9.76
468.566	9.9
468.768	9.86
468.971	9.89
469.173	9.9
469.375	9.92
469.578	9.91
469.78	9.89
469.983	9.96
470.185	9.91
470.387	9.78
470.59	9.71
470.792	9.77
470.994	9.85
471.196	9.73
471.399	9.8
471.601	9.76
471.803	9.83
472.005	9.76
472.208	9.78
472.41	9.81
472.612	9.9
472.814	9.94
473.016	9.87
473.218	9.76
473.421	9.8
473.623	9.78
473.825	9.88
474.027	9.89
474.229	9.99
474.431	9.9
474.633	9.85
474.835	9.8
475.037	9.77
475.239	9.77
475.441	9.86
475.643	9.97
475.845	10.02
476.047	9.86
476.249	9.8
476.451	9.87
476.653	9.93
476.855	10.06
477.057	10.06
477.258	10.13
477.46	10.03
477.662	10.01
477.864	9.94
478.066	9.92
478.268	10.09
478.469	10.1
478.671	10.02
478.873	9.94
479.075	9.85
479.276	9.82
479.478	9.71
479.68	9.67
479.882	9.62
480.083	9.7
480.285	9.67
480.487	9.62
480.688	9.62
480.89	9.61
481.091	9.63
481.293	9.68
481.495	9.72
481.696	9.72
481.898	9.79
482.099	9.83
482.301	9.78
482.502	9.76
482.704	9.75
482.905	9.76
483.107	9.78
483.308	9.78
483.51	9.73
483.711	9.74
483.913	9.79
484.114	9.76
484.315	9.77
484.517	9.78
484.718	9.79
484.92	9.79
485.121	9.79
485.322	9.79
485.524	9.79
485.725	9.82
485.926	9.8
486.127	9.76
486.329	9.77
486.53	9.75
486.731	9.74
486.932	9.74
487.134	9.74
487.335	9.79
487.536	9.82
487.737	9.82
487.938	9.85
488.139	9.89
488.341	9.9
488.542	9.93
488.743	9.97
488.944	10
489.145	10.05
489.346	10.1
489.547	10.03
489.748	9.96
489.949	9.99
490.15	9.98
490.351	9.93
490.552	9.93
490.753	9.92
490.954	9.88
491.155	9.87
491.356	9.81
491.557	9.77
491.758	9.79
491.959	9.83
492.159	9.86
492.36	9.91
492.561	9.96
492.762	9.98
492.963	9.98
493.164	10.02
493.364	10.03
493.565	10.11
493.766	10.16
493.967	10.18
494.167	10.22
494.368	10.19
494.569	10.11
494.769	10.06
494.97	10.08
495.171	10.09
495.371	10.06
495.572	10.08
495.773	9.99
495.973	9.98
496.174	9.96
496.375	9.97
496.575	9.96
496.776	9.98
496.976	10.02
497.177	10.07
497.377	10.11
497.578	10.15
497.778	10.11
497.979	10.22
498.179	10.15
498.38	10.19
498.58	10.19
498.78	10.18
498.981	10.18
499.181	10.12
499.382	10.03
499.582	10.01
499.782	10.02
499.983	10.03
500.183	10.07
500.383	10.2
500.584	10.22
500.784	10.13
500.984	10.19
501.184	10.24
501.385	10.43
501.585	10.52
501.785	10.49
501.985	10.56
502.185	10.55
502.386	10.53
502.586	10.49
502.786	10.5
502.986	10.57
503.186	10.62
503.386	10.62
503.586	10.5
503.786	10.37
503.987	10.36
504.187	10.3
504.387	10.38
504.587	10.37
504.787	10.38
504.987	10.44
505.187	10.52
505.387	10.44
505.587	10.51
505.786	10.57
505.986	10.76
506.186	10.92
506.386	10.91
506.586	10.85
506.786	10.91
506.986	10.91
507.186	10.91
507.386	10.94
507.585	11.02
507.785	11.01
507.985	11.01
508.185	10.96
508.384	10.94
508.584	11.06
508.784	11.12
508.984	11.17
509.183	11.22
509.383	11.2
509.583	11.24
509.782	11.17
509.982	11.2
510.182	11.23
510.381	11.3
510.581	11.28
510.781	11.15
510.98	11.22
511.18	11.16
511.379	11.15
511.579	11.19
511.778	11.11
511.978	11.14
512.177	11.09
512.377	11.09
512.576	11.11
512.776	11.21
512.975	11.31
513.175	11.32
513.374	11.29
513.573	11.39
513.773	11.41
513.972	11.47
514.172	11.63
514.371	11.74
514.57	11.83
514.77	11.75
514.969	11.7
515.168	11.63
515.367	11.67
515.567	11.86
515.766	11.85
515.965	11.87
516.164	11.92
516.364	11.9
516.563	11.9
516.762	11.96
516.961	12.06
517.16	12.13
517.359	12.29
517.559	12.34
517.758	12.36
517.957	12.4
518.156	12.43
518.355	12.43
518.554	12.44
518.753	12.47
518.952	12.46
519.151	12.51
519.35	12.56
519.549	12.54
519.748	12.54
519.947	12.59
520.146	12.6
520.345	12.68
520.544	12.8
520.743	12.87
520.942	12.9
521.141	12.99
521.339	13.03
521.538	13.04
521.737	13.07
521.936	13.19
522.135	13.14
522.333	13.23
522.532	13.27
522.731	13.29
522.93	13.37
523.129	13.49
523.327	13.48
523.526	13.46
523.725	13.51
523.923	13.59
524.122	13.63
524.321	13.7
524.519	13.77
524.718	13.81
524.917	13.86
525.115	13.84
525.314	13.81
525.512	13.88
525.711	13.96
525.909	13.96
526.108	13.97
526.306	13.96
526.505	13.99
526.703	14.04
526.902	14.04
527.1	14.03
527.299	14.05
527.497	14.09
527.696	14.11
527.894	14.16
528.092	14.23
528.291	14.32
528.489	14.38
528.688	14.38
528.886	14.41
529.084	14.48
529.283	14.56
529.481	14.65
529.679	14.7
529.877	14.81
530.076	14.84
530.274	14.86
530.472	14.86
530.67	14.92
530.869	15.02
531.067	15.05
531.265	15.06
531.463	15.15
531.661	15.17
531.859	15.21
532.057	15.16
532.255	15.26
532.454	15.28
532.652	15.35
532.85	15.29
533.048	15.33
533.246	15.37
533.444	15.45
533.642	15.48
533.84	15.55
534.038	15.63
534.236	15.72
534.434	15.74
534.632	15.84
534.83	15.89
535.027	16.04
535.225	16.09
535.423	16.14
535.621	16.15
535.819	16.15
536.017	16.11
536.215	16.14
536.412	16.16
536.61	16.22
536.808	16.24
537.006	16.26
537.203	16.22
537.401	16.31
537.599	16.35
537.797	16.42
537.994	16.44
538.192	16.48
538.39	16.5
538.587	16.57
538.785	16.54
538.983	16.55
539.18	16.64
539.378	16.77
539.575	16.71
539.773	16.76
539.97	16.73
540.168	16.79
540.366	16.84
540.563	16.89
540.761	16.92
540.958	16.98
541.155	17.05
541.353	17.02
541.55	17.04
541.748	17.13
541.945	17.17
542.143	17.25
542.34	17.34
542.537	17.4
542.735	17.47
542.932	17.53
543.129	17.6
543.327	17.65
543.524	17.8
543.721	17.84
543.919	17.9
544.116	17.97
544.313	18.08
544.51	18.08
544.708	18.21
544.905	18.2
545.102	18.28
545.299	18.39
545.496	18.4
545.693	18.43
545.891	18.51
546.088	18.5
546.285	18.47
546.482	18.44
546.679	18.42
546.876	18.41
547.073	18.43
547.27	18.4
547.467	18.31
547.664	18.35
547.861	18.27
548.058	18.22
548.255	18.19
548.452	18.24
548.649	18.31
548.846	18.33
549.043	18.33
549.24	18.25
549.437	18.32
549.633	18.29
549.83	18.28
550.027	18.32
550.224	18.28
550.421	18.31
550.618	18.22
550.814	18.06
551.011	18.05
551.208	18.06
551.405	18.13
551.601	18
551.798	18.05
551.995	18.01
552.191	17.91
552.388	18
552.585	17.99
552.781	17.98
552.978	18.06
553.175	18.06
553.371	17.95
553.568	17.99
553.764	18.03
553.961	18
554.157	17.99
554.354	18
554.55	17.88
554.747	18.01
554.943	18.03
555.14	18
555.336	17.97
555.533	17.98
555.729	17.95
555.926	17.98
556.122	17.93
556.318	17.9
556.515	18.04
556.711	18.19
556.907	18.05
557.104	17.98
557.3	17.92
557.496	17.88
557.693	17.95
557.889	17.95
558.085	17.91
558.281	18
558.478	18.06
558.674	18.03
558.87	17.92
559.066	18.08
559.262	18.14
559.459	18.29
559.655	18.31
559.851	18.31
560.047	18.3
560.243	18.38
560.439	18.35
560.635	18.38
560.831	18.43
561.027	18.47
561.223	18.4
561.419	18.47
561.615	18.48
561.811	18.55
562.007	18.53
562.203	18.54
562.399	18.57
562.595	18.63
562.791	18.62
562.987	18.52
563.183	18.43
563.379	18.49
563.575	18.44
563.771	18.43
563.966	18.47
564.162	18.36
564.358	18.37
564.554	18.3
564.75	18.36
564.945	18.43
565.141	18.44
565.337	18.52
565.533	18.5
565.728	18.6
565.924	18.57
566.12	18.59
566.315	18.65
566.511	18.73
566.707	18.86
566.902	18.65
567.098	18.65
567.293	18.59
567.489	18.52
567.684	18.64
567.88	18.63
568.076	18.64
568.271	18.6
568.467	18.7
568.662	18.72
568.858	18.71
569.053	18.82
569.248	18.81
569.444	18.98
569.639	19.03
569.835	18.92
570.03	18.84
570.225	18.85
570.421	18.85
570.616	18.87
570.812	18.75
571.007	18.64
571.202	18.71
571.397	18.68
571.593	18.58
571.788	18.71
571.983	18.7
572.178	18.75
572.374	18.69
572.569	18.73
572.764	18.7
572.959	18.78
573.154	18.83
573.35	18.78
573.545	18.85
573.74	18.9
573.935	18.77
574.13	18.78
574.325	18.77
574.52	18.88
574.715	18.85
574.91	18.95
575.105	18.96
575.3	18.99
575.495	19.02
575.69	19.04
575.885	19.1
576.08	19.27
576.275	19.35
576.47	19.41
576.665	19.48
576.86	19.45
577.055	19.39
577.25	19.38
577.444	19.41
577.639	19.4
577.834	19.47
578.029	19.46
578.224	19.33
578.418	19.27
578.613	19.33
578.808	19.36
579.003	19.52
579.197	19.57
579.392	19.58
579.587	19.52
579.781	19.62
579.976	19.53
580.171	19.58
580.365	19.71
580.56	19.74
580.755	19.63
580.949	19.55
581.144	19.55
581.338	19.6
581.533	19.66
581.727	19.75
581.922	19.73
582.116	19.77
582.311	19.71
582.505	19.62
582.7	19.61
582.894	19.65
583.089	19.67
583.283	19.67
583.478	19.52
583.672	19.6
583.866	19.56
584.061	19.53
584.255	19.5
584.449	19.58
584.644	19.62
584.838	19.75
585.032	19.77
585.226	19.81
585.421	19.8
585.615	19.9
585.809	19.69
586.003	19.76
586.198	19.8
586.392	19.88
586.586	19.89
586.78	20.06
586.974	20
587.168	20.04
587.363	19.96
587.557	19.95
587.751	19.98
587.945	19.9
588.139	19.79
588.333	19.81
588.527	19.7
588.721	19.7
588.915	19.43
589.109	19.57
589.303	19.54
589.497	19.53
589.691	19.5
589.885	19.46
590.079	19.73
590.273	19.88
590.466	19.94
590.66	20.07
590.854	20.03
591.048	20.11
591.242	19.89
591.436	19.92
591.629	20.11
591.823	20.22
592.017	20.14
592.211	20.1
592.404	20.07
592.598	20.07
592.792	20.03
592.986	20.11
593.179	20.07
593.373	20.01
593.567	20.01
593.76	19.7
593.954	19.59
594.147	19.62
594.341	19.55
594.535	19.44
594.728	19.41
594.922	19.38
595.115	19.3
595.309	19.25
595.502	19.39
595.696	19.4
595.889	19.44
596.083	19.46
596.276	19.47
596.47	19.51
596.663	19.71
596.856	19.71
597.05	19.67
597.243	19.8
597.437	20.05
597.63	20.09
597.823	20.09
598.017	20.27
598.21	20.36
598.403	20.41
598.596	20.47
598.79	20.45
598.983	20.51
599.176	20.56
599.369	20.49
599.563	20.39
599.756	20.36
599.949	20.4
600.142	20.27
600.335	20.13
600.528	20.07
600.722	20.05
600.915	19.94
601.108	20
601.301	20.04
601.494	20.05
601.687	19.92
601.88	19.94
602.073	19.76
602.266	19.76
602.459	19.77
602.652	19.78
602.845	19.77
603.038	19.76
603.231	19.53
603.424	19.55
603.617	19.52
603.809	19.48
604.002	19.42
604.195	19.5
604.388	19.63
604.581	19.74
604.774	19.86
604.966	19.97
605.159	20.1
605.352	20.3
605.545	20.15
605.737	20.19
605.93	20.29
606.123	20.35
606.316	20.5
606.508	20.38
606.701	20.45
606.894	20.41
607.086	20.35
607.279	20.2
607.471	20.21
607.664	20.41
607.857	20.5
608.049	20.61
608.242	20.77
608.434	20.79
608.627	21.01
608.819	21.13
609.012	21.5
609.204	21.79
609.397	22.24
609.589	22.69
609.782	23.11
609.974	23.56
610.166	24.01
610.359	24.47
610.551	25.05
610.743	25.55
610.936	25.98
611.128	26.23
611.32	26.5
611.513	26.67
611.705	26.61
611.897	26.62
612.09	26.61
612.282	26.51
612.474	26.53
612.666	26.21
612.858	25.95
613.051	25.6
613.243	25.38
613.435	25.07
613.627	24.67
613.819	24.62
614.011	24.35
614.203	24.04
614.395	23.83
614.588	23.34
614.78	23.01
614.972	22.75
615.164	22.55
615.356	22.25
615.548	22.06
615.74	22.09
615.932	21.56
616.124	21.39
616.315	21.14
616.507	21.03
616.699	20.96
616.891	21.07
617.083	21.08
617.275	21.17
617.467	21.02
617.659	21.07
617.85	20.89
618.042	21.19
618.234	21.35
618.426	21.43
618.618	21.48
618.809	21.46
619.001	21.29
619.193	21.28
619.384	20.94
619.576	21.14
619.768	21.19
619.959	21.21
620.151	21.15
620.343	20.88
620.534	20.82
620.726	20.8
620.917	20.86
621.109	20.85
621.301	20.85
621.492	21.06
621.684	20.92
621.875	20.86
622.067	20.69
622.258	20.76
622.45	20.84
622.641	20.89
622.832	20.88
623.024	20.85
623.215	20.95
623.407	20.84
623.598	20.82
623.789	20.74
623.981	20.74
624.172	21.1
624.363	20.86
624.555	21.09
624.746	21.15
624.937	21.07
625.129	21.06
625.32	21.02
625.511	21.04
625.702	21.1
625.893	21.12
626.085	21.1
626.276	21.04
626.467	21.27
626.658	21.16
626.849	21.13
627.04	21.15
627.231	21.11
627.422	21.11
627.614	21.36
627.805	21.42
627.996	21.6
628.187	21.58
628.378	21.61
628.569	21.5
628.76	21.57
628.951	21.68
629.142	21.73
629.332	21.88
629.523	21.93
629.714	21.88
629.905	21.97
630.096	22.15
630.287	22.23
630.478	22.25
630.669	22.46
630.859	22.5
631.05	22.24
631.241	22.21
631.432	22.08
631.623	21.93
631.813	21.81
632.004	21.55
632.195	21.34
632.385	21.24
632.576	21
632.767	20.82
632.957	20.73
633.148	20.83
633.339	20.67
633.529	20.5
633.72	20.62
633.91	20.58
634.101	20.56
634.292	20.43
634.482	20.47
634.673	20.4
634.863	20.17
635.054	20.13
635.244	20.14
635.435	20.26
635.625	20.4
635.815	20.45
636.006	20.27
636.196	20.3
636.387	20.41
636.577	20.22
636.767	20.29
636.958	20.51
637.148	20.48
637.338	20.53
637.529	20.37
637.719	20.31
637.909	20.21
638.099	20.1
638.29	20
638.48	19.8
638.67	19.83
638.86	19.89
639.05	19.88
639.241	20.14
639.431	20
639.621	20.03
639.811	20.13
640.001	20.12
640.191	20.33
640.381	20.49
640.571	20.51
640.761	20.59
640.951	20.59
641.141	20.38
641.331	20
641.521	20.05
641.711	20.11
641.901	20.05
642.091	20.14
642.281	20.24
642.471	20.28
642.661	20.44
642.851	20.54
643.041	20.27
643.231	20.43
643.42	20.82
643.61	20.71
643.8	20.72
643.99	20.85
644.18	20.74
644.369	20.66
644.559	20.58
644.749	20.39
644.939	20.38
645.128	20.83
645.318	20.88
645.508	20.49
645.697	20.7
645.887	20.62
646.076	20.59
646.266	20.65
646.456	20.73
646.645	20.7
646.835	20.77
647.024	20.64
647.214	20.63
647.403	20.72
647.593	20.89
647.782	20.77
647.972	20.95
648.161	20.78
648.351	20.68
648.54	20.72
648.73	20.73
648.919	20.82
649.108	20.78
649.298	20.59
649.487	20.51
649.677	20.46
649.866	20.57
650.055	20.62
650.244	20.79
650.434	21.06
650.623	20.95
650.812	21.1
651.002	21.14
651.191	21.41
651.38	21.29
651.569	21.55
651.758	21.55
651.947	21.6
652.137	21.52
652.326	21.45
652.515	21.32
652.704	21.55
652.893	21.35
653.082	21.15
653.271	21.1
653.46	21.3
653.649	20.82
653.838	21
654.027	20.96
654.216	20.95
654.405	20.92
654.594	21.09
654.783	20.79
654.972	20.91
655.161	21.01
655.35	21.09
655.539	21.11
655.728	21.43
655.916	21.1
656.105	21.14
656.294	21.05
656.483	21.13
656.672	21.12
656.86	21.11
657.049	21.07
657.238	20.97
657.427	20.71
657.615	20.74
657.804	20.56
657.993	20.65
658.181	20.44
658.37	20.56
658.559	20.58
658.747	20.46
658.936	20.54
659.125	20.71
659.313	20.82
659.502	20.8
659.69	20.71
659.879	20.79
660.067	20.74
660.256	20.81
660.444	20.98
660.633	20.95
660.821	21.01
661.01	21.01
661.198	20.82
661.387	20.8
661.575	21.04
661.763	21.07
661.952	21.07
662.14	21.19
662.328	21.25
662.517	21.04
662.705	20.92
662.893	20.89
663.082	20.78
663.27	20.86
663.458	20.93
663.646	20.98
663.834	20.95
664.023	20.81
664.211	20.88
664.399	20.8
664.587	20.71
664.775	20.82
664.963	20.75
665.152	20.88
665.34	20.8
665.528	20.75
665.716	20.62
665.904	20.87
666.092	20.86
666.28	20.96
666.468	20.99
666.656	21
666.844	20.9
667.032	21.03
667.22	20.72
667.408	20.48
667.596	20.45
667.784	20.4
667.971	20.2
668.159	20.22
668.347	20.23
668.535	20.2
668.723	20.03
668.911	20.08
669.098	20.21
669.286	20.63
669.474	20.88
669.662	20.95
669.849	20.91
670.037	20.88
670.225	21.05
670.413	20.91
670.6	21.09
670.788	21.45
670.976	21.66
671.163	21.37
671.351	21.28
671.538	21.19
671.726	20.99
671.913	21.09
672.101	21.35
672.289	21.25
672.476	21.32
672.664	21.28
672.851	21.27
673.039	20.97
673.226	21.19
673.413	21.06
673.601	21.01
673.788	21.29
673.976	21.28
674.163	21.34
674.35	21.11
674.538	20.96
674.725	20.75
674.912	20.66
675.1	20.79
675.287	20.87
675.474	20.82
675.662	20.93
675.849	21.1
676.036	21.2
676.223	20.84
676.411	20.87
676.598	20.9
676.785	20.95
676.972	20.95
677.159	20.88
677.346	20.75
677.533	20.93
677.721	20.74
677.908	20.68
678.095	20.51
678.282	20.83
678.469	20.92
678.656	20.96
678.843	21.16
679.03	21.05
679.217	21.17
679.404	21.12
679.591	21.23
679.778	21.48
679.964	21.41
680.151	21.55
680.338	21.44
680.525	21.48
680.712	21.69
680.899	21.64
681.086	21.82
681.272	21.87
681.459	22.06
681.646	21.95
681.833	21.83
682.02	21.98
682.206	21.7
682.393	21.7
682.58	21.89
682.766	21.86
682.953	21.96
683.14	21.81
683.326	21.95
683.513	21.69
683.7	21.61
683.886	21.58
684.073	21.43
684.259	21.72
684.446	21.48
684.632	21.53
684.819	21.29
685.005	21.1
685.192	20.98
685.378	20.87
685.565	21.1
685.751	20.99
685.938	20.91
686.124	20.75
686.31	20.49
686.497	20.8
686.683	20.52
686.87	20.54
687.056	20.55
687.242	20.91
687.429	20.8
687.615	20.62
687.801	20.78
687.987	20.93
688.174	21.04
688.36	21.39
688.546	21.49
688.732	21.54
688.918	21.62
689.105	21.59
689.291	21.25
689.477	21.25
689.663	21.22
689.849	21.14
690.035	20.99
690.221	21.12
690.407	20.76
690.593	20.46
690.779	20.48
690.965	20.53
691.151	20.47
691.337	20.6
691.523	20.8
691.709	20.92
691.895	20.94
692.081	21.07
692.267	21.12
692.453	21.35
692.639	21.61
692.825	21.71
693.011	21.77
693.196	21.67
693.382	21.69
693.568	21.63
693.754	21.63
693.94	21.79
694.125	22.01
694.311	21.96
694.497	21.68
694.682	21.3
694.868	21.21
695.054	21.01
695.239	21.32
695.425	21.34
695.611	21.26
695.796	21.29
695.982	20.9
696.168	20.54
696.353	20.3
696.539	20.46
696.724	20.5
696.91	20.5
697.095	20.7
697.281	20.71
697.466	20.85
697.652	20.73
697.837	20.75
698.023	21.15
698.208	21.12
698.393	21.3
698.579	21.3
698.764	21.48
698.949	21.38
699.135	21.34
699.32	21.32
699.505	20.92
699.691	21.13
699.876	21.15
700.061	20.9
700.246	21.31
700.432	21.08
700.617	20.92
700.802	20.83
700.987	20.88
701.172	20.25
701.358	20.2
701.543	20.39
701.728	20.19
701.913	20.06
702.098	20.06
702.283	19.88
702.468	20.02
702.653	20.34
702.838	20.13
703.023	20.2
703.208	20.93
703.393	21.1
703.578	21.41
703.763	21.46
703.948	21.45
704.133	21.79
704.318	21.57
704.503	21.25
704.688	21.14
704.873	21.48
705.057	21.6
705.242	21.89
705.427	21.81
705.612	21.97
705.797	22.12
705.981	22.42
706.166	22.25
706.351	22.3
706.536	23
706.72	23.2
706.905	23.69
707.09	23.79
707.274	23.62
707.459	23.72
707.644	23.7
707.828	23.81
708.013	23.77
708.197	23.83
708.382	23.73
708.567	23.56
708.751	23.72
708.936	23.31
709.12	23.15
709.305	23.07
709.489	22.87
709.673	22.89
709.858	22.4
710.042	22.19
710.227	22.25
710.411	22.31
710.596	22.37
710.78	22.18
710.964	22.14
711.149	22.16
711.333	22.44
711.517	22.69
711.702	22.84
711.886	22.74
712.07	22.78
712.254	23.01
712.438	22.88
712.623	22.48
712.807	22.52
712.991	22.42
713.175	22.35
713.359	22.1
713.544	21.92
713.728	21.45
713.912	21.63
714.096	21.39
714.28	20.93
714.464	20.89
714.648	21.48
714.832	20.85
715.016	20.77
715.2	20.87
715.384	20.8
715.568	20.53
715.752	20.69
715.936	20.67
716.12	20.85
716.304	21.13
716.488	21.26
716.671	20.81
716.855	21.06
717.039	21.13
717.223	21.01
717.407	21.08
717.59	21.32
717.774	21.45
717.958	21.67
718.142	21.71
718.325	21.4
718.509	21.17
718.693	21.36
718.877	21.47
719.06	21.52
719.244	21.68
719.428	21.35
719.611	21.29
719.795	21.41
719.978	21.1
720.162	20.91
720.345	20.95
720.529	20.8
720.713	20.75
720.896	20.71
721.08	20.08
721.263	19.54
721.446	19.53
721.63	19.43
721.813	18.69
721.997	18.74
722.18	19.04
722.364	19.16
722.547	19.68
722.73	19.69
722.914	19.96
723.097	20.58
723.28	20.58
723.464	20.66
723.647	20.64
723.83	20.76
724.013	20.93
724.197	20.9
724.38	20.43
724.563	20.28
724.746	20.46
724.929	20.09
725.112	20.21
725.296	20.53
725.479	20.56
725.662	20.54
725.845	20.66
726.028	20.35
726.211	20.49
726.394	20.87
726.577	21.09
726.76	20.88
726.943	21.09
727.126	20.63
727.309	20.52
727.492	20.45
727.675	20.7
727.858	20.59
728.041	20.66
728.224	20.27
728.407	20.49
728.589	20.42
728.772	20.34
728.955	20.18
729.138	20.59
729.321	20.77
729.503	21.19
729.686	21.29
729.869	21.62
730.052	21.94
730.234	22.1
730.417	21.87
730.6	21.91
730.782	21.76
730.965	22.02
731.148	21.77
731.33	21.26
731.513	21.04
731.695	20.79
731.878	20.85
732.061	20.91
732.243	20.89
732.426	20.94
732.608	20.8
732.791	20.91
732.973	20.88
733.156	20.97
733.338	21.42
733.52	21.29
733.703	21.31
733.885	21.05
734.068	20.87
734.25	20.96
734.432	20.46
734.615	20.1
734.797	20.18
734.979	20
735.162	19.53
735.344	19.65
735.526	19.81
735.708	19.94
735.891	20.08
736.073	19.71
736.255	19.75
736.437	20.15
736.619	20.94
736.802	20.98
736.984	20.9
737.166	21.16
737.348	21.04
737.53	21.33
737.712	21.01
737.894	21.21
738.076	21.11
738.258	20.98
738.44	21.57
738.622	21.8
738.804	21.85
738.986	22.6
739.168	22.38
739.35	22.1
739.532	21.82
739.714	22
739.896	21.58
740.078	22.28
740.259	21.95
740.441	21.23
740.623	20.85
740.805	20.68
740.987	20.3
741.168	20.99
741.35	21.77
741.532	21.83
741.714	21.57
741.895	21.89
742.077	22.03
742.259	22.48
742.44	22.57
742.622	22
742.804	21.71
742.985	21.58
743.167	21.27
743.348	20.41
743.53	20.36
743.711	20.76
743.893	20.07
744.075	19.54
744.256	19.4
744.438	19.5
744.619	19.66
744.8	19.82
744.982	19.69
745.163	19.45
745.345	19.85
745.526	19.84
745.707	19.6
745.889	20.55
746.07	20.83
746.252	20.88
746.433	21.34
746.614	21.4
746.795	21.45
746.977	21.91
747.158	22.15
747.339	22.33
747.52	22.06
747.702	21.77
747.883	21.97
748.064	22.2
748.245	21.94
748.426	21.21
748.607	21.12
748.788	21.24
748.97	20.67
749.151	20.7
749.332	20.07
749.513	20.08
749.694	20.84
749.875	19.83
750.056	18.69
750.237	18.95
750.418	19.79
750.599	19.52
750.78	19.88
750.96	19.8
751.141	19.93
751.322	20.57
751.503	20.38
751.684	20.64
751.865	20.57
752.046	20.64
752.226	20.64
752.407	20.09
752.588	20.13
752.769	19.66
752.949	20.2
753.13	19.82
753.311	19.41
753.492	19.81
753.672	19.02
753.853	19.54
754.034	19.93
754.214	20.03
754.395	19.92
754.575	20.45
754.756	20.45
754.937	19.56
755.117	20.41
755.298	20.52
755.478	19.93
755.659	20.34
755.839	20.41
756.02	20.56
756.2	20.52
756.381	20.47
756.561	20.17
756.741	20.18
756.922	20.83
757.102	19.75
757.283	19.5
757.463	19.67
757.643	19.59
757.823	19.44
758.004	19.42
758.184	19.16
758.364	19.13
758.545	18.62
758.725	19.12
758.905	18.91
759.085	19.42
759.265	19.14
759.446	20.53
759.626	20.48
759.806	20.82
759.986	21.07
760.166	20.79
760.346	21.07
760.526	21.32
760.706	20.48
760.886	20.53
761.066	20.59
761.246	20.88
761.426	19.73
761.606	19.48
761.786	19.11
761.966	19.09
762.146	19.46
762.326	18.74
762.506	18.57
762.686	18.86
762.866	18.81
763.046	18.68
763.225	19.03
763.405	19.23
763.585	19.21
763.765	19.2
763.945	18.83
764.124	18.86
764.304	19.42
764.484	20.16
764.664	20.3
764.843	20.61
765.023	20.69
765.203	20.51
765.382	19.92
765.562	20.03
765.741	20.41
765.921	20.93
766.101	20.95
766.28	20.93
766.46	20.67
766.639	20.48
766.819	20.8
766.998	20.67
767.178	20.59
767.357	21.25
767.537	21.56
767.716	21.21
767.896	20.99
768.075	21.24
768.254	21.47
768.434	21.13
768.613	21.16
768.792	20.47
768.972	20.58
769.151	20.61
769.33	20.72
769.51	20.49
769.689	20.7
769.868	21.08
770.047	20.41
770.226	20.12
770.406	20.59
770.585	20.97
770.764	20.76
770.943	20.82
771.122	20.78
771.301	20.44
771.48	20.61
771.66	20.6
771.839	20.45
772.018	20.52
772.197	21.13
772.376	20.6
772.555	19.81
772.734	20.7
772.913	20.67
773.092	20.23
773.271	20.08
773.449	19.54
773.628	19.18
773.807	18.52
773.986	18.21
774.165	17.47
774.344	17.81
774.523	18.58
774.701	17.45
774.88	17.42
775.059	18.4
775.238	19.25
775.417	19.56
775.595	19.76
775.774	20.52
775.953	20.74
776.131	20.16
776.31	19.85
776.489	19.57
776.667	19.82
776.846	19.37
777.025	19.13
777.203	18.86
777.382	18.91
777.56	19.25
777.739	18.76
777.917	18.87
778.096	19.27
778.274	18.97
778.453	18.99
778.631	19.35
778.81	19.16
778.988	19.29
779.166	19.41
779.345	19.49
779.523	19.03
779.702	18.8
779.88	19.28
780.058	19.84
780.237	20.32
780.415	20.99
780.593	20.4
780.771	20.89
780.95	20.72
781.128	20.25
781.306	19.23
781.484	19.21
781.662	19.07
781.841	19.12
782.019	18.95
782.197	19.04
782.375	18
782.553	18.67
782.731	17.85
782.909	18.03
783.087	18.29
783.265	19.91
783.443	20.66
783.621	21.46
783.799	21.45
783.977	21.51
784.155	21.14
784.333	21.28
784.511	21.28
784.689	22.44
784.867	21.44
785.045	20.21
785.223	18.9
785.4	17.43
785.578	17.6
785.756	16.09
785.934	16.29
786.112	16.18
786.289	16.6
786.467	16.68
786.645	16.19
786.823	16.82
787	17.43
787.178	16.75
787.356	17.31
787.533	16.89
787.711	18.31
787.889	17.57
788.066	18.69
788.244	18.71
788.421	18.75
788.599	19.52
788.776	19.46
788.954	20.09
789.131	21.05
789.309	21.09
789.486	20.5
789.664	20.14
789.841	20.34
790.019	18.75
790.196	18.16
790.373	17.53
790.551	16.74
790.728	16.1
790.906	16.42
791.083	16.2
791.26	17.04
791.437	16.77
791.615	16.11
791.792	16.31
791.969	17.09
792.146	18.7
792.324	19.57
792.501	20.29
792.678	21.09
792.855	21.32
793.032	21.72
793.209	21.38
793.387	22.74
793.564	23.89
793.741	23.99
793.918	23.48
794.095	22.47
794.272	21.83
794.449	21.79
794.626	21.47
794.803	20.65
794.98	19.78
795.157	19.68
795.334	18.9
795.511	18.89
795.688	18.71
795.864	18.91
796.041	17.65
796.218	17.28
796.395	16.08
796.572	16.75
796.749	16.63
796.925	16.62
797.102	16.44
797.279	17.46
797.456	16.77
797.632	16.83
797.809	16.95
797.986	18.79
798.162	19.38
798.339	20.9
798.516	20.31
798.692	20.75
798.869	20.78
799.046	21.86
799.222	22.26
799.399	23.17
799.575	23.89
799.752	23.85
799.928	22.78
800.105	22.26
800.281	22.09
800.458	21.43
800.634	21.34
800.811	21.94
800.987	20.2
801.163	19.97
801.34	18.91
801.516	17.61
801.692	18.59
801.869	19.2
802.045	19.02
802.221	18.48
802.398	19.1
802.574	18.96
802.75	18.75
802.926	19.37
803.103	17.81
803.279	19.32
803.455	19.29
803.631	17.81
803.807	17.25
803.983	18.86
804.16	18.87
804.336	17.68
804.512	16.74
804.688	18.45
804.864	16.72
805.04	17.53
805.216	15.6
805.392	15.53
805.568	16.13
805.744	15.12
805.92	12.55
806.096	13.77
806.272	15.34
806.448	14.15
806.623	12.35
806.799	13.93
806.975	13.82
807.151	14.49
807.327	15.1
807.503	14.53
807.678	17.14
807.854	18.69
808.03	16.92
808.206	16.25
808.381	17.75
808.557	17.5
808.733	16.98
808.908	16.63
809.084	16.58
809.26	16.47
809.435	16.92
809.611	15.81
809.787	14.68
809.962	15.6
810.138	16.09
810.313	17.23
810.489	17
810.664	17.75
810.84	18.92
811.015	20.41
811.191	19.86
811.366	20.64
811.542	20.72
811.717	21.5
811.892	21.35
812.068	20.98
812.243	19.94
812.419	20.71
812.594	20.56
812.769	21.22
812.944	19.86
813.12	19.38
813.295	18.71
813.47	18.57
813.645	19.53
813.821	20.38
813.996	21.41
814.171	21.35
814.346	20.01
814.521	19.92
814.697	18.15
814.872	18.54
815.047	18.75
815.222	17.46
815.397	16.43
815.572	15.54
815.747	13.55
815.922	12.57
816.097	12.53
816.272	13.39
816.447	12.36
816.622	12.69
816.797	12.14
816.972	12.82
817.147	13.99
817.322	14.81
817.496	14.17
817.671	15.97
817.846	14.69
818.021	13.99
818.196	14.48
818.371	15.66
818.545	16.35
818.72	16.31
818.895	15.89
819.069	15.53
819.244	15.12
819.419	16.06
819.594	14.2
819.768	14.8
819.943	16.88
820.117	16.46
820.292	16.45
820.467	17.02
820.641	16.81
820.816	17.31
820.99	17.23
821.165	17.79
821.339	18.09
821.514	18.6
821.688	19.02
821.863	18.85
822.037	19.29
822.212	19.25
822.386	19.07
822.56	19.3
822.735	19.23
822.909	19.63
823.084	19.78
823.258	19.6
823.432	19.8
823.606	19.95
823.781	20.21
823.955	20.24
824.129	20.45
824.303	20.41
824.478	20.66
824.652	21.16
824.826	20.91
825	20.86
825.174	20.99
825.348	20.71
825.523	20.37
825.697	19.71
825.871	19.37
826.045	19.59
826.219	19.68
826.393	19.6
826.567	18.84
826.741	19.12
826.915	18.7
827.089	18.93
827.263	19.24
827.437	19.45
827.611	19.39
827.784	19.57
827.958	19.34
828.132	19.4
828.306	19.25
828.48	19.53
828.654	19.5
828.827	20.1
829.001	19.7
829.175	19.32
829.349	19.07
829.522	19.46
829.696	19.4
829.87	19.34
830.044	19.81
830.217	20.31
830.391	20.44
830.565	19.76
830.738	19.7
830.912	20.46
831.085	20.26
831.259	20.34
831.432	18.94
831.606	18.97
831.779	17.87
831.953	17.33
832.126	15.31
832.3	15.62
832.473	16.81
832.647	16.51
832.82	15.96
832.994	16.44
833.167	15.39
833.34	16.02
833.514	16.02
833.687	16.42
833.86	16.65
834.034	17.73
834.207	17.16
834.38	16.93
834.553	17.14
834.727	17.57
834.9	18.2
835.073	18.92
835.246	20.25
835.419	20.69
835.593	20.61
835.766	20.16
835.939	20
836.112	20.14
836.285	20.16
836.458	19.49
836.631	19.39
836.804	17.49
836.977	17.5
837.15	15.52
837.323	14.8
837.496	15.41
837.669	14.76
837.842	14.31
838.015	14.01
838.188	13.75
838.361	13.52
838.533	14.2
838.706	15.63
838.879	14.58
839.052	15.74
839.225	16.25
839.398	15.47
839.57	16.17
839.743	16.48
839.916	18.37
840.088	17.7
840.261	18.02
840.434	15.92
840.607	15.44
840.779	16.45
840.952	13.31
841.124	12.63
841.297	14.01
841.47	13.82
841.642	14.66
841.815	16.1
841.987	18
842.16	17.51
842.332	18.38
842.505	17.02
842.677	17.84
842.85	19.12
843.022	20.4
843.194	20.54
843.367	22.43
843.539	20.9
843.712	17.04
843.884	16.04
844.056	16.46
844.229	14.25
844.401	17.88
844.573	17.36
844.745	19.2
844.918	18.11
845.09	16.47
845.262	15.62
845.434	15.16
845.606	18
845.779	17.57
845.951	17.1
846.123	20.58
846.295	19.19
846.467	14.35
846.639	12.62
846.811	12.1
846.983	11.67
847.155	11.31
847.327	11.02
847.499	8.97
847.671	7.65
847.843	9.79
848.015	7.56
848.187	7.77
848.359	15.19
848.531	17.41
848.703	18.35
848.875	21.21
849.047	21.22
849.218	23.38
849.39	23.39
849.562	23.53
849.734	21.93
849.905	23.93
850.077	24.54
850.249	24.3
850.421	24.77
850.592	24.87
850.764	21.35
850.936	19.19
851.107	19.82
851.279	18.74
851.451	21.43
851.622	22.8
851.794	23
851.965	24.66
852.137	23.16
852.308	21.46
852.48	21.57
852.651	23.94
852.823	25.86
852.994	27.95
853.166	27.37
853.337	26.47
853.509	20.23
853.68	16.87
853.851	15.28
854.023	19.79
854.194	23.08
854.365	21.83
854.537	21.47
854.708	21.68
854.879	19.6
855.05	23.02
855.222	22.2
855.393	25.86
855.564	27.34
855.735	24.19
855.906	17.65
856.078	13.29
856.249	12.15
856.42	13.28
856.591	10.68
856.762	10.72
856.933	10.67
857.104	8.79
857.275	7.78
857.446	5.56
857.617	8.13
857.788	13.62
857.959	14.67
858.13	16.62
858.301	13.7
858.472	15.79
858.643	12.5
858.814	11.77
858.985	14.11
859.155	14.39
859.326	15.54
859.497	17.14
859.668	11.69
859.839	10.93
860.009	13.23
860.18	16.87
860.351	13.32
860.522	15.2
860.692	14.82
860.863	12.88
861.034	15.85
861.204	15.33
861.375	12.31
861.546	13.06
861.716	19.96
861.887	19.23
862.057	18.4
862.228	21.87
862.398	20.06
862.569	18.53
862.739	21.74
862.91	21.42
863.08	20.72
863.251	19.99
863.421	22.82
863.592	17.42
863.762	20.26
863.932	17.71
864.103	19.6
864.273	22.02
864.443	17.17
864.614	14.85
864.784	12.96
864.954	13.42
865.125	16.47
865.295	15.58
865.465	17.04
865.635	11.01
865.805	11.2
865.976	10.5
866.146	5.69
866.316	11.1
866.486	13.5
866.656	15.23
866.826	19.81
866.996	17.13
867.166	16.81
867.336	16.65
867.506	17.39
867.676	17.78
867.846	16.04
868.016	15.75
868.186	18.85
868.356	14.89
868.526	13.34
868.696	11.97
868.866	11.71
869.036	13.09
869.206	11.88
869.376	11.1
869.545	15.22
869.715	16.44
869.885	20.57
870.055	20.12
870.224	20.04
870.394	20.18
870.564	19.41
870.734	22.56
870.903	21.41
871.073	22
871.243	21.9
871.412	21.51
871.582	21.87
871.751	21.76
871.921	19.15
872.091	23.95
872.26	22.61
872.43	18.05
872.599	16.66
872.769	17.95
872.938	20.53
873.108	23.53
873.277	25.67
873.446	25.9
873.616	23.64
873.785	23.45
873.955	20.43
874.124	19.63
874.293	22
874.463	22.8
874.632	28.29
874.801	30.11
874.971	27.41
875.14	23.53
875.309	23.97
875.478	24.22
875.647	23.6
875.817	25.12
875.986	25.71
876.155	27.7
876.324	25.12
876.493	15.52
876.662	10.32
876.831	10.12
877	13.16
877.17	15.53
877.339	14.54
877.508	16.5
877.677	17.5
877.846	18.54
878.015	17.21
878.184	18.51
878.352	20.62
878.521	20.5
878.69	20.74
878.859	19.64
879.028	15.75
879.197	20.27
879.366	20.78
879.534	21.8
879.703	21.46
879.872	20.43
880.041	18.68
880.21	16.12
880.378	17.71
880.547	18.31
880.716	17.91
880.884	17.95
881.053	15.65
881.222	15.14
881.39	14.4
881.559	14.55
881.727	14.78
881.896	15.49
882.065	16.05
882.233	15.72
882.402	15.72
882.57	15.92
882.739	15.6
882.907	15.9
883.076	16.18
883.244	16.34
883.412	17.18
883.581	17.33
883.749	17.18
883.918	18.17
884.086	17.91
884.254	17.84
884.423	17.17
884.591	18.13
884.759	17.84
884.927	17.06
885.096	17.54
885.264	17.06
885.432	17.86
885.6	18.55
885.769	16.56
885.937	17.27
886.105	16.54
886.273	16.5
886.441	15.43
886.609	15.17
886.777	19.16
886.945	16.84
887.113	17.28
887.281	12.76
887.449	12.11
887.617	13.72
887.785	8.42
887.953	9.14
888.121	11.88
888.289	10.84
888.457	12.28
888.625	10.3
888.793	13.25
888.961	7.61
889.129	10.05
889.296	8.08
889.464	6.66
889.632	14.52
889.8	14.58
889.967	9.62
890.135	12.94
