Data from 2938834__Reflection_01.txt Node
Date: Thu Mar 12 11:41:29 EDT 2015
User: robert
Spectrometer: USB4E03002
Autoset integration time: false
Trigger mode: 4
Integration Time (sec): 1.000000E-1
Scans to average: 10
Electric dark correction enabled: false
Nonlinearity correction enabled: false
Boxcar width: 5
Stray light correction enabled: false
XAxis mode: Wavelengths
Stop averaging: false
Number of Pixels in Spectrum: 3648
>>>>>Begin Spectral Data<<<<<
177.575	79.56
177.794	97.88
178.014	100
178.233	116.77
178.452	116.07
178.672	95.71
178.891	118.07
179.11	124.7
179.33	184.52
179.549	140.58
179.768	208.84
179.987	119.13
180.207	63.95
180.426	54.19
180.645	-57.03
180.864	676.19
181.084	37.31
181.303	-13.62
181.522	36.45
181.741	23.35
181.96	-4.15
182.179	-92.96
182.398	-40.37
182.618	63.32
182.837	215
183.056	100
183.275	35.86
183.494	71.38
183.713	151.59
183.932	130.22
184.151	120.73
184.37	134.77
184.589	124.76
184.808	96.92
185.027	88.53
185.246	68.88
185.465	71.04
185.684	97.62
185.903	83.45
186.122	72.7
186.341	87.66
186.56	68.4
186.779	65.37
186.998	45.42
187.216	55.49
187.435	70.6
187.654	66.16
187.873	118.96
188.092	93.95
188.311	94.94
188.53	145.6
188.748	112.79
188.967	116.36
189.186	79.16
189.405	92.29
189.623	92.51
189.842	78
190.061	83.91
190.28	57.08
190.498	63.46
190.717	63.98
190.936	63.24
191.154	46.65
191.373	74.71
191.592	126.43
191.81	145.42
192.029	219.48
192.248	460.29
192.466	336.24
192.685	420.1
192.904	391.58
193.122	268.56
193.341	198.99
193.559	218.81
193.778	142.37
193.996	114.42
194.215	89.18
194.433	90.85
194.652	82.63
194.87	61.9
195.089	47.1
195.307	34.8
195.526	29.78
195.744	36.55
195.963	43.1
196.181	81.31
196.399	134.27
196.618	163.04
196.836	-28.79
197.055	-25.97
197.273	-102.75
197.491	13.58
197.71	192.05
197.928	109.05
198.146	76.73
198.365	17.02
198.583	-6.92
198.801	2.49
199.019	-6.73
199.238	-4.35
199.456	-18.75
199.674	14.13
199.892	27.2
200.111	20.91
200.329	14.06
200.547	15.66
200.765	35.74
200.983	44.74
201.202	32.97
201.42	55.78
201.638	60.61
201.856	43.21
202.074	45.53
202.292	21.52
202.51	-140.43
202.728	-18.84
202.946	4.19
203.165	-33.68
203.383	-10.1
203.601	32.74
203.819	2.64
204.037	25.57
204.255	35.77
204.473	44.03
204.691	62.84
204.909	62.7
205.127	72.53
205.345	47.15
205.562	54.25
205.78	45.03
205.998	31.15
206.216	42.15
206.434	15.88
206.652	19.52
206.87	-2.06
207.088	-7.44
207.306	-1.67
207.523	-23.61
207.741	-11.35
207.959	-9.18
208.177	-3.79
208.395	-4.89
208.612	21.43
208.83	22.55
209.048	35.16
209.266	61.64
209.483	69.53
209.701	84.19
209.919	114.1
210.136	138.75
210.354	201.87
210.572	153.99
210.79	135.79
211.007	106.85
211.225	94.44
211.442	128.68
211.66	98.63
211.878	73.89
212.095	166.95
212.313	141.84
212.53	116.41
212.748	97.98
212.966	104.84
213.183	114.05
213.401	113.73
213.618	128.83
213.836	110.89
214.053	105.77
214.271	106.29
214.488	35
214.705	27.5
214.923	30.68
215.14	33.88
215.358	15.38
215.575	3.6
215.793	17.17
216.01	9.42
216.227	12.57
216.445	13.74
216.662	24.26
216.879	4.68
217.097	7.68
217.314	16.4
217.531	21.07
217.749	29.73
217.966	22.74
218.183	28.22
218.4	20.86
218.618	21.94
218.835	30.66
219.052	22.57
219.269	19.94
219.487	18.96
219.704	31.71
219.921	16.18
220.138	31.96
220.355	32.03
220.572	26.71
220.79	39.57
221.007	29.04
221.224	16.38
221.441	19.35
221.658	26.36
221.875	25.41
222.092	18.34
222.309	22.46
222.526	11.48
222.743	13.06
222.96	11.64
223.177	11.21
223.394	17.49
223.611	18.27
223.828	18.37
224.045	10.83
224.262	11.71
224.479	10.69
224.696	5.13
224.913	9.66
225.13	12.91
225.347	14.48
225.564	10.5
225.781	6.94
225.997	7.43
226.214	9.31
226.431	11.09
226.648	12.65
226.865	12.49
227.082	13.08
227.298	10.01
227.515	8.58
227.732	8.23
227.949	8.02
228.165	7.47
228.382	7.52
228.599	6.4
228.816	5.49
229.032	4.62
229.249	4.4
229.466	4.96
229.682	5.86
229.899	5.49
230.116	5.13
230.332	6.24
230.549	6.69
230.765	6.73
230.982	7.77
231.199	8.6
231.415	8.85
231.632	9.36
231.848	9.74
232.065	8.09
232.281	9.03
232.498	9.58
232.714	8.38
232.931	8.16
233.147	8.58
233.364	7.86
233.58	8.33
233.797	6.64
234.013	6.04
234.23	6.59
234.446	9.09
234.662	8.74
234.879	9.78
235.095	10.15
235.312	9.69
235.528	7.45
235.744	6.37
235.961	6.46
236.177	8.5
236.393	8.92
236.61	8.18
236.826	8.01
237.042	6.78
237.258	5.72
237.475	6.14
237.691	6.19
237.907	7.16
238.123	8.67
238.339	8.11
238.556	7.47
238.772	6.72
238.988	7.2
239.204	7.55
239.42	7.11
239.636	6.36
239.853	4.19
240.069	3.68
240.285	4
240.501	3.28
240.717	3.96
240.933	4.05
241.149	4.92
241.365	4.22
241.581	3.99
241.797	4.63
242.013	4.96
242.229	5.18
242.445	5.63
242.661	6.19
242.877	6.6
243.093	5.71
243.309	5.69
243.525	5.5
243.741	5.47
243.957	4.9
244.173	5.12
244.388	4.62
244.604	4.36
244.82	4.12
245.036	3.44
245.252	3.51
245.468	4.66
245.683	4.71
245.899	4.41
246.115	4.25
246.331	4.31
246.547	4.08
246.762	4.66
246.978	5.19
247.194	5.16
247.409	5.25
247.625	5.1
247.841	5
248.057	5.13
248.272	5.15
248.488	5.55
248.703	5.59
248.919	6.08
249.135	5.88
249.35	5.92
249.566	5.93
249.782	6.14
249.997	5.99
250.213	5.77
250.428	5.49
250.644	5.34
250.859	6.06
251.075	6.36
251.29	6.42
251.506	6.33
251.721	6.14
251.937	6.04
252.152	5.56
252.368	5.97
252.583	6.41
252.798	6.47
253.014	6.85
253.229	5.81
253.445	6.31
253.66	6
253.875	6.22
254.091	6.1
254.306	6.41
254.521	6.43
254.737	6.87
254.952	6.22
255.167	6.85
255.383	6.26
255.598	6.45
255.813	5.45
256.028	4.3
256.244	4.35
256.459	3.3
256.674	3.17
256.889	4.01
257.104	4.13
257.32	4.4
257.535	4.37
257.75	4.4
257.965	4.1
258.18	4.43
258.395	5.11
258.61	4.64
258.826	4.99
259.041	5.04
259.256	4.57
259.471	4.42
259.686	4.12
259.901	4.1
260.116	4.2
260.331	4.31
260.546	4.25
260.761	4.05
260.976	3.93
261.191	3.88
261.406	3.96
261.621	4.22
261.836	4.41
262.05	4.61
262.265	4.06
262.48	3.75
262.695	3.51
262.91	3.08
263.125	3.57
263.34	4.22
263.555	4.25
263.769	4.33
263.984	3.97
264.199	3.2
264.414	3.28
264.629	4.01
264.843	4.41
265.058	4.42
265.273	4.73
265.488	4.39
265.702	4.12
265.917	4.05
266.132	4.16
266.346	4.6
266.561	4.78
266.776	4.6
266.99	4.62
267.205	4.27
267.42	3.92
267.634	4.04
267.849	4.1
268.063	4.06
268.278	4.03
268.492	3.77
268.707	3.26
268.922	3.43
269.136	3.68
269.351	3.92
269.565	4.15
269.78	4.63
269.994	4.54
270.209	4.3
270.423	4.21
270.637	3.81
270.852	3.49
271.066	3.42
271.281	3.56
271.495	3.51
271.709	2.89
271.924	2.67
272.138	2.83
272.353	2.57
272.567	2.28
272.781	2.17
272.996	2.66
273.21	2.94
273.424	3.24
273.638	2.75
273.853	2.8
274.067	2.85
274.281	2.73
274.495	2.11
274.71	3.01
274.924	3.11
275.138	3.45
275.352	2.92
275.566	2.64
275.781	2.09
275.995	2.49
276.209	2.41
276.423	2.73
276.637	2.91
276.851	3.16
277.065	2.65
277.279	2.61
277.493	2.45
277.707	3.05
277.921	2.94
278.135	2.76
278.349	2.53
278.563	3.12
278.777	2.75
278.991	2.88
279.205	2.93
279.419	2.92
279.633	2.95
279.847	2.97
280.061	2.37
280.275	2.48
280.489	2.93
280.703	3.16
280.917	2.75
281.131	3.26
281.344	3.39
281.558	3.66
281.772	3.72
281.986	4
282.2	3.58
282.414	3.99
282.627	3.97
282.841	3.85
283.055	3.67
283.269	3.41
283.482	3.08
283.696	3.06
283.91	2.94
284.123	3.22
284.337	3.02
284.551	3.56
284.764	3.12
284.978	3.42
285.192	3.59
285.405	3.66
285.619	4.04
285.833	3.85
286.046	3.56
286.26	3.45
286.473	3.17
286.687	3.06
286.9	2.94
287.114	3.12
287.327	3.08
287.541	3.03
287.754	3.07
287.968	2.83
288.181	3.12
288.395	3.37
288.608	3.33
288.822	3.68
289.035	3.77
289.248	3.56
289.462	3.59
289.675	3.36
289.889	3.86
290.102	3.81
290.315	3.87
290.529	3.87
290.742	3.68
290.955	3.85
291.169	3.31
291.382	3.8
291.595	4.19
291.808	4.33
292.022	4.56
292.235	4.09
292.448	4.14
292.661	4.28
292.875	4.22
293.088	4.57
293.301	5.03
293.514	5.28
293.727	5.29
293.94	5.05
294.153	5.19
294.367	5.07
294.58	5.23
294.793	5.31
295.006	5.03
295.219	4.97
295.432	4.77
295.645	4.72
295.858	4.84
296.071	4.74
296.284	4.81
296.497	4.75
296.71	4.76
296.923	4.8
297.136	4.94
297.349	5.02
297.562	5.15
297.775	5.23
297.988	5.07
298.201	5.11
298.414	5.06
298.626	5.25
298.839	5.18
299.052	5.28
299.265	5.3
299.478	5.03
299.691	5.3
299.903	5.75
300.116	6
300.329	6.05
300.542	5.96
300.755	6.06
300.967	6.16
301.18	6.34
301.393	6.22
301.605	6.23
301.818	6.38
302.031	6.34
302.243	6.25
302.456	5.86
302.669	5.97
302.881	6.17
303.094	6.07
303.307	5.9
303.519	5.65
303.732	5.85
303.944	5.63
304.157	5.55
304.37	5.65
304.582	5.74
304.795	6.06
305.007	6.04
305.22	5.81
305.432	5.94
305.645	6.42
305.857	6.64
306.069	6.6
306.282	6.92
306.494	7.24
306.707	7.42
306.919	7.28
307.132	7.2
307.344	7.29
307.556	7.71
307.769	7.59
307.981	7.26
308.193	7.03
308.406	7.28
308.618	7.42
308.83	7.05
309.043	6.77
309.255	6.85
309.467	6.82
309.679	6.93
309.892	6.81
310.104	6.91
310.316	6.9
310.528	7.31
310.74	7.46
310.953	7.49
311.165	7.8
311.377	7.85
311.589	7.68
311.801	7.82
312.013	7.52
312.225	7.77
312.437	7.86
312.649	8.14
312.862	8.31
313.074	7.88
313.286	7.79
313.498	7.75
313.71	7.97
313.922	8.12
314.134	8.64
314.346	9.05
314.558	9.12
314.77	9.17
314.982	9.35
315.193	9.11
315.405	9.39
315.617	9.56
315.829	9.85
316.041	9.9
316.253	10.09
316.465	9.49
316.677	9.85
316.888	10.06
317.1	10.37
317.312	10.39
317.524	10.47
317.736	10.81
317.947	10.79
318.159	10.69
318.371	10.81
318.583	10.86
318.794	11.18
319.006	10.9
319.218	10.7
319.43	10.29
319.641	10.09
319.853	10.35
320.064	10.35
320.276	10.59
320.488	10.57
320.699	10.65
320.911	10.8
321.123	10.87
321.334	10.74
321.546	10.58
321.757	10.8
321.969	10.77
322.18	10.67
322.392	10.75
322.603	10.45
322.815	10.89
323.026	11.01
323.238	11.23
323.449	11.69
323.661	11.77
323.872	11.71
324.083	12.01
324.295	12.08
324.506	12.34
324.718	12.5
324.929	12.79
325.14	12.97
325.352	12.79
325.563	12.93
325.774	13.03
325.986	13.1
326.197	13.58
326.408	13.49
326.62	13.62
326.831	13.83
327.042	13.67
327.253	13.81
327.464	13.81
327.676	14.43
327.887	14.48
328.098	14.19
328.309	14.7
328.52	14.84
328.732	15.4
328.943	15.92
329.154	15.82
329.365	16.32
329.576	16.57
329.787	16.52
329.998	16.68
330.209	16.75
330.42	17.35
330.631	17.22
330.842	17.06
331.053	16.78
331.264	16.8
331.475	17.11
331.686	17.43
331.897	17.08
332.108	17.22
332.319	17.05
332.53	17.09
332.741	17.22
332.952	17.44
333.163	17.62
333.374	18.07
333.585	18.12
333.795	18.33
334.006	18.21
334.217	18.74
334.428	18.92
334.639	19.03
334.849	19.35
335.06	19.23
335.271	19.12
335.482	19.28
335.692	19.31
335.903	19.29
336.114	19.1
336.325	19.19
336.535	18.9
336.746	18.86
336.957	18.94
337.167	18.8
337.378	18.71
337.589	19.18
337.799	19.18
338.01	19
338.22	19.07
338.431	19.37
338.642	19.18
338.852	19.81
339.063	19.81
339.273	19.87
339.484	19.74
339.694	20.22
339.905	19.92
340.115	19.84
340.326	19.66
340.536	19.68
340.746	19.6
340.957	19.71
341.167	19.41
341.378	19.44
341.588	19.64
341.799	19.81
342.009	19.69
342.219	19.65
342.43	19.7
342.64	20.02
342.85	20
343.061	20.08
343.271	20.29
343.481	20.14
343.691	19.96
343.902	19.25
344.112	19.07
344.322	18.91
344.532	19.39
344.743	19.38
344.953	19.28
345.163	19.35
345.373	19.11
345.583	18.82
345.793	18.96
346.004	19.06
346.214	19.43
346.424	19.48
346.634	19.33
346.844	19.06
347.054	19.33
347.264	19.24
347.474	19.01
347.684	19.14
347.894	19.1
348.104	18.89
348.314	18.92
348.524	18.82
348.734	18.8
348.944	19.03
349.154	18.7
349.364	18.32
349.574	18.37
349.784	18.26
349.994	17.97
350.204	18.26
350.413	18.43
350.623	18.57
350.833	18.53
351.043	18.26
351.253	18.09
351.463	18.15
351.672	18.42
351.882	18.31
352.092	18.4
352.302	18.31
352.511	18.27
352.721	18.03
352.931	17.88
353.141	17.83
353.35	17.67
353.56	17.81
353.77	17.73
353.979	17.26
354.189	17.49
354.399	17.49
354.608	17.72
354.818	17.85
355.027	18.06
355.237	17.92
355.447	18.3
355.656	18.65
355.866	18.27
356.075	18.46
356.285	18.35
356.494	18.1
356.704	18.2
356.913	18.2
357.123	18.07
357.332	17.71
357.542	18.02
357.751	17.68
357.96	17.7
358.17	17.85
358.379	17.52
358.589	17.61
358.798	17.57
359.007	17.13
359.217	16.99
359.426	16.89
359.635	16.9
359.845	16.65
360.054	16.77
360.263	16.67
360.472	16.77
360.682	16.87
360.891	16.97
361.1	17.22
361.309	17.45
361.519	17.48
361.728	17.29
361.937	17.5
362.146	17.32
362.355	17.27
362.564	17.28
362.774	17.18
362.983	17.31
363.192	17.27
363.401	17.14
363.61	17.13
363.819	17.23
364.028	17.28
364.237	17
364.446	17.21
364.655	17.04
364.864	17.03
365.073	16.94
365.282	16.9
365.491	17.01
365.7	16.88
365.909	16.87
366.118	16.97
366.327	16.85
366.536	17.02
366.745	16.9
366.954	17.34
367.162	17.22
367.371	17.17
367.58	16.94
367.789	16.71
367.998	16.67
368.207	16.74
368.415	16.4
368.624	16.35
368.833	16.7
369.042	16.67
369.25	16.13
369.459	16.2
369.668	16
369.877	15.96
370.085	16.17
370.294	16.31
370.503	16.12
370.711	16.14
370.92	16.21
371.129	15.89
371.337	15.91
371.546	16.27
371.754	16.17
371.963	16.2
372.171	16.38
372.38	16.23
372.589	16.25
372.797	16.33
373.006	16.27
373.214	16.38
373.423	16.36
373.631	16.36
373.84	16.05
374.048	16.15
374.256	16.42
374.465	16.26
374.673	16.37
374.882	16.27
375.09	15.85
375.298	16.07
375.507	16.02
375.715	15.85
375.923	15.87
376.132	15.65
376.34	15.43
376.548	15.49
376.757	15.4
376.965	15.32
377.173	15.16
377.381	15.4
377.59	15.21
377.798	15.17
378.006	15.08
378.214	15.2
378.423	15.54
378.631	15.91
378.839	15.7
379.047	15.8
379.255	15.86
379.463	15.81
379.671	15.75
379.879	15.68
380.088	15.65
380.296	15.76
380.504	15.4
380.712	15.21
380.92	14.78
381.128	15.09
381.336	14.9
381.544	14.78
381.752	14.82
381.96	14.64
382.168	14.71
382.376	14.72
382.584	14.57
382.791	14.77
382.999	14.57
383.207	14.76
383.415	14.56
383.623	14.72
383.831	14.77
384.039	14.75
384.247	14.87
384.454	14.79
384.662	14.67
384.87	14.76
385.078	14.6
385.285	14.66
385.493	14.64
385.701	14.66
385.909	14.44
386.116	14.34
386.324	14.45
386.532	14.31
386.739	14.38
386.947	14.3
387.155	14.24
387.362	14.24
387.57	14.46
387.778	14.45
387.985	14.37
388.193	14.47
388.4	14.46
388.608	14.42
388.816	14.73
389.023	14.71
389.231	14.82
389.438	14.98
389.646	15.01
389.853	14.69
390.061	14.68
390.268	14.8
390.475	14.86
390.683	14.69
390.89	14.53
391.098	14.22
391.305	13.98
391.512	13.91
391.72	13.72
391.927	13.82
392.135	14.07
392.342	13.91
392.549	13.72
392.756	13.72
392.964	13.73
393.171	13.61
393.378	13.64
393.586	13.8
393.793	13.77
394	13.84
394.207	13.53
394.414	13.59
394.622	13.68
394.829	13.75
395.036	13.72
395.243	13.75
395.45	14.01
395.657	14.04
395.864	14.02
396.072	14.1
396.279	14.24
396.486	14.4
396.693	14.18
396.9	14.07
397.107	14.07
397.314	14.08
397.521	14.22
397.728	14.05
397.935	13.97
398.142	14.04
398.349	14.06
398.556	13.85
398.763	13.82
398.97	13.79
399.177	13.88
399.383	13.67
399.59	13.52
399.797	13.44
400.004	13.41
400.211	13.49
400.418	13.45
400.625	13.26
400.831	13.15
401.038	13.32
401.245	13.31
401.452	13.25
401.658	13.4
401.865	13.39
402.072	13.32
402.279	13.36
402.485	13.34
402.692	13.23
402.899	13.47
403.105	13.61
403.312	13.33
403.519	13.47
403.725	13.67
403.932	13.67
404.138	13.61
404.345	13.53
404.552	13.49
404.758	13.45
404.965	13.4
405.171	13.17
405.378	13.01
405.584	13.17
405.791	13.13
405.997	12.96
406.204	12.88
406.41	13.13
406.617	13.07
406.823	13.13
407.029	13.2
407.236	13.14
407.442	13.29
407.649	13.42
407.855	13.48
408.061	13.45
408.268	13.43
408.474	13.4
408.68	13.19
408.887	13.32
409.093	13.26
409.299	13.24
409.505	13.3
409.712	13.25
409.918	13.26
410.124	13.09
410.33	13.07
410.537	13.1
410.743	13.16
410.949	13.13
411.155	13.25
411.361	13.2
411.567	13.22
411.773	13.28
411.98	13.27
412.186	13.11
412.392	13.21
412.598	13.13
412.804	13.12
413.01	13.15
413.216	13.27
413.422	13.21
413.628	13.26
413.834	13.29
414.04	13.3
414.246	13.24
414.452	13.32
414.658	13.21
414.864	13.21
415.07	13.12
415.275	13.13
415.481	13.12
415.687	13.04
415.893	13.03
416.099	12.96
416.305	12.85
416.511	12.97
416.716	12.93
416.922	13.01
417.128	13.01
417.334	13
417.539	12.87
417.745	12.81
417.951	12.69
418.157	12.64
418.362	12.71
418.568	12.82
418.774	12.8
418.979	12.83
419.185	12.79
419.391	12.79
419.596	12.77
419.802	12.77
420.008	12.73
420.213	13.45
420.419	13.57
420.624	13.56
420.83	13.43
421.035	13.37
421.241	13.35
421.446	13.37
421.652	13.3
421.857	13.42
422.063	13.47
422.268	13.49
422.474	12.92
422.679	12.8
422.885	12.77
423.09	12.88
423.295	12.94
423.501	12.93
423.706	12.88
423.911	12.98
424.117	12.85
424.322	12.87
424.527	12.9
424.733	12.96
424.938	12.97
425.143	12.95
425.349	12.91
425.554	12.82
425.759	12.93
425.964	12.96
426.169	12.88
426.375	12.95
426.58	12.89
426.785	12.87
426.99	12.78
427.195	12.77
427.4	12.81
427.605	12.81
427.811	12.92
428.016	12.78
428.221	12.94
428.426	12.9
428.631	12.89
428.836	12.97
429.041	13.1
429.246	13.13
429.451	13.17
429.656	13.18
429.861	13.26
430.066	13.27
430.271	13.15
430.476	12.97
430.681	13.03
430.886	13.02
431.09	12.99
431.295	12.9
431.5	12.86
431.705	12.91
431.91	12.92
432.115	12.8
432.32	12.72
432.524	12.87
432.729	12.93
432.934	13.04
433.139	13.1
433.343	13.19
433.548	13.25
433.753	13.3
433.958	13.27
434.162	13.22
434.367	13.28
434.572	13.38
434.776	13.54
434.981	13.54
435.186	13.48
435.39	13.5
435.595	13.37
435.799	13.33
436.004	13.42
436.209	13.42
436.413	13.49
436.618	13.58
436.822	13.61
437.027	13.42
437.231	13.52
437.436	13.56
437.64	13.6
437.845	13.66
438.049	13.69
438.253	13.68
438.458	13.7
438.662	13.63
438.867	13.52
439.071	13.53
439.275	13.62
439.48	13.44
439.684	13.46
439.888	13.42
440.093	13.41
440.297	13.41
440.501	13.41
440.706	13.41
440.91	13.39
441.114	13.48
441.318	13.42
441.523	13.37
441.727	13.54
441.931	13.48
442.135	13.47
442.339	13.44
442.543	13.44
442.748	13.37
442.952	13.24
443.156	13.35
443.36	13.33
443.564	13.36
443.768	13.42
443.972	13.34
444.176	13.36
444.38	13.28
444.584	13.31
444.788	13.36
444.992	13.39
445.196	13.47
445.4	13.42
445.604	13.38
445.808	13.38
446.012	13.34
446.216	13.39
446.42	13.33
446.624	13.35
446.828	13.36
447.032	13.22
447.235	13.16
447.439	13.12
447.643	13.2
447.847	13.2
448.051	13.21
448.254	13.26
448.458	13.27
448.662	13.35
448.866	13.4
449.069	13.3
449.273	13.4
449.477	13.54
449.681	13.69
449.884	13.57
450.088	13.66
450.292	13.66
450.495	13.56
450.699	13.55
450.902	13.52
451.106	13.47
451.31	13.68
451.513	13.7
451.717	13.52
451.92	13.57
452.124	13.63
452.327	13.51
452.531	13.45
452.734	13.52
452.938	13.51
453.141	13.58
453.345	13.57
453.548	13.49
453.752	13.48
453.955	13.51
454.158	13.45
454.362	13.59
454.565	13.61
454.769	13.67
454.972	13.61
455.175	13.58
455.379	13.49
455.582	13.47
455.785	13.38
455.988	13.39
456.192	13.41
456.395	13.27
456.598	13.26
456.801	13.27
457.005	13.27
457.208	13.32
457.411	13.26
457.614	13.31
457.817	13.42
458.021	13.53
458.224	13.42
458.427	13.41
458.63	13.41
458.833	13.3
459.036	13.27
459.239	13.25
459.442	13.21
459.645	13.23
459.848	13.18
460.051	13.18
460.254	13.19
460.457	13.25
460.66	13.29
460.863	13.29
461.066	13.22
461.269	13.24
461.472	13.28
461.675	13.38
461.878	13.32
462.081	13.41
462.284	13.39
462.486	13.31
462.689	13.27
462.892	13.28
463.095	13.43
463.298	13.55
463.5	13.63
463.703	13.65
463.906	13.58
464.109	13.69
464.311	13.58
464.514	13.53
464.717	13.49
464.92	13.49
465.122	13.48
465.325	13.31
465.528	13.29
465.73	13.2
465.933	13.13
466.135	13.13
466.338	13.13
466.541	13.2
466.743	13.3
466.946	13.38
467.148	13.41
467.351	13.42
467.553	13.54
467.756	13.49
467.958	13.53
468.161	13.62
468.363	13.63
468.566	13.61
468.768	13.63
468.971	13.57
469.173	13.58
469.375	13.62
469.578	13.73
469.78	13.7
469.983	13.79
470.185	13.84
470.387	13.86
470.59	13.84
470.792	13.96
470.994	13.88
471.196	13.96
471.399	13.91
471.601	13.78
471.803	13.7
472.005	13.72
472.208	13.71
472.41	13.64
472.612	13.59
472.814	13.56
473.016	13.35
473.218	13.58
473.421	13.5
473.623	13.48
473.825	13.58
474.027	13.51
474.229	13.46
474.431	13.45
474.633	13.43
474.835	13.46
475.037	13.45
475.239	13.55
475.441	13.33
475.643	13.35
475.845	13.33
476.047	13.32
476.249	13.37
476.451	13.34
476.653	13.37
476.855	13.48
477.057	13.39
477.258	13.47
477.46	13.5
477.662	13.65
477.864	13.62
478.066	13.72
478.268	13.65
478.469	13.59
478.671	13.7
478.873	13.68
479.075	13.66
479.276	13.6
479.478	13.65
479.68	13.64
479.882	13.51
480.083	13.54
480.285	13.44
480.487	13.56
480.688	13.56
480.89	13.5
481.091	13.46
481.293	13.46
481.495	13.43
481.696	13.33
481.898	13.32
482.099	13.32
482.301	13.29
482.502	13.27
482.704	13.21
482.905	13.21
483.107	13.17
483.308	13.15
483.51	13.13
483.711	13.13
483.913	13.11
484.114	13.11
484.315	13.09
484.517	13.07
484.718	13.1
484.92	13.15
485.121	13.15
485.322	13.19
485.524	13.2
485.725	13.22
485.926	13.23
486.127	13.29
486.329	13.26
486.53	13.27
486.731	13.29
486.932	13.25
487.134	13.16
487.335	13.18
487.536	13.15
487.737	13.14
487.938	13.14
488.139	13.17
488.341	13.15
488.542	13.14
488.743	13.15
488.944	13.16
489.145	13.18
489.346	13.25
489.547	13.19
489.748	13.2
489.949	13.25
490.15	13.22
490.351	13.18
490.552	13.22
490.753	13.29
490.954	13.27
491.155	13.29
491.356	13.28
491.557	13.28
491.758	13.35
491.959	13.37
492.159	13.36
492.36	13.39
492.561	13.46
492.762	13.46
492.963	13.39
493.164	13.44
493.364	13.41
493.565	13.46
493.766	13.5
493.967	13.49
494.167	13.45
494.368	13.42
494.569	13.48
494.769	13.45
494.97	13.47
495.171	13.53
495.371	13.55
495.572	13.63
495.773	13.67
495.973	13.59
496.174	13.6
496.375	13.63
496.575	13.66
496.776	13.58
496.976	13.61
497.177	13.58
497.377	13.58
497.578	13.58
497.778	13.58
497.979	13.64
498.179	13.72
498.38	13.72
498.58	13.76
498.78	13.83
498.981	13.89
499.181	13.94
499.382	13.96
499.582	13.96
499.782	14
499.983	13.97
500.183	13.83
500.383	13.82
500.584	13.84
500.784	13.87
500.984	13.84
501.184	13.81
501.385	13.88
501.585	13.91
501.785	13.94
501.985	13.89
502.185	13.91
502.386	13.92
502.586	13.91
502.786	13.87
502.986	13.92
503.186	13.94
503.386	14
503.586	13.94
503.786	13.99
503.987	14.04
504.187	14.14
504.387	14.16
504.587	14.29
504.787	14.35
504.987	14.43
505.187	14.48
505.387	14.5
505.587	14.53
505.786	14.51
505.986	14.53
506.186	14.49
506.386	14.44
506.586	14.52
506.786	14.51
506.986	14.48
507.186	14.56
507.386	14.54
507.585	14.56
507.785	14.56
507.985	14.62
508.185	14.64
508.384	14.74
508.584	14.85
508.784	14.88
508.984	14.92
509.183	14.94
509.383	14.88
509.583	14.84
509.782	14.84
509.982	14.91
510.182	14.94
510.381	14.95
510.581	14.87
510.781	14.89
510.98	14.95
511.18	14.96
511.379	15
511.579	15.02
511.778	15.11
511.978	15.23
512.177	15.21
512.377	15.28
512.576	15.39
512.776	15.47
512.975	15.45
513.175	15.43
513.374	15.44
513.573	15.52
513.773	15.58
513.972	15.59
514.172	15.6
514.371	15.74
514.57	15.73
514.77	15.7
514.969	15.73
515.168	15.77
515.367	15.85
515.567	15.99
515.766	16
515.965	15.97
516.164	16.03
516.364	16.07
516.563	16.05
516.762	16.04
516.961	16.11
517.16	16.08
517.359	16.12
517.559	16.05
517.758	16
517.957	15.99
518.156	16.02
518.355	16.06
518.554	16.07
518.753	16.06
518.952	16.11
519.151	16.1
519.35	16.23
519.549	16.25
519.748	16.28
519.947	16.39
520.146	16.43
520.345	16.53
520.544	16.46
520.743	16.48
520.942	16.53
521.141	16.58
521.339	16.61
521.538	16.6
521.737	16.7
521.936	16.76
522.135	16.75
522.333	16.88
522.532	16.91
522.731	17.09
522.93	17.16
523.129	17.13
523.327	17.06
523.526	17
523.725	17.03
523.923	16.96
524.122	17.01
524.321	16.99
524.519	16.97
524.718	17.03
524.917	17.02
525.115	17.05
525.314	17.17
525.512	17.29
525.711	17.41
525.909	17.45
526.108	17.49
526.306	17.54
526.505	17.66
526.703	17.66
526.902	17.64
527.1	17.62
527.299	17.64
527.497	17.64
527.696	17.65
527.894	17.69
528.092	17.76
528.291	17.77
528.489	17.77
528.688	17.76
528.886	17.77
529.084	17.82
529.283	17.86
529.481	17.89
529.679	17.91
529.877	17.91
530.076	17.88
530.274	17.84
530.472	17.86
530.67	17.88
530.869	17.9
531.067	17.98
531.265	18.05
531.463	18.15
531.661	18.18
531.859	18.17
532.057	18.21
532.255	18.31
532.454	18.34
532.652	18.38
532.85	18.4
533.048	18.45
533.246	18.47
533.444	18.47
533.642	18.43
533.84	18.42
534.038	18.47
534.236	18.5
534.434	18.5
534.632	18.55
534.83	18.57
535.027	18.57
535.225	18.6
535.423	18.66
535.621	18.73
535.819	18.82
536.017	18.91
536.215	18.98
536.412	18.99
536.61	19.04
536.808	19.05
537.006	19.11
537.203	19.15
537.401	19.17
537.599	19.1
537.797	19.08
537.994	19.07
538.192	19.07
538.39	19.07
538.587	19.18
538.785	19.22
538.983	19.25
539.18	19.22
539.378	19.3
539.575	19.23
539.773	19.3
539.97	19.26
540.168	19.25
540.366	19.25
540.563	19.29
540.761	19.29
540.958	19.24
541.155	19.27
541.353	19.33
541.55	19.36
541.748	19.41
541.945	19.42
542.143	19.46
542.34	19.48
542.537	19.45
542.735	19.44
542.932	19.46
543.129	19.49
543.327	19.5
543.524	19.55
543.721	19.58
543.919	19.56
544.116	19.58
544.313	19.62
544.51	19.7
544.708	19.81
544.905	19.8
545.102	19.82
545.299	19.81
545.496	19.77
545.693	19.72
545.891	19.58
546.088	19.65
546.285	19.67
546.482	19.66
546.679	19.59
546.876	19.66
547.073	19.73
547.27	19.71
547.467	19.82
547.664	19.87
547.861	19.9
548.058	20.02
548.255	20.04
548.452	20.12
548.649	20.17
548.846	20.3
549.043	20.16
549.24	20.11
549.437	20.07
549.633	20.08
549.83	20.11
550.027	20.19
550.224	20.23
550.421	20.19
550.618	20.08
550.814	20.16
551.011	20.02
551.208	20.15
551.405	20.17
551.601	20.23
551.798	20.09
551.995	20.05
552.191	19.96
552.388	19.86
552.585	19.85
552.781	19.88
552.978	19.84
553.175	19.84
553.371	19.82
553.568	19.9
553.764	19.89
553.961	20.03
554.157	20.06
554.354	20.08
554.55	20.29
554.747	20.39
554.943	20.48
555.14	20.4
555.336	20.43
555.533	20.43
555.729	20.29
555.926	20.37
556.122	20.34
556.318	20.33
556.515	20.4
556.711	20.38
556.907	20.4
557.104	20.28
557.3	20.29
557.496	20.26
557.693	20.36
557.889	20.35
558.085	20.34
558.281	20.32
558.478	20.37
558.674	20.27
558.87	20.17
559.066	20.15
559.262	20.16
559.459	20.22
559.655	20.3
559.851	20.22
560.047	20.38
560.243	20.29
560.439	20.28
560.635	20.22
560.831	20.19
561.027	20.21
561.223	20.17
561.419	20.26
561.615	20.32
561.811	20.45
562.007	20.57
562.203	20.54
562.399	20.68
562.595	20.72
562.791	20.79
562.987	20.81
563.183	20.85
563.379	20.84
563.575	20.77
563.771	20.76
563.966	20.58
564.162	20.47
564.358	20.49
564.554	20.42
564.75	20.46
564.945	20.46
565.141	20.52
565.337	20.62
565.533	20.54
565.728	20.55
565.924	20.57
566.12	20.68
566.315	20.66
566.511	20.72
566.707	20.67
566.902	20.68
567.098	20.7
567.293	20.83
567.489	20.76
567.684	20.86
567.88	20.96
568.076	20.93
568.271	20.88
568.467	20.89
568.662	20.89
568.858	20.96
569.053	20.93
569.248	20.86
569.444	20.67
569.639	20.68
569.835	20.72
570.03	20.62
570.225	20.62
570.421	20.7
570.616	20.65
570.812	20.55
571.007	20.67
571.202	20.82
571.397	20.83
571.593	20.92
571.788	20.95
571.983	20.95
572.178	21.02
572.374	21.07
572.569	21.12
572.764	21.24
572.959	21.34
573.154	21.27
573.35	21.15
573.545	21.24
573.74	21.26
573.935	21.24
574.13	21.24
574.325	21.29
574.52	21.22
574.715	21.15
574.91	21.13
575.105	21.18
575.3	21.16
575.495	21.24
575.69	21.24
575.885	21.39
576.08	21.41
576.275	21.41
576.47	21.49
576.665	21.69
576.86	21.69
577.055	21.76
577.25	21.7
577.444	21.84
577.639	21.97
577.834	21.97
578.029	21.88
578.224	21.93
578.418	22.05
578.613	21.93
578.808	21.85
579.003	21.92
579.197	21.94
579.392	21.95
579.587	21.95
579.781	21.79
579.976	21.75
580.171	21.68
580.365	21.72
580.56	21.75
580.755	21.89
580.949	21.85
581.144	21.75
581.338	21.71
581.533	21.83
581.727	21.82
581.922	21.93
582.116	22.1
582.311	22.13
582.505	22.12
582.7	22.22
582.894	22.22
583.089	22.12
583.283	22.35
583.478	22.38
583.672	22.3
583.866	22.44
584.061	22.33
584.255	22.28
584.449	22.2
584.644	22.3
584.838	22.24
585.032	22.17
585.226	22.36
585.421	22.26
585.615	22.32
585.809	22.5
586.003	22.43
586.198	22.51
586.392	22.57
586.586	22.69
586.78	22.6
586.974	22.63
587.168	22.75
587.363	22.84
587.557	22.88
587.751	22.89
587.945	22.78
588.139	22.72
588.333	22.71
588.527	22.66
588.721	22.71
588.915	22.67
589.109	22.59
589.303	22.46
589.497	22.44
589.691	22.49
589.885	22.49
590.079	22.5
590.273	22.58
590.466	22.69
590.66	22.79
590.854	22.81
591.048	22.94
591.242	22.99
591.436	23.05
591.629	22.96
591.823	23.06
592.017	23.14
592.211	23.1
592.404	23.07
592.598	23.05
592.792	23.07
592.986	23.18
593.179	23.07
593.373	23.14
593.567	23.06
593.76	23.19
593.954	23.04
594.147	22.91
594.341	22.99
594.535	22.97
594.728	22.93
594.922	22.82
595.115	22.6
595.309	22.65
595.502	22.61
595.696	22.91
595.889	22.88
596.083	22.96
596.276	23.14
596.47	23.12
596.663	23.11
596.856	23.11
597.05	23.13
597.243	23.38
597.437	23.38
597.63	23.51
597.823	23.36
598.017	23.27
598.21	23.32
598.403	23.26
598.596	23.26
598.79	23.39
598.983	23.35
599.176	23.57
599.369	23.34
599.563	23.6
599.756	23.59
599.949	23.71
600.142	23.91
600.335	23.98
600.528	24.03
600.722	24.27
600.915	24.32
601.108	24.5
601.301	24.48
601.494	24.58
601.687	24.56
601.88	24.6
602.073	24.51
602.266	24.43
602.459	24.46
602.652	24.51
602.845	24.42
603.038	24.3
603.231	24.28
603.424	24.29
603.617	24.33
603.809	24.25
604.002	24.11
604.195	24.11
604.388	24.2
604.581	24.19
604.774	24.16
604.966	24.14
605.159	24.19
605.352	24.28
605.545	24.31
605.737	24.31
605.93	24.36
606.123	24.49
606.316	24.63
606.508	24.62
606.701	24.55
606.894	24.63
607.086	24.81
607.279	24.96
607.471	24.83
607.664	24.86
607.857	24.93
608.049	24.88
608.242	24.97
608.434	25.05
608.627	25.25
608.819	25.43
609.012	25.55
609.204	25.68
609.397	25.93
609.589	26.18
609.782	26.24
609.974	26.44
610.166	26.95
610.359	27.22
610.551	27.47
610.743	27.6
610.936	27.87
611.128	28.08
611.32	28.25
611.513	28.22
611.705	28.3
611.897	28.51
612.09	28.56
612.282	28.28
612.474	28.15
612.666	28.05
612.858	28.09
613.051	27.88
613.243	27.76
613.435	27.5
613.627	27.29
613.819	27.21
614.011	27.13
614.203	27.17
614.395	27.05
614.588	27.11
614.78	26.91
614.972	26.77
615.164	26.81
615.356	26.67
615.548	26.8
615.74	26.86
615.932	26.87
616.124	26.81
616.315	26.73
616.507	26.7
616.699	26.5
616.891	26.46
617.083	26.61
617.275	26.37
617.467	26.51
617.659	26.32
617.85	26.29
618.042	26.21
618.234	26.23
618.426	26.1
618.618	26.37
618.809	26.45
619.001	26.51
619.193	26.39
619.384	26.48
619.576	26.47
619.768	26.51
619.959	26.54
620.151	26.45
620.343	26.38
620.534	26.34
620.726	26.08
620.917	26.15
621.109	26.3
621.301	26.18
621.492	26.28
621.684	26.42
621.875	26.55
622.067	26.62
622.258	26.76
622.45	26.81
622.641	27.05
622.832	27.2
623.024	27.11
623.215	26.96
623.407	26.96
623.598	26.96
623.789	26.83
623.981	26.72
624.172	26.65
624.363	26.6
624.555	26.74
624.746	26.57
624.937	26.52
625.129	26.6
625.32	26.7
625.511	26.82
625.702	26.82
625.893	26.69
626.085	26.65
626.276	26.55
626.467	26.58
626.658	26.55
626.849	26.49
627.04	26.47
627.231	26.34
627.422	26.42
627.614	26.31
627.805	26.38
627.996	26.56
628.187	26.55
628.378	26.6
628.569	26.67
628.76	26.68
628.951	26.83
629.142	27.01
629.332	27.15
629.523	27
629.714	27.2
629.905	27.09
630.096	27.26
630.287	27.25
630.478	27.45
630.669	27.37
630.859	27.38
631.05	27.36
631.241	27.32
631.432	27.26
631.623	27.23
631.813	27.27
632.004	27.48
632.195	27.15
632.385	27.3
632.576	27.26
632.767	27.21
632.957	27
633.148	26.89
633.339	26.81
633.529	26.88
633.72	26.9
633.91	26.87
634.101	26.7
634.292	26.69
634.482	26.78
634.673	26.77
634.863	27.05
635.054	27.15
635.244	27.25
635.435	27.37
635.625	27.38
635.815	27.31
636.006	27.03
636.196	27.13
636.387	27.38
636.577	27.27
636.767	27.32
636.958	27
637.148	27.14
637.338	27.31
637.529	27.04
637.719	27.11
637.909	27.26
638.099	27.41
638.29	27.41
638.48	27.2
638.67	27.27
638.86	27.26
639.05	27.37
639.241	27.36
639.431	27.19
639.621	27.4
639.811	27.27
640.001	27.21
640.191	27.35
640.381	27.52
640.571	27.64
640.761	27.68
640.951	27.62
641.141	27.76
641.331	27.68
641.521	28
641.711	27.92
641.901	27.76
642.091	27.85
642.281	27.58
642.471	27.37
642.661	27.33
642.851	27.23
643.041	27.16
643.231	26.96
643.42	26.85
643.61	26.52
643.8	26.45
643.99	26.83
644.18	26.9
644.369	27.12
644.559	27.1
644.749	27.24
644.939	27.42
645.128	27.67
645.318	28.01
645.508	27.96
645.697	28.05
645.887	28.34
646.076	28.12
646.266	27.97
646.456	27.87
646.645	27.86
646.835	27.7
647.024	27.57
647.214	27.35
647.403	27.01
647.593	27.19
647.782	27.19
647.972	26.97
648.161	27.15
648.351	27.25
648.54	27.34
648.73	27.3
648.919	27.33
649.108	27.36
649.298	27.39
649.487	27.32
649.677	27.45
649.866	27.39
650.055	27.46
650.244	27.24
650.434	27.05
650.623	27.25
650.812	27.25
651.002	27.16
651.191	27.17
651.38	27.2
651.569	27.65
651.758	27.7
651.947	27.84
652.137	27.87
652.326	27.97
652.515	28.15
652.704	27.98
652.893	28.1
653.082	28.28
653.271	28.22
653.46	28.3
653.649	28.1
653.838	27.83
654.027	27.61
654.216	27.65
654.405	27.69
654.594	27.89
654.783	28.1
654.972	28.07
655.161	28.03
655.35	28.07
655.539	27.92
655.728	27.89
655.916	28.07
656.105	28.31
656.294	28.38
656.483	28.25
656.672	28.24
656.86	27.86
657.049	27.92
657.238	27.86
657.427	27.8
657.615	27.82
657.804	27.63
657.993	27.59
658.181	27.45
658.37	27.18
658.559	27.32
658.747	27.11
658.936	27.23
659.125	27.55
659.313	27.38
659.502	27.5
659.69	27.67
659.879	27.95
660.067	27.98
660.256	28.13
660.444	28.56
660.633	28.68
660.821	28.75
661.01	28.82
661.198	28.5
661.387	28.83
661.575	28.95
661.763	28.95
661.952	29.01
662.14	29.23
662.328	29.28
662.517	29.07
662.705	29.04
662.893	29.23
663.082	29.22
663.27	29.6
663.458	29.45
663.646	29.21
663.834	29.43
664.023	29.3
664.211	29.31
664.399	29.25
664.587	29.25
664.775	29.19
664.963	29.05
665.152	29.13
665.34	28.92
665.528	29.03
665.716	29.1
665.904	28.97
666.092	29.24
666.28	28.94
666.468	28.81
666.656	28.72
666.844	28.76
667.032	28.75
667.22	28.84
667.408	28.79
667.596	28.87
667.784	28.98
667.971	28.95
668.159	28.67
668.347	28.89
668.535	28.93
668.723	29.2
668.911	29.19
669.098	29.31
669.286	29.05
669.474	29.04
669.662	29.03
669.849	29.23
670.037	29.28
670.225	29.44
670.413	29.5
670.6	29.47
670.788	29.44
670.976	29.41
671.163	29.43
671.351	29.66
671.538	29.76
671.726	29.75
671.913	29.4
672.101	29.09
672.289	28.97
672.476	28.86
672.664	28.93
672.851	28.71
673.039	28.69
673.226	28.64
673.413	28.84
673.601	28.82
673.788	28.66
673.976	28.71
674.163	29.03
674.35	29.07
674.538	29.16
674.725	29.27
674.912	29.6
675.1	29.7
675.287	29.95
675.474	29.64
675.662	29.67
675.849	29.52
676.036	29.65
676.223	29.45
676.411	29.58
676.598	29.51
676.785	29.78
676.972	29.57
677.159	29.56
677.346	29.48
677.533	29.59
677.721	29.28
677.908	29.7
678.095	29.54
678.282	29.83
678.469	29.69
678.656	29.87
678.843	29.55
679.03	29.68
679.217	29.78
679.404	29.63
679.591	29.37
679.778	29.32
679.964	29.07
680.151	29.31
680.338	29.07
680.525	29.35
680.712	29.11
680.899	29.17
681.086	29.29
681.272	29.28
681.459	29.37
681.646	29.66
681.833	30.19
682.02	30.55
682.206	30.56
682.393	30.61
682.58	30.33
682.766	30.37
682.953	30.45
683.14	29.98
683.326	30.02
683.513	30.1
683.7	30.05
683.886	29.42
684.073	29.23
684.259	29.12
684.446	29.28
684.632	29.28
684.819	29.42
685.005	29.31
685.192	29.48
685.378	29.39
685.565	29.36
685.751	29.36
685.938	30.09
686.124	30.28
686.31	30.41
686.497	30.4
686.683	30.61
686.87	30.53
687.056	30.37
687.242	30.47
687.429	30.3
687.615	30.25
687.801	30.37
687.987	30.32
688.174	30.32
688.36	30.27
688.546	29.97
688.732	29.83
688.918	29.96
689.105	30.23
689.291	30.09
689.477	30.53
689.663	30.69
689.849	30.72
690.035	30.41
690.221	30.26
690.407	30.28
690.593	30.54
690.779	30.49
690.965	30.72
691.151	30.65
691.337	30.71
691.523	30.4
691.709	30.15
691.895	30.12
692.081	29.95
692.267	29.84
692.453	29.72
692.639	29.65
692.825	29.88
693.011	29.8
693.196	29.7
693.382	30.12
693.568	30.51
693.754	30.76
693.94	31.05
694.125	31.34
694.311	31.75
694.497	31.77
694.682	31.65
694.868	31.76
695.054	31.66
695.239	31.94
695.425	31.45
695.611	30.93
695.796	30.73
695.982	30.12
696.168	30
696.353	29.65
696.539	29.76
696.724	29.69
696.91	29.46
697.095	29.26
697.281	28.85
697.466	29.26
697.652	29.61
697.837	29.76
698.023	30.03
698.208	29.99
698.393	30.09
698.579	29.86
698.764	29.89
698.949	30.03
699.135	30.21
699.32	30.58
699.505	30.4
699.691	30.22
699.876	30.11
700.061	30.01
700.246	30.16
700.432	30.17
700.617	30.73
700.802	30.99
700.987	30.74
701.172	30.67
701.358	30.87
701.543	30.92
701.728	30.96
701.913	30.94
702.098	30.96
702.283	30.81
702.468	30.62
702.653	30.37
702.838	30.04
703.023	30.24
703.208	30.52
703.393	30.37
703.578	30.65
703.763	30.69
703.948	30.8
704.133	31.09
704.318	31.4
704.503	31.73
704.688	32.1
704.873	32.44
705.057	32.64
705.242	32.59
705.427	32.47
705.612	32.5
705.797	32.89
705.981	33.33
706.166	33.41
706.351	33.31
706.536	33.47
706.72	33.57
706.905	33.83
707.09	34.03
707.274	34.21
707.459	34.41
707.644	34.53
707.828	34.28
708.013	33.88
708.197	33.97
708.382	33.82
708.567	33.81
708.751	33.44
708.936	33.23
709.12	33
709.305	33.03
709.489	32.84
709.673	32.79
709.858	33.06
710.042	33.25
710.227	33.16
710.411	33.35
710.596	33.1
710.78	33.24
710.964	33.38
711.149	33.62
711.333	33.33
711.517	33.27
711.702	33.01
711.886	32.7
712.07	32.9
712.254	32.73
712.438	32.8
712.623	33.04
712.807	32.82
712.991	32.68
713.175	32.11
713.359	31.81
713.544	31.65
713.728	31.68
713.912	31.83
714.096	31.24
714.28	31.19
714.464	31.03
714.648	30.94
714.832	30.63
715.016	30.53
715.2	30.91
715.384	31.28
715.568	31.57
715.752	31.43
715.936	31.25
716.12	31.5
716.304	31.59
716.488	31.38
716.671	31.08
716.855	31.49
717.039	31.44
717.223	31.12
717.407	30.78
717.59	30.88
717.774	31.12
717.958	31.29
718.142	31.22
718.325	30.96
718.509	31.05
718.693	31.73
718.877	31.53
719.06	31.48
719.244	31.64
719.428	31.62
719.611	31.19
719.795	31.2
719.978	31.25
720.162	31.46
720.345	31.73
720.529	32.04
720.713	31.49
720.896	31.7
721.08	32.15
721.263	32.19
721.446	32.6
721.63	32.97
721.813	32.73
721.997	32.01
722.18	31.71
722.364	31.67
722.547	31.64
722.73	31.66
722.914	31.61
723.097	31.44
723.28	31.54
723.464	31.11
723.647	30.89
723.83	30.67
724.013	31.4
724.197	31.74
724.38	31.42
724.563	31.32
724.746	31.41
724.929	31.27
725.112	31.35
725.296	31.12
725.479	31.28
725.662	31.05
725.845	31.21
726.028	30.95
726.211	30.79
726.394	31.13
726.577	30.85
726.76	30.77
726.943	30.56
727.126	30.65
727.309	30.79
727.492	31.09
727.675	31.47
727.858	31.72
728.041	31.86
728.224	31.44
728.407	31.69
728.589	31.74
728.772	31.76
728.955	31.83
729.138	31.54
729.321	31.44
729.503	31.46
729.686	31.6
729.869	30.98
730.052	31.23
730.234	31.85
730.417	31.83
730.6	32.16
730.782	32.37
730.965	32.59
731.148	32.7
731.33	32.34
731.513	32.04
731.695	31.99
731.878	32.32
732.061	32.21
732.243	31.68
732.426	31.19
732.608	30.9
732.791	31.06
732.973	30.7
733.156	30.89
733.338	31.05
733.52	31.57
733.703	31.09
733.885	31.39
734.068	30.99
734.25	31.47
734.432	31.99
734.615	32.32
734.797	31.91
734.979	32.85
735.162	32.09
735.344	32.64
735.526	32.12
735.708	32.89
735.891	32.64
736.073	33.1
736.255	33.06
736.437	32.71
736.619	32.56
736.802	33.18
736.984	32.82
737.166	33.64
737.348	33.13
737.53	33.32
737.712	33.01
737.894	33.04
738.076	33.04
738.258	33.07
738.44	33.05
738.622	33.3
738.804	32.87
738.986	32.66
739.168	32.5
739.35	32.67
739.532	33.03
739.714	33.17
739.896	33.2
740.078	32.72
740.259	32.72
740.441	32.23
740.623	32.24
740.805	32.69
740.987	32.92
741.168	33.04
741.35	33.06
741.532	32.68
741.714	32.42
741.895	33.22
742.077	32.94
742.259	33.19
742.44	34.09
742.622	33.7
742.804	33.1
742.985	33.1
743.167	33.07
743.348	33.67
743.53	34.15
743.711	34.39
743.893	33.71
744.075	34.97
744.256	34.97
744.438	34.91
744.619	35.53
744.8	36.52
744.982	36.45
745.163	36.64
745.345	36.16
745.526	36.14
745.707	36.09
745.889	35.88
746.07	35.4
746.252	35.04
746.433	35.16
746.614	35.56
746.795	35.33
746.977	35.16
747.158	35.34
747.339	35.07
747.52	34.4
747.702	34.91
747.883	35.23
748.064	35.18
748.245	35.26
748.426	34.84
748.607	34.39
748.788	33.28
748.97	33.66
749.151	32.88
749.332	33.63
749.513	33.53
749.694	33.27
749.875	33.04
750.056	33.47
750.237	33.9
750.418	33.61
750.599	33.12
750.78	33.46
750.96	33.1
751.141	34.24
751.322	33.47
751.503	33.93
751.684	33.19
751.865	33.29
752.046	32.97
752.226	32.4
752.407	33.4
752.588	33.92
752.769	34.26
752.949	34.16
753.13	33.15
753.311	34.02
753.492	33.62
753.672	33.78
753.853	33.47
754.034	33.73
754.214	34
754.395	33.36
754.575	33.45
754.756	33.29
754.937	33.54
755.117	33.87
755.298	33.35
755.478	33.25
755.659	32.93
755.839	33.87
756.02	33.43
756.2	33.51
756.381	33.65
756.561	33.75
756.741	34.02
756.922	34.56
757.102	34.47
757.283	34.29
757.463	34.6
757.643	34.75
757.823	33.8
758.004	33.49
758.184	32.49
758.364	32.35
758.545	31.46
758.725	31.41
758.905	30.11
759.085	29.6
759.265	29.36
759.446	29.19
759.626	30.15
759.806	29.76
759.986	29.55
760.166	29.88
760.346	29.43
760.526	28.95
760.706	28.7
760.886	29.4
761.066	30.21
761.246	30.3
761.426	30.1
761.606	29.4
761.786	29.73
761.966	29.78
762.146	29.94
762.326	30.44
762.506	30.57
762.686	30.33
762.866	30.18
763.046	29.88
763.225	30
763.405	29.99
763.585	30.2
763.765	30.15
763.945	30.1
764.124	30.26
764.304	30.04
764.484	30.18
764.664	30.5
764.843	30.64
765.023	30.72
765.203	30.55
765.382	30.29
765.562	29.97
765.741	30.25
765.921	30.49
766.101	30.53
766.28	30.92
766.46	31.08
766.639	31.08
766.819	31.11
766.998	30.8
767.178	31.16
767.357	31.53
767.537	32.32
767.716	32.61
767.896	32.54
768.075	32.41
768.254	32.59
768.434	33.04
768.613	32.78
768.792	32.53
768.972	33
769.151	33.15
769.33	33.7
769.51	33.44
769.689	32.74
769.868	32.64
770.047	32.66
770.226	32.46
770.406	31.87
770.585	31.59
770.764	31.91
770.943	32.53
771.122	32.31
771.301	32.01
771.48	32
771.66	32.83
771.839	33.57
772.018	33.54
772.197	33.96
772.376	34.56
772.555	35.26
772.734	35.09
772.913	33.73
773.092	34.07
773.271	33.89
773.449	34.11
773.628	33.8
773.807	33.48
773.986	33.62
774.165	33.44
774.344	33.39
774.523	34
774.701	34.69
774.88	35.61
775.059	35.33
775.238	36.06
775.417	35.98
775.595	35.81
775.774	36.2
775.953	36.77
776.131	35.93
776.31	35.06
776.489	34.08
776.667	33.91
776.846	33.55
777.025	33.5
777.203	32.54
777.382	32.08
777.56	31.75
777.739	32.53
777.917	31.58
778.096	31.93
778.274	33.03
778.453	33.4
778.631	33.53
778.81	33.85
778.988	34.15
779.166	34.97
779.345	34.59
779.523	34.87
779.702	33.86
779.88	34.5
780.058	35.15
780.237	35.12
780.415	35.26
780.593	35.24
780.771	35.47
780.95	35.78
781.128	35.76
781.306	36.38
781.484	37.04
781.662	36.99
781.841	37.46
782.019	36.82
782.197	37.23
782.375	36.95
782.553	36.79
782.731	37.13
782.909	36.65
783.087	36.32
783.265	35.68
783.443	35.03
783.621	35.44
783.799	35.18
783.977	35.3
784.155	34.28
784.333	33.67
784.511	33.46
784.689	32.97
784.867	33.46
785.045	32.72
785.223	33.34
785.4	33.86
785.578	33.4
785.756	34.02
785.934	33.54
786.112	34.27
786.289	35.54
786.467	35.48
786.645	34.91
786.823	34.04
787	34.52
787.178	33.95
787.356	33.81
787.533	34.28
787.711	32.67
787.889	33.04
788.066	32.85
788.244	31.93
788.421	31.29
788.599	31.39
788.776	31.19
788.954	31.34
789.131	31.93
789.309	31.26
789.486	31.01
789.664	31.52
789.841	32.24
790.019	32.2
790.196	32.27
790.373	31.88
790.551	31.82
790.728	32.34
790.906	32.31
791.083	31.4
791.26	32.12
791.437	31.84
791.615	32.62
791.792	31.65
791.969	32.43
792.146	32.15
792.324	34.03
792.501	33.78
792.678	34.81
792.855	35.6
793.032	36.31
793.209	36.27
793.387	36.71
793.564	35.56
793.741	35.84
793.918	34.81
794.095	33.87
794.272	32.45
794.449	33.22
794.626	33.29
794.803	33.16
794.98	33
795.157	33.16
795.334	33.36
795.511	34.03
795.688	33.49
795.864	33.77
796.041	34.84
796.218	35.58
796.395	35.91
796.572	35
796.749	34.77
796.925	34.37
797.102	34.34
797.279	33.61
797.456	33.76
797.632	34.56
797.809	34.39
797.986	35.17
798.162	34.7
798.339	33.65
798.516	33.69
798.692	34.28
798.869	34.58
799.046	34.3
799.222	34.43
799.399	34.41
799.575	34.39
799.752	34.24
799.928	34.11
800.105	33.38
800.281	34.63
800.458	35.56
800.634	34.83
800.811	35.25
800.987	36.39
801.163	36.57
801.34	37.22
801.516	37.12
801.692	37.03
801.869	36.52
802.045	37.38
802.221	36.89
802.398	36.73
802.574	36.75
802.75	37.43
802.926	35.93
803.103	35.83
803.279	34.37
803.455	33.72
803.631	33.84
803.807	33.55
803.983	33.83
804.16	33.51
804.336	32.7
804.512	31.36
804.688	29.68
804.864	30.3
805.04	30.11
805.216	30.2
805.392	29.74
805.568	28.94
805.744	29.71
805.92	29.3
806.096	29.42
806.272	30.05
806.448	31.97
806.623	32.81
806.799	31.82
806.975	31.64
807.151	31.32
807.327	33.97
807.503	34.68
807.678	35.04
807.854	35.77
808.03	35.13
808.206	33.21
808.381	31.64
808.557	31.31
808.733	33.24
808.908	34.21
809.084	35.02
809.26	32.81
809.435	33.07
809.611	32.3
809.787	30.52
809.962	29.91
810.138	31.07
810.313	31.53
810.489	31.09
810.664	30.52
810.84	29.68
811.015	29.6
811.191	29.47
811.366	29.14
811.542	29.28
811.717	28.91
811.892	30.42
812.068	30.51
812.243	30.38
812.419	30.95
812.594	28.76
812.769	28.46
812.944	27.85
813.12	28.54
813.295	28.88
813.47	29.08
813.645	30.87
813.821	31.17
813.996	31.05
814.171	30.3
814.346	28.33
814.521	30.53
814.697	31.72
814.872	31.13
815.047	31.17
815.222	31.11
815.397	30.3
815.572	30.14
815.747	30.05
815.922	29.48
816.097	30.52
816.272	32.68
816.447	32.96
816.622	31.88
816.797	33.28
816.972	32.36
817.147	32.13
817.322	32.4
817.496	31.44
817.671	31.16
817.846	31.78
818.021	32.37
818.196	32.39
818.371	31.61
818.545	32.27
818.72	31.25
818.895	31.38
819.069	31.51
819.244	30.67
819.419	31.45
819.594	30.76
819.768	29.23
819.943	28.41
820.117	27.45
820.292	27.87
820.467	27.88
820.641	27.71
820.816	27.2
820.99	26.98
821.165	27.16
821.339	26.65
821.514	26.64
821.688	27.02
821.863	26.93
822.037	27.21
822.212	26.84
822.386	26.63
822.56	26.7
822.735	26.65
822.909	26.52
823.084	26.33
823.258	26.48
823.432	26.3
823.606	26.28
823.781	26.39
823.955	26.3
824.129	26.43
824.303	26.53
824.478	26.49
824.652	26.72
824.826	26.99
825	27.51
825.174	27.92
825.348	28.2
825.523	28.41
825.697	28.16
825.871	28.08
826.045	28.11
826.219	28.32
826.393	28.32
826.567	28.61
826.741	28.21
826.915	27.57
827.089	27.14
827.263	27.06
827.437	26.82
827.611	27.49
827.784	27.41
827.958	27.07
828.132	27.01
828.306	27.18
828.48	25.87
828.654	26.04
828.827	26.78
829.001	26.42
829.175	26.24
829.349	26.54
829.522	25.98
829.696	26.48
829.87	27.86
830.044	27.76
830.217	27.98
830.391	30.6
830.565	29.93
830.738	28.79
830.912	30.09
831.085	30.09
831.259	29.74
831.432	28.77
831.606	28.7
831.779	27.34
831.953	27.78
832.126	27.16
832.3	25.3
832.473	27.08
832.647	27.42
832.82	27.51
832.994	28.02
833.167	27.76
833.34	28.15
833.514	27.28
833.687	26.88
833.86	26.5
834.034	26.34
834.207	27.27
834.38	26.01
834.553	26.63
834.727	26.81
834.9	27.17
835.073	26.86
835.246	27.71
835.419	28.72
835.593	28.91
835.766	29.18
835.939	29.26
836.112	29.55
836.285	29.79
836.458	29.82
836.631	29.69
836.804	29.14
836.977	29.67
837.15	28.43
837.323	27.95
837.496	29.62
837.669	29.1
837.842	29.62
838.015	29.13
838.188	29.33
838.361	28.51
838.533	27.54
838.706	30.03
838.879	31.82
839.052	31.42
839.225	32.05
839.398	30.23
839.57	30.81
839.743	30.81
839.916	32.53
840.088	35.3
840.261	36.63
840.434	36.21
840.607	34.53
840.779	33.97
840.952	33.46
841.124	32.18
841.297	32.85
841.47	31.85
841.642	30.27
841.815	29.26
841.987	27.66
842.16	26.02
842.332	26.67
842.505	26.04
842.677	26.75
842.85	29.6
843.022	30.1
843.194	30.09
843.367	34.34
843.539	38.21
843.712	36.15
843.884	36.44
844.056	36.81
844.229	35.63
844.401	36.64
844.573	36.22
844.745	36.54
844.918	37.64
845.09	37.86
845.262	35.51
845.434	33.03
845.606	36.15
845.779	36.53
845.951	38.18
846.123	38.1
846.295	38.12
846.467	38.23
846.639	37.85
846.811	37.2
846.983	38
847.155	36.61
847.327	36.05
847.499	36.39
847.671	37.77
847.843	36.24
848.015	37.74
848.187	37.43
848.359	37.33
848.531	36.45
848.703	37.11
848.875	36.92
849.047	38.38
849.218	42.62
849.39	41.41
849.562	38.26
849.734	37.69
849.905	38
850.077	37.01
850.249	37.53
850.421	38.42
850.592	39.91
850.764	42.12
850.936	41.12
851.107	38.83
851.279	40.1
851.451	41.33
851.622	41.97
851.794	39.73
851.965	42.04
852.137	42.41
852.308	40.56
852.48	38.03
852.651	34.23
852.823	33.86
852.994	33.03
853.166	31.95
853.337	32.48
853.509	32.64
853.68	33.89
853.851	28.86
854.023	26.74
854.194	26.24
854.365	26.88
854.537	31.93
854.708	32.29
854.879	32.27
855.05	34.12
855.222	33.32
855.393	31.47
855.564	32.97
855.735	36.23
855.906	33.14
856.078	33.4
856.249	33.81
856.42	28.98
856.591	29.09
856.762	29.88
856.933	30.79
857.104	31.58
857.275	30.84
857.446	30.29
857.617	31.36
857.788	35.83
857.959	34.11
858.13	33.48
858.301	31.28
858.472	35.35
858.643	35.56
858.814	29.92
858.985	29.55
859.155	32.95
859.326	33.88
859.497	35.44
859.668	35.72
859.839	36.21
860.009	36.48
860.18	37.09
860.351	33.31
860.522	32.93
860.692	35.34
860.863	35.5
861.034	37.04
861.204	38.1
861.375	34.49
861.546	31.63
861.716	37.51
861.887	37.37
862.057	40.22
862.228	42.97
862.398	44.56
862.569	44.53
862.739	46.6
862.91	42.86
863.08	43.1
863.251	40.55
863.421	40.82
863.592	36.54
863.762	35.74
863.932	36.5
864.103	32.68
864.273	29.76
864.443	33
864.614	33.28
864.784	31.62
864.954	31.82
865.125	34.18
865.295	34.43
865.465	36.58
865.635	35.56
865.805	34.2
865.976	38.2
866.146	41.73
866.316	40.85
866.486	36.81
866.656	39.07
866.826	40.13
866.996	40.58
867.166	42.69
867.336	40.09
867.506	41.24
867.676	41.11
867.846	38.55
868.016	35.7
868.186	33.71
868.356	34.93
868.526	35.9
868.696	35.38
868.866	36.44
869.036	39.2
869.206	35.91
869.376	37.78
869.545	33.76
869.715	33.5
869.885	34.21
870.055	35.77
870.224	37.22
870.394	38.17
870.564	34.28
870.734	33.73
870.903	26.76
871.073	33.29
871.243	34.05
871.412	35.13
871.582	39.51
871.751	39.55
871.921	34.3
872.091	32.38
872.26	30.01
872.43	32.3
872.599	32.87
872.769	34.37
872.938	34.13
873.108	31.58
873.277	32.78
873.446	26.57
873.616	28.03
873.785	30.86
873.955	30.65
874.124	30.53
874.293	31.23
874.463	27.81
874.632	24.69
874.801	23.5
874.971	27.11
875.14	29.19
875.309	28.59
875.478	23.8
875.647	27.61
875.817	30.72
875.986	32.47
876.155	33.19
876.324	39.98
876.493	44.02
876.662	42.55
876.831	38.39
877	37.08
877.17	38.81
877.339	40.95
877.508	34.65
877.677	33.6
877.846	29.8
878.015	27.4
878.184	23.07
878.352	19.85
878.521	19.91
878.69	22.38
878.859	21.58
879.028	22.09
879.197	23.69
879.366	23.03
879.534	22.18
879.703	24.64
879.872	24.23
880.041	24.27
880.21	24.65
880.378	25.18
880.547	25.43
880.716	25.84
880.884	25.69
881.053	24.46
881.222	24.95
881.39	24.4
881.559	24.37
881.727	25.2
881.896	24.99
882.065	24.96
882.233	24.92
882.402	24.03
882.57	23.94
882.739	23.55
882.907	24.12
883.076	24.14
883.244	24.52
883.412	24.39
883.581	24.24
883.749	24.47
883.918	24.85
884.086	24.42
884.254	25.12
884.423	25.63
884.591	26.22
884.759	25.89
884.927	26.06
885.096	26.53
885.264	25.77
885.432	25.48
885.6	26.14
885.769	25.44
885.937	27.11
886.105	26.29
886.273	24.32
886.441	24.07
886.609	25.24
886.777	26.3
886.945	27.44
887.113	29.32
887.281	31.58
887.449	31.23
887.617	32.22
887.785	30.88
887.953	32.14
888.121	35.58
888.289	36.84
888.457	37.1
888.625	35.7
888.793	33.15
888.961	33.09
889.129	34.53
889.296	31.57
889.464	32.35
889.632	33.22
889.8	33.72
889.967	32.44
890.135	32.51
