Data from 2938774__Reflection_03.txt Node
Date: Fri Mar 13 14:20:38 EDT 2015
User: robert
Spectrometer: USB4E03002
Autoset integration time: false
Trigger mode: 4
Integration Time (sec): 1.000000E-1
Scans to average: 10
Electric dark correction enabled: false
Nonlinearity correction enabled: false
Boxcar width: 5
Stray light correction enabled: false
XAxis mode: Wavelengths
Stop averaging: false
Number of Pixels in Spectrum: 3648
>>>>>Begin Spectral Data<<<<<
177.575	-392.36
177.794	-816.44
178.014	-2218.52
178.233	1261.19
178.452	2443.24
178.672	582.39
178.891	582.32
179.11	3434.78
179.33	-1034.33
179.549	-350.79
179.768	-1396.67
179.987	549.25
180.207	1322.22
180.426	547.69
180.645	-248.57
180.864	22.58
181.084	42.91
181.303	9.81
181.522	-57.45
181.741	613.33
181.96	105.4
182.179	129.44
182.398	109.13
182.618	113.48
182.837	200.37
183.056	203.74
183.275	179.85
183.494	150.68
183.713	182.08
183.932	206.81
184.151	180.05
184.37	203.45
184.589	210.67
184.808	426.67
185.027	178.6
185.246	160.38
185.465	108.88
185.684	121.04
185.903	86.84
186.122	74.13
186.341	68.81
186.56	76.38
186.779	54.79
186.998	50.71
187.216	81.6
187.435	54.24
187.654	30.11
187.873	38.03
188.092	51.78
188.311	89.02
188.53	43.27
188.748	284.37
188.967	-225
189.186	292.75
189.405	390.65
189.623	203.26
189.842	177.29
190.061	157.93
190.28	254.07
190.498	164.41
190.717	149.1
190.936	180.34
191.154	129.01
191.373	141.85
191.592	143.4
191.81	108.64
192.029	102.47
192.248	114.31
192.466	107.67
192.685	89.76
192.904	108.2
193.122	67.88
193.341	46.95
193.559	101.25
193.778	65.95
193.996	22.39
194.215	356
194.433	72.9
194.652	-12.16
194.87	123.4
195.089	6120
195.307	1042.31
195.526	-260.75
195.744	1110.64
195.963	275.41
196.181	211.16
196.399	166.93
196.618	132.63
196.836	148.83
197.055	192.86
197.273	269.23
197.491	52.94
197.71	18.52
197.928	84.36
198.146	1.69
198.365	110.67
198.583	13.64
198.801	9.17
199.019	7.93
199.238	0.79
199.456	24.15
199.674	22.19
199.892	57.32
200.111	11.36
200.329	37.65
200.547	44.91
200.765	-24.64
200.983	-47.74
201.202	28.97
201.42	-247.92
201.638	473.91
201.856	185.57
202.074	429.27
202.292	181.05
202.51	76.74
202.728	75.32
202.946	108.72
203.165	150.79
203.383	5200
203.601	140.14
203.819	-45.54
204.037	26.74
204.255	76.04
204.473	57.95
204.691	88.4
204.909	85.18
205.127	117.15
205.345	59.47
205.562	13.04
205.78	31.75
205.998	8.61
206.216	32.3
206.434	11.64
206.652	50.52
206.87	59.02
207.088	75.22
207.306	71.75
207.523	62.86
207.741	59.33
207.959	47.68
208.177	42.05
208.395	41.44
208.612	87.11
208.83	115.05
209.048	85.6
209.266	413.33
209.483	670.59
209.701	436
209.919	29.69
210.136	2380
210.354	-350
210.572	-69.4
210.79	225.23
211.007	60
211.225	-35.59
211.442	73.48
211.66	35.74
211.878	69.06
212.095	52.23
212.313	16.93
212.53	3.19
212.748	2.03
212.966	-9.63
213.183	-6.45
213.401	-3
213.618	13.73
213.836	-8.09
214.053	5.07
214.271	8.49
214.488	34.71
214.705	35.53
214.923	29.14
215.14	30.2
215.358	34.82
215.575	29.12
215.793	45.06
216.01	46.46
216.227	40.97
216.445	38.23
216.662	31.71
216.879	21.8
217.097	25.09
217.314	31.33
217.531	43.07
217.749	50.84
217.966	64.21
218.183	51.58
218.4	34.83
218.618	42.21
218.835	37.24
219.052	27.8
219.269	18.28
219.487	29.42
219.704	20.53
219.921	11.93
220.138	19.65
220.355	23.38
220.572	22.51
220.79	21.61
221.007	10.67
221.224	0.69
221.441	5.62
221.658	19.57
221.875	14.7
222.092	12.81
222.309	15.48
222.526	5.59
222.743	-4.51
222.96	-0.29
223.177	6.21
223.394	7.74
223.611	9.19
223.828	21.34
224.045	15.59
224.262	21.59
224.479	26.22
224.696	26.34
224.913	24.33
225.13	26.63
225.347	27.92
225.564	21.55
225.781	24.77
225.997	22.59
226.214	18.14
226.431	15.11
226.648	8.73
226.865	9.26
227.082	7.36
227.298	7.91
227.515	6.5
227.732	5.24
227.949	5.13
228.165	4.47
228.382	5.02
228.599	4.17
228.816	5.08
229.032	4.41
229.249	3.6
229.466	3.97
229.682	3.83
229.899	2.77
230.116	2.31
230.332	2.37
230.549	1.76
230.765	1.62
230.982	1.9
231.199	0.95
231.415	2.77
231.632	3.02
231.848	4.19
232.065	3.1
232.281	5.25
232.498	5.61
232.714	7.41
232.931	8.17
233.147	7.96
233.364	8.63
233.58	8.56
233.797	7.37
234.013	6.59
234.23	5.72
234.446	6.3
234.662	5.58
234.879	5.03
235.095	5.21
235.312	5.94
235.528	4.48
235.744	3.64
235.961	4.7
236.177	5.52
236.393	5.67
236.61	4.07
236.826	4.95
237.042	5.32
237.258	5.6
237.475	4.09
237.691	3.53
237.907	4.37
238.123	4.44
238.339	5.9
238.556	4.38
238.772	5.38
238.988	5.95
239.204	5.62
239.42	5.68
239.636	6.39
239.853	6.47
240.069	6.72
240.285	6.96
240.501	6.94
240.717	6.01
240.933	7.18
241.149	6.93
241.365	6.24
241.581	5.69
241.797	5.51
242.013	5.55
242.229	5.85
242.445	5.24
242.661	5.38
242.877	5.36
243.093	5.21
243.309	4.72
243.525	4.64
243.741	5.5
243.957	5.89
244.173	5.87
244.388	5.7
244.604	5.29
244.82	5.65
245.036	4.95
245.252	4.41
245.468	4.05
245.683	4.42
245.899	3.56
246.115	3.46
246.331	3.16
246.547	3.3
246.762	3.26
246.978	3.27
247.194	3.46
247.409	3.74
247.625	3.63
247.841	3.63
248.057	3.4
248.272	3.65
248.488	3.46
248.703	3.8
248.919	3.71
249.135	3.58
249.35	3.88
249.566	3.69
249.782	2.62
249.997	2.94
250.213	3.35
250.428	3.78
250.644	4.01
250.859	4.14
251.075	4.19
251.29	3.86
251.506	4.31
251.721	3.67
251.937	3.94
252.152	4.48
252.368	4.94
252.583	4.87
252.798	4.68
253.014	4.79
253.229	5.2
253.445	4.65
253.66	5
253.875	4.98
254.091	4.49
254.306	4.21
254.521	4.66
254.737	3.81
254.952	2.97
255.167	2.57
255.383	2.12
255.598	0.68
255.813	1.23
256.028	1.78
256.244	0.73
256.459	1.69
256.674	0.79
256.889	0.81
257.104	0.92
257.32	1.87
257.535	2.05
257.75	2.1
257.965	1.99
258.18	1.97
258.395	1.91
258.61	2.69
258.826	2.54
259.041	2.84
259.256	2.94
259.471	2.77
259.686	2.67
259.901	2.73
260.116	2.73
260.331	3.12
260.546	3.11
260.761	3.11
260.976	2.63
261.191	2.73
261.406	2.44
261.621	2.4
261.836	2.63
262.05	1.74
262.265	1.56
262.48	1.4
262.695	1.08
262.91	0.49
263.125	0.1
263.34	0.22
263.555	-0.14
263.769	0.14
263.984	-0.73
264.199	-1.32
264.414	-0.47
264.629	-0.44
264.843	-0.28
265.058	-0.09
265.273	0.23
265.488	0.74
265.702	1.47
265.917	2.09
266.132	1.85
266.346	2.46
266.561	3.25
266.776	3.6
266.99	3.46
267.205	3.87
267.42	3.77
267.634	3.82
267.849	3.87
268.063	3.81
268.278	3.59
268.492	3.88
268.707	3.82
268.922	3.12
269.136	3.36
269.351	3.35
269.565	3.39
269.78	3.34
269.994	3.37
270.209	2.67
270.423	2.52
270.637	2.32
270.852	2.26
271.066	2.32
271.281	2.45
271.495	2.09
271.709	2.13
271.924	1.72
272.138	1.46
272.353	1.42
272.567	1.68
272.781	1.37
272.996	1.57
273.21	1.94
273.424	2.02
273.638	2.02
273.853	1.94
274.067	2.09
274.281	2.26
274.495	2.35
274.71	2.62
274.924	3.01
275.138	3.34
275.352	3.09
275.566	2.62
275.781	2.27
275.995	2.34
276.209	2.59
276.423	2.02
276.637	1.61
276.851	2.03
277.065	1.86
277.279	1.7
277.493	1.69
277.707	2.01
277.921	2.08
278.135	2.21
278.349	2.19
278.563	2.39
278.777	2.79
278.991	3.36
279.205	3.59
279.419	3.14
279.633	2.81
279.847	2.86
280.061	2.36
280.275	2.29
280.489	2.44
280.703	2.3
280.917	2.02
281.131	1.79
281.344	1.34
281.558	0.78
281.772	1.12
281.986	1.31
282.2	1.47
282.414	1.73
282.627	2.06
282.841	1.83
283.055	1.9
283.269	1.76
283.482	1.72
283.696	1.87
283.91	1.99
284.123	2.06
284.337	2.28
284.551	1.99
284.764	1.79
284.978	1.51
285.192	1.81
285.405	1.83
285.619	1.87
285.833	1.97
286.046	1.67
286.26	1.7
286.473	1.75
286.687	1.35
286.9	1.45
287.114	1.5
287.327	1.55
287.541	1.53
287.754	1.71
287.968	1.89
288.181	1.99
288.395	2.51
288.608	2.72
288.822	2.73
289.035	2.7
289.248	2.57
289.462	2.7
289.675	2.76
289.889	2.68
290.102	2.56
290.315	2.38
290.529	2.57
290.742	2.45
290.955	2.2
291.169	2.41
291.382	2.82
291.595	2.88
291.808	3.19
292.022	3.13
292.235	2.8
292.448	2.76
292.661	3.06
292.875	2.58
293.088	2.65
293.301	2.69
293.514	2.52
293.727	2.52
293.94	2.63
294.153	2.43
294.367	2.15
294.58	2.38
294.793	2.12
295.006	2.08
295.219	2.17
295.432	2.05
295.645	2.24
295.858	2.09
296.071	1.97
296.284	1.98
296.497	1.96
296.71	2.43
296.923	2.67
297.136	2.78
297.349	2.78
297.562	2.98
297.775	3.23
297.988	3.16
298.201	3.38
298.414	3.58
298.626	3.69
298.839	3.85
299.052	3.73
299.265	3.41
299.478	3.71
299.691	3.54
299.903	3.54
300.116	3.4
300.329	3.91
300.542	3.93
300.755	3.82
300.967	3.86
301.18	3.73
301.393	3.78
301.605	4.01
301.818	4.04
302.031	4.51
302.243	4.48
302.456	4.34
302.669	3.91
302.881	3.87
303.094	3.74
303.307	3.75
303.519	3.75
303.732	3.87
303.944	3.49
304.157	3.4
304.37	3.29
304.582	3.27
304.795	3.22
305.007	3.8
305.22	3.64
305.432	3.79
305.645	3.51
305.857	3.91
306.069	3.75
306.282	3.98
306.494	4.18
306.707	3.88
306.919	3.77
307.132	4.04
307.344	3.92
307.556	4.22
307.769	4.33
307.981	4.6
308.193	4.15
308.406	4.36
308.618	4.44
308.83	4.15
309.043	4.46
309.255	4.69
309.467	4.58
309.679	4.17
309.892	4.01
310.104	4.22
310.316	3.93
310.528	4.06
310.74	4.06
310.953	4.03
311.165	4.08
311.377	3.81
311.589	3.97
311.801	3.97
312.013	4.11
312.225	4.11
312.437	4.08
312.649	4.25
312.862	4.21
313.074	3.95
313.286	4.2
313.498	4.15
313.71	4.6
313.922	4.72
314.134	5.05
314.346	4.85
314.558	5.45
314.77	5.64
314.982	6.12
315.193	6.06
315.405	6.57
315.617	6.64
315.829	6.86
316.041	6.76
316.253	6.22
316.465	6.59
316.677	6.97
316.888	7.05
317.1	6.53
317.312	6.42
317.524	6.58
317.736	6.48
317.947	6.4
318.159	6.86
318.371	6.85
318.583	7.34
318.794	7.1
319.006	6.94
319.218	6.46
319.43	6.63
319.641	6.73
319.853	7.21
320.064	6.94
320.276	7.42
320.488	6.96
320.699	7.45
320.911	7.26
321.123	7.12
321.334	7.17
321.546	7.08
321.757	6.84
321.969	6.35
322.18	6.2
322.392	6.79
322.603	6.54
322.815	6.93
323.026	6.83
323.238	6.93
323.449	6.66
323.661	6.81
323.872	7.24
324.083	7.52
324.295	8.04
324.506	8.05
324.718	7.9
324.929	7.96
325.14	7.8
325.352	8.07
325.563	8.4
325.774	8.81
325.986	9.09
326.197	9.31
326.408	10.18
326.62	10.3
326.831	10.38
327.042	10.99
327.253	11.18
327.464	11.79
327.676	11.86
327.887	12.23
328.098	12.63
328.309	12.94
328.52	13.32
328.732	13.26
328.943	13.7
329.154	13.94
329.365	13.93
329.576	13.91
329.787	14.14
329.998	14.21
330.209	14.59
330.42	15.11
330.631	15.45
330.842	15.07
331.053	15.66
331.264	15.54
331.475	15.7
331.686	15.79
331.897	16.25
332.108	16.26
332.319	16.89
332.53	16.58
332.741	16.51
332.952	16.4
333.163	16.69
333.374	16.02
333.585	16.16
333.795	16.59
334.006	16.59
334.217	16.93
334.428	17.07
334.639	17.14
334.849	17.03
335.06	16.89
335.271	17.19
335.482	17.33
335.692	17.71
335.903	17.91
336.114	18.15
336.325	18.02
336.535	17.67
336.746	17.73
336.957	17.44
337.167	17.61
337.378	17.87
337.589	17.47
337.799	17.28
338.01	17.18
338.22	17.22
338.431	16.72
338.642	16.66
338.852	16.94
339.063	16.97
339.273	17.3
339.484	17.5
339.694	17.23
339.905	17.59
340.115	17.81
340.326	17.78
340.536	17.95
340.746	18.19
340.957	18.64
341.167	18.65
341.378	18.64
341.588	18.21
341.799	18
342.009	17.88
342.219	17.62
342.43	17.38
342.64	17.54
342.85	17.27
343.061	17.22
343.271	16.91
343.481	16.6
343.691	16.41
343.902	16.88
344.112	17.13
344.322	17.05
344.532	17.21
344.743	17.41
344.953	17.22
345.163	17.19
345.373	17.12
345.583	17.22
345.793	17.29
346.004	17.28
346.214	16.67
346.424	16.49
346.634	16.93
346.844	16.92
347.054	16.82
347.264	17.18
347.474	17.16
347.684	17.12
347.894	17.14
348.104	17.35
348.314	17.28
348.524	17.45
348.734	17.47
348.944	17.26
349.154	17.66
349.364	17.56
349.574	17.18
349.784	17.34
349.994	17.44
350.204	17.51
350.413	17.41
350.623	17.5
350.833	17.19
351.043	17.19
351.253	17.25
351.463	16.85
351.672	16.8
351.882	17.06
352.092	17.17
352.302	17.14
352.511	17.24
352.721	17.16
352.931	17.25
353.141	17.4
353.35	17.48
353.56	17.49
353.77	17.12
353.979	17.09
354.189	16.85
354.399	16.64
354.608	16.59
354.818	16.21
355.027	16.07
355.237	16.28
355.447	16.42
355.656	16.1
355.866	15.92
356.075	16.18
356.285	16.29
356.494	16.38
356.704	16.33
356.913	16.51
357.123	16.65
357.332	16.74
357.542	16.75
357.751	16.69
357.96	16.79
358.17	16.76
358.379	16.85
358.589	16.88
358.798	16.81
359.007	16.79
359.217	16.77
359.426	16.78
359.635	16.74
359.845	16.34
360.054	16.31
360.263	16.36
360.472	16.44
360.682	16.46
360.891	16.47
361.1	16.52
361.309	16.58
361.519	16.42
361.728	16.28
361.937	16.39
362.146	16.49
362.355	16.57
362.564	16.45
362.774	16.4
362.983	16.27
363.192	16.24
363.401	16.1
363.61	16.12
363.819	16.02
364.028	16.1
364.237	15.91
364.446	15.88
364.655	15.85
364.864	16.17
365.073	16.29
365.282	16.41
365.491	16.17
365.7	16.4
365.909	16.42
366.118	16.7
366.327	16.51
366.536	16.63
366.745	16.49
366.954	16.47
367.162	16.15
367.371	16
367.58	15.9
367.789	16.06
367.998	15.74
368.207	15.34
368.415	15.14
368.624	15.42
368.833	15.36
369.042	15.49
369.25	15.45
369.459	15.49
369.668	15.49
369.877	15.39
370.085	15.41
370.294	15.6
370.503	15.72
370.711	15.66
370.92	15.5
371.129	15.48
371.337	15.31
371.546	15.16
371.754	15.29
371.963	15.14
372.171	15.33
372.38	15.34
372.589	15.26
372.797	15.37
373.006	15.1
373.214	14.97
373.423	14.72
373.631	14.66
373.84	14.67
374.048	14.71
374.256	14.85
374.465	14.74
374.673	14.54
374.882	14.41
375.09	14.13
375.298	14.69
375.507	14.73
375.715	14.64
375.923	14.63
376.132	14.81
376.34	14.54
376.548	14.6
376.757	14.5
376.965	14.47
377.173	14.36
377.381	14.67
377.59	14.37
377.798	14.41
378.006	14.4
378.214	14.36
378.423	14.07
378.631	14.18
378.839	13.83
379.047	13.86
379.255	13.74
379.463	13.88
379.671	13.73
379.879	13.79
380.088	13.63
380.296	13.59
380.504	13.58
380.712	13.65
380.92	13.53
381.128	13.73
381.336	13.41
381.544	13.63
381.752	13.35
381.96	13.25
382.168	13.32
382.376	13.53
382.584	13.85
382.791	13.96
382.999	14
383.207	14.01
383.415	13.98
383.623	13.87
383.831	13.67
384.039	14.01
384.247	13.86
384.454	13.66
384.662	13.45
384.87	13.1
385.078	13
385.285	12.95
385.493	12.76
385.701	12.54
385.909	12.7
386.116	12.85
386.324	12.53
386.532	12.62
386.739	12.51
386.947	12.71
387.155	12.91
387.362	12.87
387.57	12.91
387.778	13.19
387.985	13.37
388.193	13.53
388.4	13.51
388.608	13.78
388.816	13.77
389.023	13.87
389.231	13.75
389.438	13.55
389.646	13.61
389.853	13.44
390.061	13.21
390.268	12.94
390.475	12.6
390.683	12.3
390.89	12.12
391.098	12.16
391.305	12.21
391.512	11.89
391.72	11.99
391.927	11.87
392.135	11.83
392.342	11.78
392.549	11.94
392.756	12
392.964	12.1
393.171	12
393.378	11.72
393.586	11.6
393.793	11.69
394	11.72
394.207	11.74
394.414	11.76
394.622	11.67
394.829	11.6
395.036	11.63
395.243	11.55
395.45	11.64
395.657	11.78
395.864	11.65
396.072	11.61
396.279	11.5
396.486	11.31
396.693	11.42
396.9	11.59
397.107	11.57
397.314	11.63
397.521	11.7
397.728	11.55
397.935	11.59
398.142	11.57
398.349	11.48
398.556	11.33
398.763	11.26
398.97	11.01
399.177	10.68
399.383	10.64
399.59	10.58
399.797	10.54
400.004	10.46
400.211	10.46
400.418	10.37
400.625	10.5
400.831	10.6
401.038	10.85
401.245	11.02
401.452	11.21
401.658	11.05
401.865	10.89
402.072	10.87
402.279	10.92
402.485	10.87
402.692	11.1
402.899	11.28
403.105	11.51
403.312	11.5
403.519	11.53
403.725	11.62
403.932	11.93
404.138	12.16
404.345	12.24
404.552	12.23
404.758	12.18
404.965	11.93
405.171	11.76
405.378	11.46
405.584	11.27
405.791	11.19
405.997	11.07
406.204	10.86
406.41	10.72
406.617	10.67
406.823	10.76
407.029	10.68
407.236	10.64
407.442	10.57
407.649	10.6
407.855	10.66
408.061	10.46
408.268	10.22
408.474	10.26
408.68	10.11
408.887	10.1
409.093	9.97
409.299	9.89
409.505	9.82
409.712	9.81
409.918	9.78
410.124	9.77
410.33	10.02
410.537	10.17
410.743	10.11
410.949	10.07
411.155	10.05
411.361	10.14
411.567	10.3
411.773	10.37
411.98	10.36
412.186	10.38
412.392	10.45
412.598	10.33
412.804	10.25
413.01	10.16
413.216	10.26
413.422	10.08
413.628	10.07
413.834	10.07
414.04	10.12
414.246	10.09
414.452	10.11
414.658	10.12
414.864	10.07
415.07	10.15
415.275	10.07
415.481	10.03
415.687	10.02
415.893	9.85
416.099	9.68
416.305	9.64
416.511	9.57
416.716	9.45
416.922	9.31
417.128	9.24
417.334	9.21
417.539	9.19
417.745	9.15
417.951	9.17
418.157	9.21
418.362	9.22
418.568	9.33
418.774	9.27
418.979	9.36
419.185	9.37
419.391	9.32
419.596	9.35
419.802	9.39
420.008	9.36
420.213	9.38
420.419	9.31
420.624	9.29
420.83	9.15
421.035	9.2
421.241	9.13
421.446	9.15
421.652	9.19
421.857	9.07
422.063	9.09
422.268	9.13
422.474	9.12
422.679	9.12
422.885	9.1
423.09	9.09
423.295	9.05
423.501	9.06
423.706	8.98
423.911	8.95
424.117	8.98
424.322	8.94
424.527	8.88
424.733	8.89
424.938	8.87
425.143	8.88
425.349	8.93
425.554	8.95
425.759	8.89
425.964	8.91
426.169	8.9
426.375	8.91
426.58	8.87
426.785	8.77
426.99	8.71
427.195	8.75
427.4	8.74
427.605	8.75
427.811	8.79
428.016	8.75
428.221	8.72
428.426	8.74
428.631	8.73
428.836	8.68
429.041	8.68
429.246	8.58
429.451	8.6
429.656	8.47
429.861	8.48
430.066	8.39
430.271	8.39
430.476	8.42
430.681	8.36
430.886	8.3
431.09	8.38
431.295	8.56
431.5	8.69
431.705	8.58
431.91	8.67
432.115	8.53
432.32	8.6
432.524	8.64
432.729	8.71
432.934	8.72
433.139	8.73
433.343	8.79
433.548	8.86
433.753	9.03
433.958	9.32
434.162	9.55
434.367	9.88
434.572	10.09
434.776	10.27
434.981	10.41
435.186	10.77
435.39	11.04
435.595	11.15
435.799	11.13
436.004	11.01
436.209	10.92
436.413	10.92
436.618	10.75
436.822	10.5
437.027	10.31
437.231	10.09
437.436	9.77
437.64	9.56
437.845	9.41
438.049	9.34
438.253	9.2
438.458	9
438.662	8.79
438.867	8.73
439.071	8.7
439.275	8.78
439.48	8.76
439.684	8.78
439.888	8.7
440.093	8.72
440.297	8.65
440.501	8.62
440.706	8.69
440.91	8.72
441.114	8.67
441.318	8.66
441.523	8.58
441.727	8.59
441.931	8.49
442.135	8.54
442.339	8.54
442.543	8.54
442.748	8.56
442.952	8.46
443.156	8.45
443.36	8.45
443.564	8.48
443.768	8.51
443.972	8.42
444.176	8.51
444.38	8.46
444.584	8.44
444.788	8.49
444.992	8.51
445.196	8.49
445.4	8.49
445.604	8.47
445.808	8.44
446.012	8.4
446.216	8.51
446.42	8.46
446.624	8.43
446.828	8.4
447.032	8.4
447.235	8.45
447.439	8.45
447.643	8.45
447.847	8.48
448.051	8.42
448.254	8.38
448.458	8.27
448.662	8.28
448.866	8.35
449.069	8.36
449.273	8.26
449.477	8.18
449.681	8.18
449.884	8.15
450.088	8.2
450.292	8.27
450.495	8.36
450.699	8.46
450.902	8.42
451.106	8.27
451.31	8.33
451.513	8.38
451.717	8.3
451.92	8.31
452.124	8.24
452.327	8.17
452.531	8.25
452.734	8.26
452.938	8.21
453.141	8.2
453.345	8.3
453.548	8.23
453.752	8.22
453.955	8.27
454.158	8.25
454.362	8.36
454.565	8.36
454.769	8.28
454.972	8.29
455.175	8.31
455.379	8.34
455.582	8.45
455.785	8.43
455.988	8.38
456.192	8.4
456.395	8.41
456.598	8.4
456.801	8.31
457.005	8.32
457.208	8.23
457.411	8.19
457.614	8.15
457.817	8
458.021	7.97
458.224	8.13
458.427	8.18
458.63	8.17
458.833	8.15
459.036	8.09
459.239	8.12
459.442	8.11
459.645	8.12
459.848	8.07
460.051	8.14
460.254	8.14
460.457	8.09
460.66	8.04
460.863	8.02
461.066	8.02
461.269	8.12
461.472	8.11
461.675	8.16
461.878	8.18
462.081	8.28
462.284	8.32
462.486	8.31
462.689	8.39
462.892	8.39
463.095	8.42
463.298	8.43
463.5	8.44
463.703	8.47
463.906	8.51
464.109	8.47
464.311	8.45
464.514	8.44
464.717	8.46
464.92	8.42
465.122	8.42
465.325	8.46
465.528	8.5
465.73	8.45
465.933	8.43
466.135	8.48
466.338	8.63
466.541	8.67
466.743	8.65
466.946	8.69
467.148	8.73
467.351	8.78
467.553	8.92
467.756	8.91
467.958	8.92
468.161	8.97
468.363	8.94
468.566	8.84
468.768	8.84
468.971	8.83
469.173	8.88
469.375	8.92
469.578	9.03
469.78	8.89
469.983	8.88
470.185	8.98
470.387	8.98
470.59	8.94
470.792	9.03
470.994	9
471.196	9.03
471.399	9.08
471.601	9
471.803	8.88
472.005	8.94
472.208	8.92
472.41	8.89
472.612	8.92
472.814	8.91
473.016	8.86
473.218	8.86
473.421	8.88
473.623	8.84
473.825	8.82
474.027	8.97
474.229	9.05
474.431	9.09
474.633	9.1
474.835	9.12
475.037	9.25
475.239	9.37
475.441	9.4
475.643	9.42
475.845	9.35
476.047	9.33
476.249	9.33
476.451	9.32
476.653	9.32
476.855	9.32
477.057	9.26
477.258	9.19
477.46	9.1
477.662	9.1
477.864	9.1
478.066	9.08
478.268	9.18
478.469	9.13
478.671	9.03
478.873	9.11
479.075	9.08
479.276	9.12
479.478	9.15
479.68	9.17
479.882	9.2
480.083	9.24
480.285	9.35
480.487	9.34
480.688	9.26
480.89	9.38
481.091	9.28
481.293	9.33
481.495	9.31
481.696	9.22
481.898	9.19
482.099	9.13
482.301	9.1
482.502	9.02
482.704	8.98
482.905	8.98
483.107	8.88
483.308	8.82
483.51	8.77
483.711	8.76
483.913	8.74
484.114	8.72
484.315	8.72
484.517	8.68
484.718	8.67
484.92	8.69
485.121	8.68
485.322	8.74
485.524	8.81
485.725	8.82
485.926	8.87
486.127	8.91
486.329	8.95
486.53	8.95
486.731	9.01
486.932	9.03
487.134	9.01
487.335	9.03
487.536	9.02
487.737	9
487.938	9
488.139	9.05
488.341	9.04
488.542	9.03
488.743	9.09
488.944	9.1
489.145	9.15
489.346	9.19
489.547	9.24
489.748	9.26
489.949	9.28
490.15	9.29
490.351	9.2
490.552	9.23
490.753	9.28
490.954	9.24
491.155	9.19
491.356	9.13
491.557	9.11
491.758	9.06
491.959	9.05
492.159	9.1
492.36	9.15
492.561	9.21
492.762	9.22
492.963	9.23
493.164	9.29
493.364	9.3
493.565	9.39
493.766	9.45
493.967	9.54
494.167	9.57
494.368	9.6
494.569	9.64
494.769	9.72
494.97	9.8
495.171	9.83
495.371	9.78
495.572	9.92
495.773	9.93
495.973	9.93
496.174	9.94
496.375	10.03
496.575	10.06
496.776	10.07
496.976	10.05
497.177	9.99
497.377	10.04
497.578	10.15
497.778	10.18
497.979	10.17
498.179	10.27
498.38	10.23
498.58	10.23
498.78	10.23
498.981	10.29
499.181	10.24
499.382	10.27
499.582	10.21
499.782	10.25
499.983	10.14
500.183	10.22
500.383	10.22
500.584	10.34
500.784	10.37
500.984	10.39
501.184	10.48
501.385	10.48
501.585	10.53
501.785	10.59
501.985	10.58
502.185	10.76
502.386	10.86
502.586	10.84
502.786	10.85
502.986	10.92
503.186	11
503.386	10.9
503.586	11.09
503.786	11.26
503.987	11.34
504.187	11.38
504.387	11.34
504.587	11.35
504.787	11.42
504.987	11.5
505.187	11.6
505.387	11.65
505.587	11.79
505.786	11.81
505.986	11.74
506.186	11.81
506.386	11.89
506.586	12.04
506.786	12.05
506.986	12.17
507.186	12.15
507.386	12.14
507.585	12.17
507.785	12.17
507.985	12.24
508.185	12.32
508.384	12.28
508.584	12.24
508.784	12.25
508.984	12.36
509.183	12.27
509.383	12.44
509.583	12.5
509.782	12.53
509.982	12.72
510.182	12.79
510.381	12.96
510.581	13.12
510.781	13.23
510.98	13.25
511.18	13.33
511.379	13.47
511.579	13.54
511.778	13.64
511.978	13.69
512.177	13.66
512.377	13.72
512.576	13.75
512.776	13.81
512.975	13.91
513.175	14.1
513.374	14.1
513.573	14.19
513.773	14.22
513.972	14.3
514.172	14.48
514.371	14.69
514.57	14.73
514.77	14.73
514.969	14.84
515.168	14.98
515.367	14.95
515.567	15.18
515.766	15.23
515.965	15.35
516.164	15.44
516.364	15.46
516.563	15.43
516.762	15.48
516.961	15.58
517.16	15.63
517.359	15.67
517.559	15.79
517.758	15.77
517.957	15.83
518.156	15.87
518.355	15.84
518.554	15.94
518.753	16.03
518.952	16.14
519.151	16.21
519.35	16.27
519.549	16.33
519.748	16.36
519.947	16.42
520.146	16.58
520.345	16.61
520.544	16.81
520.743	16.87
520.942	17.01
521.141	17.12
521.339	17.25
521.538	17.36
521.737	17.48
521.936	17.59
522.135	17.76
522.333	17.84
522.532	17.95
522.731	17.99
522.93	18.06
523.129	18.05
523.327	18.14
523.526	18.19
523.725	18.23
523.923	18.35
524.122	18.45
524.321	18.49
524.519	18.51
524.718	18.56
524.917	18.63
525.115	18.65
525.314	18.71
525.512	18.72
525.711	18.77
525.909	18.8
526.108	18.84
526.306	18.83
526.505	18.89
526.703	18.92
526.902	18.92
527.1	18.92
527.299	18.99
527.497	18.96
527.696	18.96
527.894	18.95
528.092	18.91
528.291	18.91
528.489	18.88
528.688	18.87
528.886	18.89
529.084	18.94
529.283	18.96
529.481	18.98
529.679	19.06
529.877	19.13
530.076	19.16
530.274	19.3
530.472	19.36
530.67	19.54
530.869	19.67
531.067	19.77
531.265	19.88
531.463	19.99
531.661	20.14
531.859	20.22
532.057	20.29
532.255	20.43
532.454	20.52
532.652	20.63
532.85	20.69
533.048	20.75
533.246	20.83
533.444	20.86
533.642	20.92
533.84	20.91
534.038	21.01
534.236	21.07
534.434	21.14
534.632	21.19
534.83	21.21
535.027	21.25
535.225	21.36
535.423	21.49
535.621	21.67
535.819	21.8
536.017	21.93
536.215	22.05
536.412	22.23
536.61	22.33
536.808	22.49
537.006	22.68
537.203	22.95
537.401	23.1
537.599	23.34
537.797	23.57
537.994	23.88
538.192	24.27
538.39	24.62
538.587	24.98
538.785	25.42
538.983	25.87
539.18	26.26
539.378	26.52
539.575	26.9
539.773	27.17
539.97	27.37
540.168	27.61
540.366	27.79
540.563	27.89
540.761	28.07
540.958	28.24
541.155	28.31
541.353	28.44
541.55	28.59
541.748	28.68
541.945	28.82
542.143	29.06
542.34	29.22
542.537	29.4
542.735	29.64
542.932	29.85
543.129	30.15
543.327	30.67
543.524	31.23
543.721	31.99
543.919	32.95
544.116	33.88
544.313	34.83
544.51	35.85
544.708	36.85
544.905	37.92
545.102	38.86
545.299	39.66
545.496	40.15
545.693	40.49
545.891	40.43
546.088	40.13
546.285	39.77
546.482	39.3
546.679	38.71
546.876	38.15
547.073	37.54
547.27	36.89
547.467	36.32
547.664	35.84
547.861	35.28
548.058	34.93
548.255	34.59
548.452	34.34
548.649	34.09
548.846	33.87
549.043	33.56
549.24	33.32
549.437	33.13
549.633	32.87
549.83	32.64
550.027	32.41
550.224	32.24
550.421	31.98
550.618	31.62
550.814	31.38
551.011	31.07
551.208	30.95
551.405	30.54
551.601	30.31
551.798	30.08
551.995	29.68
552.191	29.42
552.388	29.16
552.585	29.05
552.781	28.92
552.978	28.7
553.175	28.65
553.371	28.44
553.568	28.45
553.764	28.41
553.961	28.34
554.157	28.4
554.354	28.54
554.55	28.49
554.747	28.38
554.943	28.25
555.14	28.24
555.336	28.13
555.533	28.24
555.729	28.19
555.926	28.16
556.122	28.13
556.318	28.06
556.515	27.95
556.711	27.95
556.907	28.03
557.104	28.18
557.3	28.25
557.496	28.11
557.693	27.96
557.889	28.03
558.085	27.96
558.281	27.86
558.478	27.92
558.674	27.93
558.87	27.89
559.066	27.89
559.262	27.85
559.459	27.76
559.655	27.89
559.851	27.98
560.047	28.15
560.243	28.31
560.439	28.39
560.635	28.41
560.831	28.42
561.027	28.52
561.223	28.54
561.419	28.5
561.615	28.61
561.811	28.73
562.007	28.73
562.203	28.66
562.399	28.59
562.595	28.69
562.791	28.72
562.987	28.76
563.183	28.79
563.379	28.93
563.575	28.93
563.771	28.93
563.966	28.86
564.162	28.97
564.358	28.79
564.554	28.65
564.75	28.66
564.945	28.61
565.141	28.5
565.337	28.39
565.533	28.35
565.728	28.41
565.924	28.41
566.12	28.45
566.315	28.37
566.511	28.53
566.707	28.72
566.902	28.72
567.098	28.73
567.293	28.74
567.489	28.9
567.684	28.8
567.88	28.85
568.076	28.86
568.271	29.04
568.467	29.09
568.662	29.04
568.858	28.99
569.053	28.99
569.248	29.02
569.444	29.11
569.639	29.08
569.835	29.22
570.03	29.27
570.225	29.28
570.421	29.11
570.616	28.99
570.812	29.02
571.007	29.01
571.202	29.02
571.397	28.92
571.593	28.93
571.788	28.93
571.983	28.97
572.178	29.02
572.374	29.08
572.569	29.09
572.764	29.15
572.959	29.14
573.154	29.15
573.35	29.18
573.545	29.37
573.74	29.39
573.935	29.38
574.13	29.41
574.325	29.42
574.52	29.59
574.715	29.87
574.91	30.11
575.105	30.46
575.3	30.86
575.495	31.23
575.69	31.62
575.885	32.14
576.08	32.68
576.275	33.18
576.47	33.78
576.665	34.24
576.86	34.66
577.055	35.16
577.25	35.53
577.444	35.91
577.639	36.23
577.834	36.6
578.029	36.94
578.224	37.32
578.418	37.52
578.613	37.6
578.808	37.66
579.003	37.78
579.197	37.84
579.392	37.94
579.587	37.96
579.781	38.07
579.976	38.09
580.171	38.07
580.365	37.79
580.56	37.88
580.755	37.81
580.949	37.81
581.144	37.88
581.338	38.18
581.533	38.29
581.727	38.51
581.922	38.44
582.116	38.46
582.311	38.56
582.505	38.86
582.7	38.78
582.894	38.94
583.089	39.14
583.283	39.17
583.478	39.16
583.672	39.17
583.866	39.14
584.061	39.49
584.255	39.63
584.449	39.73
584.644	40.03
584.838	40.53
585.032	40.91
585.226	41.14
585.421	41.39
585.615	41.59
585.809	42.01
586.003	42.32
586.198	42.47
586.392	42.7
586.586	42.92
586.78	42.83
586.974	42.43
587.168	42.11
587.363	41.8
587.557	41.55
587.751	41.17
587.945	40.58
588.139	40.16
588.333	39.66
588.527	39.3
588.721	38.73
588.915	38.4
589.109	38.16
589.303	37.94
589.497	37.98
589.691	37.78
589.885	37.62
590.079	37.72
590.273	37.79
590.466	37.91
590.66	38.14
590.854	38.44
591.048	38.73
591.242	39.2
591.436	39.66
591.629	39.98
591.823	40.43
592.017	40.96
592.211	41.3
592.404	41.54
592.598	41.57
592.792	41.54
592.986	41.45
593.179	41.32
593.373	41.11
593.567	40.72
593.76	40.2
593.954	39.8
594.147	39.37
594.341	38.87
594.535	38.44
594.728	38.24
594.922	37.73
595.115	37.35
595.309	36.81
595.502	36.31
595.696	36.03
595.889	35.8
596.083	35.69
596.276	35.36
596.47	35.24
596.663	35.18
596.856	35.03
597.05	35.11
597.243	35.32
597.437	35.55
597.63	35.95
597.823	36.31
598.017	36.75
598.21	37.11
598.403	37.68
598.596	38.14
598.79	38.62
598.983	39.11
599.176	39.44
599.369	39.59
599.563	39.77
599.756	39.93
599.949	39.92
600.142	39.73
600.335	39.6
600.528	39.61
600.722	39.42
600.915	38.98
601.108	38.69
601.301	38.49
601.494	38.08
601.687	37.9
601.88	37.51
602.073	37.34
602.266	37.18
602.459	36.86
602.652	36.35
602.845	36.07
603.038	36.03
603.231	35.76
603.424	35.5
603.617	35.43
603.809	35.37
604.002	35.31
604.195	35.14
604.388	35.07
604.581	35.02
604.774	35.14
604.966	35.2
605.159	35.27
605.352	35.5
605.545	35.82
605.737	36.16
605.93	36.47
606.123	36.82
606.316	37.41
606.508	38.08
606.701	38.67
606.894	39.33
607.086	40.12
607.279	40.81
607.471	41.67
607.664	42.48
607.857	43.55
608.049	44.96
608.242	46.7
608.434	48.81
608.627	51.49
608.819	54.84
609.012	58.64
609.204	63
609.397	67.62
609.589	72.62
609.782	78.16
609.974	83.58
610.166	89.24
610.359	94.81
610.551	99.99
610.743	104.5
610.936	108.31
611.128	111.08
611.32	113.04
611.513	114.15
611.705	114.65
611.897	113.99
612.09	112.82
612.282	110.99
612.474	108.32
612.666	105.38
612.858	102.54
613.051	99.8
613.243	96.92
613.435	93.92
613.627	91.24
613.819	88.53
614.011	86.23
614.203	83.85
614.395	81.44
614.588	78.83
614.78	76.44
614.972	73.95
615.164	71.29
615.356	68.87
615.548	66.51
615.74	64.61
615.932	62.66
616.124	60.45
616.315	58.54
616.507	56.63
616.699	55.15
616.891	53.92
617.083	52.49
617.275	51.51
617.467	50.71
617.659	50.14
617.85	49.14
618.042	48.46
618.234	48.16
618.426	47.9
618.618	47.68
618.809	47.47
619.001	47.27
619.193	47.21
619.384	47.07
619.576	46.69
619.768	46.56
619.959	46.64
620.151	46.47
620.343	46.38
620.534	46.43
620.726	46.3
620.917	46.45
621.109	46.72
621.301	46.82
621.492	46.87
621.684	47.27
621.875	47.45
622.067	47.57
622.258	47.96
622.45	48.16
622.641	47.94
622.832	48.4
623.024	48.42
623.215	48.43
623.407	48.51
623.598	48.7
623.789	48.65
623.981	48.57
624.172	48.45
624.363	48.52
624.555	48.17
624.746	48.24
624.937	47.85
625.129	47.64
625.32	47.28
625.511	46.99
625.702	46.68
625.893	46.53
626.085	46.26
626.276	46.16
626.467	45.64
626.658	45.61
626.849	45.32
627.04	45.13
627.231	45.13
627.422	45.22
627.614	45.39
627.805	45.62
627.996	45.83
628.187	46.42
628.378	46.92
628.569	47.67
628.76	48.46
628.951	49.27
629.142	50.24
629.332	51.21
629.523	51.92
629.714	52.54
629.905	53.18
630.096	53.88
630.287	54.26
630.478	54.4
630.669	54.34
630.859	54.1
631.05	53.78
631.241	53.3
631.432	52.32
631.623	51.61
631.813	50.85
632.004	49.86
632.195	48.85
632.385	47.73
632.576	47.04
632.767	46.23
632.957	45.33
633.148	44.72
633.339	43.92
633.529	43.43
633.72	43.03
633.91	42.47
634.101	41.9
634.292	41.39
634.482	41.19
634.673	40.73
634.863	40.58
635.054	40.42
635.244	40.26
635.435	40.38
635.625	40.39
635.815	40.17
636.006	40.17
636.196	40.29
636.387	40.43
636.577	40.24
636.767	40.25
636.958	40.18
637.148	40.24
637.338	40.37
637.529	40.33
637.719	40.49
637.909	40.64
638.099	40.73
638.29	40.87
638.48	40.84
638.67	41.08
638.86	41.33
639.05	41.45
639.241	41.58
639.431	41.58
639.621	41.67
639.811	41.46
640.001	41.69
640.191	41.78
640.381	42.08
640.571	42.27
640.761	42.38
640.951	42.21
641.141	42.39
641.331	42.36
641.521	42.29
641.711	42.52
641.901	42.73
642.091	42.55
642.281	42.63
642.471	42.58
642.661	42.52
642.851	42.54
643.041	42.75
643.231	42.82
643.42	42.82
643.61	42.67
643.8	42.4
643.99	42.44
644.18	42.48
644.369	42.51
644.559	42.3
644.749	42.33
644.939	42.27
645.128	42.21
645.318	42.08
645.508	42.08
645.697	42.45
645.887	42.29
646.076	42.48
646.266	42.37
646.456	42.35
646.645	42.42
646.835	42.37
647.024	42.25
647.214	42.11
647.403	42.21
647.593	42.14
647.782	42.01
647.972	42.43
648.161	42.37
648.351	42.58
648.54	42.96
648.73	43.1
648.919	43.62
649.108	43.88
649.298	44.13
649.487	44.38
649.677	44.75
649.866	44.9
650.055	44.84
650.244	44.92
650.434	44.9
650.623	44.5
650.812	44.44
651.002	44.04
651.191	44.06
651.38	44.03
651.569	43.78
651.758	43.77
651.947	43.83
652.137	43.74
652.326	43.76
652.515	43.91
652.704	43.88
652.893	44.07
653.082	44.01
653.271	44.03
653.46	43.83
653.649	43.6
653.838	43.54
654.027	43.37
654.216	43.3
654.405	43.07
654.594	42.65
654.783	42.59
654.972	42.28
655.161	42.26
655.35	42.04
655.539	42.16
655.728	42.07
655.916	41.8
656.105	41.44
656.294	41.36
656.483	41.46
656.672	41.34
656.86	41.24
657.049	41.06
657.238	40.75
657.427	40.68
657.615	40.39
657.804	40.3
657.993	39.97
658.181	39.88
658.37	39.69
658.559	39.32
658.747	39.31
658.936	39.2
659.125	39.04
659.313	39.2
659.502	39.13
659.69	39.43
659.879	39.44
660.067	39.72
660.256	39.94
660.444	40.23
660.633	40.56
660.821	40.84
661.01	41.15
661.198	41.61
661.387	42
661.575	42.38
661.763	42.52
661.952	43.15
662.14	43.67
662.328	44
662.517	44.16
662.705	44.51
662.893	44.58
663.082	44.69
663.27	44.7
663.458	44.72
663.646	44.81
663.834	44.72
664.023	44.37
664.211	44.24
664.399	44.23
664.587	44.17
664.775	44.11
664.963	44.26
665.152	44.21
665.34	44.42
665.528	44.21
665.716	44.33
665.904	44.36
666.092	44.39
666.28	44.31
666.468	44.17
666.656	44.33
666.844	44.4
667.032	44.43
667.22	44.42
667.408	44.23
667.596	44.35
667.784	44.15
667.971	44.01
668.159	43.95
668.347	43.88
668.535	43.82
668.723	43.58
668.911	43.25
669.098	42.9
669.286	42.73
669.474	42.89
669.662	42.9
669.849	42.85
670.037	42.93
670.225	42.91
670.413	43.02
670.6	43.34
670.788	43.65
670.976	43.8
671.163	44.23
671.351	44.57
671.538	44.52
671.726	44.66
671.913	44.88
672.101	44.97
672.289	45.35
672.476	45.31
672.664	45.51
672.851	45.41
673.039	45.44
673.226	45.16
673.413	45.09
673.601	45.18
673.788	45.07
673.976	44.95
674.163	44.97
674.35	45.04
674.538	45.03
674.725	44.71
674.912	44.67
675.1	44.66
675.287	44.94
675.474	45.04
675.662	45.14
675.849	44.88
676.036	44.77
676.223	45.14
676.411	45.01
676.598	45.09
676.785	45.3
676.972	45.14
677.159	45.1
677.346	45.01
677.533	44.7
677.721	44.6
677.908	44.67
678.095	44.74
678.282	44.42
678.469	43.74
678.656	43.43
678.843	43.22
679.03	43.18
679.217	43.03
679.404	42.77
679.591	42.75
679.778	42.57
679.964	42.58
680.151	42.49
680.338	42.37
680.525	42.53
680.712	42.57
680.899	42.59
681.086	42.63
681.272	42.64
681.459	42.78
681.646	42.97
681.833	43.21
682.02	43.24
682.206	43.29
682.393	43.48
682.58	43.64
682.766	43.86
682.953	44.03
683.14	44.42
683.326	44.83
683.513	45.11
683.7	45.4
683.886	45.44
684.073	45.92
684.259	46.03
684.446	46.22
684.632	46.64
684.819	46.61
685.005	46.61
685.192	46.67
685.378	46.51
685.565	46.88
685.751	46.98
685.938	47.01
686.124	47.28
686.31	47.08
686.497	47.04
686.683	47.28
686.87	47.83
687.056	47.82
687.242	47.44
687.429	47.54
687.615	46.87
687.801	46.89
687.987	46.84
688.174	46.36
688.36	46.71
688.546	46.84
688.732	46.71
688.918	46.49
689.105	46.47
689.291	46.69
689.477	46.66
689.663	47.02
689.849	46.69
690.035	46.82
690.221	47.1
690.407	47.2
690.593	47.08
690.779	47.19
690.965	46.78
691.151	47.01
691.337	47.4
691.523	47.74
691.709	48.2
691.895	48.69
692.081	48.92
692.267	48.89
692.453	49.27
692.639	49.45
692.825	49.66
693.011	50.26
693.196	50.42
693.382	50.16
693.568	50.06
693.754	49.75
693.94	49.94
694.125	49.81
694.311	49.82
694.497	49.13
694.682	48.49
694.868	48.02
695.054	47.84
695.239	47.74
695.425	47.79
695.611	47.72
695.796	47.27
695.982	46.37
696.168	45.89
696.353	45.55
696.539	45.44
696.724	45.52
696.91	45.13
697.095	44.37
697.281	43.95
697.466	43.56
697.652	43.01
697.837	42.68
698.023	42.48
698.208	42.25
698.393	41.84
698.579	41.61
698.764	41.58
698.949	41.62
699.135	41.67
699.32	41.64
699.505	41.43
699.691	41.64
699.876	41.82
700.061	42.13
700.246	42.36
700.432	42.91
700.617	43.24
700.802	43.57
700.987	44.2
701.172	44.6
701.358	45.1
701.543	45.55
701.728	46.16
701.913	46.89
702.098	47.52
702.283	48.47
702.468	48.9
702.653	49.79
702.838	50.5
703.023	51.13
703.208	52.46
703.393	53.12
703.578	54.22
703.763	54.86
703.948	56.13
704.133	57.23
704.318	58.05
704.503	59.43
704.688	60.86
704.873	62.48
705.057	63.59
705.242	64.47
705.427	65.87
705.612	66.75
705.797	68.17
705.981	68.61
706.166	69.49
706.351	70.72
706.536	71.52
706.72	71.74
706.905	72.25
707.09	72.55
707.274	72.8
707.459	72.97
707.644	73.75
707.828	73.83
708.013	74
708.197	74.02
708.382	73.28
708.567	72.65
708.751	71.86
708.936	70.94
709.12	70.14
709.305	69.35
709.489	68.52
709.673	67.81
709.858	67.22
710.042	66.44
710.227	66.07
710.411	66.1
710.596	65.9
710.78	66.25
710.964	65.78
711.149	65.96
711.333	66.13
711.517	66.12
711.702	65.94
711.886	65.72
712.07	65.67
712.254	65.19
712.438	64.72
712.623	63.98
712.807	62.79
712.991	62.26
713.175	61.29
713.359	60.08
713.544	59.19
713.728	57.99
713.912	56.69
714.096	55.6
714.28	54.35
714.464	53.34
714.648	52.21
714.832	51.9
715.016	50.68
715.2	49.93
715.384	49.45
715.568	48.68
715.752	48.04
715.936	47.85
716.12	47.25
716.304	46.7
716.488	46.07
716.671	46.15
716.855	45.92
717.039	46
717.223	45.74
717.407	45.85
717.59	46.01
717.774	46.44
717.958	46.13
718.142	46.44
718.325	46.98
718.509	47.53
718.693	47.13
718.877	46.78
719.06	47.06
719.244	47
719.428	47.41
719.611	47.32
719.795	47.45
719.978	47.69
720.162	48.01
720.345	48.33
720.529	48.42
720.713	49.86
720.896	50.86
721.08	51.53
721.263	52.11
721.446	52.22
721.63	52.53
721.813	52.82
721.997	52.71
722.18	52.42
722.364	52.47
722.547	51.92
722.73	51.51
722.914	51.18
723.097	51.01
723.28	50.76
723.464	50.44
723.647	50.17
723.83	49.42
724.013	50.16
724.197	50.49
724.38	50.58
724.563	51.31
724.746	51.02
724.929	50.48
725.112	50.48
725.296	50.62
725.479	50.01
725.662	50.04
725.845	50.46
726.028	50.36
726.211	50.26
726.394	49.91
726.577	49.42
726.76	49.34
726.943	49.52
727.126	48.84
727.309	48.77
727.492	48.9
727.675	49.11
727.858	48.69
728.041	48.35
728.224	48.27
728.407	47.94
728.589	48.28
728.772	48.26
728.955	48.29
729.138	48.32
729.321	48.21
729.503	48.58
729.686	48.59
729.869	48.38
730.052	47.6
730.234	47.83
730.417	48.12
730.6	47.82
730.782	47.82
730.965	47.7
731.148	48.06
731.33	47.95
731.513	47.91
731.695	48.06
731.878	48.84
732.061	49.69
732.243	49.98
732.426	50.14
732.608	50.4
732.791	50.51
732.973	50.74
733.156	50.79
733.338	50.87
733.52	51
733.703	51.02
733.885	51.19
734.068	51.19
734.25	51.04
734.432	51.71
734.615	52.14
734.797	52.96
734.979	53.47
735.162	54.1
735.344	54.33
735.526	54.5
735.708	54.9
735.891	54.69
736.073	54.77
736.255	54.63
736.437	53.97
736.619	53.4
736.802	53
736.984	52.81
737.166	52.64
737.348	53.78
737.53	53.98
737.712	53.79
737.894	54.14
738.076	54.36
738.258	54.15
738.44	54.07
738.622	54.72
738.804	55.13
738.986	54.89
739.168	54.83
739.35	54.22
739.532	54.26
739.714	54.36
739.896	54.61
740.078	55.15
740.259	56.2
740.441	56.96
740.623	56.79
740.805	56.57
740.987	57.48
741.168	57.65
741.35	57.98
741.532	58.17
741.714	58.89
741.895	58.61
742.077	59.08
742.259	58.98
742.44	59.15
742.622	59.49
742.804	60.09
742.985	60.21
743.167	60.37
743.348	60.37
743.53	60.73
743.711	60.51
743.893	61.07
744.075	60.58
744.256	60.34
744.438	60.49
744.619	60.87
744.8	60.62
744.982	60.23
745.163	60.88
745.345	61.18
745.526	60.98
745.707	61.12
745.889	61.2
746.07	61.21
746.252	61.53
746.433	61.27
746.614	61.55
746.795	62.3
746.977	62.73
747.158	62.08
747.339	62.07
747.52	62.69
747.702	63.15
747.883	63.16
748.064	64.12
748.245	64.3
748.426	63.9
748.607	63.77
748.788	62.93
748.97	62.39
749.151	62.52
749.332	62.02
749.513	61.92
749.694	61.71
749.875	62.01
750.056	60.2
750.237	60.54
750.418	61.98
750.599	61.58
750.78	61.24
750.96	61.37
751.141	61.75
751.322	62.41
751.503	61.99
751.684	61.41
751.865	60.98
752.046	61.63
752.226	60.46
752.407	59.45
752.588	59.75
752.769	60.75
752.949	61.16
753.13	60.9
753.311	60.64
753.492	61.01
753.672	61.08
753.853	61.33
754.034	62.45
754.214	63.81
754.395	63.85
754.575	63.61
754.756	63.27
754.937	62.89
755.117	63.22
755.298	62.77
755.478	62.27
755.659	62.7
755.839	62.88
756.02	62.05
756.2	61.3
756.381	61.53
756.561	61.42
756.741	60.81
756.922	60.9
757.102	60.01
757.283	59.95
757.463	59.99
757.643	59.06
757.823	57.56
758.004	56.44
758.184	55.38
758.364	53.92
758.545	52.67
758.725	51.32
758.905	49.6
759.085	48.13
759.265	46.24
759.446	44.45
759.626	42.82
759.806	42.04
759.986	41.51
760.166	40.97
760.346	40.51
760.526	40.49
760.706	40.74
760.886	40.95
761.066	41.06
761.246	41.54
761.426	41.97
761.606	42.6
761.786	42.34
761.966	42.09
762.146	42.46
762.326	42.51
762.506	42.42
762.686	42.03
762.866	42.01
763.046	41.88
763.225	41.62
763.405	41.12
763.585	40.95
763.765	41.37
763.945	41.88
764.124	41.95
764.304	41.82
764.484	42.05
764.664	42.74
764.843	43.25
765.023	44.53
765.203	45.74
765.382	47.31
765.562	48.48
765.741	49.25
765.921	50.34
766.101	51.12
766.28	52.62
766.46	53.85
766.639	54.76
766.819	55.84
766.998	56.33
767.178	57.05
767.357	57.04
767.537	57.61
767.716	58.86
767.896	59.46
768.075	59.78
768.254	60.22
768.434	60.95
768.613	61.32
768.792	61.55
768.972	62.6
769.151	63.04
769.33	63.8
769.51	64.68
769.689	64.52
769.868	65.61
770.047	66.19
770.226	67.03
770.406	66.34
770.585	67.06
770.764	67.61
770.943	67.09
771.122	66.89
771.301	67.87
771.48	67.33
771.66	67.95
771.839	67.4
772.018	68.55
772.197	68.87
772.376	70.11
772.555	70.12
772.734	69.94
772.913	69.76
773.092	71.01
773.271	70.38
773.449	71.31
773.628	71.72
773.807	72.06
773.986	71.62
774.165	72.32
774.344	72.21
774.523	71.69
774.701	71.77
774.88	71.99
775.059	71.1
775.238	71.34
775.417	70.59
775.595	70.64
775.774	70.5
775.953	69.98
776.131	69.29
776.31	69.65
776.489	70.44
776.667	71.55
776.846	71.51
777.025	72.57
777.203	73.14
777.382	73.57
777.56	72.89
777.739	72.67
777.917	72.03
778.096	70.96
778.274	70.62
778.453	70.14
778.631	69.44
778.81	69.55
778.988	68.9
779.166	68.68
779.345	68.4
779.523	68.46
779.702	68.57
779.88	70.08
780.058	70.38
780.237	70.22
780.415	70.49
780.593	70.19
780.771	70
780.95	70.24
781.128	70.31
781.306	70.53
781.484	70.38
781.662	70.22
781.841	69.44
782.019	69.85
782.197	69.91
782.375	69.15
782.553	68.83
782.731	68.96
782.909	67.87
783.087	67.87
783.265	67.89
783.443	67.28
783.621	66.82
783.799	67.26
783.977	67.14
784.155	67.53
784.333	68.74
784.511	69.22
784.689	68.79
784.867	69.35
785.045	69.16
785.223	68.22
785.4	68.66
785.578	69.9
785.756	69.42
785.934	69.24
786.112	68.33
786.289	67.46
786.467	66.89
786.645	67.7
786.823	67.42
787	66.56
787.178	67.79
787.356	67.61
787.533	65.74
787.711	64.94
787.889	64.51
788.066	63.97
788.244	63.53
788.421	62.75
788.599	62.04
788.776	61.76
788.954	62.04
789.131	60.85
789.309	61.11
789.486	61.24
789.664	61.65
789.841	62.57
790.019	62.76
790.196	62.89
790.373	63.53
790.551	63.96
790.728	64.67
790.906	65.64
791.083	67.07
791.26	66.73
791.437	67.09
791.615	67.12
791.792	66.17
791.969	66.98
792.146	67.62
792.324	67.7
792.501	67.85
792.678	68.53
792.855	68.33
793.032	67.16
793.209	67.2
793.387	68.18
793.564	68.7
793.741	68.69
793.918	68.68
794.095	67.63
794.272	67.52
794.449	66.2
794.626	65.92
794.803	65.09
794.98	64.04
795.157	63.5
795.334	63.02
795.511	61.92
795.688	61.72
795.864	61.4
796.041	62.53
796.218	62.89
796.395	63.27
796.572	62.88
796.749	63.06
796.925	63.17
797.102	62.97
797.279	61.26
797.456	62.75
797.632	62.82
797.809	61.99
797.986	61.43
798.162	61.05
798.339	61.55
798.516	61.7
798.692	61.18
798.869	61.92
799.046	62.15
799.222	63.03
799.399	62.15
799.575	62.94
799.752	63.54
799.928	64.27
800.105	63.61
800.281	63.76
800.458	63.53
800.634	63.59
800.811	63.17
800.987	64.12
801.163	64.02
801.34	64.69
801.516	63.38
801.692	63.32
801.869	63.06
802.045	63.78
802.221	63.15
802.398	63.89
802.574	63.87
802.75	64.77
802.926	64.5
803.103	65.77
803.279	66.94
803.455	67.6
803.631	68.22
803.807	68.04
803.983	68.4
804.16	69.97
804.336	68.56
804.512	69.02
804.688	69.15
804.864	69.09
805.04	68.64
805.216	65.52
805.392	67.08
805.568	66.79
805.744	66.02
805.92	64.89
806.096	63.14
806.272	63.93
806.448	63.32
806.623	61.95
806.799	61.16
806.975	61.57
807.151	62.1
807.327	60.72
807.503	61.12
807.678	62.81
807.854	63.52
808.03	64.28
808.206	64.05
808.381	65.11
808.557	65.22
808.733	64.53
808.908	64.86
809.084	65
809.26	64.61
809.435	64.41
809.611	63.24
809.787	65.23
809.962	64.63
810.138	64.53
810.313	63.79
810.489	64.58
810.664	65.76
810.84	65.35
811.015	66.69
811.191	68.85
811.366	68.41
811.542	67.8
811.717	66.48
811.892	67.77
812.068	67.77
812.243	67.63
812.419	67.55
812.594	67.1
812.769	65.79
812.944	64.28
813.12	62.63
813.295	62.27
813.47	62.14
813.645	60.86
813.821	59.07
813.996	57.62
814.171	58.34
814.346	57.43
814.521	56.35
814.697	56.68
814.872	55.78
815.047	54.21
815.222	53.94
815.397	53.24
815.572	51.63
815.747	50.99
815.922	51.84
816.097	49.51
816.272	50.33
816.447	52.38
816.622	53.15
816.797	53.25
816.972	53.16
817.147	54.15
817.322	53.79
817.496	54.23
817.671	54.64
817.846	53.34
818.021	54.23
818.196	53.15
818.371	51.4
818.545	50.47
818.72	51.27
818.895	51.48
819.069	50.55
819.244	52.1
819.419	51.51
819.594	50.81
819.768	50.37
819.943	49.67
820.117	48.51
820.292	46.8
820.467	45.11
820.641	42.64
820.816	40.48
820.99	38.78
821.165	36.52
821.339	35.39
821.514	34.1
821.688	33.23
821.863	32.41
822.037	32
822.212	31.64
822.386	31.5
822.56	31.08
822.735	30.97
822.909	30.58
823.084	30.75
823.258	30.8
823.432	31.06
823.606	31.08
823.781	31.22
823.955	31.2
824.129	31.38
824.303	31.36
824.478	31.82
824.652	32.4
824.826	33.37
825	33.39
825.174	33.92
825.348	34.44
825.523	35.04
825.697	35.06
825.871	35.71
826.045	36.54
826.219	36.16
826.393	36.57
826.567	36.34
826.741	35.62
826.915	36.08
827.089	35.78
827.263	35.49
827.437	35.17
827.611	35.67
827.784	35.49
827.958	34.87
828.132	35.66
828.306	35.24
828.48	35.31
828.654	35.78
828.827	35.95
829.001	36.42
829.175	36.47
829.349	37.91
829.522	38.37
829.696	38.95
829.87	40.72
830.044	41.09
830.217	42.24
830.391	43.41
830.565	45.23
830.738	46.47
830.912	46.52
831.085	47.26
831.259	47.97
831.432	46.6
831.606	47.57
831.779	46.49
831.953	45.94
832.126	45.79
832.3	44.74
832.473	44.01
832.647	42.68
832.82	42.98
832.994	41.84
833.167	40.36
833.34	40.7
833.514	39.9
833.687	39.11
833.86	38.62
834.034	38.26
834.207	38.18
834.38	38.29
834.553	38.44
834.727	38.52
834.9	39.3
835.073	39.17
835.246	40.12
835.419	40.7
835.593	41.18
835.766	42.15
835.939	43.34
836.112	44.41
836.285	45.05
836.458	45.83
836.631	46.01
836.804	47.45
836.977	49.79
837.15	49.26
837.323	49.14
837.496	51.12
837.669	52.88
837.842	53.49
838.015	54.58
838.188	55.04
838.361	56.07
838.533	58.47
838.706	58.2
838.879	58.25
839.052	60.09
839.225	60.86
839.398	62.11
839.57	61.56
839.743	60.65
839.916	58.77
840.088	58.6
840.261	57.84
840.434	57.78
840.607	57.65
840.779	57.3
840.952	57.34
841.124	58.24
841.297	58.13
841.47	56.71
841.642	56.77
841.815	57.88
841.987	59.6
842.16	60.99
842.332	60.01
842.505	61.46
842.677	63.22
842.85	63.48
843.022	63.5
843.194	61.65
843.367	64.62
843.539	68.02
843.712	71.93
843.884	71.19
844.056	72.15
844.229	74.94
844.401	72.19
844.573	72.74
844.745	73.72
844.918	76.38
845.09	77.65
845.262	76.31
845.434	77.09
845.606	74.62
845.779	73.47
845.951	75.62
846.123	74.7
846.295	78.77
846.467	75.94
846.639	77.46
846.811	76.83
846.983	77.78
847.155	79.69
847.327	76.18
847.499	76.17
847.671	78.55
847.843	75.04
848.015	73.67
848.187	73.82
848.359	74.32
848.531	72.11
848.703	69.44
848.875	70.66
849.047	68.48
849.218	72.13
849.39	74.4
849.562	73.92
849.734	71.44
849.905	73.95
850.077	75.6
850.249	75.1
850.421	77.61
850.592	80.19
850.764	80.01
850.936	83.26
851.107	80.75
851.279	78.34
851.451	79.81
851.622	82.61
851.794	79.69
851.965	77.2
852.137	76.79
852.308	74.78
852.48	76.56
852.651	76.24
852.823	76.8
852.994	81.2
853.166	84.09
853.337	80.28
853.509	85.1
853.68	85.41
853.851	90.13
854.023	94.77
854.194	95.77
854.365	93.72
854.537	93.55
854.708	92.87
854.879	90.33
855.05	92.67
855.222	96.13
855.393	94.54
855.564	101.5
855.735	92.75
855.906	90.4
856.078	89.99
856.249	92.94
856.42	89.27
856.591	91.62
856.762	91.67
856.933	87.04
857.104	86.63
857.275	84.34
857.446	80.27
857.617	83.29
857.788	85.24
857.959	84.58
858.13	81.95
858.301	84.48
858.472	79.68
858.643	80.28
858.814	80.4
858.985	81.11
859.155	78.11
859.326	80.85
859.497	82.06
859.668	80.88
859.839	83.08
860.009	82.3
860.18	77.46
860.351	77.77
860.522	73.08
860.692	73.73
860.863	71.76
861.034	75.1
861.204	73.02
861.375	70.88
861.546	65.7
861.716	63.02
861.887	65.3
862.057	75.12
862.228	80.19
862.398	84.36
862.569	90.94
862.739	91.85
862.91	91.61
863.08	95.05
863.251	99.49
863.421	101.07
863.592	99.82
863.762	100.38
863.932	98.63
864.103	93.44
864.273	92.27
864.443	86.53
864.614	85.28
864.784	77.53
864.954	77.72
865.125	76.53
865.295	76.94
865.465	73.8
865.635	74.66
865.805	70.18
865.976	67.43
866.146	68.04
866.316	69.81
866.486	70.47
866.656	70.61
866.826	63.9
866.996	57.93
867.166	55.89
867.336	57.67
867.506	55.6
867.676	55.64
867.846	55.76
868.016	54.22
868.186	47.79
868.356	46.55
868.526	50.57
868.696	53.11
868.866	56.71
869.036	60.26
869.206	58.89
869.376	58.86
869.545	59.35
869.715	65.14
869.885	66.85
870.055	69.25
870.224	71.03
870.394	66.88
870.564	68.56
870.734	70.1
870.903	67.82
871.073	73.79
871.243	70.97
871.412	71.76
871.582	69.05
871.751	64.45
871.921	66.81
872.091	68.15
872.26	74.11
872.43	74.44
872.599	69.53
872.769	67.88
872.938	63.79
873.108	67.53
873.277	68.41
873.446	70.26
873.616	70.09
873.785	66.62
873.955	62.98
874.124	54.74
874.293	50.24
874.463	51.55
874.632	58.42
874.801	58.51
874.971	56.79
875.14	50.59
875.309	48.09
875.478	54.06
875.647	57.33
875.817	60.09
875.986	68.82
876.155	69.86
876.324	69.87
876.493	64.55
876.662	63.74
876.831	62.64
877	64.43
877.17	66.62
877.339	62.81
877.508	65.2
877.677	65.56
877.846	61.06
878.015	60.8
878.184	62.19
878.352	62.23
878.521	58.84
878.69	61.41
878.859	57.54
879.028	56.45
879.197	55.5
879.366	52.22
879.534	50.37
879.703	47.98
879.872	46.03
880.041	45.13
880.21	42.49
880.378	42.57
880.547	39.8
880.716	38.34
880.884	36.34
881.053	33.75
881.222	32.93
881.39	32.23
881.559	32.48
881.727	31.93
881.896	30.06
882.065	29.96
882.233	29.34
882.402	28.99
882.57	28.6
882.739	28.03
882.907	29.11
883.076	28.38
883.244	27.64
883.412	27.43
883.581	27.61
883.749	28.74
883.918	28.68
884.086	28.01
884.254	28.54
884.423	28.96
884.591	29.81
884.759	29.19
884.927	30.24
885.096	30.21
885.264	31.15
885.432	30.6
885.6	29.95
885.769	30.72
885.937	32.17
886.105	32.21
886.273	33.69
886.441	34.14
886.609	36.46
886.777	38.77
886.945	43.55
887.113	45.1
887.281	49.69
887.449	51.78
887.617	50.49
887.785	51.97
887.953	51.92
888.121	51.36
888.289	52.28
888.457	54.58
888.625	53.99
888.793	52.1
888.961	50.76
889.129	45.81
889.296	47.6
889.464	50.05
889.632	50.25
889.8	51.84
889.967	54.43
890.135	54.27
