Data from 2938851__Reflection_02.txt Node
Date: Wed Mar 11 12:55:56 EDT 2015
User: robert
Spectrometer: USB4E03002
Autoset integration time: false
Trigger mode: 4
Integration Time (sec): 1.000000E-1
Scans to average: 10
Electric dark correction enabled: false
Nonlinearity correction enabled: false
Boxcar width: 5
Stray light correction enabled: false
XAxis mode: Wavelengths
Stop averaging: false
Number of Pixels in Spectrum: 3648
>>>>>Begin Spectral Data<<<<<
177.575	1355.56
177.794	-745.83
178.014	-256.85
178.233	-664.71
178.452	-455.47
178.672	-183.84
178.891	-124.57
179.11	-88.67
179.33	-140.78
179.549	-153.44
179.768	-259.62
179.987	-247.49
180.207	-256.69
180.426	-272.2
180.645	-257.63
180.864	-115.82
181.084	-267.55
181.303	-1464.29
181.522	-541.59
181.741	-406.51
181.96	-463.83
182.179	-1463.79
182.398	-978.82
182.618	869.23
182.837	1304.62
183.056	1919.15
183.275	380.36
183.494	416.26
183.713	608.48
183.932	304.27
184.151	306.52
184.37	363.95
184.589	623.84
184.808	687.59
185.027	-2140.48
185.246	-1005.56
185.465	-231.73
185.684	-107.36
185.903	-125.32
186.122	-104.03
186.341	-104.6
186.56	-65.96
186.779	-79.42
186.998	-48.98
187.216	-35.08
187.435	-34.33
187.654	-23.88
187.873	-47.33
188.092	-65.9
188.311	-42.17
188.53	-16.82
188.748	-10.75
188.967	0.83
189.186	28.62
189.405	19.7
189.623	31.07
189.842	30.47
190.061	31.32
190.28	36.65
190.498	43.6
190.717	39.38
190.936	35.29
191.154	44.21
191.373	45.98
191.592	9.17
191.81	4.54
192.029	-20.06
192.248	-33.63
192.466	-65.59
192.685	-127
192.904	-131.6
193.122	-102.29
193.341	-324.48
193.559	-472
193.778	-1029.63
193.996	-467.91
194.215	-369.51
194.433	-206.8
194.652	-151.35
194.87	-148.63
195.089	-108.7
195.307	-118.68
195.526	-175.31
195.744	-75.21
195.963	-49.29
196.181	-26.05
196.399	-47.38
196.618	-48.55
196.836	-33.52
197.055	-28.37
197.273	-10.83
197.491	-63.44
197.71	-97.36
197.928	-46.82
198.146	-57.45
198.365	-94.08
198.583	-77.91
198.801	-64.5
199.019	-51.63
199.238	-73.1
199.456	-100.59
199.674	-144.12
199.892	-51.3
200.111	-26.01
200.329	-37.17
200.547	-59.15
200.765	-45.47
200.983	-74.61
201.202	-81.62
201.42	-79.31
201.638	-62.96
201.856	-70.15
202.074	-81.08
202.292	-111.86
202.51	-151.48
202.728	-217.96
202.946	-161.41
203.165	-160.78
203.383	-108.41
203.601	-156.49
203.819	-193.73
204.037	-197.84
204.255	-97.85
204.473	-108.25
204.691	-107.66
204.909	-91.46
205.127	-85.77
205.345	-137.05
205.562	-93.5
205.78	-140.52
205.998	-200
206.216	-186.59
206.434	-83.97
206.652	-84.02
206.87	-69.41
207.088	-30.62
207.306	-30.99
207.523	-15.73
207.741	-2.76
207.959	-8.18
208.177	15.71
208.395	20.21
208.612	11.12
208.83	-9.11
209.048	37.5
209.266	40.45
209.483	-4.27
209.701	-39.36
209.919	-39.02
210.136	-27.57
210.354	-7.88
210.572	-12.9
210.79	-15.36
211.007	-50.47
211.225	-38.45
211.442	-52.32
211.66	-101.9
211.878	-69.6
212.095	-140.24
212.313	-172.67
212.53	-153.82
212.748	-148.26
212.966	-151.35
213.183	-147.48
213.401	-82.62
213.618	-87.91
213.836	-65.87
214.053	-49.78
214.271	-57.23
214.488	-18.05
214.705	-18.56
214.923	-26.92
215.14	-41.71
215.358	-36.38
215.575	-29.57
215.793	-39.23
216.01	-59.13
216.227	-65.76
216.445	-52.31
216.662	-42.17
216.879	-44.5
217.097	-28.78
217.314	-20.54
217.531	-7.74
217.749	-12.18
217.966	-19.74
218.183	-10.38
218.4	-6.89
218.618	-13.1
218.835	-23.02
219.052	-29.5
219.269	-22.24
219.487	-26.9
219.704	-26.84
219.921	-27.49
220.138	-23.5
220.355	-12.03
220.572	-19.88
220.79	-16.22
221.007	-17.61
221.224	-21.7
221.441	-17.75
221.658	-9.29
221.875	-11.4
222.092	-9.09
222.309	-8.08
222.526	-11.69
222.743	-16.69
222.96	-15.82
223.177	-17.06
223.394	-18.98
223.611	-13.6
223.828	-9.57
224.045	-8.35
224.262	-6.94
224.479	-7.61
224.696	-3.64
224.913	1.05
225.13	1.91
225.347	-0.26
225.564	-0.02
225.781	0.58
225.997	0.22
226.214	1.45
226.431	-1.33
226.648	-0.24
226.865	-0.82
227.082	-1.28
227.298	-1.33
227.515	-0.57
227.732	-0.41
227.949	0.97
228.165	1.53
228.382	1.4
228.599	1.21
228.816	1.94
229.032	2.17
229.249	1.89
229.466	1.98
229.682	1.8
229.899	1.6
230.116	1.92
230.332	1.42
230.549	1.1
230.765	0.99
230.982	0.4
231.199	0.31
231.415	0.03
231.632	0.64
231.848	-0.75
232.065	-0.05
232.281	0.87
232.498	0.89
232.714	-0.29
232.931	0.14
233.147	1.36
233.364	1.3
233.58	0.31
233.797	-0.31
234.013	0.13
234.23	0.96
234.446	0.64
234.662	-0.79
234.879	-1.68
235.095	-1.03
235.312	-0.21
235.528	-2.54
235.744	-2.31
235.961	-1.77
236.177	-1.71
236.393	-2.5
236.61	-1.57
236.826	-0.63
237.042	-1
237.258	-2.08
237.475	-2.56
237.691	-3.76
237.907	-1.49
238.123	-1.84
238.339	-0.97
238.556	-1.36
238.772	-2.06
238.988	-2.44
239.204	-4.16
239.42	-2.1
239.636	-0.57
239.853	0.49
240.069	1.02
240.285	0.76
240.501	1.56
240.717	1.18
240.933	1.52
241.149	2.39
241.365	2.48
241.581	3.02
241.797	2.39
242.013	2.92
242.229	2.9
242.445	2.93
242.661	2.99
242.877	2.8
243.093	2.57
243.309	2.61
243.525	3.02
243.741	3.3
243.957	3.07
244.173	3.24
244.388	2.66
244.604	2.44
244.82	1.76
245.036	1.52
245.252	1.8
245.468	2.31
245.683	3.29
245.899	2.71
246.115	2.93
246.331	3.14
246.547	3.48
246.762	3.57
246.978	3.52
247.194	3.85
247.409	3.97
247.625	4.02
247.841	3.89
248.057	3.88
248.272	4.11
248.488	3.78
248.703	4.03
248.919	3.81
249.135	3.75
249.35	3.7
249.566	3.48
249.782	3.91
249.997	3.57
250.213	4.09
250.428	3.3
250.644	3.33
250.859	3.56
251.075	3.29
251.29	3.66
251.506	3.69
251.721	3.83
251.937	4.11
252.152	3.87
252.368	4.13
252.583	3.87
252.798	3.29
253.014	3.16
253.229	2.72
253.445	2.44
253.66	1.55
253.875	1.64
254.091	0.79
254.306	0.84
254.521	-0.28
254.737	-0.01
254.952	-0.95
255.167	0.16
255.383	-0.05
255.598	0.76
255.813	0.95
256.028	2.17
256.244	2.7
256.459	3.92
256.674	3.39
256.889	4.21
257.104	3.7
257.32	3.76
257.535	3.21
257.75	3.57
257.965	3.14
258.18	3.06
258.395	3.13
258.61	2.95
258.826	2.71
259.041	2.55
259.256	2.43
259.471	2.44
259.686	2.6
259.901	2.66
260.116	2.53
260.331	2.63
260.546	2.76
260.761	2.55
260.976	2.38
261.191	2.32
261.406	2.34
261.621	2.25
261.836	2.39
262.05	1.9
262.265	1.83
262.48	1.88
262.695	1.15
262.91	0.72
263.125	0.7
263.34	0.47
263.555	0.41
263.769	0.14
263.984	-0.48
264.199	-1.17
264.414	-0.47
264.629	-0.53
264.843	-0.27
265.058	0.63
265.273	0.28
265.488	0.29
265.702	0.48
265.917	0.68
266.132	0.52
266.346	1.41
266.561	1.88
266.776	2.22
266.99	1.77
267.205	0.76
267.42	0.76
267.634	1.01
267.849	0.93
268.063	0.88
268.278	0.71
268.492	1.56
268.707	1.27
268.922	0.71
269.136	0.14
269.351	0.41
269.565	1.19
269.78	0.99
269.994	0.81
270.209	0.81
270.423	1.05
270.637	1.34
270.852	1.21
271.066	1.3
271.281	1.57
271.495	1.84
271.709	1.65
271.924	1.77
272.138	1.86
272.353	1.83
272.567	1.79
272.781	1.74
272.996	1.62
273.21	1.38
273.424	1.62
273.638	1.37
273.853	1.37
274.067	1.93
274.281	2.15
274.495	2.39
274.71	2.71
274.924	2.87
275.138	2.98
275.352	3.16
275.566	3.51
275.781	2.87
275.995	3.07
276.209	2.97
276.423	2.9
276.637	2.24
276.851	2.02
277.065	1.91
277.279	1.97
277.493	1.87
277.707	1.83
277.921	1.64
278.135	1.86
278.349	1.93
278.563	1.41
278.777	1.23
278.991	1.21
279.205	1.18
279.419	1.07
279.633	0.82
279.847	1.21
280.061	1.21
280.275	1.4
280.489	1.42
280.703	1.68
280.917	2.25
281.131	2.24
281.344	2.63
281.558	2.42
281.772	2.36
281.986	2.64
282.2	2.23
282.414	2.28
282.627	2.01
282.841	2.14
283.055	1.85
283.269	2.01
283.482	1.96
283.696	1.91
283.91	1.97
284.123	2.23
284.337	1.91
284.551	1.96
284.764	1.84
284.978	1.82
285.192	1.76
285.405	1.78
285.619	1.62
285.833	1.58
286.046	1.48
286.26	1.71
286.473	1.74
286.687	1.79
286.9	1.99
287.114	2.01
287.327	2.22
287.541	2.26
287.754	2.3
287.968	2.02
288.181	2.32
288.395	2.38
288.608	2.33
288.822	1.95
289.035	2.09
289.248	2.02
289.462	2.24
289.675	2.16
289.889	2.12
290.102	2.16
290.315	2.26
290.529	2.18
290.742	2.27
290.955	2.1
291.169	2.23
291.382	2.37
291.595	2.19
291.808	1.98
292.022	1.78
292.235	1.51
292.448	1.39
292.661	1.59
292.875	1.47
293.088	1.53
293.301	1.5
293.514	1.76
293.727	1.59
293.94	1.95
294.153	1.75
294.367	2.18
294.58	2.52
294.793	2.62
295.006	2.5
295.219	2.63
295.432	2.57
295.645	2.71
295.858	2.66
296.071	2.38
296.284	2.32
296.497	2.49
296.71	2.53
296.923	2.57
297.136	2.63
297.349	2.54
297.562	2.5
297.775	2.38
297.988	2.52
298.201	2.37
298.414	2.7
298.626	2.69
298.839	2.64
299.052	2.6
299.265	2.51
299.478	2.63
299.691	3.04
299.903	3.11
300.116	3.2
300.329	2.95
300.542	3.05
300.755	3.18
300.967	3.27
301.18	3.62
301.393	3.42
301.605	3.9
301.818	3.55
302.031	3.59
302.243	3.66
302.456	3.86
302.669	4.04
302.881	4.23
303.094	4.28
303.307	4.13
303.519	4.01
303.732	4.07
303.944	3.69
304.157	4.14
304.37	3.85
304.582	3.89
304.795	3.76
305.007	3.69
305.22	4.13
305.432	4.07
305.645	3.99
305.857	3.83
306.069	3.8
306.282	4.08
306.494	3.74
306.707	3.8
306.919	3.79
307.132	3.69
307.344	3.9
307.556	3.26
307.769	3.54
307.981	3.67
308.193	3.87
308.406	4.17
308.618	4.19
308.83	4.48
309.043	4.54
309.255	4.62
309.467	4.73
309.679	4.47
309.892	4.55
310.104	4.69
310.316	4.83
310.528	4.92
310.74	4.85
310.953	4.69
311.165	4.39
311.377	4.65
311.589	4.63
311.801	4.61
312.013	4.98
312.225	5.08
312.437	4.71
312.649	4.84
312.862	4.62
313.074	4.89
313.286	4.73
313.498	5.2
313.71	5.17
313.922	5
314.134	5.13
314.346	4.97
314.558	5.02
314.77	4.84
314.982	4.74
315.193	4.77
315.405	4.26
315.617	4.41
315.829	4.02
316.041	3.8
316.253	3.62
316.465	3.51
316.677	3.6
316.888	3.41
317.1	4.09
317.312	4.07
317.524	4.39
317.736	4.28
317.947	4.42
318.159	4.83
318.371	5.14
318.583	5.62
318.794	5.72
319.006	5.62
319.218	5.95
319.43	5.67
319.641	5.39
319.853	5.09
320.064	5.21
320.276	5.11
320.488	4.9
320.699	4.52
320.911	4.9
321.123	4.93
321.334	4.86
321.546	5.13
321.757	4.94
321.969	5.26
322.18	5.38
322.392	5.83
322.603	5.84
322.815	5.86
323.026	6.06
323.238	5.5
323.449	5.7
323.661	6.02
323.872	5.81
324.083	6.04
324.295	6.3
324.506	6.25
324.718	6.15
324.929	6.32
325.14	6.53
325.352	6.65
325.563	7.16
325.774	7.21
325.986	6.98
326.197	6.99
326.408	7.08
326.62	6.8
326.831	7.19
327.042	7.3
327.253	7.26
327.464	7.19
327.676	7.32
327.887	7.39
328.098	7.31
328.309	7.59
328.52	7.47
328.732	7.18
328.943	7.58
329.154	7.85
329.365	7.73
329.576	8.28
329.787	8.34
329.998	8.29
330.209	8.37
330.42	8.59
330.631	8.63
330.842	8.81
331.053	9.01
331.264	8.93
331.475	9.05
331.686	9.01
331.897	9.02
332.108	8.81
332.319	8.77
332.53	8.62
332.741	8.37
332.952	8.17
333.163	8.33
333.374	8.59
333.585	8.49
333.795	8.26
334.006	8.56
334.217	8.14
334.428	8.56
334.639	8.72
334.849	8.67
335.06	8.88
335.271	9.02
335.482	9.32
335.692	9.23
335.903	9.45
336.114	9.43
336.325	9.49
336.535	9.58
336.746	9.57
336.957	9.43
337.167	9.59
337.378	9.39
337.589	9.71
337.799	9.45
338.01	9.61
338.22	9.42
338.431	9.41
338.642	9.15
338.852	9.15
339.063	9.21
339.273	9.05
339.484	8.85
339.694	9.1
339.905	8.77
340.115	8.81
340.326	8.56
340.536	8.71
340.746	8.64
340.957	8.76
341.167	8.84
341.378	8.84
341.588	9.09
341.799	9.28
342.009	9.21
342.219	9.2
342.43	9.41
342.64	9.63
342.85	9.53
343.061	9.87
343.271	10.13
343.481	9.74
343.691	9.63
343.902	9.79
344.112	9.66
344.322	9.74
344.532	9.8
344.743	9.73
344.953	9.47
345.163	9.44
345.373	9.04
345.583	8.95
345.793	9.43
346.004	9.53
346.214	9.28
346.424	9.28
346.634	9.5
346.844	9.66
347.054	9.32
347.264	9.37
347.474	9.33
347.684	9.32
347.894	9.24
348.104	9.22
348.314	9.03
348.524	8.96
348.734	9
348.944	8.63
349.154	8.52
349.364	8.82
349.574	9.08
349.784	9.04
349.994	9.14
350.204	8.78
350.413	8.69
350.623	8.49
350.833	8.58
351.043	8.3
351.253	8.23
351.463	8.35
351.672	8.19
351.882	8.07
352.092	8.29
352.302	8.03
352.511	8.16
352.721	7.86
352.931	8.34
353.141	8.51
353.35	8.58
353.56	8.73
353.77	8.7
353.979	8.8
354.189	8.72
354.399	8.45
354.608	8.9
354.818	9.02
355.027	9.48
355.237	9.33
355.447	9.16
355.656	9.34
355.866	9.09
356.075	9.01
356.285	8.91
356.494	9.09
356.704	9.32
356.913	9.32
357.123	9.19
357.332	8.95
357.542	8.94
357.751	9.06
357.96	9.08
358.17	9.14
358.379	9.22
358.589	9.15
358.798	9.17
359.007	8.97
359.217	8.83
359.426	9.09
359.635	9.31
359.845	9.29
360.054	9.18
360.263	9.15
360.472	9.3
360.682	9.15
360.891	9.14
361.1	8.97
361.309	9.06
361.519	9.04
361.728	8.94
361.937	8.85
362.146	8.87
362.355	8.96
362.564	8.88
362.774	8.94
362.983	9
363.192	9.1
363.401	9.19
363.61	9.3
363.819	9.19
364.028	9.16
364.237	9.12
364.446	9.2
364.655	9.17
364.864	9.18
365.073	9.01
365.282	8.98
365.491	8.85
365.7	8.73
365.909	8.62
366.118	8.8
366.327	9.05
366.536	8.94
366.745	8.69
366.954	8.68
367.162	8.83
367.371	8.73
367.58	8.61
367.789	8.76
367.998	8.75
368.207	8.72
368.415	8.49
368.624	8.28
368.833	8.35
369.042	8.41
369.25	8.09
369.459	8.05
369.668	8.06
369.877	8.11
370.085	7.94
370.294	8.15
370.503	8.04
370.711	8.1
370.92	7.86
371.129	7.79
371.337	7.73
371.546	7.93
371.754	7.89
371.963	7.94
372.171	7.85
372.38	7.83
372.589	7.4
372.797	7.4
373.006	7.41
373.214	7.61
373.423	7.56
373.631	7.54
373.84	7.61
374.048	7.59
374.256	7.68
374.465	7.67
374.673	7.6
374.882	7.79
375.09	7.83
375.298	7.69
375.507	7.53
375.715	7.52
375.923	7.36
376.132	7.18
376.34	7.23
376.548	7.1
376.757	7.23
376.965	7.25
377.173	7.29
377.381	7.31
377.59	7.48
377.798	7.66
378.006	7.77
378.214	8.05
378.423	8.02
378.631	7.98
378.839	7.92
379.047	7.76
379.255	7.78
379.463	7.79
379.671	7.62
379.879	7.52
380.088	7.55
380.296	7.43
380.504	7.41
380.712	7.51
380.92	7.26
381.128	6.88
381.336	6.98
381.544	7.09
381.752	6.96
381.96	7.05
382.168	6.97
382.376	6.63
382.584	6.59
382.791	6.46
382.999	6.24
383.207	6.46
383.415	6.59
383.623	6.56
383.831	6.43
384.039	6.53
384.247	6.42
384.454	6.53
384.662	6.61
384.87	6.57
385.078	6.67
385.285	6.81
385.493	6.6
385.701	6.75
385.909	7.02
386.116	6.97
386.324	6.88
386.532	6.95
386.739	6.9
386.947	6.86
387.155	6.91
387.362	6.79
387.57	6.82
387.778	6.94
387.985	6.95
388.193	6.76
388.4	6.77
388.608	6.77
388.816	6.9
389.023	6.66
389.231	6.62
389.438	6.58
389.646	6.71
389.853	6.67
390.061	6.65
390.268	6.65
390.475	6.62
390.683	6.68
390.89	6.64
391.098	6.42
391.305	6.46
391.512	6.41
391.72	6.45
391.927	6.12
392.135	6.1
392.342	6.11
392.549	6.07
392.756	6.11
392.964	6.15
393.171	6.25
393.378	6.34
393.586	6.4
393.793	6.43
394	6.37
394.207	6.4
394.414	6.41
394.622	6.26
394.829	6.28
395.036	6.02
395.243	6.04
395.45	6.02
395.657	6.01
395.864	6.1
396.072	6.13
396.279	6.16
396.486	6.25
396.693	6.24
396.9	6.26
397.107	6.22
397.314	6.28
397.521	6.09
397.728	5.83
397.935	5.83
398.142	5.72
398.349	5.86
398.556	5.66
398.763	5.62
398.97	5.57
399.177	5.5
399.383	5.46
399.59	5.54
399.797	5.56
400.004	5.68
400.211	5.73
400.418	5.73
400.625	5.7
400.831	5.83
401.038	5.88
401.245	5.89
401.452	5.99
401.658	6.12
401.865	5.93
402.072	5.93
402.279	5.79
402.485	5.62
402.692	5.58
402.899	5.37
403.105	5.4
403.312	5.41
403.519	5.46
403.725	5.4
403.932	5.25
404.138	5.26
404.345	5.23
404.552	5.39
404.758	5.37
404.965	5.42
405.171	5.46
405.378	5.46
405.584	5.26
405.791	5.14
405.997	5.16
406.204	5.17
406.41	5.13
406.617	5.1
406.823	5.03
407.029	5.22
407.236	5.24
407.442	5.23
407.649	5.01
407.855	5.04
408.061	5.03
408.268	5.06
408.474	5.06
408.68	5.3
408.887	5.13
409.093	5.03
409.299	4.91
409.505	4.79
409.712	4.71
409.918	4.89
410.124	5
410.33	5.04
410.537	5.01
410.743	5.07
410.949	4.98
411.155	5.04
411.361	5.13
411.567	5.24
411.773	5.44
411.98	5.59
412.186	5.55
412.392	5.73
412.598	5.86
412.804	5.83
413.01	5.79
413.216	5.82
413.422	5.98
413.628	5.82
413.834	5.61
414.04	5.38
414.246	5.4
414.452	5.46
414.658	5.28
414.864	5.15
415.07	5.12
415.275	5.17
415.481	5.17
415.687	5.18
415.893	5.32
416.099	5.34
416.305	5.45
416.511	5.39
416.716	5.23
416.922	5.24
417.128	5.17
417.334	5.25
417.539	5.28
417.745	5.35
417.951	5.39
418.157	5.32
418.362	5.4
418.568	5.33
418.774	5.37
418.979	5.39
419.185	5.37
419.391	5.47
419.596	5.51
419.802	5.46
420.008	5.44
420.213	4.65
420.419	4.66
420.624	4.63
420.83	4.66
421.035	4.65
421.241	4.7
421.446	4.7
421.652	4.63
421.857	4.56
422.063	4.54
422.268	4.47
422.474	5.26
422.679	5.27
422.885	5.27
423.09	5.3
423.295	5.3
423.501	5.31
423.706	5.29
423.911	5.34
424.117	5.34
424.322	5.38
424.527	5.45
424.733	5.34
424.938	5.39
425.143	5.34
425.349	5.28
425.554	5.3
425.759	5.32
425.964	5.34
426.169	5.34
426.375	5.27
426.58	5.22
426.785	5.19
426.99	5.28
427.195	5.3
427.4	5.26
427.605	5.22
427.811	5.11
428.016	5.09
428.221	5.03
428.426	5.01
428.631	5.11
428.836	5.14
429.041	5.04
429.246	5.04
429.451	5
429.656	5.15
429.861	5.23
430.066	5.27
430.271	5.25
430.476	5.28
430.681	5.09
430.886	5.12
431.09	5.05
431.295	5.04
431.5	4.88
431.705	4.88
431.91	4.83
432.115	4.84
432.32	4.86
432.524	4.83
432.729	4.73
432.934	4.83
433.139	4.83
433.343	4.88
433.548	4.97
433.753	5.06
433.958	4.95
434.162	4.99
434.367	4.99
434.572	5
434.776	5.03
434.981	5.14
435.186	5.15
435.39	5.14
435.595	5.19
435.799	5.15
436.004	5.14
436.209	5.31
436.413	5.24
436.618	5.23
436.822	5.14
437.027	5.16
437.231	5.26
437.436	5.35
437.64	5.37
437.845	5.33
438.049	5.32
438.253	5.33
438.458	5.24
438.662	5.23
438.867	5.17
439.071	5.24
439.275	5.3
439.48	5.21
439.684	5.15
439.888	5.02
440.093	4.97
440.297	4.98
440.501	4.97
440.706	4.96
440.91	5
441.114	5.05
441.318	5.01
441.523	5
441.727	5.12
441.931	5.09
442.135	5.17
442.339	5.15
442.543	5.12
442.748	5.05
442.952	5.02
443.156	4.94
443.36	4.94
443.564	4.93
443.768	4.88
443.972	4.72
444.176	4.75
444.38	4.73
444.584	4.74
444.788	4.74
444.992	4.81
445.196	4.89
445.4	4.92
445.604	4.97
445.808	5
446.012	4.99
446.216	5
446.42	4.99
446.624	5.03
446.828	5
447.032	4.97
447.235	4.95
447.439	4.91
447.643	4.88
447.847	4.89
448.051	4.88
448.254	4.81
448.458	4.77
448.662	4.79
448.866	4.79
449.069	4.91
449.273	4.97
449.477	4.86
449.681	4.85
449.884	4.86
450.088	4.87
450.292	5.01
450.495	5.12
450.699	5.24
450.902	5.27
451.106	5.35
451.31	5.23
451.513	5.24
451.717	5.37
451.92	5.38
452.124	5.49
452.327	5.36
452.531	5.24
452.734	5.2
452.938	5.16
453.141	5.13
453.345	5.07
453.548	5.19
453.752	5.18
453.955	5.17
454.158	5.2
454.362	5.09
454.565	5.16
454.769	5.13
454.972	5.19
455.175	5.26
455.379	5.24
455.582	5.22
455.785	5.07
455.988	5.1
456.192	5.19
456.395	5.2
456.598	5.18
456.801	5.17
457.005	5.3
457.208	5.26
457.411	5.15
457.614	5.26
457.817	5.27
458.021	5.27
458.224	5.22
458.427	5.15
458.63	5.11
458.833	5.14
459.036	5.14
459.239	5.05
459.442	5.08
459.645	5.04
459.848	5.04
460.051	5.05
460.254	5.13
460.457	5.1
460.66	5.1
460.863	5.13
461.066	5.16
461.269	5.18
461.472	5.22
461.675	5.14
461.878	5.16
462.081	5.1
462.284	5.05
462.486	5
462.689	5.15
462.892	5.16
463.095	5.12
463.298	5.11
463.5	5.06
463.703	5.04
463.906	5.06
464.109	5.1
464.311	5.06
464.514	5.08
464.717	5.01
464.92	4.89
465.122	4.88
465.325	4.93
465.528	4.77
465.73	4.81
465.933	4.79
466.135	4.8
466.338	4.81
466.541	4.81
466.743	4.76
466.946	4.82
467.148	4.81
467.351	4.88
467.553	4.82
467.756	4.96
467.958	4.98
468.161	4.98
468.363	4.93
468.566	4.93
468.768	4.92
468.971	4.91
469.173	4.97
469.375	5.04
469.578	4.94
469.78	5.01
469.983	4.97
470.185	4.86
470.387	4.86
470.59	4.96
470.792	4.88
470.994	4.99
471.196	5.07
471.399	4.98
471.601	5
471.803	4.99
472.005	4.95
472.208	5.02
472.41	5.08
472.612	5.07
472.814	5.15
473.016	5.23
473.218	5.15
473.421	5.11
473.623	5.1
473.825	5.14
474.027	5.2
474.229	5.19
474.431	5.2
474.633	5.23
474.835	5.3
475.037	5.2
475.239	5.25
475.441	5.24
475.643	5.23
475.845	5.27
476.047	5.27
476.249	5.21
476.451	5.25
476.653	5.21
476.855	5.18
477.057	5.1
477.258	5.06
477.46	5.01
477.662	5.01
477.864	5.03
478.066	5.06
478.268	5.03
478.469	5.06
478.671	5.07
478.873	5.11
479.075	5.06
479.276	5.09
479.478	5.11
479.68	5.09
479.882	5.14
480.083	5.14
480.285	5.16
480.487	5.11
480.688	5.16
480.89	5.18
481.091	5.11
481.293	5.14
481.495	5.14
481.696	5.17
481.898	5.17
482.099	5.13
482.301	5.13
482.502	5.12
482.704	5.15
482.905	5.12
483.107	5.12
483.308	5.15
483.51	5.14
483.711	5.14
483.913	5.16
484.114	5.16
484.315	5.18
484.517	5.15
484.718	5.15
484.92	5.11
485.121	5.11
485.322	5.07
485.524	5.05
485.725	5.06
485.926	5.08
486.127	5.06
486.329	5.04
486.53	5.06
486.731	5.09
486.932	5.1
487.134	5.09
487.335	5.09
487.536	5.12
487.737	5.13
487.938	5.13
488.139	5.1
488.341	5.07
488.542	5.11
488.743	5.11
488.944	5.09
489.145	5.08
489.346	5.15
489.547	5.19
489.748	5.2
489.949	5.21
490.15	5.22
490.351	5.26
490.552	5.3
490.753	5.28
490.954	5.26
491.155	5.3
491.356	5.29
491.557	5.3
491.758	5.29
491.959	5.27
492.159	5.27
492.36	5.28
492.561	5.25
492.762	5.23
492.963	5.24
493.164	5.24
493.364	5.34
493.565	5.41
493.766	5.37
493.967	5.39
494.167	5.39
494.368	5.41
494.569	5.46
494.769	5.51
494.97	5.54
495.171	5.51
495.371	5.56
495.572	5.43
495.773	5.35
495.973	5.35
496.174	5.3
496.375	5.3
496.575	5.4
496.776	5.34
496.976	5.4
497.177	5.45
497.377	5.51
497.578	5.43
497.778	5.46
497.979	5.44
498.179	5.49
498.38	5.56
498.58	5.62
498.78	5.54
498.981	5.49
499.181	5.4
499.382	5.42
499.582	5.37
499.782	5.41
499.983	5.41
500.183	5.52
500.383	5.53
500.584	5.54
500.784	5.54
500.984	5.58
501.184	5.7
501.385	5.76
501.585	5.91
501.785	5.94
501.985	6.01
502.185	6.04
502.386	6
502.586	6.03
502.786	6.11
502.986	6.06
503.186	6.07
503.386	6.12
503.586	6.14
503.786	6.04
503.987	6.09
504.187	6.08
504.387	6.13
504.587	6.15
504.787	6.22
504.987	6.24
505.187	6.35
505.387	6.41
505.587	6.43
505.786	6.46
505.986	6.52
506.186	6.55
506.386	6.6
506.586	6.62
506.786	6.7
506.986	6.67
507.186	6.66
507.386	6.75
507.585	6.76
507.785	6.79
507.985	6.81
508.185	6.82
508.384	6.89
508.584	6.94
508.784	6.87
508.984	6.96
509.183	6.99
509.383	6.98
509.583	7
509.782	7.06
509.982	7.07
510.182	7.1
510.381	7.16
510.581	7.17
510.781	7.13
510.98	7.23
511.18	7.23
511.379	7.31
511.579	7.37
511.778	7.36
511.978	7.41
512.177	7.46
512.377	7.56
512.576	7.53
512.776	7.59
512.975	7.73
513.175	7.81
513.374	7.81
513.573	7.8
513.773	7.83
513.972	7.92
514.172	7.9
514.371	7.93
514.57	7.92
514.77	7.99
514.969	8.02
515.168	8.1
515.367	8.18
515.567	8.26
515.766	8.38
515.965	8.46
516.164	8.56
516.364	8.68
516.563	8.79
516.762	8.9
516.961	9.02
517.16	9.09
517.359	9.14
517.559	9.16
517.758	9.21
517.957	9.25
518.156	9.29
518.355	9.28
518.554	9.27
518.753	9.33
518.952	9.37
519.151	9.4
519.35	9.47
519.549	9.53
519.748	9.58
519.947	9.69
520.146	9.8
520.345	9.94
520.544	10.1
520.743	10.23
520.942	10.3
521.141	10.33
521.339	10.38
521.538	10.39
521.737	10.48
521.936	10.55
522.135	10.56
522.333	10.61
522.532	10.66
522.731	10.7
522.93	10.79
523.129	10.88
523.327	11.02
523.526	11.17
523.725	11.22
523.923	11.27
524.122	11.4
524.321	11.56
524.519	11.56
524.718	11.68
524.917	11.74
525.115	11.85
525.314	11.91
525.512	12
525.711	12.03
525.909	12.16
526.108	12.25
526.306	12.28
526.505	12.37
526.703	12.54
526.902	12.59
527.1	12.7
527.299	12.77
527.497	12.89
527.696	12.97
527.894	13.02
528.092	13.11
528.291	13.17
528.489	13.23
528.688	13.25
528.886	13.25
529.084	13.29
529.283	13.31
529.481	13.33
529.679	13.31
529.877	13.31
530.076	13.36
530.274	13.38
530.472	13.4
530.67	13.47
530.869	13.55
531.067	13.63
531.265	13.71
531.463	13.84
531.661	13.94
531.859	14.07
532.057	14.21
532.255	14.31
532.454	14.35
532.652	14.44
532.85	14.47
533.048	14.51
533.246	14.58
533.444	14.6
533.642	14.63
533.84	14.67
534.038	14.7
534.236	14.66
534.434	14.72
534.632	14.74
534.83	14.78
535.027	14.87
535.225	14.96
535.423	15.01
535.621	15.08
535.819	15.14
536.017	15.21
536.215	15.23
536.412	15.33
536.61	15.34
536.808	15.45
537.006	15.48
537.203	15.47
537.401	15.46
537.599	15.5
537.797	15.62
537.994	15.61
538.192	15.63
538.39	15.7
538.587	15.81
538.785	15.9
538.983	16.01
539.18	16.12
539.378	16.23
539.575	16.33
539.773	16.43
539.97	16.47
540.168	16.55
540.366	16.64
540.563	16.73
540.761	16.78
540.958	16.87
541.155	16.89
541.353	16.92
541.55	16.94
541.748	16.99
541.945	17
542.143	17
542.34	17.05
542.537	17.07
542.735	17.07
542.932	17.11
543.129	17.08
543.327	17.09
543.524	17.1
543.721	17.18
543.919	17.15
544.116	17.22
544.313	17.22
544.51	17.25
544.708	17.36
544.905	17.46
545.102	17.43
545.299	17.45
545.496	17.54
545.693	17.57
545.891	17.59
546.088	17.62
546.285	17.61
546.482	17.75
546.679	17.83
546.876	17.76
547.073	17.74
547.27	17.78
547.467	17.82
547.664	17.87
547.861	17.95
548.058	17.96
548.255	18.14
548.452	18.18
548.649	18.17
548.846	18.08
549.043	18.09
549.24	18.18
549.437	18.26
549.633	18.34
549.83	18.16
550.027	18.15
550.224	18.24
550.421	18.19
550.618	18.23
550.814	18.33
551.011	18.5
551.208	18.67
551.405	18.62
551.601	18.58
551.798	18.57
551.995	18.66
552.191	18.77
552.388	18.81
552.585	18.86
552.781	18.89
552.978	18.82
553.175	18.82
553.371	18.83
553.568	18.98
553.764	19.02
553.961	18.99
554.157	19.05
554.354	19
554.55	18.96
554.747	19.01
554.943	19.17
555.14	19.18
555.336	19.21
555.533	19.19
555.729	19.03
555.926	18.97
556.122	19.04
556.318	19.06
556.515	19.15
556.711	19.12
556.907	19.15
557.104	18.97
557.3	19.13
557.496	19.14
557.693	19.15
557.889	19.39
558.085	19.53
558.281	19.73
558.478	19.84
558.674	19.86
558.87	19.99
559.066	19.9
559.262	20.03
559.459	20.03
559.655	20.03
559.851	20.19
560.047	20.16
560.243	20.31
560.439	20.29
560.635	20.26
560.831	20.23
561.027	20.28
561.223	20.46
561.419	20.42
561.615	20.38
561.811	20.41
562.007	20.3
562.203	20.28
562.399	20.18
562.595	20.17
562.791	20.22
562.987	20.28
563.183	20.25
563.379	20.18
563.575	20.15
563.771	20.23
563.966	20.3
564.162	20.36
564.358	20.45
564.554	20.64
564.75	20.69
564.945	20.78
565.141	20.81
565.337	20.88
565.533	20.98
565.728	21.04
565.924	21.01
566.12	21.03
566.315	21.02
566.511	20.93
566.707	20.81
566.902	20.88
567.098	20.9
567.293	20.89
567.489	20.85
567.684	20.81
567.88	20.89
568.076	20.9
568.271	21.02
568.467	21.05
568.662	21.18
568.858	21.25
569.053	21.12
569.248	21.16
569.444	21.21
569.639	21.31
569.835	21.36
570.03	21.32
570.225	21.44
570.421	21.38
570.616	21.44
570.812	21.38
571.007	21.4
571.202	21.39
571.397	21.37
571.593	21.43
571.788	21.47
571.983	21.57
572.178	21.66
572.374	21.69
572.569	21.74
572.764	21.72
572.959	21.77
573.154	21.78
573.35	21.9
573.545	21.87
573.74	22.01
573.935	22.03
574.13	21.9
574.325	21.9
574.52	21.92
574.715	21.94
574.91	22
575.105	22.11
575.3	22.14
575.495	22.15
575.69	22.18
575.885	22.04
576.08	22.02
576.275	22.15
576.47	22.13
576.665	22.2
576.86	22.14
577.055	22.05
577.25	21.95
577.444	21.95
577.639	22.08
577.834	22.22
578.029	22.17
578.224	22.26
578.418	22.17
578.613	22.3
578.808	22.26
579.003	22.34
579.197	22.4
579.392	22.41
579.587	22.52
579.781	22.51
579.976	22.37
580.171	22.56
580.365	22.5
580.56	22.61
580.755	22.55
580.949	22.56
581.144	22.49
581.338	22.57
581.533	22.74
581.727	22.66
581.922	22.63
582.116	22.77
582.311	22.83
582.505	22.79
582.7	22.78
582.894	22.84
583.089	22.82
583.283	22.82
583.478	22.81
583.672	22.81
583.866	22.7
584.061	22.76
584.255	22.68
584.449	22.62
584.644	22.65
584.838	22.74
585.032	22.81
585.226	22.74
585.421	22.9
585.615	23.01
585.809	22.95
586.003	23.19
586.198	23.13
586.392	23.16
586.586	23.23
586.78	23.35
586.974	23.45
587.168	23.36
587.363	23.34
587.557	23.34
587.751	23.34
587.945	23.34
588.139	23.32
588.333	23.36
588.527	23.31
588.721	23.25
588.915	23.31
589.109	23.23
589.303	23.34
589.497	23.48
589.691	23.46
589.885	23.43
590.079	23.6
590.273	23.64
590.466	23.64
590.66	23.77
590.854	23.86
591.048	23.75
591.242	23.73
591.436	23.79
591.629	23.99
591.823	23.98
592.017	24.09
592.211	24.1
592.404	24.06
592.598	24.05
592.792	24.14
592.986	24.01
593.179	24.03
593.373	24.03
593.567	24.05
593.76	23.8
593.954	23.9
594.147	23.89
594.341	23.87
594.535	23.91
594.728	24.02
594.922	24.05
595.115	24.18
595.309	24.28
595.502	24.4
595.696	24.27
595.889	24.29
596.083	24.22
596.276	24.13
596.47	24.02
596.663	24.01
596.856	24.02
597.05	23.98
597.243	23.92
597.437	23.95
597.63	23.84
597.823	23.93
598.017	24.01
598.21	24.24
598.403	24.25
598.596	24.4
598.79	24.41
598.983	24.42
599.176	24.58
599.369	24.65
599.563	24.41
599.756	24.5
599.949	24.54
600.142	24.52
600.335	24.35
600.528	24.4
600.722	24.22
600.915	24.31
601.108	24.21
601.301	24.15
601.494	24.1
601.687	24.4
601.88	24.36
602.073	24.23
602.266	24.29
602.459	24.18
602.652	24.2
602.845	24.36
603.038	24.29
603.231	24.35
603.424	24.26
603.617	24.24
603.809	24.15
604.002	24.11
604.195	24.23
604.388	24.29
604.581	24.37
604.774	24.42
604.966	24.45
605.159	24.46
605.352	24.47
605.545	24.53
605.737	24.62
605.93	24.66
606.123	24.81
606.316	24.85
606.508	24.72
606.701	24.66
606.894	24.73
607.086	24.67
607.279	24.82
607.471	24.97
607.664	24.96
607.857	25.01
608.049	25.1
608.242	25.17
608.434	25.18
608.627	25.42
608.819	25.62
609.012	25.77
609.204	26.03
609.397	26.18
609.589	26.4
609.782	26.61
609.974	26.87
610.166	26.93
610.359	27.16
610.551	27.47
610.743	27.68
610.936	27.79
611.128	27.83
611.32	27.8
611.513	27.74
611.705	27.55
611.897	27.5
612.09	27.4
612.282	27.35
612.474	27.33
612.666	27.14
612.858	26.89
613.051	26.77
613.243	26.7
613.435	26.56
613.627	26.55
613.819	26.68
614.011	26.59
614.203	26.47
614.395	26.46
614.588	26.29
614.78	26.14
614.972	26.04
615.164	25.89
615.356	25.75
615.548	25.68
615.74	25.67
615.932	25.5
616.124	25.6
616.315	25.61
616.507	25.66
616.699	25.62
616.891	25.7
617.083	25.81
617.275	25.82
617.467	26
617.659	26
617.85	25.94
618.042	25.89
618.234	25.77
618.426	25.62
618.618	25.53
618.809	25.44
619.001	25.31
619.193	25.32
619.384	25.38
619.576	25.29
619.768	25.29
619.959	25.44
620.151	25.45
620.343	25.56
620.534	25.75
620.726	25.86
620.917	25.8
621.109	26.03
621.301	25.95
621.492	25.95
621.684	26.02
621.875	26.01
622.067	25.91
622.258	25.93
622.45	25.82
622.641	25.69
622.832	25.56
623.024	25.74
623.215	25.53
623.407	25.64
623.598	25.64
623.789	25.52
623.981	25.56
624.172	25.43
624.363	25.57
624.555	25.67
624.746	26
624.937	26.06
625.129	26.04
625.32	26.15
625.511	26.04
625.702	26.19
625.893	26.21
626.085	26.29
626.276	26.38
626.467	26.4
626.658	26.33
626.849	26.12
627.04	26.13
627.231	26.09
627.422	26.14
627.614	26.23
627.805	26.24
627.996	26.29
628.187	26.15
628.378	26.29
628.569	26.28
628.76	26.36
628.951	26.46
629.142	26.62
629.332	26.66
629.523	26.59
629.714	26.66
629.905	26.71
630.096	26.84
630.287	27.08
630.478	26.96
630.669	26.94
630.859	26.82
631.05	26.8
631.241	26.72
631.432	26.82
631.623	26.86
631.813	26.75
632.004	26.74
632.195	26.68
632.385	26.48
632.576	26.57
632.767	26.65
632.957	26.75
633.148	26.8
633.339	26.68
633.529	26.5
633.72	26.5
633.91	26.63
634.101	26.48
634.292	26.45
634.482	26.56
634.673	26.61
634.863	26.48
635.054	26.43
635.244	26.33
635.435	26.4
635.625	26.39
635.815	26.4
636.006	26.32
636.196	26.38
636.387	26.35
636.577	26.46
636.767	26.32
636.958	26.3
637.148	26.2
637.338	26.16
637.529	26.12
637.719	26.23
637.909	26.21
638.099	26.15
638.29	26.02
638.48	25.97
638.67	25.88
638.86	26.04
639.05	26.15
639.241	26.23
639.431	26.37
639.621	26.45
639.811	26.45
640.001	26.45
640.191	26.6
640.381	26.67
640.571	26.74
640.761	26.78
640.951	26.58
641.141	26.67
641.331	26.73
641.521	26.87
641.711	26.84
641.901	26.79
642.091	26.84
642.281	26.8
642.471	27.05
642.661	27.2
642.851	27.12
643.041	26.96
643.231	26.99
643.42	27.12
643.61	27.17
643.8	27.08
643.99	27.03
644.18	26.83
644.369	26.98
644.559	26.84
644.749	26.82
644.939	26.8
645.128	27.1
645.318	27.03
645.508	27.08
645.697	26.8
645.887	26.85
646.076	27
646.266	27.18
646.456	26.97
646.645	26.97
646.835	26.98
647.024	27.1
647.214	27.23
647.403	27.19
647.593	27.18
647.782	27.19
647.972	27.29
648.161	27.25
648.351	27.29
648.54	27.29
648.73	27.49
648.919	27.27
649.108	27.33
649.298	27.08
649.487	27.14
649.677	27.05
649.866	27.11
650.055	27.35
650.244	27.48
650.434	27.43
650.623	27.63
650.812	27.43
651.002	27.46
651.191	27.48
651.38	27.46
651.569	27.3
651.758	27.6
651.947	27.77
652.137	27.59
652.326	27.67
652.515	27.63
652.704	27.49
652.893	27.72
653.082	27.95
653.271	27.8
653.46	28
653.649	28.15
653.838	28.02
654.027	27.72
654.216	27.61
654.405	27.54
654.594	27.58
654.783	27.65
654.972	27.75
655.161	27.67
655.35	27.77
655.539	27.96
655.728	27.8
655.916	27.88
656.105	28.02
656.294	28.07
656.483	28.05
656.672	28.04
656.86	27.9
657.049	27.6
657.238	27.61
657.427	27.54
657.615	27.38
657.804	27.62
657.993	27.44
658.181	27.5
658.37	27.64
658.559	27.79
658.747	28.02
658.936	28
659.125	27.67
659.313	27.68
659.502	27.81
659.69	27.77
659.879	27.8
660.067	27.88
660.256	27.94
660.444	27.77
660.633	27.62
660.821	27.47
661.01	27.63
661.198	27.9
661.387	28.03
661.575	28.14
661.763	28.11
661.952	27.92
662.14	27.94
662.328	27.97
662.517	28.16
662.705	28
662.893	27.95
663.082	28.11
663.27	28.5
663.458	28.36
663.646	28.22
663.834	28.27
664.023	28.44
664.211	28.5
664.399	28.39
664.587	28.07
664.775	28.22
664.963	28.27
665.152	28.03
665.34	27.88
665.528	27.99
665.716	27.87
665.904	28.02
666.092	28.03
666.28	27.88
666.468	27.8
666.656	28.34
666.844	28.26
667.032	28.24
667.22	28.48
667.408	28.44
667.596	28.59
667.784	28.74
667.971	28.82
668.159	28.75
668.347	28.66
668.535	28.67
668.723	28.74
668.911	28.97
669.098	28.91
669.286	28.69
669.474	28.67
669.662	28.39
669.849	28.43
670.037	28.19
670.225	28.27
670.413	28.26
670.6	28.33
670.788	27.89
670.976	27.97
671.163	28.08
671.351	28.11
671.538	28.27
671.726	28.3
671.913	28.07
672.101	27.97
672.289	27.8
672.476	27.73
672.664	27.64
672.851	27.69
673.039	27.38
673.226	27.25
673.413	27.4
673.601	26.92
673.788	26.82
673.976	27.03
674.163	27.37
674.35	27.57
674.538	27.81
674.725	28.06
674.912	28.02
675.1	27.99
675.287	28.11
675.474	27.85
675.662	28.24
675.849	28.47
676.036	28.37
676.223	28.36
676.411	28.49
676.598	28.61
676.785	28.21
676.972	28.17
677.159	28.15
677.346	28.43
677.533	28.34
677.721	28.39
677.908	28.53
678.095	28.33
678.282	28.21
678.469	27.82
678.656	27.78
678.843	27.88
679.03	27.96
679.217	28.16
679.404	28.07
679.591	28.4
679.778	28.51
679.964	28.16
680.151	28.33
680.338	28.33
680.525	28.5
680.712	28.6
680.899	28.79
681.086	28.91
681.272	28.88
681.459	28.93
681.646	28.96
681.833	28.88
682.02	28.96
682.206	28.91
682.393	29.02
682.58	28.91
682.766	28.85
682.953	28.75
683.14	28.67
683.326	28.47
683.513	28.59
683.7	28.55
683.886	28.26
684.073	28.36
684.259	28.72
684.446	28.7
684.632	28.96
684.819	28.91
685.005	28.99
685.192	29.06
685.378	29.35
685.565	29.13
685.751	28.91
685.938	29.32
686.124	29.26
686.31	28.99
686.497	29.06
686.683	29.07
686.87	29.08
687.056	29.22
687.242	29.22
687.429	28.82
687.615	28.87
687.801	28.92
687.987	28.72
688.174	28.71
688.36	28.89
688.546	28.75
688.732	28.53
688.918	28.31
689.105	28.28
689.291	28.42
689.477	28.7
689.663	28.54
689.849	28.65
690.035	28.53
690.221	28.52
690.407	28.48
690.593	28.55
690.779	28.77
690.965	28.76
691.151	28.59
691.337	28.57
691.523	28.57
691.709	28.84
691.895	29.07
692.081	29.24
692.267	29.45
692.453	29.52
692.639	29.25
692.825	29.03
693.011	29.2
693.196	29.19
693.382	28.8
693.568	28.96
693.754	28.88
693.94	28.69
694.125	28.45
694.311	28.52
694.497	28.32
694.682	28.7
694.868	28.97
695.054	29.27
695.239	29.38
695.425	29.67
695.611	29.58
695.796	29.62
695.982	29.49
696.168	29.65
696.353	29.65
696.539	29.71
696.724	29.81
696.91	29.81
697.095	29.49
697.281	29.37
697.466	29.38
697.652	29.16
697.837	29.3
698.023	29.37
698.208	29.48
698.393	29.44
698.579	29.35
698.764	29.21
698.949	29.21
699.135	29.14
699.32	29.38
699.505	29.44
699.691	29.78
699.876	29.7
700.061	29.67
700.246	29.63
700.432	29.59
700.617	29.87
700.802	29.86
700.987	29.81
701.172	30.03
701.358	29.83
701.543	29.83
701.728	29.87
701.913	29.67
702.098	29.68
702.283	29.87
702.468	30
702.653	29.97
702.838	29.89
703.023	29.89
703.208	29.94
703.393	30.3
703.578	30.26
703.763	30.19
703.948	30.37
704.133	31.08
704.318	31.13
704.503	31.17
704.688	31.22
704.873	31.52
705.057	31.68
705.242	31.81
705.427	31.78
705.612	32
705.797	31.72
705.981	31.67
706.166	31.3
706.351	30.97
706.536	30.86
706.72	30.95
706.905	30.7
707.09	30.4
707.274	30.6
707.459	30.55
707.644	30.47
707.828	30.92
708.013	31.27
708.197	31.04
708.382	31.45
708.567	31.7
708.751	31.93
708.936	31.74
709.12	32.14
709.305	31.85
709.489	31.9
709.673	31.82
709.858	31.51
710.042	31.29
710.227	31.57
710.411	31.44
710.596	31.14
710.78	30.87
710.964	31.24
711.149	31.09
711.333	30.92
711.517	30.92
711.702	30.83
711.886	30.78
712.07	30.61
712.254	30.34
712.438	30.06
712.623	30.22
712.807	29.98
712.991	29.9
713.175	29.81
713.359	29.91
713.544	29.78
713.728	29.85
713.912	29.83
714.096	30.17
714.28	30.23
714.464	30.34
714.648	30.32
714.832	30.12
715.016	30.11
715.2	30.25
715.384	30.12
715.568	30.11
715.752	29.89
715.936	29.99
716.12	29.59
716.304	29.65
716.488	29.69
716.671	29.57
716.855	29.78
717.039	29.83
717.223	29.51
717.407	29.66
717.59	29.52
717.774	29.7
717.958	29.59
718.142	29.32
718.325	29.31
718.509	29.33
718.693	29.17
718.877	28.81
719.06	28.43
719.244	28.54
719.428	28.64
719.611	28.86
719.795	28.87
719.978	29.23
720.162	29.51
720.345	29.49
720.529	29.11
720.713	29.27
720.896	29.8
721.08	30.06
721.263	30.41
721.446	30.25
721.63	29.73
721.813	29.81
721.997	29.82
722.18	30.16
722.364	30.02
722.547	30.39
722.73	30.25
722.914	29.8
723.097	29.77
723.28	29.23
723.464	29.35
723.647	29.69
723.83	29.47
724.013	29.4
724.197	28.92
724.38	28.77
724.563	28.49
724.746	28.51
724.929	28.99
725.112	28.97
725.296	29.49
725.479	29.14
725.662	29.42
725.845	29.31
726.028	29.09
726.211	29.25
726.394	29.26
726.577	29.49
726.76	30.01
726.943	30.02
727.126	30.03
727.309	29.7
727.492	30.27
727.675	29.78
727.858	30.09
728.041	29.95
728.224	29.94
728.407	29.66
728.589	29.67
728.772	29.15
728.955	29.33
729.138	29.41
729.321	29.45
729.503	29.2
729.686	29.33
729.869	29.39
730.052	29.54
730.234	29.57
730.417	29.94
730.6	29.84
730.782	30.12
730.965	29.79
731.148	29.62
731.33	30.09
731.513	29.72
731.695	29.45
731.878	29.15
732.061	29.39
732.243	29.5
732.426	29.18
732.608	29.28
732.791	29.24
732.973	29.39
733.156	29.65
733.338	29.27
733.52	29.28
733.703	29.73
733.885	30.08
734.068	29.92
734.25	30
734.432	30.54
734.615	30.75
734.797	30.47
734.979	30.44
735.162	30.29
735.344	30.39
735.526	30.97
735.708	31.21
735.891	31
736.073	31.19
736.255	30.92
736.437	30.63
736.619	30.53
736.802	30.94
736.984	30.56
737.166	30.42
737.348	30.18
737.53	30.24
737.712	29.94
737.894	30.09
738.076	29.74
738.258	30.32
738.44	30.55
738.622	30.33
738.804	30.57
738.986	30.28
739.168	30.51
739.35	30.48
739.532	30.24
739.714	30.03
739.896	29.84
740.078	30.09
740.259	30.17
740.441	29.76
740.623	29.79
740.805	29.46
740.987	30.04
741.168	30.49
741.35	30.51
741.532	30.45
741.714	30.75
741.895	31.06
742.077	31.36
742.259	31
742.44	31.48
742.622	31.42
742.804	31.2
742.985	31.08
743.167	30.53
743.348	31.01
743.53	30.95
743.711	31.07
743.893	31.28
744.075	31.1
744.256	30.94
744.438	30.83
744.619	31.2
744.8	31.2
744.982	31.91
745.163	32.08
745.345	31.66
745.526	31.8
745.707	32.02
745.889	31.71
746.07	31.5
746.252	31.64
746.433	31.82
746.614	31.49
746.795	31.73
746.977	31.34
747.158	31.25
747.339	31.65
747.52	31.37
747.702	31.06
747.883	31.19
748.064	31
748.245	30.45
748.426	30.18
748.607	30.54
748.788	30.49
748.97	29.86
749.151	29.43
749.332	29.11
749.513	29.52
749.694	29.54
749.875	29.08
750.056	29.25
750.237	29.96
750.418	30.06
750.599	29.56
750.78	29.8
750.96	30.25
751.141	30.8
751.322	31.11
751.503	31.21
751.684	31.76
751.865	31.92
752.046	31.94
752.226	31.41
752.407	31.34
752.588	31.98
752.769	32.39
752.949	32.62
753.13	31.99
753.311	32.15
753.492	32.27
753.672	32.24
753.853	32.01
754.034	32.4
754.214	33.26
754.395	33.3
754.575	33.72
754.756	33.05
754.937	32.73
755.117	33.69
755.298	33.28
755.478	33.22
755.659	32.37
755.839	32.36
756.02	32.37
756.2	31.59
756.381	31.56
756.561	30.81
756.741	31.41
756.922	31.7
757.102	31.25
757.283	31.59
757.463	31.5
757.643	31.85
757.823	32.99
758.004	32.27
758.184	32.28
758.364	32.12
758.545	31.95
758.725	30.8
758.905	30.2
759.085	30.24
759.265	30
759.446	29.39
759.626	28.64
759.806	27.56
759.986	27.24
760.166	27.9
760.346	27.63
760.526	28.07
760.706	28.77
760.886	29.16
761.066	28.96
761.246	28.95
761.426	29.32
761.606	29.84
761.786	30.19
761.966	30.44
762.146	29.64
762.326	29.38
762.506	28.64
762.686	28.35
762.866	28.7
763.046	28.67
763.225	28.56
763.405	28.31
763.585	28.16
763.765	27.88
763.945	27.88
764.124	28.02
764.304	28.35
764.484	28.72
764.664	28.86
764.843	28.65
765.023	29.11
765.203	29.57
765.382	30.03
765.562	29.9
765.741	30.36
765.921	30.41
766.101	30.57
766.28	30.51
766.46	30.91
766.639	31.03
766.819	30.66
766.998	29.98
767.178	29.69
767.357	29.51
767.537	30.42
767.716	30.07
767.896	30.04
768.075	30.33
768.254	30.47
768.434	29.89
768.613	29.76
768.792	29.65
768.972	30.33
769.151	30.43
769.33	30.28
769.51	29.9
769.689	29.96
769.868	30.16
770.047	30.51
770.226	30.09
770.406	30.1
770.585	30.5
770.764	30.87
770.943	30.21
771.122	29.86
771.301	30.57
771.48	30.64
771.66	30.36
771.839	30.35
772.018	29.9
772.197	30.49
772.376	31.02
772.555	30.44
772.734	30.6
772.913	31.1
773.092	31.86
773.271	31.68
773.449	31.26
773.628	31.63
773.807	31.99
773.986	31.9
774.165	31.83
774.344	31.63
774.523	31.7
774.701	31.63
774.88	31.75
775.059	31.46
775.238	31.44
775.417	32.22
775.595	32.13
775.774	32.13
775.953	31.73
776.131	32.32
776.31	32.05
776.489	31.94
776.667	31.61
776.846	31.11
777.025	30.77
777.203	30.84
777.382	29.93
777.56	30.45
777.739	30.69
777.917	31.02
778.096	31.39
778.274	32.39
778.453	33.11
778.631	33.41
778.81	33.25
778.988	33.03
779.166	33.4
779.345	34.32
779.523	34.51
779.702	33.78
779.88	34.22
780.058	32.93
780.237	31.76
780.415	31.13
780.593	31.68
780.771	32.02
780.95	32.67
781.128	31.63
781.306	31.8
781.484	30.64
781.662	30.36
781.841	30.21
782.019	30.18
782.197	30.96
782.375	31.52
782.553	30.38
782.731	30.83
782.909	30.27
783.087	30.33
783.265	29.58
783.443	30.82
783.621	31.26
783.799	31.52
783.977	32.05
784.155	32.21
784.333	32.82
784.511	33.74
784.689	33.58
784.867	34.33
785.045	34.98
785.223	35.32
785.4	33.95
785.578	34.36
785.756	34.86
785.934	35.71
786.112	35.49
786.289	33.78
786.467	34
786.645	33.94
786.823	33.09
787	32.77
787.178	32.85
787.356	33.1
787.533	32.43
787.711	30.91
787.889	29.42
788.066	29.01
788.244	29.2
788.421	28.82
788.599	29.11
788.776	29.16
788.954	29.6
789.131	28.79
789.309	28.92
789.486	29.59
789.664	30.17
789.841	31.12
790.019	30.98
790.196	31.55
790.373	31.88
790.551	31.37
790.728	32.15
790.906	31.39
791.083	32.42
791.26	32.1
791.437	32.28
791.615	32.34
791.792	31.97
791.969	32.17
792.146	31.55
792.324	31.03
792.501	30.79
792.678	30.01
792.855	31.22
793.032	30.93
793.209	30.9
793.387	30.05
793.564	28.96
793.741	29.09
793.918	29.28
794.095	30.03
794.272	30.42
794.449	30.64
794.626	30.52
794.803	29.53
794.98	29.6
795.157	28.98
795.334	30.23
795.511	30.97
795.688	30.7
795.864	29.52
796.041	29.86
796.218	29.3
796.395	28.96
796.572	29.02
796.749	28.43
796.925	27.73
797.102	28.81
797.279	27.97
797.456	27.77
797.632	28.17
797.809	28.5
797.986	28.35
798.162	29.04
798.339	29.84
798.516	29.63
798.692	30.26
798.869	30.49
799.046	30.78
799.222	30.07
799.399	29.89
799.575	29.7
799.752	29.98
799.928	29.28
800.105	28.99
800.281	28.41
800.458	29.24
800.634	28.23
800.811	28.4
800.987	27.2
801.163	27.85
801.34	27.75
801.516	27.32
801.692	28.46
801.869	28.76
802.045	28.36
802.221	27.77
802.398	27.33
802.574	28.83
802.75	29.52
802.926	30.34
803.103	30.3
803.279	30.06
803.455	30.48
803.631	29.38
803.807	29.19
803.983	29.74
804.16	30.97
804.336	30.47
804.512	30.68
804.688	29.08
804.864	28.44
805.04	28.09
805.216	28.54
805.392	29.34
805.568	28.49
805.744	26.4
805.92	25.96
806.096	24.74
806.272	24.53
806.448	23.18
806.623	24.87
806.799	26.36
806.975	26.82
807.151	26.76
807.327	25.26
807.503	25.92
807.678	28.93
807.854	28.57
808.03	28.95
808.206	29.5
808.381	30.05
808.557	28.62
808.733	27.62
808.908	27.73
809.084	27.78
809.26	28.89
809.435	30.42
809.611	29
809.787	29.42
809.962	29.03
810.138	29.27
810.313	29.74
810.489	30.85
810.664	30.49
810.84	29.97
811.015	31
811.191	30.98
811.366	29.35
811.542	29.65
811.717	28.95
811.892	29.9
812.068	29.54
812.243	28.97
812.419	28.68
812.594	28.94
812.769	29.72
812.944	28.39
813.12	27.54
813.295	27.66
813.47	27.11
813.645	28.25
813.821	28.44
813.996	29.23
814.171	29.55
814.346	30.2
814.521	30.48
814.697	30.24
814.872	30.42
815.047	29.95
815.222	30.39
815.397	30.22
815.572	28.7
815.747	27.05
815.922	25.45
816.097	25.38
816.272	24.51
816.447	24.23
816.622	23.54
816.797	23.06
816.972	22.99
817.147	22.71
817.322	23.14
817.496	24.1
817.671	23.81
817.846	23.77
818.021	22.54
818.196	21.16
818.371	22.03
818.545	21.9
818.72	23.04
818.895	24.09
819.069	23.83
819.244	24
819.419	23.83
819.594	25.49
819.768	26.16
819.943	26.31
820.117	27.34
820.292	26.09
820.467	26.31
820.641	26.02
820.816	25.44
820.99	25.73
821.165	26.23
821.339	26.49
821.514	26.34
821.688	26.29
821.863	26.47
822.037	26.34
822.212	26.68
822.386	26.8
822.56	27.09
822.735	27.41
822.909	27.4
823.084	27.11
823.258	26.91
823.432	26.94
823.606	27.25
823.781	27.37
823.955	27.71
824.129	27.84
824.303	28.03
824.478	27.99
824.652	27.71
824.826	27.96
825	28.46
825.174	28.63
825.348	28.38
825.523	27.52
825.697	27.34
825.871	27.01
826.045	26.91
826.219	26.56
826.393	26.55
826.567	26.98
826.741	26.76
826.915	26.57
827.089	26.93
827.263	27.18
827.437	27.61
827.611	27.9
827.784	27.62
827.958	27.52
828.132	27.52
828.306	27.45
828.48	27.19
828.654	26.89
828.827	26.92
829.001	27.09
829.175	27.39
829.349	27.83
829.522	27.82
829.696	28.07
829.87	27.76
830.044	27.84
830.217	28.07
830.391	28.97
830.565	29.22
830.738	29.9
830.912	29.5
831.085	27.74
831.259	26.12
831.432	25.84
831.606	26.6
831.779	26.6
831.953	26.04
832.126	25.31
832.3	24.48
832.473	25.23
832.647	24.12
832.82	23.93
832.994	26.39
833.167	27.81
833.34	28.15
833.514	28.02
833.687	28.14
833.86	28.85
834.034	28.95
834.207	29.46
834.38	29.67
834.553	30.28
834.727	30.94
834.9	29.64
835.073	28.62
835.246	28.16
835.419	28.1
835.593	27.86
835.766	27.55
835.939	28.1
836.112	27.45
836.285	26.93
836.458	26.69
836.631	25.99
836.804	25.69
836.977	26.46
837.15	26.72
837.323	26.88
837.496	27.51
837.669	25.8
837.842	24.03
838.015	24.99
838.188	25.22
838.361	24.67
838.533	25.33
838.706	27.7
838.879	28.77
839.052	30.9
839.225	30.96
839.398	31.48
839.57	33.52
839.743	35.77
839.916	34.62
840.088	35.36
840.261	33.66
840.434	33.11
840.607	31.9
840.779	31.27
840.952	28.57
841.124	27.86
841.297	27.78
841.47	27.04
841.642	26.37
841.815	26.2
841.987	24.83
842.16	25.71
842.332	26.85
842.505	27.12
842.677	25.22
842.85	26.44
843.022	27.78
843.194	26.58
843.367	26.56
843.539	26.67
843.712	26.81
843.884	26.69
844.056	28.99
844.229	28.26
844.401	27.54
844.573	31.72
844.745	30.81
844.918	29.19
845.09	28.83
845.262	30.57
845.434	29.98
845.606	26.69
845.779	28.5
845.951	28.39
846.123	28.42
846.295	28.77
846.467	26.76
846.639	27.82
846.811	28.43
846.983	31.06
847.155	29.03
847.327	25.29
847.499	28.33
847.671	27.09
847.843	26.6
848.015	24.86
848.187	23.55
848.359	25.7
848.531	24.34
848.703	20.88
848.875	17.95
849.047	15.78
849.218	17.14
849.39	18.02
849.562	17.81
849.734	20.57
849.905	20.22
850.077	21.8
850.249	19.99
850.421	21.27
850.592	23.59
850.764	23.93
850.936	30.97
851.107	30.62
851.279	30.09
851.451	28.92
851.622	27.02
851.794	25.7
851.965	25.13
852.137	24.67
852.308	23.22
852.48	24.86
852.651	23.16
852.823	18.7
852.994	19.54
853.166	21.44
853.337	21.8
853.509	21.7
853.68	27.39
853.851	27.8
854.023	27.71
854.194	30.4
854.365	27.74
854.537	32.27
854.708	32.7
854.879	30.48
855.05	28.51
855.222	31.43
855.393	31.2
855.564	26.8
855.735	23.86
855.906	24.39
856.078	20.18
856.249	18.83
856.42	17.6
856.591	19.31
856.762	25.6
856.933	23.77
857.104	17.93
857.275	18.26
857.446	17.6
857.617	17.61
857.788	13.7
857.959	13.98
858.13	18.07
858.301	16.37
858.472	12.06
858.643	7.91
858.814	11.56
858.985	11.83
859.155	12.1
859.326	12.03
859.497	18
859.668	18.59
859.839	18.8
860.009	18.05
860.18	21.08
860.351	24.34
860.522	20.96
860.692	19.7
860.863	24.64
861.034	22.36
861.204	22.75
861.375	21.7
861.546	23.24
861.716	26.17
861.887	25.98
862.057	25.74
862.228	22.44
862.398	22.5
862.569	20.57
862.739	16.97
862.91	15.98
863.08	17.33
863.251	12.49
863.421	12.81
863.592	9.45
863.762	10.61
863.932	8.77
864.103	10.56
864.273	11.38
864.443	13.7
864.614	13.6
864.784	12
864.954	10.42
865.125	15.3
865.295	16.28
865.465	15.84
865.635	15.09
865.805	12.78
865.976	12.42
866.146	13.63
866.316	13.68
866.486	14.12
866.656	16.14
866.826	19.43
866.996	16.83
867.166	19.3
867.336	13.88
867.506	14.84
867.676	19.32
867.846	18.66
868.016	22.07
868.186	19.64
868.356	20.31
868.526	21.69
868.696	20.23
868.866	20.83
869.036	18.18
869.206	23.93
869.376	22.02
869.545	21.61
869.715	21.3
869.885	17.61
870.055	20.92
870.224	19.01
870.394	14.23
870.564	13.93
870.734	11.36
870.903	10.12
871.073	14.06
871.243	9.88
871.412	7.42
871.582	7.86
871.751	7.19
871.921	5.75
872.091	5.33
872.26	9.76
872.43	11.46
872.599	12.77
872.769	17.52
872.938	14.45
873.108	13.98
873.277	14.95
873.446	15.78
873.616	15.05
873.785	17.42
873.955	19.48
874.124	18.79
874.293	16.58
874.463	18.05
874.632	15.93
874.801	17.77
874.971	19.44
875.14	18.34
875.309	21.46
875.478	22.73
875.647	20.17
875.817	23.49
875.986	22.52
876.155	24.5
876.324	23.05
876.493	24.26
876.662	22.22
876.831	23.8
877	25.6
877.17	20.71
877.339	22.96
877.508	23.79
877.677	21.91
877.846	23.84
878.015	24.02
878.184	25.38
878.352	21.5
878.521	21.33
878.69	24.25
878.859	22.04
879.028	25.3
879.197	22.73
879.366	21.49
879.534	21.15
879.703	21.78
879.872	23.12
880.041	24.93
880.21	24.32
880.378	24.81
880.547	23.79
880.716	26.67
880.884	26.28
881.053	26.83
881.222	27.62
881.39	26.86
881.559	26.7
881.727	26.59
881.896	25.91
882.065	26.76
882.233	26.55
882.402	26.62
882.57	25.71
882.739	25.58
882.907	25.14
883.076	25
883.244	25.39
883.412	24.95
883.581	24.79
883.749	24.76
883.918	24.79
884.086	24.87
884.254	24.05
884.423	24.08
884.591	23.67
884.759	23.41
884.927	23.34
885.096	23.3
885.264	22.73
885.432	21.98
885.6	21.12
885.769	18.59
885.937	17.8
886.105	19.05
886.273	18.81
886.441	19.66
886.609	21.24
886.777	19.28
886.945	17.54
887.113	19.62
887.281	19.69
887.449	21.17
887.617	23
887.785	24.08
887.953	24.76
888.121	22.32
888.289	20.47
888.457	19.17
888.625	19.9
888.793	21.24
888.961	21.06
889.129	17.71
889.296	14.73
889.464	13.05
889.632	11.68
889.8	6.08
889.967	5.66
890.135	6.59
