Data from 2938814__Reflection_02.txt Node
Date: Thu Mar 12 16:00:12 EDT 2015
User: robert
Spectrometer: USB4E03002
Autoset integration time: false
Trigger mode: 4
Integration Time (sec): 1.000000E-1
Scans to average: 10
Electric dark correction enabled: false
Nonlinearity correction enabled: false
Boxcar width: 5
Stray light correction enabled: false
XAxis mode: Wavelengths
Stop averaging: false
Number of Pixels in Spectrum: 3648
>>>>>Begin Spectral Data<<<<<
177.575	-2173.81
177.794	-1710.77
178.014	-967.74
178.233	-4929.03
178.452	2508.97
178.672	-6748.39
178.891	-1174.87
179.11	-1232.12
179.33	-1572.29
179.549	-1774.32
179.768	-12722.73
179.987	-9314.29
180.207	-1571.52
180.426	4387.5
180.645	-2742.27
180.864	-2103.39
181.084	4068.75
181.303	1511.43
181.522	8281.25
181.741	0
181.96	65300
182.179	-9618.52
182.398	-5452
182.618	2918.95
182.837	-3581.08
183.056	-4364.41
183.275	-4145.9
183.494	-7563.64
183.713	4036.07
183.932	1654.48
184.151	1643.62
184.37	656.28
184.589	589.61
184.808	503.91
185.027	357.31
185.246	392.57
185.465	329.8
185.684	380.5
185.903	450.62
186.122	557.84
186.341	583.67
186.56	528.6
186.779	574.85
186.998	804.05
187.216	753.03
187.435	1276.21
187.654	1051.19
187.873	1554.04
188.092	1252.32
188.311	844.01
188.53	666.44
188.748	571.43
188.967	624.74
189.186	1273.33
189.405	695.4
189.623	685.2
189.842	788.04
190.061	738.2
190.28	773.8
190.498	821.61
190.717	1668.07
190.936	2388.33
191.154	1567.04
191.373	1359
191.592	2276.07
191.81	-83866.67
192.029	-1821.32
192.248	-978.01
192.466	-691.93
192.685	-947.64
192.904	-786.03
193.122	-624.84
193.341	-705.9
193.559	-730.99
193.778	-631.25
193.996	-3324.62
194.215	5768.42
194.433	749.37
194.652	434.55
194.87	396.35
195.089	522.96
195.307	606.73
195.526	509.63
195.744	466.13
195.963	444.85
196.181	472.9
196.399	520.99
196.618	547.81
196.836	752.13
197.055	1289.66
197.273	991.11
197.491	736.64
197.71	488.11
197.928	465.79
198.146	490.02
198.365	802.54
198.583	872.7
198.801	1023.96
199.019	1268.79
199.238	919.54
199.456	647.28
199.674	788.54
199.892	921.68
200.111	1060
200.329	842.38
200.547	647.17
200.765	578.3
200.983	581.3
201.202	505.19
201.42	420
201.638	499.24
201.856	579.28
202.074	478.89
202.292	409.34
202.51	827.79
202.728	953.02
202.946	1355.75
203.165	829.77
203.383	827.79
203.601	900.96
203.819	1346.05
204.037	1122.46
204.255	875.42
204.473	1103.38
204.691	4359.09
204.909	851.22
205.127	939.93
205.345	595.55
205.562	395.73
205.78	425.26
205.998	362.95
206.216	325.96
206.434	292.37
206.652	284.78
206.87	262.51
207.088	260.76
207.306	232.17
207.523	216.71
207.741	226.95
207.959	359.45
208.177	320.43
208.395	338.79
208.612	330.75
208.83	383.29
209.048	484.94
209.266	506.03
209.483	350.55
209.701	367.84
209.919	401.88
210.136	517.33
210.354	395.23
210.572	374.47
210.79	350.35
211.007	382.58
211.225	351.39
211.442	274.07
211.66	251.24
211.878	254.03
212.095	157.86
212.313	166.4
212.53	185.17
212.748	179.89
212.966	170.36
213.183	162.43
213.401	161.8
213.618	165.38
213.836	178.01
214.053	182.26
214.271	190.55
214.488	343.65
214.705	320.9
214.923	259.67
215.14	248.18
215.358	250.3
215.575	284.07
215.793	245.36
216.01	229.56
216.227	226.12
216.445	229.72
216.662	219.66
216.879	200.62
217.097	205.04
217.314	218.51
217.531	244.3
217.749	248.54
217.966	221.76
218.183	239.36
218.4	231.77
218.618	230.08
218.835	221.34
219.052	216.63
219.269	208.86
219.487	204.79
219.704	196.63
219.921	191.86
220.138	179
220.355	175.56
220.572	154.55
220.79	150.56
221.007	144.76
221.224	146.21
221.441	150.77
221.658	152.39
221.875	138.21
222.092	121.18
222.309	109.27
222.526	108.84
222.743	109.99
222.96	111.85
223.177	118.33
223.394	115.58
223.611	111.37
223.828	106.11
224.045	102.19
224.262	104.13
224.479	101.97
224.696	100.14
224.913	96.37
225.13	91.53
225.347	85.56
225.564	77.33
225.781	69.17
225.997	64.5
226.214	58.41
226.431	55.8
226.648	49.65
226.865	45.29
227.082	40.47
227.298	35.43
227.515	32.71
227.732	30.53
227.949	27.95
228.165	26.73
228.382	25.4
228.599	24.07
228.816	21.76
229.032	21.02
229.249	20.75
229.466	20.19
229.682	19.52
229.899	19.9
230.116	19.38
230.332	19.35
230.549	20.08
230.765	20.44
230.982	21.2
231.199	23.21
231.415	24.49
231.632	25.25
231.848	27.04
232.065	29.34
232.281	29.88
232.498	30.58
232.714	31.4
232.931	32
233.147	31.96
233.364	29.02
233.58	28.94
233.797	29.01
234.013	28.43
234.23	27.61
234.446	25.24
234.662	23.08
234.879	25.15
235.095	24.86
235.312	25.05
235.528	26.17
235.744	27.35
235.961	28.05
236.177	29.05
236.393	29.54
236.61	30.02
236.826	31.83
237.042	34.69
237.258	34.98
237.475	35.11
237.691	34.32
237.907	34.16
238.123	36.12
238.339	35.66
238.556	34.13
238.772	33.67
238.988	33.54
239.204	32.18
239.42	30.71
239.636	29.21
239.853	29.03
240.069	27.53
240.285	25.92
240.501	23.16
240.717	21.58
240.933	20.19
241.149	18.42
241.365	17.41
241.581	17.34
241.797	16.9
242.013	15.55
242.229	14.57
242.445	13.66
242.661	13.13
242.877	13.6
243.093	13.6
243.309	13.83
243.525	15.02
243.741	15.55
243.957	15.36
244.173	14.91
244.388	15.79
244.604	16.4
244.82	16.86
245.036	17
245.252	15.92
245.468	15.45
245.683	14.35
245.899	12.88
246.115	12.26
246.331	11.58
246.547	11.21
246.762	10.73
246.978	10.12
247.194	9.93
247.409	9.67
247.625	9.82
247.841	9.63
248.057	9.6
248.272	9.75
248.488	9.41
248.703	9.38
248.919	9.76
249.135	10.33
249.35	10.93
249.566	12.18
249.782	12.81
249.997	13.17
250.213	13.48
250.428	13.56
250.644	13.35
250.859	13.55
251.075	14.96
251.29	14.76
251.506	14.29
251.721	14.53
251.937	14.57
252.152	14.27
252.368	13.88
252.583	14.42
252.798	15.05
253.014	16.12
253.229	16.56
253.445	16.8
253.66	17.48
253.875	17.68
254.091	17.67
254.306	17.65
254.521	17.93
254.737	19.34
254.952	17.81
255.167	17.91
255.383	17.47
255.598	17.15
255.813	16.58
256.028	15.65
256.244	15.87
256.459	16.08
256.674	14.96
256.889	15.42
257.104	13.74
257.32	14.7
257.535	13.92
257.75	13.67
257.965	13.11
258.18	12.08
258.395	11.78
258.61	11.06
258.826	10.23
259.041	9.62
259.256	9.16
259.471	8.96
259.686	8.68
259.901	8.37
260.116	8.04
260.331	7.61
260.546	7.69
260.761	7.79
260.976	7.93
261.191	8.28
261.406	8.52
261.621	8.51
261.836	9.04
262.05	8.79
262.265	9.75
262.48	10.43
262.695	11.53
262.91	11.9
263.125	11.85
263.34	11.92
263.555	11.81
263.769	12.55
263.984	12.33
264.199	12.4
264.414	13.44
264.629	13.56
264.843	13.17
265.058	13.72
265.273	13.84
265.488	13.87
265.702	13.93
265.917	13.95
266.132	13.91
266.346	13.71
266.561	13.6
266.776	12.99
266.99	11.92
267.205	11.99
267.42	11.52
267.634	10.97
267.849	10.74
268.063	10.1
268.278	9.65
268.492	9.29
268.707	9.46
268.922	9.14
269.136	8.95
269.351	9.68
269.565	9.03
269.78	8.75
269.994	8.7
270.209	9.01
270.423	9.11
270.637	9.42
270.852	9.23
271.066	8.99
271.281	8.74
271.495	8.89
271.709	8.6
271.924	8.75
272.138	8.57
272.353	8.33
272.567	8.11
272.781	8.63
272.996	8.93
273.21	9.03
273.424	9.39
273.638	9.66
273.853	9.9
274.067	10.13
274.281	10.28
274.495	10.65
274.71	10.87
274.924	11.03
275.138	10.59
275.352	10.54
275.566	10.88
275.781	10.98
275.995	11.02
276.209	11.19
276.423	11.21
276.637	10.92
276.851	10.85
277.065	11.11
277.279	11.45
277.493	11.78
277.707	11.69
277.921	11.13
278.135	11
278.349	10.96
278.563	10.65
278.777	10.61
278.991	11.23
279.205	11.19
279.419	11.42
279.633	10.9
279.847	10.87
280.061	10.49
280.275	10.36
280.489	9.77
280.703	10.09
280.917	10.33
281.131	9.98
281.344	9.55
281.558	9.07
281.772	8.93
281.986	9.26
282.2	8.87
282.414	8.73
282.627	8.8
282.841	8.93
283.055	8.72
283.269	8.87
283.482	9.11
283.696	8.79
283.91	9.12
284.123	8.48
284.337	8.34
284.551	8.05
284.764	8.02
284.978	8.03
285.192	8
285.405	7.41
285.619	6.9
285.833	6.94
286.046	7.11
286.26	7.02
286.473	7.4
286.687	7.15
286.9	7.37
287.114	7.49
287.327	7.32
287.541	7.34
287.754	7.8
287.968	7.93
288.181	7.54
288.395	7.45
288.608	7.34
288.822	7.34
289.035	7.13
289.248	7.08
289.462	6.92
289.675	7.17
289.889	7.55
290.102	7.47
290.315	7.46
290.529	7.5
290.742	7.48
290.955	7.52
291.169	7.48
291.382	8.16
291.595	8.49
291.808	8.73
292.022	8.52
292.235	7.91
292.448	7.94
292.661	7.99
292.875	8.3
293.088	8.5
293.301	8.69
293.514	8.51
293.727	7.89
293.94	7.91
294.153	8.2
294.367	8.57
294.58	8.72
294.793	8.61
295.006	8.51
295.219	8.28
295.432	8.12
295.645	8.22
295.858	8.18
296.071	7.99
296.284	7.69
296.497	7.16
296.71	6.87
296.923	6.78
297.136	6.7
297.349	6.67
297.562	6.66
297.775	6.57
297.988	6.53
298.201	6.69
298.414	6.74
298.626	6.87
298.839	7.02
299.052	7.2
299.265	7.44
299.478	7.66
299.691	7.71
299.903	7.56
300.116	7.89
300.329	8.01
300.542	7.95
300.755	8.32
300.967	8.19
301.18	8.03
301.393	7.76
301.605	7.53
301.818	7.58
302.031	7.51
302.243	7.7
302.456	8.1
302.669	7.93
302.881	8.32
303.094	8.17
303.307	7.93
303.519	8.23
303.732	8.61
303.944	9.01
304.157	8.94
304.37	8.9
304.582	9.16
304.795	8.66
305.007	8.89
305.22	8.55
305.432	8.59
305.645	9.34
305.857	9.43
306.069	9.35
306.282	9.51
306.494	9.47
306.707	9.64
306.919	9.23
307.132	9.65
307.344	9.25
307.556	9.56
307.769	9.72
307.981	9.1
308.193	8.91
308.406	8.87
308.618	8.45
308.83	8.58
309.043	8.55
309.255	8.7
309.467	8.35
309.679	8.52
309.892	8.09
310.104	7.57
310.316	7.77
310.528	7.72
310.74	7.59
310.953	7.81
311.165	7.86
311.377	7.73
311.589	7.51
311.801	7.37
312.013	7.29
312.225	7.64
312.437	8.21
312.649	8.24
312.862	8.65
313.074	8.72
313.286	8.8
313.498	8.97
313.71	9.07
313.922	9.35
314.134	9.63
314.346	9.97
314.558	9.97
314.77	9.95
314.982	10.01
315.193	10
315.405	10.49
315.617	10.05
315.829	10.06
316.041	10.18
316.253	10.24
316.465	10.38
316.677	10.39
316.888	10.52
317.1	10.63
317.312	10.64
317.524	10.49
317.736	10.96
317.947	11.34
318.159	11
318.371	11.27
318.583	11.62
318.794	11.85
319.006	11.89
319.218	11.94
319.43	12.08
319.641	12.3
319.853	12.09
320.064	11.6
320.276	11.94
320.488	12.43
320.699	12.36
320.911	12.17
321.123	12.4
321.334	12.68
321.546	13.14
321.757	13.53
321.969	13.32
322.18	13.88
322.392	13.81
322.603	13.85
322.815	14.13
323.026	14.24
323.238	14.44
323.449	14.51
323.661	14.07
323.872	13.81
324.083	13.94
324.295	14.18
324.506	13.86
324.718	13.71
324.929	13.69
325.14	13.85
325.352	13.91
325.563	13.97
325.774	14.22
325.986	14.4
326.197	14.52
326.408	14.55
326.62	14.63
326.831	15.31
327.042	16
327.253	16.1
327.464	15.72
327.676	16.1
327.887	16.79
328.098	16.92
328.309	17.42
328.52	17.93
328.732	17.94
328.943	18.36
329.154	18.69
329.365	18.81
329.576	19.23
329.787	20.03
329.998	20.05
330.209	19.88
330.42	20.32
330.631	20.81
330.842	20.98
331.053	21.46
331.264	22
331.475	21.96
331.686	22.09
331.897	22.18
332.108	22.27
332.319	22.57
332.53	22.62
332.741	22.62
332.952	22.5
333.163	22.45
333.374	22.54
333.585	22.01
333.795	21.9
334.006	22.05
334.217	22.42
334.428	22.47
334.639	22.66
334.849	22.75
335.06	22.58
335.271	22.4
335.482	22.57
335.692	22.51
335.903	22.91
336.114	23.05
336.325	22.97
336.535	23.01
336.746	22.94
336.957	22.84
337.167	23.32
337.378	23.59
337.589	23.95
337.799	24.02
338.01	24.12
338.22	24.22
338.431	24.62
338.642	24.79
338.852	24.59
339.063	24.73
339.273	24.46
339.484	23.95
339.694	23.63
339.905	23.51
340.115	23.51
340.326	23.49
340.536	23.47
340.746	23.27
340.957	23.02
341.167	23.39
341.378	23.29
341.588	23.74
341.799	23.89
342.009	24.19
342.219	24.22
342.43	24.41
342.64	23.86
342.85	23.71
343.061	22.99
343.271	23.21
343.481	22.61
343.691	22.78
343.902	22.4
344.112	22.58
344.322	22.44
344.532	22.34
344.743	21.83
344.953	22.06
345.163	22.18
345.373	22.6
345.583	22.28
345.793	22.75
346.004	22.77
346.214	22.94
346.424	22.61
346.634	22.43
346.844	22.47
347.054	22.8
347.264	22.98
347.474	22.73
347.684	23.01
347.894	23.11
348.104	22.58
348.314	22.4
348.524	22.29
348.734	22.39
348.944	22.42
349.154	22.24
349.364	21.9
349.574	21.81
349.784	21.82
349.994	21.59
350.204	21.76
350.413	22.13
350.623	22.09
350.833	22.17
351.043	22.09
351.253	21.97
351.463	22.34
351.672	22.14
351.882	21.95
352.092	21.76
352.302	21.89
352.511	21.7
352.721	21.3
352.931	21.25
353.141	21.25
353.35	21.26
353.56	21.43
353.77	21.3
353.979	21.55
354.189	21.92
354.399	22.22
354.608	22.06
354.818	21.88
355.027	22
355.237	21.97
355.447	21.83
355.656	21.65
355.866	21.22
356.075	21.12
356.285	21.08
356.494	20.63
356.704	20.31
356.913	20.2
357.123	20.29
357.332	20.31
357.542	20.26
357.751	20.35
357.96	20.55
358.17	20.79
358.379	20.54
358.589	20.52
358.798	20.9
359.007	21.11
359.217	20.98
359.426	20.86
359.635	21.02
359.845	20.77
360.054	20.75
360.263	20.59
360.472	20.45
360.682	20.37
360.891	20.26
361.1	19.96
361.309	19.59
361.519	19.54
361.728	19.42
361.937	19.12
362.146	19.12
362.355	18.81
362.564	18.76
362.774	18.75
362.983	18.69
363.192	18.45
363.401	18.43
363.61	18.58
363.819	18.8
364.028	18.84
364.237	19.06
364.446	19.26
364.655	19.39
364.864	19.26
365.073	19.22
365.282	19.55
365.491	19.67
365.7	19.45
365.909	19.63
366.118	19.5
366.327	19.63
366.536	19.24
366.745	19.17
366.954	19.2
367.162	19.31
367.371	19.37
367.58	19.38
367.789	19.52
367.998	19.84
368.207	19.79
368.415	19.59
368.624	19.7
368.833	19.94
369.042	19.94
369.25	20.12
369.459	20.05
369.668	19.86
369.877	19.59
370.085	19.49
370.294	19.23
370.503	19.26
370.711	19.37
370.92	19.37
371.129	19.36
371.337	19.21
371.546	18.96
371.754	19.07
371.963	19.25
372.171	19.21
372.38	19.23
372.589	19.21
372.797	19.17
373.006	19.06
373.214	18.69
373.423	18.74
373.631	18.82
373.84	18.81
374.048	18.67
374.256	18.38
374.465	18.28
374.673	18.25
374.882	18.23
375.09	18.26
375.298	18.18
375.507	18.37
375.715	18.34
375.923	18.2
376.132	18.22
376.34	18.02
376.548	18.04
376.757	18.33
376.965	18.51
377.173	18.63
377.381	18.58
377.59	18.62
377.798	18.44
378.006	18.29
378.214	18.13
378.423	18.11
378.631	18.37
378.839	18.52
379.047	18.52
379.255	18.33
379.463	18.34
379.671	18.36
379.879	18.44
380.088	18.61
380.296	18.64
380.504	19.09
380.712	19.2
380.92	18.99
381.128	19.07
381.336	18.84
381.544	18.78
381.752	18.75
381.96	18.65
382.168	18.55
382.376	18.6
382.584	18.45
382.791	18.21
382.999	18.04
383.207	18.2
383.415	18.26
383.623	18.19
383.831	18.05
384.039	18.07
384.247	17.96
384.454	17.9
384.662	17.72
384.87	17.63
385.078	17.4
385.285	17.4
385.493	16.95
385.701	16.68
385.909	16.8
386.116	16.91
386.324	16.75
386.532	16.83
386.739	16.99
386.947	16.99
387.155	17.34
387.362	17.56
387.57	17.59
387.778	17.78
387.985	17.84
388.193	17.97
388.4	17.89
388.608	18.24
388.816	18.08
389.023	18.03
389.231	17.68
389.438	17.37
389.646	17.37
389.853	17.3
390.061	17.51
390.268	17.55
390.475	17.3
390.683	17.27
390.89	16.94
391.098	17.15
391.305	17.05
391.512	17.36
391.72	17.57
391.927	17.39
392.135	17.3
392.342	17.23
392.549	17.36
392.756	17.33
392.964	17.27
393.171	17.42
393.378	17.16
393.586	17.33
393.793	17.43
394	17.33
394.207	17.41
394.414	17.42
394.622	17.41
394.829	17.24
395.036	17.4
395.243	17.63
395.45	17.72
395.657	17.87
395.864	17.74
396.072	17.54
396.279	17.39
396.486	17.48
396.693	17.67
396.9	17.48
397.107	17.33
397.314	17.4
397.521	17.53
397.728	17.23
397.935	17.16
398.142	17.01
398.349	17.05
398.556	17.11
398.763	17.05
398.97	16.93
399.177	17.03
399.383	17.36
399.59	17.28
399.797	17.07
400.004	17.28
400.211	17.23
400.418	17.45
400.625	17.8
400.831	17.77
401.038	17.97
401.245	17.95
401.452	18.05
401.658	17.89
401.865	17.74
402.072	17.8
402.279	17.68
402.485	17.89
402.692	17.74
402.899	17.43
403.105	17.45
403.312	17.17
403.519	17.17
403.725	17.27
403.932	17.35
404.138	17.27
404.345	17.04
404.552	16.9
404.758	16.78
404.965	16.87
405.171	16.94
405.378	17.12
405.584	17.4
405.791	17.46
405.997	17.34
406.204	17.28
406.41	17.2
406.617	17.34
406.823	17.54
407.029	17.62
407.236	17.51
407.442	17.58
407.649	17.34
407.855	17.17
408.061	17.18
408.268	17.36
408.474	17.36
408.68	17.59
408.887	17.52
409.093	17.56
409.299	17.5
409.505	17.51
409.712	17.47
409.918	17.56
410.124	17.56
410.33	17.53
410.537	17.38
410.743	17.44
410.949	17.31
411.155	17.35
411.361	17.4
411.567	17.58
411.773	17.69
411.98	17.62
412.186	17.76
412.392	17.82
412.598	17.94
412.804	17.95
413.01	17.98
413.216	18.03
413.422	18.02
413.628	17.9
413.834	17.73
414.04	17.66
414.246	17.64
414.452	17.56
414.658	17.56
414.864	17.43
415.07	17.54
415.275	17.39
415.481	17.59
415.687	17.66
415.893	17.65
416.099	17.6
416.305	17.53
416.511	17.62
416.716	17.58
416.922	17.53
417.128	17.51
417.334	17.39
417.539	17.36
417.745	17.18
417.951	17
418.157	16.91
418.362	16.84
418.568	16.76
418.774	16.61
418.979	16.52
419.185	16.45
419.391	16.37
419.596	16.33
419.802	16.28
420.008	16.29
420.213	15.75
420.419	15.79
420.624	15.79
420.83	15.87
421.035	15.89
421.241	15.92
421.446	15.93
421.652	15.99
421.857	15.99
422.063	16.06
422.268	15.99
422.474	16.59
422.679	16.53
422.885	16.51
423.09	16.5
423.295	16.46
423.501	16.47
423.706	16.4
423.911	16.36
424.117	16.37
424.322	16.28
424.527	16.36
424.733	16.29
424.938	16.32
425.143	16.34
425.349	16.36
425.554	16.44
425.759	16.52
425.964	16.62
426.169	16.63
426.375	16.7
426.58	16.8
426.785	16.82
426.99	16.97
427.195	17.01
427.4	17.12
427.605	17.04
427.811	17.14
428.016	17.09
428.221	17.15
428.426	17.28
428.631	17.37
428.836	17.32
429.041	17.36
429.246	17.32
429.451	17.45
429.656	17.41
429.861	17.49
430.066	17.46
430.271	17.47
430.476	17.29
430.681	17.34
430.886	17.32
431.09	17.46
431.295	17.4
431.5	17.42
431.705	17.46
431.91	17.42
432.115	17.51
432.32	17.45
432.524	17.43
432.729	17.58
432.934	17.55
433.139	17.53
433.343	17.41
433.548	17.43
433.753	17.44
433.958	17.4
434.162	17.45
434.367	17.41
434.572	17.53
434.776	17.44
434.981	17.3
435.186	17.23
435.39	17.17
435.595	17.27
435.799	17.34
436.004	17.34
436.209	17.37
436.413	17.44
436.618	17.48
436.822	17.42
437.027	17.46
437.231	17.51
437.436	17.54
437.64	17.54
437.845	17.55
438.049	17.64
438.253	17.58
438.458	17.38
438.662	17.38
438.867	17.27
439.071	17.15
439.275	17.09
439.48	17.15
439.684	17.1
439.888	17.12
440.093	17.08
440.297	16.91
440.501	16.93
440.706	16.97
440.91	16.99
441.114	16.96
441.318	16.99
441.523	17.13
441.727	17.16
441.931	17.21
442.135	17.19
442.339	17.23
442.543	17.31
442.748	17.3
442.952	17.41
443.156	17.24
443.36	17.33
443.564	17.47
443.768	17.37
443.972	17.28
444.176	17.23
444.38	17.25
444.584	17.26
444.788	17.2
444.992	17.21
445.196	17.13
445.4	17.18
445.604	17.1
445.808	17.02
446.012	17.01
446.216	17.06
446.42	17.08
446.624	17.08
446.828	17.04
447.032	17.04
447.235	17.02
447.439	16.97
447.643	16.98
447.847	17.03
448.051	17.07
448.254	17.11
448.458	17.16
448.662	17.18
448.866	17.18
449.069	17.14
449.273	17.16
449.477	17.2
449.681	17.42
449.884	17.51
450.088	17.53
450.292	17.54
450.495	17.63
450.699	17.65
450.902	17.6
451.106	17.55
451.31	17.64
451.513	17.73
451.717	17.74
451.92	17.63
452.124	17.63
452.327	17.69
452.531	17.75
452.734	17.77
452.938	17.67
453.141	17.71
453.345	17.78
453.548	17.77
453.752	17.69
453.955	17.71
454.158	17.71
454.362	17.67
454.565	17.64
454.769	17.61
454.972	17.47
455.175	17.52
455.379	17.64
455.582	17.75
455.785	17.71
455.988	17.78
456.192	17.7
456.395	17.7
456.598	17.61
456.801	17.57
457.005	17.62
457.208	17.67
457.411	17.6
457.614	17.4
457.817	17.38
458.021	17.36
458.224	17.4
458.427	17.45
458.63	17.45
458.833	17.52
459.036	17.56
459.239	17.46
459.442	17.33
459.645	17.31
459.848	17.34
460.051	17.33
460.254	17.34
460.457	17.3
460.66	17.24
460.863	17.24
461.066	17.2
461.269	17.14
461.472	17.15
461.675	17.31
461.878	17.37
462.081	17.45
462.284	17.32
462.486	17.25
462.689	17.13
462.892	17.19
463.095	17.26
463.298	17.34
463.5	17.34
463.703	17.44
463.906	17.52
464.109	17.5
464.311	17.56
464.514	17.58
464.717	17.74
464.92	17.76
465.122	17.83
465.325	17.84
465.528	17.72
465.73	17.81
465.933	17.75
466.135	17.75
466.338	17.84
466.541	17.77
466.743	17.74
466.946	17.64
467.148	17.68
467.351	17.63
467.553	17.59
467.756	17.69
467.958	17.64
468.161	17.61
468.363	17.49
468.566	17.38
468.768	17.48
468.971	17.52
469.173	17.67
469.375	17.74
469.578	17.72
469.78	17.69
469.983	17.72
470.185	17.78
470.387	17.89
470.59	17.96
470.792	18.12
470.994	18.1
471.196	18.09
471.399	18.04
471.601	17.98
471.803	18.04
472.005	18.11
472.208	18.01
472.41	18.05
472.612	17.98
472.814	17.93
473.016	17.86
473.218	17.79
473.421	17.87
473.623	17.92
473.825	17.93
474.027	17.89
474.229	17.84
474.431	17.93
474.633	18
474.835	17.95
475.037	17.93
475.239	17.96
475.441	18.01
475.643	18
475.845	17.93
476.047	17.95
476.249	17.94
476.451	17.89
476.653	17.78
476.855	17.67
477.057	17.73
477.258	17.78
477.46	17.68
477.662	17.66
477.864	17.65
478.066	17.6
478.268	17.57
478.469	17.51
478.671	17.56
478.873	17.61
479.075	17.6
479.276	17.59
479.478	17.54
479.68	17.6
479.882	17.58
480.083	17.44
480.285	17.41
480.487	17.38
480.688	17.49
480.89	17.51
481.091	17.49
481.293	17.46
481.495	17.39
481.696	17.39
481.898	17.24
482.099	17.16
482.301	17.11
482.502	17.07
482.704	17.01
482.905	16.9
483.107	16.82
483.308	16.76
483.51	16.72
483.711	16.68
483.913	16.63
484.114	16.6
484.315	16.58
484.517	16.61
484.718	16.64
484.92	16.65
485.121	16.71
485.322	16.77
485.524	16.8
485.725	16.84
485.926	16.89
486.127	16.95
486.329	16.97
486.53	16.98
486.731	16.97
486.932	16.91
487.134	16.93
487.335	16.88
487.536	16.84
487.737	16.82
487.938	16.81
488.139	16.79
488.341	16.72
488.542	16.82
488.743	16.86
488.944	16.9
489.145	16.93
489.346	16.87
489.547	16.9
489.748	16.92
489.949	17
490.15	17.02
490.351	17.06
490.552	17.15
490.753	17.1
490.954	17.1
491.155	17.1
491.356	17.17
491.557	17.23
491.758	17.28
491.959	17.27
492.159	17.21
492.36	17.25
492.561	17.3
492.762	17.32
492.963	17.39
493.164	17.44
493.364	17.5
493.565	17.52
493.766	17.56
493.967	17.63
494.167	17.74
494.368	17.88
494.569	17.92
494.769	17.91
494.97	17.91
495.171	17.92
495.371	17.93
495.572	17.93
495.773	17.98
495.973	18.02
496.174	18
496.375	18.11
496.575	18.1
496.776	18.09
496.976	18.15
497.177	18.23
497.377	18.21
497.578	18.22
497.778	18.23
497.979	18.2
498.179	18.24
498.38	18.26
498.58	18.3
498.78	18.35
498.981	18.37
499.181	18.41
499.382	18.43
499.582	18.5
499.782	18.57
499.983	18.65
500.183	18.68
500.383	18.7
500.584	18.71
500.784	18.62
500.984	18.65
501.184	18.77
501.385	18.9
501.585	18.98
501.785	19
501.985	19.11
502.185	19.09
502.386	19.13
502.586	19.14
502.786	19.17
502.986	19.28
503.186	19.35
503.386	19.28
503.586	19.22
503.786	19.08
503.987	19.06
504.187	18.94
504.387	18.94
504.587	19.05
504.787	19.08
504.987	19.12
505.187	19.06
505.387	19.04
505.587	19.18
505.786	19.23
505.986	19.27
506.186	19.32
506.386	19.48
506.586	19.53
506.786	19.44
506.986	19.41
507.186	19.41
507.386	19.46
507.585	19.55
507.785	19.47
507.985	19.38
508.185	19.48
508.384	19.49
508.584	19.49
508.784	19.52
508.984	19.56
509.183	19.68
509.383	19.78
509.583	19.77
509.782	19.69
509.982	19.77
510.182	19.85
510.381	19.83
510.581	19.94
510.781	19.89
510.98	19.97
511.18	20.04
511.379	20.01
511.579	20.03
511.778	20.08
511.978	20.21
512.177	20.2
512.377	20.27
512.576	20.34
512.776	20.34
512.975	20.44
513.175	20.51
513.374	20.52
513.573	20.69
513.773	20.75
513.972	20.83
514.172	20.78
514.371	20.89
514.57	20.92
514.77	20.96
514.969	21.03
515.168	21.14
515.367	21.04
515.567	21.16
515.766	21.11
515.965	21.12
516.164	21.09
516.364	21.25
516.563	21.22
516.762	21.31
516.961	21.36
517.16	21.35
517.359	21.27
517.559	21.38
517.758	21.34
517.957	21.37
518.156	21.35
518.355	21.43
518.554	21.34
518.753	21.38
518.952	21.34
519.151	21.32
519.35	21.38
519.549	21.42
519.748	21.47
519.947	21.52
520.146	21.53
520.345	21.55
520.544	21.62
520.743	21.72
520.942	21.85
521.141	22
521.339	22.15
521.538	22.22
521.737	22.35
521.936	22.36
522.135	22.44
522.333	22.5
522.532	22.61
522.731	22.63
522.93	22.74
523.129	22.74
523.327	22.72
523.526	22.72
523.725	22.76
523.923	22.77
524.122	22.78
524.321	22.81
524.519	22.9
524.718	22.92
524.917	22.92
525.115	22.92
525.314	22.89
525.512	22.84
525.711	22.9
525.909	22.96
526.108	22.99
526.306	23.01
526.505	23
526.703	22.95
526.902	22.89
527.1	22.85
527.299	22.85
527.497	22.85
527.696	22.88
527.894	22.88
528.092	22.86
528.291	22.85
528.489	22.87
528.688	22.92
528.886	22.96
529.084	23.04
529.283	23.11
529.481	23.17
529.679	23.3
529.877	23.36
530.076	23.4
530.274	23.48
530.472	23.56
530.67	23.61
530.869	23.7
531.067	23.81
531.265	23.84
531.463	23.9
531.661	23.89
531.859	23.86
532.057	23.9
532.255	23.97
532.454	23.98
532.652	24.04
532.85	24.12
533.048	24.05
533.246	24.08
533.444	24.09
533.642	24.15
533.84	24.17
534.038	24.22
534.236	24.32
534.434	24.36
534.632	24.39
534.83	24.46
535.027	24.53
535.225	24.68
535.423	24.68
535.621	24.79
535.819	24.88
536.017	25.04
536.215	25.12
536.412	25.16
536.61	25.23
536.808	25.33
537.006	25.32
537.203	25.35
537.401	25.42
537.599	25.47
537.797	25.52
537.994	25.48
538.192	25.54
538.39	25.65
538.587	25.64
538.785	25.73
538.983	25.82
539.18	25.92
539.378	25.92
539.575	25.94
539.773	26.01
539.97	26
540.168	26.07
540.366	26.02
540.563	25.95
540.761	25.95
540.958	25.94
541.155	25.94
541.353	25.96
541.55	25.96
541.748	25.96
541.945	25.98
542.143	26.01
542.34	26.07
542.537	26.15
542.735	26.2
542.932	26.28
543.129	26.35
543.327	26.45
543.524	26.53
543.721	26.66
543.919	26.86
544.116	27
544.313	27.14
544.51	27.24
544.708	27.34
544.905	27.52
545.102	27.69
545.299	27.76
545.496	27.77
545.693	27.86
545.891	27.94
546.088	27.9
546.285	27.82
546.482	27.78
546.679	27.79
546.876	27.78
547.073	27.68
547.27	27.59
547.467	27.6
547.664	27.61
547.861	27.53
548.058	27.49
548.255	27.53
548.452	27.69
548.649	27.85
548.846	27.83
549.043	27.88
549.24	27.94
549.437	28.06
549.633	28.06
549.83	28.13
550.027	28.22
550.224	28.24
550.421	28.17
550.618	28.07
550.814	28.09
551.011	28.23
551.208	28.18
551.405	28.2
551.601	28.28
551.798	28.32
551.995	28.34
552.191	28.33
552.388	28.46
552.585	28.45
552.781	28.59
552.978	28.63
553.175	28.51
553.371	28.57
553.568	28.62
553.764	28.57
553.961	28.75
554.157	28.76
554.354	28.83
554.55	28.85
554.747	28.93
554.943	28.86
555.14	28.91
555.336	29
555.533	29
555.729	29.03
555.926	29.06
556.122	29.05
556.318	29.06
556.515	29.06
556.711	28.95
556.907	28.99
557.104	29.07
557.3	28.95
557.496	28.93
557.693	29.08
557.889	29.15
558.085	29.29
558.281	29.32
558.478	29.47
558.674	29.41
558.87	29.7
559.066	29.82
559.262	29.95
559.459	30.07
559.655	30.16
559.851	30.1
560.047	30.07
560.243	30.06
560.439	30.06
560.635	29.94
560.831	30.06
561.027	29.88
561.223	29.83
561.419	29.73
561.615	29.68
561.811	29.81
562.007	29.76
562.203	29.8
562.399	29.81
562.595	29.76
562.791	29.83
562.987	29.77
563.183	29.79
563.379	29.78
563.575	29.78
563.771	29.73
563.966	29.55
564.162	29.57
564.358	29.54
564.554	29.48
564.75	29.49
564.945	29.59
565.141	29.73
565.337	29.75
565.533	29.61
565.728	29.58
565.924	29.72
566.12	29.78
566.315	29.85
566.511	29.85
566.707	29.87
566.902	29.99
567.098	29.97
567.293	29.9
567.489	29.95
567.684	30.13
567.88	30.29
568.076	30.32
568.271	30.37
568.467	30.37
568.662	30.49
568.858	30.63
569.053	30.63
569.248	30.56
569.444	30.49
569.639	30.51
569.835	30.5
570.03	30.32
570.225	30.26
570.421	30.13
570.616	30.22
570.812	30.3
571.007	30.15
571.202	29.98
571.397	30.03
571.593	30.16
571.788	30.13
571.983	30.19
572.178	30.22
572.374	30.19
572.569	30.26
572.764	30.28
572.959	30.12
573.154	30.26
573.35	30.25
573.545	30.29
573.74	30.18
573.935	30.29
574.13	30.24
574.325	30.35
574.52	30.63
574.715	30.66
574.91	30.57
575.105	30.7
575.3	30.68
575.495	30.96
575.69	30.96
575.885	31.05
576.08	31.09
576.275	31.2
576.47	31.33
576.665	31.26
576.86	31.4
577.055	31.43
577.25	31.5
577.444	31.52
577.639	31.51
577.834	31.64
578.029	31.8
578.224	31.9
578.418	32.01
578.613	32.03
578.808	32.16
579.003	32.12
579.197	32.28
579.392	32.35
579.587	32.45
579.781	32.58
579.976	32.52
580.171	32.67
580.365	32.65
580.56	32.75
580.755	32.81
580.949	32.69
581.144	32.74
581.338	32.74
581.533	32.79
581.727	32.75
581.922	32.6
582.116	32.72
582.311	32.46
582.505	32.54
582.7	32.46
582.894	32.54
583.089	32.56
583.283	32.73
583.478	32.82
583.672	32.83
583.866	32.98
584.061	33.02
584.255	33.03
584.449	33.08
584.644	33.1
584.838	33.08
585.032	33.05
585.226	33.06
585.421	33
585.615	33.09
585.809	33.14
586.003	33.12
586.198	33.43
586.392	33.48
586.586	33.57
586.78	33.68
586.974	33.72
587.168	33.67
587.363	33.79
587.557	33.78
587.751	33.75
587.945	33.8
588.139	33.88
588.333	33.57
588.527	33.48
588.721	33.5
588.915	33.4
589.109	33.3
589.303	33.24
589.497	33.15
589.691	33.1
589.885	33.04
590.079	33.03
590.273	33
590.466	33.18
590.66	33.31
590.854	33.45
591.048	33.49
591.242	33.57
591.436	33.7
591.629	33.99
591.823	34.23
592.017	34.36
592.211	34.4
592.404	34.41
592.598	34.36
592.792	34.34
592.986	34.17
593.179	34.22
593.373	34.27
593.567	34.41
593.76	34.27
593.954	34.2
594.147	34.09
594.341	34.01
594.535	34.05
594.728	34.01
594.922	33.9
595.115	33.91
595.309	33.82
595.502	33.89
595.696	33.81
595.889	33.69
596.083	33.66
596.276	33.63
596.47	33.68
596.663	33.69
596.856	33.73
597.05	33.85
597.243	33.97
597.437	33.93
597.63	33.96
597.823	34.01
598.017	34.15
598.21	34.19
598.403	34.45
598.596	34.54
598.79	34.52
598.983	34.57
599.176	34.61
599.369	34.63
599.563	34.9
599.756	34.9
599.949	34.89
600.142	34.94
600.335	34.99
600.528	34.87
600.722	34.91
600.915	35.03
601.108	35.08
601.301	35.24
601.494	35.26
601.687	35.01
601.88	34.9
602.073	34.8
602.266	34.72
602.459	34.74
602.652	34.61
602.845	34.52
603.038	34.37
603.231	34.31
603.424	34.1
603.617	33.97
603.809	33.99
604.002	34.01
604.195	34
604.388	34.03
604.581	33.97
604.774	34.2
604.966	34.12
605.159	34.16
605.352	34.25
605.545	34.39
605.737	34.65
605.93	34.75
606.123	34.95
606.316	35.13
606.508	35.23
606.701	35.42
606.894	35.37
607.086	35.76
607.279	35.9
607.471	36.01
607.664	36.09
607.857	36.07
608.049	36.18
608.242	36.33
608.434	36.7
608.627	37.11
608.819	37.48
609.012	38.18
609.204	38.65
609.397	39.28
609.589	39.93
609.782	40.59
609.974	41.36
610.166	42.45
610.359	43.34
610.551	44.03
610.743	44.56
610.936	45.09
611.128	45.33
611.32	45.64
611.513	45.91
611.705	46.01
611.897	46.28
612.09	46.27
612.282	45.76
612.474	45.47
612.666	45.02
612.858	44.85
613.051	44.76
613.243	44.28
613.435	43.8
613.627	43.37
613.819	43.01
614.011	42.6
614.203	42.24
614.395	42.02
614.588	41.51
614.78	41.2
614.972	40.87
615.164	40.35
615.356	40.24
615.548	40.24
615.74	40.05
615.932	39.95
616.124	39.98
616.315	39.96
616.507	39.87
616.699	39.64
616.891	39.67
617.083	39.56
617.275	39.51
617.467	39.18
617.659	39.26
617.85	39.15
618.042	38.94
618.234	38.38
618.426	38.17
618.618	38.03
618.809	38.02
619.001	37.91
619.193	37.98
619.384	37.9
619.576	38.17
619.768	37.98
619.959	37.87
620.151	38.1
620.343	38.24
620.534	38.25
620.726	38.37
620.917	38.62
621.109	38.68
621.301	38.57
621.492	38.54
621.684	38.62
621.875	38.65
622.067	38.94
622.258	38.79
622.45	38.84
622.641	38.87
622.832	38.83
623.024	38.81
623.215	38.82
623.407	38.92
623.598	39.1
623.789	39.12
623.981	39.03
624.172	39.06
624.363	39.23
624.555	39.26
624.746	39.41
624.937	39.33
625.129	39.37
625.32	39.16
625.511	38.99
625.702	38.95
625.893	38.92
626.085	38.93
626.276	38.73
626.467	38.72
626.658	38.69
626.849	38.5
627.04	38.41
627.231	38.33
627.422	38.46
627.614	38.62
627.805	38.67
627.996	38.74
628.187	38.88
628.378	39.01
628.569	39.08
628.76	39.26
628.951	39.36
629.142	39.62
629.332	39.85
629.523	40.09
629.714	40.15
629.905	40.22
630.096	40.21
630.287	40.19
630.478	40.23
630.669	40.27
630.859	40.3
631.05	40.11
631.241	40.05
631.432	39.9
631.623	39.76
631.813	39.64
632.004	39.56
632.195	39.31
632.385	39.25
632.576	39.19
632.767	39.04
632.957	38.76
633.148	38.75
633.339	38.69
633.529	38.7
633.72	38.49
633.91	38.27
634.101	38.33
634.292	38.32
634.482	38.36
634.673	38.36
634.863	38.31
635.054	38.24
635.244	38.45
635.435	38.34
635.625	38.3
635.815	38.46
636.006	38.48
636.196	38.53
636.387	38.8
636.577	38.67
636.767	38.49
636.958	38.49
637.148	38.71
637.338	38.8
637.529	38.93
637.719	39.02
637.909	38.96
638.099	39.12
638.29	39.06
638.48	38.87
638.67	38.96
638.86	39.39
639.05	39.47
639.241	39.3
639.431	39.45
639.621	39.52
639.811	39.3
640.001	39.28
640.191	39.38
640.381	39.49
640.571	39.47
640.761	39.65
640.951	39.56
641.141	39.45
641.331	39.47
641.521	39.59
641.711	39.55
641.901	39.66
642.091	39.72
642.281	39.67
642.471	39.51
642.661	39.81
642.851	39.93
643.041	39.9
643.231	40.13
643.42	40.16
643.61	39.79
643.8	39.82
643.99	39.97
644.18	40.22
644.369	40.42
644.559	40.52
644.749	40.19
644.939	40.13
645.128	40.11
645.318	39.98
645.508	40.3
645.697	40.34
645.887	40.13
646.076	40.1
646.266	40.05
646.456	40.1
646.645	40.43
646.835	40.59
647.024	40.4
647.214	40.56
647.403	40.48
647.593	40.23
647.782	40.29
647.972	40.52
648.161	40.64
648.351	40.4
648.54	40.4
648.73	40.12
648.919	40.23
649.108	40.21
649.298	40.13
649.487	40.15
649.677	40.41
649.866	40.52
650.055	40.67
650.244	40.76
650.434	40.85
650.623	40.8
650.812	40.74
651.002	40.65
651.191	40.75
651.38	40.65
651.569	40.92
651.758	40.64
651.947	40.44
652.137	40.34
652.326	40.18
652.515	40.37
652.704	40.26
652.893	40.44
653.082	40.39
653.271	40.32
653.46	40.38
653.649	40.54
653.838	40.77
654.027	41.1
654.216	41.19
654.405	41.3
654.594	41.2
654.783	41.28
654.972	41.21
655.161	41.43
655.35	41.35
655.539	41.42
655.728	41.12
655.916	41.09
656.105	41.04
656.294	41.01
656.483	40.85
656.672	40.87
656.86	40.85
657.049	40.66
657.238	40.72
657.427	40.54
657.615	40.6
657.804	40.52
657.993	40.29
658.181	40.1
658.37	39.73
658.559	39.58
658.747	39.56
658.936	39.27
659.125	39.16
659.313	38.86
659.502	39.13
659.69	39.01
659.879	39.03
660.067	39.16
660.256	39.06
660.444	39.4
660.633	39.52
660.821	39.49
661.01	39.96
661.198	40.04
661.387	40.32
661.575	40.3
661.763	40.46
661.952	40.69
662.14	40.77
662.328	41.09
662.517	41.2
662.705	41.4
662.893	41.44
663.082	41.55
663.27	41.95
663.458	42.04
663.646	42.09
663.834	42
664.023	41.94
664.211	41.81
664.399	41.86
664.587	41.71
664.775	41.49
664.963	41.68
665.152	41.5
665.34	41.56
665.528	41.33
665.716	41.41
665.904	41.53
666.092	41.42
666.28	41.47
666.468	41.62
666.656	41.78
666.844	42.06
667.032	41.98
667.22	42.12
667.408	42.17
667.596	42.33
667.784	42.18
667.971	42.16
668.159	42.25
668.347	41.98
668.535	41.54
668.723	41.47
668.911	41.37
669.098	41.31
669.286	41.21
669.474	40.88
669.662	40.88
669.849	41.09
670.037	40.94
670.225	40.97
670.413	41.46
670.6	41.97
670.788	42.04
670.976	42.3
671.163	42.14
671.351	41.91
671.538	42.03
671.726	42.33
671.913	42.11
672.101	42.34
672.289	42.44
672.476	42.38
672.664	42.45
672.851	42.41
673.039	42.04
673.226	42.25
673.413	42.17
673.601	42.22
673.788	41.93
673.976	42.25
674.163	42.31
674.35	42.31
674.538	42.11
674.725	42.04
674.912	42.21
675.1	42.1
675.287	42.29
675.474	42.54
675.662	42.71
675.849	42.79
676.036	42.84
676.223	42.89
676.411	42.68
676.598	42.55
676.785	42.4
676.972	42.37
677.159	42.6
677.346	42.58
677.533	42.66
677.721	42.54
677.908	42.56
678.095	42.41
678.282	42.23
678.469	42.15
678.656	42.39
678.843	42.26
679.03	42.41
679.217	42.28
679.404	42.05
679.591	42.04
679.778	41.99
679.964	41.88
680.151	41.62
680.338	41.49
680.525	41.66
680.712	41.7
680.899	41.82
681.086	41.56
681.272	41.61
681.459	41.81
681.646	41.59
681.833	41.69
682.02	41.9
682.206	42.35
682.393	42.29
682.58	42.22
682.766	42.43
682.953	42.17
683.14	42.54
683.326	42.8
683.513	42.92
683.7	43.44
683.886	43.12
684.073	42.89
684.259	42.61
684.446	42.98
684.632	43.36
684.819	43.34
685.005	43.48
685.192	43.21
685.378	43.18
685.565	43.01
685.751	42.8
685.938	43.23
686.124	43.7
686.31	44.05
686.497	44.1
686.683	43.81
686.87	43.52
687.056	43.53
687.242	43.39
687.429	43.54
687.615	43.71
687.801	43.77
687.987	43.43
688.174	42.89
688.36	42.49
688.546	42.44
688.732	42.53
688.918	42.72
689.105	42.92
689.291	43.08
689.477	42.66
689.663	42.55
689.849	42.42
690.035	43.01
690.221	43.29
690.407	43.42
690.593	43.47
690.779	43.47
690.965	43.26
691.151	42.98
691.337	43.15
691.523	43.29
691.709	43.23
691.895	43.31
692.081	43.08
692.267	42.98
692.453	43.09
692.639	43.04
692.825	43.1
693.011	43.57
693.196	43.81
693.382	43.82
693.568	43.6
693.754	44.09
693.94	44.17
694.125	44.14
694.311	44.15
694.497	43.97
694.682	44.18
694.868	44.24
695.054	43.84
695.239	43.86
695.425	43.54
695.611	44.08
695.796	43.72
695.982	43.68
696.168	43.3
696.353	43.19
696.539	43.17
696.724	42.62
696.91	42.67
697.095	42.84
697.281	42.64
697.466	42.58
697.652	42.22
697.837	42.03
698.023	41.84
698.208	41.78
698.393	41.8
698.579	41.89
698.764	41.99
698.949	41.66
699.135	41.58
699.32	41.4
699.505	41.41
699.691	41.28
699.876	41.24
700.061	41.15
700.246	41.18
700.432	41.23
700.617	41.11
700.802	41.34
700.987	41.63
701.172	41.88
701.358	42.41
701.543	42.68
701.728	43.08
701.913	43.46
702.098	44.35
702.283	44.84
702.468	45.04
702.653	45.36
702.838	45.61
703.023	45.97
703.208	45.83
703.393	45.64
703.578	45.75
703.763	46.09
703.948	46.52
704.133	46.08
704.318	46.27
704.503	46.61
704.688	47
704.873	46.45
705.057	46.41
705.242	46.67
705.427	47.29
705.612	47.83
705.797	48.15
705.981	47.88
706.166	48.12
706.351	48.19
706.536	48.44
706.72	48.44
706.905	49.17
707.09	49.38
707.274	49.06
707.459	48.78
707.644	48.85
707.828	48.71
708.013	48.67
708.197	48.58
708.382	48.47
708.567	48.28
708.751	48.33
708.936	47.91
709.12	47.81
709.305	47.99
709.489	48.16
709.673	47.66
709.858	47.4
710.042	47.25
710.227	47.31
710.411	47.5
710.596	47.24
710.78	47.37
710.964	47.49
711.149	47.49
711.333	47.27
711.517	47.2
711.702	47.24
711.886	47.61
712.07	47.81
712.254	47.5
712.438	47.29
712.623	47.47
712.807	46.69
712.991	46.53
713.175	46.24
713.359	46.37
713.544	46.22
713.728	46.29
713.912	45.72
714.096	45.68
714.28	45.66
714.464	45.5
714.648	45.04
714.832	45.54
715.016	45.55
715.2	45.52
715.384	45.31
715.568	45.38
715.752	44.99
715.936	45.37
716.12	45.18
716.304	45.05
716.488	44.9
716.671	44.92
716.855	44.51
717.039	44.43
717.223	44.34
717.407	44.2
717.59	44.28
717.774	44.51
717.958	44.41
718.142	44.53
718.325	44.61
718.509	44.8
718.693	45.08
718.877	45.05
719.06	44.98
719.244	45.05
719.428	45.24
719.611	44.62
719.795	45.16
719.978	45.08
720.162	45.42
720.345	45.74
720.529	45.65
720.713	45.78
720.896	45.85
721.08	46.04
721.263	46.18
721.446	46.38
721.63	47.01
721.813	45.91
721.997	45.27
722.18	45.01
722.364	44.88
722.547	45.39
722.73	45.45
722.914	45.79
723.097	46.01
723.28	46.2
723.464	46.48
723.647	46.45
723.83	47.03
724.013	47.91
724.197	47.77
724.38	48.26
724.563	47.99
724.746	47.54
724.929	47.8
725.112	47.76
725.296	47.48
725.479	47.58
725.662	47.21
725.845	47.5
726.028	47.47
726.211	47.4
726.394	47.05
726.577	46.7
726.76	46.93
726.943	46.7
727.126	46.5
727.309	46.79
727.492	46.73
727.675	46.53
727.858	45.88
728.041	45.63
728.224	46.3
728.407	46.2
728.589	46.76
728.772	46.83
728.955	46.23
729.138	45.83
729.321	45.58
729.503	45.46
729.686	46.16
729.869	46.18
730.052	46.24
730.234	45.7
730.417	46.03
730.6	45.5
730.782	45.32
730.965	45.6
731.148	46.14
731.33	46.07
731.513	45.67
731.695	45.09
731.878	45.08
732.061	44.96
732.243	45.19
732.426	44.97
732.608	45.27
732.791	45.69
732.973	46.01
733.156	45.95
733.338	46.35
733.52	46.61
733.703	46.91
733.885	46.75
734.068	46.86
734.25	46.81
734.432	46.67
734.615	46.28
734.797	46.49
734.979	46.32
735.162	46.14
735.344	45.54
735.526	45.72
735.708	46.22
735.891	46.77
736.073	46.98
736.255	46.69
736.437	46.92
736.619	47.49
736.802	47.13
736.984	47.31
737.166	47.86
737.348	48.34
737.53	48.77
737.712	48.65
737.894	48.93
738.076	49.18
738.258	49.66
738.44	49.05
738.622	49.03
738.804	49.34
738.986	49.43
739.168	49.13
739.35	48.94
739.532	48.6
739.714	48.37
739.896	48.51
740.078	48.46
740.259	47.61
740.441	48.48
740.623	48.27
740.805	47.93
740.987	47.54
741.168	47.31
741.35	47.66
741.532	47.53
741.714	47.44
741.895	47.13
742.077	46.96
742.259	47.86
742.44	47.49
742.622	47.64
742.804	47.65
742.985	48.24
743.167	48.86
743.348	48.52
743.53	48.46
743.711	48.45
743.893	48.23
744.075	48.18
744.256	47.62
744.438	48.03
744.619	48.87
744.8	48.52
744.982	48.49
745.163	48.5
745.345	48.99
745.526	49.68
745.707	49.63
745.889	49.97
746.07	50.07
746.252	50.52
746.433	50.99
746.614	50.53
746.795	51.5
746.977	51.64
747.158	51.62
747.339	51.15
747.52	50.67
747.702	50.79
747.883	50.27
748.064	50.61
748.245	50.98
748.426	50.4
748.607	50.12
748.788	49.47
748.97	49.43
749.151	49.25
749.332	49.7
749.513	50.06
749.694	50.32
749.875	50.23
750.056	49.96
750.237	49.26
750.418	49.64
750.599	49.26
750.78	49.7
750.96	49.24
751.141	49.14
751.322	48.28
751.503	47.68
751.684	47.79
751.865	48.15
752.046	47.75
752.226	48.04
752.407	47.59
752.588	47.9
752.769	48.26
752.949	48.29
753.13	48.89
753.311	50.05
753.492	49.95
753.672	50.3
753.853	50.35
754.034	50.57
754.214	50.73
754.395	51.38
754.575	51.34
754.756	51.05
754.937	51.48
755.117	51.21
755.298	50.88
755.478	51.01
755.659	50.89
755.839	51.31
756.02	51
756.2	50.79
756.381	50.55
756.561	50.85
756.741	50.75
756.922	50.42
757.102	50.32
757.283	50.37
757.463	50.13
757.643	49.52
757.823	49.43
758.004	49.34
758.184	49.56
758.364	49.22
758.545	47.85
758.725	47.09
758.905	47.11
759.085	46.82
759.265	45.88
759.446	45.6
759.626	45.78
759.806	45.27
759.986	45.12
760.166	44.71
760.346	44.73
760.526	45.55
760.706	46.44
760.886	45.43
761.066	45.69
761.246	46.15
761.426	46.28
761.606	45.31
761.786	44.56
761.966	44.2
762.146	44.46
762.326	44.36
762.506	44.07
762.686	43.41
762.866	43.6
763.046	43.06
763.225	42.38
763.405	41.91
763.585	42.36
763.765	42.53
763.945	42.55
764.124	42.13
764.304	41.92
764.484	42.21
764.664	42.47
764.843	42.63
765.023	42.56
765.203	42.97
765.382	43.3
765.562	43.8
765.741	44.47
765.921	44.99
766.101	45.53
766.28	45.5
766.46	45.22
766.639	45.64
766.819	46.23
766.998	47.05
767.178	47.7
767.357	48.32
767.537	47.91
767.716	48.52
767.896	48.75
768.075	48.63
768.254	49.3
768.434	50.43
768.613	50.45
768.792	50.81
768.972	50.82
769.151	50.88
769.33	51.55
769.51	51.5
769.689	50.95
769.868	50.89
770.047	51.76
770.226	51.84
770.406	50.81
770.585	50.79
770.764	51.09
770.943	51.99
771.122	52.16
771.301	51.48
771.48	51.54
771.66	52.9
771.839	52.52
772.018	52.15
772.197	52.5
772.376	53.15
772.555	52.8
772.734	53.1
772.913	52.65
773.092	52.78
773.271	53.12
773.449	52.92
773.628	52.2
773.807	53.14
773.986	53.28
774.165	52.93
774.344	53.44
774.523	53.63
774.701	53.02
774.88	52.31
775.059	52.27
775.238	52.79
775.417	53.39
775.595	53.22
775.774	52.95
775.953	52.28
776.131	52.4
776.31	51.95
776.489	52.22
776.667	52.6
776.846	53.5
777.025	52.93
777.203	52.22
777.382	53.14
777.56	52.79
777.739	53.53
777.917	54.47
778.096	55.16
778.274	54.89
778.453	55.36
778.631	55.75
778.81	55.89
778.988	57.02
779.166	57.2
779.345	56.38
779.523	56.76
779.702	56.02
779.88	55.55
780.058	54.84
780.237	55.22
780.415	55.18
780.593	54.48
780.771	53.34
780.95	53.04
781.128	53.55
781.306	53.86
781.484	53.5
781.662	53.49
781.841	54.6
782.019	54.25
782.197	53.98
782.375	52.67
782.553	52.84
782.731	53.79
782.909	53.72
783.087	54.26
783.265	53.73
783.443	53.67
783.621	54.73
783.799	54.45
783.977	54.6
784.155	54.94
784.333	55.22
784.511	54.97
784.689	55.57
784.867	55.8
785.045	56.2
785.223	56.48
785.4	57.23
785.578	56.77
785.756	56.4
785.934	56.7
786.112	57.05
786.289	57.21
786.467	56.96
786.645	56.08
786.823	55.63
787	54.45
787.178	54.49
787.356	54.34
787.533	53.66
787.711	53.03
787.889	52.55
788.066	51.51
788.244	50.98
788.421	51
788.599	50.45
788.776	50.36
788.954	50.13
789.131	50.5
789.309	50.24
789.486	50.24
789.664	50.49
789.841	50.98
790.019	51.25
790.196	52.02
790.373	53.15
790.551	53.91
790.728	54.37
790.906	54.88
791.083	55.78
791.26	57.02
791.437	57.15
791.615	57.23
791.792	57.14
791.969	58.35
792.146	57.05
792.324	56.27
792.501	56.12
792.678	56.42
792.855	56.95
793.032	55.31
793.209	54.87
793.387	55.36
793.564	56.17
793.741	56.12
793.918	55.26
794.095	56.44
794.272	56.67
794.449	56.17
794.626	56.77
794.803	56.51
794.98	57.36
795.157	57.68
795.334	56.41
795.511	55.51
795.688	56.12
795.864	56.45
796.041	56.98
796.218	57.36
796.395	58.66
796.572	58.18
796.749	57.64
796.925	56.29
797.102	54.91
797.279	56.3
797.456	56.66
797.632	56.3
797.809	55.8
797.986	55.66
798.162	55.03
798.339	53.21
798.516	53.05
798.692	53.24
798.869	54.29
799.046	54.97
799.222	54.26
799.399	53.59
799.575	54.29
799.752	55.48
799.928	54.85
800.105	55.95
800.281	57.89
800.458	58.08
800.634	58.87
800.811	58.48
800.987	59.04
801.163	60.49
801.34	61.12
801.516	60.58
801.692	60.18
801.869	61.57
802.045	60.54
802.221	59.46
802.398	59.06
802.574	59
802.75	59.78
802.926	59.12
803.103	59.19
803.279	58.83
803.455	58.54
803.631	58.56
803.807	57.68
803.983	58.82
804.16	59.42
804.336	58.59
804.512	58.24
804.688	58.49
804.864	58.82
805.04	58.72
805.216	59.78
805.392	60.52
805.568	60.13
805.744	59.87
805.92	57.64
806.096	57.16
806.272	58.53
806.448	59.65
806.623	58.86
806.799	57.75
806.975	56.71
807.151	55.58
807.327	54.9
807.503	54.93
807.678	55.37
807.854	55.44
808.03	55.19
808.206	56.62
808.381	54.58
808.557	54.97
808.733	55.95
808.908	55.86
809.084	57.89
809.26	56.61
809.435	57.07
809.611	58.34
809.787	59.44
809.962	60.51
810.138	59.47
810.313	61.17
810.489	61.39
810.664	62.31
810.84	63.82
811.015	62.28
811.191	64.01
811.366	63.78
811.542	63.35
811.717	64.32
811.892	64.95
812.068	64.39
812.243	63.61
812.419	63.16
812.594	61.32
812.769	59.82
812.944	60.05
813.12	60.26
813.295	60.74
813.47	59.05
813.645	56.76
813.821	55.81
813.996	56.61
814.171	56.12
814.346	55.53
814.521	57.41
814.697	57.63
814.872	56.92
815.047	55.39
815.222	53.95
815.397	54.67
815.572	56.09
815.747	56.5
815.922	55.73
816.097	56.3
816.272	57.15
816.447	56.26
816.622	57.84
816.797	58.2
816.972	58.37
817.147	59.73
817.322	59.8
817.496	58.91
817.671	58.88
817.846	59.53
818.021	58.79
818.196	57.9
818.371	58.04
818.545	55.94
818.72	54.65
818.895	55.52
819.069	54.39
819.244	53.89
819.419	53
819.594	51.53
819.768	49.49
819.943	48.94
820.117	47.67
820.292	45.42
820.467	44.77
820.641	43.66
820.816	42.05
820.99	40.69
821.165	39.43
821.339	38.16
821.514	37.8
821.688	36.92
821.863	35.85
822.037	34.96
822.212	34.85
822.386	34.42
822.56	34.08
822.735	33.72
822.909	33.41
823.084	33.36
823.258	33.65
823.432	33.31
823.606	33.53
823.781	33.51
823.955	34.37
824.129	34.29
824.303	34.48
824.478	35.3
824.652	35.96
824.826	36.07
825	36.47
825.174	36.72
825.348	37.34
825.523	37.55
825.697	38.54
825.871	38.32
826.045	38.63
826.219	38.47
826.393	37.52
826.567	37.81
826.741	38.57
826.915	38.13
827.089	38.42
827.263	38.39
827.437	38.66
827.611	38.41
827.784	38.94
827.958	39.09
828.132	39.51
828.306	40.22
828.48	40.29
828.654	40.34
828.827	41.54
829.001	41.7
829.175	42.72
829.349	43.67
829.522	44.79
829.696	45.21
829.87	47.29
830.044	48.72
830.217	50.22
830.391	51.08
830.565	52.89
830.738	54.11
830.912	55.2
831.085	54.81
831.259	55.1
831.432	55.83
831.606	55.3
831.779	53.16
831.953	51.8
832.126	49.45
832.3	48.08
832.473	46.39
832.647	44.8
832.82	43.28
832.994	43.09
833.167	42.37
833.34	41.18
833.514	40.57
833.687	40.84
833.86	40.62
834.034	41.87
834.207	41.88
834.38	41.82
834.553	42.27
834.727	43.11
834.9	42.49
835.073	41.59
835.246	41.98
835.419	41.9
835.593	42.15
835.766	42.96
835.939	42.97
836.112	43.28
836.285	44.45
836.458	44.75
836.631	45.47
836.804	47.64
836.977	49.47
837.15	50.5
837.323	51.8
837.496	51.34
837.669	52.26
837.842	53.61
838.015	55.69
838.188	57.73
838.361	58.42
838.533	58.91
838.706	58.64
838.879	58.97
839.052	60.25
839.225	62.3
839.398	65.78
839.57	67.32
839.743	65.18
839.916	63.31
840.088	62.59
840.261	64.54
840.434	63.87
840.607	63.42
840.779	62.78
840.952	62.07
841.124	61.94
841.297	59.51
841.47	58.14
841.642	60
841.815	61.38
841.987	61.43
842.16	59.02
842.332	61.46
842.505	62.82
842.677	67.56
842.85	69.64
843.022	72.4
843.194	73.65
843.367	73.51
843.539	72.04
843.712	73.73
843.884	73.77
844.056	76.49
844.229	75.02
844.401	76.48
844.573	73.47
844.745	72.76
844.918	70.17
845.09	72.18
845.262	75.06
845.434	80.29
845.606	80.24
845.779	83.47
845.951	82.7
846.123	86.41
846.295	86.36
846.467	89.33
846.639	91.48
846.811	98.38
846.983	102.92
847.155	101.33
847.327	100.52
847.499	102.96
847.671	102.89
847.843	102.41
848.015	98.01
848.187	102.1
848.359	100.88
848.531	100.33
848.703	94.34
848.875	92.52
849.047	95.43
849.218	95.23
849.39	95.43
849.562	94.87
849.734	95.67
849.905	100.65
850.077	98.01
850.249	100.29
850.421	100.45
850.592	103
850.764	97.92
850.936	95.37
851.107	95.41
851.279	93.35
851.451	91.51
851.622	96.38
851.794	95.22
851.965	95.21
852.137	96.21
852.308	96.72
852.48	97.44
852.651	100.23
852.823	101
852.994	101.35
853.166	101.32
853.337	106.06
853.509	104.77
853.68	101.16
853.851	100.26
854.023	100.41
854.194	100.13
854.365	99.67
854.537	103.16
854.708	103.98
854.879	104.09
855.05	106.32
855.222	105.16
855.393	103.88
855.564	108.35
855.735	108.01
855.906	105.71
856.078	103.98
856.249	103.77
856.42	101.91
856.591	105.01
856.762	102.95
856.933	101.2
857.104	98.86
857.275	95.68
857.446	93.8
857.617	94.51
857.788	94.28
857.959	94.79
858.13	95.47
858.301	93.33
858.472	88.69
858.643	89.76
858.814	91.19
858.985	91.61
859.155	95.47
859.326	94.55
859.497	97.14
859.668	98.13
859.839	100.61
860.009	100.33
860.18	103.69
860.351	103.88
860.522	108.77
860.692	108.89
860.863	110.63
861.034	112.79
861.204	113.8
861.375	109.4
861.546	106.1
861.716	105.44
861.887	105.13
862.057	106.05
862.228	104.43
862.398	101.59
862.569	105.51
862.739	108.78
862.91	107
863.08	107.62
863.251	108.45
863.421	112.13
863.592	115.57
863.762	113.31
863.932	114.18
864.103	119.81
864.273	115.3
864.443	111.41
864.614	108.23
864.784	105.2
864.954	101.92
865.125	103.3
865.295	103.86
865.465	101.63
865.635	106.8
865.805	107.28
865.976	109.04
866.146	111.56
866.316	112.57
866.486	113.8
866.656	112.56
866.826	116.41
866.996	116.25
867.166	113.9
867.336	112.24
867.506	108.18
867.676	108.3
867.846	105.51
868.016	107.94
868.186	109.64
868.356	110.33
868.526	113.26
868.696	115.45
868.866	113.41
869.036	115.72
869.206	123.15
869.376	126.65
869.545	119.19
869.715	124.55
869.885	126.57
870.055	116.89
870.224	120.34
870.394	114.81
870.564	115.12
870.734	112.94
870.903	111.65
871.073	100.9
871.243	94.56
871.412	95.31
871.582	92.15
871.751	93.53
871.921	98.41
872.091	95.83
872.26	95.58
872.43	91.06
872.599	94.85
872.769	96.69
872.938	100.69
873.108	105.91
873.277	109.48
873.446	107.13
873.616	104.4
873.785	99.93
873.955	98.64
874.124	101.38
874.293	104.78
874.463	102.07
874.632	100.05
874.801	98.43
874.971	98.03
875.14	97.2
875.309	95.76
875.478	96.34
875.647	100.5
875.817	99.02
875.986	99.5
876.155	95.95
876.324	99.97
876.493	97.46
876.662	100.58
876.831	96.62
877	96.37
877.17	96.61
877.339	96.55
877.508	96.06
877.677	100.75
877.846	97.93
878.015	103.76
878.184	95.41
878.352	94.1
878.521	90.51
878.69	93.8
878.859	92.64
879.028	94.01
879.197	87.46
879.366	84.27
879.534	78.18
879.703	74.1
879.872	66.67
880.041	66.38
880.21	62.66
880.378	59.33
880.547	53.55
880.716	50.27
880.884	46.61
881.053	44.58
881.222	43.33
881.39	41.7
881.559	40.43
881.727	40.02
881.896	38.43
882.065	37.9
882.233	36.88
882.402	37.27
882.57	36.53
882.739	36.53
882.907	37.09
883.076	36.72
883.244	36.5
883.412	37.15
883.581	37.11
883.749	37.51
883.918	37.85
884.086	38.69
884.254	38.6
884.423	40.3
884.591	41.42
884.759	42.03
884.927	43.63
885.096	45.72
885.264	47.53
885.432	50.45
885.6	53.43
885.769	56.47
885.937	58.77
886.105	64.1
886.273	65.18
886.441	65.96
886.609	69.37
886.777	70.97
886.945	72.97
887.113	73.92
887.281	74.29
887.449	75.72
887.617	79.15
887.785	83.01
887.953	81.6
888.121	82.99
888.289	86.09
888.457	87.8
888.625	89.59
888.793	92.26
888.961	92.86
889.129	95.41
889.296	99.98
889.464	101.39
889.632	99.88
889.8	101.23
889.967	105
890.135	107.58
