Data from 2938771__Reflection_10.txt Node
Date: Fri Mar 13 15:28:46 EDT 2015
User: robert
Spectrometer: USB4E03002
Autoset integration time: false
Trigger mode: 4
Integration Time (sec): 1.000000E-1
Scans to average: 10
Electric dark correction enabled: false
Nonlinearity correction enabled: false
Boxcar width: 5
Stray light correction enabled: false
XAxis mode: Wavelengths
Stop averaging: false
Number of Pixels in Spectrum: 3648
>>>>>Begin Spectral Data<<<<<
177.575	17.36
177.794	39.73
178.014	188.89
178.233	228.36
178.452	635.14
178.672	198.86
178.891	236.59
179.11	1604.35
179.33	-597.01
179.549	-279.37
179.768	-1810
179.987	891.04
180.207	2822.22
180.426	1469.23
180.645	-2271.43
180.864	-1154.84
181.084	-239.37
181.303	-357.48
181.522	-1872.34
181.741	6053.33
181.96	325.4
182.179	288.86
182.398	213.8
182.618	178.27
182.837	257.93
183.056	238.51
183.275	235.71
183.494	184.53
183.713	212.14
183.932	178.02
184.151	167.26
184.37	196.55
184.589	192.7
184.808	415.56
185.027	205.26
185.246	145.08
185.465	97.13
185.684	62.25
185.903	47.08
186.122	59.38
186.341	70.95
186.56	67
186.779	120.74
186.998	151.72
187.216	199.53
187.435	558.47
187.654	329.37
187.873	274.2
188.092	283.01
188.311	563.01
188.53	441.35
188.748	1445.31
188.967	-3625
189.186	607.97
189.405	527.34
189.623	278.26
189.842	199.28
190.061	198.56
190.28	286.97
190.498	204.33
190.717	185.99
190.936	200.78
191.154	167.04
191.373	167.08
191.592	169.65
191.81	137.04
192.029	132.61
192.248	129.97
192.466	116.22
192.685	87.2
192.904	83.2
193.122	49.89
193.341	46.24
193.559	39.38
193.778	22.58
193.996	-57.21
194.215	-236
194.433	21.5
194.652	45.27
194.87	214.89
195.089	3680
195.307	773.08
195.526	-208.41
195.744	874.47
195.963	289.62
196.181	250
196.399	182.93
196.618	172.75
196.836	205.35
197.055	256.49
197.273	271.43
197.491	858.82
197.71	711.11
197.928	267.6
198.146	291.53
198.365	370.67
198.583	434.85
198.801	-139.74
199.019	-70
199.238	-55.64
199.456	-50.98
199.674	-78.81
199.892	-28.46
200.111	-24.18
200.329	17.47
200.547	12.57
200.765	-67.77
200.983	-80.25
201.202	-201.87
201.42	-764.58
201.638	1382.61
201.856	446.39
202.074	1156.1
202.292	436.84
202.51	540.31
202.728	331.06
202.946	534.23
203.165	1168.25
203.383	69400
203.601	519.72
203.819	590.1
204.037	350.27
204.255	323.96
204.473	166.01
204.691	300.55
204.909	156.53
205.127	235.56
205.345	175.15
205.562	161.2
205.78	138.35
205.998	137.32
206.216	135.77
206.434	137.79
206.652	159.03
206.87	216.26
207.088	156.33
207.306	198.18
207.523	181.25
207.741	157.33
207.959	173.01
208.177	172.73
208.395	186.81
208.612	258.49
208.83	243.82
209.048	297.12
209.266	1920
209.483	-1576.47
209.701	-2616
209.919	896.88
210.136	11560
210.354	-1180.56
210.572	-226.23
210.79	567.29
211.007	220
211.225	591.53
211.442	154.17
211.66	91.21
211.878	76.62
212.095	216.12
212.313	247.14
212.53	223.69
212.748	221.3
212.966	145.12
213.183	192.73
213.401	200.83
213.618	168.76
213.836	167.92
214.053	188.4
214.271	210.53
214.488	75.56
214.705	79.19
214.923	77.09
215.14	77.54
215.358	84.45
215.575	74.79
215.793	74.19
216.01	79.26
216.227	85.71
216.445	84.96
216.662	76.08
216.879	76.5
217.097	66.49
217.314	72.74
217.531	68.18
217.749	62.08
217.966	59.68
218.183	51.83
218.4	38.05
218.618	29.98
218.835	27.87
219.052	21.39
219.269	24.86
219.487	31.28
219.704	31.5
219.921	19.8
220.138	20.49
220.355	17.94
220.572	18.83
220.79	19.67
221.007	12.39
221.224	6.63
221.441	10.14
221.658	23.47
221.875	24.42
222.092	32.83
222.309	30.17
222.526	34.53
222.743	32.36
222.96	33.06
223.177	37.14
223.394	33.42
223.611	35.13
223.828	37.02
224.045	31.63
224.262	35.77
224.479	31.96
224.696	39.78
224.913	36.83
225.13	39.13
225.347	38.9
225.564	33.74
225.781	32.57
225.997	26.22
226.214	25.01
226.431	20.25
226.648	12.37
226.865	10.81
227.082	7.34
227.298	6.82
227.515	5.56
227.732	3.7
227.949	3.95
228.165	5.48
228.382	6.22
228.599	5.87
228.816	5.88
229.032	6.11
229.249	5.5
229.466	5.83
229.682	5.29
229.899	4.56
230.116	4.51
230.332	4.49
230.549	3.87
230.765	3.78
230.982	3.16
231.199	2.76
231.415	4.26
231.632	4.05
231.848	5.25
232.065	5.86
232.281	7.2
232.498	8.48
232.714	8.66
232.931	8.61
233.147	9.04
233.364	10.42
233.58	9.72
233.797	7.19
234.013	7.33
234.23	5.33
234.446	5.65
234.662	4.43
234.879	4.17
235.095	4.09
235.312	5.45
235.528	4.52
235.744	2.92
235.961	5.18
236.177	7.35
236.393	8.78
236.61	8.82
236.826	8.39
237.042	11.21
237.258	10.05
237.475	10.03
237.691	7.87
237.907	7.58
238.123	9.06
238.339	7.98
238.556	5.84
238.772	4.96
238.988	6.09
239.204	5.82
239.42	5.35
239.636	5.99
239.853	6.74
240.069	7.98
240.285	8.83
240.501	7.36
240.717	7.54
240.933	7.51
241.149	6.76
241.365	6.5
241.581	6.2
241.797	5.56
242.013	5.57
242.229	5.26
242.445	4.66
242.661	4.5
242.877	4.21
243.093	4.46
243.309	4.76
243.525	4.37
243.741	3.77
243.957	4.38
244.173	4.73
244.388	4.62
244.604	4.26
244.82	3.99
245.036	3.69
245.252	3.89
245.468	3.73
245.683	3.65
245.899	3.36
246.115	3.45
246.331	3.11
246.547	2.65
246.762	2.65
246.978	3.03
247.194	3.08
247.409	3.28
247.625	3.34
247.841	2.95
248.057	2.87
248.272	3.19
248.488	3.32
248.703	3.49
248.919	3.63
249.135	3.41
249.35	3.09
249.566	2.99
249.782	2.74
249.997	2.5
250.213	3.51
250.428	3.88
250.644	4.51
250.859	4.26
251.075	4.54
251.29	4.59
251.506	6.16
251.721	6.05
251.937	5.94
252.152	5.97
252.368	6.27
252.583	5.81
252.798	5.57
253.014	5.63
253.229	6.1
253.445	5.65
253.66	5.46
253.875	5.02
254.091	4.65
254.306	5.1
254.521	4.61
254.737	5.07
254.952	4.87
255.167	4.13
255.383	3.42
255.598	2.72
255.813	3.06
256.028	3.5
256.244	2.54
256.459	3.54
256.674	2.35
256.889	2.94
257.104	2.24
257.32	2.58
257.535	3.07
257.75	2.95
257.965	2.58
258.18	1.9
258.395	1.81
258.61	2.02
258.826	1.77
259.041	2.39
259.256	2.32
259.471	2.37
259.686	2.15
259.901	2.21
260.116	2.26
260.331	2.61
260.546	2.57
260.761	2.71
260.976	2.61
261.191	2.81
261.406	2.67
261.621	2.79
261.836	2.74
262.05	2.41
262.265	2.29
262.48	2.2
262.695	2.04
262.91	2.06
263.125	2
263.34	1.28
263.555	0.85
263.769	0.66
263.984	-0.11
264.199	-0.68
264.414	0.21
264.629	0.29
264.843	0.84
265.058	0.93
265.273	1.33
265.488	1.37
265.702	2.12
265.917	2.44
266.132	2.36
266.346	2.24
266.561	3.19
266.776	2.49
266.99	2.5
267.205	2.27
267.42	2.22
267.634	2.54
267.849	2.47
268.063	2.82
268.278	2.62
268.492	2.82
268.707	3.02
268.922	2.52
269.136	3.62
269.351	3.27
269.565	3.46
269.78	3.36
269.994	3.31
270.209	3.01
270.423	2.68
270.637	2.51
270.852	2.28
271.066	2.4
271.281	2.39
271.495	1.8
271.709	1.8
271.924	1.51
272.138	1.6
272.353	1.67
272.567	1.99
272.781	2.17
272.996	2.55
273.21	3.11
273.424	3.34
273.638	3.19
273.853	3.27
274.067	3.65
274.281	3.94
274.495	3.68
274.71	3.56
274.924	3.36
275.138	3.11
275.352	2.98
275.566	2.91
275.781	2.48
275.995	2.99
276.209	3.03
276.423	2.31
276.637	1.86
276.851	2.15
277.065	2.44
277.279	2.49
277.493	2.68
277.707	2.93
277.921	2.23
278.135	2.43
278.349	2.06
278.563	2.22
278.777	3.05
278.991	3.45
279.205	3.74
279.419	3.06
279.633	2.93
279.847	2.78
280.061	1.92
280.275	2
280.489	1.98
280.703	2.06
280.917	2.19
281.131	1.84
281.344	1.72
281.558	1.12
281.772	1.63
281.986	1.97
282.2	2.05
282.414	2.38
282.627	2.36
282.841	2.21
283.055	2.2
283.269	1.6
283.482	1.67
283.696	1.61
283.91	1.66
284.123	1.4
284.337	1.41
284.551	1.2
284.764	1.38
284.978	1.43
285.192	1.44
285.405	1.3
285.619	1.43
285.833	1.19
286.046	1.07
286.26	1.31
286.473	1.19
286.687	1.21
286.9	1.3
287.114	0.8
287.327	0.77
287.541	0.71
287.754	0.9
287.968	1.16
288.181	1.57
288.395	1.85
288.608	2.05
288.822	2.05
289.035	1.56
289.248	1.26
289.462	1.65
289.675	1.58
289.889	2.05
290.102	2
290.315	1.89
290.529	1.72
290.742	1.69
290.955	1.16
291.169	1.65
291.382	1.8
291.595	1.83
291.808	1.95
292.022	2.19
292.235	1.64
292.448	1.82
292.661	1.94
292.875	2
293.088	2.21
293.301	2.45
293.514	1.86
293.727	2.13
293.94	2.15
294.153	2.21
294.367	2.04
294.58	2.22
294.793	1.78
295.006	1.88
295.219	1.84
295.432	1.62
295.645	1.94
295.858	1.92
296.071	1.96
296.284	1.95
296.497	1.92
296.71	2.19
296.923	2.47
297.136	2.65
297.349	2.55
297.562	2.84
297.775	2.76
297.988	2.85
298.201	3.04
298.414	2.99
298.626	3.36
298.839	3.31
299.052	3.15
299.265	3.01
299.478	3.17
299.691	3.37
299.903	3.18
300.116	3.49
300.329	3.23
300.542	3.51
300.755	3.22
300.967	2.97
301.18	3.05
301.393	3.24
301.605	3.21
301.818	3.09
302.031	2.82
302.243	2.68
302.456	2.61
302.669	2.52
302.881	2.4
303.094	2.58
303.307	2.72
303.519	2.31
303.732	2.18
303.944	1.92
304.157	2.12
304.37	2.24
304.582	2.12
304.795	1.87
305.007	2.01
305.22	1.75
305.432	1.94
305.645	1.86
305.857	2.48
306.069	2.43
306.282	2.83
306.494	2.5
306.707	2.45
306.919	2.5
307.132	2.74
307.344	2.9
307.556	3.3
307.769	3.15
307.981	3.4
308.193	2.97
308.406	2.85
308.618	2.69
308.83	2.73
309.043	2.85
309.255	2.96
309.467	2.87
309.679	2.47
309.892	2.24
310.104	2.3
310.316	2.05
310.528	2.08
310.74	2.31
310.953	2.45
311.165	2.34
311.377	2.3
311.589	2.49
311.801	2.36
312.013	2.54
312.225	2.76
312.437	2.79
312.649	2.96
312.862	2.87
313.074	2.73
313.286	2.89
313.498	3.06
313.71	3.43
313.922	3.43
314.134	3.75
314.346	3.56
314.558	3.65
314.77	3.75
314.982	3.73
315.193	4.04
315.405	4.25
315.617	4.18
315.829	4.26
316.041	3.99
316.253	3.53
316.465	4.12
316.677	4.45
316.888	4.33
317.1	4.04
317.312	4.17
317.524	4.29
317.736	4.53
317.947	4.6
318.159	5.15
318.371	4.99
318.583	5.34
318.794	5.09
319.006	5.51
319.218	5.4
319.43	5.52
319.641	5.84
319.853	6.22
320.064	5.95
320.276	6.06
320.488	5.68
320.699	6.27
320.911	6.37
321.123	5.9
321.334	5.2
321.546	5.18
321.757	5.27
321.969	4.91
322.18	5.12
322.392	5.36
322.603	5.2
322.815	5.61
323.026	5.57
323.238	5.53
323.449	5.69
323.661	6.06
323.872	6.23
324.083	6.59
324.295	7.03
324.506	6.79
324.718	6.64
324.929	6.79
325.14	6.77
325.352	6.79
325.563	7.15
325.774	7.28
325.986	7.59
326.197	8.16
326.408	8.63
326.62	8.51
326.831	8.66
327.042	8.95
327.253	9.21
327.464	9.48
327.676	9.78
327.887	9.85
328.098	10.37
328.309	10.43
328.52	10.49
328.732	10.49
328.943	11.09
329.154	11.47
329.365	11.84
329.576	11.8
329.787	12
329.998	11.88
330.209	12.19
330.42	12.56
330.631	13.12
330.842	13.03
331.053	13.28
331.264	12.95
331.475	12.84
331.686	12.94
331.897	13.09
332.108	13.31
332.319	13.91
332.53	14.03
332.741	14.26
332.952	13.94
333.163	13.9
333.374	13.63
333.585	13.98
333.795	14.08
334.006	14.08
334.217	14.4
334.428	14.49
334.639	14.35
334.849	13.99
335.06	13.63
335.271	13.78
335.482	13.88
335.692	14.03
335.903	13.87
336.114	14.05
336.325	14.18
336.535	13.9
336.746	13.77
336.957	13.63
337.167	13.87
337.378	13.9
337.589	14.12
337.799	14.23
338.01	14.34
338.22	14.55
338.431	14.53
338.642	14.51
338.852	14.72
339.063	14.84
339.273	15.12
339.484	15.42
339.694	15.28
339.905	15.29
340.115	15.56
340.326	15.51
340.536	15.51
340.746	15.56
340.957	15.93
341.167	15.69
341.378	15.58
341.588	15.36
341.799	15.1
342.009	15.23
342.219	15.13
342.43	14.91
342.64	15.06
342.85	15.13
343.061	14.96
343.271	14.29
343.481	14.4
343.691	14.04
343.902	13.98
344.112	14.18
344.322	14.1
344.532	14.01
344.743	14.29
344.953	13.99
345.163	13.92
345.373	13.95
345.583	14.12
345.793	14.25
346.004	14.7
346.214	14.68
346.424	14.67
346.634	14.9
346.844	14.82
347.054	14.51
347.264	14.76
347.474	14.58
347.684	14.33
347.894	14.56
348.104	14.53
348.314	14.44
348.524	14.4
348.734	14.07
348.944	13.97
349.154	14.43
349.364	14.33
349.574	14.17
349.784	14.38
349.994	15.07
350.204	15.11
350.413	15.23
350.623	15.23
350.833	15.12
351.043	15.18
351.253	15.12
351.463	14.92
351.672	15.05
351.882	15.45
352.092	15.44
352.302	15.18
352.511	15.19
352.721	15.05
352.931	15.03
353.141	15
353.35	15.09
353.56	14.94
353.77	14.89
353.979	14.68
354.189	14.38
354.399	14.25
354.608	14.1
354.818	14.32
355.027	14.18
355.237	14.27
355.447	14.44
355.656	14.24
355.866	14.07
356.075	13.78
356.285	13.82
356.494	13.4
356.704	13.48
356.913	13.45
357.123	12.94
357.332	12.98
357.542	12.93
357.751	12.78
357.96	12.81
358.17	13.12
358.379	13.14
358.589	13.11
358.798	13.72
359.007	13.57
359.217	13.62
359.426	13.87
359.635	13.83
359.845	13.66
360.054	13.79
360.263	13.75
360.472	13.54
360.682	13.59
360.891	13.56
361.1	13.29
361.309	13.21
361.519	12.88
361.728	12.82
361.937	13.06
362.146	12.99
362.355	12.94
362.564	13.01
362.774	13.09
362.983	13.01
363.192	13.05
363.401	13.03
363.61	13.12
363.819	13.28
364.028	13.18
364.237	12.88
364.446	12.81
364.655	12.83
364.864	12.87
365.073	12.82
365.282	13.08
365.491	12.8
365.7	12.89
365.909	12.99
366.118	13.16
366.327	13
366.536	13.06
366.745	13.21
366.954	13.21
367.162	12.96
367.371	13.01
367.58	12.81
367.789	12.93
367.998	12.73
368.207	12.55
368.415	12.29
368.624	12.48
368.833	12.3
369.042	12.25
369.25	12.27
369.459	12.73
369.668	12.59
369.877	12.63
370.085	12.66
370.294	12.97
370.503	13.19
370.711	13.3
370.92	13.21
371.129	13.18
371.337	13.25
371.546	13.09
371.754	13
371.963	13.05
372.171	13.26
372.38	13.39
372.589	13.15
372.797	13.01
373.006	12.89
373.214	13.06
373.423	13.12
373.631	13.14
373.84	13.2
374.048	13.14
374.256	13.27
374.465	13.16
374.673	13.2
374.882	13.14
375.09	13.21
375.298	13.58
375.507	13.45
375.715	13.31
375.923	13.13
376.132	13.03
376.34	12.77
376.548	12.77
376.757	12.75
376.965	12.59
377.173	12.54
377.381	12.52
377.59	12.28
377.798	12.21
378.006	12.2
378.214	12.3
378.423	12.33
378.631	12.51
378.839	12.21
379.047	12.17
379.255	12.19
379.463	12.35
379.671	12.24
379.879	12.37
380.088	12.5
380.296	12.69
380.504	12.67
380.712	12.7
380.92	12.74
381.128	12.98
381.336	12.78
381.544	12.96
381.752	12.9
381.96	12.92
382.168	12.89
382.376	13.2
382.584	13.45
382.791	13.46
382.999	13.38
383.207	13.42
383.415	13.51
383.623	13.55
383.831	13.28
384.039	13.41
384.247	13.36
384.454	13.19
384.662	12.94
384.87	12.58
385.078	12.53
385.285	12.65
385.493	12.55
385.701	12.38
385.909	12.34
386.116	12.66
386.324	12.62
386.532	12.57
386.739	12.72
386.947	12.69
387.155	12.85
387.362	13
387.57	12.94
387.778	13.1
387.985	13.31
388.193	13.41
388.4	13.25
388.608	13.23
388.816	13.3
389.023	13.59
389.231	13.49
389.438	13.49
389.646	13.37
389.853	13.47
390.061	13.5
390.268	13.17
390.475	13.21
390.683	13.07
390.89	12.97
391.098	13.01
391.305	12.62
391.512	12.59
391.72	12.54
391.927	12.59
392.135	12.52
392.342	12.46
392.549	12.72
392.756	12.64
392.964	12.63
393.171	12.61
393.378	12.47
393.586	12.52
393.793	12.62
394	12.6
394.207	12.63
394.414	12.61
394.622	12.54
394.829	12.46
395.036	12.55
395.243	12.73
395.45	12.81
395.657	12.81
395.864	12.91
396.072	12.87
396.279	13.02
396.486	12.83
396.693	13.07
396.9	13.2
397.107	13.18
397.314	13.16
397.521	13.09
397.728	13.1
397.935	13.33
398.142	13.37
398.349	13.54
398.556	13.51
398.763	13.67
398.97	13.48
399.177	13.25
399.383	13.3
399.59	13.42
399.797	13.48
400.004	13.63
400.211	13.65
400.418	13.62
400.625	13.67
400.831	13.64
401.038	13.75
401.245	13.92
401.452	14.26
401.658	14.26
401.865	14.12
402.072	14.16
402.279	14.11
402.485	14.17
402.692	14.12
402.899	13.98
403.105	14.1
403.312	14.04
403.519	13.98
403.725	13.82
403.932	13.9
404.138	14.08
404.345	14.04
404.552	13.97
404.758	13.82
404.965	13.86
405.171	13.87
405.378	13.73
405.584	13.75
405.791	13.74
405.997	13.78
406.204	13.6
406.41	13.67
406.617	13.88
406.823	14.03
407.029	14.18
407.236	14.28
407.442	14.51
407.649	14.62
407.855	14.67
408.061	14.76
408.268	14.77
408.474	14.9
408.68	14.7
408.887	14.68
409.093	14.61
409.299	14.56
409.505	14.44
409.712	14.24
409.918	14.13
410.124	14.21
410.33	14.3
410.537	14.48
410.743	14.57
410.949	14.6
411.155	14.59
411.361	14.66
411.567	14.71
411.773	14.78
411.98	14.77
412.186	14.81
412.392	14.84
412.598	14.61
412.804	14.41
413.01	14.44
413.216	14.54
413.422	14.3
413.628	14.29
413.834	14.36
414.04	14.31
414.246	14.39
414.452	14.44
414.658	14.38
414.864	14.55
415.07	14.75
415.275	14.62
415.481	14.59
415.687	14.83
415.893	14.79
416.099	14.67
416.305	14.81
416.511	14.87
416.716	14.87
416.922	14.88
417.128	14.78
417.334	14.65
417.539	14.61
417.745	14.51
417.951	14.42
418.157	14.38
418.362	14.38
418.568	14.36
418.774	14.39
418.979	14.51
419.185	14.45
419.391	14.4
419.596	14.45
419.802	14.5
420.008	14.59
420.213	14.68
420.419	14.73
420.624	14.79
420.83	14.85
421.035	14.77
421.241	14.7
421.446	14.73
421.652	14.86
421.857	14.86
422.063	14.93
422.268	15
422.474	15.06
422.679	15.09
422.885	15.14
423.09	15.1
423.295	15.2
423.501	15.2
423.706	15.21
423.911	15.19
424.117	15.24
424.322	15.21
424.527	15.09
424.733	15.07
424.938	15.13
425.143	15.15
425.349	15.17
425.554	15.16
425.759	15.17
425.964	15.21
426.169	15.24
426.375	15.28
426.58	15.32
426.785	15.42
426.99	15.4
427.195	15.38
427.4	15.42
427.605	15.5
427.811	15.52
428.016	15.59
428.221	15.57
428.426	15.68
428.631	15.59
428.836	15.65
429.041	15.62
429.246	15.6
429.451	15.66
429.656	15.58
429.861	15.59
430.066	15.66
430.271	15.7
430.476	15.76
430.681	15.76
430.886	15.68
431.09	15.7
431.295	15.96
431.5	16.07
431.705	15.99
431.91	16.03
432.115	16.01
432.32	16
432.524	16.02
432.729	16.04
432.934	16.04
433.139	16.05
433.343	16.04
433.548	15.93
433.753	16.01
433.958	16.13
434.162	16.19
434.367	16.26
434.572	16.31
434.776	16.32
434.981	16.45
435.186	16.52
435.39	16.71
435.595	16.75
435.799	16.78
436.004	16.72
436.209	16.65
436.413	16.79
436.618	16.71
436.822	16.65
437.027	16.67
437.231	16.63
437.436	16.59
437.64	16.49
437.845	16.48
438.049	16.54
438.253	16.59
438.458	16.57
438.662	16.32
438.867	16.44
439.071	16.44
439.275	16.45
439.48	16.42
439.684	16.46
439.888	16.48
440.093	16.51
440.297	16.52
440.501	16.49
440.706	16.53
440.91	16.66
441.114	16.62
441.318	16.64
441.523	16.62
441.727	16.67
441.931	16.61
442.135	16.7
442.339	16.72
442.543	16.69
442.748	16.74
442.952	16.69
443.156	16.69
443.36	16.78
443.564	16.84
443.768	16.9
443.972	16.88
444.176	16.82
444.38	16.8
444.584	16.85
444.788	16.84
444.992	16.81
445.196	16.88
445.4	16.92
445.604	16.91
445.808	16.87
446.012	16.74
446.216	16.81
446.42	16.85
446.624	16.81
446.828	16.83
447.032	16.76
447.235	16.74
447.439	16.7
447.643	16.67
447.847	16.7
448.051	16.67
448.254	16.81
448.458	16.79
448.662	16.83
448.866	16.93
449.069	16.88
449.273	16.96
449.477	17
449.681	17.05
449.884	17.05
450.088	16.99
450.292	17.06
450.495	17.05
450.699	16.95
450.902	17.05
451.106	16.89
451.31	16.96
451.513	17.01
451.717	16.96
451.92	16.91
452.124	16.95
452.327	16.97
452.531	16.94
452.734	16.96
452.938	17.09
453.141	17.01
453.345	17.12
453.548	17
453.752	17
453.955	17.07
454.158	17.12
454.362	17.21
454.565	17.25
454.769	17.26
454.972	17.22
455.175	17.24
455.379	17.35
455.582	17.41
455.785	17.44
455.988	17.38
456.192	17.46
456.395	17.44
456.598	17.27
456.801	17.26
457.005	17.35
457.208	17.3
457.411	17.27
457.614	17.06
457.817	16.89
458.021	16.87
458.224	16.93
458.427	16.92
458.63	16.81
458.833	16.83
459.036	16.74
459.239	16.69
459.442	16.72
459.645	16.67
459.848	16.71
460.051	16.7
460.254	16.72
460.457	16.72
460.66	16.67
460.863	16.79
461.066	16.84
461.269	16.98
461.472	16.94
461.675	17.02
461.878	17.1
462.081	17.13
462.284	17.25
462.486	17.31
462.689	17.37
462.892	17.45
463.095	17.44
463.298	17.47
463.5	17.35
463.703	17.44
463.906	17.4
464.109	17.37
464.311	17.41
464.514	17.42
464.717	17.37
464.92	17.34
465.122	17.32
465.325	17.3
465.528	17.33
465.73	17.3
465.933	17.43
466.135	17.44
466.338	17.53
466.541	17.53
466.743	17.51
466.946	17.59
467.148	17.58
467.351	17.58
467.553	17.63
467.756	17.59
467.958	17.64
468.161	17.41
468.363	17.42
468.566	17.35
468.768	17.36
468.971	17.37
469.173	17.33
469.375	17.39
469.578	17.44
469.78	17.44
469.983	17.5
470.185	17.51
470.387	17.6
470.59	17.54
470.792	17.53
470.994	17.5
471.196	17.47
471.399	17.5
471.601	17.47
471.803	17.4
472.005	17.32
472.208	17.36
472.41	17.34
472.612	17.42
472.814	17.4
473.016	17.4
473.218	17.47
473.421	17.4
473.623	17.36
473.825	17.31
474.027	17.38
474.229	17.49
474.431	17.35
474.633	17.4
474.835	17.31
475.037	17.43
475.239	17.51
475.441	17.47
475.643	17.55
475.845	17.48
476.047	17.49
476.249	17.53
476.451	17.42
476.653	17.43
476.855	17.28
477.057	17.26
477.258	17.24
477.46	17.15
477.662	17.23
477.864	17.21
478.066	17.25
478.268	17.26
478.469	17.19
478.671	17.25
478.873	17.27
479.075	17.29
479.276	17.36
479.478	17.31
479.68	17.37
479.882	17.31
480.083	17.34
480.285	17.35
480.487	17.38
480.688	17.3
480.89	17.34
481.091	17.25
481.293	17.3
481.495	17.2
481.696	17.21
481.898	17.16
482.099	17.11
482.301	17.08
482.502	17.08
482.704	17.05
482.905	17.06
483.107	17
483.308	16.99
483.51	16.97
483.711	16.99
483.913	16.93
484.114	16.93
484.315	16.93
484.517	16.94
484.718	16.92
484.92	16.93
485.121	16.94
485.322	17.02
485.524	17.08
485.725	17.09
485.926	17.08
486.127	17.16
486.329	17.17
486.53	17.19
486.731	17.19
486.932	17.2
487.134	17.21
487.335	17.22
487.536	17.18
487.737	17.13
487.938	17.15
488.139	17.21
488.341	17.21
488.542	17.21
488.743	17.24
488.944	17.25
489.145	17.29
489.346	17.3
489.547	17.34
489.748	17.37
489.949	17.39
490.15	17.38
490.351	17.31
490.552	17.32
490.753	17.31
490.954	17.29
491.155	17.26
491.356	17.2
491.557	17.19
491.758	17.14
491.959	17.15
492.159	17.19
492.36	17.21
492.561	17.31
492.762	17.33
492.963	17.39
493.164	17.46
493.364	17.52
493.565	17.54
493.766	17.58
493.967	17.66
494.167	17.64
494.368	17.65
494.569	17.7
494.769	17.62
494.97	17.66
495.171	17.66
495.371	17.6
495.572	17.64
495.773	17.77
495.973	17.75
496.174	17.65
496.375	17.77
496.575	17.85
496.776	17.83
496.976	17.84
497.177	17.74
497.377	17.77
497.578	17.8
497.778	17.86
497.979	17.79
498.179	17.81
498.38	17.88
498.58	17.84
498.78	17.76
498.981	17.77
499.181	17.83
499.382	17.92
499.582	17.92
499.782	17.99
499.983	17.93
500.183	17.98
500.383	17.9
500.584	17.98
500.784	17.96
500.984	18.01
501.184	18.12
501.385	18.1
501.585	18.12
501.785	18.13
501.985	18.07
502.185	18.16
502.386	18.27
502.586	18.36
502.786	18.24
502.986	18.23
503.186	18.18
503.386	18.14
503.586	18.12
503.786	18.05
503.987	18.02
504.187	17.95
504.387	17.93
504.587	17.82
504.787	17.84
504.987	17.92
505.187	17.98
505.387	18.06
505.587	18.07
505.786	18.13
505.986	18.13
506.186	18.2
506.386	18.35
506.586	18.27
506.786	18.31
506.986	18.39
507.186	18.39
507.386	18.42
507.585	18.38
507.785	18.37
507.985	18.47
508.185	18.54
508.384	18.48
508.584	18.38
508.784	18.43
508.984	18.38
509.183	18.25
509.383	18.33
509.583	18.33
509.782	18.34
509.982	18.38
510.182	18.36
510.381	18.39
510.581	18.39
510.781	18.38
510.98	18.42
511.18	18.5
511.379	18.59
511.579	18.6
511.778	18.62
511.978	18.69
512.177	18.67
512.377	18.73
512.576	18.73
512.776	18.77
512.975	18.9
513.175	18.93
513.374	18.9
513.573	18.93
513.773	18.92
513.972	18.91
514.172	18.88
514.371	18.96
514.57	18.9
514.77	18.83
514.969	18.83
515.168	18.89
515.367	18.91
515.567	18.96
515.766	18.85
515.965	18.84
516.164	18.83
516.364	18.84
516.563	18.78
516.762	18.73
516.961	18.72
517.16	18.78
517.359	18.77
517.559	18.79
517.758	18.8
517.957	18.91
518.156	18.92
518.355	18.93
518.554	18.98
518.753	18.98
518.952	19.03
519.151	19.05
519.35	18.99
519.549	18.91
519.748	18.92
519.947	18.91
520.146	19.01
520.345	19.01
520.544	18.99
520.743	19.03
520.942	19.08
521.141	19.13
521.339	19.18
521.538	19.28
521.737	19.37
521.936	19.37
522.135	19.43
522.333	19.37
522.532	19.44
522.731	19.39
522.93	19.3
523.129	19.38
523.327	19.42
523.526	19.39
523.725	19.32
523.923	19.39
524.122	19.36
524.321	19.33
524.519	19.23
524.718	19.17
524.917	19.26
525.115	19.25
525.314	19.14
525.512	19.12
525.711	19.19
525.909	19.24
526.108	19.23
526.306	19.16
526.505	19.18
526.703	19.19
526.902	19.2
527.1	19.13
527.299	19.1
527.497	19.15
527.696	19.11
527.894	19.09
528.092	19.06
528.291	19.04
528.489	19.07
528.688	19.03
528.886	19.05
529.084	19.05
529.283	19.09
529.481	19.12
529.679	19.12
529.877	19.15
530.076	19.14
530.274	19.17
530.472	19.18
530.67	19.22
530.869	19.31
531.067	19.34
531.265	19.35
531.463	19.37
531.661	19.42
531.859	19.41
532.057	19.39
532.255	19.42
532.454	19.44
532.652	19.43
532.85	19.39
533.048	19.35
533.246	19.34
533.444	19.34
533.642	19.33
533.84	19.35
534.038	19.41
534.236	19.42
534.434	19.42
534.632	19.43
534.83	19.48
535.027	19.56
535.225	19.62
535.423	19.75
535.621	19.86
535.819	19.88
536.017	19.82
536.215	19.79
536.412	19.86
536.61	19.91
536.808	19.96
537.006	20
537.203	20.07
537.401	20.1
537.599	20.04
537.797	20.05
537.994	20.15
538.192	20.3
538.39	20.4
538.587	20.45
538.785	20.56
538.983	20.6
539.18	20.69
539.378	20.71
539.575	20.79
539.773	20.81
539.97	20.76
540.168	20.82
540.366	20.87
540.563	20.9
540.761	20.93
540.958	20.93
541.155	20.96
541.353	20.94
541.55	21.01
541.748	21
541.945	21.08
542.143	21.18
542.34	21.16
542.537	21.21
542.735	21.26
542.932	21.34
543.129	21.4
543.327	21.49
543.524	21.55
543.721	21.63
543.919	21.84
544.116	21.98
544.313	22.15
544.51	22.39
544.708	22.53
544.905	22.64
545.102	22.79
545.299	22.96
545.496	23.11
545.693	23.25
545.891	23.23
546.088	23.16
546.285	23.12
546.482	23.06
546.679	22.97
546.876	22.8
547.073	22.73
547.27	22.57
547.467	22.42
547.664	22.32
547.861	22.19
548.058	22.11
548.255	22.04
548.452	22.05
548.649	21.89
548.846	21.95
549.043	22.02
549.24	22.03
549.437	22.03
549.633	22.05
549.83	21.97
550.027	21.97
550.224	22.12
550.421	22.1
550.618	21.97
550.814	21.98
551.011	21.83
551.208	21.79
551.405	21.71
551.601	21.72
551.798	21.65
551.995	21.63
552.191	21.57
552.388	21.47
552.585	21.51
552.781	21.48
552.978	21.46
553.175	21.4
553.371	21.34
553.568	21.35
553.764	21.38
553.961	21.42
554.157	21.37
554.354	21.4
554.55	21.34
554.747	21.34
554.943	21.33
555.14	21.31
555.336	21.33
555.533	21.37
555.729	21.39
555.926	21.25
556.122	21.36
556.318	21.37
556.515	21.44
556.711	21.38
556.907	21.28
557.104	21.27
557.3	21.38
557.496	21.39
557.693	21.38
557.889	21.5
558.085	21.63
558.281	21.47
558.478	21.49
558.674	21.4
558.87	21.42
559.066	21.49
559.262	21.5
559.459	21.3
559.655	21.34
559.851	21.34
560.047	21.21
560.243	21.09
560.439	21.05
560.635	20.97
560.831	20.97
561.027	20.97
561.223	21.02
561.419	20.97
561.615	21.08
561.811	21
562.007	20.94
562.203	20.96
562.399	21.04
562.595	21.15
562.791	21.21
562.987	21.23
563.183	21.29
563.379	21.27
563.575	21.28
563.771	21.25
563.966	21.35
564.162	21.47
564.358	21.4
564.554	21.36
564.75	21.29
564.945	21.31
565.141	21.29
565.337	21.2
565.533	21.22
565.728	21.19
565.924	21.29
566.12	21.24
566.315	21.26
566.511	21.36
566.707	21.43
566.902	21.42
567.098	21.42
567.293	21.46
567.489	21.57
567.684	21.48
567.88	21.61
568.076	21.53
568.271	21.67
568.467	21.58
568.662	21.56
568.858	21.49
569.053	21.5
569.248	21.53
569.444	21.59
569.639	21.55
569.835	21.72
570.03	21.74
570.225	21.69
570.421	21.61
570.616	21.6
570.812	21.66
571.007	21.72
571.202	21.82
571.397	21.72
571.593	21.59
571.788	21.6
571.983	21.51
572.178	21.48
572.374	21.52
572.569	21.45
572.764	21.53
572.959	21.48
573.154	21.42
573.35	21.46
573.545	21.58
573.74	21.64
573.935	21.66
574.13	21.67
574.325	21.61
574.52	21.6
574.715	21.77
574.91	21.72
575.105	21.71
575.3	21.84
575.495	21.73
575.69	21.8
575.885	21.91
576.08	22.03
576.275	22.1
576.47	22.22
576.665	22.47
576.86	22.55
577.055	22.62
577.25	22.72
577.444	22.76
577.639	22.84
577.834	22.86
578.029	22.78
578.224	22.74
578.418	22.79
578.613	22.89
578.808	22.6
579.003	22.64
579.197	22.58
579.392	22.55
579.587	22.59
579.781	22.8
579.976	22.82
580.171	22.93
580.365	22.96
580.56	23.07
580.755	23
580.949	23.15
581.144	23.1
581.338	23.34
581.533	23.4
581.727	23.37
581.922	23.25
582.116	23.14
582.311	23.11
582.505	23.14
582.7	23.03
582.894	23.04
583.089	23.16
583.283	23.15
583.478	23.11
583.672	23.09
583.866	23.07
584.061	23.09
584.255	23.23
584.449	23.4
584.644	23.61
584.838	23.77
585.032	23.86
585.226	23.85
585.421	23.86
585.615	23.97
585.809	24.09
586.003	24.22
586.198	24.31
586.392	24.43
586.586	24.41
586.78	24.2
586.974	24.13
587.168	24.22
587.363	24.24
587.557	24.34
587.751	24.12
587.945	24.13
588.139	24.06
588.333	23.98
588.527	23.83
588.721	23.65
588.915	23.6
589.109	23.59
589.303	23.58
589.497	23.51
589.691	23.31
589.885	23.44
590.079	23.35
590.273	23.39
590.466	23.39
590.66	23.55
590.854	23.56
591.048	23.8
591.242	23.93
591.436	23.99
591.629	24.05
591.823	24.12
592.017	24.13
592.211	24.22
592.404	24.32
592.598	24.26
592.792	24.18
592.986	24.32
593.179	24.14
593.373	24.07
593.567	23.89
593.76	23.87
593.954	23.99
594.147	24.01
594.341	23.83
594.535	23.71
594.728	23.93
594.922	23.92
595.115	23.9
595.309	23.89
595.502	23.76
595.696	23.74
595.889	23.57
596.083	23.48
596.276	23.34
596.47	23.42
596.663	23.34
596.856	23.05
597.05	23
597.243	23.05
597.437	23.09
597.63	23.18
597.823	23.22
598.017	23.4
598.21	23.43
598.403	23.53
598.596	23.58
598.79	23.74
598.983	24
599.176	24
599.369	24.07
599.563	24.04
599.756	24.07
599.949	24.06
600.142	24
600.335	23.97
600.528	24.13
600.722	24.16
600.915	24.13
601.108	23.98
601.301	24.01
601.494	23.87
601.687	24.03
601.88	23.95
602.073	24.04
602.266	24.04
602.459	24.13
602.652	23.94
602.845	23.87
603.038	23.82
603.231	23.84
603.424	23.81
603.617	23.81
603.809	23.56
604.002	23.68
604.195	23.62
604.388	23.6
604.581	23.6
604.774	23.65
604.966	23.62
605.159	23.72
605.352	23.77
605.545	23.93
605.737	23.95
605.93	24.16
606.123	24.17
606.316	24.22
606.508	24.35
606.701	24.42
606.894	24.5
607.086	24.59
607.279	24.66
607.471	24.76
607.664	24.73
607.857	25.03
608.049	25.29
608.242	25.38
608.434	25.8
608.627	26.36
608.819	26.9
609.012	27.7
609.204	28.57
609.397	29.43
609.589	30.41
609.782	31.59
609.974	32.43
610.166	33.43
610.359	34.62
610.551	35.4
610.743	36.14
610.936	36.92
611.128	37.41
611.32	37.82
611.513	37.94
611.705	37.94
611.897	37.7
612.09	37.41
612.282	37.07
612.474	36.59
612.666	36.16
612.858	35.66
613.051	34.96
613.243	34.16
613.435	33.41
613.627	32.91
613.819	32.68
614.011	32.28
614.203	31.91
614.395	31.54
614.588	31.09
614.78	30.86
614.972	30.45
615.164	30.18
615.356	30.14
615.548	29.89
615.74	29.6
615.932	29.31
616.124	28.65
616.315	28.51
616.507	27.96
616.699	27.7
616.891	27.44
617.083	27.15
617.275	27.06
617.467	26.86
617.659	26.65
617.85	26.55
618.042	26.29
618.234	26.68
618.426	26.87
618.618	26.95
618.809	26.92
619.001	26.88
619.193	26.88
619.384	26.73
619.576	26.62
619.768	26.72
619.959	26.66
620.151	26.4
620.343	26.25
620.534	25.98
620.726	26.05
620.917	26.03
621.109	26.21
621.301	26.41
621.492	26.37
621.684	26.33
621.875	26.23
622.067	26.23
622.258	26.5
622.45	26.63
622.641	26.73
622.832	26.96
623.024	27.16
623.215	27.19
623.407	26.91
623.598	26.99
623.789	27.16
623.981	27.4
624.172	27.46
624.363	27.36
624.555	27.1
624.746	27.07
624.937	26.76
625.129	26.62
625.32	26.49
625.511	26.45
625.702	26.56
625.893	26.57
626.085	26.39
626.276	26.37
626.467	26.39
626.658	26.5
626.849	26.42
627.04	26.43
627.231	26.44
627.422	26.36
627.614	26.59
627.805	26.52
627.996	26.42
628.187	26.47
628.378	26.63
628.569	26.73
628.76	26.89
628.951	27.04
629.142	27.27
629.332	27.57
629.523	27.65
629.714	27.64
629.905	27.78
630.096	27.9
630.287	27.99
630.478	28.02
630.669	27.91
630.859	27.87
631.05	27.73
631.241	27.7
631.432	27.32
631.623	27.37
631.813	27.36
632.004	27.13
632.195	26.97
632.385	26.95
632.576	26.61
632.767	26.62
632.957	26.36
633.148	26.45
633.339	26.35
633.529	26.57
633.72	26.48
633.91	26.36
634.101	26.32
634.292	26.12
634.482	26.03
634.673	26.07
634.863	25.95
635.054	26.14
635.244	25.98
635.435	26.05
635.625	25.79
635.815	25.63
636.006	25.64
636.196	25.71
636.387	26.06
636.577	26.09
636.767	26.26
636.958	26.38
637.148	26.27
637.338	26.37
637.529	26.45
637.719	26.52
637.909	26.55
638.099	26.55
638.29	26.44
638.48	26.2
638.67	26.21
638.86	26.08
639.05	26.09
639.241	26.19
639.431	26.31
639.621	26.09
639.811	26.06
640.001	26.46
640.191	26.55
640.381	26.83
640.571	26.99
640.761	26.89
640.951	26.75
641.141	26.68
641.331	26.59
641.521	26.54
641.711	26.73
641.901	26.8
642.091	26.68
642.281	26.68
642.471	26.51
642.661	26.68
642.851	26.84
643.041	27.08
643.231	27.31
643.42	27.38
643.61	27.18
643.8	27
643.99	27.12
644.18	27.06
644.369	26.98
644.559	26.97
644.749	26.87
644.939	26.88
645.128	26.86
645.318	26.65
645.508	26.69
645.697	26.9
645.887	26.82
646.076	26.78
646.266	26.7
646.456	26.75
646.645	26.97
646.835	26.88
647.024	26.97
647.214	26.95
647.403	26.99
647.593	27.01
647.782	26.83
647.972	27.22
648.161	27.2
648.351	27.14
648.54	27.19
648.73	27.08
648.919	27.16
649.108	27.12
649.298	27.28
649.487	27.4
649.677	27.42
649.866	27.66
650.055	27.4
650.244	27.53
650.434	27.69
650.623	27.54
650.812	27.49
651.002	27.35
651.191	27.6
651.38	27.41
651.569	27.5
651.758	27.51
651.947	27.32
652.137	27.35
652.326	27.34
652.515	27.21
652.704	27.44
652.893	27.63
653.082	27.86
653.271	27.71
653.46	27.74
653.649	27.49
653.838	27.67
654.027	27.76
654.216	27.58
654.405	27.44
654.594	27.59
654.783	27.62
654.972	27.44
655.161	27.32
655.35	27.16
655.539	27.26
655.728	27.39
655.916	27.37
656.105	27.36
656.294	27.47
656.483	27.69
656.672	27.67
656.86	27.36
657.049	27.39
657.238	27.45
657.427	27.53
657.615	27.38
657.804	27.3
657.993	26.86
658.181	26.72
658.37	26.82
658.559	26.72
658.747	26.7
658.936	26.92
659.125	27.14
659.313	27.36
659.502	27.3
659.69	27.32
659.879	27.29
660.067	27.75
660.256	27.94
660.444	27.86
660.633	27.9
660.821	28.11
661.01	28.09
661.198	27.97
661.387	27.73
661.575	27.74
661.763	27.93
661.952	28.3
662.14	28.16
662.328	28.26
662.517	28.35
662.705	28.28
662.893	28.19
663.082	28.11
663.27	28.16
663.458	28.17
663.646	28.5
663.834	28.54
664.023	28.41
664.211	28.54
664.399	28.54
664.587	28.47
664.775	28.79
664.963	28.6
665.152	28.7
665.34	28.74
665.528	28.85
665.716	28.75
665.904	29.01
666.092	29
666.28	28.94
666.468	28.9
666.656	29.19
666.844	29.17
667.032	29.42
667.22	29.51
667.408	29.62
667.596	29.68
667.784	29.55
667.971	29.42
668.159	29.28
668.347	29.12
668.535	29.03
668.723	28.99
668.911	28.96
669.098	28.82
669.286	28.54
669.474	28.5
669.662	28.42
669.849	28.69
670.037	28.6
670.225	28.47
670.413	28.49
670.6	28.76
670.788	28.81
670.976	28.68
671.163	28.98
671.351	29.32
671.538	29.24
671.726	29.32
671.913	29.01
672.101	29.15
672.289	29.26
672.476	29.21
672.664	28.91
672.851	28.72
673.039	28.73
673.226	28.48
673.413	28.62
673.601	28.62
673.788	28.61
673.976	28.82
674.163	28.71
674.35	29.27
674.538	29.6
674.725	29.81
674.912	30.04
675.1	29.99
675.287	30.22
675.474	29.94
675.662	29.95
675.849	29.91
676.036	30.11
676.223	30.44
676.411	30.03
676.598	29.91
676.785	29.94
676.972	29.75
677.159	29.81
677.346	29.81
677.533	29.91
677.721	29.96
677.908	29.99
678.095	29.67
678.282	29.38
678.469	29.08
678.656	29.05
678.843	29.27
679.03	29.36
679.217	29.25
679.404	29.26
679.591	29.24
679.778	29.21
679.964	29.22
680.151	29.32
680.338	29.23
680.525	29.58
680.712	29.47
680.899	29.61
681.086	29.55
681.272	29.67
681.459	29.66
681.646	29.79
681.833	29.66
682.02	29.63
682.206	29.61
682.393	29.73
682.58	29.68
682.766	29.74
682.953	29.62
683.14	29.81
683.326	30.14
683.513	30.17
683.7	30.34
683.886	30.67
684.073	30.92
684.259	31.06
684.446	31.28
684.632	31.57
684.819	31.73
685.005	31.64
685.192	31.8
685.378	31.83
685.565	32.05
685.751	32.1
685.938	32.03
686.124	32.11
686.31	31.76
686.497	31.71
686.683	31.54
686.87	31.69
687.056	31.53
687.242	31.31
687.429	31.13
687.615	31.06
687.801	31.08
687.987	31.19
688.174	31.02
688.36	31.29
688.546	31.47
688.732	31.79
688.918	32.04
689.105	31.96
689.291	32.03
689.477	31.83
689.663	31.54
689.849	31.26
690.035	31.24
690.221	31.32
690.407	31.54
690.593	31.58
690.779	31.35
690.965	31.12
691.151	31.36
691.337	31.47
691.523	31.71
691.709	32.1
691.895	32.51
692.081	32.37
692.267	32.57
692.453	32.88
692.639	32.41
692.825	32.35
693.011	32.3
693.196	32.7
693.382	32.7
693.568	32.72
693.754	32.87
693.94	32.86
694.125	33.19
694.311	32.88
694.497	32.39
694.682	32.64
694.868	32.61
695.054	32.68
695.239	32.18
695.425	32.3
695.611	32.09
695.796	31.66
695.982	31.4
696.168	31
696.353	31.22
696.539	31.4
696.724	31.53
696.91	31.4
697.095	31.21
697.281	31.43
697.466	31.64
697.652	31.65
697.837	31.94
698.023	32
698.208	32.07
698.393	31.9
698.579	31.99
698.764	32.06
698.949	32.19
699.135	32.26
699.32	32.09
699.505	31.6
699.691	31.8
699.876	31.49
700.061	31.45
700.246	31.48
700.432	31.52
700.617	31.4
700.802	31.17
700.987	31.33
701.172	31.36
701.358	31.82
701.543	32.14
701.728	32.31
701.913	32.42
702.098	32.5
702.283	32.93
702.468	32.79
702.653	32.98
702.838	33.29
703.023	33.21
703.208	33.56
703.393	33.05
703.578	32.94
703.763	32.85
703.948	33.22
704.133	33.63
704.318	33.44
704.503	34.12
704.688	34.1
704.873	34.47
705.057	34.87
705.242	34.96
705.427	35.69
705.612	36.23
705.797	36.52
705.981	36.72
706.166	36.84
706.351	36.99
706.536	37.02
706.72	36.97
706.905	37.09
707.09	37.06
707.274	37.25
707.459	36.84
707.644	37.11
707.828	37.12
708.013	37.32
708.197	37.24
708.382	37.36
708.567	37.5
708.751	37.25
708.936	37.09
709.12	37.21
709.305	36.86
709.489	36.88
709.673	36.65
709.858	36.71
710.042	36.24
710.227	36.32
710.411	36.35
710.596	35.84
710.78	36.34
710.964	36.19
711.149	36.26
711.333	36.39
711.517	36.33
711.702	36.22
711.886	36.21
712.07	36.4
712.254	36.07
712.438	35.95
712.623	36.32
712.807	36.17
712.991	36.1
713.175	35.85
713.359	35.74
713.544	35.8
713.728	35.94
713.912	35.84
714.096	35.67
714.28	35.72
714.464	35.47
714.648	35.22
714.832	35.16
715.016	35.1
715.2	34.75
715.384	34.5
715.568	34.65
715.752	34.24
715.936	33.99
716.12	33.82
716.304	33.68
716.488	34.04
716.671	34.16
716.855	34.13
717.039	33.97
717.223	34.4
717.407	34.8
717.59	34.58
717.774	34.8
717.958	34.91
718.142	34.79
718.325	34.87
718.509	34.77
718.693	34.41
718.877	34.06
719.06	34.57
719.244	34.01
719.428	33.93
719.611	34.25
719.795	34.04
719.978	33.62
720.162	33.8
720.345	33.93
720.529	34.05
720.713	34.53
720.896	35.23
721.08	34.9
721.263	35.03
721.446	35.34
721.63	34.93
721.813	35.28
721.997	35.96
722.18	35.58
722.364	35.67
722.547	35.39
722.73	34.91
722.914	34.76
723.097	35.07
723.28	35.41
723.464	34.98
723.647	35.57
723.83	35.32
724.013	35.91
724.197	36.73
724.38	36.93
724.563	37.12
724.746	37.2
724.929	37.16
725.112	37.11
725.296	37.3
725.479	37.27
725.662	36.77
725.845	36.81
726.028	35.82
726.211	35.83
726.394	35.71
726.577	35.91
726.76	36.13
726.943	36.39
727.126	36.32
727.309	36.5
727.492	36.7
727.675	36.67
727.858	37.13
728.041	37.6
728.224	37.66
728.407	37.49
728.589	37.24
728.772	37.24
728.955	36.93
729.138	37.03
729.321	36.62
729.503	36.72
729.686	36.77
729.869	36.47
730.052	36.44
730.234	36.61
730.417	36.49
730.6	36.31
730.782	36.32
730.965	36.1
731.148	35.79
731.33	35.77
731.513	35.61
731.695	35.88
731.878	35.66
732.061	35.81
732.243	36.01
732.426	36.18
732.608	36.71
732.791	36.9
732.973	37.52
733.156	37.66
733.338	37.5
733.52	37.69
733.703	37.2
733.885	37.72
734.068	37.31
734.25	36.89
734.432	36.93
734.615	36.61
734.797	36.73
734.979	36.3
735.162	36.19
735.344	36.37
735.526	36.29
735.708	37.02
735.891	36.82
736.073	36.92
736.255	36.86
736.437	37.24
736.619	37.28
736.802	37.54
736.984	38.07
737.166	38.45
737.348	38.65
737.53	38.68
737.712	38.28
737.894	38.44
738.076	38.52
738.258	38.61
738.44	38.49
738.622	38.38
738.804	38.14
738.986	37.99
739.168	38.15
739.35	38.15
739.532	38.21
739.714	38.47
739.896	38.38
740.078	38.5
740.259	38.67
740.441	38.54
740.623	38.61
740.805	38.52
740.987	38.03
741.168	37.61
741.35	37.8
741.532	37.63
741.714	38
741.895	38.25
742.077	38.78
742.259	38.49
742.44	38.63
742.622	38.37
742.804	38.2
742.985	38.52
743.167	38.46
743.348	38.43
743.53	38.4
743.711	38.32
743.893	38.38
744.075	37.51
744.256	37.88
744.438	37.7
744.619	38.36
744.8	39.05
744.982	38.99
745.163	39.7
745.345	40.28
745.526	40.51
745.707	40.08
745.889	40.08
746.07	40.33
746.252	40.11
746.433	40.86
746.614	40.87
746.795	40.67
746.977	41.08
747.158	40.7
747.339	40.35
747.52	40.59
747.702	41.22
747.883	41.75
748.064	41.6
748.245	41.61
748.426	40.92
748.607	41.39
748.788	41.29
748.97	41.21
749.151	41.45
749.332	41.55
749.513	41.5
749.694	40.97
749.875	39.99
750.056	39.88
750.237	40.29
750.418	40.9
750.599	40.01
750.78	39.62
750.96	40.11
751.141	40
751.322	39.45
751.503	38.95
751.684	38.84
751.865	39.53
752.046	39.32
752.226	38.72
752.407	37.87
752.588	38.13
752.769	38.2
752.949	37.4
753.13	37.79
753.311	38.18
753.492	38.55
753.672	38.99
753.853	39.02
754.034	39.84
754.214	41.54
754.395	41.91
754.575	42.11
754.756	42.19
754.937	41.72
755.117	41.97
755.298	42.24
755.478	42.6
755.659	42.22
755.839	41.88
756.02	42.25
756.2	41.35
756.381	41.09
756.561	41.09
756.741	41.31
756.922	41.91
757.102	40.83
757.283	40.79
757.463	39.89
757.643	40.16
757.823	39.84
758.004	39.26
758.184	38.92
758.364	39.19
758.545	39.24
758.725	39.25
758.905	38.93
759.085	38.68
759.265	38.01
759.446	38.47
759.626	38.19
759.806	38.52
759.986	38.83
760.166	38.88
760.346	38.51
760.526	38.48
760.706	38.26
760.886	38.35
761.066	39.21
761.246	39.41
761.426	39.28
761.606	39.16
761.786	38.39
761.966	38.2
762.146	38.1
762.326	38.41
762.506	38.23
762.686	38.28
762.866	38.38
763.046	37.9
763.225	38.41
763.405	38.42
763.585	38.87
763.765	39.28
763.945	39.13
764.124	39.26
764.304	39.16
764.484	39.48
764.664	39.46
764.843	39.77
765.023	40.07
765.203	39.84
765.382	40.06
765.562	40.08
765.741	40.23
765.921	40.24
766.101	40
766.28	39.89
766.46	39.59
766.639	39.78
766.819	39.36
766.998	38.63
767.178	38.9
767.357	38.74
767.537	38.82
767.716	39.13
767.896	39.7
768.075	40.1
768.254	40.29
768.434	40.82
768.613	40.41
768.792	40.62
768.972	42.1
769.151	42.25
769.33	42.64
769.51	42.72
769.689	42.31
769.868	42.76
770.047	41.86
770.226	42.37
770.406	41.8
770.585	42.07
770.764	42.13
770.943	41.58
771.122	40.58
771.301	40.53
771.48	40.33
771.66	40.63
771.839	39.73
772.018	41.34
772.197	41.76
772.376	42.05
772.555	42.27
772.734	42.8
772.913	42.93
773.092	43.92
773.271	43.77
773.449	44.27
773.628	45.29
773.807	45.88
773.986	44.82
774.165	44.5
774.344	44.92
774.523	45
774.701	44.46
774.88	43.75
775.059	43.67
775.238	44.58
775.417	44.21
775.595	42.9
775.774	42.71
775.953	43.32
776.131	42.2
776.31	42.13
776.489	42.41
776.667	42.84
776.846	43.98
777.025	43.85
777.203	43.19
777.382	42.72
777.56	43.4
777.739	43.43
777.917	42.97
778.096	44.02
778.274	43.93
778.453	43.61
778.631	43.49
778.81	42.86
778.988	42.45
779.166	42.12
779.345	42.09
779.523	41.44
779.702	41.32
779.88	42.04
780.058	41.38
780.237	41.1
780.415	40.88
780.593	40.46
780.771	40.42
780.95	41.11
781.128	41.17
781.306	41.36
781.484	41.77
781.662	41.45
781.841	40.6
782.019	40.35
782.197	41.19
782.375	41.42
782.553	41.74
782.731	42.53
782.909	41.57
783.087	41.86
783.265	42.23
783.443	41.8
783.621	42.26
783.799	42.89
783.977	43.22
784.155	42.38
784.333	43.33
784.511	43.14
784.689	42.24
784.867	42.53
785.045	42.35
785.223	41.41
785.4	41.01
785.578	42.63
785.756	42.98
785.934	43.75
786.112	43.16
786.289	43.14
786.467	43.81
786.645	44.16
786.823	44.09
787	44.95
787.178	45.39
787.356	46.15
787.533	44.54
787.711	43.76
787.889	43.4
788.066	43.41
788.244	42.49
788.421	41.93
788.599	42.07
788.776	42.55
788.954	43.11
789.131	43.31
789.309	43.2
789.486	42.72
789.664	42.74
789.841	42.7
790.019	42.69
790.196	43.06
790.373	43.39
790.551	44.44
790.728	44.27
790.906	43.1
791.083	42.75
791.26	43.03
791.437	42.8
791.615	43.41
791.792	43.5
791.969	44.24
792.146	44.46
792.324	44.81
792.501	42.85
792.678	43.53
792.855	44.14
793.032	44.46
793.209	43.68
793.387	45.78
793.564	44.86
793.741	45.59
793.918	45.06
794.095	44.45
794.272	44.32
794.449	44.36
794.626	43.43
794.803	43.02
794.98	42.99
795.157	43.88
795.334	43.89
795.511	44.26
795.688	44.13
795.864	45.18
796.041	45.74
796.218	45.04
796.395	45.65
796.572	46.3
796.749	45.79
796.925	45.21
797.102	44.91
797.279	43.48
797.456	44.7
797.632	44.05
797.809	42.82
797.986	42.38
798.162	42.45
798.339	42.89
798.516	42.44
798.692	42.38
798.869	43.05
799.046	42.33
799.222	42.25
799.399	41.4
799.575	41.89
799.752	42.19
799.928	42.67
800.105	43.09
800.281	42.36
800.458	42.36
800.634	42.3
800.811	42.13
800.987	42.86
801.163	42.95
801.34	43.05
801.516	42.7
801.692	42.43
801.869	42.25
802.045	40.6
802.221	41.19
802.398	41.3
802.574	41.51
802.75	40.9
802.926	41.05
803.103	42.16
803.279	42.97
803.455	42.28
803.631	43.18
803.807	43.58
803.983	45.29
804.16	45.36
804.336	45.43
804.512	46.1
804.688	48.14
804.864	46.72
805.04	46.12
805.216	44.99
805.392	47.47
805.568	47.76
805.744	47.42
805.92	47.28
806.096	46.51
806.272	46.94
806.448	46.03
806.623	45.62
806.799	46.51
806.975	47.38
807.151	47
807.327	45.27
807.503	44.37
807.678	44.85
807.854	45.08
808.03	45.6
808.206	46.05
808.381	46.77
808.557	45.06
808.733	44.85
808.908	44.45
809.084	45.2
809.26	45.4
809.435	45.97
809.611	45.82
809.787	46.68
809.962	45.75
810.138	45.06
810.313	44.71
810.489	45.98
810.664	45.85
810.84	44.41
811.015	44.37
811.191	45.66
811.366	44.99
811.542	44.44
811.717	44.33
811.892	45.39
812.068	45.35
812.243	45.32
812.419	45.8
812.594	45.84
812.769	46.97
812.944	46.17
813.12	45.21
813.295	46
813.47	45.29
813.645	43.75
813.821	44.18
813.996	43.92
814.171	44.06
814.346	43.06
814.521	43.04
814.697	42.76
814.872	44.48
815.047	43.32
815.222	43.21
815.397	43.85
815.572	45.09
815.747	44.34
815.922	43.75
816.097	43.34
816.272	44.2
816.447	44.91
816.622	45.39
816.797	44.23
816.972	43.99
817.147	44.23
817.322	44.2
817.496	43.22
817.671	42.36
817.846	42.93
818.021	42.45
818.196	41.53
818.371	41.16
818.545	40.42
818.72	41.42
818.895	42.32
819.069	41.66
819.244	41.31
819.419	41.52
819.594	41.91
819.768	41.28
819.943	42.18
820.117	42.8
820.292	42.62
820.467	42.31
820.641	41.45
820.816	40.79
820.99	41.24
821.165	40.81
821.339	40.77
821.514	40.42
821.688	40.19
821.863	39.96
822.037	39.86
822.212	39.74
822.386	39.94
822.56	39.87
822.735	39.72
822.909	39.26
823.084	39.27
823.258	39.02
823.432	39.06
823.606	39.22
823.781	39.16
823.955	38.74
824.129	38.83
824.303	38.64
824.478	38.7
824.652	39.15
824.826	39.29
825	39.26
825.174	39.47
825.348	40.25
825.523	40.26
825.697	39.86
825.871	40.63
826.045	40.69
826.219	40.68
826.393	40.56
826.567	39.78
826.741	39.98
826.915	40.44
827.089	40.36
827.263	39.55
827.437	39.09
827.611	39.72
827.784	39.31
827.958	38.97
828.132	38.89
828.306	38.49
828.48	38.93
828.654	38.72
828.827	38.14
829.001	38.65
829.175	38.89
829.349	39.48
829.522	39.04
829.696	39.31
829.87	39.61
830.044	40.51
830.217	41.11
830.391	40.95
830.565	42.07
830.738	43.27
830.912	42.16
831.085	41.53
831.259	42.93
831.432	41.93
831.606	42.69
831.779	41.98
831.953	40.91
832.126	41.45
832.3	42.23
832.473	41.52
832.647	40.98
832.82	40.74
832.994	41.42
833.167	41.03
833.34	41.91
833.514	41.11
833.687	40.79
833.86	40.48
834.034	39.98
834.207	40
834.38	40.03
834.553	39.64
834.727	39.96
834.9	39.46
835.073	38.72
835.246	38.35
835.419	38.57
835.593	38.85
835.766	39.66
835.939	39.84
836.112	40.15
836.285	40.34
836.458	41.2
836.631	40.63
836.804	41.09
836.977	42.24
837.15	42.77
837.323	42.71
837.496	44.3
837.669	44.2
837.842	44.78
838.015	42.97
838.188	42.63
838.361	42.3
838.533	44.74
838.706	45.37
838.879	44.7
839.052	44.52
839.225	46.67
839.398	45.32
839.57	44.63
839.743	45.99
839.916	48.27
840.088	47.97
840.261	47.49
840.434	46.55
840.607	45.79
840.779	46.15
840.952	45.7
841.124	43.19
841.297	45.54
841.47	43.75
841.642	42.13
841.815	40.59
841.987	42.47
842.16	42.45
842.332	42.26
842.505	43.3
842.677	43.82
842.85	44.91
843.022	45.8
843.194	44.4
843.367	46.37
843.539	47.04
843.712	50.25
843.884	50.45
844.056	51.92
844.229	54.55
844.401	57.44
844.573	56.76
844.745	57.35
844.918	58.79
845.09	57.34
845.262	59.02
845.434	58.04
845.606	54.25
845.779	53.16
845.951	53.81
846.123	52.52
846.295	50.84
846.467	50.92
846.639	49.67
846.811	49.29
846.983	49.91
847.155	48.12
847.327	48.42
847.499	46.3
847.671	44.58
847.843	45.47
848.015	46.36
848.187	45.25
848.359	42.56
848.531	43.5
848.703	42.84
848.875	44.07
849.047	45.32
849.218	48.32
849.39	49.77
849.562	52.29
849.734	50.73
849.905	52.51
850.077	53.67
850.249	55.21
850.421	55.32
850.592	56.1
850.764	55.12
850.936	56.1
851.107	54.15
851.279	54.31
851.451	54.37
851.622	51.66
851.794	45.86
851.965	41.21
852.137	35.58
852.308	35.96
852.48	39.58
852.651	42.35
852.823	38.45
852.994	39.72
853.166	44.72
853.337	42.87
853.509	50.36
853.68	51.34
853.851	58.48
854.023	63.82
854.194	61.54
854.365	58.49
854.537	55.75
854.708	60.12
854.879	59.77
855.05	56.1
855.222	56.84
855.393	52.53
855.564	60.37
855.735	55.14
855.906	60.75
856.078	64.67
856.249	69.61
856.42	65.21
856.591	62.23
856.762	63.46
856.933	60.17
857.104	56.32
857.275	56.47
857.446	53.27
857.617	55.01
857.788	50.8
857.959	52.56
858.13	51.91
858.301	56.55
858.472	54.07
858.643	51.27
858.814	52.61
858.985	54.71
859.155	51.37
859.326	51.94
859.497	50.24
859.668	52.21
859.839	50.57
860.009	46.37
860.18	45.38
860.351	48.96
860.522	46.73
860.692	48.13
860.863	47.06
861.034	47.54
861.204	45.48
861.375	49.81
861.546	49.2
861.716	47.62
861.887	47.81
862.057	49.22
862.228	49.31
862.398	53.79
862.569	56.39
862.739	60.28
862.91	59.11
863.08	60.43
863.251	58.21
863.421	57.12
863.592	56.19
863.762	55.91
863.932	52.43
864.103	50.32
864.273	46.97
864.443	41.22
864.614	41.42
864.784	41.1
864.954	38.96
865.125	39.42
865.295	40.88
865.465	38.23
865.635	39.78
865.805	43.15
865.976	43.26
866.146	47.39
866.316	50.72
866.486	50.85
866.656	53.91
866.826	53.44
866.996	47.99
867.166	46.95
867.336	51.32
867.506	46.92
867.676	40.34
867.846	40.01
868.016	39.37
868.186	37.96
868.356	37.08
868.526	34.79
868.696	33.68
868.866	32.96
869.036	34.61
869.206	34.36
869.376	40.2
869.545	42.06
869.715	47.02
869.885	46.36
870.055	47.33
870.224	45.21
870.394	46.01
870.564	51.3
870.734	54.62
870.903	54.69
871.073	53.12
871.243	50.11
871.412	55.36
871.582	49.48
871.751	48
871.921	47
872.091	52.48
872.26	50.93
872.43	51.09
872.599	48.74
872.769	44.97
872.938	45.11
873.108	44.53
873.277	43.45
873.446	46.26
873.616	43.29
873.785	43.21
873.955	39.07
874.124	38.46
874.293	35.5
874.463	35.22
874.632	40.1
874.801	38.61
874.971	37.57
875.14	34.29
875.309	32.78
875.478	38.26
875.647	43.14
875.817	43.88
875.986	47.16
876.155	45.83
876.324	48.01
876.493	44.48
876.662	42.53
876.831	43.65
877	46.51
877.17	49.82
877.339	49.56
877.508	50.53
877.677	52.44
877.846	49.55
878.015	49.67
878.184	54.58
878.352	54.77
878.521	59.51
878.69	62.78
878.859	61.39
879.028	58.61
879.197	56.39
879.366	53.02
879.534	48.66
879.703	48.57
879.872	46.63
880.041	44.04
880.21	43.35
880.378	42.55
880.547	39.41
880.716	38.6
880.884	37.89
881.053	36.89
881.222	36.03
881.39	37.13
881.559	37.3
881.727	36.99
881.896	36.11
882.065	35.82
882.233	35.87
882.402	36.28
882.57	35.9
882.739	35.37
882.907	35.52
883.076	35.28
883.244	34.72
883.412	34.57
883.581	34.8
883.749	35.37
883.918	35.61
884.086	34.73
884.254	34.78
884.423	35.05
884.591	34.89
884.759	34.79
884.927	36.23
885.096	36.63
885.264	37.05
885.432	36.95
885.6	35.54
885.769	35.09
885.937	35.14
886.105	35.35
886.273	35.37
886.441	37.47
886.609	41.65
886.777	40.45
886.945	41.46
887.113	41.95
887.281	44.26
887.449	47.3
887.617	47.89
887.785	47.95
887.953	48.97
888.121	49.66
888.289	49.61
888.457	47.84
888.625	46.91
888.793	45.1
888.961	40.11
889.129	40.73
889.296	39.33
889.464	39.06
889.632	42.2
889.8	39.57
889.967	37.8
890.135	36.75
