Data from 2938835__Reflection_02.txt Node
Date: Thu Mar 12 11:29:17 EDT 2015
User: robert
Spectrometer: USB4E03002
Autoset integration time: false
Trigger mode: 4
Integration Time (sec): 1.000000E-1
Scans to average: 10
Electric dark correction enabled: false
Nonlinearity correction enabled: false
Boxcar width: 5
Stray light correction enabled: false
XAxis mode: Wavelengths
Stop averaging: false
Number of Pixels in Spectrum: 3648
>>>>>Begin Spectral Data<<<<<
177.575	799.7
177.794	1282.19
178.014	1213.83
178.233	1330.12
178.452	1231.98
178.672	1320.15
178.891	1587.25
179.11	1503.08
179.33	1368.64
179.549	1138.03
179.768	1127
179.987	2348.5
180.207	2206.44
180.426	2492.22
180.645	1749.21
180.864	1217.98
181.084	1484.28
181.303	1284.92
181.522	1365.01
181.741	1954.66
181.96	4036.71
182.179	4271.52
182.398	2402.55
182.618	1649.75
182.837	1535.61
183.056	1909.42
183.275	7900
183.494	3979.62
183.713	5831.48
183.932	-23125.93
184.151	19932.26
184.37	2378.21
184.589	4564.18
184.808	4352.11
185.027	4551.49
185.246	13110.87
185.465	-5441.96
185.684	6416.16
185.903	644100
186.122	2068.44
186.341	1285.02
186.56	959.94
186.779	994.78
186.998	1044.56
187.216	995.01
187.435	931.74
187.654	836.47
187.873	662.57
188.092	839.3
188.311	745.68
188.53	822.25
188.748	833.88
188.967	1063.86
189.186	1407.89
189.405	1128.32
189.623	989.95
189.842	1004.73
190.061	930.7
190.28	924.6
190.498	1010
190.717	853.19
190.936	918.84
191.154	1139.68
191.373	1015.18
191.592	952.59
191.81	965.92
192.029	1389.8
192.248	1283.6
192.466	1420.92
192.685	1546.95
192.904	993.21
193.122	1024.65
193.341	1261.81
193.559	980.27
193.778	955.24
193.996	898.05
194.215	1020.5
194.433	862.84
194.652	964.62
194.87	1449.12
195.089	1771.12
195.307	2482.56
195.526	5229.41
195.744	8065
195.963	-106616.67
196.181	-5884.68
196.399	-3622.4
196.618	-2985.02
196.836	-1703.49
197.055	-2011.5
197.273	-10134.33
197.491	35405.26
197.71	167775
197.928	7023.96
198.146	5800.85
198.365	9817.65
198.583	5897.27
198.801	2808.94
199.019	1803.04
199.238	1135.14
199.456	1270.4
199.674	1284.97
199.892	1167.63
200.111	1051.15
200.329	1034.08
200.547	894.13
200.765	828.09
200.983	808.06
201.202	969.01
201.42	928.93
201.638	865.89
201.856	993.2
202.074	1143.24
202.292	1704.86
202.51	2571.08
202.728	2082.37
202.946	2483.59
203.165	1512.18
203.383	1490.83
203.601	1079.38
203.819	1335.79
204.037	1500.24
204.255	1106.7
204.473	887.27
204.691	781.02
204.909	757.23
205.127	787.52
205.345	694.97
205.562	736
205.78	758.16
205.998	934.6
206.216	758.47
206.434	703.42
206.652	837.02
206.87	957.73
207.088	961.11
207.306	811.48
207.523	735.32
207.741	790.08
207.959	756.79
208.177	657.66
208.395	576.27
208.612	612.27
208.83	607.66
209.048	526.89
209.266	540.77
209.483	470.18
209.701	534.11
209.919	556.1
210.136	601.69
210.354	741.99
210.572	924.08
210.79	1023.46
211.007	1484.86
211.225	2041.8
211.442	2310.04
211.66	1830.06
211.878	3723.67
212.095	2171.91
212.313	1831.14
212.53	1752.79
212.748	1389.64
212.966	1112.9
213.183	895.62
213.401	693.43
213.618	670.63
213.836	672.86
214.053	705.98
214.271	593.73
214.488	619.14
214.705	738.12
214.923	612.35
215.14	565.37
215.358	573.83
215.575	638.68
215.793	591.55
216.01	650.97
216.227	652.14
216.445	593.89
216.662	709.79
216.879	650.97
217.097	630.68
217.314	596.49
217.531	700.21
217.749	693.87
217.966	631.52
218.183	621.08
218.4	509.94
218.618	511.1
218.835	516.29
219.052	462.97
219.269	476.37
219.487	428.21
219.704	450.77
219.921	374.65
220.138	346.76
220.355	381.88
220.572	387.73
220.79	390.53
221.007	389.3
221.224	386.47
221.441	384.7
221.658	327.72
221.875	317.54
222.092	308.82
222.309	326.46
222.526	358.85
222.743	324.74
222.96	294.36
223.177	288.16
223.394	271.68
223.611	252.53
223.828	245.08
224.045	256.63
224.262	252.31
224.479	239.83
224.696	228.15
224.913	209.15
225.13	191.4
225.347	185.83
225.564	180.64
225.781	171.06
225.997	160.81
226.214	152.97
226.431	136.1
226.648	120.77
226.865	104.81
227.082	95.47
227.298	83.33
227.515	73.64
227.732	65.61
227.949	59.36
228.165	53.41
228.382	48.31
228.599	43.51
228.816	39.87
229.032	37.89
229.249	37.1
229.466	35.83
229.682	35.94
229.899	36.07
230.116	36.64
230.332	37.65
230.549	39.5
230.765	42.49
230.982	45.65
231.199	49.26
231.415	53.37
231.632	57.22
231.848	60.33
232.065	63.16
232.281	67.25
232.498	68.09
232.714	70.23
232.931	71.38
233.147	71.03
233.364	71.55
233.58	69.7
233.797	68.61
234.013	68.23
234.23	66.91
234.446	66.01
234.662	64.29
234.879	67.85
235.095	66.67
235.312	64.23
235.528	65.21
235.744	64.18
235.961	64.3
236.177	63.71
236.393	64.87
236.61	65.52
236.826	65.6
237.042	66.7
237.258	64.96
237.475	64.56
237.691	67.33
237.907	66.73
238.123	67.4
238.339	67.43
238.556	67.56
238.772	65.42
238.988	64.3
239.204	61.74
239.42	59.5
239.636	56.31
239.853	54.65
240.069	51.73
240.285	48.61
240.501	44.55
240.717	40.84
240.933	37.87
241.149	35.57
241.365	33.17
241.581	31.36
241.797	29.32
242.013	27.79
242.229	26.4
242.445	25.77
242.661	25.43
242.877	25.95
243.093	26.66
243.309	27.07
243.525	26.97
243.741	28.02
243.957	29.31
244.173	30.59
244.388	32.1
244.604	33.36
244.82	33.69
245.036	33.13
245.252	32.03
245.468	29.08
245.683	27.02
245.899	25.46
246.115	23.39
246.331	21.14
246.547	19.72
246.762	18.51
246.978	17.26
247.194	16.53
247.409	16.29
247.625	15.9
247.841	16.33
248.057	17.03
248.272	17.12
248.488	17.98
248.703	18.97
248.919	20.22
249.135	21.8
249.35	23.52
249.566	25.63
249.782	27.07
249.997	29.01
250.213	30.11
250.428	30.47
250.644	31.98
250.859	32.5
251.075	32.68
251.29	31.89
251.506	31.35
251.721	30.83
251.937	29.52
252.152	29.14
252.368	28.6
252.583	28.85
252.798	29.08
253.014	28.9
253.229	29.3
253.445	30.95
253.66	32.86
253.875	33.37
254.091	35.66
254.306	37.87
254.521	40.38
254.737	42.81
254.952	42.93
255.167	44.4
255.383	45.21
255.598	45.33
255.813	43.4
256.028	42.54
256.244	41.96
256.459	40.19
256.674	38.93
256.889	37.03
257.104	34.74
257.32	33.57
257.535	31.29
257.75	28.86
257.965	26.33
258.18	24.55
258.395	22.26
258.61	20.51
258.826	19.06
259.041	17.82
259.256	16.55
259.471	15.46
259.686	15
259.901	14.45
260.116	14.31
260.331	14.32
260.546	14.53
260.761	14.77
260.976	15.03
261.191	15.55
261.406	15.94
261.621	16.94
261.836	18.21
262.05	19.23
262.265	20.28
262.48	21.29
262.695	22.01
262.91	22.96
263.125	24.19
263.34	25.67
263.555	26.42
263.769	27.04
263.984	27.62
264.199	28.3
264.414	28.95
264.629	29.58
264.843	29.9
265.058	29.66
265.273	28.79
265.488	27.96
265.702	26.79
265.917	25.77
266.132	25.06
266.346	24.5
266.561	23.77
266.776	22.85
266.99	22.2
267.205	21.42
267.42	21.09
267.634	21.18
267.849	21.14
268.063	21.44
268.278	21.23
268.492	21.85
268.707	21.68
268.922	21.48
269.136	21.36
269.351	21.09
269.565	21.72
269.78	21.41
269.994	21.05
270.209	20.96
270.423	20.47
270.637	20.31
270.852	19.26
271.066	19.11
271.281	18.82
271.495	18.62
271.709	18.23
271.924	17.59
272.138	17.74
272.353	17.94
272.567	17.41
272.781	17.28
272.996	17.45
273.21	17.9
273.424	17.63
273.638	17.96
273.853	18.21
274.067	18.89
274.281	19.22
274.495	19.27
274.71	19.42
274.924	19.8
275.138	20.06
275.352	20.28
275.566	20.55
275.781	21.02
275.995	21.26
276.209	21.63
276.423	21.63
276.637	21.99
276.851	22.1
277.065	21.89
277.279	22.17
277.493	22.31
277.707	22.71
277.921	22.63
278.135	22.69
278.349	22.18
278.563	21.46
278.777	21.12
278.991	21.1
279.205	21.07
279.419	20.92
279.633	20.8
279.847	20.76
280.061	19.93
280.275	19.44
280.489	19.29
280.703	19.36
280.917	19.18
281.131	18.97
281.344	18.26
281.558	18.15
281.772	18.03
281.986	17.77
282.2	17.36
282.414	17.51
282.627	17.42
282.841	17.24
283.055	17.05
283.269	17.18
283.482	17.39
283.696	17.13
283.91	16.68
284.123	16.03
284.337	15.76
284.551	15.77
284.764	15.43
284.978	15.34
285.192	14.84
285.405	14.59
285.619	14.28
285.833	13.86
286.046	13.94
286.26	14.26
286.473	14.38
286.687	14.77
286.9	14.69
287.114	14.96
287.327	15.13
287.541	15.63
287.754	15.95
287.968	16.29
288.181	16.69
288.395	16.86
288.608	16.53
288.822	16.95
289.035	16.94
289.248	16.78
289.462	16.62
289.675	16.31
289.889	16.23
290.102	15.88
290.315	15.84
290.529	16.05
290.742	16
290.955	16.36
291.169	15.93
291.382	15.76
291.595	16.4
291.808	16.85
292.022	17.4
292.235	17.16
292.448	17.56
292.661	17.67
292.875	17.26
293.088	17.48
293.301	17.27
293.514	17.38
293.727	17.28
293.94	17.18
294.153	16.79
294.367	16.74
294.58	16.78
294.793	16.92
295.006	16.95
295.219	16.91
295.432	16.55
295.645	16.11
295.858	15.84
296.071	15.57
296.284	14.92
296.497	14.55
296.71	14.23
296.923	14.14
297.136	13.84
297.349	13.75
297.562	13.62
297.775	13.66
297.988	14.07
298.201	14.56
298.414	14.8
298.626	15.55
298.839	16.07
299.052	16.63
299.265	17.37
299.478	17.53
299.691	17.93
299.903	18.33
300.116	18.48
300.329	18.8
300.542	18.77
300.755	19.29
300.967	18.92
301.18	19.17
301.393	18.97
301.605	18.64
301.818	19.22
302.031	19.41
302.243	19.65
302.456	20.14
302.669	20.05
302.881	20.34
303.094	20.03
303.307	20.19
303.519	20.13
303.732	20.04
303.944	20.21
304.157	20.08
304.37	19.97
304.582	20.23
304.795	20.28
305.007	20.72
305.22	20.81
305.432	20.66
305.645	20.77
305.857	21.02
306.069	21.25
306.282	21.49
306.494	21.61
306.707	21.72
306.919	21.5
307.132	21.53
307.344	21.52
307.556	21.51
307.769	21.97
307.981	21.89
308.193	21.38
308.406	21.4
308.618	21.02
308.83	20.55
309.043	20.31
309.255	19.95
309.467	19.84
309.679	19.6
309.892	19.51
310.104	18.99
310.316	18.81
310.528	18.9
310.74	18.49
310.953	18.72
311.165	18.7
311.377	18.42
311.589	18.63
311.801	18.62
312.013	18.7
312.225	18.75
312.437	19.27
312.649	19.7
312.862	19.94
313.074	20.44
313.286	20.24
313.498	20.83
313.71	21.1
313.922	21.76
314.134	21.94
314.346	22.33
314.558	22.79
314.77	23.07
314.982	23.24
315.193	23.24
315.405	23.37
315.617	23.8
315.829	23.91
316.041	24.67
316.253	24.68
316.465	25
316.677	24.68
316.888	24.7
317.1	24.66
317.312	24.36
317.524	24.62
317.736	25.04
317.947	25.24
318.159	25.76
318.371	25.33
318.583	24.95
318.794	24.59
319.006	24.95
319.218	24.67
319.43	24.83
319.641	25.1
319.853	24.88
320.064	25.16
320.276	25.21
320.488	25.22
320.699	25.71
320.911	26.66
321.123	27.39
321.334	27.98
321.546	28.57
321.757	28.61
321.969	28.69
322.18	28.7
322.392	28.48
322.603	28.04
322.815	27.85
323.026	27.49
323.238	26.69
323.449	26.12
323.661	25.34
323.872	24.94
324.083	24.57
324.295	24.55
324.506	24.46
324.718	24.2
324.929	24.34
325.14	23.9
325.352	23.87
325.563	23.79
325.774	23.98
325.986	24.24
326.197	23.97
326.408	24.21
326.62	24.16
326.831	24.47
327.042	24.61
327.253	24.67
327.464	25.1
327.676	25.56
327.887	25.78
328.098	25.69
328.309	25.85
328.52	26.63
328.732	26.64
328.943	27.22
329.154	27.26
329.365	27.55
329.576	27.9
329.787	27.96
329.998	28.13
330.209	28.55
330.42	29.06
330.631	29.1
330.842	29.01
331.053	29.51
331.264	28.86
331.475	29.45
331.686	29.77
331.897	29.91
332.108	29.67
332.319	29.13
332.53	29.03
332.741	28.89
332.952	29
333.163	29.3
333.374	29.11
333.585	29.25
333.795	29.09
334.006	28.66
334.217	28.04
334.428	28.6
334.639	28.86
334.849	28.54
335.06	28.27
335.271	27.77
335.482	27.1
335.692	26.95
335.903	26.93
336.114	26.89
336.325	26.82
336.535	27.56
336.746	27.14
336.957	27.29
337.167	27.61
337.378	28.42
337.589	28.82
337.799	29.21
338.01	29.49
338.22	29.56
338.431	29.11
338.642	29.33
338.852	29.03
339.063	29.24
339.273	29.11
339.484	29.03
339.694	28.35
339.905	28.16
340.115	27.88
340.326	27.73
340.536	27.79
340.746	27.83
340.957	27.66
341.167	27.53
341.378	27.19
341.588	26.95
341.799	26.86
342.009	26.48
342.219	26.2
342.43	26.08
342.64	26
342.85	25.61
343.061	25.61
343.271	25.58
343.481	25.46
343.691	25.28
343.902	24.95
344.112	24.63
344.322	24.78
344.532	24.77
344.743	24.88
344.953	24.65
345.163	24.8
345.373	24.78
345.583	24.75
345.793	24.76
346.004	24.83
346.214	24.97
346.424	25.4
346.634	25.56
346.844	25.68
347.054	25.8
347.264	26.07
347.474	26.07
347.684	25.86
347.894	26.01
348.104	26.28
348.314	26.21
348.524	26.26
348.734	25.93
348.944	25.78
349.154	26
349.364	25.8
349.574	25.7
349.784	25.55
349.994	25.72
350.204	25.23
350.413	24.95
350.623	25.31
350.833	25.2
351.043	25.17
351.253	25.6
351.463	25.42
351.672	25.17
351.882	25.03
352.092	25.14
352.302	25.09
352.511	25.33
352.721	25.02
352.931	24.55
353.141	24.68
353.35	24.97
353.56	24.32
353.77	23.94
353.979	23.98
354.189	23.96
354.399	23.63
354.608	23.77
354.818	23.85
355.027	24.19
355.237	24.11
355.447	23.73
355.656	23.11
355.866	22.88
356.075	23.15
356.285	23.08
356.494	22.79
356.704	22.65
356.913	22.3
357.123	22.05
357.332	21.64
357.542	21.59
357.751	21.55
357.96	21.88
358.17	21.91
358.379	21.82
358.589	21.71
358.798	21.87
359.007	22.01
359.217	21.79
359.426	21.43
359.635	21.38
359.845	21.28
360.054	20.97
360.263	20.6
360.472	20.36
360.682	20
360.891	19.9
361.1	19.58
361.309	19.32
361.519	19.38
361.728	19.35
361.937	19.19
362.146	19.21
362.355	19.52
362.564	19.6
362.774	19.61
362.983	19.72
363.192	19.74
363.401	20.07
363.61	20.13
363.819	20.26
364.028	20.43
364.237	20.6
364.446	20.4
364.655	20.23
364.864	20.17
365.073	20.35
365.282	20.35
365.491	20.47
365.7	20.27
365.909	20.5
366.118	20.38
366.327	20.37
366.536	20.68
366.745	21.25
366.954	21.51
367.162	21.65
367.371	21.81
367.58	21.89
367.789	21.82
367.998	21.67
368.207	21.71
368.415	21.72
368.624	21.91
368.833	21.7
369.042	21.54
369.25	21.57
369.459	21.54
369.668	21.41
369.877	21.4
370.085	21.2
370.294	21.23
370.503	20.93
370.711	20.93
370.92	20.64
371.129	20.62
371.337	20.2
371.546	19.78
371.754	19.72
371.963	19.57
372.171	19.62
372.38	19.76
372.589	19.97
372.797	20.29
373.006	20.16
373.214	20.43
373.423	20.32
373.631	20.49
373.84	20.57
374.048	20.55
374.256	20.63
374.465	20.57
374.673	20.62
374.882	20.38
375.09	20.15
375.298	20.07
375.507	19.81
375.715	19.7
375.923	19.74
376.132	19.66
376.34	19.4
376.548	19.27
376.757	19.03
376.965	18.88
377.173	18.79
377.381	18.66
377.59	18.94
377.798	18.86
378.006	18.51
378.214	18.44
378.423	18.4
378.631	18.58
378.839	18.84
379.047	18.88
379.255	18.76
379.463	18.96
379.671	19.09
379.879	19.07
380.088	19.14
380.296	19.57
380.504	19.69
380.712	19.96
380.92	19.99
381.128	19.96
381.336	19.95
381.544	20.11
381.752	19.88
381.96	19.8
382.168	19.51
382.376	19.37
382.584	19.5
382.791	19.35
382.999	19.24
383.207	18.91
383.415	18.66
383.623	18.67
383.831	18.52
384.039	18.56
384.247	18.6
384.454	19.04
384.662	18.97
384.87	18.61
385.078	18.54
385.285	18.38
385.493	18.63
385.701	18.58
385.909	18.54
386.116	18.41
386.324	18.48
386.532	18.25
386.739	17.77
386.947	17.83
387.155	18.09
387.362	17.85
387.57	17.92
387.778	17.9
387.985	17.88
388.193	17.89
388.4	17.81
388.608	17.92
388.816	17.95
389.023	17.98
389.231	17.78
389.438	17.48
389.646	17.54
389.853	17.47
390.061	17.11
390.268	17.14
390.475	17.04
390.683	17.19
390.89	16.78
391.098	16.7
391.305	16.57
391.512	16.57
391.72	16.41
391.927	16.34
392.135	16.13
392.342	16.28
392.549	16.19
392.756	15.99
392.964	15.71
393.171	15.83
393.378	15.93
393.586	15.82
393.793	15.83
394	15.88
394.207	15.93
394.414	16.03
394.622	16.06
394.829	16.01
395.036	16.24
395.243	16.51
395.45	16.39
395.657	16.32
395.864	16.57
396.072	16.62
396.279	16.63
396.486	16.67
396.693	16.7
396.9	16.64
397.107	16.65
397.314	16.68
397.521	16.66
397.728	16.9
397.935	16.92
398.142	16.8
398.349	16.84
398.556	16.9
398.763	16.83
398.97	16.69
399.177	16.53
399.383	16.43
399.59	16.07
399.797	15.98
400.004	15.77
400.211	15.72
400.418	15.7
400.625	15.78
400.831	15.84
401.038	15.89
401.245	15.99
401.452	16.15
401.658	16.09
401.865	16.34
402.072	16.54
402.279	16.7
402.485	16.57
402.692	16.6
402.899	16.31
403.105	16.18
403.312	16.13
403.519	16.17
403.725	15.98
403.932	16.03
404.138	15.9
404.345	15.67
404.552	15.5
404.758	15.59
404.965	15.58
405.171	15.6
405.378	15.66
405.584	15.48
405.791	15.35
405.997	15.39
406.204	15.42
406.41	15.44
406.617	15.37
406.823	15.37
407.029	15.42
407.236	15.35
407.442	15.52
407.649	15.61
407.855	15.52
408.061	15.46
408.268	15.61
408.474	15.67
408.68	15.61
408.887	15.63
409.093	15.65
409.299	15.74
409.505	15.51
409.712	15.25
409.918	15.16
410.124	15.31
410.33	15.42
410.537	15.39
410.743	15.25
410.949	15.25
411.155	15.31
411.361	15.21
411.567	15.15
411.773	15.37
411.98	15.52
412.186	15.46
412.392	15.56
412.598	15.42
412.804	15.36
413.01	15.51
413.216	15.52
413.422	15.6
413.628	15.58
413.834	15.44
414.04	15.46
414.246	15.29
414.452	15.15
414.658	15.18
414.864	15.19
415.07	15.17
415.275	15.18
415.481	15.1
415.687	14.74
415.893	14.66
416.099	14.43
416.305	14.18
416.511	14.08
416.716	13.91
416.922	13.66
417.128	13.53
417.334	13.45
417.539	13.26
417.745	13.18
417.951	13.11
418.157	13.05
418.362	13
418.568	13.05
418.774	12.97
418.979	13.03
419.185	12.95
419.391	12.86
419.596	12.65
419.802	12.51
420.008	12.44
420.213	12.46
420.419	12.43
420.624	12.36
420.83	12.21
421.035	12.19
421.241	12.15
421.446	12.02
421.652	11.92
421.857	11.97
422.063	11.96
422.268	11.94
422.474	11.86
422.679	11.85
422.885	11.91
423.09	11.92
423.295	11.88
423.501	11.81
423.706	11.81
423.911	11.87
424.117	11.89
424.322	11.89
424.527	11.87
424.733	11.98
424.938	11.97
425.143	11.95
425.349	11.99
425.554	12.01
425.759	12.1
425.964	12.22
426.169	12.29
426.375	12.34
426.58	12.39
426.785	12.52
426.99	12.59
427.195	12.59
427.4	12.55
427.605	12.69
427.811	12.79
428.016	12.74
428.221	12.79
428.426	12.82
428.631	12.88
428.836	12.92
429.041	12.94
429.246	12.89
429.451	12.83
429.656	13.08
429.861	13.08
430.066	13.24
430.271	13.23
430.476	13.23
430.681	13.45
430.886	13.37
431.09	13.43
431.295	13.34
431.5	13.32
431.705	13.4
431.91	13.25
432.115	13.13
432.32	12.98
432.524	12.94
432.729	12.99
432.934	12.72
433.139	12.82
433.343	12.78
433.548	12.86
433.753	12.91
433.958	13.08
434.162	13.18
434.367	13.25
434.572	13.33
434.776	13.4
434.981	13.56
435.186	13.67
435.39	13.67
435.595	13.8
435.799	13.77
436.004	13.79
436.209	13.6
436.413	13.53
436.618	13.47
436.822	13.54
437.027	13.55
437.231	13.42
437.436	13.38
437.64	13.25
437.845	13.11
438.049	13.12
438.253	13.03
438.458	12.99
438.662	12.9
438.867	12.87
439.071	12.72
439.275	12.66
439.48	12.44
439.684	12.31
439.888	12.29
440.093	12.21
440.297	12.12
440.501	12.11
440.706	12.07
440.91	12.12
441.114	12.01
441.318	12.02
441.523	12.02
441.727	12.15
441.931	12.16
442.135	12.18
442.339	12.22
442.543	12.34
442.748	12.32
442.952	12.43
443.156	12.36
443.36	12.5
443.564	12.53
443.768	12.6
443.972	12.6
444.176	12.65
444.38	12.55
444.584	12.53
444.788	12.39
444.992	12.34
445.196	12.17
445.4	12.1
445.604	11.97
445.808	11.89
446.012	11.76
446.216	11.66
446.42	11.58
446.624	11.57
446.828	11.47
447.032	11.46
447.235	11.46
447.439	11.5
447.643	11.52
447.847	11.66
448.051	11.66
448.254	11.77
448.458	11.85
448.662	11.93
448.866	11.97
449.069	12.01
449.273	12.07
449.477	12.1
449.681	12.21
449.884	12.33
450.088	12.37
450.292	12.54
450.495	12.52
450.699	12.68
450.902	12.7
451.106	12.82
451.31	13.02
451.513	13.12
451.717	13.08
451.92	13.03
452.124	12.92
452.327	12.99
452.531	12.83
452.734	12.8
452.938	12.64
453.141	12.77
453.345	12.77
453.548	12.68
453.752	12.58
453.955	12.71
454.158	12.69
454.362	12.83
454.565	12.81
454.769	12.97
454.972	13.1
455.175	13.12
455.379	13.13
455.582	13.22
455.785	13.2
455.988	13.35
456.192	13.26
456.395	13.32
456.598	13.19
456.801	13.09
457.005	12.96
457.208	12.92
457.411	12.87
457.614	12.67
457.817	12.4
458.021	12.26
458.224	12.13
458.427	12.04
458.63	11.98
458.833	11.86
459.036	11.73
459.239	11.67
459.442	11.47
459.645	11.36
459.848	11.39
460.051	11.33
460.254	11.42
460.457	11.37
460.66	11.38
460.863	11.39
461.066	11.46
461.269	11.53
461.472	11.6
461.675	11.86
461.878	12.09
462.081	12.16
462.284	12.37
462.486	12.42
462.689	12.43
462.892	12.66
463.095	12.76
463.298	12.91
463.5	12.96
463.703	12.98
463.906	13
464.109	12.82
464.311	12.8
464.514	12.88
464.717	12.91
464.92	13.01
465.122	12.88
465.325	12.91
465.528	12.93
465.73	13
465.933	12.92
466.135	12.91
466.338	13.03
466.541	12.94
466.743	12.9
466.946	12.82
467.148	12.82
467.351	12.81
467.553	12.8
467.756	12.75
467.958	12.65
468.161	12.71
468.363	12.62
468.566	12.59
468.768	12.71
468.971	12.7
469.173	12.76
469.375	12.69
469.578	12.77
469.78	12.72
469.983	12.75
470.185	12.81
470.387	12.83
470.59	12.85
470.792	12.98
470.994	13.04
471.196	13.06
471.399	13.05
471.601	13.06
471.803	13.05
472.005	13
472.208	12.88
472.41	12.99
472.612	12.93
472.814	12.97
473.016	13
473.218	13.02
473.421	12.96
473.623	12.95
473.825	13.04
474.027	12.91
474.229	13.08
474.431	13.22
474.633	13.11
474.835	13.09
475.037	12.96
475.239	12.84
475.441	12.79
475.643	12.75
475.845	12.67
476.047	12.49
476.249	12.62
476.451	12.44
476.653	12.3
476.855	12.22
477.057	12.24
477.258	12.24
477.46	12.15
477.662	12.06
477.864	12.14
478.066	12.15
478.268	12.19
478.469	12.09
478.671	12.05
478.873	12.06
479.075	12.02
479.276	11.97
479.478	11.95
479.68	11.9
479.882	11.84
480.083	11.72
480.285	11.64
480.487	11.61
480.688	11.49
480.89	11.43
481.091	11.24
481.293	11.21
481.495	11.05
481.696	10.94
481.898	10.89
482.099	10.76
482.301	10.68
482.502	10.53
482.704	10.36
482.905	10.27
483.107	10.14
483.308	10.1
483.51	10
483.711	9.96
483.913	9.9
484.114	9.81
484.315	9.77
484.517	9.7
484.718	9.7
484.92	9.74
485.121	9.78
485.322	9.82
485.524	9.86
485.725	9.93
485.926	9.95
486.127	9.98
486.329	10.03
486.53	10.06
486.731	10.05
486.932	10.06
487.134	10.06
487.335	10.04
487.536	10.02
487.737	10.03
487.938	10
488.139	10.03
488.341	10.04
488.542	10.03
488.743	10.06
488.944	10.14
489.145	10.2
489.346	10.24
489.547	10.27
489.748	10.31
489.949	10.31
490.15	10.32
490.351	10.33
490.552	10.35
490.753	10.34
490.954	10.33
491.155	10.27
491.356	10.23
491.557	10.21
491.758	10.22
491.959	10.19
492.159	10.24
492.36	10.27
492.561	10.26
492.762	10.32
492.963	10.4
493.164	10.48
493.364	10.62
493.565	10.77
493.766	10.9
493.967	11.02
494.167	11.18
494.368	11.3
494.569	11.39
494.769	11.6
494.97	11.67
495.171	11.69
495.371	11.74
495.572	11.85
495.773	11.82
495.973	11.78
496.174	11.76
496.375	11.82
496.575	11.76
496.776	11.78
496.976	11.71
497.177	11.66
497.377	11.68
497.578	11.66
497.778	11.57
497.979	11.59
498.179	11.69
498.38	11.7
498.58	11.67
498.78	11.71
498.981	11.74
499.181	11.78
499.382	11.91
499.582	11.97
499.782	11.97
499.983	12.07
500.183	12.06
500.383	12.08
500.584	12.1
500.784	12.24
500.984	12.32
501.184	12.31
501.385	12.31
501.585	12.36
501.785	12.45
501.985	12.62
502.185	12.6
502.386	12.67
502.586	12.66
502.786	12.73
502.986	12.62
503.186	12.58
503.386	12.59
503.586	12.65
503.786	12.6
503.987	12.54
504.187	12.51
504.387	12.57
504.587	12.65
504.787	12.69
504.987	12.76
505.187	12.78
505.387	12.92
505.587	12.97
505.786	12.99
505.986	13.07
506.186	13.06
506.386	13.05
506.586	13.07
506.786	12.95
506.986	12.86
507.186	12.82
507.386	12.88
507.585	12.82
507.785	12.86
507.985	12.84
508.185	12.81
508.384	12.85
508.584	12.85
508.784	12.77
508.984	12.9
509.183	13.09
509.383	13.09
509.583	13.11
509.782	13.12
509.982	13.14
510.182	13.1
510.381	13.09
510.581	13.13
510.781	13.18
510.98	13.24
511.18	13.29
511.379	13.14
511.579	13.21
511.778	13.24
511.978	13.28
512.177	13.25
512.377	13.34
512.576	13.33
512.776	13.4
512.975	13.4
513.175	13.47
513.374	13.48
513.573	13.67
513.773	13.74
513.972	13.73
514.172	13.82
514.371	13.96
514.57	14.07
514.77	14.16
514.969	14.21
515.168	14.27
515.367	14.29
515.567	14.3
515.766	14.21
515.965	14.09
516.164	14.13
516.364	14.02
516.563	13.9
516.762	13.84
516.961	13.82
517.16	13.83
517.359	13.77
517.559	13.78
517.758	13.74
517.957	13.7
518.156	13.76
518.355	13.76
518.554	13.86
518.753	13.91
518.952	13.9
519.151	13.95
519.35	13.99
519.549	14.1
519.748	14.14
519.947	14.27
520.146	14.37
520.345	14.44
520.544	14.58
520.743	14.59
520.942	14.65
521.141	14.75
521.339	14.85
521.538	14.91
521.737	14.96
521.936	15
522.135	14.96
522.333	15.06
522.532	15.06
522.731	15.04
522.93	15.11
523.129	15.27
523.327	15.27
523.526	15.21
523.725	15.32
523.923	15.3
524.122	15.3
524.321	15.29
524.519	15.23
524.718	15.22
524.917	15.23
525.115	15.18
525.314	15.09
525.512	15.14
525.711	15.17
525.909	15.04
526.108	15.05
526.306	15.02
526.505	15.02
526.703	15.01
526.902	14.95
527.1	14.96
527.299	14.96
527.497	14.93
527.696	14.88
527.894	14.84
528.092	14.83
528.291	14.81
528.489	14.85
528.688	14.82
528.886	14.82
529.084	14.86
529.283	14.84
529.481	14.87
529.679	14.91
529.877	15.02
530.076	15.12
530.274	15.26
530.472	15.35
530.67	15.46
530.869	15.59
531.067	15.71
531.265	15.82
531.463	15.94
531.661	16.01
531.859	16.1
532.057	16.14
532.255	16.13
532.454	16.1
532.652	16.12
532.85	16.14
533.048	16.1
533.246	16.11
533.444	16.11
533.642	16.14
533.84	16.19
534.038	16.29
534.236	16.31
534.434	16.42
534.632	16.45
534.83	16.53
535.027	16.57
535.225	16.71
535.423	16.8
535.621	16.92
535.819	17.03
536.017	17.09
536.215	17.12
536.412	17.22
536.61	17.21
536.808	17.31
537.006	17.37
537.203	17.46
537.401	17.61
537.599	17.71
537.797	17.8
537.994	17.95
538.192	18.12
538.39	18.27
538.587	18.4
538.785	18.63
538.983	18.77
539.18	18.93
539.378	19.01
539.575	19.02
539.773	18.95
539.97	19.02
540.168	18.99
540.366	18.86
540.563	18.78
540.761	18.72
540.958	18.57
541.155	18.49
541.353	18.46
541.55	18.42
541.748	18.42
541.945	18.51
542.143	18.49
542.34	18.51
542.537	18.6
542.735	18.66
542.932	18.74
543.129	18.93
543.327	19.12
543.524	19.32
543.721	19.58
543.919	19.84
544.116	20.06
544.313	20.4
544.51	20.64
544.708	20.9
544.905	21.16
545.102	21.47
545.299	21.68
545.496	21.84
545.693	21.85
545.891	21.83
546.088	21.74
546.285	21.73
546.482	21.58
546.679	21.52
546.876	21.41
547.073	21.32
547.27	21.21
547.467	21.18
547.664	21.18
547.861	21.23
548.058	21.28
548.255	21.44
548.452	21.47
548.649	21.61
548.846	21.6
549.043	21.74
549.24	21.78
549.437	21.8
549.633	21.77
549.83	21.82
550.027	21.8
550.224	21.85
550.421	21.7
550.618	21.56
550.814	21.51
551.011	21.51
551.208	21.45
551.405	21.47
551.601	21.46
551.798	21.38
551.995	21.22
552.191	21.23
552.388	21.04
552.585	21
552.781	21.06
552.978	20.95
553.175	20.93
553.371	20.85
553.568	20.76
553.764	20.71
553.961	20.82
554.157	20.88
554.354	20.79
554.55	20.88
554.747	21
554.943	20.94
555.14	21.1
555.336	21.16
555.533	21.3
555.729	21.44
555.926	21.52
556.122	21.52
556.318	21.57
556.515	21.61
556.711	21.77
556.907	21.71
557.104	21.93
557.3	21.91
557.496	22.05
557.693	21.98
557.889	22.11
558.085	22.08
558.281	22.11
558.478	22.32
558.674	22.41
558.87	22.35
559.066	22.45
559.262	22.4
559.459	22.25
559.655	22.11
559.851	22.14
560.047	22.08
560.243	22.09
560.439	22.08
560.635	21.86
560.831	21.85
561.027	21.78
561.223	21.61
561.419	21.6
561.615	21.57
561.811	21.77
562.007	21.84
562.203	21.78
562.399	21.81
562.595	21.78
562.791	21.89
562.987	21.83
563.183	21.94
563.379	22.03
563.575	22.17
563.771	22.28
563.966	22.18
564.162	22.32
564.358	22.25
564.554	22.19
564.75	22.11
564.945	22.11
565.141	22.07
565.337	21.99
565.533	21.95
565.728	21.77
565.924	21.72
566.12	21.58
566.315	21.48
566.511	21.53
566.707	21.5
566.902	21.6
567.098	21.61
567.293	21.75
567.489	21.68
567.684	21.74
567.88	21.84
568.076	21.92
568.271	22.09
568.467	22.08
568.662	22.02
568.858	22.1
569.053	22.25
569.248	22.14
569.444	22.15
569.639	22.18
569.835	22.08
570.03	22.07
570.225	21.96
570.421	21.9
570.616	21.8
570.812	21.85
571.007	21.83
571.202	21.68
571.397	21.71
571.593	21.6
571.788	21.69
571.983	21.76
572.178	21.74
572.374	21.97
572.569	21.99
572.764	22.07
572.959	22.1
573.154	22.1
573.35	22.14
573.545	22.21
573.74	22.19
573.935	22.19
574.13	22.25
574.325	22.32
574.52	22.26
574.715	22.28
574.91	22.36
575.105	22.48
575.3	22.47
575.495	22.66
575.69	22.75
575.885	23.01
576.08	23.12
576.275	23.32
576.47	23.42
576.665	23.55
576.86	23.63
577.055	23.81
577.25	23.8
577.444	24.13
577.639	24.13
577.834	24.22
578.029	24.28
578.224	24.46
578.418	24.58
578.613	24.64
578.808	24.68
579.003	24.91
579.197	24.93
579.392	25.09
579.587	25.11
579.781	25.13
579.976	25.27
580.171	25.3
580.365	25.28
580.56	25.22
580.755	25.28
580.949	25.39
581.144	25.44
581.338	25.48
581.533	25.73
581.727	25.74
581.922	25.8
582.116	25.83
582.311	25.99
582.505	25.91
582.7	25.88
582.894	26.06
583.089	26.08
583.283	26.14
583.478	26.26
583.672	26.11
583.866	26.23
584.061	26.23
584.255	26.3
584.449	26.13
584.644	26.38
584.838	26.6
585.032	26.58
585.226	26.71
585.421	26.71
585.615	26.79
585.809	26.98
586.003	26.97
586.198	27.14
586.392	27.07
586.586	27.23
586.78	27.11
586.974	27.09
587.168	27.17
587.363	27.15
587.557	27.08
587.751	26.86
587.945	26.74
588.139	26.73
588.333	26.48
588.527	26.45
588.721	26.47
588.915	26.64
589.109	26.43
589.303	26.43
589.497	26.33
589.691	26.38
589.885	26.56
590.079	26.49
590.273	26.53
590.466	26.86
590.66	26.93
590.854	27.02
591.048	26.96
591.242	27.05
591.436	27.11
591.629	27.26
591.823	27.38
592.017	27.31
592.211	27.37
592.404	27.46
592.598	27.25
592.792	27.34
592.986	27.2
593.179	27.1
593.373	27.25
593.567	27.18
593.76	27.12
593.954	26.92
594.147	27.01
594.341	26.95
594.535	26.82
594.728	26.94
594.922	26.74
595.115	26.52
595.309	26.51
595.502	26.48
595.696	26.37
595.889	26.24
596.083	26.36
596.276	26.27
596.47	26.22
596.663	26.22
596.856	26.23
597.05	26.33
597.243	26.45
597.437	26.57
597.63	26.68
597.823	26.75
598.017	26.85
598.21	26.97
598.403	27.1
598.596	27.34
598.79	27.44
598.983	27.48
599.176	27.46
599.369	27.79
599.563	27.91
599.756	27.93
599.949	28.1
600.142	28.27
600.335	28.28
600.528	28.37
600.722	28.42
600.915	28.45
601.108	28.44
601.301	28.69
601.494	28.67
601.687	28.67
601.88	28.6
602.073	28.36
602.266	28.11
602.459	27.82
602.652	27.64
602.845	27.55
603.038	27.47
603.231	27.44
603.424	27.23
603.617	27.04
603.809	26.94
604.002	26.95
604.195	27.04
604.388	27.1
604.581	27.23
604.774	27.29
604.966	27.22
605.159	27.24
605.352	27.16
605.545	27.36
605.737	27.47
605.93	27.71
606.123	27.68
606.316	27.83
606.508	28.13
606.701	28.36
606.894	28.75
607.086	29.21
607.279	29.54
607.471	29.81
607.664	29.84
607.857	29.95
608.049	30.14
608.242	30.55
608.434	30.91
608.627	31.33
608.819	31.81
609.012	32.3
609.204	32.93
609.397	33.61
609.589	34.75
609.782	35.95
609.974	37.16
610.166	38.21
610.359	39.42
610.551	40.36
610.743	41.33
610.936	42.24
611.128	42.92
611.32	43.42
611.513	43.86
611.705	43.87
611.897	43.71
612.09	43.65
612.282	43.28
612.474	42.73
612.666	42.53
612.858	42.21
613.051	41.63
613.243	41.15
613.435	40.72
613.627	40.25
613.819	39.94
614.011	40.09
614.203	39.5
614.395	39.1
614.588	38.72
614.78	38.14
614.972	37.42
615.164	36.87
615.356	36.48
615.548	36
615.74	35.68
615.932	35.26
616.124	34.27
616.315	34.2
616.507	34.21
616.699	33.82
616.891	33.66
617.083	33.51
617.275	33.51
617.467	33.22
617.659	33.3
617.85	33.15
618.042	32.91
618.234	32.91
618.426	32.58
618.618	32.44
618.809	32.69
619.001	32.76
619.193	32.84
619.384	33.09
619.576	33.02
619.768	32.67
619.959	32.69
620.151	32.95
620.343	33.05
620.534	33.14
620.726	33.18
620.917	33.13
621.109	33.06
621.301	32.95
621.492	32.86
621.684	33.11
621.875	33.47
622.067	33.52
622.258	33.42
622.45	33.64
622.641	33.56
622.832	33.58
623.024	33.59
623.215	33.65
623.407	33.71
623.598	33.6
623.789	33.5
623.981	33.36
624.172	33.42
624.363	33.4
624.555	33.18
624.746	32.96
624.937	32.8
625.129	32.73
625.32	32.49
625.511	32.43
625.702	32.3
625.893	32.19
626.085	32
626.276	31.83
626.467	31.54
626.658	31.31
626.849	31.42
627.04	31.52
627.231	31.48
627.422	31.71
627.614	31.71
627.805	32.02
627.996	32.1
628.187	32.27
628.378	32.37
628.569	32.74
628.76	32.97
628.951	33.13
629.142	33.06
629.332	33.23
629.523	33.23
629.714	33.54
629.905	33.66
630.096	33.88
630.287	33.97
630.478	33.92
630.669	33.98
630.859	34.08
631.05	34.17
631.241	34.16
631.432	33.97
631.623	33.84
631.813	33.42
632.004	33
632.195	32.87
632.385	32.57
632.576	32.46
632.767	32.3
632.957	32.12
633.148	32.22
633.339	32.08
633.529	31.94
633.72	31.68
633.91	31.85
634.101	31.69
634.292	31.71
634.482	31.87
634.673	32.11
634.863	32.14
635.054	32.22
635.244	32.11
635.435	32.12
635.625	32.25
635.815	32.46
636.006	32.43
636.196	32.55
636.387	32.54
636.577	32.53
636.767	32.36
636.958	32.41
637.148	32.32
637.338	32.27
637.529	32.48
637.719	32.6
637.909	32.6
638.099	32.48
638.29	32.72
638.48	32.73
638.67	32.76
638.86	32.94
639.05	32.99
639.241	33.15
639.431	33.27
639.621	33.17
639.811	33.03
640.001	33.14
640.191	33.45
640.381	33.27
640.571	33.41
640.761	33.39
640.951	33.34
641.141	33.39
641.331	33.4
641.521	33.51
641.711	33.57
641.901	33.69
642.091	33.87
642.281	33.61
642.471	33.72
642.661	33.83
642.851	34.06
643.041	34.12
643.231	33.98
643.42	34
643.61	33.8
643.8	34.02
643.99	33.95
644.18	33.57
644.369	33.8
644.559	33.84
644.749	33.6
644.939	33.52
645.128	33.57
645.318	33.47
645.508	33.63
645.697	33.65
645.887	33.51
646.076	33.76
646.266	33.95
646.456	34.14
646.645	34.37
646.835	34.43
647.024	34.41
647.214	34.46
647.403	34.63
647.593	34.6
647.782	34.6
647.972	34.79
648.161	34.78
648.351	34.77
648.54	34.32
648.73	34.16
648.919	34.22
649.108	34.23
649.298	34.29
649.487	34.4
649.677	34.27
649.866	34.65
650.055	34.51
650.244	34.53
650.434	34.58
650.623	34.99
650.812	35.08
651.002	34.86
651.191	34.87
651.38	34.89
651.569	34.77
651.758	34.74
651.947	34.65
652.137	34.45
652.326	34.42
652.515	34.75
652.704	34.51
652.893	34.71
653.082	34.92
653.271	35.13
653.46	35.04
653.649	35.16
653.838	35.36
654.027	35.18
654.216	35.3
654.405	35.48
654.594	35.12
654.783	35.42
654.972	35.18
655.161	35.29
655.35	34.9
655.539	34.99
655.728	34.98
655.916	34.87
656.105	34.88
656.294	35.29
656.483	35.06
656.672	35
656.86	34.71
657.049	34.49
657.238	34.25
657.427	34.38
657.615	34.19
657.804	34.02
657.993	33.95
658.181	33.64
658.37	33.26
658.559	33.25
658.747	33.34
658.936	33.26
659.125	33.15
659.313	33.18
659.502	33.18
659.69	33.18
659.879	33.13
660.067	33.14
660.256	33.28
660.444	33.47
660.633	33.38
660.821	33.31
661.01	33.51
661.198	33.85
661.387	33.91
661.575	33.95
661.763	34.1
661.952	34.35
662.14	34.64
662.328	34.87
662.517	34.95
662.705	34.98
662.893	35.14
663.082	35.41
663.27	35.57
663.458	35.81
663.646	36.05
663.834	36.36
664.023	36.58
664.211	36.69
664.399	36.9
664.587	37.19
664.775	37.55
664.963	37.6
665.152	37.48
665.34	37.51
665.528	37.44
665.716	37.44
665.904	37.31
666.092	37.35
666.28	37.1
666.468	37.1
666.656	36.91
666.844	36.92
667.032	36.92
667.22	37.04
667.408	37.04
667.596	36.92
667.784	36.75
667.971	36.8
668.159	36.65
668.347	36.53
668.535	36.3
668.723	36.13
668.911	36.04
669.098	36.07
669.286	35.78
669.474	35.68
669.662	36.1
669.849	36.65
670.037	36.64
670.225	36.66
670.413	36.96
670.6	37.06
670.788	37.36
670.976	37.58
671.163	37.84
671.351	38.03
671.538	38.1
671.726	38.02
671.913	37.75
672.101	37.83
672.289	37.79
672.476	37.52
672.664	37.75
672.851	37.64
673.039	37.63
673.226	37.7
673.413	37.81
673.601	37.8
673.788	37.71
673.976	37.83
674.163	37.87
674.35	37.86
674.538	38.3
674.725	38.25
674.912	38.46
675.1	38.26
675.287	38.18
675.474	38.37
675.662	38.57
675.849	38.71
676.036	38.6
676.223	38.89
676.411	38.94
676.598	38.9
676.785	38.85
676.972	38.56
677.159	38.58
677.346	38.49
677.533	38.42
677.721	38.25
677.908	37.99
678.095	37.92
678.282	37.4
678.469	37.36
678.656	37.21
678.843	37.17
679.03	37.07
679.217	37.25
679.404	36.85
679.591	36.55
679.778	36.57
679.964	36.51
680.151	36.45
680.338	36.45
680.525	36.55
680.712	36.55
680.899	36.34
681.086	36.42
681.272	36.2
681.459	36.57
681.646	36.64
681.833	36.68
682.02	36.56
682.206	36.83
682.393	36.93
682.58	36.9
682.766	36.91
682.953	37.3
683.14	37.27
683.326	38.26
683.513	38.56
683.7	39.18
683.886	38.81
684.073	39.35
684.259	39.21
684.446	39.44
684.632	39.48
684.819	39.58
685.005	39.63
685.192	40.08
685.378	39.2
685.565	39.43
685.751	39.08
685.938	39.52
686.124	39.52
686.31	39.79
686.497	39.68
686.683	39.82
686.87	39.97
687.056	39.94
687.242	39.66
687.429	40.05
687.615	39.89
687.801	39.81
687.987	39.91
688.174	39.79
688.36	39.81
688.546	40.22
688.732	40.18
688.918	40.1
689.105	40.16
689.291	40.2
689.477	40.32
689.663	40.37
689.849	40.8
690.035	40.89
690.221	41.22
690.407	41.14
690.593	41.08
690.779	41.33
690.965	41.29
691.151	41.55
691.337	41.99
691.523	41.76
691.709	41.64
691.895	41.54
692.081	41.74
692.267	41.45
692.453	41.91
692.639	42
692.825	42.25
693.011	42.51
693.196	42.59
693.382	42.47
693.568	42.43
693.754	42.71
693.94	42.77
694.125	42.79
694.311	43
694.497	42.57
694.682	42.33
694.868	42.09
695.054	42.25
695.239	42.36
695.425	41.96
695.611	42.06
695.796	41.69
695.982	41.43
696.168	41.16
696.353	40.94
696.539	40.38
696.724	40.12
696.91	39.74
697.095	39.32
697.281	38.77
697.466	38.63
697.652	38.22
697.837	37.93
698.023	37.51
698.208	37.24
698.393	37.08
698.579	37.24
698.764	37
698.949	37.03
699.135	37.07
699.32	36.84
699.505	36.82
699.691	36.85
699.876	37.11
700.061	37.52
700.246	37.63
700.432	37.89
700.617	38.12
700.802	38.67
700.987	38.93
701.172	39.11
701.358	39.83
701.543	40.64
701.728	41.25
701.913	41.48
702.098	42.03
702.283	42.79
702.468	43.15
702.653	43.66
702.838	44.37
703.023	44.57
703.208	45.27
703.393	45.21
703.578	45.33
703.763	45.71
703.948	46.19
704.133	46.04
704.318	46.33
704.503	46.54
704.688	46.97
704.873	46.86
705.057	47.11
705.242	46.98
705.427	47.16
705.612	47.36
705.797	47.19
705.981	47.53
706.166	47.83
706.351	47.53
706.536	47.92
706.72	47.88
706.905	48.34
707.09	48.47
707.274	48.78
707.459	49.38
707.644	49.56
707.828	50.29
708.013	50.14
708.197	50.08
708.382	49.92
708.567	49.83
708.751	49.57
708.936	49.09
709.12	49.09
709.305	48.95
709.489	48.79
709.673	48.33
709.858	48
710.042	47.59
710.227	47.73
710.411	48.16
710.596	47.86
710.78	48.01
710.964	48.35
711.149	48.56
711.333	48.55
711.517	48.26
711.702	48.55
711.886	48.25
712.07	48.32
712.254	48.28
712.438	47.94
712.623	48
712.807	47.49
712.991	46.85
713.175	46.49
713.359	46.47
713.544	46.14
713.728	45.87
713.912	45.67
714.096	45.32
714.28	44.89
714.464	44.85
714.648	44.25
714.832	44.43
715.016	44.55
715.2	44.54
715.384	43.79
715.568	43.59
715.752	42.81
715.936	43.08
716.12	43.13
716.304	43.45
716.488	43.35
716.671	43.47
716.855	43.68
717.039	43.58
717.223	43.55
717.407	43.97
717.59	44.38
717.774	45.57
717.958	45.58
718.142	45.97
718.325	45.75
718.509	45.91
718.693	46.6
718.877	46.49
719.06	46.57
719.244	46.51
719.428	46.67
719.611	47.34
719.795	47.29
719.978	47.55
720.162	47.71
720.345	48.28
720.529	48.61
720.713	48.91
720.896	49.15
721.08	49.85
721.263	50.7
721.446	50.83
721.63	50.52
721.813	50.49
721.997	50.27
722.18	50.33
722.364	50.26
722.547	50.41
722.73	50.11
722.914	50.19
723.097	50
723.28	49.54
723.464	49.91
723.647	50.44
723.83	50.29
724.013	50.2
724.197	50.28
724.38	50.58
724.563	50.19
724.746	50.15
724.929	50.26
725.112	50.79
725.296	50.94
725.479	50.65
725.662	49.63
725.845	49.79
726.028	49.35
726.211	48.94
726.394	48.31
726.577	48.31
726.76	48.31
726.943	47.95
727.126	47.5
727.309	46.96
727.492	46.8
727.675	47.25
727.858	47.03
728.041	47.39
728.224	47.95
728.407	47.37
728.589	47.84
728.772	47.9
728.955	48.32
729.138	47.78
729.321	47.76
729.503	48.14
729.686	48.16
729.869	48.27
730.052	48.4
730.234	47.93
730.417	48.42
730.6	48.19
730.782	48.36
730.965	47.9
731.148	48.04
731.33	48.42
731.513	48.29
731.695	47.81
731.878	47.58
732.061	47.46
732.243	47.72
732.426	47.82
732.608	48.13
732.791	47.96
732.973	47.97
733.156	48.3
733.338	47.97
733.52	48.1
733.703	48.47
733.885	49.07
734.068	49.09
734.25	49.45
734.432	49.64
734.615	49.28
734.797	49.19
734.979	49.29
735.162	49.76
735.344	50.48
735.526	50.11
735.708	50.62
735.891	50.29
736.073	50.31
736.255	50.14
736.437	50.05
736.619	50.47
736.802	50.93
736.984	51.27
737.166	51.21
737.348	51.11
737.53	51.9
737.712	51.38
737.894	51.66
738.076	51.97
738.258	51.98
738.44	52.61
738.622	52.61
738.804	52.5
738.986	52.52
739.168	52.69
739.35	52.95
739.532	52.84
739.714	53.22
739.896	52.92
740.078	53.4
740.259	53.43
740.441	53.28
740.623	53.56
740.805	54.07
740.987	54.3
741.168	53.78
741.35	53.93
741.532	54.8
741.714	55.36
741.895	55.95
742.077	56.69
742.259	57.4
742.44	58.04
742.622	57.57
742.804	57.08
742.985	57.07
743.167	56.94
743.348	57.16
743.53	56.58
743.711	56.61
743.893	57.33
744.075	56.75
744.256	56.13
744.438	56.03
744.619	57
744.8	57.43
744.982	57.89
745.163	58.82
745.345	58.84
745.526	59.44
745.707	59.52
745.889	59.4
746.07	59.39
746.252	60.27
746.433	60.33
746.614	60.32
746.795	60.63
746.977	61.34
747.158	61.09
747.339	61.14
747.52	60.67
747.702	60.62
747.883	60.13
748.064	60.6
748.245	60.38
748.426	60.23
748.607	60.21
748.788	59.81
748.97	59.16
749.151	59.83
749.332	60.15
749.513	60.26
749.694	60.49
749.875	61.35
750.056	60.52
750.237	60.19
750.418	60.35
750.599	60.25
750.78	60.47
750.96	60.54
751.141	59.62
751.322	59.47
751.503	59.65
751.684	59.56
751.865	58.98
752.046	58.99
752.226	59.36
752.407	58.9
752.588	58.75
752.769	59.29
752.949	58.75
753.13	60.17
753.311	60.36
753.492	59.65
753.672	59.68
753.853	60.32
754.034	61.19
754.214	61.25
754.395	61.62
754.575	62.01
754.756	61.56
754.937	62.51
755.117	61.45
755.298	61.22
755.478	62.01
755.659	62.02
755.839	61.8
756.02	61.52
756.2	61.88
756.381	61.31
756.561	61.23
756.741	61.18
756.922	60.85
757.102	60.25
757.283	60.5
757.463	60.8
757.643	61.08
757.823	61.45
758.004	61.02
758.184	60.14
758.364	60.47
758.545	60.45
758.725	59.6
758.905	58.86
759.085	59.39
759.265	59.23
759.446	58.06
759.626	57.56
759.806	56.22
759.986	55.66
760.166	55.7
760.346	55.16
760.526	54.69
760.706	55.45
760.886	55.29
761.066	55.01
761.246	54.31
761.426	54.27
761.606	53.23
761.786	52.6
761.966	52.87
762.146	52.15
762.326	52.4
762.506	52.18
762.686	51.49
762.866	50.84
763.046	50.28
763.225	49.72
763.405	48.88
763.585	48.59
763.765	48.28
763.945	48.09
764.124	48.19
764.304	48.04
764.484	48.13
764.664	47.8
764.843	48.63
765.023	48.97
765.203	49.44
765.382	50.67
765.562	51.55
765.741	52.9
765.921	53.84
766.101	53.99
766.28	54.54
766.46	54.8
766.639	56
766.819	56.6
766.998	57.43
767.178	57.61
767.357	58.07
767.537	58.99
767.716	59.42
767.896	59.11
768.075	60.31
768.254	60.59
768.434	61.68
768.613	62.3
768.792	62.48
768.972	63.14
769.151	64.15
769.33	64.77
769.51	64.85
769.689	65.15
769.868	66.57
770.047	67.93
770.226	67.87
770.406	67.76
770.585	68.69
770.764	68.7
770.943	69.54
771.122	69.81
771.301	70.36
771.48	70.76
771.66	71.27
771.839	70.36
772.018	69.39
772.197	70.34
772.376	70.61
772.555	70.8
772.734	70.95
772.913	69.96
773.092	70.2
773.271	69.35
773.449	68.54
773.628	68.68
773.807	69.14
773.986	69.17
774.165	69.53
774.344	70.26
774.523	69.19
774.701	69.21
774.88	70.49
775.059	70.42
775.238	70.98
775.417	71.45
775.595	71.7
775.774	71.49
775.953	70.82
776.131	70.56
776.31	69.63
776.489	70.34
776.667	71.28
776.846	70.46
777.025	70.24
777.203	69.97
777.382	71.49
777.56	70.66
777.739	71.16
777.917	72.69
778.096	72.06
778.274	72.45
778.453	72.36
778.631	71.71
778.81	70.62
778.988	71.1
779.166	71.46
779.345	71.19
779.523	71.47
779.702	71.9
779.88	72.34
780.058	72.72
780.237	73.17
780.415	73.49
780.593	73.1
780.771	73.76
780.95	74.82
781.128	75.03
781.306	74.54
781.484	74.57
781.662	74.59
781.841	74.26
782.019	75.06
782.197	74.57
782.375	74.44
782.553	76.73
782.731	77.5
782.909	77.18
783.087	78.47
783.265	78.45
783.443	78.85
783.621	78.19
783.799	77.68
783.977	77.7
784.155	77.71
784.333	77.64
784.511	75.51
784.689	75.25
784.867	74.83
785.045	74.27
785.223	73.64
785.4	73.51
785.578	72.68
785.756	73.4
785.934	73.07
786.112	74.14
786.289	74.21
786.467	75.56
786.645	75.59
786.823	74.74
787	74.6
787.178	74.63
787.356	73.58
787.533	74.31
787.711	73.92
787.889	73.36
788.066	71.46
788.244	71.24
788.421	71.02
788.599	70.26
788.776	70.74
788.954	70.73
789.131	71.3
789.309	72.43
789.486	71.94
789.664	73.03
789.841	74.16
790.019	75.72
790.196	76.2
790.373	74.28
790.551	75.38
790.728	76.4
790.906	75.78
791.083	76.31
791.26	76.44
791.437	77.58
791.615	76.4
791.792	76.64
791.969	77.77
792.146	77.53
792.324	80.59
792.501	80.47
792.678	79.95
792.855	81.38
793.032	81.25
793.209	81.84
793.387	81.67
793.564	82.64
793.741	82.97
793.918	81.53
794.095	82.34
794.272	80.91
794.449	81.37
794.626	83.27
794.803	82.22
794.98	82.45
795.157	81.15
795.334	81.19
795.511	79.63
795.688	78.97
795.864	77.83
796.041	78
796.218	78.48
796.395	77.99
796.572	76.07
796.749	75.4
796.925	75.17
797.102	75.38
797.279	75.9
797.456	75.15
797.632	74.67
797.809	75.56
797.986	75.83
798.162	76.67
798.339	77.28
798.516	77.83
798.692	78.6
798.869	77.56
799.046	77.75
799.222	77.54
799.399	78.71
799.575	79.14
799.752	79.63
799.928	78.65
800.105	77.11
800.281	76.35
800.458	77.43
800.634	76.93
800.811	78.92
800.987	79.17
801.163	79.53
801.34	80.52
801.516	81.06
801.692	81.8
801.869	81.47
802.045	82.91
802.221	84.25
802.398	83.02
802.574	83.73
802.75	85.04
802.926	85.16
803.103	86.14
803.279	86.07
803.455	86.84
803.631	86.76
803.807	90.32
803.983	90.97
804.16	91.46
804.336	90.83
804.512	92.31
804.688	92.95
804.864	93.91
805.04	94.2
805.216	94.51
805.392	94.62
805.568	94.64
805.744	92.76
805.92	92.79
806.096	93.92
806.272	96.27
806.448	97.01
806.623	95.07
806.799	95.08
806.975	94.05
807.151	94.98
807.327	94.42
807.503	93.98
807.678	94.79
807.854	94.38
808.03	93.23
808.206	92.48
808.381	90.1
808.557	90.59
808.733	90.66
808.908	92.04
809.084	92.19
809.26	92.03
809.435	92.65
809.611	91.72
809.787	89.8
809.962	89.78
810.138	88.87
810.313	89.19
810.489	89.29
810.664	90.3
810.84	87.77
811.015	87.62
811.191	86.95
811.366	87.88
811.542	87.49
811.717	89.89
811.892	89.19
812.068	90.33
812.243	91.55
812.419	91.37
812.594	90.83
812.769	92.35
812.944	92.93
813.12	94.99
813.295	93.75
813.47	94.08
813.645	95.27
813.821	94.98
813.996	95.39
814.171	96.19
814.346	96.93
814.521	96.91
814.697	99.15
814.872	98.66
815.047	96.86
815.222	98.06
815.397	99.06
815.572	97.18
815.747	98.74
815.922	97.83
816.097	96.62
816.272	95.45
816.447	95.35
816.622	94.92
816.797	95.56
816.972	97.83
817.147	96.65
817.322	95.16
817.496	93.93
817.671	93.14
817.846	92.33
818.021	91.09
818.196	90.94
818.371	90.18
818.545	88.01
818.72	84.97
818.895	82.72
819.069	80.52
819.244	80.58
819.419	79.33
819.594	76.85
819.768	75.04
819.943	73.13
820.117	69.58
820.292	66.58
820.467	62.78
820.641	60.2
820.816	57.57
820.99	54.81
821.165	51.51
821.339	48.84
821.514	46.76
821.688	45.17
821.863	43.64
822.037	42.41
822.212	41.33
822.386	40.58
822.56	39.8
822.735	39.18
822.909	38.64
823.084	38.44
823.258	38.27
823.432	38.69
823.606	38.86
823.781	39.33
823.955	39.82
824.129	40.55
824.303	41.4
824.478	42.26
824.652	42.96
824.826	44.3
825	45.22
825.174	46.74
825.348	47.17
825.523	48.1
825.697	48.83
825.871	49.36
826.045	48.95
826.219	49.44
826.393	49.66
826.567	49.13
826.741	49.02
826.915	49.32
827.089	49.65
827.263	49.84
827.437	49.62
827.611	48.97
827.784	49.26
827.958	50.19
828.132	49.75
828.306	50.59
828.48	51.8
828.654	53.06
828.827	54.16
829.001	54.46
829.175	55.97
829.349	58.51
829.522	61.26
829.696	63.63
829.87	65.64
830.044	69.33
830.217	71.81
830.391	75.51
830.565	76.89
830.738	80.05
830.912	83.4
831.085	85.02
831.259	85.5
831.432	84.98
831.606	84.9
831.779	83.76
831.953	82.6
832.126	79.86
832.3	76.21
832.473	74.69
832.647	70.15
832.82	67.79
832.994	65.71
833.167	64.02
833.34	62.64
833.514	60.81
833.687	59.95
833.86	58.73
834.034	58.19
834.207	58.45
834.38	57.42
834.553	58.62
834.727	58.55
834.9	58.2
835.073	58.4
835.246	60.22
835.419	61.48
835.593	62.59
835.766	64.1
835.939	66.23
836.112	68.45
836.285	70.68
836.458	72.97
836.631	75.65
836.804	79.32
836.977	80.93
837.15	84.47
837.323	87.25
837.496	89.17
837.669	93.2
837.842	95.69
838.015	97.33
838.188	99.1
838.361	100.31
838.533	101.57
838.706	102.42
838.879	103.27
839.052	99.4
839.225	100.32
839.398	100.13
839.57	97.36
839.743	97.83
839.916	95.64
840.088	95.64
840.261	96.11
840.434	96.02
840.607	95.34
840.779	96.52
840.952	97.71
841.124	95.74
841.297	97.47
841.47	98.9
841.642	99.09
841.815	101.37
841.987	104.07
842.16	106.2
842.332	108.14
842.505	111.79
842.677	111.3
842.85	114.11
843.022	119.85
843.194	125.04
843.367	130.2
843.539	133.92
843.712	132.44
843.884	135.28
844.056	134.08
844.229	139.28
844.401	141.42
844.573	150.24
844.745	155.28
844.918	152.87
845.09	148.86
845.262	154.72
845.434	154.64
845.606	165.56
845.779	166.42
845.951	174.31
846.123	171.52
846.295	171.37
846.467	169.04
846.639	173.85
846.811	172.69
846.983	174.79
847.155	169.18
847.327	167.71
847.499	163.67
847.671	165.15
847.843	161.66
848.015	162.83
848.187	159.93
848.359	164.21
848.531	155.32
848.703	154.33
848.875	160.22
849.047	158.85
849.218	161.91
849.39	167.27
849.562	171.85
849.734	172.63
849.905	175.48
850.077	183.77
850.249	183.57
850.421	188.65
850.592	186.71
850.764	185.29
850.936	197.11
851.107	196.15
851.279	194.22
851.451	188.57
851.622	195.37
851.794	193.63
851.965	188.29
852.137	180.81
852.308	183.44
852.48	190.9
852.651	190.48
852.823	186.72
852.994	192.19
853.166	191.53
853.337	190.34
853.509	188.35
853.68	191.77
853.851	196.19
854.023	202.93
854.194	203.81
854.365	208.06
854.537	211.07
854.708	214.15
854.879	207.46
855.05	210.08
855.222	213.47
855.393	214.42
855.564	213.35
855.735	211.2
855.906	211.7
856.078	203.52
856.249	195.66
856.42	190.4
856.591	188.25
856.762	187.06
856.933	190.86
857.104	183.68
857.275	178.3
857.446	176.8
857.617	178.1
857.788	179.62
857.959	182.38
858.13	188.27
858.301	191.55
858.472	191.07
858.643	199.4
858.814	196.48
858.985	206.92
859.155	212.24
859.326	208.37
859.497	214.68
859.668	216.18
859.839	218.45
860.009	220.19
860.18	217.25
860.351	217
860.522	211.66
860.692	200.94
860.863	200.08
861.034	207.72
861.204	209.68
861.375	196.05
861.546	198.25
861.716	202.53
861.887	206.6
862.057	213.28
862.228	209.46
862.398	215.14
862.569	224.57
862.739	227.07
862.91	216.66
863.08	219.78
863.251	226.16
863.421	216.29
863.592	212.9
863.762	204.93
863.932	194.3
864.103	195.71
864.273	187.28
864.443	193.26
864.614	193.2
864.784	190.61
864.954	191.78
865.125	202.1
865.295	207.25
865.465	206.38
865.635	203.16
865.805	214.71
865.976	215.54
866.146	217.65
866.316	207.26
866.486	208.98
866.656	216.32
866.826	214.03
866.996	202.66
867.166	210.76
867.336	211.96
867.506	222.33
867.676	213.37
867.846	216.29
868.016	226.59
868.186	227.2
868.356	226.13
868.526	215.68
868.696	209.24
868.866	215.68
869.036	202.16
869.206	197.86
869.376	194.64
869.545	196.1
869.715	198
869.885	195.22
870.055	198.01
870.224	197.96
870.394	199.09
870.564	205.72
870.734	204.96
870.903	207.38
871.073	213.36
871.243	209.29
871.412	207.23
871.582	206.41
871.751	206.59
871.921	207.64
872.091	204.55
872.26	205.68
872.43	203.86
872.599	192.69
872.769	196.22
872.938	193.61
873.108	188.2
873.277	183.41
873.446	180.89
873.616	179.01
873.785	179.11
873.955	178.5
874.124	190.69
874.293	190.46
874.463	196.8
874.632	197.92
874.801	194.47
874.971	203.75
875.14	215.51
875.309	206.11
875.478	203.94
875.647	198.22
875.817	204.03
875.986	193
876.155	188.1
876.324	188.08
876.493	183.85
876.662	188.33
876.831	182.88
877	176.05
877.17	183.16
877.339	181.7
877.508	177.93
877.677	173.24
877.846	166.79
878.015	169.31
878.184	168
878.352	166.87
878.521	162.17
878.69	157.77
878.859	153.36
879.028	149.16
879.197	149.42
879.366	145.51
879.534	136.38
879.703	133.43
879.872	125.57
880.041	118.08
880.21	110.7
880.378	102.95
880.547	95.23
880.716	87.84
880.884	80.24
881.053	74.01
881.222	70.06
881.39	66.28
881.559	63.08
881.727	59.73
881.896	56.93
882.065	54.68
882.233	53.77
882.402	53.05
882.57	53.37
882.739	52.75
882.907	52.42
883.076	51.8
883.244	52.45
883.412	53.13
883.581	54.98
883.749	56.18
883.918	58.04
884.086	59.91
884.254	62.37
884.423	64.5
884.591	68.11
884.759	70.58
884.927	74.17
885.096	77.08
885.264	81.56
885.432	85.53
885.6	90.78
885.769	95.63
885.937	99.54
886.105	105.24
886.273	109.84
886.441	117.25
886.609	125.2
886.777	135.57
886.945	142.5
887.113	152.62
887.281	153.2
887.449	157.15
887.617	162.72
887.785	172.74
887.953	180.22
888.121	181.37
888.289	186.67
888.457	188.81
888.625	183.58
888.793	187.68
888.961	181.94
889.129	189.49
889.296	200.51
889.464	202.43
889.632	200.11
889.8	193.93
889.967	207.19
890.135	201.33
