Data from 2938725__Reflection_01.txt Node
Date: Sun Mar 15 20:13:26 EDT 2015
User: robert
Spectrometer: USB4E03002
Autoset integration time: false
Trigger mode: 4
Integration Time (sec): 1.000000E-1
Scans to average: 10
Electric dark correction enabled: false
Nonlinearity correction enabled: false
Boxcar width: 5
Stray light correction enabled: false
XAxis mode: Wavelengths
Stop averaging: false
Number of Pixels in Spectrum: 3648
>>>>>Begin Spectral Data<<<<<
177.575	214.65
177.794	422.08
178.014	192.54
178.233	145.25
178.452	346.36
178.672	289.29
178.891	85.66
179.11	45.16
179.33	-90.91
179.549	-151.92
179.768	451.61
179.987	125.42
180.207	-560
180.426	89.08
180.645	75.1
180.864	-788.89
181.084	113.95
181.303	66.15
181.522	82.95
181.741	23.48
181.96	23.61
182.179	36.84
182.398	55.37
182.618	60.19
182.837	3.47
183.056	28.75
183.275	20.72
183.494	13.71
183.713	13.36
183.932	15.57
184.151	48.84
184.37	35
184.589	53.6
184.808	54.99
185.027	58.3
185.246	83.52
185.465	73.61
185.684	94.64
185.903	101.33
186.122	91.23
186.341	100.29
186.56	89.19
186.779	88.37
186.998	60.37
187.216	88.17
187.435	78.29
187.654	46.37
187.873	28.42
188.092	3.47
188.311	-123.87
188.53	-15.98
188.748	48.58
188.967	16.13
189.186	52.75
189.405	107.55
189.623	38.1
189.842	73.3
190.061	97.26
190.28	87.73
190.498	67.27
190.717	98.79
190.936	111.75
191.154	41.74
191.373	38.07
191.592	23.42
191.81	-7.93
192.029	-1.7
192.248	-13.51
192.466	-61.26
192.685	-189.41
192.904	0
193.122	-861.54
193.341	-221.77
193.559	-78.17
193.778	-114.49
193.996	-37.19
194.215	-24.27
194.433	-67.7
194.652	1447.06
194.87	-575.56
195.089	-55.51
195.307	-21.93
195.526	-5.58
195.744	-29.52
195.963	-23.01
196.181	-27.9
196.399	-30.4
196.618	-38.92
196.836	-16.56
197.055	-10.32
197.273	-3.44
197.491	-27.21
197.71	-23.1
197.928	-13.7
198.146	-9.92
198.365	-14.15
198.583	-28.73
198.801	-26.16
199.019	29.08
199.238	64.14
199.456	16.89
199.674	-20.89
199.892	-31.56
200.111	-42.51
200.329	-65.93
200.547	-31.21
200.765	-16.22
200.983	-5.29
201.202	-0.98
201.42	9.46
201.638	5.97
201.856	35.47
202.074	46.11
202.292	48.64
202.51	60.45
202.728	62.51
202.946	55.61
203.165	49.7
203.383	53.27
203.601	56.79
203.819	48.43
204.037	42.38
204.255	46.64
204.473	43.26
204.691	45.39
204.909	39.2
205.127	35.14
205.345	16.34
205.562	-3.04
205.78	-3.86
205.998	15.6
206.216	12.44
206.434	-4.16
206.652	-28.32
206.87	-24.52
207.088	-7.1
207.306	-1.16
207.523	-8.96
207.741	-38.53
207.959	-14.74
208.177	-87.85
208.395	-169.03
208.612	-96.14
208.83	-97.74
209.048	-106.73
209.266	-102.09
209.483	-151.52
209.701	-197.25
209.919	-193.82
210.136	-32.13
210.354	-74
210.572	-14.9
210.79	-10.85
211.007	-4.41
211.225	-6.51
211.442	-10.84
211.66	-6.94
211.878	4.16
212.095	16.15
212.313	5.17
212.53	3.9
212.748	24.9
212.966	21.05
213.183	24.49
213.401	-9.19
213.618	-0.3
213.836	28.93
214.053	17.49
214.271	5.18
214.488	18.85
214.705	33.12
214.923	42.94
215.14	43.59
215.358	36.76
215.575	44.67
215.793	65.05
216.01	57.9
216.227	44.28
216.445	28.84
216.662	26.96
216.879	15.07
217.097	12.84
217.314	6
217.531	10.02
217.749	24.91
217.966	23.94
218.183	9.45
218.4	26.79
218.618	26.56
218.835	38.79
219.052	44.08
219.269	35.81
219.487	33.8
219.704	38.86
219.921	37.43
220.138	36.26
220.355	42.73
220.572	40.64
220.79	19.44
221.007	22.32
221.224	30.53
221.441	33.66
221.658	37.17
221.875	33.21
222.092	28.07
222.309	11.37
222.526	3.64
222.743	-5.76
222.96	-4.82
223.177	2.63
223.394	-2.31
223.611	-5.97
223.828	-13.4
224.045	-18.84
224.262	-19.08
224.479	-17.14
224.696	-2.98
224.913	-4.02
225.13	0
225.347	2.67
225.564	8.92
225.781	10.05
225.997	11.63
226.214	15.07
226.431	15.73
226.648	13.02
226.865	11.21
227.082	10.75
227.298	11.26
227.515	9.24
227.732	8.78
227.949	6.7
228.165	7.17
228.382	6.54
228.599	5.24
228.816	6.06
229.032	6.11
229.249	5.07
229.466	4.2
229.682	4.88
229.899	4.62
230.116	3.28
230.332	2.71
230.549	1.51
230.765	1.87
230.982	1.82
231.199	0.45
231.415	0.84
231.632	1.24
231.848	0.69
232.065	0.56
232.281	0.49
232.498	3.07
232.714	2.29
232.931	4.59
233.147	3.54
233.364	2.18
233.58	2.94
233.797	2.25
234.013	2.38
234.23	5.35
234.446	3.81
234.662	4.45
234.879	4.71
235.095	8.11
235.312	8.45
235.528	8.51
235.744	10.01
235.961	9.41
236.177	7.89
236.393	8.09
236.61	5.9
236.826	9.03
237.042	7.92
237.258	7.02
237.475	4.25
237.691	4.39
237.907	4.3
238.123	5.08
238.339	5.3
238.556	6.95
238.772	7.89
238.988	7.79
239.204	5.14
239.42	7.69
239.636	7.88
239.853	9.37
240.069	9.24
240.285	9.29
240.501	8.53
240.717	8.68
240.933	7.27
241.149	7.04
241.365	7.72
241.581	7.43
241.797	6.35
242.013	5.75
242.229	4.15
242.445	3.4
242.661	3.56
242.877	3.27
243.093	2.61
243.309	3.3
243.525	3.08
243.741	2.72
243.957	2.64
244.173	2.91
244.388	2.83
244.604	4.01
244.82	4.67
245.036	4.52
245.252	4.59
245.468	5.01
245.683	4.88
245.899	5.24
246.115	5.47
246.331	5.44
246.547	5.66
246.762	6.22
246.978	5.97
247.194	5.9
247.409	5.89
247.625	5.92
247.841	5.95
248.057	6.02
248.272	5.7
248.488	5.39
248.703	5.46
248.919	5.75
249.135	5.32
249.35	5.49
249.566	5.62
249.782	5.58
249.997	4.91
250.213	4.19
250.428	4.4
250.644	4.49
250.859	4.54
251.075	4.75
251.29	3.32
251.506	3.36
251.721	3.52
251.937	3.13
252.152	3.17
252.368	3.69
252.583	3.78
252.798	3.28
253.014	3.43
253.229	3.2
253.445	3.11
253.66	3.23
253.875	2.62
254.091	2.79
254.306	3.33
254.521	2.48
254.737	3.79
254.952	4.47
255.167	5.5
255.383	4.49
255.598	3.97
255.813	3.3
256.028	3.3
256.244	4.58
256.459	3.25
256.674	2.9
256.889	3.27
257.104	2.21
257.32	2
257.535	1.49
257.75	1.95
257.965	2.93
258.18	3.2
258.395	2.82
258.61	2.84
258.826	3.16
259.041	2.96
259.256	3.19
259.471	3.45
259.686	3.58
259.901	3.7
260.116	4
260.331	3.68
260.546	3.7
260.761	3.84
260.976	3.75
261.191	3.99
261.406	3.83
261.621	3.73
261.836	3.6
262.05	3.71
262.265	3.51
262.48	2.87
262.695	2.95
262.91	2.66
263.125	3.24
263.34	2.99
263.555	2.36
263.769	2.99
263.984	2.49
264.199	2.17
264.414	1.34
264.629	1.47
264.843	1.69
265.058	1.39
265.273	1.64
265.488	1.07
265.702	1.05
265.917	1.79
266.132	1.86
266.346	2.71
266.561	3.05
266.776	3.56
266.99	3.47
267.205	3.3
267.42	3.38
267.634	3.16
267.849	2.98
268.063	2.9
268.278	2.74
268.492	2.89
268.707	2.81
268.922	2.61
269.136	2.1
269.351	2.44
269.565	2.85
269.78	2.72
269.994	2.45
270.209	2.52
270.423	2.11
270.637	1.43
270.852	1.29
271.066	1
271.281	1.26
271.495	1.76
271.709	1.55
271.924	1.41
272.138	1.58
272.353	2
272.567	2.31
272.781	2.59
272.996	2.99
273.21	3.18
273.424	3.46
273.638	3.06
273.853	2.57
274.067	2.52
274.281	2.93
274.495	2.66
274.71	3.06
274.924	2.62
275.138	3.21
275.352	3.16
275.566	3.55
275.781	3.31
275.995	3.65
276.209	3.78
276.423	4.08
276.637	3.87
276.851	3.68
277.065	3.16
277.279	3.6
277.493	3.42
277.707	3.4
277.921	2.73
278.135	2.81
278.349	2.64
278.563	2.73
278.777	2.24
278.991	1.9
279.205	2.91
279.419	2.72
279.633	2.81
279.847	2.43
280.061	2.33
280.275	2.34
280.489	2.68
280.703	2.69
280.917	2.78
281.131	3.29
281.344	3.67
281.558	3.54
281.772	3.6
281.986	3.42
282.2	3.38
282.414	3.74
282.627	3.79
282.841	2.98
283.055	2.71
283.269	2.99
283.482	2.77
283.696	2.43
283.91	2.11
284.123	2.09
284.337	2.09
284.551	2.52
284.764	2.28
284.978	2.27
285.192	2.66
285.405	2.71
285.619	2.58
285.833	2.31
286.046	2.29
286.26	2.02
286.473	2.22
286.687	2.42
286.9	2.28
287.114	2.42
287.327	2.31
287.541	2.26
287.754	2.23
287.968	2.42
288.181	2.69
288.395	2.89
288.608	3.15
288.822	3.01
289.035	3.13
289.248	3.02
289.462	2.94
289.675	2.82
289.889	2.87
290.102	3.02
290.315	2.63
290.529	2.44
290.742	2.01
290.955	2.14
291.169	2.14
291.382	1.97
291.595	1.97
291.808	1.66
292.022	1.59
292.235	1.61
292.448	1.75
292.661	1.93
292.875	2.14
293.088	2.85
293.301	3.17
293.514	3.39
293.727	3.02
293.94	2.93
294.153	3.27
294.367	3.82
294.58	3.69
294.793	3.04
295.006	2.9
295.219	2.83
295.432	2.76
295.645	2.35
295.858	2.29
296.071	2.53
296.284	2.43
296.497	2.69
296.71	2.44
296.923	2.6
297.136	2.86
297.349	3.04
297.562	3.06
297.775	3.06
297.988	3.19
298.201	3.08
298.414	3.21
298.626	3.96
298.839	3.71
299.052	3.9
299.265	3.89
299.478	4.2
299.691	4.03
299.903	3.69
300.116	3.74
300.329	4.22
300.542	4.21
300.755	4.27
300.967	3.7
301.18	3.66
301.393	3.7
301.605	3.8
301.818	3.89
302.031	4.11
302.243	4.34
302.456	4.08
302.669	3.8
302.881	3.7
303.094	3.29
303.307	3.09
303.519	2.93
303.732	2.89
303.944	2.61
304.157	2.5
304.37	2.55
304.582	2.84
304.795	3.17
305.007	3.36
305.22	3.77
305.432	3.83
305.645	4.07
305.857	4.42
306.069	4.37
306.282	4.68
306.494	5.23
306.707	4.73
306.919	4.68
307.132	4.55
307.344	4.42
307.556	4.12
307.769	4.46
307.981	4.46
308.193	4.83
308.406	4.85
308.618	4.7
308.83	4.12
309.043	4.55
309.255	4.79
309.467	4.75
309.679	4.72
309.892	4.84
310.104	4.83
310.316	4.55
310.528	4.29
310.74	4.29
310.953	4.54
311.165	4.46
311.377	4.48
311.589	4.41
311.801	4.57
312.013	4.42
312.225	4.5
312.437	4.35
312.649	4.71
312.862	4.86
313.074	5.11
313.286	5.15
313.498	5.44
313.71	5.43
313.922	5.51
314.134	5.68
314.346	5.75
314.558	5.58
314.77	5.41
314.982	5.02
315.193	4.77
315.405	4.65
315.617	4.59
315.829	4.77
316.041	5.08
316.253	4.76
316.465	4.67
316.677	4.53
316.888	4.85
317.1	5.44
317.312	5.71
317.524	6.4
317.736	6.53
317.947	6.33
318.159	6.81
318.371	6.46
318.583	7.11
318.794	6.71
319.006	6.8
319.218	7.2
319.43	7.31
319.641	7.5
319.853	7.15
320.064	7.33
320.276	7.54
320.488	7.04
320.699	6.93
320.911	7.26
321.123	7.68
321.334	7.56
321.546	7.18
321.757	7.64
321.969	7.5
322.18	7.58
322.392	7.6
322.603	7.97
322.815	8.18
323.026	8.73
323.238	8.62
323.449	8.93
323.661	9.55
323.872	9.87
324.083	9.75
324.295	10.16
324.506	10.43
324.718	10.55
324.929	11.08
325.14	11.6
325.352	12.05
325.563	12.11
325.774	12.44
325.986	12.79
326.197	13.23
326.408	13.37
326.62	13.7
326.831	14.03
327.042	14.78
327.253	15.16
327.464	15.21
327.676	15.38
327.887	15.86
328.098	16.13
328.309	16.79
328.52	17
328.732	17.46
328.943	17.81
329.154	18.16
329.365	18.15
329.576	17.86
329.787	17.99
329.998	18.29
330.209	18.44
330.42	18.89
330.631	18.66
330.842	18.85
331.053	19.26
331.264	19.74
331.475	20.01
331.686	20.44
331.897	21.29
332.108	22.04
332.319	22.23
332.53	22.53
332.741	22.62
332.952	23.29
333.163	23.69
333.374	23.57
333.585	23.44
333.795	23.86
334.006	24.01
334.217	23.82
334.428	24.14
334.639	24.4
334.849	24.44
335.06	24.66
335.271	24.71
335.482	24.64
335.692	24.91
335.903	25.1
336.114	25.28
336.325	24.97
336.535	24.85
336.746	24.15
336.957	24.32
337.167	24.98
337.378	24.88
337.589	24.74
337.799	24.8
338.01	24.63
338.22	24.64
338.431	24.6
338.642	24.78
338.852	24.96
339.063	25.67
339.273	25.77
339.484	25.44
339.694	25.52
339.905	25.56
340.115	25.6
340.326	25.84
340.536	26.14
340.746	26.02
340.957	26.28
341.167	26.51
341.378	26.33
341.588	26.13
341.799	26.27
342.009	26.54
342.219	26.36
342.43	26.61
342.64	27.01
342.85	27.18
343.061	27.24
343.271	27.36
343.481	27.26
343.691	27.07
343.902	26.97
344.112	26.72
344.322	26.48
344.532	26.42
344.743	26.19
344.953	25.81
345.163	25.56
345.373	25.39
345.583	24.93
345.793	24.92
346.004	25.16
346.214	25.46
346.424	25.71
346.634	25.5
346.844	25.79
347.054	26.03
347.264	25.93
347.474	25.84
347.684	25.83
347.894	26.25
348.104	26.19
348.314	25.93
348.524	25.78
348.734	25.36
348.944	25.41
349.154	25.28
349.364	25.16
349.574	25.2
349.784	25.12
349.994	25.23
350.204	24.89
350.413	24.79
350.623	24.9
350.833	24.94
351.043	25
351.253	25.31
351.463	25.38
351.672	25.33
351.882	25.13
352.092	25.12
352.302	25.19
352.511	25.25
352.721	25.33
352.931	25.16
353.141	25.01
353.35	25.1
353.56	24.78
353.77	24.45
353.979	24.22
354.189	24.58
354.399	24.41
354.608	24.23
354.818	24.41
355.027	24.27
355.237	24.43
355.447	24.41
355.656	24.11
355.866	24.33
356.075	24.28
356.285	24.47
356.494	24.21
356.704	24.36
356.913	24.27
357.123	24.09
357.332	24.17
357.542	24.12
357.751	23.97
357.96	24.02
358.17	23.86
358.379	23.82
358.589	23.54
358.798	23.74
359.007	23.65
359.217	23.33
359.426	23.15
359.635	23.19
359.845	23.13
360.054	23.39
360.263	23.36
360.472	23.32
360.682	23.34
360.891	23.48
361.1	23.12
361.309	22.92
361.519	23.26
361.728	23.48
361.937	23.35
362.146	23.29
362.355	23.12
362.564	23.28
362.774	23.35
362.983	23.61
363.192	23.62
363.401	23.95
363.61	24.19
363.819	24.16
364.028	24.03
364.237	23.79
364.446	23.65
364.655	23.81
364.864	23.42
365.073	23.34
365.282	23.15
365.491	22.83
365.7	22.72
365.909	22.54
366.118	22.32
366.327	22.12
366.536	22.39
366.745	22.47
366.954	22.11
367.162	22.15
367.371	22.05
367.58	22.09
367.789	22.36
367.998	22.19
368.207	22.44
368.415	22.61
368.624	22.87
368.833	23.01
369.042	23.11
369.25	23.01
369.459	22.96
369.668	22.83
369.877	22.74
370.085	22.68
370.294	22.81
370.503	22.52
370.711	22.26
370.92	22
371.129	21.69
371.337	21.6
371.546	21.63
371.754	21.95
371.963	22.04
372.171	21.98
372.38	21.89
372.589	21.97
372.797	22.05
373.006	22.02
373.214	22.32
373.423	22.3
373.631	22.18
373.84	22.25
374.048	21.9
374.256	21.7
374.465	21.64
374.673	21.64
374.882	21.34
375.09	21.26
375.298	21.3
375.507	20.94
375.715	21.13
375.923	21.23
376.132	21.31
376.34	21.41
376.548	21.57
376.757	21.64
376.965	21.63
377.173	21.66
377.381	21.8
377.59	21.77
377.798	21.84
378.006	21.79
378.214	21.61
378.423	21.52
378.631	21.34
378.839	21.18
379.047	20.91
379.255	20.96
379.463	20.77
379.671	20.75
379.879	20.66
380.088	20.56
380.296	20.29
380.504	20.15
380.712	20.41
380.92	20.37
381.128	20.37
381.336	20.24
381.544	19.97
381.752	20.29
381.96	19.97
382.168	19.84
382.376	19.94
382.584	19.92
382.791	20.34
382.999	19.84
383.207	19.95
383.415	19.99
383.623	20.25
383.831	20.53
384.039	20.47
384.247	20.8
384.454	20.85
384.662	20.77
384.87	20.66
385.078	20.33
385.285	20.45
385.493	20.45
385.701	20.42
385.909	20.11
386.116	19.91
386.324	19.86
386.532	19.4
386.739	19.37
386.947	19.32
387.155	19.4
387.362	19.51
387.57	19.38
387.778	19.2
387.985	19.02
388.193	19.32
388.4	19.24
388.608	19.06
388.816	19.22
389.023	19.38
389.231	19.32
389.438	19.4
389.646	19.32
389.853	19.28
390.061	19.41
390.268	19.53
390.475	19.34
390.683	19.34
390.89	19.44
391.098	19.26
391.305	19.27
391.512	19.13
391.72	19.01
391.927	18.93
392.135	18.91
392.342	18.8
392.549	18.57
392.756	18.72
392.964	18.73
393.171	18.45
393.378	18.62
393.586	18.67
393.793	18.76
394	18.83
394.207	18.86
394.414	18.86
394.622	18.75
394.829	18.81
395.036	18.79
395.243	18.65
395.45	18.85
395.657	18.96
395.864	18.74
396.072	18.67
396.279	18.66
396.486	18.73
396.693	18.88
396.9	19.08
397.107	19
397.314	18.93
397.521	18.93
397.728	18.77
397.935	18.51
398.142	18.43
398.349	18.47
398.556	18.47
398.763	18.34
398.97	18.35
399.177	18.3
399.383	18.36
399.59	18.23
399.797	18.42
400.004	18.4
400.211	18.31
400.418	18.3
400.625	18.3
400.831	18.22
401.038	18.16
401.245	17.93
401.452	17.83
401.658	17.76
401.865	17.86
402.072	17.66
402.279	17.56
402.485	17.56
402.692	17.64
402.899	17.69
403.105	17.83
403.312	17.9
403.519	17.9
403.725	17.95
403.932	18
404.138	17.98
404.345	17.93
404.552	18.15
404.758	17.99
404.965	18.2
405.171	18.09
405.378	17.85
405.584	17.9
405.791	17.82
405.997	17.9
406.204	17.9
406.41	17.94
406.617	18.05
406.823	18.02
407.029	18.22
407.236	17.97
407.442	17.98
407.649	18.13
407.855	18.11
408.061	18.33
408.268	18.32
408.474	18.31
408.68	18.22
408.887	18.15
409.093	18
409.299	18.18
409.505	18.13
409.712	18.17
409.918	18.12
410.124	18.01
410.33	17.76
410.537	17.45
410.743	17.57
410.949	17.26
411.155	17.18
411.361	17.08
411.567	17.02
411.773	17.08
411.98	17.1
412.186	17.04
412.392	17.11
412.598	17.31
412.804	17.61
413.01	17.55
413.216	17.84
413.422	17.89
413.628	18.29
413.834	18.17
414.04	18.16
414.246	18
414.452	18.07
414.658	17.99
414.864	17.98
415.07	17.98
415.275	18.14
415.481	18.06
415.687	18.07
415.893	17.88
416.099	17.95
416.305	18.04
416.511	18.11
416.716	18.21
416.922	18.32
417.128	18.23
417.334	18.24
417.539	18.12
417.745	18.09
417.951	18.05
418.157	17.98
418.362	17.97
418.568	17.85
418.774	17.83
418.979	17.69
419.185	17.68
419.391	17.71
419.596	17.65
419.802	17.65
420.008	17.78
420.213	17.86
420.419	17.92
420.624	17.99
420.83	17.98
421.035	17.93
421.241	17.99
421.446	17.97
421.652	17.95
421.857	17.98
422.063	18.01
422.268	17.92
422.474	17.92
422.679	17.84
422.885	17.76
423.09	17.78
423.295	17.8
423.501	17.75
423.706	17.72
423.911	17.73
424.117	17.73
424.322	17.66
424.527	17.76
424.733	17.81
424.938	17.89
425.143	17.91
425.349	17.93
425.554	17.95
425.759	18.02
425.964	18.01
426.169	18.07
426.375	18.03
426.58	18.05
426.785	18.05
426.99	17.96
427.195	17.89
427.4	17.86
427.605	17.9
427.811	18.05
428.016	17.94
428.221	17.97
428.426	17.88
428.631	17.97
428.836	18.09
429.041	18.19
429.246	18.1
429.451	18.27
429.656	18.25
429.861	18.23
430.066	18.12
430.271	18.23
430.476	18.29
430.681	18.32
430.886	18.21
431.09	18.21
431.295	18.2
431.5	18.24
431.705	18.08
431.91	18.15
432.115	18.17
432.32	18.16
432.524	18.18
432.729	18.26
432.934	18.33
433.139	18.35
433.343	18.26
433.548	18.15
433.753	18.15
433.958	18.17
434.162	18.25
434.367	18.25
434.572	18.37
434.776	18.43
434.981	18.28
435.186	18.23
435.39	18.21
435.595	18.26
435.799	18.24
436.004	18.3
436.209	18.34
436.413	18.38
436.618	18.35
436.822	18.24
437.027	18.1
437.231	18.21
437.436	18.21
437.64	18.32
437.845	18.35
438.049	18.4
438.253	18.45
438.458	18.51
438.662	18.43
438.867	18.47
439.071	18.45
439.275	18.48
439.48	18.39
439.684	18.46
439.888	18.5
440.093	18.45
440.297	18.38
440.501	18.36
440.706	18.29
440.91	18.31
441.114	18.3
441.318	18.3
441.523	18.37
441.727	18.54
441.931	18.57
442.135	18.39
442.339	18.46
442.543	18.5
442.748	18.51
442.952	18.57
443.156	18.61
443.36	18.64
443.564	18.7
443.768	18.69
443.972	18.65
444.176	18.67
444.38	18.79
444.584	18.8
444.788	18.88
444.992	18.86
445.196	18.89
445.4	18.96
445.604	18.88
445.808	18.86
446.012	18.83
446.216	18.79
446.42	18.78
446.624	18.78
446.828	18.72
447.032	18.64
447.235	18.6
447.439	18.54
447.643	18.49
447.847	18.53
448.051	18.51
448.254	18.44
448.458	18.41
448.662	18.36
448.866	18.3
449.069	18.25
449.273	18.3
449.477	18.27
449.681	18.27
449.884	18.23
450.088	18.24
450.292	18.18
450.495	18.28
450.699	18.3
450.902	18.22
451.106	18.27
451.31	18.39
451.513	18.27
451.717	18.33
451.92	18.29
452.124	18.2
452.327	18.17
452.531	18.27
452.734	18.27
452.938	18.27
453.141	18.37
453.345	18.42
453.548	18.37
453.752	18.55
453.955	18.59
454.158	18.57
454.362	18.65
454.565	18.73
454.769	18.61
454.972	18.54
455.175	18.48
455.379	18.43
455.582	18.32
455.785	18.41
455.988	18.35
456.192	18.3
456.395	18.28
456.598	18.29
456.801	18.26
457.005	18.44
457.208	18.5
457.411	18.56
457.614	18.59
457.817	18.59
458.021	18.53
458.224	18.51
458.427	18.54
458.63	18.57
458.833	18.57
459.036	18.61
459.239	18.46
459.442	18.41
459.645	18.44
459.848	18.42
460.051	18.45
460.254	18.4
460.457	18.42
460.66	18.4
460.863	18.36
461.066	18.36
461.269	18.32
461.472	18.39
461.675	18.41
461.878	18.41
462.081	18.46
462.284	18.48
462.486	18.63
462.689	18.61
462.892	18.71
463.095	18.88
463.298	18.8
463.5	18.69
463.703	18.76
463.906	18.81
464.109	18.72
464.311	18.66
464.514	18.61
464.717	18.55
464.92	18.54
465.122	18.44
465.325	18.39
465.528	18.41
465.73	18.56
465.933	18.58
466.135	18.58
466.338	18.69
466.541	18.79
466.743	18.76
466.946	18.72
467.148	18.63
467.351	18.68
467.553	18.7
467.756	18.7
467.958	18.65
468.161	18.69
468.363	18.76
468.566	18.86
468.768	18.85
468.971	18.86
469.173	18.88
469.375	19
469.578	18.86
469.78	18.85
469.983	18.93
470.185	18.94
470.387	18.88
470.59	18.84
470.792	18.71
470.994	18.63
471.196	18.64
471.399	18.61
471.601	18.66
471.803	18.77
472.005	18.76
472.208	18.84
472.41	18.83
472.612	18.74
472.814	18.76
473.016	18.83
473.218	18.86
473.421	18.96
473.623	18.98
473.825	19.01
474.027	19.08
474.229	19.12
474.431	19.07
474.633	19.09
474.835	19.2
475.037	19.15
475.239	19.18
475.441	19.3
475.643	19.32
475.845	19.36
476.047	19.19
476.249	19.14
476.451	19.08
476.653	19.06
476.855	19.01
477.057	18.95
477.258	18.9
477.46	18.81
477.662	18.72
477.864	18.7
478.066	18.75
478.268	18.86
478.469	18.95
478.671	19
478.873	19.02
479.075	18.98
479.276	19.06
479.478	19.12
479.68	19.15
479.882	19.09
480.083	19.04
480.285	18.93
480.487	18.99
480.688	18.92
480.89	18.78
481.091	18.76
481.293	18.84
481.495	18.85
481.696	18.82
481.898	18.88
482.099	18.92
482.301	18.96
482.502	18.96
482.704	18.96
482.905	18.95
483.107	18.98
483.308	18.98
483.51	18.95
483.711	18.91
483.913	18.94
484.114	18.9
484.315	18.9
484.517	18.88
484.718	18.89
484.92	18.81
485.121	18.82
485.322	18.82
485.524	18.83
485.725	18.86
485.926	18.89
486.127	18.83
486.329	18.82
486.53	18.84
486.731	18.85
486.932	18.83
487.134	18.91
487.335	18.89
487.536	18.88
487.737	18.86
487.938	18.84
488.139	18.81
488.341	18.85
488.542	18.85
488.743	18.77
488.944	18.79
489.145	18.77
489.346	18.77
489.547	18.79
489.748	18.83
489.949	18.84
490.15	18.83
490.351	18.82
490.552	18.82
490.753	18.84
490.954	18.94
491.155	18.93
491.356	18.95
491.557	18.93
491.758	18.96
491.959	18.93
492.159	18.97
492.36	19.02
492.561	19.07
492.762	19.08
492.963	19.15
493.164	19.16
493.364	19.2
493.565	19.27
493.766	19.3
493.967	19.3
494.167	19.43
494.368	19.37
494.569	19.29
494.769	19.21
494.97	19.29
495.171	19.16
495.371	19.17
495.572	19.11
495.773	19.19
495.973	19.28
496.174	19.32
496.375	19.22
496.575	19.25
496.776	19.38
496.976	19.49
497.177	19.47
497.377	19.57
497.578	19.63
497.778	19.61
497.979	19.48
498.179	19.37
498.38	19.39
498.58	19.41
498.78	19.54
498.981	19.46
499.181	19.38
499.382	19.41
499.582	19.42
499.782	19.36
499.983	19.54
500.183	19.55
500.383	19.7
500.584	19.65
500.784	19.66
500.984	19.63
501.184	19.7
501.385	19.81
501.585	19.82
501.785	19.89
501.985	19.97
502.185	19.95
502.386	20.07
502.586	20.01
502.786	20.15
502.986	20.18
503.186	20.18
503.386	20.2
503.586	20.26
503.786	20.23
503.987	20.17
504.187	20.15
504.387	20.15
504.587	20.18
504.787	20.24
504.987	20.22
505.187	20.34
505.387	20.36
505.587	20.33
505.786	20.34
505.986	20.36
506.186	20.44
506.386	20.62
506.586	20.52
506.786	20.54
506.986	20.59
507.186	20.72
507.386	20.66
507.585	20.76
507.785	20.92
507.985	21.03
508.185	21.1
508.384	21.11
508.584	20.98
508.784	21.1
508.984	21.12
509.183	21.13
509.383	21.06
509.583	21.13
509.782	21.13
509.982	21
510.182	20.94
510.381	21
510.581	21.08
510.781	21.17
510.98	21.18
511.18	21.25
511.379	21.33
511.579	21.36
511.778	21.47
511.978	21.59
512.177	21.74
512.377	21.7
512.576	21.79
512.776	21.81
512.975	21.86
513.175	21.91
513.374	21.95
513.573	22
513.773	22.09
513.972	22.02
514.172	22.02
514.371	22.09
514.57	22.28
514.77	22.25
514.969	22.32
515.168	22.4
515.367	22.55
515.567	22.66
515.766	22.61
515.965	22.73
516.164	22.87
516.364	22.92
516.563	22.95
516.762	22.98
516.961	23.02
517.16	23.14
517.359	23.24
517.559	23.22
517.758	23.27
517.957	23.41
518.156	23.39
518.355	23.37
518.554	23.43
518.753	23.51
518.952	23.63
519.151	23.71
519.35	23.74
519.549	23.75
519.748	23.79
519.947	23.82
520.146	23.8
520.345	23.89
520.544	24
520.743	24.1
520.942	24.15
521.141	24.09
521.339	24.13
521.538	24.13
521.737	24.21
521.936	24.36
522.135	24.57
522.333	24.64
522.532	24.66
522.731	24.74
522.93	24.71
523.129	24.81
523.327	24.9
523.526	24.89
523.725	24.9
523.923	24.97
524.122	25.04
524.321	25
524.519	25.1
524.718	25.3
524.917	25.41
525.115	25.5
525.314	25.51
525.512	25.55
525.711	25.73
525.909	25.77
526.108	25.86
526.306	25.85
526.505	25.9
526.703	25.94
526.902	25.99
527.1	26.06
527.299	26.11
527.497	26.21
527.696	26.3
527.894	26.3
528.092	26.39
528.291	26.41
528.489	26.49
528.688	26.5
528.886	26.55
529.084	26.54
529.283	26.53
529.481	26.55
529.679	26.58
529.877	26.62
530.076	26.7
530.274	26.78
530.472	26.84
530.67	26.9
530.869	27.1
531.067	27.11
531.265	27.27
531.463	27.38
531.661	27.44
531.859	27.49
532.057	27.56
532.255	27.57
532.454	27.61
532.652	27.65
532.85	27.7
533.048	27.69
533.246	27.74
533.444	27.77
533.642	27.81
533.84	27.9
534.038	27.95
534.236	28.04
534.434	28.12
534.632	28.17
534.83	28.21
535.027	28.26
535.225	28.25
535.423	28.39
535.621	28.39
535.819	28.42
536.017	28.5
536.215	28.5
536.412	28.5
536.61	28.53
536.808	28.61
537.006	28.59
537.203	28.64
537.401	28.69
537.599	28.66
537.797	28.67
537.994	28.74
538.192	28.76
538.39	28.88
538.587	28.93
538.785	29.01
538.983	29.03
539.18	29.18
539.378	29.2
539.575	29.33
539.773	29.39
539.97	29.43
540.168	29.5
540.366	29.55
540.563	29.53
540.761	29.59
540.958	29.54
541.155	29.58
541.353	29.6
541.55	29.64
541.748	29.66
541.945	29.72
542.143	29.79
542.34	29.8
542.537	29.79
542.735	29.89
542.932	29.9
543.129	29.98
543.327	29.97
543.524	29.96
543.721	29.99
543.919	30
544.116	30.02
544.313	30.08
544.51	30.08
544.708	30.18
544.905	30.16
545.102	30.11
545.299	30.15
545.496	30.19
545.693	30.23
545.891	30.26
546.088	30.28
546.285	30.32
546.482	30.3
546.679	30.27
546.876	30.24
547.073	30.2
547.27	30.23
547.467	30.32
547.664	30.33
547.861	30.41
548.058	30.41
548.255	30.29
548.452	30.16
548.649	30.2
548.846	30.22
549.043	30.21
549.24	30.25
549.437	30.2
549.633	30.17
549.83	30.12
550.027	30.18
550.224	30.15
550.421	30.26
550.618	30.39
550.814	30.31
551.011	30.43
551.208	30.51
551.405	30.56
551.601	30.62
551.798	30.55
551.995	30.56
552.191	30.54
552.388	30.52
552.585	30.58
552.781	30.61
552.978	30.54
553.175	30.51
553.371	30.44
553.568	30.41
553.764	30.39
553.961	30.42
554.157	30.37
554.354	30.46
554.55	30.44
554.747	30.52
554.943	30.55
555.14	30.69
555.336	30.6
555.533	30.61
555.729	30.73
555.926	30.75
556.122	30.78
556.318	30.88
556.515	30.77
556.711	30.87
556.907	30.73
557.104	30.74
557.3	30.66
557.496	30.61
557.693	30.73
557.889	30.54
558.085	30.56
558.281	30.48
558.478	30.52
558.674	30.5
558.87	30.38
559.066	30.53
559.262	30.61
559.459	30.77
559.655	30.84
559.851	30.86
560.047	31.06
560.243	31.15
560.439	31.23
560.635	31.15
560.831	31.18
561.027	31.27
561.223	31.2
561.419	30.95
561.615	30.98
561.811	31.03
562.007	30.99
562.203	30.92
562.399	30.92
562.595	30.88
562.791	30.81
562.987	30.83
563.183	30.76
563.379	30.78
563.575	31
563.771	30.88
563.966	30.92
564.162	30.92
564.358	30.92
564.554	30.81
564.75	30.94
564.945	31.07
565.141	31.03
565.337	31.15
565.533	31.1
565.728	31.14
565.924	31.08
566.12	31.22
566.315	31.29
566.511	31.26
566.707	31.32
566.902	31.36
567.098	31.4
567.293	31.44
567.489	31.54
567.684	31.66
567.88	31.55
568.076	31.59
568.271	31.46
568.467	31.36
568.662	31.52
568.858	31.65
569.053	31.5
569.248	31.46
569.444	31.49
569.639	31.36
569.835	31.28
570.03	31.43
570.225	31.47
570.421	31.55
570.616	31.62
570.812	31.57
571.007	31.54
571.202	31.63
571.397	31.7
571.593	31.69
571.788	31.65
571.983	31.69
572.178	31.59
572.374	31.64
572.569	31.6
572.764	31.48
572.959	31.52
573.154	31.43
573.35	31.39
573.545	31.34
573.74	31.26
573.935	31.26
574.13	31.28
574.325	31.26
574.52	31.12
574.715	31.16
574.91	31.37
575.105	31.35
575.3	31.33
575.495	31.43
575.69	31.43
575.885	31.43
576.08	31.51
576.275	31.45
576.47	31.35
576.665	31.35
576.86	31.35
577.055	31.31
577.25	31.16
577.444	31.36
577.639	31.37
577.834	31.58
578.029	31.7
578.224	31.69
578.418	31.63
578.613	31.76
578.808	31.87
579.003	31.88
579.197	31.84
579.392	31.97
579.587	31.94
579.781	31.69
579.976	31.58
580.171	31.54
580.365	31.49
580.56	31.55
580.755	31.58
580.949	31.64
581.144	31.52
581.338	31.52
581.533	31.54
581.727	31.43
581.922	31.59
582.116	31.57
582.311	31.49
582.505	31.72
582.7	31.77
582.894	31.87
583.089	31.8
583.283	31.87
583.478	31.81
583.672	31.87
583.866	31.82
584.061	31.77
584.255	31.66
584.449	31.81
584.644	31.5
584.838	31.46
585.032	31.31
585.226	31.31
585.421	31.38
585.615	31.36
585.809	31.07
586.003	31.04
586.198	31.01
586.392	31.06
586.586	31.07
586.78	31.23
586.974	31.2
587.168	31.33
587.363	31.4
587.557	31.35
587.751	31.59
587.945	31.89
588.139	32.11
588.333	32.23
588.527	32.33
588.721	32.26
588.915	32.33
589.109	32.39
589.303	32.33
589.497	32.33
589.691	32.39
589.885	32.23
590.079	32.32
590.273	32.22
590.466	32.07
590.66	32.15
590.854	32.27
591.048	32.32
591.242	32.32
591.436	32.32
591.629	32.4
591.823	32.28
592.017	32.33
592.211	32.16
592.404	32.08
592.598	32.25
592.792	32.05
592.986	31.97
593.179	31.82
593.373	31.76
593.567	31.86
593.76	31.77
593.954	31.67
594.147	31.69
594.341	31.78
594.535	31.83
594.728	31.86
594.922	31.86
595.115	31.95
595.309	32.04
595.502	32.13
595.696	32.08
595.889	32.17
596.083	32.26
596.276	32.09
596.47	32.1
596.663	32.2
596.856	32.18
597.05	32.29
597.243	32.24
597.437	32.17
597.63	32.22
597.823	32.2
598.017	32.11
598.21	32.04
598.403	32.25
598.596	32.17
598.79	32.11
598.983	32.06
599.176	32.07
599.369	31.95
599.563	31.88
599.756	31.81
599.949	31.74
600.142	31.65
600.335	31.83
600.528	31.62
600.722	31.68
600.915	31.75
601.108	31.84
601.301	31.79
601.494	32.05
601.687	32.21
601.88	32.15
602.073	32.22
602.266	32.35
602.459	32.55
602.652	32.59
602.845	32.75
603.038	32.84
603.231	32.89
603.424	32.78
603.617	32.63
603.809	32.57
604.002	32.59
604.195	32.62
604.388	32.47
604.581	32.32
604.774	32.34
604.966	32.13
605.159	31.93
605.352	31.88
605.545	31.97
605.737	32
605.93	31.98
606.123	32.1
606.316	32.18
606.508	32.43
606.701	32.42
606.894	32.56
607.086	32.64
607.279	32.76
607.471	32.67
607.664	32.85
607.857	32.91
608.049	33.01
608.242	32.98
608.434	32.96
608.627	33.14
608.819	33.28
609.012	33.45
609.204	33.61
609.397	33.66
609.589	33.82
609.782	33.87
609.974	33.91
610.166	34.1
610.359	34.12
610.551	34.22
610.743	34.04
610.936	34.08
611.128	33.87
611.32	33.85
611.513	33.92
611.705	34
611.897	34.03
612.09	33.98
612.282	33.86
612.474	33.78
612.666	33.63
612.858	33.66
613.051	33.73
613.243	33.83
613.435	33.67
613.627	33.48
613.819	33.22
614.011	33.08
614.203	33.03
614.395	33.05
614.588	33.3
614.78	33.17
614.972	33.21
615.164	32.87
615.356	32.71
615.548	32.62
615.74	32.64
615.932	32.65
616.124	32.47
616.315	32.59
616.507	32.45
616.699	32.26
616.891	32.29
617.083	32.12
617.275	32.25
617.467	32.28
617.659	32.42
617.85	32.49
618.042	32.47
618.234	32.49
618.426	32.32
618.618	32.52
618.809	32.6
619.001	32.76
619.193	32.74
619.384	32.75
619.576	32.58
619.768	32.56
619.959	32.63
620.151	32.61
620.343	32.52
620.534	32.56
620.726	32.52
620.917	32.28
621.109	32.02
621.301	32.24
621.492	32.22
621.684	32.49
621.875	32.54
622.067	32.44
622.258	32.55
622.45	32.67
622.641	32.79
622.832	32.84
623.024	33.1
623.215	33.15
623.407	33.12
623.598	33.1
623.789	33.15
623.981	33.13
624.172	33.22
624.363	33.4
624.555	33.68
624.746	33.6
624.937	33.32
625.129	33.36
625.32	33.47
625.511	33.61
625.702	33.66
625.893	33.54
626.085	33.53
626.276	33.41
626.467	33.32
626.658	33.11
626.849	33.02
627.04	32.95
627.231	32.84
627.422	32.86
627.614	32.68
627.805	32.56
627.996	32.61
628.187	32.75
628.378	32.54
628.569	32.45
628.76	32.38
628.951	32.52
629.142	32.81
629.332	32.88
629.523	32.97
629.714	32.96
629.905	33.15
630.096	33.15
630.287	33.09
630.478	33.35
630.669	33.47
630.859	33.42
631.05	33.39
631.241	33.08
631.432	32.96
631.623	32.89
631.813	32.88
632.004	32.77
632.195	32.63
632.385	32.6
632.576	32.67
632.767	32.59
632.957	32.8
633.148	32.98
633.339	33.02
633.529	33.17
633.72	33.21
633.91	33.14
634.101	33.24
634.292	33.3
634.482	33.33
634.673	33.15
634.863	33.03
635.054	32.96
635.244	32.69
635.435	33.09
635.625	32.99
635.815	32.87
636.006	32.94
636.196	32.99
636.387	33.1
636.577	32.93
636.767	33.06
636.958	33.1
637.148	33.1
637.338	33.26
637.529	33.06
637.719	33.03
637.909	33.2
638.099	33.25
638.29	33.18
638.48	32.92
638.67	33.18
638.86	33.12
639.05	33.2
639.241	33.29
639.431	33.16
639.621	33.18
639.811	33.45
640.001	33.13
640.191	33.12
640.381	33.11
640.571	33.28
640.761	33.08
640.951	33.33
641.141	33.3
641.331	33.21
641.521	33.53
641.711	33.5
641.901	33.48
642.091	33.7
642.281	33.62
642.471	33.43
642.661	33.4
642.851	33.36
643.041	32.94
643.231	32.79
643.42	32.94
643.61	32.58
643.8	32.47
643.99	32.49
644.18	32.34
644.369	32.34
644.559	32.67
644.749	32.81
644.939	33.04
645.128	33.1
645.318	33.28
645.508	33.27
645.697	33.37
645.887	33.47
646.076	33.38
646.266	33.43
646.456	33.42
646.645	33.34
646.835	33.15
647.024	32.98
647.214	33.08
647.403	33.06
647.593	32.91
647.782	33
647.972	32.86
648.161	32.53
648.351	32.59
648.54	32.77
648.73	32.65
648.919	32.95
649.108	33
649.298	33.04
649.487	33.08
649.677	33.31
649.866	33.37
650.055	33.42
650.244	33.72
650.434	33.87
650.623	33.77
650.812	34.2
651.002	34.02
651.191	33.98
651.38	34.15
651.569	34.33
651.758	34.18
651.947	34.01
652.137	34.22
652.326	34.01
652.515	34.05
652.704	34.05
652.893	33.64
653.082	33.47
653.271	33.46
653.46	33.36
653.649	33.13
653.838	33.08
654.027	33.09
654.216	33.02
654.405	33.21
654.594	32.97
654.783	32.88
654.972	33.05
655.161	33.24
655.35	33.38
655.539	33.32
655.728	33.51
655.916	33.17
656.105	33.21
656.294	33.35
656.483	33.15
656.672	33.5
656.86	33.43
657.049	33.37
657.238	33.13
657.427	33.29
657.615	33.41
657.804	33.39
657.993	33.61
658.181	33.6
658.37	33.31
658.559	33.43
658.747	33.28
658.936	33.62
659.125	33.65
659.313	33.83
659.502	33.67
659.69	33.7
659.879	33.66
660.067	33.77
660.256	33.81
660.444	33.79
660.633	33.93
660.821	33.75
661.01	33.72
661.198	33.63
661.387	33.49
661.575	33.48
661.763	33.25
661.952	33.2
662.14	33.07
662.328	33.1
662.517	33.27
662.705	32.85
662.893	33.16
663.082	32.93
663.27	33.02
663.458	33.12
663.646	32.86
663.834	33.04
664.023	33.03
664.211	33.33
664.399	33.31
664.587	33.27
664.775	33.59
664.963	33.73
665.152	33.92
665.34	33.86
665.528	33.94
665.716	34.08
665.904	34.2
666.092	34.48
666.28	34.47
666.468	34.57
666.656	34.58
666.844	34.66
667.032	34.22
667.22	34.13
667.408	34.37
667.596	34.48
667.784	34.61
667.971	34.62
668.159	34.21
668.347	33.99
668.535	34.2
668.723	34.06
668.911	33.98
669.098	33.69
669.286	33.73
669.474	33.58
669.662	33.53
669.849	33.3
670.037	33.09
670.225	33.21
670.413	33.64
670.6	33.25
670.788	33.25
670.976	33.24
671.163	33.76
671.351	33.65
671.538	33.53
671.726	33.43
671.913	33.64
672.101	33.68
672.289	33.62
672.476	33.47
672.664	33.28
672.851	33.58
673.039	33.73
673.226	33.58
673.413	33.31
673.601	33.31
673.788	33.35
673.976	33.28
674.163	33.25
674.35	33.49
674.538	33.2
674.725	33.51
674.912	33.4
675.1	33.32
675.287	33.28
675.474	33.67
675.662	33.59
675.849	33.57
676.036	33.54
676.223	33.71
676.411	33.71
676.598	33.91
676.785	33.91
676.972	33.81
677.159	33.49
677.346	33.49
677.533	33.41
677.721	33.49
677.908	33.47
678.095	33.52
678.282	33.52
678.469	33.44
678.656	33.18
678.843	33.26
679.03	33.33
679.217	33.69
679.404	33.74
679.591	33.81
679.778	33.76
679.964	33.88
680.151	33.73
680.338	33.7
680.525	33.7
680.712	33.65
680.899	33.47
681.086	33.56
681.272	33.36
681.459	33.26
681.646	33.15
681.833	32.95
682.02	32.69
682.206	32.63
682.393	32.68
682.58	32.69
682.766	33.08
682.953	33.17
683.14	33.14
683.326	32.98
683.513	33.27
683.7	33.32
683.886	33.87
684.073	33.96
684.259	34.11
684.446	33.91
684.632	33.88
684.819	33.58
685.005	33.54
685.192	33.43
685.378	33.63
685.565	33.55
685.751	33.47
685.938	32.89
686.124	33.09
686.31	33.23
686.497	33.09
686.683	33.37
686.87	33.66
687.056	33.47
687.242	33.63
687.429	33.55
687.615	33.4
687.801	33.3
687.987	33.25
688.174	33.29
688.36	33.07
688.546	33.33
688.732	32.91
688.918	32.86
689.105	33.13
689.291	33.38
689.477	33.33
689.663	33.45
689.849	33.34
690.035	33.52
690.221	33.59
690.407	33.71
690.593	33.64
690.779	33.84
690.965	33.77
691.151	34.01
691.337	33.6
691.523	33.79
691.709	33.76
691.895	33.88
692.081	33.91
692.267	33.68
692.453	33.78
692.639	33.92
692.825	33.87
693.011	33.54
693.196	33.16
693.382	33.26
693.568	33.3
693.754	33.23
693.94	33.61
694.125	33.45
694.311	33.42
694.497	33.35
694.682	33.21
694.868	33.53
695.054	33.61
695.239	33.71
695.425	33.63
695.611	33.42
695.796	33.58
695.982	33.32
696.168	33.88
696.353	34.07
696.539	34.22
696.724	34.16
696.91	33.65
697.095	33.76
697.281	33.85
697.466	33.86
697.652	34.14
697.837	33.79
698.023	33.81
698.208	33.7
698.393	33.79
698.579	33.66
698.764	33.76
698.949	33.88
699.135	33.98
699.32	33.95
699.505	34.05
699.691	33.95
699.876	34.27
700.061	34.17
700.246	34.15
700.432	33.74
700.617	33.98
700.802	34.11
700.987	34.32
701.172	34.3
701.358	34.23
701.543	33.85
701.728	34.15
701.913	34.18
702.098	34.2
702.283	34.42
702.468	34.9
702.653	34.55
702.838	34.31
703.023	33.92
703.208	33.93
703.393	33.94
703.578	34.44
703.763	34
703.948	33.81
704.133	33.8
704.318	33.57
704.503	33.11
704.688	33.5
704.873	33.43
705.057	33.43
705.242	33.03
705.427	32.97
705.612	32.9
705.797	33.27
705.981	32.93
706.166	32.69
706.351	32.42
706.536	32.55
706.72	32.25
706.905	32.11
707.09	32.24
707.274	32.52
707.459	32.49
707.644	32.33
707.828	31.9
708.013	32.18
708.197	32.48
708.382	32.74
708.567	32.83
708.751	33.09
708.936	33.41
709.12	33.63
709.305	33.39
709.489	33.47
709.673	33.54
709.858	33.8
710.042	33.92
710.227	34.1
710.411	33.71
710.596	33.58
710.78	33.41
710.964	33.27
711.149	33.16
711.333	33.44
711.517	33.16
711.702	33.18
711.886	32.76
712.07	32.72
712.254	32.76
712.438	32.88
712.623	32.98
712.807	32.99
712.991	33.25
713.175	32.87
713.359	33.15
713.544	33.32
713.728	33.4
713.912	33.54
714.096	34.06
714.28	33.89
714.464	33.7
714.648	33.51
714.832	33.86
715.016	33.56
715.2	34.07
715.384	33.6
715.568	33.66
715.752	33.75
715.936	34.29
716.12	33.57
716.304	33.91
716.488	34.49
716.671	34.8
716.855	34.28
717.039	34.19
717.223	33.88
717.407	33.78
717.59	33.58
717.774	33.09
717.958	32.37
718.142	32.48
718.325	31.77
718.509	31.45
718.693	31.16
718.877	31.46
719.06	31.69
719.244	31.94
719.428	32.38
719.611	33.06
719.795	32.92
719.978	33.14
720.162	33.83
720.345	34.66
720.529	34.56
720.713	34.36
720.896	34.18
721.08	34.22
721.263	34.41
721.446	33.99
721.63	33.13
721.813	33.66
721.997	33.4
722.18	32.5
722.364	32.2
722.547	32.61
722.73	32.77
722.914	32.42
723.097	31.8
723.28	31.13
723.464	31.46
723.647	31.87
723.83	31.29
724.013	31.52
724.197	31.4
724.38	31.17
724.563	30.75
724.746	30.93
724.929	31.49
725.112	31.87
725.296	32.06
725.479	31.76
725.662	31.9
725.845	32.03
726.028	31.98
726.211	32.48
726.394	32.73
726.577	32.75
726.76	32.51
726.943	32.31
727.126	32.07
727.309	32.25
727.492	32.48
727.675	32.44
727.858	32.82
728.041	32.62
728.224	31.89
728.407	31.61
728.589	31.83
728.772	32.12
728.955	31.81
729.138	32.09
729.321	31.75
729.503	31.28
729.686	30.91
729.869	30.74
730.052	31.02
730.234	31.68
730.417	31.98
730.6	32.32
730.782	32.36
730.965	33.3
731.148	33.55
731.33	33.79
731.513	34.29
731.695	33.93
731.878	34.15
732.061	34.03
732.243	33.94
732.426	33.52
732.608	33.28
732.791	33.21
732.973	32.61
733.156	32.65
733.338	32.87
733.52	32.84
733.703	33.53
733.885	33.29
734.068	33.18
734.25	33.33
734.432	33.96
734.615	33.36
734.797	33.22
734.979	33.36
735.162	33.24
735.344	32.98
735.526	32.89
735.708	32.51
735.891	32.39
736.073	32.45
736.255	32.43
736.437	31.48
736.619	32.14
736.802	32.63
736.984	32.69
737.166	32.82
737.348	32.89
737.53	33.53
737.712	34.11
737.894	34.06
738.076	34.17
738.258	34.03
738.44	34.61
738.622	34.23
738.804	33.66
738.986	33.16
739.168	33.27
739.35	33.24
739.532	32.72
739.714	32.48
739.896	32.51
740.078	32.39
740.259	32.8
740.441	32.78
740.623	33.31
740.805	33.62
740.987	33.96
741.168	33.55
741.35	33.59
741.532	33.58
741.714	33.68
741.895	33.15
742.077	33.46
742.259	33.15
742.44	33.2
742.622	32.51
742.804	32.2
742.985	31.54
743.167	31.57
743.348	31.18
743.53	30.89
743.711	31.01
743.893	32.16
744.075	32.03
744.256	32.27
744.438	32.42
744.619	33.46
744.8	33.02
744.982	33.48
745.163	33.25
745.345	33.42
745.526	33.51
745.707	33.39
745.889	32.35
746.07	31.73
746.252	31.48
746.433	31.61
746.614	31.73
746.795	32.82
746.977	32.87
747.158	32.6
747.339	32.67
747.52	32.86
747.702	32.2
747.883	33.09
748.064	33.94
748.245	33.44
748.426	33.15
748.607	32.63
748.788	31.94
748.97	32.26
749.151	32.11
749.332	31.57
749.513	31.59
749.694	32.11
749.875	32.47
750.056	32.21
750.237	32.68
750.418	32.38
750.599	31.42
750.78	31.99
750.96	31.43
751.141	31.42
751.322	31.38
751.503	31.1
751.684	30.63
751.865	30.1
752.046	29.92
752.226	29.67
752.407	29.51
752.588	30.18
752.769	29.55
752.949	29.85
753.13	30.03
753.311	30.17
753.492	29.87
753.672	30.47
753.853	31.04
754.034	30.27
754.214	30.25
754.395	30.61
754.575	30.57
754.756	31.39
754.937	30.57
755.117	30.67
755.298	30.49
755.478	30.91
755.659	30.72
755.839	30.09
756.02	30.41
756.2	30.65
756.381	30.99
756.561	30.95
756.741	30.93
756.922	31.44
757.102	31.34
757.283	32.77
757.463	32.1
757.643	31.94
757.823	30.98
758.004	31
758.184	30.73
758.364	30.43
758.545	30.67
758.725	29.8
758.905	30.66
759.085	30.94
759.265	29.6
759.446	30.01
759.626	30.65
759.806	31.12
759.986	31.02
760.166	31.06
760.346	30.52
760.526	29.53
760.706	29.06
760.886	28.19
761.066	28.56
761.246	29.61
761.426	29.62
761.606	29.05
761.786	29.79
761.966	30.34
762.146	30.34
762.326	30.43
762.506	30.64
762.686	31.67
762.866	31.62
763.046	31.05
763.225	30.79
763.405	30.9
763.585	30.81
763.765	30.6
763.945	30.45
764.124	30.73
764.304	30.99
764.484	31.2
764.664	30.83
764.843	30.86
765.023	31.56
765.203	31.44
765.382	31.22
765.562	31.33
765.741	31.49
765.921	32.03
766.101	31.65
766.28	31.16
766.46	31.53
766.639	31.65
766.819	32.4
766.998	31.2
767.178	31.53
767.357	31.76
767.537	31.88
767.716	31.68
767.896	31.34
768.075	31.18
768.254	31.17
768.434	31.12
768.613	30.76
768.792	29.93
768.972	30.92
769.151	30.45
769.33	30.41
769.51	29.88
769.689	29.75
769.868	29.98
770.047	31.23
770.226	32.21
770.406	32.01
770.585	32.16
770.764	32.32
770.943	31.73
771.122	31.8
771.301	31.31
771.48	31.19
771.66	30.92
771.839	31.26
772.018	29.9
772.197	29.25
772.376	29.44
772.555	28.82
772.734	29.55
772.913	29.27
773.092	29.7
773.271	29.82
773.449	30.69
773.628	30.35
773.807	29.64
773.986	29.87
774.165	29.69
774.344	30.13
774.523	31.21
774.701	30.67
774.88	31.77
775.059	31.59
775.238	32.36
775.417	31.24
775.595	31.47
775.774	30.45
775.953	29.6
776.131	30.53
776.31	29.28
776.489	28.42
776.667	28.88
776.846	28.55
777.025	27.39
777.203	27.72
777.382	28.66
777.56	27.8
777.739	29.43
777.917	31.28
778.096	30.39
778.274	30.97
778.453	30.95
778.631	30.03
778.81	29.76
778.988	31.11
779.166	30.27
779.345	30.77
779.523	32.32
779.702	31.62
779.88	31.36
780.058	31.17
780.237	30.98
780.415	31.35
780.593	31.55
780.771	31.58
780.95	31.49
781.128	31.95
781.306	31.02
781.484	30.86
781.662	31.75
781.841	30.83
782.019	31.44
782.197	32.15
782.375	32.1
782.553	31.43
782.731	32.09
782.909	31.82
783.087	31.96
783.265	32.04
783.443	30.62
783.621	29.07
783.799	29.44
783.977	29.08
784.155	27.62
784.333	26.95
784.511	26.78
784.689	25.96
784.867	26.36
785.045	26.25
785.223	26.11
785.4	28.19
785.578	28.28
785.756	29.29
785.934	29.93
786.112	31.23
786.289	32.39
786.467	34.21
786.645	34.63
786.823	33.87
787	33.39
787.178	34.28
787.356	33.04
787.533	32.85
787.711	30.45
787.889	29.75
788.066	27.98
788.244	27.45
788.421	26.85
788.599	26.03
788.776	26.09
788.954	26.04
789.131	25.18
789.309	25.55
789.486	25.6
789.664	25.94
789.841	25.78
790.019	26.05
790.196	25.63
790.373	25.39
790.551	25.4
790.728	26.48
790.906	27.04
791.083	26.76
791.26	25.84
791.437	25.53
791.615	25.93
791.792	26.33
791.969	27.51
792.146	28.89
792.324	29.12
792.501	28.59
792.678	27.44
792.855	27.11
793.032	28.03
793.209	29.13
793.387	29.13
793.564	29.69
793.741	30.42
793.918	29.27
794.095	29.22
794.272	28.35
794.449	29.16
794.626	28.87
794.803	28.48
794.98	29.15
795.157	29.1
795.334	29.88
795.511	30.48
795.688	29.43
795.864	30.84
796.041	30.81
796.218	31.19
796.395	31.62
796.572	31.57
796.749	32.19
796.925	30.11
797.102	29.99
797.279	30.42
797.456	30.36
797.632	30.31
797.809	28.05
797.986	27.27
798.162	28.06
798.339	28.58
798.516	28.71
798.692	27.81
798.869	28.19
799.046	28.06
799.222	27.76
799.399	27.12
799.575	26.62
799.752	29.57
799.928	29.71
800.105	28.83
800.281	28.13
800.458	28.31
800.634	28.26
800.811	28.47
800.987	27.35
801.163	26.22
801.34	27.29
801.516	27.72
801.692	26.54
801.869	26.78
802.045	26.45
802.221	26.27
802.398	25.69
802.574	25.07
802.75	26.08
802.926	28.13
803.103	28.79
803.279	28.59
803.455	28.84
803.631	28.78
803.807	27.4
803.983	28.34
804.16	26.42
804.336	26.47
804.512	27.23
804.688	26.57
804.864	25.12
805.04	24.35
805.216	22.63
805.392	21.46
805.568	21.11
805.744	23.41
805.92	23.66
806.096	25.71
806.272	25.95
806.448	26.44
806.623	26.24
806.799	25.68
806.975	26.17
807.151	26.48
807.327	28.14
807.503	28.52
807.678	26.42
807.854	25.85
808.03	26.16
808.206	26.83
808.381	26.53
808.557	27.34
808.733	28.96
808.908	28.5
809.084	29.99
809.26	29.12
809.435	28.63
809.611	29.19
809.787	29.01
809.962	29.32
810.138	30.27
810.313	29.77
810.489	27.94
810.664	28.62
810.84	29.65
811.015	27.74
811.191	26.81
811.366	26.62
811.542	28.24
811.717	28.9
811.892	27.43
812.068	28.08
812.243	27.55
812.419	27.28
812.594	25.98
812.769	24.99
812.944	25.54
813.12	25.37
813.295	25.21
813.47	23.89
813.645	22.33
813.821	22.58
813.996	20.67
814.171	22.56
814.346	24.77
814.521	25.92
814.697	26.38
814.872	25.82
815.047	27.32
815.222	26.65
815.397	26.85
815.572	25.67
815.747	24.91
815.922	25.2
816.097	25.05
816.272	24.66
816.447	24.73
816.622	25.04
816.797	24.2
816.972	23.91
817.147	25.3
817.322	24.78
817.496	25.07
817.671	27.5
817.846	27.62
818.021	25.81
818.196	24.38
818.371	23.17
818.545	24.13
818.72	24.82
818.895	25.69
819.069	26.29
819.244	27.03
819.419	27.61
819.594	26.43
819.768	26.36
819.943	27.51
820.117	26.58
820.292	27.78
820.467	27.79
820.641	27.17
820.816	27.57
820.99	27.76
821.165	27.34
821.339	27.5
821.514	27.73
821.688	27.7
821.863	27.33
822.037	27.85
822.212	27.45
822.386	27.12
822.56	27.5
822.735	27.57
822.909	27.45
823.084	27.58
823.258	27.66
823.432	27.45
823.606	27.29
823.781	27.32
823.955	27.14
824.129	27.33
824.303	27.4
824.478	27.19
824.652	26.75
824.826	26.65
825	26.11
825.174	26.53
825.348	26.71
825.523	26.6
825.697	26.74
825.871	27.35
826.045	27.32
826.219	27.2
826.393	27.69
826.567	27.81
826.741	27.65
826.915	27.71
827.089	26.6
827.263	26.64
827.437	27.23
827.611	27.58
827.784	26.96
827.958	26.4
828.132	26.93
828.306	26.82
828.48	26.91
828.654	26.78
828.827	26.45
829.001	26.39
829.175	25.52
829.349	25.17
829.522	23.96
829.696	24.07
829.87	24.23
830.044	22.64
830.217	21.82
830.391	19.44
830.565	18.71
830.738	20.23
830.912	21.2
831.085	23.61
831.259	23.11
831.432	22.9
831.606	23.13
831.779	23.24
831.953	24.85
832.126	25.11
832.3	26.96
832.473	26.3
832.647	25.36
832.82	26.22
832.994	25.23
833.167	24.87
833.34	26.21
833.514	26.09
833.687	25.79
833.86	26.03
834.034	26.39
834.207	26.25
834.38	26.91
834.553	27.33
834.727	27.26
834.9	27.58
835.073	27.88
835.246	27.13
835.419	27.32
835.593	27.78
835.766	26.99
835.939	25.78
836.112	25.47
836.285	26
836.458	25.62
836.631	26.35
836.804	26.26
836.977	25.95
837.15	26.15
837.323	25.04
837.496	25.76
837.669	25.05
837.842	26.9
838.015	27.52
838.188	26.95
838.361	27.15
838.533	24.75
838.706	24.02
838.879	24.08
839.052	26.15
839.225	29.26
839.398	28.24
839.57	30.67
839.743	29.61
839.916	29.03
840.088	28.96
840.261	28.89
840.434	28.04
840.607	27.9
840.779	28.11
840.952	26.28
841.124	26.16
841.297	26.31
841.47	22.68
841.642	23.52
841.815	24.45
841.987	24.35
842.16	25.19
842.332	24.03
842.505	23.48
842.677	22.93
842.85	24.07
843.022	24.21
843.194	23.61
843.367	28
843.539	25.41
843.712	26.64
843.884	26.18
844.056	23.23
844.229	23.82
844.401	27.72
844.573	27.26
844.745	28.38
844.918	26.15
845.09	27.25
845.262	28.41
845.434	32.16
845.606	28.65
845.779	27.19
845.951	30.14
846.123	31.32
846.295	29.9
846.467	30.7
846.639	29.89
846.811	29.54
846.983	30.23
847.155	27.58
847.327	24.31
847.499	27.24
847.671	26.98
847.843	25.08
848.015	26.94
848.187	26.93
848.359	23.6
848.531	22.67
848.703	22.04
848.875	18.5
849.047	19.33
849.218	23.79
849.39	21.66
849.562	25.33
849.734	22.29
849.905	17.05
850.077	12.21
850.249	19.03
850.421	15.42
850.592	15.49
850.764	17.41
850.936	12.91
851.107	10.42
851.279	12.17
851.451	7.09
851.622	14.49
851.794	18.83
851.965	21.51
852.137	20.66
852.308	24.57
852.48	24.69
852.651	26.16
852.823	26.7
852.994	26.18
853.166	26.95
853.337	28.92
853.509	27.75
853.68	22.9
853.851	18.82
854.023	16.19
854.194	17.82
854.365	18.92
854.537	19.02
854.708	22.76
854.879	28.42
855.05	24.2
855.222	20.07
855.393	21.75
855.564	24.15
855.735	27.37
855.906	29.99
856.078	24.23
856.249	21.84
856.42	17.07
856.591	14.09
856.762	7.55
856.933	8.28
857.104	13.78
857.275	13.83
857.446	16.55
857.617	17.76
857.788	16.39
857.959	20.52
858.13	23.43
858.301	28.41
858.472	27.82
858.643	29.46
858.814	31.34
858.985	30.63
859.155	28.63
859.326	27.53
859.497	29.97
859.668	27.3
859.839	25.78
860.009	22.96
860.18	18.7
860.351	26.49
860.522	21.32
860.692	22.42
860.863	23.35
861.034	19.96
861.204	17.33
861.375	14.7
861.546	19.42
861.716	20.22
861.887	28.8
862.057	29.81
862.228	26.23
862.398	28.97
862.569	25.79
862.739	24.48
862.91	28.71
863.08	30.8
863.251	28.22
863.421	26.46
863.592	29.08
863.762	24.08
863.932	27.16
864.103	27.9
864.273	30.37
864.443	32.37
864.614	30.48
864.784	29.31
864.954	28.7
865.125	26.61
865.295	22.89
865.465	19.06
865.635	18.67
865.805	15.82
865.976	16.32
866.146	13.58
866.316	10.69
866.486	16.87
866.656	18.96
866.826	14.77
866.996	19.92
867.166	23.45
867.336	19.49
867.506	17.91
867.676	19.84
867.846	12.22
868.016	16.61
868.186	16.02
868.356	14
868.526	11.48
868.696	13.1
868.866	15.94
869.036	16.77
869.206	23.88
869.376	25.03
869.545	23.93
869.715	24.46
869.885	22.86
870.055	23.57
870.224	23.53
870.394	21.32
870.564	28.2
870.734	23.66
870.903	23.33
871.073	20.03
871.243	18.37
871.412	18.91
871.582	24.03
871.751	24.29
871.921	26.41
872.091	25.08
872.26	27.82
872.43	23.75
872.599	27.61
872.769	27.25
872.938	25.82
873.108	28.3
873.277	26.83
873.446	23.67
873.616	24.62
873.785	27.59
873.955	28.88
874.124	26.36
874.293	32.25
874.463	28.82
874.632	25.39
874.801	31.37
874.971	27.81
875.14	26.92
875.309	25.25
875.478	20.75
875.647	16.85
875.817	13.03
875.986	15.15
876.155	12.71
876.324	12.19
876.493	11.38
876.662	10.63
876.831	10.55
877	10.91
877.17	10.65
877.339	13.9
877.508	11.28
877.677	15.99
877.846	17.78
878.015	15.74
878.184	19.35
878.352	21.83
878.521	20.73
878.69	19.66
878.859	18.91
879.028	21.49
879.197	19.49
879.366	19.87
879.534	19.86
879.703	18.11
879.872	19.41
880.041	18.96
880.21	19.05
880.378	20.53
880.547	23.28
880.716	24.67
880.884	24.22
881.053	24.49
881.222	25.28
881.39	24.9
881.559	25.93
881.727	26.11
881.896	25.58
882.065	25.65
882.233	25.46
882.402	24.47
882.57	23.34
882.739	23.17
882.907	23.34
883.076	22.86
883.244	22.38
883.412	22.3
883.581	22.43
883.749	21.53
883.918	20.96
884.086	20.13
884.254	20.88
884.423	21.7
884.591	21.53
884.759	21.2
884.927	22.6
885.096	22.4
885.264	20.67
885.432	20.39
885.6	22.34
885.769	23.21
885.937	24.06
886.105	22.21
886.273	22.33
886.441	24.22
886.609	22.3
886.777	17.48
886.945	18.08
887.113	17.39
887.281	13
887.449	9.33
887.617	9.7
887.785	11.73
887.953	13.24
888.121	12.9
888.289	10.38
888.457	18.25
888.625	22.17
888.793	25.83
888.961	26.67
889.129	29.29
889.296	33.1
889.464	33.32
889.632	31.71
889.8	33.07
889.967	34.22
890.135	34.68
