Data from 2938830__Reflection_03.txt Node
Date: Thu Mar 12 12:36:27 EDT 2015
User: robert
Spectrometer: USB4E03002
Autoset integration time: false
Trigger mode: 4
Integration Time (sec): 1.000000E-1
Scans to average: 10
Electric dark correction enabled: false
Nonlinearity correction enabled: false
Boxcar width: 5
Stray light correction enabled: false
XAxis mode: Wavelengths
Stop averaging: false
Number of Pixels in Spectrum: 3648
>>>>>Begin Spectral Data<<<<<
177.575	92.15
177.794	118.53
178.014	120.79
178.233	119.75
178.452	121.47
178.672	112.21
178.891	144.38
179.11	189.88
179.33	322.58
179.549	281.64
179.768	300.55
179.987	209.06
180.207	138.08
180.426	162.26
180.645	347.66
180.864	-1295.24
181.084	746.27
181.303	220.27
181.522	240.13
181.741	185.03
181.96	197.76
182.179	231.16
182.398	257.76
182.618	251.26
182.837	356.25
183.056	132.38
183.275	134.4
183.494	144.62
183.713	163.6
183.932	140.38
184.151	150
184.37	170.09
184.589	148.74
184.808	164.31
185.027	222.56
185.246	217.02
185.465	190.7
185.684	186.31
185.903	158.97
186.122	140.82
186.341	143.34
186.56	170.91
186.779	165.99
186.998	177.29
187.216	175.16
187.435	138.4
187.654	111.79
187.873	189.59
188.092	120.53
188.311	115.42
188.53	155.66
188.748	141.69
188.967	134.37
189.186	62.32
189.405	55.38
189.623	69.48
189.842	49.23
190.061	65.72
190.28	51.39
190.498	70.19
190.717	81.91
190.936	62.94
191.154	50.56
191.373	42.65
191.592	87.44
191.81	134.66
192.029	170.04
192.248	378.68
192.466	255.9
192.685	330.14
192.904	328.22
193.122	207.78
193.341	181.36
193.559	183.66
193.778	131.24
193.996	91.09
194.215	59.45
194.433	69.47
194.652	77.98
194.87	73.74
195.089	63.01
195.307	52.85
195.526	50.42
195.744	57.7
195.963	99.85
196.181	182.79
196.399	300
196.618	477.54
196.836	-836.36
197.055	600
197.273	303.67
197.491	506.17
197.71	291.39
197.928	262.38
198.146	180.61
198.365	97.44
198.583	67.03
198.801	64.82
199.019	58.81
199.238	45.44
199.456	43.38
199.674	60.59
199.892	62.33
200.111	60.56
200.329	70.07
200.547	77.37
200.765	112.89
200.983	101.93
201.202	136.03
201.42	125.08
201.638	122.75
201.856	89.43
202.074	114.89
202.292	140.04
202.51	448.94
202.728	144.04
202.946	137.09
203.165	59.62
203.383	97.6
203.601	86.36
203.819	53.11
204.037	69.42
204.255	98.58
204.473	66.98
204.691	42.97
204.909	59.66
205.127	58.86
205.345	61.99
205.562	78.16
205.78	89.27
205.998	66.67
206.216	89.66
206.434	66.62
206.652	73.97
206.87	67.82
207.088	86.6
207.306	66.56
207.523	86.24
207.741	81.08
207.959	94.47
208.177	78.04
208.395	92.66
208.612	86.98
208.83	121.06
209.048	109.02
209.266	120.5
209.483	116.33
209.701	118.46
209.919	125.74
210.136	120.98
210.354	113.72
210.572	84.04
210.79	72.73
211.007	63.01
211.225	44.83
211.442	66.82
211.66	56.2
211.878	41.28
212.095	61.1
212.313	46.58
212.53	49.83
212.748	50.08
212.966	57.12
213.183	64.05
213.401	55.48
213.618	61.23
213.836	45.47
214.053	39.03
214.271	48.97
214.488	35.61
214.705	45.53
214.923	35.36
215.14	38.78
215.358	36.45
215.575	43.44
215.793	56.1
216.01	66.49
216.227	68.42
216.445	68.9
216.662	74.5
216.879	77.4
217.097	78.17
217.314	73.6
217.531	72.6
217.749	67.57
217.966	52.66
218.183	60
218.4	54.25
218.618	41.07
218.835	53.35
219.052	45.44
219.269	49.22
219.487	44.64
219.704	50.27
219.921	43.24
220.138	46.87
220.355	51.95
220.572	51.58
220.79	46.5
221.007	47.01
221.224	42.27
221.441	45.98
221.658	42.01
221.875	43.09
222.092	41.94
222.309	41.66
222.526	31.24
222.743	25.21
222.96	26.05
223.177	24.95
223.394	29.79
223.611	29.85
223.828	27.63
224.045	21.09
224.262	19.52
224.479	18.13
224.696	15.38
224.913	23.01
225.13	27.47
225.347	23.45
225.564	22.39
225.781	21.46
225.997	19.53
226.214	18.81
226.431	22.9
226.648	22.69
226.865	22.72
227.082	19.85
227.298	16.89
227.515	16
227.732	14.88
227.949	12.75
228.165	10.69
228.382	10.05
228.599	9.7
228.816	7.31
229.032	6.43
229.249	5.64
229.466	5.92
229.682	6.64
229.899	6.42
230.116	6.73
230.332	7.03
230.549	7.56
230.765	7.81
230.982	8.79
231.199	10.43
231.415	10.59
231.632	12.82
231.848	14.49
232.065	12.43
232.281	12.01
232.498	12.57
232.714	13.34
232.931	12.58
233.147	11.23
233.364	10.03
233.58	9.5
233.797	8.33
234.013	5.96
234.23	5.75
234.446	9.43
234.662	9.1
234.879	7.37
235.095	7.32
235.312	8.84
235.528	9.16
235.744	10.01
235.961	10.65
236.177	12.2
236.393	12.72
236.61	12.9
236.826	10.67
237.042	9.96
237.258	10.62
237.475	11.98
237.691	10.1
237.907	10.78
238.123	10.18
238.339	10.96
238.556	9.96
238.772	10.13
238.988	10.15
239.204	11.28
239.42	11.26
239.636	10.65
239.853	9.11
240.069	9.14
240.285	7.85
240.501	7.11
240.717	6.88
240.933	7.49
241.149	7.53
241.365	6.79
241.581	6.78
241.797	7.08
242.013	7.19
242.229	7.22
242.445	7.42
242.661	8.23
242.877	8.13
243.093	7.19
243.309	6.88
243.525	7.24
243.741	6.8
243.957	6.07
244.173	6.31
244.388	6.25
244.604	6.04
244.82	6.25
245.036	5.39
245.252	6.17
245.468	6.64
245.683	6.59
245.899	5.61
246.115	6.01
246.331	5.95
246.547	6.02
246.762	5.9
246.978	6.01
247.194	5.77
247.409	5.64
247.625	5.48
247.841	5.67
248.057	5.69
248.272	5.66
248.488	5.62
248.703	5.69
248.919	5.97
249.135	5.95
249.35	5.81
249.566	5.69
249.782	5.79
249.997	5.72
250.213	5.08
250.428	5.16
250.644	5.62
250.859	6.3
251.075	6.34
251.29	5.92
251.506	6.15
251.721	5.97
251.937	6.37
252.152	6.3
252.368	6.27
252.583	6.79
252.798	6.47
253.014	6.03
253.229	5.51
253.445	5.66
253.66	5.34
253.875	4.87
254.091	5.31
254.306	5.34
254.521	5.89
254.737	5.81
254.952	5.51
255.167	6.06
255.383	7.94
255.598	7.55
255.813	7.56
256.028	6.35
256.244	7.59
256.459	6.68
256.674	6.05
256.889	6.57
257.104	6.91
257.32	7.55
257.535	7.28
257.75	6.35
257.965	5.76
258.18	5.84
258.395	5.98
258.61	5.54
258.826	5.73
259.041	5.59
259.256	5.13
259.471	5.01
259.686	4.64
259.901	4.79
260.116	4.77
260.331	4.87
260.546	4.66
260.761	4.75
260.976	4.66
261.191	4.33
261.406	4.61
261.621	5.07
261.836	5.22
262.05	5.17
262.265	5.19
262.48	5.2
262.695	5.58
262.91	5.76
263.125	5.67
263.34	5.94
263.555	6.05
263.769	5.62
263.984	4.85
264.199	4.81
264.414	5.56
264.629	5.08
264.843	4.95
265.058	4.66
265.273	5.11
265.488	5.72
265.702	5.18
265.917	5.34
266.132	5.95
266.346	6.16
266.561	5.89
266.776	5.04
266.99	5.06
267.205	4.97
267.42	4.84
267.634	4.56
267.849	3.98
268.063	4.01
268.278	4.07
268.492	3.79
268.707	3.54
268.922	3.47
269.136	4.13
269.351	4.45
269.565	4.65
269.78	4.45
269.994	4.38
270.209	4.63
270.423	4.67
270.637	4.33
270.852	4.28
271.066	4.35
271.281	4.69
271.495	4.46
271.709	4.32
271.924	4.26
272.138	4.51
272.353	4.34
272.567	4.08
272.781	4.07
272.996	4.3
273.21	4.52
273.424	4.73
273.638	4.17
273.853	4.06
274.067	4.43
274.281	4.44
274.495	4.18
274.71	4.83
274.924	4.82
275.138	5.07
275.352	4.48
275.566	4.1
275.781	3.28
275.995	3.5
276.209	3.72
276.423	3.22
276.637	2.93
276.851	3.06
277.065	2.64
277.279	2.81
277.493	2.53
277.707	3.9
277.921	3.47
278.135	3.47
278.349	3.34
278.563	3.8
278.777	3.9
278.991	3.96
279.205	4.13
279.419	4.16
279.633	4.19
279.847	3.83
280.061	3.19
280.275	3.85
280.489	4.44
280.703	4.72
280.917	4.17
281.131	3.7
281.344	4.11
281.558	4.38
281.772	4.17
281.986	4.75
282.2	4.92
282.414	4.92
282.627	4.64
282.841	4.65
283.055	4.74
283.269	4.68
283.482	4.86
283.696	4.6
283.91	4.28
284.123	5.04
284.337	4.67
284.551	5.01
284.764	4.93
284.978	5.09
285.192	4.82
285.405	4.68
285.619	5.03
285.833	4.98
286.046	5.11
286.26	5.33
286.473	4.57
286.687	4.29
286.9	4
287.114	4.05
287.327	3.69
287.541	3.99
287.754	4.2
287.968	4.02
288.181	4.28
288.395	4.08
288.608	3.82
288.822	4.21
289.035	4.48
289.248	4.59
289.462	4.58
289.675	4.72
289.889	4.67
290.102	4.61
290.315	4.23
290.529	4.13
290.742	4.14
290.955	4.15
291.169	4.08
291.382	4.36
291.595	4.52
291.808	4.44
292.022	4.85
292.235	4.61
292.448	4.56
292.661	4.94
292.875	5.04
293.088	5.24
293.301	5.51
293.514	5.63
293.727	5.72
293.94	5.69
294.153	6.07
294.367	6.01
294.58	6.63
294.793	6.74
295.006	6.61
295.219	6.52
295.432	6.3
295.645	6.39
295.858	6.52
296.071	6.41
296.284	6.62
296.497	6.41
296.71	6.29
296.923	5.96
297.136	5.97
297.349	5.96
297.562	6.14
297.775	6.33
297.988	6.35
298.201	6.43
298.414	6.48
298.626	6.36
298.839	6.68
299.052	6.8
299.265	7.2
299.478	7.1
299.691	7.29
299.903	7.37
300.116	7.51
300.329	7.72
300.542	7.76
300.755	7.95
300.967	8.2
301.18	7.93
301.393	8.33
301.605	8.09
301.818	8.68
302.031	8.94
302.243	9.18
302.456	9.01
302.669	8.75
302.881	8.85
303.094	8.56
303.307	8.55
303.519	8.31
303.732	8.04
303.944	7.9
304.157	7.14
304.37	7.07
304.582	6.98
304.795	7.25
305.007	7.45
305.22	7.55
305.432	7.54
305.645	7.59
305.857	7.79
306.069	8
306.282	8.26
306.494	8.85
306.707	9.11
306.919	9.1
307.132	8.89
307.344	9.07
307.556	8.77
307.769	9.01
307.981	8.85
308.193	8.82
308.406	8.95
308.618	9.25
308.83	9.22
309.043	9.03
309.255	9.14
309.467	9.23
309.679	9
309.892	9.02
310.104	9.09
310.316	8.87
310.528	9.17
310.74	8.9
310.953	8.73
311.165	8.69
311.377	8.65
311.589	8.45
311.801	8.55
312.013	8.23
312.225	8.26
312.437	8.22
312.649	8.48
312.862	8.6
313.074	8.77
313.286	9.02
313.498	9.19
313.71	9.57
313.922	9.79
314.134	10.01
314.346	10.84
314.558	10.98
314.77	10.99
314.982	11.29
315.193	11.16
315.405	11.14
315.617	10.7
315.829	10.93
316.041	10.79
316.253	10.71
316.465	10.51
316.677	10.84
316.888	10.85
317.1	11.04
317.312	10.8
317.524	10.5
317.736	10.67
317.947	10.78
318.159	10.58
318.371	10.77
318.583	10.5
318.794	10.29
319.006	9.4
319.218	9.46
319.43	9.04
319.641	8.97
319.853	9.25
320.064	9.28
320.276	9.36
320.488	9.09
320.699	9.07
320.911	9.53
321.123	9.74
321.334	9.75
321.546	9.56
321.757	9.33
321.969	9.31
322.18	9.39
322.392	9.41
322.603	9.29
322.815	9.52
323.026	9.48
323.238	9.02
323.449	9.13
323.661	9.13
323.872	9.24
324.083	9.48
324.295	9.49
324.506	9.77
324.718	9.63
324.929	9.84
325.14	9.99
325.352	9.7
325.563	10.15
325.774	10.42
325.986	10.52
326.197	10.7
326.408	11.18
326.62	10.88
326.831	10.89
327.042	11.18
327.253	11.36
327.464	11.42
327.676	11.81
327.887	11.53
328.098	11.18
328.309	11.55
328.52	11.47
328.732	11.04
328.943	11.67
329.154	11.53
329.365	11.49
329.576	11.2
329.787	10.94
329.998	11.18
330.209	11.22
330.42	11.64
330.631	11.73
330.842	11.57
331.053	11.82
331.264	11.91
331.475	11.96
331.686	12.01
331.897	11.96
332.108	12.01
332.319	11.6
332.53	11.81
332.741	11.49
332.952	11.23
333.163	11.5
333.374	11.58
333.585	11.77
333.795	11.89
334.006	11.85
334.217	12.03
334.428	12.4
334.639	12.76
334.849	12.83
335.06	12.97
335.271	12.82
335.482	12.89
335.692	12.84
335.903	12.34
336.114	12.33
336.325	12.45
336.535	12.27
336.746	11.87
336.957	11.88
337.167	11.79
337.378	11.75
337.589	12.15
337.799	12.02
338.01	12.1
338.22	12.37
338.431	12.33
338.642	11.86
338.852	12.07
339.063	12.18
339.273	12.03
339.484	11.89
339.694	11.72
339.905	11.6
340.115	11.63
340.326	11.48
340.536	11.44
340.746	11.32
340.957	11.4
341.167	11.38
341.378	11.65
341.588	11.51
341.799	11.69
342.009	12.01
342.219	11.88
342.43	11.6
342.64	11.77
342.85	11.69
343.061	11.77
343.271	11.92
343.481	12.22
343.691	11.73
343.902	11.25
344.112	11.18
344.322	11.23
344.532	11.29
344.743	11.39
344.953	11.48
345.163	11.55
345.373	11.11
345.583	11.06
345.793	10.5
346.004	10.74
346.214	10.99
346.424	11.08
346.634	10.93
346.844	10.9
347.054	10.98
347.264	10.6
347.474	10.55
347.684	10.64
347.894	10.39
348.104	10.78
348.314	10.54
348.524	10.45
348.734	10.26
348.944	10.26
349.154	10.29
349.364	9.91
349.574	10.17
349.784	9.93
349.994	10.22
350.204	10.53
350.413	10.48
350.623	10.78
350.833	10.91
351.043	10.6
351.253	10.48
351.463	10.56
351.672	11.03
351.882	10.75
352.092	10.9
352.302	10.55
352.511	10.45
352.721	10.43
352.931	9.98
353.141	9.94
353.35	10.15
353.56	10.18
353.77	9.94
353.979	9.86
354.189	9.8
354.399	9.74
354.608	10.21
354.818	10.21
355.027	10.22
355.237	10.38
355.447	10.49
355.656	10.67
355.866	10.57
356.075	10.59
356.285	10.58
356.494	10.6
356.704	10.58
356.913	10.35
357.123	10.28
357.332	10.15
357.542	10.22
357.751	10.21
357.96	10.2
358.17	10.15
358.379	10.09
358.589	9.95
358.798	9.99
359.007	9.9
359.217	9.95
359.426	9.97
359.635	9.87
359.845	9.76
360.054	9.68
360.263	9.6
360.472	9.64
360.682	9.67
360.891	9.64
361.1	9.69
361.309	9.83
361.519	9.76
361.728	9.75
361.937	9.81
362.146	9.74
362.355	9.78
362.564	9.92
362.774	9.73
362.983	9.64
363.192	9.61
363.401	9.39
363.61	9.43
363.819	9.59
364.028	9.65
364.237	9.51
364.446	9.42
364.655	8.98
364.864	8.67
365.073	8.88
365.282	8.94
365.491	9.18
365.7	9.23
365.909	8.89
366.118	8.76
366.327	8.52
366.536	8.52
366.745	8.64
366.954	9.01
367.162	9.11
367.371	8.97
367.58	8.94
367.789	8.59
367.998	8.61
368.207	8.64
368.415	8.41
368.624	8.28
368.833	8.43
369.042	8.43
369.25	8.41
369.459	8.33
369.668	8.41
369.877	8.27
370.085	8.39
370.294	8.42
370.503	8.41
370.711	8.32
370.92	8.46
371.129	8.5
371.337	8.4
371.546	8.3
371.754	8.29
371.963	8.14
372.171	8.1
372.38	8.11
372.589	8.03
372.797	8.07
373.006	7.82
373.214	7.97
373.423	8
373.631	7.95
373.84	8.15
374.048	7.92
374.256	7.89
374.465	7.86
374.673	7.72
374.882	7.81
375.09	7.44
375.298	7.89
375.507	7.68
375.715	7.53
375.923	7.55
376.132	7.04
376.34	7.03
376.548	7.16
376.757	7.13
376.965	7.19
377.173	7.04
377.381	7.23
377.59	6.99
377.798	6.82
378.006	6.62
378.214	6.64
378.423	6.82
378.631	7.06
378.839	6.74
379.047	6.74
379.255	6.73
379.463	6.57
379.671	6.63
379.879	6.59
380.088	6.58
380.296	6.59
380.504	6.41
380.712	6.42
380.92	6.12
381.128	6.48
381.336	6.14
381.544	6.03
381.752	6.07
381.96	6
382.168	6.1
382.376	6.02
382.584	6.06
382.791	6.16
382.999	6.28
383.207	6.36
383.415	6.11
383.623	6.34
383.831	6.26
384.039	6.24
384.247	6.27
384.454	6.21
384.662	6.25
384.87	6.35
385.078	6.25
385.285	6.13
385.493	5.92
385.701	6.04
385.909	5.98
386.116	6.07
386.324	6.07
386.532	5.8
386.739	5.86
386.947	5.73
387.155	5.55
387.362	5.53
387.57	5.62
387.778	5.84
387.985	5.64
388.193	5.73
388.4	5.61
388.608	5.61
388.816	5.76
389.023	5.62
389.231	5.67
389.438	5.64
389.646	5.76
389.853	5.28
390.061	5.22
390.268	5.26
390.475	5
390.683	4.95
390.89	4.83
391.098	4.87
391.305	4.7
391.512	4.7
391.72	4.65
391.927	4.51
392.135	4.8
392.342	4.77
392.549	4.77
392.756	4.86
392.964	4.82
393.171	4.83
393.378	4.63
393.586	4.68
393.793	4.65
394	4.71
394.207	4.56
394.414	4.55
394.622	4.55
394.829	4.39
395.036	4.43
395.243	4.34
395.45	4.41
395.657	4.29
395.864	4.42
396.072	4.55
396.279	4.51
396.486	4.45
396.693	4.38
396.9	4.31
397.107	4.58
397.314	4.53
397.521	4.66
397.728	4.63
397.935	4.64
398.142	4.52
398.349	4.35
398.556	4.1
398.763	4.4
398.97	4.33
399.177	4.13
399.383	3.87
399.59	3.64
399.797	3.42
400.004	3.22
400.211	3.28
400.418	3.2
400.625	3.13
400.831	3.26
401.038	3.18
401.245	3.16
401.452	3.33
401.658	3.27
401.865	3.31
402.072	3.43
402.279	3.63
402.485	3.72
402.692	3.73
402.899	3.78
403.105	3.75
403.312	3.57
403.519	3.48
403.725	3.58
403.932	3.65
404.138	3.59
404.345	3.48
404.552	3.4
404.758	3.37
404.965	3.35
405.171	3.27
405.378	3.06
405.584	3.25
405.791	3.41
405.997	3.35
406.204	3.3
406.41	3.5
406.617	3.41
406.823	3.27
407.029	3.32
407.236	3.3
407.442	3.26
407.649	3.46
407.855	3.25
408.061	3.14
408.268	2.85
408.474	2.83
408.68	2.66
408.887	2.9
409.093	3.01
409.299	2.85
409.505	2.81
409.712	2.83
409.918	2.69
410.124	2.65
410.33	2.75
410.537	3.01
410.743	2.96
410.949	3.01
411.155	2.98
411.361	2.95
411.567	2.96
411.773	2.95
411.98	3
412.186	3.03
412.392	3.16
412.598	3.02
412.804	2.98
413.01	3.13
413.216	3.16
413.422	3.05
413.628	3.14
413.834	3.28
414.04	3.44
414.246	3.35
414.452	3.33
414.658	3.11
414.864	3.05
415.07	3.01
415.275	2.99
415.481	2.82
415.687	2.96
415.893	2.92
416.099	2.76
416.305	2.58
416.511	2.52
416.716	2.55
416.922	2.71
417.128	2.75
417.334	2.58
417.539	2.45
417.745	2.44
417.951	2.18
418.157	2.09
418.362	2.24
418.568	2.19
418.774	2.26
418.979	2.24
419.185	2.15
419.391	2.06
419.596	2.1
419.802	2.1
420.008	2.13
420.213	2.22
420.419	2.25
420.624	2.14
420.83	2.19
421.035	2.17
421.241	2.14
421.446	2.13
421.652	2.06
421.857	2.16
422.063	2.2
422.268	2.19
422.474	2.18
422.679	2.08
422.885	2.04
423.09	1.98
423.295	1.97
423.501	1.93
423.706	1.94
423.911	1.95
424.117	1.82
424.322	1.79
424.527	1.83
424.733	1.82
424.938	1.91
425.143	1.9
425.349	1.9
425.554	1.86
425.759	1.87
425.964	1.83
426.169	1.87
426.375	1.89
426.58	1.89
426.785	1.87
426.99	1.93
427.195	1.85
427.4	1.86
427.605	1.94
427.811	1.9
428.016	1.91
428.221	2.08
428.426	2.05
428.631	2.11
428.836	2.13
429.041	2.16
429.246	2.02
429.451	2.08
429.656	2.12
429.861	2.07
430.066	2.11
430.271	2.06
430.476	1.89
430.681	1.96
430.886	1.89
431.09	1.85
431.295	1.78
431.5	1.88
431.705	1.96
431.91	1.93
432.115	1.94
432.32	2.01
432.524	2.05
432.729	2.07
432.934	2.09
433.139	2.15
433.343	2.23
433.548	2.29
433.753	2.25
433.958	2.18
434.162	2.16
434.367	2.08
434.572	2.05
434.776	2.18
434.981	2.15
435.186	2.12
435.39	2.15
435.595	2.01
435.799	1.94
436.004	1.96
436.209	1.9
436.413	1.86
436.618	1.92
436.822	1.91
437.027	1.78
437.231	1.79
437.436	1.75
437.64	1.71
437.845	1.69
438.049	1.66
438.253	1.69
438.458	1.68
438.662	1.73
438.867	1.68
439.071	1.74
439.275	1.78
439.48	1.64
439.684	1.68
439.888	1.62
440.093	1.75
440.297	1.82
440.501	1.82
440.706	1.84
440.91	1.87
441.114	1.93
441.318	1.91
441.523	1.94
441.727	2.11
441.931	2.09
442.135	2.16
442.339	2.06
442.543	2.06
442.748	2.01
442.952	1.94
443.156	1.91
443.36	1.91
443.564	1.96
443.768	1.91
443.972	1.9
444.176	1.94
444.38	1.86
444.584	1.91
444.788	1.95
444.992	1.97
445.196	2.08
445.4	2.06
445.604	2.02
445.808	1.92
446.012	1.93
446.216	1.9
446.42	1.83
446.624	1.85
446.828	1.85
447.032	1.84
447.235	1.76
447.439	1.73
447.643	1.81
447.847	1.78
448.051	1.81
448.254	1.78
448.458	1.83
448.662	1.88
448.866	1.86
449.069	1.78
449.273	1.71
449.477	1.81
449.681	1.89
449.884	1.83
450.088	1.82
450.292	1.77
450.495	1.77
450.699	1.67
450.902	1.65
451.106	1.69
451.31	1.87
451.513	1.86
451.717	1.75
451.92	1.66
452.124	1.65
452.327	1.58
452.531	1.56
452.734	1.56
452.938	1.72
453.141	1.73
453.345	1.66
453.548	1.46
453.752	1.46
453.955	1.57
454.158	1.61
454.362	1.67
454.565	1.73
454.769	1.77
454.972	1.84
455.175	1.73
455.379	1.79
455.582	1.75
455.785	1.84
455.988	1.88
456.192	1.74
456.395	1.69
456.598	1.67
456.801	1.69
457.005	1.71
457.208	1.75
457.411	1.75
457.614	1.67
457.817	1.81
458.021	1.85
458.224	1.85
458.427	1.9
458.63	1.87
458.833	1.72
459.036	1.73
459.239	1.75
459.442	1.66
459.645	1.59
459.848	1.56
460.051	1.47
460.254	1.44
460.457	1.4
460.66	1.4
460.863	1.44
461.066	1.45
461.269	1.47
461.472	1.38
461.675	1.42
461.878	1.55
462.081	1.61
462.284	1.7
462.486	1.59
462.689	1.64
462.892	1.64
463.095	1.74
463.298	1.83
463.5	1.91
463.703	2.03
463.906	1.97
464.109	1.94
464.311	1.92
464.514	1.85
464.717	2.01
464.92	1.92
465.122	1.84
465.325	1.69
465.528	1.64
465.73	1.47
465.933	1.43
466.135	1.37
466.338	1.36
466.541	1.41
466.743	1.45
466.946	1.42
467.148	1.59
467.351	1.62
467.553	1.69
467.756	1.74
467.958	1.84
468.161	1.84
468.363	1.97
468.566	1.93
468.768	1.96
468.971	1.96
469.173	2.04
469.375	1.95
469.578	2.08
469.78	1.96
469.983	1.98
470.185	2.06
470.387	2.18
470.59	2.13
470.792	2.22
470.994	2.13
471.196	2.24
471.399	2.1
471.601	2.11
471.803	2.02
472.005	2.17
472.208	2.24
472.41	2.15
472.612	1.99
472.814	1.95
473.016	1.84
473.218	1.96
473.421	1.89
473.623	1.94
473.825	1.95
474.027	1.9
474.229	1.93
474.431	1.91
474.633	1.95
474.835	1.99
475.037	1.99
475.239	2.04
475.441	1.9
475.643	1.82
475.845	1.79
476.047	1.82
476.249	1.81
476.451	1.64
476.653	1.63
476.855	1.6
477.057	1.62
477.258	1.62
477.46	1.66
477.662	1.75
477.864	1.77
478.066	1.85
478.268	1.83
478.469	1.86
478.671	1.91
478.873	1.87
479.075	1.88
479.276	1.97
479.478	1.99
479.68	1.99
479.882	1.95
480.083	1.95
480.285	1.8
480.487	1.86
480.688	1.84
480.89	1.87
481.091	1.86
481.293	1.88
481.495	1.8
481.696	1.74
481.898	1.67
482.099	1.65
482.301	1.59
482.502	1.6
482.704	1.54
482.905	1.5
483.107	1.46
483.308	1.45
483.51	1.46
483.711	1.45
483.913	1.44
484.114	1.45
484.315	1.43
484.517	1.45
484.718	1.46
484.92	1.46
485.121	1.47
485.322	1.48
485.524	1.47
485.725	1.44
485.926	1.43
486.127	1.46
486.329	1.44
486.53	1.43
486.731	1.46
486.932	1.43
487.134	1.4
487.335	1.42
487.536	1.4
487.737	1.4
487.938	1.39
488.139	1.4
488.341	1.42
488.542	1.47
488.743	1.48
488.944	1.48
489.145	1.49
489.346	1.52
489.547	1.5
489.748	1.52
489.949	1.55
490.15	1.52
490.351	1.5
490.552	1.47
490.753	1.46
490.954	1.42
491.155	1.43
491.356	1.44
491.557	1.51
491.758	1.52
491.959	1.54
492.159	1.56
492.36	1.62
492.561	1.64
492.762	1.7
492.963	1.7
493.164	1.76
493.364	1.75
493.565	1.77
493.766	1.75
493.967	1.82
494.167	1.84
494.368	1.81
494.569	1.84
494.769	1.85
494.97	1.83
495.171	1.9
495.371	1.91
495.572	1.97
495.773	2.03
495.973	1.98
496.174	1.96
496.375	1.94
496.575	2.04
496.776	1.94
496.976	2.01
497.177	1.99
497.377	1.98
497.578	2.01
497.778	2
497.979	2.04
498.179	2.11
498.38	2.14
498.58	2.17
498.78	2.13
498.981	2.25
499.181	2.27
499.382	2.39
499.582	2.32
499.782	2.43
499.983	2.47
500.183	2.53
500.383	2.54
500.584	2.6
500.784	2.69
500.984	2.68
501.184	2.64
501.385	2.69
501.585	2.54
501.785	2.64
501.985	2.64
502.185	2.61
502.386	2.47
502.586	2.52
502.786	2.54
502.986	2.6
503.186	2.66
503.386	2.71
503.586	2.73
503.786	2.84
503.987	2.9
504.187	2.94
504.387	2.91
504.587	3
504.787	3.01
504.987	2.99
505.187	2.97
505.387	3.04
505.587	3.1
505.786	3.16
505.986	3.28
506.186	3.27
506.386	3.29
506.586	3.42
506.786	3.49
506.986	3.54
507.186	3.67
507.386	3.69
507.585	3.67
507.785	3.64
507.985	3.69
508.185	3.71
508.384	3.76
508.584	3.86
508.784	3.87
508.984	4.04
509.183	4.05
509.383	4.05
509.583	4.07
509.782	4.13
509.982	4.25
510.182	4.25
510.381	4.28
510.581	4.34
510.781	4.37
510.98	4.47
511.18	4.46
511.379	4.58
511.579	4.58
511.778	4.75
511.978	4.87
512.177	4.95
512.377	5.07
512.576	5.19
512.776	5.29
512.975	5.44
513.175	5.53
513.374	5.63
513.573	5.71
513.773	5.96
513.972	5.97
514.172	6.1
514.371	6.29
514.57	6.42
514.77	6.55
514.969	6.67
515.168	6.67
515.367	6.79
515.567	6.91
515.766	7.02
515.965	6.95
516.164	7.17
516.364	7.26
516.563	7.3
516.762	7.42
516.961	7.55
517.16	7.58
517.359	7.71
517.559	7.78
517.758	7.78
517.957	7.88
518.156	8
518.355	8.05
518.554	8.11
518.753	8.17
518.952	8.21
519.151	8.29
519.35	8.47
519.549	8.6
519.748	8.63
519.947	8.83
520.146	8.96
520.345	9.14
520.544	9.21
520.743	9.34
520.942	9.45
521.141	9.58
521.339	9.57
521.538	9.59
521.737	9.63
521.936	9.83
522.135	9.96
522.333	10.09
522.532	10.16
522.731	10.33
522.93	10.46
523.129	10.59
523.327	10.7
523.526	10.85
523.725	11.02
523.923	11.15
524.122	11.27
524.321	11.32
524.519	11.4
524.718	11.47
524.917	11.57
525.115	11.63
525.314	11.74
525.512	11.83
525.711	12.02
525.909	12.15
526.108	12.21
526.306	12.37
526.505	12.43
526.703	12.52
526.902	12.66
527.1	12.76
527.299	12.93
527.497	13.02
527.696	13.13
527.894	13.19
528.092	13.27
528.291	13.36
528.489	13.41
528.688	13.51
528.886	13.59
529.084	13.62
529.283	13.67
529.481	13.69
529.679	13.8
529.877	13.84
530.076	13.89
530.274	13.94
530.472	14.04
530.67	14.09
530.869	14.2
531.067	14.33
531.265	14.54
531.463	14.72
531.661	14.86
531.859	14.92
532.057	15.07
532.255	15.18
532.454	15.28
532.652	15.37
532.85	15.53
533.048	15.6
533.246	15.69
533.444	15.77
533.642	15.85
533.84	15.95
534.038	16.06
534.236	16.15
534.434	16.26
534.632	16.34
534.83	16.49
535.027	16.53
535.225	16.66
535.423	16.76
535.621	16.87
535.819	16.96
536.017	17.02
536.215	17.11
536.412	17.19
536.61	17.24
536.808	17.42
537.006	17.5
537.203	17.57
537.401	17.66
537.599	17.73
537.797	17.8
537.994	17.87
538.192	17.95
538.39	18.14
538.587	18.3
538.785	18.57
538.983	18.64
539.18	18.74
539.378	18.92
539.575	18.98
539.773	19.15
539.97	19.24
540.168	19.4
540.366	19.52
540.563	19.52
540.761	19.61
540.958	19.6
541.155	19.64
541.353	19.73
541.55	19.83
541.748	19.91
541.945	19.96
542.143	20.06
542.34	20.07
542.537	20.15
542.735	20.25
542.932	20.31
543.129	20.48
543.327	20.64
543.524	20.86
543.721	21.07
543.919	21.35
544.116	21.61
544.313	21.88
544.51	22.25
544.708	22.57
544.905	22.86
545.102	23.15
545.299	23.32
545.496	23.53
545.693	23.55
545.891	23.55
546.088	23.5
546.285	23.45
546.482	23.33
546.679	23.24
546.876	23.15
547.073	23.15
547.27	23.02
547.467	22.98
547.664	22.9
547.861	22.85
548.058	22.85
548.255	22.85
548.452	22.92
548.649	23.03
548.846	23.13
549.043	23.08
549.24	23.02
549.437	23.05
549.633	22.98
549.83	23.03
550.027	23.01
550.224	22.95
550.421	22.98
550.618	22.82
550.814	22.77
551.011	22.71
551.208	22.74
551.405	22.64
551.601	22.64
551.798	22.62
551.995	22.5
552.191	22.47
552.388	22.47
552.585	22.49
552.781	22.49
552.978	22.5
553.175	22.46
553.371	22.42
553.568	22.52
553.764	22.55
553.961	22.67
554.157	22.81
554.354	22.93
554.55	22.91
554.747	22.85
554.943	23
555.14	22.93
555.336	22.95
555.533	23.01
555.729	22.9
555.926	23.01
556.122	22.99
556.318	22.99
556.515	23.05
556.711	23.23
556.907	23.35
557.104	23.26
557.3	23.32
557.496	23.28
557.693	23.26
557.889	23.46
558.085	23.4
558.281	23.31
558.478	23.28
558.674	23.29
558.87	23.24
559.066	23.19
559.262	23.27
559.459	23.25
559.655	23.29
559.851	23.3
560.047	23.37
560.243	23.39
560.439	23.54
560.635	23.59
560.831	23.57
561.027	23.63
561.223	23.65
561.419	23.69
561.615	23.78
561.811	23.91
562.007	24.12
562.203	24.18
562.399	24.27
562.595	24.26
562.791	24.26
562.987	24.2
563.183	24.16
563.379	24.09
563.575	24.11
563.771	24.09
563.966	24.03
564.162	23.98
564.358	23.85
564.554	23.75
564.75	23.73
564.945	23.73
565.141	23.9
565.337	24.03
565.533	24.12
565.728	24.09
565.924	24.14
566.12	24.24
566.315	24.23
566.511	24.21
566.707	24.32
566.902	24.41
567.098	24.48
567.293	24.47
567.489	24.46
567.684	24.43
567.88	24.5
568.076	24.52
568.271	24.38
568.467	24.4
568.662	24.6
568.858	24.55
569.053	24.5
569.248	24.5
569.444	24.5
569.639	24.45
569.835	24.55
570.03	24.49
570.225	24.54
570.421	24.7
570.616	24.65
570.812	24.56
571.007	24.66
571.202	24.79
571.397	24.79
571.593	24.78
571.788	24.85
571.983	24.96
572.178	25.01
572.374	25.03
572.569	25.12
572.764	25.28
572.959	25.31
573.154	25.3
573.35	25.28
573.545	25.34
573.74	25.35
573.935	25.33
574.13	25.28
574.325	25.37
574.52	25.48
574.715	25.44
574.91	25.49
575.105	25.53
575.3	25.53
575.495	25.62
575.69	25.8
575.885	26.05
576.08	26.19
576.275	26.38
576.47	26.53
576.665	26.76
576.86	26.8
577.055	26.88
577.25	27.02
577.444	27.17
577.639	27.35
577.834	27.37
578.029	27.38
578.224	27.49
578.418	27.59
578.613	27.72
578.808	27.68
579.003	27.75
579.197	27.74
579.392	27.8
579.587	27.87
579.781	27.76
579.976	27.83
580.171	27.91
580.365	27.82
580.56	27.73
580.755	27.74
580.949	27.68
581.144	27.73
581.338	27.68
581.533	27.7
581.727	27.78
581.922	27.86
582.116	27.91
582.311	27.86
582.505	28.13
582.7	28.17
582.894	28.05
583.089	27.97
583.283	28.11
583.478	28.31
583.672	28.37
583.866	28.43
584.061	28.49
584.255	28.37
584.449	28.3
584.644	28.17
584.838	28.26
585.032	28.35
585.226	28.51
585.421	28.41
585.615	28.4
585.809	28.53
586.003	28.54
586.198	28.52
586.392	28.75
586.586	28.9
586.78	28.84
586.974	28.85
587.168	28.83
587.363	28.91
587.557	29.01
587.751	29.07
587.945	28.97
588.139	29
588.333	28.93
588.527	28.72
588.721	28.71
588.915	28.7
589.109	28.63
589.303	28.5
589.497	28.38
589.691	28.32
589.885	28.19
590.079	28.13
590.273	27.95
590.466	27.98
590.66	28.19
590.854	28.32
591.048	28.51
591.242	28.49
591.436	28.64
591.629	28.63
591.823	28.77
592.017	28.99
592.211	28.93
592.404	29.11
592.598	29.27
592.792	29.29
592.986	29.23
593.179	29.05
593.373	29.13
593.567	29.11
593.76	29.22
593.954	28.92
594.147	28.69
594.341	28.85
594.535	28.74
594.728	28.61
594.922	28.38
595.115	28.19
595.309	28.03
595.502	27.97
595.696	27.94
595.889	27.82
596.083	27.93
596.276	28.03
596.47	27.94
596.663	27.9
596.856	27.92
597.05	28.01
597.243	28.29
597.437	28.32
597.63	28.51
597.823	28.61
598.017	28.66
598.21	28.66
598.403	28.64
598.596	28.67
598.79	28.78
598.983	28.84
599.176	28.86
599.369	28.53
599.563	28.83
599.756	28.59
599.949	28.53
600.142	28.53
600.335	28.65
600.528	28.71
600.722	28.65
600.915	28.6
601.108	28.51
601.301	28.48
601.494	28.55
601.687	28.51
601.88	28.56
602.073	28.63
602.266	28.57
602.459	28.44
602.652	28.37
602.845	28.36
603.038	28.45
603.231	28.43
603.424	28.39
603.617	28.38
603.809	28.17
604.002	28.01
604.195	27.84
604.388	27.9
604.581	28.03
604.774	28.05
604.966	28.07
605.159	27.93
605.352	27.98
605.545	28.1
605.737	28.07
605.93	28.32
606.123	28.49
606.316	28.63
606.508	28.57
606.701	28.56
606.894	28.72
607.086	28.97
607.279	29.39
607.471	29.57
607.664	29.74
607.857	30.14
608.049	30.41
608.242	30.87
608.434	31.57
608.627	32.41
608.819	33.17
609.012	34.26
609.204	35.24
609.397	36.2
609.589	37.52
609.782	38.81
609.974	40.2
610.166	41.77
610.359	43.18
610.551	44.33
610.743	45.32
610.936	46.43
611.128	47.13
611.32	47.76
611.513	48.14
611.705	48.25
611.897	48.11
612.09	47.77
612.282	47.05
612.474	46.44
612.666	45.78
612.858	45.3
613.051	44.47
613.243	43.55
613.435	42.87
613.627	42
613.819	41.18
614.011	40.65
614.203	39.94
614.395	39.37
614.588	38.68
614.78	38.19
614.972	37.6
615.164	37.05
615.356	36.46
615.548	35.91
615.74	35.73
615.932	35.2
616.124	34.68
616.315	34.24
616.507	33.99
616.699	33.81
616.891	33.44
617.083	33.04
617.275	32.6
617.467	32.47
617.659	32.17
617.85	31.87
618.042	31.68
618.234	31.54
618.426	31.49
618.618	31.26
618.809	31.13
619.001	31.15
619.193	31.09
619.384	31.14
619.576	31.17
619.768	31.14
619.959	31.1
620.151	31.13
620.343	31
620.534	31.06
620.726	31.04
620.917	31.03
621.109	30.94
621.301	30.91
621.492	30.92
621.684	30.97
621.875	31.03
622.067	31.15
622.258	31.31
622.45	31.58
622.641	31.72
622.832	31.86
623.024	31.87
623.215	31.9
623.407	31.98
623.598	32.12
623.789	32.04
623.981	31.92
624.172	32
624.363	31.8
624.555	31.68
624.746	31.5
624.937	31.37
625.129	31.35
625.32	31.45
625.511	31.39
625.702	31.28
625.893	31.15
626.085	31.07
626.276	30.91
626.467	31.12
626.658	31.12
626.849	30.93
627.04	30.87
627.231	30.8
627.422	30.7
627.614	30.82
627.805	30.95
627.996	31.2
628.187	31.32
628.378	31.51
628.569	31.51
628.76	31.68
628.951	31.98
629.142	32.23
629.332	32.38
629.523	32.68
629.714	32.71
629.905	32.74
630.096	32.89
630.287	33.12
630.478	33.18
630.669	33.11
630.859	33.2
631.05	33.24
631.241	33.21
631.432	32.99
631.623	32.6
631.813	32.57
632.004	32.5
632.195	32.16
632.385	31.92
632.576	31.67
632.767	31.44
632.957	31.22
633.148	30.86
633.339	30.63
633.529	30.58
633.72	30.45
633.91	30.26
634.101	30.04
634.292	29.96
634.482	29.82
634.673	29.76
634.863	29.8
635.054	29.63
635.244	29.79
635.435	29.75
635.625	29.76
635.815	29.95
636.006	29.84
636.196	29.91
636.387	30.01
636.577	30.02
636.767	30.06
636.958	30
637.148	30.07
637.338	30.01
637.529	30.03
637.719	30.13
637.909	30.09
638.099	30.13
638.29	30.02
638.48	29.64
638.67	29.56
638.86	29.46
639.05	29.67
639.241	29.54
639.431	29.59
639.621	29.57
639.811	29.48
640.001	29.33
640.191	29.41
640.381	29.54
640.571	29.71
640.761	29.83
640.951	29.74
641.141	29.6
641.331	29.49
641.521	29.64
641.711	29.7
641.901	29.75
642.091	29.99
642.281	30.03
642.471	30.15
642.661	30.42
642.851	30.38
643.041	30.48
643.231	30.39
643.42	30.41
643.61	30.27
643.8	30.28
643.99	30.53
644.18	30.49
644.369	30.24
644.559	29.96
644.749	29.87
644.939	29.92
645.128	29.96
645.318	30.15
645.508	30.23
645.697	30.07
645.887	30.01
646.076	29.76
646.266	29.62
646.456	29.68
646.645	29.88
646.835	29.87
647.024	29.73
647.214	29.73
647.403	29.64
647.593	29.74
647.782	29.68
647.972	29.51
648.161	29.8
648.351	29.81
648.54	30.12
648.73	30.09
648.919	29.83
649.108	30.26
649.298	30.19
649.487	30.36
649.677	30.58
649.866	30.76
650.055	30.9
650.244	30.77
650.434	30.73
650.623	30.74
650.812	30.89
651.002	31.19
651.191	30.93
651.38	30.98
651.569	31.13
651.758	30.94
651.947	30.87
652.137	31.09
652.326	31.06
652.515	31.34
652.704	31.08
652.893	30.87
653.082	30.95
653.271	30.94
653.46	31.15
653.649	30.66
653.838	30.58
654.027	30.64
654.216	30.54
654.405	30.45
654.594	30.28
654.783	30.51
654.972	30.49
655.161	30.37
655.35	30.16
655.539	29.78
655.728	30.16
655.916	30.08
656.105	29.97
656.294	30.05
656.483	29.93
656.672	29.98
656.86	29.77
657.049	29.8
657.238	29.56
657.427	29.79
657.615	29.9
657.804	29.56
657.993	29.48
658.181	29.45
658.37	29.24
658.559	29.33
658.747	29.18
658.936	29.11
659.125	29.09
659.313	29.07
659.502	29.11
659.69	29.15
659.879	29.42
660.067	29.75
660.256	30.11
660.444	30.3
660.633	30.34
660.821	30.66
661.01	30.96
661.198	31.21
661.387	31.59
661.575	31.45
661.763	31.7
661.952	31.55
662.14	31.65
662.328	31.53
662.517	31.53
662.705	31.55
662.893	31.17
663.082	30.94
663.27	30.97
663.458	30.93
663.646	31.07
663.834	30.98
664.023	31.12
664.211	30.95
664.399	31
664.587	30.74
664.775	30.55
664.963	30.81
665.152	30.88
665.34	30.8
665.528	30.62
665.716	30.42
665.904	30.16
666.092	30.34
666.28	30.29
666.468	30.24
666.656	30.42
666.844	30.67
667.032	30.75
667.22	30.95
667.408	30.94
667.596	31.06
667.784	31.29
667.971	31.21
668.159	30.91
668.347	30.85
668.535	30.51
668.723	30.65
668.911	30.41
669.098	30.28
669.286	30.01
669.474	29.9
669.662	29.93
669.849	29.89
670.037	30.08
670.225	30.33
670.413	30.42
670.6	30.64
670.788	30.19
670.976	30.21
671.163	30.05
671.351	30.11
671.538	30.21
671.726	30.17
671.913	29.98
672.101	29.87
672.289	29.48
672.476	29.49
672.664	29.56
672.851	29.85
673.039	29.79
673.226	29.77
673.413	29.74
673.601	29.67
673.788	29.39
673.976	29.53
674.163	29.57
674.35	29.85
674.538	29.5
674.725	29.57
674.912	29.61
675.1	29.56
675.287	29.85
675.474	29.87
675.662	29.96
675.849	30.04
676.036	30.15
676.223	30.17
676.411	30.07
676.598	30.3
676.785	30.18
676.972	30.34
677.159	30.68
677.346	30.57
677.533	30.76
677.721	30.59
677.908	30.72
678.095	30.75
678.282	30.79
678.469	30.8
678.656	30.91
678.843	30.9
679.03	30.62
679.217	30.48
679.404	30.36
679.591	30.19
679.778	30.25
679.964	30.11
680.151	29.99
680.338	29.92
680.525	30.12
680.712	30.08
680.899	29.82
681.086	30.09
681.272	30.09
681.459	29.87
681.646	30.07
681.833	30.05
682.02	30.26
682.206	30.61
682.393	30.56
682.58	30.36
682.766	30.35
682.953	30.37
683.14	30.09
683.326	30.52
683.513	31.04
683.7	30.67
683.886	30.57
684.073	30.42
684.259	30.12
684.446	30.39
684.632	30.5
684.819	30.35
685.005	30.55
685.192	30.89
685.378	30.61
685.565	30.31
685.751	30.77
685.938	31.09
686.124	31.3
686.31	31.15
686.497	31.44
686.683	31.42
686.87	31.58
687.056	31.66
687.242	31.49
687.429	31.19
687.615	31.42
687.801	31.19
687.987	31.22
688.174	31.34
688.36	31.71
688.546	31.25
688.732	31.22
688.918	31.11
689.105	31
689.291	31.26
689.477	31.53
689.663	31.43
689.849	31.48
690.035	31.19
690.221	31.02
690.407	30.91
690.593	31.06
690.779	31.02
690.965	31.37
691.151	31.62
691.337	31.37
691.523	31.54
691.709	31.51
691.895	31.43
692.081	31.42
692.267	31.33
692.453	31.22
692.639	31.23
692.825	31.44
693.011	31.51
693.196	31.53
693.382	31.56
693.568	31.42
693.754	31.34
693.94	31.56
694.125	31.64
694.311	31.99
694.497	31.9
694.682	31.88
694.868	31.77
695.054	31.45
695.239	31.43
695.425	31.24
695.611	31
695.796	31
695.982	30.79
696.168	30.54
696.353	29.85
696.539	29.57
696.724	29.17
696.91	28.91
697.095	28.94
697.281	28.76
697.466	28.94
697.652	29.12
697.837	29.17
698.023	28.98
698.208	29.14
698.393	29.03
698.579	29
698.764	29.12
698.949	29.26
699.135	29.09
699.32	28.91
699.505	28.84
699.691	28.57
699.876	28.54
700.061	28.56
700.246	28.57
700.432	29
700.617	29.37
700.802	29.23
700.987	29.16
701.172	29.22
701.358	29.67
701.543	29.79
701.728	30.01
701.913	29.91
702.098	30.15
702.283	29.95
702.468	29.99
702.653	30.1
702.838	30.43
703.023	30.68
703.208	30.96
703.393	30.87
703.578	30.64
703.763	30.72
703.948	30.9
704.133	31.43
704.318	32.1
704.503	32.21
704.688	32.28
704.873	33
705.057	33.19
705.242	33.47
705.427	33.82
705.612	34.64
705.797	35.35
705.981	35.96
706.166	35.75
706.351	35.92
706.536	36.51
706.72	36.83
706.905	36.66
707.09	36.8
707.274	37.12
707.459	37.24
707.644	36.99
707.828	36.65
708.013	36.45
708.197	36.68
708.382	36.88
708.567	36.51
708.751	36.32
708.936	36.31
709.12	36.37
709.305	36.01
709.489	35.83
709.673	35.67
709.858	35.9
710.042	36.14
710.227	36.16
710.411	35.59
710.596	35.72
710.78	35.7
710.964	35.64
711.149	35.53
711.333	35.62
711.517	35.4
711.702	35.52
711.886	35.13
712.07	34.95
712.254	34.95
712.438	34.8
712.623	34.56
712.807	34.27
712.991	33.81
713.175	33.38
713.359	32.54
713.544	32.38
713.728	32.12
713.912	31.7
714.096	31.02
714.28	30.54
714.464	30.42
714.648	30.27
714.832	30.03
715.016	29.98
715.2	29.84
715.384	30.13
715.568	30.29
715.752	30.01
715.936	30.43
716.12	30.46
716.304	30.47
716.488	30.25
716.671	29.95
716.855	30.02
717.039	30.13
717.223	30.28
717.407	30.14
717.59	29.99
717.774	30.1
717.958	29.93
718.142	29.9
718.325	29.73
718.509	30.08
718.693	30.62
718.877	30.59
719.06	30.33
719.244	30.47
719.428	30.57
719.611	30.36
719.795	30.48
719.978	30.31
720.162	30.71
720.345	30.93
720.529	30.66
720.713	29.9
720.896	30.3
721.08	30.78
721.263	30.87
721.446	31.18
721.63	31.3
721.813	31.41
721.997	31.34
722.18	31.5
722.364	31.69
722.547	31.46
722.73	31.62
722.914	31.57
723.097	31.43
723.28	31.03
723.464	30.79
723.647	30.67
723.83	30.39
724.013	30.49
724.197	30.38
724.38	29.92
724.563	30.27
724.746	30.43
724.929	29.99
725.112	29.65
725.296	29.3
725.479	29.4
725.662	29.16
725.845	28.96
726.028	28.85
726.211	28.71
726.394	28.74
726.577	28.27
726.76	28.31
726.943	28.29
727.126	28.74
727.309	29.33
727.492	29.1
727.675	29.38
727.858	29.59
728.041	29.61
728.224	29.41
728.407	29.87
728.589	30.45
728.772	30.29
728.955	30.2
729.138	29.95
729.321	29.45
729.503	29.83
729.686	30.01
729.869	30.45
730.052	30.36
730.234	30.53
730.417	30.16
730.6	30.17
730.782	30.46
730.965	30.47
731.148	30.53
731.33	30.36
731.513	30.16
731.695	30.02
731.878	29.63
732.061	29.9
732.243	29.64
732.426	29.68
732.608	29.5
732.791	29.81
732.973	30.21
733.156	30.33
733.338	30.77
733.52	30.46
733.703	30.08
733.885	29.97
734.068	30.12
734.25	30.65
734.432	30.64
734.615	31.06
734.797	30.78
734.979	30.67
735.162	29.93
735.344	30.26
735.526	30.51
735.708	31.46
735.891	31.76
736.073	31.75
736.255	31.57
736.437	31.72
736.619	31.32
736.802	31.53
736.984	31.84
737.166	32.79
737.348	32.28
737.53	32.66
737.712	32.31
737.894	32.01
738.076	32.4
738.258	32.86
738.44	32.69
738.622	32.93
738.804	32.94
738.986	32.73
739.168	32.69
739.35	32.92
739.532	32.96
739.714	32.57
739.896	32.52
740.078	31.57
740.259	30.76
740.441	30.8
740.623	30.6
740.805	30.41
740.987	30.46
741.168	30.49
741.35	30.38
741.532	30.57
741.714	30.98
741.895	31.74
742.077	31.54
742.259	31.76
742.44	32.1
742.622	31.96
742.804	31.92
742.985	31.6
743.167	31.18
743.348	31.51
743.53	31.2
743.711	31.36
743.893	30.97
744.075	31.7
744.256	31.84
744.438	31.42
744.619	31.77
744.8	32.14
744.982	32.09
745.163	32.31
745.345	32.22
745.526	32.44
745.707	32.21
745.889	32.73
746.07	32.71
746.252	32.81
746.433	32.98
746.614	33.28
746.795	33.18
746.977	33.47
747.158	33.43
747.339	33.5
747.52	33.56
747.702	33.34
747.883	32.5
748.064	32.85
748.245	32.64
748.426	33.14
748.607	32.29
748.788	32.09
748.97	31.99
749.151	31.68
749.332	32.11
749.513	31.79
749.694	32.65
749.875	33.53
750.056	33.73
750.237	34.13
750.418	33.72
750.599	34.35
750.78	34.22
750.96	34.47
751.141	35.55
751.322	34.7
751.503	34.59
751.684	33.83
751.865	33.01
752.046	32.69
752.226	32.61
752.407	32.83
752.588	32.71
752.769	32.53
752.949	32.18
753.13	31.4
753.311	31.47
753.492	31.44
753.672	31.57
753.853	31.92
754.034	31.72
754.214	30.73
754.395	30.25
754.575	29.9
754.756	30.29
754.937	30.79
755.117	30.94
755.298	31.13
755.478	31.11
755.659	30.86
755.839	30.73
756.02	30.31
756.2	30.95
756.381	31.02
756.561	31.51
756.741	31.3
756.922	31.86
757.102	31.49
757.283	31.54
757.463	31.38
757.643	31.53
757.823	31.1
758.004	31.21
758.184	30.83
758.364	30.94
758.545	30.66
758.725	30.55
758.905	29.16
759.085	29.04
759.265	28.21
759.446	27.5
759.626	27.33
759.806	26.77
759.986	26.04
760.166	26.37
760.346	26.15
760.526	25.8
760.706	26.23
760.886	26.28
761.066	26.27
761.246	26.82
761.426	27.24
761.606	26.52
761.786	27.35
761.966	27.86
762.146	27.85
762.326	28.27
762.506	28.56
762.686	27.74
762.866	28.05
763.046	28.01
763.225	28.24
763.405	28.38
763.585	28.93
763.765	28.58
763.945	28.3
764.124	28.42
764.304	27.93
764.484	27.76
764.664	28.23
764.843	28.48
765.023	28.89
765.203	28.42
765.382	28.46
765.562	28.36
765.741	28.8
765.921	29.47
766.101	29.37
766.28	30.23
766.46	30.66
766.639	30.9
766.819	31.05
766.998	30.66
767.178	31.34
767.357	30.84
767.537	31.66
767.716	31.77
767.896	31.81
768.075	32.14
768.254	32.57
768.434	32.97
768.613	32.78
768.792	32.2
768.972	31.96
769.151	31.94
769.33	33.27
769.51	33.4
769.689	33.26
769.868	32.93
770.047	32.14
770.226	31.4
770.406	30.56
770.585	30.43
770.764	30.73
770.943	31.78
771.122	31.87
771.301	31.3
771.48	30.8
771.66	30.98
771.839	31.09
772.018	31.84
772.197	32.26
772.376	32.33
772.555	32.26
772.734	32.15
772.913	31.27
773.092	31.11
773.271	31.02
773.449	30.41
773.628	30.71
773.807	31.73
773.986	32.27
774.165	32.13
774.344	32.79
774.523	33.14
774.701	34.14
774.88	34.45
775.059	33.98
775.238	34.66
775.417	35.82
775.595	35.79
775.774	35.55
775.953	34.68
776.131	33.9
776.31	32.98
776.489	32.86
776.667	32.09
776.846	31.76
777.025	33.47
777.203	32.9
777.382	32.93
777.56	32.92
777.739	33.4
777.917	34.34
778.096	34.75
778.274	35.11
778.453	35.6
778.631	36.4
778.81	36.03
778.988	34.47
779.166	34.55
779.345	34.31
779.523	34.28
779.702	33.93
779.88	33.92
780.058	33.97
780.237	34.39
780.415	33.56
780.593	32.39
780.771	33.28
780.95	33.93
781.128	33.74
781.306	33.25
781.484	33.45
781.662	32.95
781.841	32.6
782.019	32.61
782.197	33.44
782.375	34.19
782.553	34.47
782.731	35
782.909	34.4
783.087	34.85
783.265	34.73
783.443	34.05
783.621	34.23
783.799	34.72
783.977	34.78
784.155	33.64
784.333	32.88
784.511	33.21
784.689	32.41
784.867	33.48
785.045	33.4
785.223	33.51
785.4	33.61
785.578	33.78
785.756	33.95
785.934	33.84
786.112	34.03
786.289	34.05
786.467	33.69
786.645	33.88
786.823	33.33
787	33.3
787.178	32.91
787.356	33.07
787.533	32.56
787.711	31.76
787.889	31.47
788.066	31.53
788.244	31.96
788.421	32.38
788.599	32.52
788.776	32.71
788.954	32.73
789.131	33.63
789.309	33.03
789.486	33.01
789.664	32.86
789.841	34.04
790.019	34.36
790.196	34.52
790.373	34.21
790.551	34.54
790.728	35.03
790.906	35.47
791.083	36.05
791.26	36.95
791.437	36.91
791.615	37.3
791.792	36.66
791.969	36.45
792.146	35.97
792.324	37.16
792.501	36.11
792.678	35.78
792.855	36.42
793.032	35.12
793.209	35.32
793.387	35.64
793.564	36.23
793.741	36.22
793.918	35.6
794.095	34.7
794.272	32.35
794.449	34.07
794.626	34.14
794.803	32.51
794.98	33.57
795.157	32.62
795.334	33.64
795.511	32.71
795.688	31.97
795.864	31.79
796.041	32.44
796.218	33.87
796.395	33.38
796.572	33.57
796.749	33.94
796.925	32.37
797.102	33.08
797.279	31.66
797.456	31.69
797.632	32.23
797.809	33.42
797.986	34.23
798.162	33.64
798.339	32.69
798.516	32.58
798.692	33.21
798.869	34.89
799.046	34.56
799.222	35.27
799.399	35.26
799.575	34.89
799.752	33.71
799.928	32.86
800.105	32.83
800.281	33.82
800.458	34.35
800.634	34.12
800.811	32.88
800.987	33.51
801.163	33.3
801.34	34.42
801.516	34.55
801.692	35.74
801.869	36.22
802.045	36.06
802.221	36.64
802.398	35.52
802.574	35.74
802.75	36.8
802.926	36.59
803.103	37.36
803.279	36.29
803.455	36.72
803.631	35.65
803.807	35.36
803.983	36.63
804.16	35.16
804.336	34.99
804.512	34.09
804.688	33.69
804.864	32.37
805.04	31.19
805.216	31.84
805.392	31.38
805.568	31.46
805.744	31.67
805.92	30.72
806.096	32.13
806.272	32.48
806.448	33.24
806.623	33.35
806.799	33.44
806.975	34.32
807.151	33.14
807.327	33.95
807.503	33.33
807.678	34.17
807.854	34.24
808.03	33.12
808.206	32.32
808.381	32.57
808.557	32.15
808.733	34.28
808.908	34.19
809.084	35.5
809.26	35.48
809.435	36.78
809.611	37.52
809.787	36.75
809.962	37.63
810.138	39.38
810.313	38.25
810.489	39.21
810.664	38.17
810.84	38.06
811.015	37.56
811.191	36.89
811.366	36.81
811.542	34.94
811.717	35.65
811.892	35.27
812.068	33.92
812.243	34.7
812.419	33
812.594	32.3
812.769	30.83
812.944	31.7
813.12	31.77
813.295	32.02
813.47	32.12
813.645	32.45
813.821	31.46
813.996	32.12
814.171	31.58
814.346	32.39
814.521	32.79
814.697	33.05
814.872	31.74
815.047	31.36
815.222	31.56
815.397	30.46
815.572	29.69
815.747	31.06
815.922	30.46
816.097	29.49
816.272	29.76
816.447	29.15
816.622	29.95
816.797	31.32
816.972	31.27
817.147	29.67
817.322	29.74
817.496	28.68
817.671	27.75
817.846	28.3
818.021	29.53
818.196	29.6
818.371	30.5
818.545	30.77
818.72	29.27
818.895	28.57
819.069	29.56
819.244	30.14
819.419	31.94
819.594	31.03
819.768	29.5
819.943	29.29
820.117	28.07
820.292	27.53
820.467	27.78
820.641	27.7
820.816	27.14
820.99	26.34
821.165	25.94
821.339	25.33
821.514	25.15
821.688	25.2
821.863	24.92
822.037	25.16
822.212	25.07
822.386	24.63
822.56	24.61
822.735	24.57
822.909	24.48
823.084	24.72
823.258	24.93
823.432	25.06
823.606	25.21
823.781	25.47
823.955	25.38
824.129	25.62
824.303	26.04
824.478	25.99
824.652	26.26
824.826	26.87
825	26.78
825.174	26.58
825.348	26.78
825.523	26.61
825.697	26.61
825.871	26.57
826.045	26.36
826.219	26.08
826.393	26.26
826.567	26.33
826.741	26.02
826.915	25.84
827.089	25.78
827.263	25.62
827.437	26.09
827.611	26.15
827.784	25.99
827.958	25.75
828.132	25.85
828.306	26.11
828.48	26.02
828.654	26.51
828.827	27.2
829.001	27.62
829.175	27.99
829.349	27.81
829.522	27.95
829.696	29.22
829.87	30.46
830.044	30.69
830.217	30.88
830.391	32.08
830.565	31.23
830.738	30.49
830.912	30.19
831.085	30.04
831.259	30.7
831.432	29.26
831.606	28.93
831.779	28.02
831.953	27.98
832.126	27.4
832.3	26.08
832.473	27
832.647	27.09
832.82	27.18
832.994	26.58
833.167	26.36
833.34	26.83
833.514	26.76
833.687	26.33
833.86	26.24
834.034	26.52
834.207	27.28
834.38	27.04
834.553	27.55
834.727	28.09
834.9	28.54
835.073	28.29
835.246	28.36
835.419	27.96
835.593	28.91
835.766	28.63
835.939	28.98
836.112	29.43
836.285	29.28
836.458	29.29
836.631	29.2
836.804	29.63
836.977	29.84
837.15	30.24
837.323	32.32
837.496	32.89
837.669	34.78
837.842	35.41
838.015	35.41
838.188	36.24
838.361	34.76
838.533	34.43
838.706	34.79
838.879	36.86
839.052	36.49
839.225	35.07
839.398	31.74
839.57	30.5
839.743	30.17
839.916	30.26
840.088	28.96
840.261	31.83
840.434	30.94
840.607	30.79
840.779	30.02
840.952	29.5
841.124	28.79
841.297	32.25
841.47	32.05
841.642	31.58
841.815	32.46
841.987	33.51
842.16	31.62
842.332	32.66
842.505	33.39
842.677	34.38
842.85	34.94
843.022	35.62
843.194	34.63
843.367	36.92
843.539	37.4
843.712	33.41
843.884	34.84
844.056	35.75
844.229	33.4
844.401	32.74
844.573	32.7
844.745	36.39
844.918	38.25
845.09	38.34
845.262	36.19
845.434	35.66
845.606	40.22
845.779	39.07
845.951	40.45
846.123	43.62
846.295	44.55
846.467	46.79
846.639	44.72
846.811	40.83
846.983	41.25
847.155	41.36
847.327	42.77
847.499	43.16
847.671	44.73
847.843	42.93
848.015	41.73
848.187	38.93
848.359	34.19
848.531	35.79
848.703	39.13
848.875	38.16
849.047	40.22
849.218	41.24
849.39	41.6
849.562	42.58
849.734	40.64
849.905	40.25
850.077	40.68
850.249	44.42
850.421	41.67
850.592	44.56
850.764	47.9
850.936	45.84
851.107	42.83
851.279	43.9
851.451	43.22
851.622	44.74
851.794	48.62
851.965	50.59
852.137	50.68
852.308	51.32
852.48	49.34
852.651	49.55
852.823	48.72
852.994	48.16
853.166	46.85
853.337	48.36
853.509	50.27
853.68	46.15
853.851	43.7
854.023	39.57
854.194	42.23
854.365	42.94
854.537	40.62
854.708	40.51
854.879	42.82
855.05	42.12
855.222	40.84
855.393	38.11
855.564	37.01
855.735	39.17
855.906	41.17
856.078	42.17
856.249	40.88
856.42	40.66
856.591	40.67
856.762	41.25
856.933	44.23
857.104	41.72
857.275	40.94
857.446	43.04
857.617	43.7
857.788	43.53
857.959	37.08
858.13	37.1
858.301	36.39
858.472	40.65
858.643	37
858.814	33.31
858.985	34.43
859.155	36.35
859.326	35.88
859.497	36.71
859.668	38.19
859.839	43
860.009	41.03
860.18	41.85
860.351	39.79
860.522	44.26
860.692	45.02
860.863	44.34
861.034	43.87
861.204	46.71
861.375	44.99
861.546	43.3
861.716	41.55
861.887	42.45
862.057	44.08
862.228	46.05
862.398	44.43
862.569	45.4
862.739	49.45
862.91	49.25
863.08	45.45
863.251	49.82
863.421	50.4
863.592	49.99
863.762	55.01
863.932	52.65
864.103	56.66
864.273	57.07
864.443	54.04
864.614	50.75
864.784	51.48
864.954	53.81
865.125	49.48
865.295	47.87
865.465	49.3
865.635	44.98
865.805	44.25
865.976	38.1
866.146	37.76
866.316	39.2
866.486	38.64
866.656	41.22
866.826	41.13
866.996	42.85
867.166	45.46
867.336	43.46
867.506	45.19
867.676	47.79
867.846	45.71
868.016	44.95
868.186	46.12
868.356	46.38
868.526	41.77
868.696	41.56
868.866	43.91
869.036	44.4
869.206	42.04
869.376	40.8
869.545	36.18
869.715	39
869.885	39.43
870.055	39.06
870.224	38.35
870.394	40.16
870.564	42.16
870.734	35.99
870.903	36.46
871.073	41.8
871.243	39.71
871.412	40.59
871.582	41.89
871.751	45.35
871.921	43.13
872.091	45.38
872.26	46.48
872.43	43.22
872.599	43.1
872.769	38.01
872.938	37.81
873.108	38.98
873.277	40.94
873.446	41.92
873.616	37.15
873.785	39.53
873.955	36.88
874.124	36.94
874.293	37.15
874.463	39.97
874.632	40.33
874.801	40.65
874.971	42.2
875.14	41.88
875.309	39.52
875.478	41.32
875.647	40.35
875.817	40.51
875.986	38.99
876.155	40.93
876.324	42.08
876.493	44.09
876.662	42
876.831	42.25
877	40.13
877.17	40.58
877.339	39.46
877.508	37.55
877.677	42.8
877.846	44.67
878.015	42.65
878.184	41.85
878.352	42.94
878.521	43.36
878.69	42.64
878.859	43.56
879.028	46.48
879.197	45.44
879.366	45.69
879.534	42.24
879.703	40.83
879.872	40.1
880.041	39.16
880.21	36.96
880.378	35.93
880.547	35.5
880.716	34.07
880.884	31.66
881.053	31.05
881.222	28.82
881.39	27.67
881.559	26.16
881.727	26.03
881.896	25.23
882.065	25.29
882.233	25.18
882.402	24.17
882.57	24.62
882.739	24.96
882.907	25.19
883.076	26.09
883.244	26.07
883.412	26.38
883.581	26.27
883.749	25.95
883.918	25.9
884.086	25.54
884.254	26
884.423	25.84
884.591	24.98
884.759	24.68
884.927	25.83
885.096	26.64
885.264	27.17
885.432	27.81
885.6	30.05
885.769	29.7
885.937	30.11
886.105	30.58
886.273	30.3
886.441	31.51
886.609	31.02
886.777	28.15
886.945	28.09
887.113	31.34
887.281	30.4
887.449	30.55
887.617	30.88
887.785	31.8
887.953	30.41
888.121	33.52
888.289	37.31
888.457	39.71
888.625	41.64
888.793	45.01
888.961	42.08
889.129	47.17
889.296	45.29
889.464	47.75
889.632	49.9
889.8	55.59
889.967	54.05
890.135	51.23
