Data from 2938788__Reflection_01.txt Node
Date: Fri Mar 13 11:42:27 EDT 2015
User: robert
Spectrometer: USB4E03002
Autoset integration time: false
Trigger mode: 4
Integration Time (sec): 1.000000E-1
Scans to average: 10
Electric dark correction enabled: false
Nonlinearity correction enabled: false
Boxcar width: 5
Stray light correction enabled: false
XAxis mode: Wavelengths
Stop averaging: false
Number of Pixels in Spectrum: 3648
>>>>>Begin Spectral Data<<<<<
177.575	-465
177.794	-5271.43
178.014	-810.43
178.233	-621.98
178.452	-447.73
178.672	-337.61
178.891	-411.46
179.11	-445.61
179.33	-456.73
179.549	-565.88
179.768	-653
179.987	-1045.59
180.207	-685.98
180.426	-1118.75
180.645	-2029.49
180.864	-7687.8
181.084	2442.54
181.303	3576.4
181.522	1801.13
181.741	4216.22
181.96	1726.14
182.179	759.12
182.398	666.6
182.618	530.87
182.837	590.3
183.056	423.51
183.275	415.79
183.494	458.81
183.713	417.14
183.932	390.58
184.151	361.67
184.37	428.83
184.589	520.58
184.808	623.77
185.027	648.66
185.246	632.62
185.465	2376.07
185.684	1165.68
185.903	1332.02
186.122	1473.18
186.341	5456.86
186.56	2383.62
186.779	3316.87
186.998	1659.2
187.216	-4040.63
187.435	-932.43
187.654	-1069.32
187.873	-1424.43
188.092	-3779.71
188.311	20038.46
188.53	-3207.41
188.748	8218.75
188.967	-1304.62
189.186	-1371.51
189.405	-666.57
189.623	-2376.47
189.842	5770.21
190.061	2021.54
190.28	2909.78
190.498	-1541.18
190.717	-1240.37
190.936	-984.44
191.154	-614.25
191.373	-1798.66
191.592	-1551.16
191.81	-1280
192.029	-1076.8
192.248	-984.74
192.466	-3597.18
192.685	-18457.14
192.904	-983.72
193.122	-4536.36
193.341	1088
193.559	616.89
193.778	722.68
193.996	577.91
194.215	618.74
194.433	620.04
194.652	554.14
194.87	1066.55
195.089	808.11
195.307	417.65
195.526	464.6
195.744	519.93
195.963	453.97
196.181	398.9
196.399	445.54
196.618	375.11
196.836	410.21
197.055	481.14
197.273	509.23
197.491	609.39
197.71	572.48
197.928	820
198.146	881.03
198.365	7571.88
198.583	-4533.96
198.801	-1810.61
199.019	-1923.44
199.238	-5058
199.456	1714.09
199.674	900.34
199.892	684.8
200.111	1080.26
200.329	1005.91
200.547	881.98
200.765	650.99
200.983	573.97
201.202	571.69
201.42	697.36
201.638	742.99
201.856	1253.57
202.074	1502.55
202.292	-4001.61
202.51	16050
202.728	8917.24
202.946	-3197.4
203.165	-3280
203.383	5076.92
203.601	1994.07
203.819	4914.55
204.037	948.56
204.255	978.4
204.473	1187.56
204.691	631.75
204.909	566.52
205.127	584.7
205.345	650.98
205.562	799.03
205.78	1043.72
205.998	1019.15
206.216	575.74
206.434	973.38
206.652	630
206.87	646.51
207.088	619.81
207.306	844.08
207.523	674.8
207.741	546.09
207.959	488.01
208.177	678.44
208.395	720.8
208.612	1071.15
208.83	729.73
209.048	815.46
209.266	1072.58
209.483	931.23
209.701	953.73
209.919	1507.27
210.136	1179.37
210.354	991.01
210.572	684.39
210.79	523.18
211.007	525
211.225	631.25
211.442	660.25
211.66	449.24
211.878	518.1
212.095	-1337.3
212.313	-3480.85
212.53	-2192
212.748	-1599.51
212.966	-2788.89
213.183	-1880.72
213.401	-2920.54
213.618	5798.18
213.836	-18229.41
214.053	-10290.32
214.271	11857.69
214.488	291.25
214.705	303.46
214.923	253.14
215.14	265.04
215.358	298.25
215.575	359.18
215.793	326.76
216.01	498.15
216.227	472.11
216.445	492.46
216.662	526.36
216.879	678.71
217.097	591.55
217.314	549.56
217.531	360.51
217.749	323.12
217.966	265.23
218.183	232.96
218.4	214.2
218.618	220.35
218.835	200.59
219.052	202.95
219.269	178.3
219.487	169.28
219.704	177.37
219.921	183.88
220.138	183.62
220.355	178.35
220.572	173.28
220.79	162.38
221.007	155.32
221.224	160.06
221.441	154.9
221.658	152.46
221.875	149.93
222.092	140.06
222.309	124.13
222.526	120.48
222.743	123.16
222.96	120.69
223.177	123.48
223.394	110.21
223.611	102.51
223.828	96.46
224.045	99.33
224.262	93.42
224.479	88.12
224.696	91.8
224.913	83.66
225.13	79.56
225.347	70.37
225.564	68.07
225.781	65.55
225.997	63.88
226.214	60.28
226.431	54.41
226.648	51.95
226.865	48.34
227.082	42.62
227.298	38.75
227.515	33.25
227.732	30.63
227.949	26.57
228.165	24.79
228.382	22.32
228.599	21.75
228.816	20.61
229.032	19.2
229.249	18.33
229.466	17.42
229.682	17.07
229.899	17.95
230.116	18.39
230.332	18.44
230.549	18.93
230.765	20.73
230.982	20.65
231.199	22.25
231.415	23.37
231.632	24.86
231.848	26.93
232.065	29.08
232.281	28.42
232.498	28.76
232.714	29.58
232.931	30.34
233.147	30.17
233.364	30.36
233.58	29.41
233.797	28.1
234.013	29.19
234.23	28.8
234.446	29.25
234.662	29.31
234.879	29.29
235.095	29.66
235.312	28.88
235.528	30.19
235.744	30.83
235.961	31.4
236.177	33.6
236.393	32.61
236.61	32.79
236.826	30.35
237.042	32.27
237.258	31.56
237.475	31.5
237.691	32.68
237.907	30.93
238.123	29.86
238.339	30.41
238.556	29.64
238.772	29.06
238.988	28.55
239.204	28.87
239.42	25.91
239.636	26.54
239.853	25.47
240.069	24.03
240.285	22.77
240.501	21.88
240.717	20.61
240.933	18.95
241.149	18.12
241.365	17.09
241.581	16.39
241.797	16.15
242.013	15.4
242.229	15.21
242.445	14.52
242.661	14.28
242.877	14.29
243.093	13.9
243.309	13.57
243.525	13.97
243.741	14.01
243.957	14.18
244.173	14.52
244.388	14.59
244.604	14.46
244.82	15.06
245.036	14.5
245.252	13.69
245.468	13.51
245.683	13.68
245.899	12.4
246.115	12.24
246.331	11.45
246.547	10.91
246.762	10.46
246.978	10.1
247.194	9.7
247.409	9.58
247.625	9.54
247.841	9.23
248.057	8.84
248.272	8.94
248.488	8.93
248.703	9.26
248.919	9.46
249.135	9.71
249.35	10.28
249.566	11.11
249.782	11.79
249.997	12.34
250.213	13.03
250.428	14.07
250.644	14.92
250.859	14.62
251.075	14.29
251.29	15.01
251.506	14.46
251.721	14.65
251.937	14.24
252.152	14.23
252.368	14.15
252.583	14.06
252.798	14.3
253.014	14.69
253.229	15
253.445	15.5
253.66	14.63
253.875	16.06
254.091	16.78
254.306	17
254.521	17.71
254.737	18.65
254.952	18.34
255.167	18.43
255.383	18.34
255.598	17.78
255.813	18.35
256.028	18.69
256.244	17.11
256.459	17.06
256.674	16.83
256.889	15.68
257.104	15.38
257.32	15.09
257.535	14.03
257.75	12.94
257.965	13.1
258.18	12.02
258.395	11.14
258.61	10.71
258.826	9.5
259.041	9.2
259.256	8.85
259.471	8.09
259.686	7.87
259.901	7.65
260.116	7.52
260.331	6.99
260.546	7.17
260.761	7.29
260.976	7.45
261.191	7.25
261.406	7.08
261.621	7.29
261.836	7.33
262.05	7.81
262.265	8.18
262.48	8.68
262.695	9.74
262.91	10.22
263.125	11.01
263.34	11.01
263.555	12.32
263.769	12.87
263.984	12.98
264.199	14.01
264.414	13.47
264.629	13.52
264.843	13.27
265.058	12.48
265.273	11.74
265.488	10.7
265.702	10.33
265.917	9.83
266.132	9.54
266.346	9.39
266.561	9.21
266.776	9.66
266.99	9.73
267.205	9.55
267.42	9.63
267.634	9.25
267.849	9.57
268.063	9.87
268.278	9.6
268.492	9.92
268.707	9.96
268.922	9.75
269.136	9.84
269.351	9.01
269.565	8.64
269.78	8.21
269.994	8.15
270.209	7.79
270.423	7.6
270.637	7.7
270.852	7.59
271.066	7.56
271.281	8.04
271.495	7.77
271.709	8.13
271.924	8.43
272.138	8.89
272.353	8.99
272.567	9.24
272.781	9.6
272.996	9.72
273.21	9.77
273.424	9.46
273.638	8.73
273.853	8.6
274.067	8.74
274.281	8.79
274.495	8.87
274.71	9.46
274.924	9.64
275.138	9.58
275.352	9.32
275.566	9.29
275.781	9.47
275.995	10.17
276.209	10.85
276.423	11.04
276.637	11.17
276.851	11.07
277.065	10.33
277.279	9.99
277.493	9.53
277.707	9.79
277.921	9.35
278.135	9.6
278.349	9.13
278.563	8.56
278.777	8.37
278.991	8.39
279.205	8.57
279.419	8.98
279.633	8.8
279.847	8.95
280.061	9
280.275	8.83
280.489	8.82
280.703	8.96
280.917	8.74
281.131	8.9
281.344	8.55
281.558	8.1
281.772	8.19
281.986	8.51
282.2	8.59
282.414	8.33
282.627	8.8
282.841	8.69
283.055	8.97
283.269	9.13
283.482	8.7
283.696	8.56
283.91	8.6
284.123	8.2
284.337	7.84
284.551	7.51
284.764	7.59
284.978	7.1
285.192	6.71
285.405	6.37
285.619	6.27
285.833	6.37
286.046	6.6
286.26	6.56
286.473	6.66
286.687	6.7
286.9	6.94
287.114	6.74
287.327	7.09
287.541	7.55
287.754	7.57
287.968	7.75
288.181	7.75
288.395	7.62
288.608	7.6
288.822	7.62
289.035	7.46
289.248	7.13
289.462	7.23
289.675	6.97
289.889	7.05
290.102	6.96
290.315	6.76
290.529	6.77
290.742	6.87
290.955	7.04
291.169	7.19
291.382	7.57
291.595	7.85
291.808	7.94
292.022	8.31
292.235	7.9
292.448	8.22
292.661	8.5
292.875	8.61
293.088	8.56
293.301	8.61
293.514	8.58
293.727	8.35
293.94	8.62
294.153	8.42
294.367	8.1
294.58	8.17
294.793	8.06
295.006	7.78
295.219	7.58
295.432	7.64
295.645	7.47
295.858	7.1
296.071	7.13
296.284	6.83
296.497	6.75
296.71	6.63
296.923	6.76
297.136	6.71
297.349	6.78
297.562	6.92
297.775	6.68
297.988	6.74
298.201	7.06
298.414	6.92
298.626	6.91
298.839	6.91
299.052	7.12
299.265	7.43
299.478	7.57
299.691	7.86
299.903	8.31
300.116	8.77
300.329	8.76
300.542	8.76
300.755	9.12
300.967	9.22
301.18	9.69
301.393	9.66
301.605	9.44
301.818	9.38
302.031	9.28
302.243	8.76
302.456	8.68
302.669	8.92
302.881	8.76
303.094	9.06
303.307	9.31
303.519	9.37
303.732	9.59
303.944	9.4
304.157	9.45
304.37	9.22
304.582	9.63
304.795	9.86
305.007	9.93
305.22	10.29
305.432	9.99
305.645	10.06
305.857	10.19
306.069	10.53
306.282	10.71
306.494	10.97
306.707	11.54
306.919	11.55
307.132	11.52
307.344	11.52
307.556	11.65
307.769	11.97
307.981	11.72
308.193	11.31
308.406	11
308.618	10.79
308.83	10.42
309.043	10.09
309.255	9.72
309.467	9.61
309.679	9.63
309.892	9.34
310.104	8.97
310.316	9.02
310.528	9.11
310.74	9.23
310.953	9.3
311.165	9.46
311.377	9.5
311.589	10.02
311.801	10.21
312.013	10.06
312.225	10.22
312.437	10.29
312.649	10.69
312.862	10.82
313.074	10.93
313.286	11.18
313.498	11.58
313.71	11.72
313.922	11.29
314.134	11.26
314.346	11.53
314.558	11.76
314.77	12.37
314.982	12.31
315.193	12.46
315.405	12.7
315.617	12.98
315.829	13.09
316.041	13.46
316.253	13.71
316.465	13.59
316.677	13.72
316.888	13.6
317.1	13.52
317.312	13.67
317.524	14.14
317.736	14.06
317.947	14.5
318.159	14.35
318.371	14.19
318.583	14.2
318.794	14.81
319.006	14.87
319.218	15.15
319.43	15.16
319.641	15.16
319.853	14.83
320.064	15.3
320.276	14.68
320.488	15.08
320.699	14.92
320.911	15.55
321.123	15.25
321.334	15.07
321.546	15.16
321.757	15.4
321.969	15.34
322.18	15.53
322.392	15.16
322.603	15.56
322.815	15.15
323.026	15.63
323.238	15.44
323.449	15.12
323.661	15.56
323.872	15.13
324.083	14.78
324.295	14.55
324.506	14.04
324.718	13.95
324.929	13.81
325.14	13.83
325.352	13.73
325.563	14.06
325.774	14.42
325.986	14.29
326.197	14.68
326.408	15.1
326.62	15.3
326.831	15.67
327.042	15.83
327.253	16.17
327.464	16.25
327.676	16.06
327.887	15.72
328.098	15.56
328.309	15.2
328.52	15.22
328.732	14.99
328.943	15.25
329.154	15.8
329.365	15.95
329.576	15.56
329.787	15.93
329.998	16.33
330.209	16.13
330.42	16.36
330.631	16.7
330.842	16.38
331.053	16.41
331.264	16.23
331.475	15.94
331.686	16.14
331.897	16.28
332.108	15.96
332.319	16.04
332.53	16.34
332.741	16.19
332.952	16.45
333.163	16.53
333.374	16.65
333.585	16.73
333.795	16.62
334.006	16.19
334.217	16.04
334.428	16.01
334.639	15.99
334.849	15.59
335.06	15.85
335.271	15.55
335.482	16.03
335.692	15.9
335.903	15.86
336.114	15.56
336.325	15.76
336.535	15.87
336.746	15.65
336.957	15.78
337.167	16.23
337.378	16.23
337.589	16.35
337.799	15.91
338.01	16.01
338.22	15.81
338.431	15.69
338.642	15.43
338.852	15.4
339.063	15.84
339.273	15.7
339.484	15.32
339.694	15.22
339.905	15.32
340.115	15.37
340.326	15.35
340.536	15.27
340.746	15.41
340.957	15.54
341.167	15.77
341.378	15.94
341.588	15.96
341.799	16.26
342.009	15.83
342.219	15.57
342.43	15.73
342.64	15.57
342.85	15.82
343.061	15.61
343.271	15.86
343.481	15.41
343.691	15.06
343.902	14.96
344.112	15.07
344.322	15.43
344.532	15.49
344.743	15.08
344.953	14.87
345.163	14.49
345.373	14.58
345.583	14.42
345.793	14.68
346.004	14.73
346.214	14.67
346.424	14.59
346.634	14.71
346.844	14.8
347.054	15.31
347.264	15.32
347.474	15.58
347.684	16.02
347.894	15.8
348.104	15.69
348.314	15.54
348.524	15.48
348.734	15.24
348.944	15
349.154	14.75
349.364	14.39
349.574	14.53
349.784	14.78
349.994	14.54
350.204	14.71
350.413	14.52
350.623	14.41
350.833	14.21
351.043	14.25
351.253	14.25
351.463	14.03
351.672	14.19
351.882	13.84
352.092	13.47
352.302	13.33
352.511	13.28
352.721	13.56
352.931	13.42
353.141	13.49
353.35	13.27
353.56	12.9
353.77	12.92
353.979	12.79
354.189	13.04
354.399	12.93
354.608	13.01
354.818	12.53
355.027	12.5
355.237	12.75
355.447	12.75
355.656	12.82
355.866	12.95
356.075	13.17
356.285	13.23
356.494	12.99
356.704	13.1
356.913	13.03
357.123	13.39
357.332	13.2
357.542	13.01
357.751	13.04
357.96	13.03
358.17	13
358.379	12.93
358.589	12.79
358.798	12.96
359.007	12.9
359.217	12.85
359.426	12.57
359.635	12.53
359.845	12.43
360.054	12.25
360.263	11.99
360.472	11.89
360.682	11.73
360.891	11.69
361.1	11.42
361.309	11.21
361.519	11.31
361.728	11.22
361.937	11.3
362.146	11.3
362.355	11.3
362.564	11.5
362.774	11.5
362.983	11.48
363.192	11.38
363.401	11.47
363.61	11.54
363.819	11.45
364.028	11.74
364.237	11.62
364.446	11.7
364.655	11.55
364.864	11.23
365.073	11.31
365.282	11.47
365.491	11.45
365.7	11.48
365.909	11.49
366.118	11.58
366.327	11.35
366.536	11.55
366.745	11.53
366.954	11.89
367.162	12.23
367.371	12.21
367.58	12.39
367.789	12.5
367.998	12.62
368.207	12.86
368.415	12.74
368.624	13.08
368.833	13.13
369.042	13.17
369.25	13.08
369.459	13.12
369.668	13.04
369.877	12.71
370.085	12.65
370.294	12.6
370.503	12.44
370.711	12.25
370.92	11.85
371.129	11.75
371.337	11.62
371.546	11.6
371.754	11.48
371.963	11.24
372.171	11.2
372.38	11.56
372.589	11.53
372.797	11.51
373.006	11.72
373.214	11.9
373.423	11.64
373.631	11.61
373.84	11.71
374.048	11.64
374.256	11.9
374.465	12.01
374.673	11.62
374.882	11.63
375.09	11.75
375.298	11.56
375.507	11.55
375.715	11.47
375.923	11.6
376.132	11.44
376.34	11.3
376.548	11.23
376.757	11.09
376.965	11.15
377.173	11.08
377.381	10.88
377.59	11.11
377.798	11.15
378.006	11.27
378.214	11.05
378.423	11.02
378.631	11.09
378.839	11.05
379.047	11.14
379.255	11.04
379.463	11.25
379.671	11.23
379.879	10.93
380.088	10.73
380.296	10.73
380.504	10.7
380.712	10.52
380.92	10.45
381.128	10.51
381.336	10.33
381.544	10.2
381.752	9.96
381.96	9.89
382.168	9.96
382.376	10.01
382.584	10.06
382.791	10.41
382.999	10.23
383.207	10.39
383.415	10.29
383.623	10.3
383.831	10.38
384.039	10.46
384.247	10.6
384.454	10.52
384.662	10.66
384.87	10.52
385.078	10.18
385.285	10.31
385.493	10.19
385.701	10.18
385.909	10.18
386.116	10.12
386.324	9.87
386.532	9.79
386.739	9.82
386.947	9.72
387.155	9.9
387.362	9.98
387.57	9.85
387.778	9.85
387.985	9.86
388.193	9.97
388.4	9.97
388.608	10.33
388.816	10.26
389.023	10.27
389.231	10.1
389.438	9.66
389.646	9.72
389.853	9.89
390.061	9.78
390.268	9.84
390.475	9.65
390.683	9.62
390.89	9.46
391.098	9.52
391.305	9.5
391.512	9.4
391.72	9.75
391.927	9.56
392.135	9.48
392.342	9.56
392.549	9.6
392.756	9.56
392.964	9.54
393.171	9.53
393.378	9.61
393.586	9.41
393.793	9.39
394	9.24
394.207	9.37
394.414	9.33
394.622	9.27
394.829	9.22
395.036	9.29
395.243	9.39
395.45	9.27
395.657	9.13
395.864	9.35
396.072	9.49
396.279	9.51
396.486	9.36
396.693	9.53
396.9	9.6
397.107	9.58
397.314	9.8
397.521	9.79
397.728	9.83
397.935	9.76
398.142	9.6
398.349	9.65
398.556	9.68
398.763	9.87
398.97	9.75
399.177	9.59
399.383	9.56
399.59	9.51
399.797	9.51
400.004	9.5
400.211	9.71
400.418	9.78
400.625	9.76
400.831	9.74
401.038	9.84
401.245	9.93
401.452	10.16
401.658	10.23
401.865	10.19
402.072	10.01
402.279	10.04
402.485	9.67
402.692	9.5
402.899	9.48
403.105	9.51
403.312	9.23
403.519	9.02
403.725	9.03
403.932	8.74
404.138	8.64
404.345	8.75
404.552	8.73
404.758	8.98
404.965	8.94
405.171	8.91
405.378	8.84
405.584	8.97
405.791	9.12
405.997	8.99
406.204	9.24
406.41	9.23
406.617	9.29
406.823	9.37
407.029	9.42
407.236	9.47
407.442	9.52
407.649	9.57
407.855	9.49
408.061	9.48
408.268	9.53
408.474	9.38
408.68	9.35
408.887	9.29
409.093	9.34
409.299	9.31
409.505	9.51
409.712	9.51
409.918	9.47
410.124	9.57
410.33	9.44
410.537	9.39
410.743	9.43
410.949	9.52
411.155	9.53
411.361	9.38
411.567	9.25
411.773	9.19
411.98	9.06
412.186	9.12
412.392	9.19
412.598	9.33
412.804	9.32
413.01	9.45
413.216	9.44
413.422	9.34
413.628	9.35
413.834	9.33
414.04	9.33
414.246	9.43
414.452	9.18
414.658	9.04
414.864	8.84
415.07	8.9
415.275	8.74
415.481	8.74
415.687	8.64
415.893	8.59
416.099	8.62
416.305	8.57
416.511	8.63
416.716	8.71
416.922	8.74
417.128	8.8
417.334	8.69
417.539	8.71
417.745	8.55
417.951	8.62
418.157	8.64
418.362	8.59
418.568	8.53
418.774	8.37
418.979	8.37
419.185	8.25
419.391	8.21
419.596	8.16
419.802	8.13
420.008	8.22
420.213	8.23
420.419	8.24
420.624	8.22
420.83	8.24
421.035	8.27
421.241	8.26
421.446	8.25
421.652	8.21
421.857	8.23
422.063	8.26
422.268	8.19
422.474	8.2
422.679	8.25
422.885	8.25
423.09	8.24
423.295	8.24
423.501	8.25
423.706	8.35
423.911	8.43
424.117	8.45
424.322	8.34
424.527	8.34
424.733	8.33
424.938	8.27
425.143	8.26
425.349	8.24
425.554	8.23
425.759	8.26
425.964	8.2
426.169	8.28
426.375	8.36
426.58	8.53
426.785	8.64
426.99	8.72
427.195	8.79
427.4	8.92
427.605	9.01
427.811	9.1
428.016	9.15
428.221	9.31
428.426	9.26
428.631	9.18
428.836	9.17
429.041	9.15
429.246	9.14
429.451	9.15
429.656	9.19
429.861	9.27
430.066	9.14
430.271	9.12
430.476	8.95
430.681	8.93
430.886	8.95
431.09	9.01
431.295	9.03
431.5	9.07
431.705	9.02
431.91	9.06
432.115	8.93
432.32	9.15
432.524	9.16
432.729	9.3
432.934	9.24
433.139	9.24
433.343	9.22
433.548	9.16
433.753	9.13
433.958	9.15
434.162	9.07
434.367	9.21
434.572	9.12
434.776	9.08
434.981	9.03
435.186	9.17
435.39	9.32
435.595	9.26
435.799	9.29
436.004	9.27
436.209	9.23
436.413	9.31
436.618	9.34
436.822	9.43
437.027	9.41
437.231	9.43
437.436	9.39
437.64	9.34
437.845	9.43
438.049	9.56
438.253	9.58
438.458	9.69
438.662	9.65
438.867	9.65
439.071	9.69
439.275	9.68
439.48	9.71
439.684	9.69
439.888	9.67
440.093	9.64
440.297	9.51
440.501	9.5
440.706	9.45
440.91	9.45
441.114	9.4
441.318	9.36
441.523	9.42
441.727	9.37
441.931	9.43
442.135	9.45
442.339	9.46
442.543	9.63
442.748	9.6
442.952	9.65
443.156	9.68
443.36	9.74
443.564	9.74
443.768	9.76
443.972	9.77
444.176	9.79
444.38	9.64
444.584	9.59
444.788	9.4
444.992	9.41
445.196	9.39
445.4	9.38
445.604	9.38
445.808	9.41
446.012	9.42
446.216	9.46
446.42	9.46
446.624	9.57
446.828	9.55
447.032	9.61
447.235	9.65
447.439	9.64
447.643	9.67
447.847	9.66
448.051	9.65
448.254	9.59
448.458	9.61
448.662	9.54
448.866	9.58
449.069	9.76
449.273	9.73
449.477	9.73
449.681	9.77
449.884	9.79
450.088	9.87
450.292	9.83
450.495	9.87
450.699	9.85
450.902	9.89
451.106	9.87
451.31	9.85
451.513	10.01
451.717	9.98
451.92	10
452.124	10
452.327	9.88
452.531	9.83
452.734	9.83
452.938	9.8
453.141	9.93
453.345	9.91
453.548	9.88
453.752	9.75
453.955	9.81
454.158	9.82
454.362	9.79
454.565	9.78
454.769	9.92
454.972	10.05
455.175	10.1
455.379	9.97
455.582	10.02
455.785	9.93
455.988	10.02
456.192	10.03
456.395	9.99
456.598	10.06
456.801	10.16
457.005	10.16
457.208	10.09
457.411	10.02
457.614	10.03
457.817	9.98
458.021	9.96
458.224	9.96
458.427	9.85
458.63	9.86
458.833	9.77
459.036	9.74
459.239	9.63
459.442	9.55
459.645	9.56
459.848	9.49
460.051	9.47
460.254	9.53
460.457	9.53
460.66	9.64
460.863	9.64
461.066	9.69
461.269	9.7
461.472	9.85
461.675	9.92
461.878	9.96
462.081	10.07
462.284	10.14
462.486	10.09
462.689	10.02
462.892	10.01
463.095	9.93
463.298	9.98
463.5	10.02
463.703	9.89
463.906	9.86
464.109	9.8
464.311	9.76
464.514	9.7
464.717	9.78
464.92	9.88
465.122	9.85
465.325	10.03
465.528	10.01
465.73	10.11
465.933	10.13
466.135	10.27
466.338	10.25
466.541	10.3
466.743	10.28
466.946	10.21
467.148	10.21
467.351	10.32
467.553	10.24
467.756	10.16
467.958	9.97
468.161	10.05
468.363	9.92
468.566	9.97
468.768	10
468.971	10.07
469.173	10.1
469.375	10.13
469.578	10.08
469.78	10.01
469.983	10.08
470.185	10.1
470.387	10.11
470.59	10.12
470.792	10.14
470.994	10.16
471.196	10.17
471.399	10.08
471.601	10.13
471.803	10.08
472.005	10.07
472.208	10.06
472.41	10.13
472.612	10.17
472.814	10.21
473.016	10.29
473.218	10.31
473.421	10.3
473.623	10.43
473.825	10.41
474.027	10.39
474.229	10.42
474.431	10.39
474.633	10.4
474.835	10.31
475.037	10.4
475.239	10.32
475.441	10.37
475.643	10.41
475.845	10.41
476.047	10.31
476.249	10.28
476.451	10.35
476.653	10.44
476.855	10.49
477.057	10.44
477.258	10.3
477.46	10.31
477.662	10.18
477.864	10.16
478.066	10.16
478.268	10.16
478.469	10.24
478.671	10.24
478.873	10.21
479.075	10.09
479.276	10.12
479.478	10.21
479.68	10.18
479.882	10.23
480.083	10.23
480.285	10.18
480.487	10.2
480.688	10.14
480.89	10.05
481.091	10.02
481.293	10.02
481.495	9.94
481.696	9.91
481.898	9.86
482.099	9.82
482.301	9.76
482.502	9.75
482.704	9.68
482.905	9.67
483.107	9.64
483.308	9.59
483.51	9.54
483.711	9.55
483.913	9.49
484.114	9.48
484.315	9.47
484.517	9.46
484.718	9.41
484.92	9.42
485.121	9.39
485.322	9.41
485.524	9.43
485.725	9.45
485.926	9.46
486.127	9.51
486.329	9.48
486.53	9.48
486.731	9.5
486.932	9.49
487.134	9.48
487.335	9.46
487.536	9.42
487.737	9.45
487.938	9.45
488.139	9.45
488.341	9.46
488.542	9.5
488.743	9.47
488.944	9.47
489.145	9.49
489.346	9.54
489.547	9.57
489.748	9.61
489.949	9.65
490.15	9.66
490.351	9.65
490.552	9.63
490.753	9.66
490.954	9.68
491.155	9.71
491.356	9.75
491.557	9.75
491.758	9.78
491.959	9.81
492.159	9.78
492.36	9.78
492.561	9.81
492.762	9.83
492.963	9.81
493.164	9.78
493.364	9.76
493.565	9.77
493.766	9.73
493.967	9.69
494.167	9.7
494.368	9.73
494.569	9.77
494.769	9.81
494.97	9.87
495.171	9.98
495.371	10.14
495.572	10.12
495.773	10.16
495.973	10.19
496.174	10.27
496.375	10.27
496.575	10.21
496.776	10.31
496.976	10.31
497.177	10.3
497.377	10.25
497.578	10.26
497.778	10.41
497.979	10.48
498.179	10.51
498.38	10.56
498.58	10.62
498.78	10.68
498.981	10.66
499.181	10.7
499.382	10.75
499.582	10.78
499.782	10.73
499.983	10.71
500.183	10.7
500.383	10.72
500.584	10.7
500.784	10.66
500.984	10.71
501.184	10.7
501.385	10.67
501.585	10.64
501.785	10.69
501.985	10.71
502.185	10.76
502.386	10.77
502.586	10.83
502.786	10.85
502.986	10.94
503.186	10.98
503.386	10.99
503.586	11.05
503.786	11.03
503.987	11.04
504.187	11
504.387	11.04
504.587	11.07
504.787	11.04
504.987	11.08
505.187	11.01
505.387	11.03
505.587	11.03
505.786	11.05
505.986	11.08
506.186	11.17
506.386	11.3
506.586	11.3
506.786	11.22
506.986	11.37
507.186	11.35
507.386	11.41
507.585	11.49
507.785	11.54
507.985	11.59
508.185	11.69
508.384	11.72
508.584	11.71
508.784	11.68
508.984	11.82
509.183	11.76
509.383	11.76
509.583	11.81
509.782	11.76
509.982	11.73
510.182	11.66
510.381	11.63
510.581	11.59
510.781	11.61
510.98	11.68
511.18	11.6
511.379	11.67
511.579	11.77
511.778	11.77
511.978	11.84
512.177	11.96
512.377	11.97
512.576	12.01
512.776	12.06
512.975	12.09
513.175	12.16
513.374	12.2
513.573	12.28
513.773	12.39
513.972	12.5
514.172	12.5
514.371	12.57
514.57	12.7
514.77	12.74
514.969	12.77
515.168	12.86
515.367	12.86
515.567	13.01
515.766	12.95
515.965	12.93
516.164	12.84
516.364	12.94
516.563	12.8
516.762	12.8
516.961	12.75
517.16	12.8
517.359	12.81
517.559	12.89
517.758	12.84
517.957	12.79
518.156	12.81
518.355	12.87
518.554	12.72
518.753	12.8
518.952	12.83
519.151	12.89
519.35	12.91
519.549	12.89
519.748	12.86
519.947	12.93
520.146	13.05
520.345	12.99
520.544	13.03
520.743	13.16
520.942	13.16
521.141	13.2
521.339	13.21
521.538	13.16
521.737	13.29
521.936	13.29
522.135	13.3
522.333	13.32
522.532	13.46
522.731	13.47
522.93	13.46
523.129	13.55
523.327	13.58
523.526	13.67
523.725	13.74
523.923	13.67
524.122	13.72
524.321	13.72
524.519	13.71
524.718	13.69
524.917	13.72
525.115	13.78
525.314	13.81
525.512	13.85
525.711	13.85
525.909	13.92
526.108	13.93
526.306	13.89
526.505	13.93
526.703	13.97
526.902	13.98
527.1	13.98
527.299	14
527.497	13.99
527.696	13.99
527.894	13.98
528.092	13.99
528.291	14.04
528.489	14.09
528.688	14.09
528.886	14.11
529.084	14.1
529.283	14.11
529.481	14.1
529.679	14.13
529.877	14.16
530.076	14.17
530.274	14.17
530.472	14.19
530.67	14.2
530.869	14.24
531.067	14.23
531.265	14.33
531.463	14.36
531.661	14.45
531.859	14.47
532.057	14.48
532.255	14.54
532.454	14.57
532.652	14.53
532.85	14.51
533.048	14.54
533.246	14.61
533.444	14.58
533.642	14.63
533.84	14.6
534.038	14.61
534.236	14.6
534.434	14.63
534.632	14.62
534.83	14.7
535.027	14.71
535.225	14.68
535.423	14.65
535.621	14.71
535.819	14.72
536.017	14.77
536.215	14.78
536.412	14.81
536.61	14.75
536.808	14.8
537.006	14.81
537.203	14.86
537.401	14.94
537.599	14.98
537.797	15
537.994	15.06
538.192	15.09
538.39	15.17
538.587	15.2
538.785	15.31
538.983	15.38
539.18	15.35
539.378	15.43
539.575	15.45
539.773	15.49
539.97	15.42
540.168	15.45
540.366	15.42
540.563	15.4
540.761	15.41
540.958	15.38
541.155	15.41
541.353	15.45
541.55	15.43
541.748	15.42
541.945	15.38
542.143	15.44
542.34	15.49
542.537	15.56
542.735	15.58
542.932	15.59
543.129	15.68
543.327	15.64
543.524	15.72
543.721	15.77
543.919	15.83
544.116	15.93
544.313	16.06
544.51	16.04
544.708	16.15
544.905	16.24
545.102	16.39
545.299	16.45
545.496	16.53
545.693	16.55
545.891	16.61
546.088	16.63
546.285	16.68
546.482	16.62
546.679	16.66
546.876	16.57
547.073	16.55
547.27	16.49
547.467	16.47
547.664	16.44
547.861	16.4
548.058	16.42
548.255	16.47
548.452	16.46
548.649	16.5
548.846	16.48
549.043	16.54
549.24	16.64
549.437	16.66
549.633	16.73
549.83	16.91
550.027	17.01
550.224	16.95
550.421	16.93
550.618	16.88
550.814	16.87
551.011	16.92
551.208	17.07
551.405	17.04
551.601	17.12
551.798	17.04
551.995	16.95
552.191	16.98
552.388	17.08
552.585	17.06
552.781	17.1
552.978	17.12
553.175	17.15
553.371	17.18
553.568	17.15
553.764	17.14
553.961	17.15
554.157	17.18
554.354	17.2
554.55	17.13
554.747	17.28
554.943	17.36
555.14	17.35
555.336	17.27
555.533	17.15
555.729	17.26
555.926	17.2
556.122	17.39
556.318	17.45
556.515	17.41
556.711	17.49
556.907	17.38
557.104	17.42
557.3	17.55
557.496	17.54
557.693	17.55
557.889	17.43
558.085	17.63
558.281	17.55
558.478	17.66
558.674	17.72
558.87	17.74
559.066	17.8
559.262	17.9
559.459	17.72
559.655	17.9
559.851	17.93
560.047	18.11
560.243	18.16
560.439	18.23
560.635	18.14
560.831	18.17
561.027	18.21
561.223	18.22
561.419	18.14
561.615	18.17
561.811	18.22
562.007	18.23
562.203	18.27
562.399	18.19
562.595	18.14
562.791	18.22
562.987	18.22
563.183	18.18
563.379	18.19
563.575	18.28
563.771	18.42
563.966	18.33
564.162	18.37
564.358	18.28
564.554	18.32
564.75	18.45
564.945	18.39
565.141	18.44
565.337	18.45
565.533	18.44
565.728	18.42
565.924	18.51
566.12	18.64
566.315	18.6
566.511	18.69
566.707	18.71
566.902	18.68
567.098	18.81
567.293	18.76
567.489	18.86
567.684	18.89
567.88	18.82
568.076	18.71
568.271	18.68
568.467	18.71
568.662	18.68
568.858	18.71
569.053	18.71
569.248	18.66
569.444	18.74
569.639	18.65
569.835	18.76
570.03	18.94
570.225	18.91
570.421	18.92
570.616	18.96
570.812	18.9
571.007	18.89
571.202	18.85
571.397	18.83
571.593	18.74
571.788	18.86
571.983	18.89
572.178	18.8
572.374	18.9
572.569	18.93
572.764	19.04
572.959	19.13
573.154	19.14
573.35	19.25
573.545	19.37
573.74	19.5
573.935	19.41
574.13	19.32
574.325	19.43
574.52	19.52
574.715	19.64
574.91	19.6
575.105	19.73
575.3	19.7
575.495	19.7
575.69	19.72
575.885	19.69
576.08	19.76
576.275	19.94
576.47	19.96
576.665	19.97
576.86	19.93
577.055	19.95
577.25	19.89
577.444	20.13
577.639	20.27
577.834	20.24
578.029	20.41
578.224	20.46
578.418	20.48
578.613	20.58
578.808	20.59
579.003	20.65
579.197	20.8
579.392	20.82
579.587	20.67
579.781	20.55
579.976	20.58
580.171	20.59
580.365	20.69
580.56	20.81
580.755	20.86
580.949	20.79
581.144	20.84
581.338	20.69
581.533	20.76
581.727	20.92
581.922	20.91
582.116	21.04
582.311	21.11
582.505	20.97
582.7	20.95
582.894	20.91
583.089	21.02
583.283	20.93
583.478	21.04
583.672	21.17
583.866	21.08
584.061	21.21
584.255	21.11
584.449	21.08
584.644	21.32
584.838	21.32
585.032	21.28
585.226	21.41
585.421	21.45
585.615	21.6
585.809	21.62
586.003	21.63
586.198	21.6
586.392	21.71
586.586	21.71
586.78	21.63
586.974	21.56
587.168	21.59
587.363	21.54
587.557	21.56
587.751	21.38
587.945	21.21
588.139	21.23
588.333	21.28
588.527	21.22
588.721	21.16
588.915	21.11
589.109	21.19
589.303	21.07
589.497	21
589.691	20.95
589.885	21.13
590.079	21.31
590.273	21.3
590.466	21.35
590.66	21.38
590.854	21.61
591.048	21.58
591.242	21.63
591.436	21.78
591.629	21.86
591.823	22.05
592.017	22.09
592.211	21.98
592.404	22.07
592.598	22
592.792	21.91
592.986	21.84
593.179	21.81
593.373	21.77
593.567	21.89
593.76	21.8
593.954	21.7
594.147	21.59
594.341	21.63
594.535	21.67
594.728	21.7
594.922	21.7
595.115	21.64
595.309	21.7
595.502	21.69
595.696	21.58
595.889	21.58
596.083	21.49
596.276	21.44
596.47	21.46
596.663	21.36
596.856	21.26
597.05	21.34
597.243	21.29
597.437	21.41
597.63	21.4
597.823	21.36
598.017	21.4
598.21	21.56
598.403	21.63
598.596	21.79
598.79	21.87
598.983	22.06
599.176	22.09
599.369	22.13
599.563	22.02
599.756	22.16
599.949	22.29
600.142	22.37
600.335	22.29
600.528	22.23
600.722	22.05
600.915	22.11
601.108	22.04
601.301	21.95
601.494	22.05
601.687	22.08
601.88	22
602.073	21.91
602.266	21.87
602.459	21.8
602.652	21.8
602.845	21.77
603.038	21.6
603.231	21.6
603.424	21.81
603.617	21.71
603.809	21.68
604.002	21.62
604.195	21.59
604.388	21.66
604.581	21.71
604.774	21.74
604.966	21.71
605.159	21.82
605.352	21.92
605.545	21.87
605.737	22
605.93	22.05
606.123	22.1
606.316	22.33
606.508	22.38
606.701	22.37
606.894	22.37
607.086	22.49
607.279	22.68
607.471	22.6
607.664	22.6
607.857	22.77
608.049	23.03
608.242	23.26
608.434	23.33
608.627	23.54
608.819	23.91
609.012	24.25
609.204	24.72
609.397	25.15
609.589	25.85
609.782	26.38
609.974	26.99
610.166	27.54
610.359	28.14
610.551	28.77
610.743	29.28
610.936	29.62
611.128	30.07
611.32	30.36
611.513	30.51
611.705	30.59
611.897	30.58
612.09	30.46
612.282	30.2
612.474	29.84
612.666	29.66
612.858	29.49
613.051	29.42
613.243	29.12
613.435	28.76
613.627	28.55
613.819	28.1
614.011	28.04
614.203	27.75
614.395	27.52
614.588	27.4
614.78	27.16
614.972	26.85
615.164	26.72
615.356	26.63
615.548	26.3
615.74	26.07
615.932	25.92
616.124	25.65
616.315	25.62
616.507	25.66
616.699	25.54
616.891	25.36
617.083	25.29
617.275	25.14
617.467	24.89
617.659	24.9
617.85	24.77
618.042	24.7
618.234	24.61
618.426	24.49
618.618	24.2
618.809	24.09
619.001	23.99
619.193	23.93
619.384	23.92
619.576	24.13
619.768	24.36
619.959	24.43
620.151	24.57
620.343	24.6
620.534	24.39
620.726	24.67
620.917	24.65
621.109	24.77
621.301	24.97
621.492	25.13
621.684	25.01
621.875	24.9
622.067	25
622.258	24.93
622.45	24.99
622.641	24.91
622.832	24.81
623.024	25.03
623.215	24.87
623.407	24.59
623.598	24.3
623.789	24.38
623.981	24.35
624.172	24.27
624.363	24.38
624.555	24.35
624.746	24.44
624.937	24.43
625.129	24.26
625.32	24.29
625.511	24.43
625.702	24.51
625.893	24.46
626.085	24.56
626.276	24.5
626.467	24.45
626.658	24.34
626.849	24.41
627.04	24.36
627.231	24.32
627.422	24.45
627.614	24.39
627.805	24.38
627.996	24.35
628.187	24.43
628.378	24.47
628.569	24.4
628.76	24.68
628.951	24.73
629.142	24.89
629.332	25.04
629.523	24.97
629.714	25.18
629.905	25.26
630.096	25.32
630.287	25.28
630.478	25.22
630.669	25.33
630.859	25.17
631.05	25.15
631.241	25.09
631.432	24.96
631.623	24.9
631.813	24.67
632.004	24.54
632.195	24.37
632.385	24.18
632.576	24.33
632.767	24.24
632.957	24.23
633.148	24.14
633.339	24.03
633.529	24.06
633.72	24
633.91	23.9
634.101	23.93
634.292	24.18
634.482	24.19
634.673	24.05
634.863	24.05
635.054	23.97
635.244	24.09
635.435	24.2
635.625	24.14
635.815	24.12
636.006	24.29
636.196	24.18
636.387	23.89
636.577	23.81
636.767	23.98
636.958	23.89
637.148	23.84
637.338	23.75
637.529	23.79
637.719	23.92
637.909	24.15
638.099	23.97
638.29	24.14
638.48	24.53
638.67	24.71
638.86	24.69
639.05	24.77
639.241	25.01
639.431	24.99
639.621	24.92
639.811	24.85
640.001	24.65
640.191	24.77
640.381	24.6
640.571	24.47
640.761	24.49
640.951	24.32
641.141	24.37
641.331	24.29
641.521	24.3
641.711	24.31
641.901	24.49
642.091	24.62
642.281	24.63
642.471	24.68
642.661	24.68
642.851	24.68
643.041	24.83
643.231	24.96
643.42	24.94
643.61	25.14
643.8	25.19
643.99	25.13
644.18	25.13
644.369	25.22
644.559	25.42
644.749	25.58
644.939	25.57
645.128	25.48
645.318	25.13
645.508	25.13
645.697	24.9
645.887	24.93
646.076	24.73
646.266	24.79
646.456	24.93
646.645	24.86
646.835	24.66
647.024	24.64
647.214	24.83
647.403	25.36
647.593	25.18
647.782	25.27
647.972	25.28
648.161	25.45
648.351	25.36
648.54	25.24
648.73	25.36
648.919	25.32
649.108	25.37
649.298	25.35
649.487	25.06
649.677	25.27
649.866	25.41
650.055	25.39
650.244	25.49
650.434	25.59
650.623	25.61
650.812	25.54
651.002	25.57
651.191	25.59
651.38	25.58
651.569	25.87
651.758	25.85
651.947	25.78
652.137	25.85
652.326	25.8
652.515	25.64
652.704	25.48
652.893	25.44
653.082	25.42
653.271	25.27
653.46	25.29
653.649	25.2
653.838	25.14
654.027	25.15
654.216	25.27
654.405	25.22
654.594	25.25
654.783	25.33
654.972	25.26
655.161	25.33
655.35	25.48
655.539	25.55
655.728	25.39
655.916	25.52
656.105	25.43
656.294	25.34
656.483	25.33
656.672	25.51
656.86	25.54
657.049	25.51
657.238	25.4
657.427	25.39
657.615	25.08
657.804	25.02
657.993	24.76
658.181	24.83
658.37	24.76
658.559	24.87
658.747	24.81
658.936	24.87
659.125	24.95
659.313	24.97
659.502	25.11
659.69	25.15
659.879	25.13
660.067	25.43
660.256	25.41
660.444	25.41
660.633	25.27
660.821	25.29
661.01	25.32
661.198	25.25
661.387	25.35
661.575	25.13
661.763	25.29
661.952	25.53
662.14	25.42
662.328	25.26
662.517	25.22
662.705	25.35
662.893	25.47
663.082	25.41
663.27	25.54
663.458	25.54
663.646	25.77
663.834	25.84
664.023	25.77
664.211	25.95
664.399	26.26
664.587	26.31
664.775	26.26
664.963	26.32
665.152	26.38
665.34	26.32
665.528	26.51
665.716	26.4
665.904	26.23
666.092	26.51
666.28	26.59
666.468	26.43
666.656	26.56
666.844	26.5
667.032	26.42
667.22	26.42
667.408	26.57
667.596	26.4
667.784	26.45
667.971	26.73
668.159	26.4
668.347	26.18
668.535	26.21
668.723	26.1
668.911	26.31
669.098	26.25
669.286	26.36
669.474	26.34
669.662	26.55
669.849	26.59
670.037	26.45
670.225	26.52
670.413	26.85
670.6	27.09
670.788	27.21
670.976	27.06
671.163	26.98
671.351	26.86
671.538	26.87
671.726	26.72
671.913	26.76
672.101	26.66
672.289	26.44
672.476	26.17
672.664	26.16
672.851	26.33
673.039	26.6
673.226	26.88
673.413	26.92
673.601	26.97
673.788	27.14
673.976	27.19
674.163	27.26
674.35	27.33
674.538	27.33
674.725	27.68
674.912	27.6
675.1	27.57
675.287	27.39
675.474	27.3
675.662	27.23
675.849	27.21
676.036	27.38
676.223	27.47
676.411	27.7
676.598	27.72
676.785	27.11
676.972	27.01
677.159	26.69
677.346	26.88
677.533	27.08
677.721	27.14
677.908	26.9
678.095	26.33
678.282	26.31
678.469	26.22
678.656	26
678.843	26.11
679.03	26.16
679.217	26.31
679.404	26.13
679.591	25.92
679.778	25.75
679.964	25.73
680.151	25.8
680.338	25.73
680.525	25.78
680.712	25.67
680.899	25.68
681.086	25.51
681.272	25.56
681.459	25.58
681.646	25.69
681.833	26.08
682.02	26.24
682.206	26.32
682.393	26.35
682.58	26.25
682.766	26.58
682.953	26.61
683.14	26.53
683.326	26.83
683.513	27.1
683.7	26.95
683.886	26.87
684.073	26.85
684.259	27.02
684.446	27.21
684.632	27.61
684.819	27.3
685.005	27.67
685.192	27.89
685.378	27.64
685.565	27.38
685.751	27.47
685.938	27.39
686.124	27.35
686.31	27.43
686.497	27.37
686.683	27.04
686.87	27.54
687.056	27.38
687.242	27.47
687.429	27.58
687.615	27.75
687.801	27.85
687.987	27.88
688.174	27.89
688.36	27.88
688.546	28.18
688.732	28.16
688.918	27.87
689.105	27.82
689.291	27.73
689.477	27.7
689.663	27.54
689.849	27.81
690.035	27.84
690.221	28.11
690.407	28.24
690.593	27.97
690.779	28.15
690.965	28.38
691.151	28.33
691.337	28.48
691.523	28.73
691.709	28.89
691.895	28.78
692.081	28.89
692.267	28.97
692.453	29.29
692.639	29.52
692.825	29.38
693.011	29.52
693.196	29.54
693.382	29.52
693.568	29.32
693.754	29.33
693.94	29.27
694.125	29.05
694.311	28.58
694.497	28.22
694.682	27.88
694.868	28.15
695.054	28.07
695.239	28.16
695.425	28.1
695.611	28.25
695.796	28.1
695.982	27.99
696.168	28.02
696.353	28.2
696.539	27.88
696.724	27.79
696.91	27.73
697.095	27.49
697.281	27.42
697.466	27.47
697.652	27.06
697.837	27.23
698.023	27.39
698.208	27.09
698.393	26.94
698.579	27.12
698.764	27.12
698.949	27.06
699.135	27
699.32	26.86
699.505	26.61
699.691	26.66
699.876	26.32
700.061	26.18
700.246	26.3
700.432	26.44
700.617	26.26
700.802	26.4
700.987	26.42
701.172	26.15
701.358	26.32
701.543	26.68
701.728	26.96
701.913	27.31
702.098	27.58
702.283	27.81
702.468	27.69
702.653	28.09
702.838	28.58
703.023	28.82
703.208	29.54
703.393	29.67
703.578	29.49
703.763	29.94
703.948	30.35
704.133	30.21
704.318	30.53
704.503	31.09
704.688	31.44
704.873	31.45
705.057	31.55
705.242	31.81
705.427	31.84
705.612	32.49
705.797	32.41
705.981	32.3
706.166	32.64
706.351	32.66
706.536	32.79
706.72	32.31
706.905	32.43
707.09	32.16
707.274	32.47
707.459	32.67
707.644	32.64
707.828	32.25
708.013	32.27
708.197	32.02
708.382	31.8
708.567	31.57
708.751	31.62
708.936	31.18
709.12	31.62
709.305	31.38
709.489	31.05
709.673	30.79
709.858	30.79
710.042	30.76
710.227	31.03
710.411	31.3
710.596	31.52
710.78	31.6
710.964	31.58
711.149	31.46
711.333	31.17
711.517	31.48
711.702	31.5
711.886	31.63
712.07	31.45
712.254	31.34
712.438	31.21
712.623	30.87
712.807	30.89
712.991	31.03
713.175	30.82
713.359	30.47
713.544	30.36
713.728	30.24
713.912	30.23
714.096	30.04
714.28	29.47
714.464	29.05
714.648	28.8
714.832	28.74
715.016	28.48
715.2	28.55
715.384	28.75
715.568	29.02
715.752	28.95
715.936	28.82
716.12	29.12
716.304	29.26
716.488	29.52
716.671	29.62
716.855	29.52
717.039	29.48
717.223	29.33
717.407	29.27
717.59	29.07
717.774	29.23
717.958	29.17
718.142	29.17
718.325	29.1
718.509	29.46
718.693	29.77
718.877	29.82
719.06	29.8
719.244	30.12
719.428	30.43
719.611	30.28
719.795	30.59
719.978	31.06
720.162	30.75
720.345	30.83
720.529	30.69
720.713	30.53
720.896	30.36
721.08	30.91
721.263	31.2
721.446	31.47
721.63	31.35
721.813	31.4
721.997	31.67
722.18	32.49
722.364	32.84
722.547	32.59
722.73	33
722.914	33.04
723.097	32.76
723.28	32.28
723.464	32.78
723.647	33.08
723.83	32.55
724.013	31.71
724.197	31.49
724.38	31.64
724.563	31.89
724.746	31.47
724.929	31.44
725.112	31.39
725.296	31.25
725.479	30.74
725.662	30.74
725.845	30.46
726.028	30.75
726.211	30.7
726.394	30.59
726.577	30.68
726.76	30.84
726.943	30.61
727.126	29.84
727.309	30.1
727.492	30.01
727.675	30.05
727.858	30.27
728.041	29.97
728.224	29.68
728.407	29.78
728.589	29.61
728.772	29.54
728.955	29.92
729.138	30.59
729.321	30.2
729.503	30.3
729.686	29.79
729.869	29.81
730.052	30
730.234	29.77
730.417	30.03
730.6	29.77
730.782	29.93
730.965	30.05
731.148	29.9
731.33	30.11
731.513	29.79
731.695	30.04
731.878	30.3
732.061	30.29
732.243	30.7
732.426	30.31
732.608	30.78
732.791	30.62
732.973	30.57
733.156	30.68
733.338	30.04
733.52	30.47
733.703	30.19
733.885	29.66
734.068	29.59
734.25	29.47
734.432	29.5
734.615	29.3
734.797	29.2
734.979	28.97
735.162	29.18
735.344	29.75
735.526	29.99
735.708	30.86
735.891	31.34
736.073	31.6
736.255	32.09
736.437	32.03
736.619	32.06
736.802	32.14
736.984	32.28
737.166	32.93
737.348	33.1
737.53	32.82
737.712	32.48
737.894	32.39
738.076	32.55
738.258	32.03
738.44	32.39
738.622	32.48
738.804	32.5
738.986	32.79
739.168	32.28
739.35	32.45
739.532	32.54
739.714	32.9
739.896	32.89
740.078	33.05
740.259	33.23
740.441	32.96
740.623	33.16
740.805	33.43
740.987	33.27
741.168	33.31
741.35	33.3
741.532	32.71
741.714	32.57
741.895	32.86
742.077	32.85
742.259	33.67
742.44	33.96
742.622	33.3
742.804	33.32
742.985	33.55
743.167	33.62
743.348	34.07
743.53	34.65
743.711	34.33
743.893	34.76
744.075	34.47
744.256	33.58
744.438	33.67
744.619	34.19
744.8	34.51
744.982	34.55
745.163	34.18
745.345	33.98
745.526	34.16
745.707	34.57
745.889	34.35
746.07	34.53
746.252	35.08
746.433	35.25
746.614	35.4
746.795	35.02
746.977	35.38
747.158	36.15
747.339	36.33
747.52	36.58
747.702	36.8
747.883	37.03
748.064	36.91
748.245	36.53
748.426	35.84
748.607	36.25
748.788	36.02
748.97	35.64
749.151	35.62
749.332	35.2
749.513	34.78
749.694	34.57
749.875	34.79
750.056	35.05
750.237	35.7
750.418	36.16
750.599	35.73
750.78	35.68
750.96	36.01
751.141	36.19
751.322	36.69
751.503	36.28
751.684	35.55
751.865	35.17
752.046	35.48
752.226	34.96
752.407	35.01
752.588	34.87
752.769	35.45
752.949	35.11
753.13	34.89
753.311	34.65
753.492	34.87
753.672	35.74
753.853	35.71
754.034	35.78
754.214	36.01
754.395	36.1
754.575	36.59
754.756	37.09
754.937	36.84
755.117	36.6
755.298	36.42
755.478	36.6
755.659	36.23
755.839	36.22
756.02	35.69
756.2	34.92
756.381	34.15
756.561	33.8
756.741	32.88
756.922	33.5
757.102	33.51
757.283	33.09
757.463	33.37
757.643	33.86
757.823	33.45
758.004	33.57
758.184	34.09
758.364	34.9
758.545	34.64
758.725	34.72
758.905	33.84
759.085	33.85
759.265	33.75
759.446	33.62
759.626	33.29
759.806	33.88
759.986	34.26
760.166	34.26
760.346	33.45
760.526	33.33
760.706	33.39
760.886	33.73
761.066	33.85
761.246	34.58
761.426	34.65
761.606	34.35
761.786	33.55
761.966	32.59
762.146	31.89
762.326	32.22
762.506	32.27
762.686	31.91
762.866	31.69
763.046	31.22
763.225	30.66
763.405	30.03
763.585	29.81
763.765	29.64
763.945	29.49
764.124	29.38
764.304	28.9
764.484	28.78
764.664	28.95
764.843	28.88
765.023	28.82
765.203	29.32
765.382	29.48
765.562	29.74
765.741	29.95
765.921	30.69
766.101	31.61
766.28	31.89
766.46	32.4
766.639	32.52
766.819	32.81
766.998	32.89
767.178	32.58
767.357	33.33
767.537	33.67
767.716	34.38
767.896	34.11
768.075	33.7
768.254	34.17
768.434	34.45
768.613	34.66
768.792	35.26
768.972	36.48
769.151	36.65
769.33	36.6
769.51	36.11
769.689	36.24
769.868	36.84
770.047	37.4
770.226	37.37
770.406	36.88
770.585	37.39
770.764	37.05
770.943	35.99
771.122	35.82
771.301	35.91
771.48	36.56
771.66	36.42
771.839	35.6
772.018	35.6
772.197	35.72
772.376	35.94
772.555	36.2
772.734	36.49
772.913	36.85
773.092	37.17
773.271	37.21
773.449	37.97
773.628	38.05
773.807	39.05
773.986	38.57
774.165	39.27
774.344	38.71
774.523	38.6
774.701	39.12
774.88	40.02
775.059	40.7
775.238	40.2
775.417	39.49
775.595	39.69
775.774	40.03
775.953	39.96
776.131	39.83
776.31	40.6
776.489	40.15
776.667	40.58
776.846	40.15
777.025	39.06
777.203	39.72
777.382	39.57
777.56	39.12
777.739	38.53
777.917	38.93
778.096	39.5
778.274	39.05
778.453	39.65
778.631	39.03
778.81	39.06
778.988	39.36
779.166	38.23
779.345	38.19
779.523	38.31
779.702	39.47
779.88	39.65
780.058	39.29
780.237	39.64
780.415	39.04
780.593	38.84
780.771	38.7
780.95	39.18
781.128	41.16
781.306	41.81
781.484	41.91
781.662	40.29
781.841	40.24
782.019	39.3
782.197	39.3
782.375	39.51
782.553	39.1
782.731	40.18
782.909	40.56
783.087	39.62
783.265	39.3
783.443	39.42
783.621	40.62
783.799	40.82
783.977	42.37
784.155	43.02
784.333	43.39
784.511	43.1
784.689	42.62
784.867	42.76
785.045	42.36
785.223	42.29
785.4	42.63
785.578	42.25
785.756	42.92
785.934	42.2
786.112	41.94
786.289	41.59
786.467	42.71
786.645	42.29
786.823	41.22
787	40.52
787.178	40.82
787.356	40.39
787.533	39.84
787.711	39.04
787.889	38.96
788.066	38.93
788.244	38.63
788.421	38.23
788.599	37.45
788.776	38.21
788.954	39.3
789.131	38.91
789.309	39.35
789.486	40.12
789.664	40.71
789.841	40.65
790.019	40.66
790.196	41.29
790.373	40.44
790.551	41.91
790.728	41.31
790.906	41.75
791.083	41.3
791.26	40.99
791.437	40.44
791.615	39.7
791.792	40.3
791.969	40.95
792.146	40.28
792.324	42.22
792.501	41.13
792.678	42.22
792.855	41.72
793.032	42.03
793.209	42.41
793.387	42.44
793.564	42.59
793.741	42.31
793.918	42.09
794.095	41.9
794.272	41.16
794.449	41.62
794.626	40.48
794.803	40.48
794.98	41.52
795.157	41.29
795.334	41.9
795.511	41.64
795.688	40.88
795.864	39.52
796.041	39.69
796.218	39.98
796.395	40.11
796.572	39.79
796.749	39.81
796.925	38.89
797.102	38.33
797.279	37.73
797.456	37.51
797.632	37.79
797.809	38.98
797.986	38.87
798.162	39.22
798.339	38.77
798.516	40.53
798.692	41.22
798.869	41.75
799.046	41.85
799.222	41.85
799.399	41.75
799.575	43.93
799.752	43.41
799.928	44.4
800.105	44.29
800.281	45.09
800.458	44.76
800.634	44.48
800.811	44.56
800.987	45.41
801.163	44.68
801.34	46.02
801.516	44.69
801.692	44.74
801.869	44.14
802.045	43.3
802.221	42.78
802.398	42.88
802.574	41.94
802.75	42.4
802.926	42.59
803.103	44.04
803.279	43.96
803.455	43.8
803.631	44.79
803.807	45.21
803.983	45.58
804.16	46.8
804.336	46.06
804.512	47.33
804.688	48.4
804.864	48.27
805.04	47.59
805.216	46.63
805.392	46.86
805.568	47.63
805.744	48.05
805.92	48.37
806.096	47.92
806.272	48.43
806.448	48.85
806.623	47.53
806.799	47.09
806.975	47.97
807.151	49.09
807.327	49.3
807.503	48.6
807.678	49.64
807.854	48.72
808.03	48.2
808.206	49.03
808.381	47.89
808.557	47.81
808.733	48.22
808.908	47.45
809.084	46.7
809.26	46.4
809.435	46.59
809.611	45.25
809.787	44.71
809.962	45.19
810.138	44.73
810.313	45.91
810.489	45.23
810.664	45.77
810.84	46.03
811.015	46.43
811.191	46.71
811.366	46.3
811.542	46.73
811.717	47.73
811.892	47.78
812.068	48.5
812.243	47.89
812.419	48.16
812.594	48.42
812.769	49.36
812.944	49.02
813.12	48.78
813.295	48.98
813.47	48.38
813.645	46.91
813.821	47.16
813.996	46.94
814.171	46.62
814.346	47.3
814.521	46.41
814.697	47.17
814.872	46.9
815.047	46.4
815.222	46.06
815.397	45.08
815.572	47.86
815.747	45.97
815.922	44.04
816.097	43.95
816.272	43.15
816.447	43.23
816.622	42.99
816.797	42.99
816.972	42.21
817.147	41.47
817.322	41.54
817.496	40.14
817.671	40.26
817.846	41.73
818.021	41.04
818.196	42.06
818.371	42.56
818.545	41.14
818.72	41.39
818.895	42.48
819.069	41.4
819.244	41.78
819.419	41.02
819.594	40.17
819.768	38.71
819.943	37.69
820.117	35.47
820.292	33.66
820.467	32.78
820.641	31.85
820.816	29.95
820.99	29.19
821.165	28.12
821.339	27.63
821.514	27.27
821.688	26.79
821.863	26.22
822.037	26.04
822.212	25.7
822.386	25.25
822.56	24.98
822.735	25.21
822.909	25.52
823.084	25.72
823.258	25.63
823.432	25.57
823.606	25.68
823.781	26
823.955	25.97
824.129	26.3
824.303	26.94
824.478	26.87
824.652	27.15
824.826	26.88
825	26.84
825.174	27.31
825.348	27.8
825.523	28.07
825.697	28.35
825.871	28.82
826.045	28.75
826.219	28.61
826.393	29.49
826.567	29.17
826.741	29.22
826.915	28.97
827.089	28.83
827.263	28.49
827.437	28.25
827.611	28.19
827.784	28.05
827.958	28.43
828.132	28.27
828.306	28.47
828.48	28.86
828.654	29.15
828.827	30.32
829.001	30.26
829.175	31.28
829.349	32.49
829.522	33.35
829.696	34.33
829.87	34.62
830.044	36.09
830.217	37.11
830.391	37.17
830.565	38.09
830.738	37.98
830.912	40.01
831.085	40.45
831.259	40.69
831.432	41.3
831.606	42.6
831.779	41.77
831.953	42.41
832.126	39.79
832.3	39.56
832.473	38.72
832.647	37.34
832.82	36.75
832.994	35.2
833.167	35.42
833.34	35.07
833.514	33.48
833.687	33.5
833.86	31.96
834.034	32.4
834.207	32.48
834.38	32.9
834.553	33.26
834.727	33.4
834.9	33.85
835.073	33.57
835.246	33.24
835.419	34.87
835.593	36.02
835.766	36.95
835.939	38.05
836.112	39.07
836.285	41.09
836.458	42.44
836.631	44.6
836.804	46.16
836.977	47.54
837.15	49.85
837.323	50.78
837.496	51.38
837.669	53.99
837.842	55.63
838.015	56.03
838.188	55.16
838.361	55.17
838.533	52.64
838.706	53.75
838.879	53.22
839.052	53.31
839.225	52.51
839.398	52.96
839.57	51.99
839.743	51.41
839.916	52.17
840.088	52.16
840.261	53.8
840.434	54.89
840.607	55.09
840.779	53.83
840.952	52.7
841.124	53.32
841.297	53.72
841.47	53.52
841.642	52.16
841.815	52.52
841.987	51.92
842.16	53.18
842.332	54.12
842.505	55.32
842.677	57.64
842.85	59.71
843.022	60.14
843.194	61.37
843.367	64.28
843.539	67.24
843.712	69.21
843.884	73.65
844.056	71.91
844.229	72.18
844.401	73.02
844.573	76.19
844.745	80.35
844.918	84.93
845.09	84.97
845.262	85.99
845.434	87.33
845.606	85.92
845.779	85.95
845.951	85.73
846.123	86.92
846.295	84.75
846.467	80.33
846.639	79.85
846.811	76.15
846.983	77.5
847.155	74.87
847.327	78.81
847.499	80.43
847.671	81.99
847.843	85.25
848.015	83.93
848.187	85.96
848.359	86.06
848.531	83.41
848.703	82.45
848.875	82.76
849.047	84.73
849.218	79.07
849.39	79.48
849.562	77.41
849.734	76.45
849.905	74.98
850.077	76.09
850.249	78.11
850.421	81.99
850.592	83.89
850.764	86.12
850.936	89.03
851.107	89.71
851.279	86.86
851.451	83.97
851.622	84.07
851.794	89.15
851.965	92.35
852.137	98.1
852.308	95.57
852.48	97.51
852.651	89.25
852.823	86.86
852.994	91.05
853.166	95.82
853.337	96.91
853.509	99.2
853.68	96.9
853.851	91.15
854.023	87.95
854.194	85.53
854.365	82.45
854.537	89.5
854.708	86.44
854.879	88.29
855.05	90.22
855.222	94.57
855.393	93.77
855.564	94.39
855.735	99.2
855.906	96.31
856.078	96.39
856.249	96.9
856.42	93.22
856.591	97.46
856.762	92.39
856.933	89.43
857.104	87.58
857.275	87.02
857.446	84.18
857.617	83.05
857.788	88.48
857.959	88.54
858.13	93.45
858.301	96.99
858.472	94.72
858.643	93.4
858.814	92.81
858.985	94.14
859.155	96.97
859.326	102.29
859.497	104.14
859.668	102.76
859.839	107.13
860.009	101.07
860.18	97.94
860.351	100.72
860.522	103.84
860.692	104.96
860.863	101.91
861.034	97.7
861.204	96.35
861.375	94.3
861.546	92.69
861.716	95.38
861.887	97.54
862.057	97.93
862.228	98.51
862.398	96.31
862.569	94.26
862.739	99.86
862.91	102.18
863.08	96.95
863.251	92.11
863.421	90.22
863.592	84.73
863.762	85.08
863.932	85.11
864.103	85.18
864.273	88.06
864.443	86.02
864.614	82.16
864.784	81.76
864.954	85.99
865.125	85.96
865.295	87.9
865.465	93.04
865.635	91.82
865.805	93.6
865.976	87.97
866.146	88.4
866.316	94.48
866.486	96.27
866.656	94.67
866.826	96.42
866.996	107.95
867.166	107.04
867.336	107.23
867.506	112.17
867.676	111.95
867.846	116.68
868.016	111.13
868.186	102.84
868.356	100.3
868.526	101.04
868.696	100.53
868.866	93.52
869.036	95.83
869.206	95.08
869.376	86.48
869.545	84.56
869.715	86.96
869.885	93.51
870.055	98.57
870.224	100.19
870.394	103.1
870.564	103.75
870.734	112.32
870.903	108.8
871.073	110.74
871.243	115.28
871.412	115.62
871.582	114.7
871.751	109.44
871.921	108.32
872.091	104.08
872.26	97.58
872.43	95.93
872.599	88.41
872.769	90.89
872.938	84.69
873.108	84.33
873.277	82.6
873.446	80.9
873.616	85.47
873.785	89.44
873.955	90.32
874.124	95.8
874.293	94.71
874.463	95.98
874.632	97.95
874.801	102.07
874.971	103.37
875.14	109.73
875.309	103.65
875.478	106.22
875.647	96.3
875.817	103.37
875.986	95.59
876.155	97.67
876.324	94.11
876.493	93.87
876.662	95.62
876.831	98.96
877	93.69
877.17	95.8
877.339	92.97
877.508	94.56
877.677	92.53
877.846	96.3
878.015	94.5
878.184	97.25
878.352	96.24
878.521	92.56
878.69	86.3
878.859	86.24
879.028	86.54
879.197	84.62
879.366	84.73
879.534	75.82
879.703	74.16
879.872	69.05
880.041	63.52
880.21	57
880.378	53.55
880.547	50.89
880.716	47.12
880.884	44.72
881.053	41.45
881.222	38.62
881.39	37.11
881.559	34.33
881.727	32.36
881.896	31.34
882.065	31.61
882.233	30.68
882.402	29.62
882.57	29.63
882.739	29.16
882.907	29.1
883.076	30.13
883.244	30.6
883.412	31.46
883.581	32.41
883.749	33.13
883.918	32.96
884.086	34.57
884.254	36.35
884.423	36.45
884.591	39.25
884.759	40.91
884.927	41.13
885.096	42.08
885.264	43.87
885.432	45.82
885.6	49.34
885.769	52.09
885.937	51.5
886.105	53.57
886.273	58.08
886.441	61.2
886.609	60.61
886.777	61.54
886.945	66.17
887.113	67.78
887.281	68.69
887.449	68.54
887.617	72.41
887.785	76.5
887.953	77
888.121	76.32
888.289	74.68
888.457	83.14
888.625	87.76
888.793	86.73
888.961	92.16
889.129	97.93
889.296	96.91
889.464	94.29
889.632	95.87
889.8	98.62
889.967	105.24
890.135	106.21
