Data from 2938821__Reflection_08.txt Node
Date: Thu Mar 12 14:34:55 EDT 2015
User: robert
Spectrometer: USB4E03002
Autoset integration time: false
Trigger mode: 4
Integration Time (sec): 1.000000E-1
Scans to average: 10
Electric dark correction enabled: false
Nonlinearity correction enabled: false
Boxcar width: 5
Stray light correction enabled: false
XAxis mode: Wavelengths
Stop averaging: false
Number of Pixels in Spectrum: 3648
>>>>>Begin Spectral Data<<<<<
177.575	-256.93
177.794	-321.89
178.014	-171.69
178.233	-131.06
178.452	-112.13
178.672	-121.05
178.891	-113.24
179.11	-142.79
179.33	-148.01
179.549	-132.71
179.768	-202.17
179.987	-186.01
180.207	-220.75
180.426	-403.12
180.645	-998.5
180.864	-1211.65
181.084	-3043.9
181.303	1029.84
181.522	11618.18
181.741	-3321.05
181.96	-924.36
182.179	-2097.1
182.398	-5080
182.618	-3490.62
182.837	2705
183.056	960.87
183.275	431.25
183.494	505.6
183.713	471.67
183.932	331.85
184.151	365.74
184.37	285.07
184.589	295.68
184.808	314.59
185.027	333.05
185.246	303.54
185.465	462.04
185.684	601.95
185.903	353.11
186.122	320.15
186.341	452.17
186.56	343.7
186.779	431.01
186.998	348.82
187.216	279.29
187.435	302.08
187.654	402.73
187.873	329.66
188.092	339.08
188.311	505.09
188.53	446.2
188.748	342.24
188.967	483.21
189.186	241.28
189.405	320.51
189.623	374.72
189.842	363.82
190.061	338.35
190.28	330.33
190.498	263.45
190.717	213.09
190.936	289.04
191.154	326.64
191.373	183.59
191.592	258.21
191.81	201.63
192.029	254.31
192.248	273.57
192.466	242.66
192.685	292.96
192.904	286.87
193.122	431.89
193.341	423.17
193.559	475.81
193.778	1248.39
193.996	-992.04
194.215	-595.98
194.433	-5788.24
194.652	460.7
194.87	1149.43
195.089	607.95
195.307	809.17
195.526	696.55
195.744	675.94
195.963	835.64
196.181	534.01
196.399	476.37
196.618	944.04
196.836	1698.18
197.055	-657.04
197.273	1947.92
197.491	1670.69
197.71	3143.33
197.928	2295.12
198.146	1459.02
198.365	427.51
198.583	391.6
198.801	287.47
199.019	358.71
199.238	427.82
199.456	251.95
199.674	428.92
199.892	504.15
200.111	571.01
200.329	525.25
200.547	482.59
200.765	-28500
200.983	1650
201.202	-3333.33
201.42	4121.43
201.638	423.58
201.856	4958.33
202.074	-3533.33
202.292	1054.41
202.51	1708.16
202.728	461.83
202.946	659.03
203.165	374.66
203.383	414.98
203.601	282.35
203.819	196.93
204.037	303.06
204.255	335.32
204.473	397.11
204.691	945.26
204.909	534.75
205.127	648
205.345	466.67
205.562	-7000
205.78	526.56
205.998	285.28
206.216	289.75
206.434	178.29
206.652	148.56
206.87	160.75
207.088	134.85
207.306	122.44
207.523	132.28
207.741	123.68
207.959	127.8
208.177	121.48
208.395	166.22
208.612	175.03
208.83	201.13
209.048	252.14
209.266	167.26
209.483	167.72
209.701	186.86
209.919	167.98
210.136	167.32
210.354	171.54
210.572	180.09
210.79	151.53
211.007	159.39
211.225	138.74
211.442	136.72
211.66	113.18
211.878	110.3
212.095	123.15
212.313	118.54
212.53	119.11
212.748	112.37
212.966	116.48
213.183	107.52
213.401	91.94
213.618	109.98
213.836	96.16
214.053	122.37
214.271	121.8
214.488	129.58
214.705	155.35
214.923	169.24
215.14	187.7
215.358	190.84
215.575	194.16
215.793	248.02
216.01	188.06
216.227	250.58
216.445	229.21
216.662	204.78
216.879	166.37
217.097	179.68
217.314	178.14
217.531	147.31
217.749	179.21
217.966	170.9
218.183	162.37
218.4	183.1
218.618	152.33
218.835	129.26
219.052	111.69
219.269	105.94
219.487	92.86
219.704	83.18
219.921	74.04
220.138	69.76
220.355	65.46
220.572	62.88
220.79	60.24
221.007	59.83
221.224	64.68
221.441	71.6
221.658	66.47
221.875	65.54
222.092	61.8
222.309	70.19
222.526	68.99
222.743	66.5
222.96	62.85
223.177	71.34
223.394	69.09
223.611	65.89
223.828	57.98
224.045	64.88
224.262	61.96
224.479	64.15
224.696	55.89
224.913	53.08
225.13	54.07
225.347	54.21
225.564	47.15
225.781	39.97
225.997	40.9
226.214	37.1
226.431	29.43
226.648	23.87
226.865	21.19
227.082	18.55
227.298	16.74
227.515	13.91
227.732	12.88
227.949	11.47
228.165	11.54
228.382	10.42
228.599	10.48
228.816	10.52
229.032	11.29
229.249	10.79
229.466	11.1
229.682	10.75
229.899	10.51
230.116	10.48
230.332	10.34
230.549	10.83
230.765	9.9
230.982	10.33
231.199	10.57
231.415	10.03
231.632	9.91
231.848	10.62
232.065	10.84
232.281	11.42
232.498	12.34
232.714	14.53
232.931	14.31
233.147	16.3
233.364	15.96
233.58	17.6
233.797	19.01
234.013	18.72
234.23	17.77
234.446	15.79
234.662	15.03
234.879	12.67
235.095	10.84
235.312	12
235.528	11.27
235.744	10.92
235.961	10.41
236.177	11.84
236.393	11.5
236.61	11.33
236.826	13.22
237.042	15.87
237.258	17.65
237.475	20.73
237.691	20.86
237.907	21.62
238.123	21.33
238.339	20.12
238.556	17.98
238.772	19.4
238.988	19.51
239.204	19.77
239.42	17.42
239.636	16.84
239.853	14.49
240.069	13.15
240.285	12.43
240.501	12.41
240.717	12.6
240.933	11.87
241.149	11.21
241.365	10.17
241.581	9.09
241.797	9.12
242.013	8.97
242.229	8.1
242.445	7.88
242.661	7.85
242.877	7.46
243.093	7.17
243.309	7.72
243.525	7.35
243.741	7.92
243.957	8.86
244.173	8.45
244.388	8.3
244.604	9.16
244.82	8.9
245.036	8.24
245.252	8.94
245.468	8.2
245.683	7.04
245.899	6.74
246.115	6.21
246.331	6.06
246.547	6.21
246.762	5.94
246.978	5.69
247.194	5.91
247.409	6.01
247.625	5.96
247.841	6.3
248.057	6.68
248.272	6.84
248.488	7.05
248.703	6.73
248.919	6.96
249.135	7.54
249.35	7.74
249.566	7.86
249.782	7.56
249.997	7.57
250.213	7.73
250.428	7.55
250.644	7.53
250.859	7.92
251.075	8.02
251.29	7.6
251.506	6.48
251.721	6.28
251.937	6.4
252.152	7.61
252.368	7.53
252.583	6.6
252.798	6.81
253.014	6.55
253.229	7
253.445	7.82
253.66	8.51
253.875	9.5
254.091	10.18
254.306	10.79
254.521	10.22
254.737	10.45
254.952	10.44
255.167	10.06
255.383	10.99
255.598	10.74
255.813	10.23
256.028	10.1
256.244	10.15
256.459	10.01
256.674	8.51
256.889	8.58
257.104	7.53
257.32	7.89
257.535	7.53
257.75	6.85
257.965	6.32
258.18	6.11
258.395	5.31
258.61	4.85
258.826	4.52
259.041	4.35
259.256	4.36
259.471	4.68
259.686	4.88
259.901	4.98
260.116	4.76
260.331	4.65
260.546	4.46
260.761	4.72
260.976	5.03
261.191	5.42
261.406	6.09
261.621	6.07
261.836	5.97
262.05	6.03
262.265	5.94
262.48	6.58
262.695	6.76
262.91	7.13
263.125	7.06
263.34	6.68
263.555	6
263.769	5.9
263.984	5.29
264.199	5.01
264.414	5.03
264.629	5.41
264.843	5
265.058	4.9
265.273	4.76
265.488	5.23
265.702	5.19
265.917	5.36
266.132	5.26
266.346	5.8
266.561	6.46
266.776	6.4
266.99	6.13
267.205	6.1
267.42	6.77
267.634	7.06
267.849	6.64
268.063	6.53
268.278	7.09
268.492	6.93
268.707	7.16
268.922	7.04
269.136	7.08
269.351	6.91
269.565	6.89
269.78	5.79
269.994	5.48
270.209	5.63
270.423	5.84
270.637	5.79
270.852	5.43
271.066	5
271.281	4.68
271.495	4.23
271.709	4.25
271.924	4.33
272.138	4.48
272.353	4.57
272.567	4.75
272.781	4.78
272.996	4.31
273.21	4.64
273.424	5.17
273.638	5.25
273.853	5.36
274.067	5.4
274.281	5.86
274.495	5.99
274.71	6.11
274.924	5.68
275.138	5.29
275.352	5.39
275.566	5.33
275.781	5.32
275.995	5.6
276.209	5.82
276.423	6.16
276.637	5.71
276.851	6.22
277.065	6.28
277.279	6.58
277.493	7.25
277.707	7.5
277.921	7.29
278.135	6.72
278.349	6.37
278.563	6.1
278.777	5.47
278.991	5.11
279.205	4.73
279.419	4.46
279.633	4.42
279.847	4.51
280.061	4.43
280.275	4.34
280.489	4.57
280.703	4.74
280.917	4.8
281.131	4.53
281.344	4.9
281.558	4.78
281.772	4.8
281.986	4.35
282.2	3.75
282.414	3.81
282.627	3.87
282.841	3.93
283.055	3.84
283.269	3.93
283.482	4.4
283.696	4.35
283.91	4.37
284.123	4.18
284.337	4.33
284.551	4.24
284.764	3.92
284.978	4.18
285.192	4.25
285.405	4.27
285.619	4.26
285.833	4.33
286.046	4.11
286.26	3.91
286.473	3.82
286.687	3.9
286.9	4.11
287.114	4.37
287.327	4.22
287.541	3.65
287.754	3.86
287.968	3.62
288.181	3.5
288.395	3.49
288.608	3.96
288.822	4.07
289.035	4.34
289.248	4.66
289.462	4.73
289.675	4.54
289.889	4.72
290.102	4.25
290.315	4.47
290.529	4.49
290.742	4.79
290.955	4.69
291.169	4.79
291.382	4.55
291.595	4.28
291.808	4.08
292.022	4.33
292.235	4.58
292.448	4.71
292.661	4.64
292.875	4.78
293.088	4.92
293.301	4.68
293.514	5.06
293.727	5.44
293.94	5.47
294.153	5.82
294.367	5.67
294.58	5.8
294.793	5.54
295.006	5.46
295.219	5.31
295.432	5.35
295.645	5.45
295.858	5.46
296.071	5.08
296.284	5.5
296.497	5.2
296.71	5.11
296.923	4.99
297.136	5.31
297.349	5.6
297.562	5.62
297.775	5.53
297.988	5.36
298.201	5.05
298.414	5.44
298.626	5.12
298.839	5.38
299.052	5.65
299.265	5.62
299.478	5.48
299.691	5.51
299.903	5.74
300.116	5.65
300.329	5.94
300.542	5.94
300.755	5.65
300.967	5.83
301.18	5.53
301.393	5.44
301.605	5.37
301.818	5.44
302.031	5.44
302.243	5.46
302.456	5.51
302.669	5.55
302.881	5.37
303.094	5.58
303.307	5.34
303.519	5.42
303.732	5.4
303.944	5.82
304.157	5.63
304.37	5.26
304.582	5.13
304.795	5.22
305.007	5.34
305.22	5.64
305.432	5.47
305.645	5.6
305.857	6.03
306.069	6.4
306.282	6.07
306.494	6.47
306.707	6.86
306.919	7.1
307.132	7.23
307.344	7.36
307.556	7.65
307.769	7.84
307.981	7.83
308.193	7.58
308.406	7.38
308.618	7.64
308.83	7.53
309.043	7.46
309.255	7.32
309.467	7.29
309.679	7.03
309.892	6.8
310.104	6.76
310.316	7.01
310.528	7.05
310.74	6.87
310.953	6.98
311.165	6.95
311.377	6.72
311.589	6.87
311.801	6.95
312.013	7.09
312.225	7.24
312.437	7.3
312.649	7.2
312.862	7.31
313.074	7.45
313.286	7.38
313.498	7.74
313.71	8.04
313.922	7.71
314.134	7.4
314.346	6.91
314.558	7.01
314.77	7.11
314.982	7.08
315.193	7.32
315.405	7.55
315.617	7.29
315.829	7.08
316.041	7
316.253	7.42
316.465	7.57
316.677	8.34
316.888	8.55
317.1	8.65
317.312	8.66
317.524	8.37
317.736	8.65
317.947	9.21
318.159	9.38
318.371	9.87
318.583	9.93
318.794	10.26
319.006	10.01
319.218	10.17
319.43	9.78
319.641	9.7
319.853	10.13
320.064	9.53
320.276	9.38
320.488	8.86
320.699	8.37
320.911	8.18
321.123	8.06
321.334	8.18
321.546	8
321.757	8.27
321.969	8.26
322.18	7.64
322.392	7.76
322.603	7.93
322.815	8.19
323.026	9.03
323.238	8.72
323.449	8.9
323.661	9.19
323.872	8.74
324.083	8.9
324.295	8.67
324.506	8.97
324.718	9.2
324.929	8.95
325.14	9.23
325.352	8.96
325.563	8.99
325.774	8.53
325.986	8.5
326.197	8.88
326.408	8.6
326.62	8.96
326.831	8.89
327.042	8.67
327.253	8.26
327.464	8.26
327.676	7.84
327.887	8.32
328.098	8.27
328.309	7.68
328.52	7.68
328.732	7.98
328.943	7.69
329.154	7.38
329.365	7.53
329.576	7.65
329.787	7.35
329.998	7.29
330.209	7.17
330.42	7.63
330.631	8.3
330.842	8.09
331.053	7.93
331.264	8.02
331.475	8.59
331.686	8.56
331.897	8.55
332.108	8.91
332.319	9.39
332.53	9.3
332.741	9.06
332.952	8.79
333.163	8.7
333.374	8.92
333.585	8.82
333.795	8.41
334.006	8.37
334.217	8.51
334.428	8.31
334.639	7.94
334.849	7.48
335.06	7.63
335.271	7.73
335.482	7.68
335.692	7.47
335.903	7.78
336.114	7.98
336.325	8.11
336.535	8.32
336.746	8.2
336.957	8.21
337.167	8.39
337.378	8.53
337.589	8.42
337.799	8.5
338.01	8.55
338.22	8.67
338.431	8.86
338.642	8.61
338.852	8.7
339.063	8.8
339.273	8.86
339.484	9.12
339.694	8.89
339.905	9.06
340.115	9
340.326	8.95
340.536	8.68
340.746	8.28
340.957	8.31
341.167	8.17
341.378	8.16
341.588	8.24
341.799	8.04
342.009	8.13
342.219	8.13
342.43	8.28
342.64	8.29
342.85	7.75
343.061	7.61
343.271	7.7
343.481	7.48
343.691	7.21
343.902	7.46
344.112	7.41
344.322	7.45
344.532	7.3
344.743	7.34
344.953	7.25
345.163	7.62
345.373	7.59
345.583	7.57
345.793	7.95
346.004	8.47
346.214	8.12
346.424	8.2
346.634	8.1
346.844	8.14
347.054	7.8
347.264	7.59
347.474	7.31
347.684	7.44
347.894	7.28
348.104	7.2
348.314	7
348.524	6.87
348.734	6.84
348.944	6.66
349.154	6.76
349.364	7.08
349.574	7.17
349.784	7.65
349.994	7.66
350.204	7.8
350.413	7.36
350.623	7.37
350.833	7.46
351.043	7.22
351.253	7.32
351.463	7.25
351.672	6.97
351.882	6.83
352.092	6.47
352.302	6.66
352.511	6.65
352.721	6.78
352.931	6.64
353.141	6.49
353.35	6.6
353.56	6.73
353.77	6.69
353.979	6.72
354.189	7.05
354.399	7.21
354.608	6.84
354.818	6.62
355.027	6.68
355.237	6.7
355.447	6.91
355.656	6.86
355.866	6.67
356.075	6.5
356.285	6.61
356.494	6.44
356.704	6.36
356.913	6.5
357.123	6.76
357.332	6.73
357.542	6.58
357.751	6.51
357.96	6.59
358.17	6.69
358.379	6.88
358.589	6.92
358.798	6.85
359.007	6.81
359.217	6.84
359.426	6.63
359.635	6.64
359.845	6.7
360.054	6.59
360.263	6.62
360.472	6.62
360.682	6.35
360.891	6.35
361.1	6.14
361.309	6.21
361.519	6.13
361.728	6.2
361.937	6.21
362.146	6.22
362.355	6.39
362.564	6.21
362.774	6.24
362.983	6.34
363.192	6.24
363.401	6.41
363.61	6.43
363.819	6.54
364.028	6.59
364.237	6.55
364.446	6.61
364.655	6.43
364.864	6.68
365.073	6.63
365.282	6.59
365.491	6.54
365.7	6.56
365.909	6.68
366.118	6.78
366.327	6.76
366.536	6.59
366.745	6.45
366.954	6.78
367.162	6.53
367.371	6.48
367.58	6.73
367.789	6.77
367.998	6.72
368.207	6.68
368.415	6.59
368.624	6.67
368.833	6.97
369.042	6.98
369.25	6.77
369.459	6.89
369.668	6.78
369.877	6.79
370.085	6.68
370.294	6.84
370.503	6.44
370.711	6.44
370.92	6.21
371.129	6.22
371.337	6.26
371.546	6.19
371.754	6.4
371.963	6.24
372.171	5.89
372.38	5.8
372.589	5.62
372.797	5.83
373.006	5.81
373.214	5.96
373.423	5.87
373.631	6.01
373.84	6.23
374.048	5.84
374.256	5.95
374.465	5.93
374.673	6.25
374.882	6.3
375.09	5.9
375.298	5.83
375.507	5.93
375.715	5.76
375.923	5.48
376.132	5.35
376.34	5.43
376.548	5.41
376.757	5.4
376.965	5.13
377.173	5.09
377.381	5.53
377.59	5.49
377.798	5.38
378.006	5.37
378.214	5.4
378.423	5.31
378.631	5.32
378.839	5.2
379.047	5.31
379.255	5.4
379.463	5.48
379.671	5.23
379.879	5.19
380.088	5.19
380.296	5.1
380.504	5.2
380.712	5.18
380.92	5.07
381.128	5.13
381.336	4.98
381.544	4.92
381.752	4.8
381.96	4.75
382.168	4.72
382.376	4.65
382.584	4.88
382.791	4.65
382.999	4.67
383.207	4.7
383.415	4.91
383.623	4.88
383.831	4.83
384.039	4.85
384.247	4.89
384.454	4.83
384.662	4.65
384.87	4.48
385.078	4.62
385.285	4.43
385.493	4.33
385.701	4.22
385.909	4.27
386.116	4.29
386.324	4.15
386.532	4.09
386.739	4.27
386.947	4.32
387.155	4.28
387.362	4.35
387.57	4.38
387.778	4.34
387.985	4.41
388.193	4.54
388.4	4.4
388.608	4.69
388.816	4.91
389.023	4.81
389.231	4.71
389.438	4.76
389.646	4.6
389.853	4.67
390.061	4.78
390.268	4.63
390.475	4.39
390.683	4.48
390.89	4.19
391.098	4.13
391.305	4.09
391.512	4.12
391.72	4.06
391.927	3.99
392.135	3.98
392.342	3.91
392.549	4.01
392.756	4.09
392.964	4.11
393.171	4.31
393.378	4.3
393.586	4.33
393.793	4.28
394	4.27
394.207	4.24
394.414	4.21
394.622	4.35
394.829	4.27
395.036	4.12
395.243	4.15
395.45	4.01
395.657	3.94
395.864	3.94
396.072	3.91
396.279	3.77
396.486	3.78
396.693	3.84
396.9	3.6
397.107	3.37
397.314	3.42
397.521	3.66
397.728	3.79
397.935	3.77
398.142	3.56
398.349	3.67
398.556	3.83
398.763	3.97
398.97	3.81
399.177	3.96
399.383	4.16
399.59	4.13
399.797	3.72
400.004	3.7
400.211	3.76
400.418	3.9
400.625	3.84
400.831	3.74
401.038	3.65
401.245	3.64
401.452	3.59
401.658	3.58
401.865	3.62
402.072	3.77
402.279	3.54
402.485	3.32
402.692	3.2
402.899	3.2
403.105	3.28
403.312	3.2
403.519	3.06
403.725	3
403.932	2.94
404.138	2.99
404.345	2.88
404.552	2.8
404.758	2.94
404.965	2.94
405.171	2.87
405.378	2.9
405.584	3.13
405.791	3.3
405.997	3.32
406.204	3.33
406.41	3.37
406.617	3.56
406.823	3.62
407.029	3.7
407.236	3.73
407.442	3.87
407.649	4.01
407.855	3.84
408.061	3.81
408.268	3.77
408.474	3.87
408.68	3.83
408.887	3.64
409.093	3.66
409.299	3.55
409.505	3.59
409.712	3.62
409.918	3.36
410.124	3.36
410.33	3.43
410.537	3.6
410.743	3.39
410.949	3.27
411.155	3.44
411.361	3.42
411.567	3.33
411.773	3.21
411.98	3.19
412.186	3.35
412.392	3.29
412.598	3.12
412.804	2.92
413.01	2.96
413.216	3.02
413.422	2.64
413.628	2.72
413.834	2.84
414.04	2.91
414.246	2.88
414.452	2.9
414.658	2.82
414.864	2.89
415.07	3.09
415.275	3.18
415.481	3.25
415.687	3.46
415.893	3.38
416.099	3.38
416.305	3.35
416.511	3.2
416.716	2.95
416.922	2.94
417.128	2.94
417.334	2.79
417.539	2.7
417.745	2.64
417.951	2.54
418.157	2.61
418.362	2.58
418.568	2.57
418.774	2.59
418.979	2.61
419.185	2.63
419.391	2.59
419.596	2.63
419.802	2.75
420.008	2.74
420.213	2.79
420.419	2.75
420.624	2.7
420.83	2.66
421.035	2.69
421.241	2.74
421.446	2.76
421.652	2.73
421.857	2.67
422.063	2.58
422.268	2.61
422.474	2.56
422.679	2.54
422.885	2.53
423.09	2.56
423.295	2.46
423.501	2.44
423.706	2.44
423.911	2.4
424.117	2.36
424.322	2.42
424.527	2.43
424.733	2.45
424.938	2.47
425.143	2.47
425.349	2.59
425.554	2.68
425.759	2.76
425.964	2.76
426.169	2.83
426.375	2.9
426.58	2.83
426.785	2.89
426.99	2.94
427.195	2.96
427.4	3.03
427.605	2.88
427.811	2.87
428.016	2.81
428.221	2.89
428.426	3.01
428.631	3.01
428.836	3.08
429.041	2.97
429.246	2.95
429.451	2.94
429.656	2.86
429.861	2.93
430.066	3.02
430.271	3.05
430.476	3.04
430.681	2.82
430.886	2.89
431.09	2.86
431.295	2.8
431.5	2.77
431.705	2.73
431.91	2.69
432.115	2.73
432.32	2.67
432.524	2.65
432.729	2.59
432.934	2.72
433.139	2.73
433.343	2.76
433.548	2.76
433.753	2.78
433.958	2.78
434.162	2.95
434.367	2.83
434.572	2.87
434.776	2.96
434.981	2.93
435.186	2.95
435.39	2.82
435.595	2.81
435.799	2.75
436.004	2.78
436.209	2.81
436.413	2.74
436.618	2.77
436.822	2.72
437.027	2.49
437.231	2.48
437.436	2.36
437.64	2.47
437.845	2.53
438.049	2.53
438.253	2.54
438.458	2.54
438.662	2.46
438.867	2.5
439.071	2.45
439.275	2.54
439.48	2.52
439.684	2.55
439.888	2.54
440.093	2.51
440.297	2.58
440.501	2.53
440.706	2.56
440.91	2.57
441.114	2.58
441.318	2.59
441.523	2.64
441.727	2.73
441.931	2.79
442.135	2.73
442.339	2.66
442.543	2.6
442.748	2.57
442.952	2.57
443.156	2.66
443.36	2.62
443.564	2.6
443.768	2.48
443.972	2.45
444.176	2.42
444.38	2.45
444.584	2.48
444.788	2.56
444.992	2.64
445.196	2.6
445.4	2.39
445.604	2.41
445.808	2.43
446.012	2.42
446.216	2.33
446.42	2.27
446.624	2.22
446.828	2.24
447.032	2.15
447.235	2.1
447.439	2.06
447.643	2.23
447.847	2.17
448.051	2.17
448.254	2.18
448.458	2.21
448.662	2.35
448.866	2.38
449.069	2.31
449.273	2.35
449.477	2.3
449.681	2.32
449.884	2.33
450.088	2.37
450.292	2.39
450.495	2.35
450.699	2.43
450.902	2.29
451.106	2.23
451.31	2.31
451.513	2.37
451.717	2.37
451.92	2.43
452.124	2.42
452.327	2.5
452.531	2.41
452.734	2.5
452.938	2.42
453.141	2.44
453.345	2.55
453.548	2.57
453.752	2.63
453.955	2.71
454.158	2.63
454.362	2.63
454.565	2.51
454.769	2.63
454.972	2.71
455.175	2.86
455.379	2.97
455.582	2.82
455.785	2.81
455.988	2.65
456.192	2.53
456.395	2.55
456.598	2.48
456.801	2.56
457.005	2.47
457.208	2.32
457.411	2.29
457.614	2.06
457.817	2.18
458.021	2.11
458.224	2.19
458.427	2.26
458.63	2.33
458.833	2.3
459.036	2.22
459.239	2.25
459.442	2.34
459.645	2.26
459.848	2.34
460.051	2.3
460.254	2.31
460.457	2.28
460.66	2.26
460.863	2.2
461.066	2.25
461.269	2.3
461.472	2.31
461.675	2.27
461.878	2.24
462.081	2.28
462.284	2.33
462.486	2.38
462.689	2.35
462.892	2.33
463.095	2.37
463.298	2.38
463.5	2.48
463.703	2.36
463.906	2.42
464.109	2.48
464.311	2.51
464.514	2.62
464.717	2.69
464.92	2.71
465.122	2.8
465.325	2.86
465.528	2.84
465.73	2.7
465.933	2.76
466.135	2.73
466.338	2.78
466.541	2.81
466.743	2.66
466.946	2.61
467.148	2.75
467.351	2.74
467.553	2.66
467.756	2.67
467.958	2.7
468.161	2.79
468.363	2.79
468.566	2.76
468.768	2.63
468.971	2.65
469.173	2.59
469.375	2.46
469.578	2.46
469.78	2.45
469.983	2.51
470.185	2.67
470.387	2.67
470.59	2.68
470.792	2.7
470.994	2.76
471.196	2.76
471.399	2.84
471.601	2.86
471.803	2.84
472.005	2.93
472.208	2.81
472.41	2.69
472.612	2.72
472.814	2.63
473.016	2.66
473.218	2.71
473.421	2.71
473.623	2.7
473.825	2.66
474.027	2.66
474.229	2.6
474.431	2.57
474.633	2.56
474.835	2.52
475.037	2.44
475.239	2.4
475.441	2.4
475.643	2.37
475.845	2.38
476.047	2.32
476.249	2.18
476.451	2.24
476.653	2.25
476.855	2.25
477.057	2.12
477.258	2.25
477.46	2.21
477.662	2.17
477.864	2.29
478.066	2.24
478.268	2.26
478.469	2.39
478.671	2.34
478.873	2.47
479.075	2.44
479.276	2.47
479.478	2.37
479.68	2.47
479.882	2.47
480.083	2.38
480.285	2.4
480.487	2.44
480.688	2.41
480.89	2.43
481.091	2.34
481.293	2.4
481.495	2.43
481.696	2.51
481.898	2.37
482.099	2.3
482.301	2.26
482.502	2.18
482.704	2.17
482.905	2.16
483.107	2.11
483.308	2.09
483.51	2.05
483.711	2.03
483.913	2.02
484.114	2.01
484.315	2
484.517	2.02
484.718	2.06
484.92	2.05
485.121	2.06
485.322	2.05
485.524	2.09
485.725	2.11
485.926	2.11
486.127	2.09
486.329	2.15
486.53	2.18
486.731	2.16
486.932	2.16
487.134	2.18
487.335	2.19
487.536	2.22
487.737	2.19
487.938	2.19
488.139	2.21
488.341	2.27
488.542	2.27
488.743	2.27
488.944	2.29
489.145	2.31
489.346	2.29
489.547	2.34
489.748	2.33
489.949	2.33
490.15	2.33
490.351	2.32
490.552	2.27
490.753	2.26
490.954	2.27
491.155	2.27
491.356	2.24
491.557	2.25
491.758	2.2
491.959	2.23
492.159	2.29
492.36	2.27
492.561	2.27
492.762	2.29
492.963	2.35
493.164	2.34
493.364	2.41
493.565	2.45
493.766	2.5
493.967	2.48
494.167	2.45
494.368	2.41
494.569	2.49
494.769	2.54
494.97	2.54
495.171	2.52
495.371	2.6
495.572	2.58
495.773	2.56
495.973	2.6
496.174	2.7
496.375	2.76
496.575	2.74
496.776	2.73
496.976	2.73
497.177	2.68
497.377	2.66
497.578	2.68
497.778	2.71
497.979	2.81
498.179	2.83
498.38	2.82
498.58	2.88
498.78	2.93
498.981	2.86
499.181	2.95
499.382	3.05
499.582	3.06
499.782	3.02
499.983	3.03
500.183	2.95
500.383	2.92
500.584	2.98
500.784	2.89
500.984	2.96
501.184	3.08
501.385	3.07
501.585	3.01
501.785	3.05
501.985	3.08
502.185	3.08
502.386	3.21
502.586	3.29
502.786	3.29
502.986	3.37
503.186	3.39
503.386	3.33
503.586	3.32
503.786	3.43
503.987	3.45
504.187	3.47
504.387	3.48
504.587	3.48
504.787	3.45
504.987	3.58
505.187	3.61
505.387	3.62
505.587	3.72
505.786	3.78
505.986	3.81
506.186	3.89
506.386	3.97
506.586	3.95
506.786	3.9
506.986	3.94
507.186	3.95
507.386	3.97
507.585	4.02
507.785	4.02
507.985	4.02
508.185	4
508.384	3.95
508.584	3.99
508.784	4.01
508.984	4.04
509.183	4.03
509.383	4
509.583	4.08
509.782	4.06
509.982	4.05
510.182	4.09
510.381	4.12
510.581	4.23
510.781	4.23
510.98	4.37
511.18	4.42
511.379	4.46
511.579	4.49
511.778	4.47
511.978	4.56
512.177	4.72
512.377	4.71
512.576	4.81
512.776	4.76
512.975	4.8
513.175	4.81
513.374	4.86
513.573	4.93
513.773	4.97
513.972	5.13
514.172	5.16
514.371	5.16
514.57	5.21
514.77	5.18
514.969	5.25
515.168	5.28
515.367	5.26
515.567	5.32
515.766	5.39
515.965	5.47
516.164	5.54
516.364	5.59
516.563	5.6
516.762	5.67
516.961	5.81
517.16	5.81
517.359	5.84
517.559	5.91
517.758	5.96
517.957	6.02
518.156	6.02
518.355	5.99
518.554	5.97
518.753	6.03
518.952	6.09
519.151	6.04
519.35	6.12
519.549	6.18
519.748	6.27
519.947	6.29
520.146	6.28
520.345	6.32
520.544	6.36
520.743	6.54
520.942	6.52
521.141	6.62
521.339	6.73
521.538	6.83
521.737	6.93
521.936	6.91
522.135	7
522.333	7.1
522.532	7.18
522.731	7.21
522.93	7.15
523.129	7.25
523.327	7.23
523.526	7.25
523.725	7.33
523.923	7.36
524.122	7.51
524.321	7.57
524.519	7.59
524.718	7.74
524.917	7.81
525.115	7.88
525.314	7.99
525.512	8.04
525.711	8.11
525.909	8.11
526.108	8.16
526.306	8.09
526.505	8.12
526.703	8.13
526.902	8.06
527.1	8.05
527.299	8.06
527.497	8.04
527.696	8.03
527.894	8.02
528.092	8.06
528.291	8.07
528.489	8.13
528.688	8.16
528.886	8.21
529.084	8.24
529.283	8.3
529.481	8.33
529.679	8.39
529.877	8.49
530.076	8.56
530.274	8.65
530.472	8.73
530.67	8.79
530.869	8.83
531.067	8.83
531.265	8.88
531.463	8.93
531.661	8.99
531.859	9.04
532.057	9.08
532.255	9.12
532.454	9.1
532.652	9.12
532.85	9.14
533.048	9.22
533.246	9.31
533.444	9.37
533.642	9.39
533.84	9.44
534.038	9.51
534.236	9.52
534.434	9.6
534.632	9.71
534.83	9.76
535.027	9.83
535.225	9.84
535.423	9.83
535.621	9.92
535.819	10.03
536.017	10.13
536.215	10.1
536.412	10.19
536.61	10.23
536.808	10.23
537.006	10.32
537.203	10.39
537.401	10.42
537.599	10.56
537.797	10.67
537.994	10.64
538.192	10.63
538.39	10.78
538.587	10.8
538.785	10.84
538.983	10.89
539.18	10.91
539.378	10.94
539.575	10.97
539.773	10.99
539.97	10.93
540.168	10.99
540.366	11.01
540.563	11.01
540.761	11
540.958	11.03
541.155	11.03
541.353	11.07
541.55	11.1
541.748	11.18
541.945	11.2
542.143	11.29
542.34	11.33
542.537	11.36
542.735	11.43
542.932	11.5
543.129	11.61
543.327	11.76
543.524	11.86
543.721	11.95
543.919	11.99
544.116	12.09
544.313	12.23
544.51	12.24
544.708	12.41
544.905	12.51
545.102	12.7
545.299	12.67
545.496	12.66
545.693	12.69
545.891	12.78
546.088	12.93
546.285	12.96
546.482	12.88
546.679	12.99
546.876	12.97
547.073	12.97
547.27	12.99
547.467	13.05
547.664	13.09
547.861	13.11
548.058	13.09
548.255	13.07
548.452	13.09
548.649	13.21
548.846	13.37
549.043	13.36
549.24	13.42
549.437	13.38
549.633	13.43
549.83	13.54
550.027	13.61
550.224	13.66
550.421	13.65
550.618	13.66
550.814	13.61
551.011	13.63
551.208	13.74
551.405	13.72
551.601	13.85
551.798	13.92
551.995	14.01
552.191	14.05
552.388	14.07
552.585	14.11
552.781	14.22
552.978	14.26
553.175	14.25
553.371	14.31
553.568	14.37
553.764	14.36
553.961	14.45
554.157	14.39
554.354	14.42
554.55	14.51
554.747	14.62
554.943	14.65
555.14	14.75
555.336	14.75
555.533	14.64
555.729	14.79
555.926	14.89
556.122	14.8
556.318	14.82
556.515	14.84
556.711	14.91
556.907	14.87
557.104	14.92
557.3	15.06
557.496	15.16
557.693	15.36
557.889	15.28
558.085	15.3
558.281	15.45
558.478	15.53
558.674	15.59
558.87	15.53
559.066	15.54
559.262	15.54
559.459	15.48
559.655	15.37
559.851	15.37
560.047	15.5
560.243	15.46
560.439	15.49
560.635	15.52
560.831	15.48
561.027	15.7
561.223	15.8
561.419	15.78
561.615	15.75
561.811	15.96
562.007	15.96
562.203	15.9
562.399	15.96
562.595	16.08
562.791	16.07
562.987	16.19
563.183	16.07
563.379	16.15
563.575	16.27
563.771	16.39
563.966	16.33
564.162	16.42
564.358	16.5
564.554	16.5
564.75	16.49
564.945	16.49
565.141	16.46
565.337	16.38
565.533	16.34
565.728	16.2
565.924	16.26
566.12	16.23
566.315	16.35
566.511	16.39
566.707	16.35
566.902	16.33
567.098	16.41
567.293	16.49
567.489	16.62
567.684	16.62
567.88	16.71
568.076	16.63
568.271	16.71
568.467	16.58
568.662	16.67
568.858	16.87
569.053	16.88
569.248	16.91
569.444	16.9
569.639	16.85
569.835	16.88
570.03	16.97
570.225	17.02
570.421	17.05
570.616	17.09
570.812	16.98
571.007	16.8
571.202	16.72
571.397	16.73
571.593	16.78
571.788	16.87
571.983	16.85
572.178	16.91
572.374	17.02
572.569	17.05
572.764	16.99
572.959	17.04
573.154	17.17
573.35	17.21
573.545	17.25
573.74	17.27
573.935	17.26
574.13	17.29
574.325	17.28
574.52	17.17
574.715	17.15
574.91	17.29
575.105	17.36
575.3	17.37
575.495	17.38
575.69	17.45
575.885	17.53
576.08	17.58
576.275	17.72
576.47	17.74
576.665	17.83
576.86	17.91
577.055	17.98
577.25	17.88
577.444	17.98
577.639	18.14
577.834	18.27
578.029	18.33
578.224	18.45
578.418	18.47
578.613	18.6
578.808	18.68
579.003	18.8
579.197	18.84
579.392	18.95
579.587	18.84
579.781	18.93
579.976	18.85
580.171	18.79
580.365	18.75
580.56	18.69
580.755	18.7
580.949	18.57
581.144	18.62
581.338	18.56
581.533	18.61
581.727	18.87
581.922	18.7
582.116	18.58
582.311	18.57
582.505	18.64
582.7	18.74
582.894	18.75
583.089	18.92
583.283	18.88
583.478	18.94
583.672	19.07
583.866	18.99
584.061	19.13
584.255	19.21
584.449	19.28
584.644	19.21
584.838	19.2
585.032	19.15
585.226	19.09
585.421	19.1
585.615	19.1
585.809	19.2
586.003	19.27
586.198	19.3
586.392	19.36
586.586	19.37
586.78	19.37
586.974	19.29
587.168	19.24
587.363	19.34
587.557	19.23
587.751	19.21
587.945	18.91
588.139	18.73
588.333	18.58
588.527	18.64
588.721	18.62
588.915	18.61
589.109	18.72
589.303	18.93
589.497	18.83
589.691	18.88
589.885	18.92
590.079	19.06
590.273	19.22
590.466	19.25
590.66	19.26
590.854	19.3
591.048	19.42
591.242	19.39
591.436	19.28
591.629	19.42
591.823	19.45
592.017	19.43
592.211	19.65
592.404	19.63
592.598	19.64
592.792	19.58
592.986	19.52
593.179	19.4
593.373	19.43
593.567	19.43
593.76	19.42
593.954	19.41
594.147	19.32
594.341	19.14
594.535	19.13
594.728	19.22
594.922	19.11
595.115	19.1
595.309	19.18
595.502	19.12
595.696	19
595.889	18.88
596.083	18.94
596.276	19.05
596.47	19.13
596.663	19.09
596.856	19.02
597.05	19.06
597.243	19.11
597.437	19.19
597.63	19.21
597.823	19.42
598.017	19.54
598.21	19.53
598.403	19.61
598.596	19.6
598.79	19.63
598.983	19.72
599.176	19.77
599.369	19.89
599.563	19.85
599.756	19.81
599.949	19.82
600.142	19.83
600.335	19.94
600.528	19.7
600.722	19.55
600.915	19.63
601.108	19.73
601.301	19.72
601.494	19.61
601.687	19.57
601.88	19.86
602.073	19.72
602.266	19.71
602.459	19.62
602.652	19.77
602.845	19.9
603.038	19.95
603.231	19.81
603.424	19.8
603.617	19.72
603.809	19.67
604.002	19.39
604.195	19.5
604.388	19.47
604.581	19.37
604.774	19.4
604.966	19.46
605.159	19.47
605.352	19.56
605.545	19.73
605.737	19.89
605.93	19.99
606.123	20.28
606.316	20.25
606.508	20.38
606.701	20.67
606.894	20.57
607.086	20.35
607.279	20.23
607.471	20.25
607.664	20.17
607.857	20.27
608.049	20.3
608.242	20.3
608.434	20.27
608.627	20.37
608.819	20.46
609.012	20.67
609.204	20.98
609.397	21.21
609.589	21.5
609.782	21.61
609.974	21.82
610.166	22.02
610.359	22.33
610.551	22.71
610.743	22.95
610.936	23.09
611.128	23.26
611.32	23.38
611.513	23.58
611.705	23.5
611.897	23.58
612.09	23.38
612.282	23.52
612.474	23.21
612.666	23.07
612.858	23.03
613.051	22.84
613.243	22.85
613.435	22.86
613.627	22.61
613.819	22.57
614.011	22.76
614.203	22.84
614.395	22.63
614.588	22.63
614.78	22.5
614.972	22.1
615.164	22.14
615.356	22.09
615.548	21.86
615.74	21.83
615.932	21.8
616.124	21.44
616.315	21.48
616.507	21.42
616.699	21.43
616.891	21.47
617.083	21.49
617.275	21.44
617.467	21.27
617.659	21.28
617.85	21.33
618.042	21.42
618.234	21.52
618.426	21.46
618.618	21.45
618.809	21.4
619.001	21.25
619.193	21.36
619.384	21.51
619.576	21.67
619.768	21.73
619.959	21.92
620.151	21.87
620.343	22
620.534	21.92
620.726	21.87
620.917	21.86
621.109	21.9
621.301	21.85
621.492	21.68
621.684	21.55
621.875	21.37
622.067	21
622.258	20.99
622.45	21.01
622.641	20.97
622.832	21.13
623.024	21.18
623.215	21.2
623.407	21.06
623.598	21.39
623.789	21.43
623.981	21.51
624.172	21.63
624.363	21.59
624.555	21.67
624.746	21.75
624.937	21.58
625.129	21.53
625.32	21.57
625.511	21.84
625.702	21.47
625.893	21.42
626.085	21.41
626.276	21.45
626.467	21.57
626.658	21.4
626.849	21.41
627.04	21.41
627.231	21.4
627.422	21.39
627.614	21.23
627.805	21.3
627.996	21.46
628.187	21.6
628.378	21.62
628.569	21.56
628.76	21.63
628.951	21.67
629.142	21.72
629.332	21.77
629.523	21.67
629.714	21.79
629.905	21.94
630.096	22.01
630.287	21.98
630.478	22.13
630.669	22.08
630.859	22.16
631.05	22.07
631.241	22.1
631.432	21.94
631.623	22.05
631.813	21.92
632.004	21.71
632.195	21.36
632.385	21.31
632.576	21.07
632.767	21.15
632.957	20.88
633.148	20.89
633.339	20.84
633.529	20.96
633.72	20.91
633.91	20.96
634.101	20.99
634.292	21.12
634.482	21.01
634.673	20.99
634.863	21.06
635.054	21.41
635.244	21.41
635.435	21.51
635.625	21.64
635.815	21.79
636.006	21.8
636.196	21.78
636.387	21.64
636.577	21.83
636.767	21.84
636.958	21.76
637.148	21.63
637.338	21.67
637.529	21.58
637.719	21.62
637.909	21.61
638.099	21.56
638.29	21.58
638.48	21.64
638.67	21.65
638.86	21.67
639.05	21.51
639.241	21.62
639.431	21.51
639.621	21.49
639.811	21.45
640.001	21.31
640.191	21.61
640.381	21.7
640.571	21.88
640.761	21.96
640.951	22.29
641.141	22.47
641.331	22.3
641.521	22.41
641.711	22.79
641.901	22.75
642.091	22.95
642.281	22.79
642.471	22.66
642.661	22.7
642.851	22.43
643.041	22.3
643.231	22.28
643.42	22.41
643.61	22.46
643.8	22.31
643.99	22.32
644.18	22.35
644.369	22.34
644.559	22.44
644.749	22.28
644.939	22.5
645.128	22.38
645.318	22.36
645.508	22.29
645.697	22.01
645.887	21.92
646.076	22.11
646.266	22.11
646.456	22.19
646.645	22.3
646.835	22.12
647.024	22.13
647.214	22.23
647.403	22.39
647.593	22.49
647.782	22.85
647.972	22.72
648.161	22.52
648.351	22.34
648.54	22.56
648.73	22.48
648.919	22.86
649.108	22.65
649.298	22.66
649.487	22.51
649.677	22.45
649.866	22.29
650.055	22.36
650.244	22.41
650.434	22.52
650.623	22.24
650.812	22.17
651.002	21.92
651.191	21.98
651.38	22.09
651.569	22.03
651.758	22.05
651.947	22.12
652.137	22.18
652.326	22.24
652.515	22.22
652.704	22.57
652.893	22.59
653.082	22.71
653.271	22.83
653.46	22.53
653.649	22.7
653.838	22.63
654.027	22.95
654.216	22.9
654.405	22.93
654.594	22.88
654.783	22.72
654.972	22.96
655.161	23.05
655.35	22.94
655.539	23.1
655.728	22.95
655.916	23.1
656.105	22.92
656.294	23.01
656.483	22.92
656.672	22.71
656.86	22.45
657.049	22.26
657.238	22.15
657.427	22.16
657.615	22.2
657.804	22.34
657.993	22
658.181	21.97
658.37	21.91
658.559	21.86
658.747	21.93
658.936	21.91
659.125	22.28
659.313	22.28
659.502	22.25
659.69	22.24
659.879	22.24
660.067	22.53
660.256	22.43
660.444	22.39
660.633	22.43
660.821	22.6
661.01	22.91
661.198	22.66
661.387	22.82
661.575	22.92
661.763	22.96
661.952	23.14
662.14	23.24
662.328	23.5
662.517	23.64
662.705	23.89
662.893	24.03
663.082	23.8
663.27	23.92
663.458	23.93
663.646	23.93
663.834	24.16
664.023	23.82
664.211	23.72
664.399	23.51
664.587	23.7
664.775	23.63
664.963	23.6
665.152	23.75
665.34	23.53
665.528	23.35
665.716	23.34
665.904	23.02
666.092	23.31
666.28	23.21
666.468	23.28
666.656	23.08
666.844	22.99
667.032	22.93
667.22	22.75
667.408	22.84
667.596	22.81
667.784	22.99
667.971	23.06
668.159	22.95
668.347	22.97
668.535	22.99
668.723	22.7
668.911	22.63
669.098	22.63
669.286	22.71
669.474	22.81
669.662	23.09
669.849	22.9
670.037	23.08
670.225	23.12
670.413	23.12
670.6	23.4
670.788	23.71
670.976	23.79
671.163	23.85
671.351	23.89
671.538	23.81
671.726	23.73
671.913	23.78
672.101	23.71
672.289	23.74
672.476	23.63
672.664	23.37
672.851	23.67
673.039	23.78
673.226	23.75
673.413	23.82
673.601	23.74
673.788	23.72
673.976	23.84
674.163	23.96
674.35	23.79
674.538	24.07
674.725	24.06
674.912	23.92
675.1	23.73
675.287	23.65
675.474	23.86
675.662	23.89
675.849	23.89
676.036	23.96
676.223	24.02
676.411	24.23
676.598	24.1
676.785	24.18
676.972	24.12
677.159	24.41
677.346	24.4
677.533	24.23
677.721	24.26
677.908	24.15
678.095	23.66
678.282	23.28
678.469	23.26
678.656	23.31
678.843	22.99
679.03	22.88
679.217	22.87
679.404	22.86
679.591	22.82
679.778	22.95
679.964	23.11
680.151	23.55
680.338	23.49
680.525	23.37
680.712	23.26
680.899	23.45
681.086	23.32
681.272	23.28
681.459	23.3
681.646	23.48
681.833	23.41
682.02	23.52
682.206	23.45
682.393	23.67
682.58	23.65
682.766	23.66
682.953	23.81
683.14	24.07
683.326	24.23
683.513	24.43
683.7	24.48
683.886	24.46
684.073	24.45
684.259	24.35
684.446	24.4
684.632	24.41
684.819	24.48
685.005	24.3
685.192	24.2
685.378	23.87
685.565	23.65
685.751	23.42
685.938	23.36
686.124	22.93
686.31	22.94
686.497	22.83
686.683	23.02
686.87	23.03
687.056	22.96
687.242	23.02
687.429	23.4
687.615	23.59
687.801	23.43
687.987	23.51
688.174	23.89
688.36	23.91
688.546	24.08
688.732	23.81
688.918	23.79
689.105	24.08
689.291	24.26
689.477	24.18
689.663	24.18
689.849	24.42
690.035	24.26
690.221	24.6
690.407	24.74
690.593	24.68
690.779	24.94
690.965	24.78
691.151	24.56
691.337	24.28
691.523	24.13
691.709	24.34
691.895	24.3
692.081	24.41
692.267	24.14
692.453	24.25
692.639	24.21
692.825	24.13
693.011	24.51
693.196	24.76
693.382	24.98
693.568	24.49
693.754	24.33
693.94	24.23
694.125	24.35
694.311	24.24
694.497	24.18
694.682	24.08
694.868	24.5
695.054	24.33
695.239	24.16
695.425	24.2
695.611	24.24
695.796	24.01
695.982	23.88
696.168	24.07
696.353	24.19
696.539	24.07
696.724	24.28
696.91	23.83
697.095	23.64
697.281	23.61
697.466	23.47
697.652	23.69
697.837	23.57
698.023	23.67
698.208	23.4
698.393	23.25
698.579	23.33
698.764	23.3
698.949	23.21
699.135	23.49
699.32	23.36
699.505	23.34
699.691	23.53
699.876	23.47
700.061	23.62
700.246	23.84
700.432	24.02
700.617	23.82
700.802	23.77
700.987	24.03
701.172	23.89
701.358	24.1
701.543	24.24
701.728	24.4
701.913	24.75
702.098	24.52
702.283	24.61
702.468	24.4
702.653	24.75
702.838	24.78
703.023	25.13
703.208	25.03
703.393	25.26
703.578	25.44
703.763	25.37
703.948	25.73
704.133	25.79
704.318	25.77
704.503	25.94
704.688	25.9
704.873	26.04
705.057	25.91
705.242	26.03
705.427	26.18
705.612	26.09
705.797	26.06
705.981	25.89
706.166	26.08
706.351	25.85
706.536	26.08
706.72	25.96
706.905	25.96
707.09	25.59
707.274	25.76
707.459	25.86
707.644	25.99
707.828	26.01
708.013	26.06
708.197	26.11
708.382	25.88
708.567	25.55
708.751	25.48
708.936	25.4
709.12	25.68
709.305	25.41
709.489	25.4
709.673	25.61
709.858	25.71
710.042	25.77
710.227	25.7
710.411	26.11
710.596	26.45
710.78	26.84
710.964	27.12
711.149	26.86
711.333	26.99
711.517	26.69
711.702	26.61
711.886	26.18
712.07	26.28
712.254	26.7
712.438	26.57
712.623	26.32
712.807	26.38
712.991	26.24
713.175	26.66
713.359	26.78
713.544	26.9
713.728	26.82
713.912	27.17
714.096	26.92
714.28	26.14
714.464	26.44
714.648	26.37
714.832	25.96
715.016	25.61
715.2	25.19
715.384	25.02
715.568	24.68
715.752	24.43
715.936	23.82
716.12	23.73
716.304	24.24
716.488	23.65
716.671	23.49
716.855	23.94
717.039	24.18
717.223	24.53
717.407	24.59
717.59	24.87
717.774	24.86
717.958	25.33
718.142	25.18
718.325	25.31
718.509	25.63
718.693	25.81
718.877	25.45
719.06	25.38
719.244	25.19
719.428	25.12
719.611	25.19
719.795	25.06
719.978	25.04
720.162	25.52
720.345	25.28
720.529	25.59
720.713	25.78
720.896	25.58
721.08	25.37
721.263	25.69
721.446	25.63
721.63	25.97
721.813	26.48
721.997	26.93
722.18	27.03
722.364	27.13
722.547	26.79
722.73	26.52
722.914	26.84
723.097	27.38
723.28	26.9
723.464	27.33
723.647	27.11
723.83	27.23
724.013	27.35
724.197	27.34
724.38	26.95
724.563	27.1
724.746	27.62
724.929	27.77
725.112	28.22
725.296	28.21
725.479	27.75
725.662	27.99
725.845	27.74
726.028	27.31
726.211	27.19
726.394	27.57
726.577	27.17
726.76	26.8
726.943	26.21
727.126	25.5
727.309	25.78
727.492	25.78
727.675	25.4
727.858	25.67
728.041	25.66
728.224	25.79
728.407	25.3
728.589	25.12
728.772	25.01
728.955	25.3
729.138	25.38
729.321	25.6
729.503	25.71
729.686	25.61
729.869	25.47
730.052	25.36
730.234	25.4
730.417	25.27
730.6	25.89
730.782	26.21
730.965	26.61
731.148	26.57
731.33	25.98
731.513	26.42
731.695	26.33
731.878	25.94
732.061	25.7
732.243	25.1
732.426	25.65
732.608	25.38
732.791	25.17
732.973	24.8
733.156	24.83
733.338	25.14
733.52	24.83
733.703	24.69
733.885	25.17
734.068	25.63
734.25	25.65
734.432	25.57
734.615	25.78
734.797	25.86
734.979	26.19
735.162	26.29
735.344	26.4
735.526	26.42
735.708	27.23
735.891	26.96
736.073	26.79
736.255	27.45
736.437	27.49
736.619	28.03
736.802	27.88
736.984	28.03
737.166	28.21
737.348	28.35
737.53	28.71
737.712	28.22
737.894	28.68
738.076	29
738.258	29.17
738.44	29.2
738.622	28.61
738.804	28.81
738.986	28.44
739.168	28.52
739.35	28.46
739.532	28.11
739.714	28.18
739.896	27.47
740.078	27.36
740.259	27.02
740.441	26.93
740.623	26.88
740.805	26.67
740.987	27.41
741.168	27.47
741.35	27.22
741.532	27.28
741.714	27.51
741.895	27.89
742.077	28.19
742.259	28.28
742.44	28.83
742.622	29.01
742.804	29.49
742.985	28.73
743.167	28.53
743.348	28.97
743.53	29.14
743.711	29.43
743.893	29.82
744.075	29.82
744.256	29.96
744.438	30.04
744.619	30.48
744.8	30.83
744.982	30.91
745.163	31.28
745.345	31.23
745.526	31.84
745.707	31.75
745.889	30.91
746.07	31.25
746.252	31.39
746.433	30.61
746.614	30.91
746.795	30.36
746.977	30.24
747.158	30.27
747.339	30.04
747.52	29.4
747.702	29.33
747.883	29.76
748.064	29.34
748.245	29.25
748.426	29.15
748.607	28.49
748.788	29.03
748.97	29.48
749.151	29.16
749.332	29.1
749.513	29.38
749.694	28.94
749.875	29.13
750.056	29
750.237	28.88
750.418	29.25
750.599	28.99
750.78	28.68
750.96	28.31
751.141	28.32
751.322	28.57
751.503	28.29
751.684	28.8
751.865	28.96
752.046	29.13
752.226	29.68
752.407	29.6
752.588	30.11
752.769	30.39
752.949	30.29
753.13	30.76
753.311	30.56
753.492	30.76
753.672	30.67
753.853	30.6
754.034	30.47
754.214	30.55
754.395	30.77
754.575	31.3
754.756	31.21
754.937	31.77
755.117	31.15
755.298	31.24
755.478	31.3
755.659	30.96
755.839	31.23
756.02	31.67
756.2	31.88
756.381	31.82
756.561	31.12
756.741	30.65
756.922	30.22
757.102	30.43
757.283	30.44
757.463	29.95
757.643	29.6
757.823	29.44
758.004	28.99
758.184	28.74
758.364	28.92
758.545	28.81
758.725	29.42
758.905	28.73
759.085	28.08
759.265	27.91
759.446	27.85
759.626	27.55
759.806	27.55
759.986	27.15
760.166	26.61
760.346	26.27
760.526	26.15
760.706	25.38
760.886	25.53
761.066	25.61
761.246	25.75
761.426	26.18
761.606	26.52
761.786	25.76
761.966	26.06
762.146	25.55
762.326	25.08
762.506	24.95
762.686	25.32
762.866	25.1
763.046	24.89
763.225	24.96
763.405	24.81
763.585	24.96
763.765	25.24
763.945	24.92
764.124	25.04
764.304	25.5
764.484	25.58
764.664	25.39
764.843	25.54
765.023	25.87
765.203	25.83
765.382	25.7
765.562	26.12
765.741	26.09
765.921	26.62
766.101	26.95
766.28	26.75
766.46	27.56
766.639	27.79
766.819	28.74
766.998	28.97
767.178	29.32
767.357	29.1
767.537	29.24
767.716	29.55
767.896	29.77
768.075	30
768.254	30.56
768.434	29.95
768.613	30.3
768.792	30.88
768.972	30.97
769.151	31.37
769.33	32.4
769.51	32.25
769.689	32.54
769.868	31.79
770.047	32.16
770.226	32
770.406	32.19
770.585	31.65
770.764	30.82
770.943	31.19
771.122	30.75
771.301	30.83
771.48	30.97
771.66	31.12
771.839	32.46
772.018	32.4
772.197	32.52
772.376	33.05
772.555	33.99
772.734	33.93
772.913	33.53
773.092	33.7
773.271	33.12
773.449	32.51
773.628	32.91
773.807	31.84
773.986	31.86
774.165	32.25
774.344	32.17
774.523	32.33
774.701	32.87
774.88	33.65
775.059	33.77
775.238	34.34
775.417	34.92
775.595	34.17
775.774	34.53
775.953	34
776.131	33.65
776.31	33.03
776.489	31.39
776.667	30.21
776.846	29.75
777.025	28.98
777.203	29.38
777.382	28.38
777.56	28.71
777.739	28.96
777.917	29.24
778.096	29.66
778.274	29.42
778.453	30.11
778.631	31.07
778.81	30.76
778.988	31.35
779.166	31.43
779.345	32.49
779.523	32.28
779.702	32.49
779.88	32.13
780.058	31.69
780.237	32.68
780.415	33.46
780.593	33.35
780.771	34.73
780.95	33.65
781.128	33.49
781.306	32.5
781.484	32.51
781.662	32.18
781.841	32.64
782.019	32.48
782.197	32.05
782.375	32.23
782.553	32.08
782.731	31.04
782.909	31.73
783.087	31.26
783.265	32.49
783.443	32.6
783.621	32.8
783.799	31.97
783.977	32.8
784.155	33
784.333	32.11
784.511	31.83
784.689	31.72
784.867	32.81
785.045	32.63
785.223	32.27
785.4	32.56
785.578	32.9
785.756	34.29
785.934	33.12
786.112	32.84
786.289	32.51
786.467	32.49
786.645	32.57
786.823	31.16
787	31.51
787.178	31.69
787.356	31.67
787.533	30.93
787.711	30.7
787.889	31.21
788.066	31.35
788.244	31.8
788.421	31.88
788.599	32.5
788.776	33.13
788.954	33.16
789.131	33.23
789.309	33.7
789.486	34.51
789.664	34.4
789.841	34.43
790.019	33.59
790.196	34.3
790.373	34.75
790.551	34.21
790.728	33.95
790.906	33.88
791.083	34.4
791.26	33.35
791.437	33.4
791.615	33.22
791.792	34.42
791.969	35.69
792.146	35.53
792.324	35.8
792.501	35.09
792.678	36.13
792.855	36.5
793.032	35.88
793.209	36.05
793.387	36.64
793.564	36.04
793.741	35.16
793.918	35.12
794.095	34.73
794.272	34.4
794.449	35.22
794.626	34.51
794.803	34.01
794.98	33.6
795.157	34.31
795.334	32.79
795.511	33.1
795.688	32.56
795.864	32.37
796.041	32.87
796.218	32.81
796.395	32.58
796.572	31.79
796.749	31.27
796.925	31.13
797.102	30.81
797.279	30.47
797.456	31.46
797.632	31.24
797.809	31.62
797.986	30.89
798.162	31.09
798.339	31.08
798.516	32.32
798.692	33.32
798.869	33.47
799.046	34.16
799.222	34.74
799.399	34.11
799.575	34.86
799.752	34.82
799.928	34.57
800.105	34.13
800.281	34.58
800.458	33.45
800.634	33.57
800.811	33.63
800.987	32.69
801.163	31.95
801.34	31.62
801.516	31.22
801.692	30.91
801.869	32.8
802.045	33.48
802.221	33.48
802.398	34.18
802.574	32.97
802.75	32.11
802.926	32.85
803.103	33.56
803.279	34.07
803.455	33.67
803.631	33.61
803.807	32.14
803.983	31.37
804.16	31.23
804.336	31.77
804.512	32.44
804.688	34.86
804.864	34.02
805.04	34.57
805.216	34.51
805.392	36.11
805.568	35.89
805.744	36
805.92	37.11
806.096	37.81
806.272	38.08
806.448	39.53
806.623	38.99
806.799	39.2
806.975	39.27
807.151	39.94
807.327	39.19
807.503	39.84
807.678	39.46
807.854	38.59
808.03	38.5
808.206	38.25
808.381	37.55
808.557	36.55
808.733	36.36
808.908	34.94
809.084	34.26
809.26	34.21
809.435	34.86
809.611	34.19
809.787	34.06
809.962	33.27
810.138	33.85
810.313	34.36
810.489	35.2
810.664	35.69
810.84	36.69
811.015	36.54
811.191	36.53
811.366	35.86
811.542	35.15
811.717	35.94
811.892	36.91
812.068	35.71
812.243	34.59
812.419	34.72
812.594	34.5
812.769	33.31
812.944	33.97
813.12	33.26
813.295	33.56
813.47	35.55
813.645	36.66
813.821	35.59
813.996	36.56
814.171	35.94
814.346	34.87
814.521	34.62
814.697	36.37
814.872	35.9
815.047	37.07
815.222	36.36
815.397	34.54
815.572	33.1
815.747	32.75
815.922	31.38
816.097	31.86
816.272	32.39
816.447	32.39
816.622	32.09
816.797	32.07
816.972	30.96
817.147	31.82
817.322	32.47
817.496	31.82
817.671	32.68
817.846	32.66
818.021	33
818.196	32.8
818.371	32.95
818.545	32.9
818.72	32.88
818.895	32.27
819.069	30.88
819.244	31.51
819.419	32.24
819.594	31.7
819.768	31.48
819.943	30.93
820.117	31.17
820.292	30.48
820.467	28.77
820.641	27.65
820.816	26.77
820.99	25.76
821.165	24.91
821.339	24.43
821.514	23.57
821.688	23.3
821.863	23
822.037	22.57
822.212	22.42
822.386	22.55
822.56	22.4
822.735	22.65
822.909	22.71
823.084	22.96
823.258	22.41
823.432	22.52
823.606	22.54
823.781	22.87
823.955	22.97
824.129	22.99
824.303	22.89
824.478	23.04
824.652	22.85
824.826	23.3
825	22.64
825.174	23.32
825.348	23.86
825.523	24.16
825.697	23.95
825.871	23.87
826.045	24.26
826.219	24.42
826.393	24.88
826.567	25.3
826.741	24.7
826.915	25.47
827.089	25.58
827.263	25.2
827.437	24.98
827.611	24.33
827.784	24.39
827.958	24.01
828.132	24.02
828.306	24.04
828.48	24.7
828.654	25.94
828.827	26.07
829.001	25.67
829.175	26.64
829.349	27.39
829.522	28.69
829.696	29.62
829.87	30.52
830.044	32
830.217	31.64
830.391	30.17
830.565	29.42
830.738	29.06
830.912	30.48
831.085	29.45
831.259	29.06
831.432	29.5
831.606	29.18
831.779	27.97
831.953	28.43
832.126	27.99
832.3	30.11
832.473	29.23
832.647	28.98
832.82	28.19
832.994	28.42
833.167	28.58
833.34	27.75
833.514	27.43
833.687	27.76
833.86	26.12
834.034	26.54
834.207	25.28
834.38	25.56
834.553	26.28
834.727	26.73
834.9	27.08
835.073	27.05
835.246	27
835.419	27.35
835.593	27.92
835.766	28.06
835.939	28.77
836.112	29.54
836.285	29.67
836.458	29.7
836.631	30.4
836.804	30.35
836.977	31.16
837.15	32.09
837.323	32.83
837.496	33.4
837.669	36.54
837.842	36.87
838.015	36.1
838.188	37.57
838.361	36.82
838.533	37.71
838.706	37.94
838.879	38.17
839.052	37.89
839.225	36.9
839.398	35.73
839.57	34.12
839.743	31.84
839.916	34.26
840.088	33.15
840.261	34.29
840.434	34.69
840.607	35.19
840.779	33.96
840.952	34.48
841.124	34.27
841.297	36.07
841.47	37.44
841.642	39.03
841.815	39.12
841.987	40.54
842.16	40.22
842.332	39.56
842.505	38.52
842.677	40.93
842.85	41.6
843.022	43.66
843.194	40.81
843.367	41.42
843.539	40.91
843.712	41.05
843.884	43.32
844.056	46.92
844.229	47.13
844.401	50.03
844.573	48.38
844.745	46.86
844.918	46.75
845.09	49.96
845.262	49.22
845.434	52.8
845.606	52.61
845.779	51.62
845.951	49.27
846.123	48.65
846.295	48.77
846.467	48.5
846.639	53.84
846.811	53.19
846.983	55.91
847.155	55.78
847.327	54.34
847.499	53.08
847.671	52.95
847.843	54.86
848.015	55.83
848.187	55.23
848.359	57.52
848.531	54.82
848.703	54.21
848.875	48.24
849.047	50.57
849.218	50.75
849.39	52.18
849.562	53.09
849.734	52.31
849.905	52.71
850.077	52.57
850.249	49.64
850.421	49.85
850.592	53.13
850.764	52.06
850.936	49.95
851.107	49.87
851.279	48.76
851.451	49.63
851.622	48.49
851.794	47.55
851.965	51.34
852.137	59.77
852.308	59.38
852.48	56.87
852.651	60.4
852.823	63.01
852.994	65.73
853.166	66.87
853.337	65.65
853.509	66.91
853.68	65.46
853.851	60.96
854.023	53.01
854.194	54.11
854.365	55.3
854.537	55.87
854.708	57.1
854.879	52.47
855.05	53.21
855.222	50.37
855.393	52.16
855.564	54
855.735	53.13
855.906	52.42
856.078	53.08
856.249	53.16
856.42	51.61
856.591	51.12
856.762	50.54
856.933	51.62
857.104	53.73
857.275	54.99
857.446	53.72
857.617	56.96
857.788	56.4
857.959	56.85
858.13	55.76
858.301	58.15
858.472	58.41
858.643	62.25
858.814	64.88
858.985	66.28
859.155	65.78
859.326	65.52
859.497	66.23
859.668	69.71
859.839	63.75
860.009	67.78
860.18	66.98
860.351	65.82
860.522	66.85
860.692	59.94
860.863	60.34
861.034	53.1
861.204	54.37
861.375	52.42
861.546	50.19
861.716	53.97
861.887	51.84
862.057	50.79
862.228	50.87
862.398	49.62
862.569	55.37
862.739	52.38
862.91	58.72
863.08	59.07
863.251	61.44
863.421	62.94
863.592	63.58
863.762	64.47
863.932	67.17
864.103	63.35
864.273	61.31
864.443	59.75
864.614	64.05
864.784	62.89
864.954	64.46
865.125	62.79
865.295	64.88
865.465	57.98
865.635	55.17
865.805	52.62
865.976	57.2
866.146	59.7
866.316	58.08
866.486	55.01
866.656	57.18
866.826	52.01
866.996	53.42
867.166	51.45
867.336	59.7
867.506	61.49
867.676	62.34
867.846	61.03
868.016	60.48
868.186	63.9
868.356	65.12
868.526	60.8
868.696	63.82
868.866	57.3
869.036	59.52
869.206	58.97
869.376	57.04
869.545	60.58
869.715	64.42
869.885	63.37
870.055	60.19
870.224	58.97
870.394	58.53
870.564	56.69
870.734	64.51
870.903	62.08
871.073	60.6
871.243	65.86
871.412	63.25
871.582	58.5
871.751	59.01
871.921	58.23
872.091	56.57
872.26	58.99
872.43	62.18
872.599	54.45
872.769	55.02
872.938	54.07
873.108	48.83
873.277	47.15
873.446	47.39
873.616	48.59
873.785	46.15
873.955	49.17
874.124	48.21
874.293	48.15
874.463	51.97
874.632	51.76
874.801	55.66
874.971	56.73
875.14	57.61
875.309	61.38
875.478	62.89
875.647	65.73
875.817	65.06
875.986	62.44
876.155	62.84
876.324	63.57
876.493	66.25
876.662	60.26
876.831	61.86
877	61.44
877.17	58.17
877.339	57.7
877.508	58.8
877.677	56.35
877.846	55.56
878.015	53.37
878.184	50.58
878.352	51.44
878.521	53.78
878.69	53.66
878.859	49.8
879.028	47.82
879.197	44.7
879.366	45.47
879.534	42.6
879.703	42.3
879.872	39.57
880.041	37.91
880.21	34.49
880.378	31.62
880.547	29.09
880.716	28.56
880.884	26.99
881.053	26.14
881.222	26.1
881.39	25.86
881.559	25.51
881.727	25.65
881.896	25.84
882.065	26.37
882.233	26.71
882.402	26.89
882.57	26.9
882.739	27.47
882.907	27.81
883.076	26.35
883.244	26.15
883.412	26.72
883.581	26.33
883.749	26
883.918	25.82
884.086	25.37
884.254	26.29
884.423	26.38
884.591	26.66
884.759	27.28
884.927	29.42
885.096	29.92
885.264	29.45
885.432	31.11
885.6	33.81
885.769	35.44
885.937	37.13
886.105	37.39
886.273	40.04
886.441	40.41
886.609	41.56
886.777	39.93
886.945	42.15
887.113	46.07
887.281	48.11
887.449	45.73
887.617	44.27
887.785	43.73
887.953	41.1
888.121	41.52
888.289	43.32
888.457	43.88
888.625	46.88
888.793	45.81
888.961	44.44
889.129	38.92
889.296	39.6
889.464	39.37
889.632	40.77
889.8	41.92
889.967	39.07
890.135	38.24
