Data from 2938788__Reflection_04.txt Node
Date: Fri Mar 13 11:47:29 EDT 2015
User: robert
Spectrometer: USB4E03002
Autoset integration time: false
Trigger mode: 4
Integration Time (sec): 1.000000E-1
Scans to average: 10
Electric dark correction enabled: false
Nonlinearity correction enabled: false
Boxcar width: 5
Stray light correction enabled: false
XAxis mode: Wavelengths
Stop averaging: false
Number of Pixels in Spectrum: 3648
>>>>>Begin Spectral Data<<<<<
177.575	-819.17
177.794	-8857.14
178.014	-1175.65
178.233	-908.79
178.452	-606.82
178.672	-448.89
178.891	-475.28
179.11	-491
179.33	-449.62
179.549	-530.04
179.768	-625.35
179.987	-973.53
180.207	-625.06
180.426	-1031.62
180.645	-1791.67
180.864	-6804.88
181.084	2115.67
181.303	3339.33
181.522	1660.45
181.741	3997.3
181.96	1672.73
182.179	702.43
182.398	607.02
182.618	487.82
182.837	541.79
183.056	423.51
183.275	413.23
183.494	451.85
183.713	408.98
183.932	403.32
184.151	384.49
184.37	447.99
184.589	559.93
184.808	685.01
185.027	702.46
185.246	709.46
185.465	2369.23
185.684	1226.27
185.903	1462.56
186.122	1713.97
186.341	5996.08
186.56	2723.28
186.779	3519.28
186.998	1762.64
187.216	-4275
187.435	-1023.55
187.654	-1129.48
187.873	-1586.93
188.092	-4108.7
188.311	21661.54
188.53	-3320.99
188.748	8859.38
188.967	-1360
189.186	-1642.44
189.405	-769.88
189.623	-2866.67
189.842	6710.64
190.061	2329.23
190.28	3443.48
190.498	-1832.94
190.717	-1443.12
190.936	-1125.93
191.154	-725.6
191.373	-2177.18
191.592	-1825.58
191.81	-1539.52
192.029	-1217.2
192.248	-1174.3
192.466	-4452.11
192.685	-21635.71
192.904	-1060.85
193.122	-5072.73
193.341	1199.6
193.559	650
193.778	708.25
193.996	557.17
194.215	619.37
194.433	622.93
194.652	518.87
194.87	1002.52
195.089	782.97
195.307	427.27
195.526	462.28
195.744	526.86
195.963	461.61
196.181	415.28
196.399	452.26
196.618	357.95
196.836	408.36
197.055	512.36
197.273	529.87
197.491	618.98
197.71	567.52
197.928	830
198.146	881.03
198.365	8131.25
198.583	-4875.47
198.801	-1971.21
199.019	-2124.22
199.238	-5440
199.456	1758.39
199.674	921.03
199.892	749.87
200.111	1239.06
200.329	1186.08
200.547	1038.87
200.765	723.02
200.983	656.62
201.202	673.78
201.42	861.29
201.638	874.7
201.856	1420.41
202.074	1786.62
202.292	-4430.65
202.51	17962.5
202.728	9489.66
202.946	-3390.91
203.165	-3391.25
203.383	5265.38
203.601	2034.81
203.819	4603.64
204.037	996.76
204.255	1111.2
204.473	1300.46
204.691	709.25
204.909	585.68
205.127	587.58
205.345	671.22
205.562	815.48
205.78	1060.73
205.998	1085.53
206.216	658.66
206.434	953.61
206.652	602.39
206.87	642.17
207.088	614.62
207.306	868.09
207.523	715.12
207.741	576.74
207.959	538.82
208.177	748.05
208.395	792.53
208.612	1129.62
208.83	823.24
209.048	911.36
209.266	1127.42
209.483	1013.33
209.701	1131.37
209.919	1793.94
210.136	1291.03
210.354	1074.91
210.572	771.43
210.79	558.05
211.007	555.16
211.225	671.87
211.442	734.43
211.66	514.12
211.878	554.66
212.095	-1286.07
212.313	-3553.19
212.53	-2314.67
212.748	-1634.15
212.966	-2811.97
213.183	-1966.87
213.401	-3107.14
213.618	6138.18
213.836	-18794.12
214.053	-10451.61
214.271	11757.69
214.488	307.28
214.705	292
214.923	246.51
215.14	259.29
215.358	298.47
215.575	327.79
215.793	310.45
216.01	462.73
216.227	436.32
216.445	447.4
216.662	505.23
216.879	691.6
217.097	619.08
217.314	565.78
217.531	391.48
217.749	331.47
217.966	288.64
218.183	254.7
218.4	249.84
218.618	263.38
218.835	243.44
219.052	247.33
219.269	200.9
219.487	196.15
219.704	198.29
219.921	197.47
220.138	195.99
220.355	199.17
220.572	198.54
220.79	172.71
221.007	161.65
221.224	170.5
221.441	157.81
221.658	165.47
221.875	161.31
222.092	155.56
222.309	147.72
222.526	144.05
222.743	136.98
222.96	126.65
223.177	131.07
223.394	121.98
223.611	112.9
223.828	116.43
224.045	114.47
224.262	113.67
224.479	107.89
224.696	104.15
224.913	102.16
225.13	99.35
225.347	93.17
225.564	88.35
225.781	84.23
225.997	80.15
226.214	70.98
226.431	61.87
226.648	54.38
226.865	50.72
227.082	45.99
227.298	39.38
227.515	34.03
227.732	30.17
227.949	27.43
228.165	23.84
228.382	22.21
228.599	22.13
228.816	22.48
229.032	20.8
229.249	20.24
229.466	19.21
229.682	19.18
229.899	19.66
230.116	19.06
230.332	18.95
230.549	20.84
230.765	21.68
230.982	20.97
231.199	21.5
231.415	23.88
231.632	25.37
231.848	26.02
232.065	28.3
232.281	28.75
232.498	30.23
232.714	30.36
232.931	29.97
233.147	31.5
233.364	31.75
233.58	31.64
233.797	31.89
234.013	32.03
234.23	33.42
234.446	32.86
234.662	31.69
234.879	32.88
235.095	31.67
235.312	30.61
235.528	29.29
235.744	30.7
235.961	29.85
236.177	30.05
236.393	28.67
236.61	28.25
236.826	26.61
237.042	28.03
237.258	27.83
237.475	30.17
237.691	32.22
237.907	33.24
238.123	34.22
238.339	34.85
238.556	34.23
238.772	35.43
238.988	35.01
239.204	35.45
239.42	34.11
239.636	33.23
239.853	31.68
240.069	29.06
240.285	27.71
240.501	24.84
240.717	23.42
240.933	21.8
241.149	19.71
241.365	18.13
241.581	17.66
241.797	17.19
242.013	16.18
242.229	15.61
242.445	15.34
242.661	14.64
242.877	14.56
243.093	14.84
243.309	14.96
243.525	15.58
243.741	16.04
243.957	15.69
244.173	16.06
244.388	16.49
244.604	16.75
244.82	17.01
245.036	16.86
245.252	16.65
245.468	15.35
245.683	15.06
245.899	13.68
246.115	13.11
246.331	11.84
246.547	11.39
246.762	10.81
246.978	10.2
247.194	10
247.409	9.67
247.625	9.71
247.841	9.44
248.057	9.08
248.272	9.34
248.488	9.19
248.703	9.65
248.919	9.82
249.135	10.19
249.35	11.29
249.566	11.76
249.782	12.62
249.997	13
250.213	13.51
250.428	14.53
250.644	15.06
250.859	15.91
251.075	16
251.29	16.19
251.506	16.5
251.721	15.76
251.937	15.34
252.152	15.11
252.368	15.04
252.583	15.31
252.798	15.07
253.014	15.52
253.229	14.79
253.445	15.28
253.66	15.59
253.875	15.79
254.091	16.56
254.306	17.21
254.521	18.6
254.737	19.21
254.952	19.42
255.167	19.21
255.383	18.66
255.598	19.71
255.813	20.05
256.028	18.87
256.244	18.1
256.459	17.84
256.674	17.63
256.889	16.24
257.104	15.47
257.32	14.94
257.535	14.04
257.75	13.19
257.965	12.53
258.18	11.48
258.395	11.08
258.61	10.36
258.826	9.65
259.041	9.05
259.256	8.58
259.471	7.99
259.686	7.81
259.901	7.77
260.116	7.48
260.331	7.17
260.546	7.32
260.761	7.05
260.976	7.16
261.191	6.91
261.406	6.91
261.621	7.24
261.836	7.57
262.05	8.08
262.265	8.47
262.48	9.15
262.695	9.85
262.91	10.53
263.125	11.17
263.34	11.33
263.555	12.54
263.769	13.74
263.984	13.85
264.199	14.51
264.414	14.34
264.629	14.67
264.843	15.02
265.058	15.02
265.273	14.09
265.488	13.65
265.702	13.06
265.917	12.58
266.132	11.35
266.346	11.35
266.561	10.87
266.776	10.86
266.99	10.82
267.205	10.56
267.42	10.29
267.634	10.18
267.849	10.64
268.063	11.36
268.278	11.15
268.492	11.52
268.707	11.25
268.922	10.94
269.136	11.01
269.351	10.27
269.565	10.12
269.78	10.14
269.994	10.08
270.209	9.84
270.423	8.92
270.637	8.79
270.852	8.32
271.066	8.27
271.281	8.43
271.495	7.98
271.709	8.03
271.924	7.79
272.138	7.88
272.353	7.82
272.567	7.93
272.781	8.57
272.996	8.63
273.21	8.85
273.424	8.92
273.638	8.73
273.853	8.86
274.067	8.9
274.281	9.49
274.495	9.58
274.71	10.27
274.924	10.37
275.138	10.25
275.352	10.2
275.566	10.46
275.781	10.24
275.995	10.74
276.209	11.14
276.423	11.05
276.637	10.85
276.851	11.08
277.065	10.56
277.279	10.42
277.493	10.2
277.707	10.59
277.921	10.22
278.135	10.19
278.349	9.99
278.563	9.82
278.777	10.58
278.991	10.54
279.205	10.51
279.419	10.63
279.633	10.4
279.847	10.25
280.061	10.1
280.275	9.79
280.489	10.09
280.703	9.67
280.917	9.33
281.131	8.79
281.344	8.3
281.558	7.95
281.772	8.26
281.986	8.3
282.2	8.75
282.414	8.89
282.627	8.99
282.841	8.7
283.055	9.19
283.269	9.51
283.482	9.66
283.696	9.75
283.91	9.49
284.123	8.51
284.337	8.25
284.551	7.65
284.764	7.3
284.978	6.9
285.192	6.81
285.405	6.62
285.619	6.03
285.833	6.15
286.046	6.22
286.26	6.3
286.473	6.71
286.687	6.66
286.9	6.9
287.114	6.83
287.327	7.12
287.541	7.6
287.754	7.48
287.968	8.2
288.181	8.1
288.395	8.07
288.608	8.04
288.822	8.01
289.035	8.06
289.248	7.55
289.462	7.62
289.675	7.81
289.889	7.44
290.102	7.24
290.315	6.98
290.529	6.73
290.742	6.49
290.955	6.54
291.169	6.66
291.382	6.97
291.595	7.33
291.808	7.56
292.022	7.59
292.235	7.67
292.448	7.94
292.661	7.72
292.875	7.93
293.088	8.23
293.301	8.29
293.514	8.27
293.727	8.05
293.94	8.12
294.153	7.93
294.367	7.92
294.58	7.95
294.793	8.19
295.006	8.47
295.219	8.23
295.432	8.11
295.645	7.9
295.858	7.63
296.071	7.3
296.284	7.12
296.497	6.88
296.71	6.68
296.923	6.84
297.136	6.76
297.349	6.6
297.562	6.63
297.775	6.7
297.988	6.89
298.201	6.93
298.414	7.03
298.626	7.09
298.839	7.09
299.052	7.15
299.265	7.13
299.478	7.16
299.691	7.58
299.903	7.92
300.116	8.01
300.329	7.98
300.542	7.92
300.755	8.08
300.967	8.59
301.18	8.76
301.393	8.83
301.605	8.71
301.818	8.51
302.031	8.56
302.243	8.41
302.456	8.5
302.669	8.91
302.881	9.12
303.094	9.54
303.307	9.31
303.519	9.53
303.732	9.84
303.944	9.73
304.157	9.86
304.37	9.24
304.582	9.17
304.795	9.32
305.007	9.02
305.22	9.32
305.432	8.97
305.645	8.95
305.857	9.08
306.069	9.28
306.282	9.27
306.494	9.22
306.707	9.98
306.919	10.13
307.132	9.68
307.344	9.77
307.556	9.68
307.769	10.05
307.981	9.93
308.193	9.55
308.406	8.9
308.618	8.95
308.83	9.19
309.043	8.74
309.255	8.55
309.467	8.42
309.679	7.98
309.892	7.96
310.104	7.61
310.316	7.63
310.528	7.74
310.74	8.14
310.953	7.87
311.165	7.9
311.377	8
311.589	8.37
311.801	8.44
312.013	8.83
312.225	8.58
312.437	8.65
312.649	8.68
312.862	8.75
313.074	8.74
313.286	9.09
313.498	8.98
313.71	9.04
313.922	8.65
314.134	8.91
314.346	8.99
314.558	9.44
314.77	10.05
314.982	10.4
315.193	10.86
315.405	10.99
315.617	11.16
315.829	11.57
316.041	11.91
316.253	12.08
316.465	12.43
316.677	12.74
316.888	12.45
317.1	12.72
317.312	12.52
317.524	12.64
317.736	12.59
317.947	12.81
318.159	12.82
318.371	12.47
318.583	12.76
318.794	12.87
319.006	12.87
319.218	13.03
319.43	12.72
319.641	13.04
319.853	12.61
320.064	13.19
320.276	12.98
320.488	13.25
320.699	13.29
320.911	13.87
321.123	13.74
321.334	13.24
321.546	13.43
321.757	13.88
321.969	14.18
322.18	14.35
322.392	13.86
322.603	14.03
322.815	13.67
323.026	13.99
323.238	13.6
323.449	13.36
323.661	13.87
323.872	14
324.083	13.35
324.295	12.8
324.506	12.64
324.718	12.52
324.929	12.81
325.14	12.93
325.352	12.9
325.563	13.44
325.774	13.96
325.986	14.06
326.197	14.45
326.408	14.99
326.62	15.5
326.831	15.84
327.042	16.57
327.253	17
327.464	17.34
327.676	17.48
327.887	17.35
328.098	17.38
328.309	17.6
328.52	17.87
328.732	17.91
328.943	18.06
329.154	18.75
329.365	18.89
329.576	18.81
329.787	19.11
329.998	20.01
330.209	20.33
330.42	20.89
330.631	21.21
330.842	21.14
331.053	21.71
331.264	21.73
331.475	21.5
331.686	21.6
331.897	21.79
332.108	22.02
332.319	21.92
332.53	22.03
332.741	22.07
332.952	22.3
333.163	22.67
333.374	23.02
333.585	23.53
333.795	24.01
334.006	24.12
334.217	24.38
334.428	24.52
334.639	24.89
334.849	24.4
335.06	24.77
335.271	24.74
335.482	25.06
335.692	24.66
335.903	24.7
336.114	24.62
336.325	24.76
336.535	25.02
336.746	24.98
336.957	24.91
337.167	25.67
337.378	25.83
337.589	26.02
337.799	25.46
338.01	25.85
338.22	26
338.431	26.24
338.642	26.4
338.852	26.02
339.063	26.23
339.273	25.81
339.484	25.48
339.694	24.94
339.905	24.93
340.115	25.2
340.326	25.07
340.536	24.94
340.746	24.55
340.957	24.5
341.167	24.51
341.378	24.62
341.588	25.08
341.799	25.19
342.009	25.24
342.219	25.15
342.43	25.26
342.64	25.57
342.85	25.35
343.061	25.49
343.271	25.48
343.481	25.6
343.691	25.2
343.902	25.11
344.112	25.13
344.322	25.02
344.532	25.34
344.743	24.98
344.953	24.41
345.163	24.4
345.373	24.02
345.583	24
345.793	24.04
346.004	24.33
346.214	24.17
346.424	24.12
346.634	24.33
346.844	24.09
347.054	24.58
347.264	24.74
347.474	24.88
347.684	25.55
347.894	25.61
348.104	25.34
348.314	24.91
348.524	24.81
348.734	24.99
348.944	24.99
349.154	24.83
349.364	24.44
349.574	24.52
349.784	24.52
349.994	24.4
350.204	23.93
350.413	23.85
350.623	23.95
350.833	23.85
351.043	23.75
351.253	23.55
351.463	23.33
351.672	23.52
351.882	23.29
352.092	23.15
352.302	22.84
352.511	23.31
352.721	23.49
352.931	23.55
353.141	23.57
353.35	23.63
353.56	23.67
353.77	24.01
353.979	23.72
354.189	24.06
354.399	24.13
354.608	24.27
354.818	23.67
355.027	23.67
355.237	23.57
355.447	23.73
355.656	23.42
355.866	23.27
356.075	23.09
356.285	23.09
356.494	22.77
356.704	22.78
356.913	22.72
357.123	23
357.332	22.94
357.542	22.78
357.751	22.61
357.96	22.7
358.17	22.62
358.379	22.65
358.589	22.87
358.798	22.83
359.007	22.8
359.217	22.85
359.426	22.6
359.635	22.51
359.845	22.42
360.054	22.14
360.263	22.07
360.472	22.1
360.682	21.75
360.891	21.49
361.1	21.35
361.309	21.13
361.519	21.05
361.728	21.01
361.937	20.92
362.146	21
362.355	21.17
362.564	21.27
362.774	21.2
362.983	21.24
363.192	21.31
363.401	21.39
363.61	21.47
363.819	21.55
364.028	21.61
364.237	21.66
364.446	21.55
364.655	21.61
364.864	21.29
365.073	21.32
365.282	21.32
365.491	21.34
365.7	21.3
365.909	21.18
366.118	21.02
366.327	21.16
366.536	21.47
366.745	21.72
366.954	21.55
367.162	21.77
367.371	21.69
367.58	21.91
367.789	21.77
367.998	21.81
368.207	21.86
368.415	21.9
368.624	21.86
368.833	21.44
369.042	21.2
369.25	21.56
369.459	21.64
369.668	21.8
369.877	21.63
370.085	21.42
370.294	21.47
370.503	21.67
370.711	21.54
370.92	21.48
371.129	21.51
371.337	21.38
371.546	21.26
371.754	21.04
371.963	20.97
372.171	20.97
372.38	21.38
372.589	21.37
372.797	21.12
373.006	21.24
373.214	21.23
373.423	21.14
373.631	21.33
373.84	21.21
374.048	21.4
374.256	21.43
374.465	21.52
374.673	21.36
374.882	21.23
375.09	21.46
375.298	21.16
375.507	21.13
375.715	21.33
375.923	21.15
376.132	20.91
376.34	20.59
376.548	20.35
376.757	20.35
376.965	20.47
377.173	20.35
377.381	20.07
377.59	20.38
377.798	20.37
378.006	20.12
378.214	20.07
378.423	20.12
378.631	20.06
378.839	20.06
379.047	19.88
379.255	19.59
379.463	19.68
379.671	19.7
379.879	19.31
380.088	19.12
380.296	19.23
380.504	19.27
380.712	19.13
380.92	19.39
381.128	19.53
381.336	19.42
381.544	19.27
381.752	19.18
381.96	19.07
382.168	19.05
382.376	19.31
382.584	19.24
382.791	19.27
382.999	19.45
383.207	19
383.415	18.99
383.623	18.95
383.831	18.85
384.039	18.81
384.247	18.77
384.454	18.86
384.662	18.61
384.87	18.5
385.078	18.33
385.285	18.31
385.493	18.62
385.701	18.48
385.909	18.38
386.116	18.65
386.324	18.61
386.532	18.62
386.739	18.77
386.947	18.88
387.155	19.04
387.362	19.28
387.57	19.16
387.778	19.01
387.985	18.99
388.193	19.09
388.4	18.99
388.608	19.24
388.816	19.19
389.023	19.03
389.231	18.88
389.438	18.63
389.646	18.55
389.853	18.62
390.061	18.59
390.268	18.68
390.475	18.48
390.683	18.47
390.89	18.29
391.098	18.28
391.305	18.27
391.512	18.29
391.72	18.47
391.927	18.33
392.135	18.26
392.342	18.25
392.549	18.31
392.756	18.37
392.964	18.19
393.171	18.33
393.378	18.39
393.586	18.21
393.793	18.1
394	17.84
394.207	17.82
394.414	17.73
394.622	17.71
394.829	17.5
395.036	17.63
395.243	17.66
395.45	17.44
395.657	17.34
395.864	17.48
396.072	17.56
396.279	17.81
396.486	17.83
396.693	17.89
396.9	17.86
397.107	17.9
397.314	17.89
397.521	17.98
397.728	17.96
397.935	18.15
398.142	18
398.349	18.08
398.556	17.96
398.763	17.92
398.97	17.83
399.177	17.85
399.383	17.86
399.59	17.97
399.797	17.99
400.004	17.87
400.211	17.63
400.418	17.71
400.625	17.57
400.831	17.55
401.038	17.68
401.245	17.83
401.452	17.76
401.658	17.68
401.865	17.69
402.072	17.62
402.279	17.85
402.485	17.81
402.692	17.7
402.899	17.78
403.105	17.65
403.312	17.5
403.519	17.42
403.725	17.41
403.932	17.35
404.138	17.06
404.345	17.05
404.552	16.81
404.758	16.86
404.965	16.71
405.171	16.64
405.378	16.66
405.584	16.69
405.791	16.63
405.997	16.63
406.204	16.85
406.41	16.83
406.617	16.86
406.823	17.15
407.029	17.18
407.236	17.43
407.442	17.58
407.649	17.74
407.855	17.8
408.061	17.84
408.268	17.82
408.474	17.66
408.68	17.81
408.887	17.91
409.093	17.79
409.299	17.86
409.505	17.91
409.712	17.76
409.918	17.5
410.124	17.41
410.33	17.46
410.537	17.5
410.743	17.62
410.949	17.52
411.155	17.44
411.361	17.32
411.567	17.28
411.773	17.26
411.98	17.32
412.186	17.48
412.392	17.5
412.598	17.38
412.804	17.33
413.01	17.14
413.216	17.17
413.422	17.05
413.628	16.96
413.834	17.01
414.04	16.92
414.246	16.86
414.452	16.78
414.658	16.76
414.864	16.79
415.07	16.78
415.275	16.61
415.481	16.67
415.687	16.62
415.893	16.68
416.099	16.48
416.305	16.43
416.511	16.33
416.716	16.17
416.922	16.12
417.128	16.08
417.334	15.99
417.539	16.1
417.745	15.9
417.951	15.87
418.157	15.77
418.362	15.79
418.568	15.73
418.774	15.62
418.979	15.77
419.185	15.65
419.391	15.64
419.596	15.6
419.802	15.48
420.008	15.55
420.213	16.22
420.419	16.21
420.624	16.17
420.83	16.19
421.035	16.26
421.241	16.14
421.446	16.16
421.652	16.09
421.857	16.07
422.063	16.09
422.268	16.01
422.474	15.37
422.679	15.34
422.885	15.3
423.09	15.23
423.295	15.09
423.501	15.17
423.706	15.16
423.911	15.16
424.117	15.17
424.322	15.12
424.527	15.12
424.733	15.07
424.938	15.16
425.143	15.12
425.349	15.12
425.554	15.24
425.759	15.17
425.964	15.23
426.169	15.31
426.375	15.35
426.58	15.47
426.785	15.6
426.99	15.77
427.195	15.8
427.4	15.86
427.605	16
427.811	16.04
428.016	16.16
428.221	16.24
428.426	16.21
428.631	16.26
428.836	16.3
429.041	16.26
429.246	16.21
429.451	16.23
429.656	16.28
429.861	16.27
430.066	16.23
430.271	16.2
430.476	16.14
430.681	16.16
430.886	16.18
431.09	16.15
431.295	16.15
431.5	16.19
431.705	16.07
431.91	16.19
432.115	16.16
432.32	16.23
432.524	16.18
432.729	16.29
432.934	16.26
433.139	16.17
433.343	16.22
433.548	16.15
433.753	16.15
433.958	16.13
434.162	16.13
434.367	16.12
434.572	16.06
434.776	16.08
434.981	16.02
435.186	16
435.39	16.13
435.595	16.13
435.799	16.22
436.004	16.16
436.209	16.24
436.413	16.19
436.618	16.15
436.822	16.24
437.027	16.2
437.231	16.09
437.436	16.2
437.64	16.18
437.845	16.15
438.049	16.12
438.253	16.09
438.458	16.04
438.662	15.99
438.867	15.89
439.071	15.86
439.275	15.76
439.48	15.77
439.684	15.66
439.888	15.54
440.093	15.4
440.297	15.38
440.501	15.36
440.706	15.39
440.91	15.33
441.114	15.4
441.318	15.35
441.523	15.44
441.727	15.41
441.931	15.42
442.135	15.46
442.339	15.54
442.543	15.63
442.748	15.69
442.952	15.66
443.156	15.73
443.36	15.72
443.564	15.74
443.768	15.71
443.972	15.68
444.176	15.61
444.38	15.66
444.584	15.56
444.788	15.41
444.992	15.34
445.196	15.23
445.4	15.19
445.604	15.19
445.808	15.2
446.012	15.16
446.216	15.19
446.42	15.29
446.624	15.25
446.828	15.32
447.032	15.31
447.235	15.33
447.439	15.43
447.643	15.45
447.847	15.47
448.051	15.47
448.254	15.47
448.458	15.56
448.662	15.49
448.866	15.45
449.069	15.53
449.273	15.7
449.477	15.67
449.681	15.64
449.884	15.71
450.088	15.86
450.292	15.83
450.495	15.93
450.699	15.84
450.902	15.76
451.106	15.71
451.31	15.62
451.513	15.56
451.717	15.61
451.92	15.62
452.124	15.53
452.327	15.34
452.531	15.47
452.734	15.49
452.938	15.55
453.141	15.73
453.345	15.87
453.548	15.94
453.752	15.91
453.955	15.94
454.158	15.92
454.362	15.99
454.565	16.08
454.769	15.99
454.972	16.01
455.175	16.03
455.379	15.97
455.582	16.02
455.785	15.97
455.988	16.01
456.192	15.97
456.395	15.97
456.598	16.06
456.801	16.07
457.005	16.04
457.208	16.01
457.411	15.96
457.614	15.9
457.817	15.7
458.021	15.62
458.224	15.62
458.427	15.54
458.63	15.59
458.833	15.37
459.036	15.27
459.239	15.28
459.442	15.19
459.645	15.11
459.848	15.13
460.051	15.26
460.254	15.35
460.457	15.36
460.66	15.5
460.863	15.51
461.066	15.65
461.269	15.65
461.472	15.75
461.675	15.84
461.878	16.02
462.081	16
462.284	15.99
462.486	15.97
462.689	15.9
462.892	15.77
463.095	15.74
463.298	15.83
463.5	15.99
463.703	15.92
463.906	15.94
464.109	15.9
464.311	16.03
464.514	16
464.717	16.07
464.92	16.11
465.122	16.22
465.325	16.3
465.528	16.15
465.73	16.17
465.933	16.14
466.135	16.17
466.338	16.08
466.541	15.98
466.743	16.01
466.946	16.07
467.148	16.07
467.351	16.05
467.553	16.02
467.756	16.16
467.958	16.07
468.161	16.18
468.363	16.14
468.566	16.23
468.768	16.33
468.971	16.32
469.173	16.22
469.375	16.25
469.578	16.29
469.78	16.36
469.983	16.32
470.185	16.3
470.387	16.3
470.59	16.26
470.792	16.25
470.994	16.25
471.196	16.14
471.399	16.06
471.601	16.12
471.803	16.02
472.005	15.92
472.208	15.93
472.41	16
472.612	15.91
472.814	16
473.016	16.04
473.218	16.05
473.421	16.15
473.623	16.26
473.825	16.18
474.027	16.27
474.229	16.29
474.431	16.26
474.633	16.18
474.835	16.29
475.037	16.25
475.239	16.18
475.441	16.11
475.643	16.17
475.845	16.05
476.047	16.09
476.249	16.02
476.451	16.05
476.653	15.94
476.855	16
477.057	15.88
477.258	15.78
477.46	15.78
477.662	15.87
477.864	15.75
478.066	15.8
478.268	15.73
478.469	15.7
478.671	15.63
478.873	15.74
479.075	15.64
479.276	15.65
479.478	15.73
479.68	15.67
479.882	15.56
480.083	15.58
480.285	15.46
480.487	15.42
480.688	15.42
480.89	15.39
481.091	15.32
481.293	15.23
481.495	15.11
481.696	15.02
481.898	14.89
482.099	14.77
482.301	14.69
482.502	14.67
482.704	14.6
482.905	14.52
483.107	14.46
483.308	14.43
483.51	14.4
483.711	14.41
483.913	14.38
484.114	14.41
484.315	14.42
484.517	14.44
484.718	14.45
484.92	14.5
485.121	14.52
485.322	14.56
485.524	14.57
485.725	14.65
485.926	14.67
486.127	14.72
486.329	14.76
486.53	14.77
486.731	14.75
486.932	14.71
487.134	14.68
487.335	14.71
487.536	14.67
487.737	14.67
487.938	14.65
488.139	14.69
488.341	14.72
488.542	14.73
488.743	14.76
488.944	14.81
489.145	14.89
489.346	14.95
489.547	14.92
489.748	14.98
489.949	15.02
490.15	15.03
490.351	14.99
490.552	14.92
490.753	14.92
490.954	14.88
491.155	14.94
491.356	14.93
491.557	14.94
491.758	14.99
491.959	14.99
492.159	14.97
492.36	15.01
492.561	15.09
492.762	15.17
492.963	15.19
493.164	15.25
493.364	15.23
493.565	15.33
493.766	15.34
493.967	15.38
494.167	15.52
494.368	15.61
494.569	15.63
494.769	15.63
494.97	15.62
495.171	15.73
495.371	15.81
495.572	15.8
495.773	15.65
495.973	15.73
496.174	15.73
496.375	15.79
496.575	15.72
496.776	15.79
496.976	15.83
497.177	15.89
497.377	15.76
497.578	15.75
497.778	15.81
497.979	15.97
498.179	15.99
498.38	16.03
498.58	15.94
498.78	15.96
498.981	15.98
499.181	15.97
499.382	16
499.582	16.13
499.782	16.18
499.983	16.27
500.183	16.32
500.383	16.31
500.584	16.33
500.784	16.3
500.984	16.45
501.184	16.46
501.385	16.5
501.585	16.5
501.785	16.42
501.985	16.48
502.185	16.43
502.386	16.41
502.586	16.49
502.786	16.64
502.986	16.75
503.186	16.78
503.386	16.78
503.586	16.83
503.786	16.85
503.987	16.94
504.187	16.9
504.387	16.93
504.587	16.98
504.787	16.96
504.987	16.93
505.187	16.95
505.387	16.99
505.587	16.99
505.786	16.9
505.986	16.91
506.186	16.96
506.386	17.07
506.586	17.11
506.786	17.11
506.986	17.18
507.186	17.09
507.386	17.09
507.585	17.09
507.785	17.12
507.985	17.29
508.185	17.27
508.384	17.37
508.584	17.31
508.784	17.24
508.984	17.23
509.183	17.26
509.383	17.34
509.583	17.43
509.782	17.39
509.982	17.43
510.182	17.31
510.381	17.36
510.581	17.29
510.781	17.36
510.98	17.47
511.18	17.49
511.379	17.44
511.579	17.49
511.778	17.5
511.978	17.55
512.177	17.63
512.377	17.75
512.576	17.82
512.776	17.93
512.975	17.98
513.175	18.08
513.374	18.1
513.573	18.24
513.773	18.38
513.972	18.45
514.172	18.61
514.371	18.74
514.57	18.79
514.77	18.82
514.969	18.79
515.168	18.84
515.367	18.88
515.567	19.06
515.766	19.08
515.965	19.04
516.164	19
516.364	18.96
516.563	18.82
516.762	18.77
516.961	18.81
517.16	18.92
517.359	18.94
517.559	18.97
517.758	18.88
517.957	18.85
518.156	18.89
518.355	18.92
518.554	18.88
518.753	18.97
518.952	19.09
519.151	19.14
519.35	19.14
519.549	19.24
519.748	19.24
519.947	19.35
520.146	19.48
520.345	19.57
520.544	19.71
520.743	19.9
520.942	19.96
521.141	20.01
521.339	20.12
521.538	20.2
521.737	20.18
521.936	20.3
522.135	20.32
522.333	20.35
522.532	20.4
522.731	20.4
522.93	20.37
523.129	20.44
523.327	20.43
523.526	20.45
523.725	20.48
523.923	20.46
524.122	20.44
524.321	20.48
524.519	20.53
524.718	20.47
524.917	20.44
525.115	20.43
525.314	20.46
525.512	20.6
525.711	20.58
525.909	20.66
526.108	20.71
526.306	20.62
526.505	20.6
526.703	20.58
526.902	20.57
527.1	20.55
527.299	20.56
527.497	20.57
527.696	20.55
527.894	20.6
528.092	20.56
528.291	20.56
528.489	20.67
528.688	20.71
528.886	20.77
529.084	20.86
529.283	20.95
529.481	21.05
529.679	21.11
529.877	21.18
530.076	21.22
530.274	21.32
530.472	21.46
530.67	21.58
530.869	21.69
531.067	21.82
531.265	21.88
531.463	21.95
531.661	22
531.859	22.02
532.057	22.05
532.255	22.1
532.454	22.13
532.652	22.1
532.85	22.08
533.048	22.08
533.246	22.03
533.444	22.05
533.642	22.15
533.84	22.15
534.038	22.24
534.236	22.28
534.434	22.37
534.632	22.44
534.83	22.59
535.027	22.66
535.225	22.74
535.423	22.86
535.621	22.99
535.819	22.97
536.017	23.07
536.215	23.12
536.412	23.18
536.61	23.21
536.808	23.28
537.006	23.33
537.203	23.41
537.401	23.58
537.599	23.66
537.797	23.66
537.994	23.82
538.192	23.96
538.39	24.02
538.587	24.21
538.785	24.34
538.983	24.44
539.18	24.44
539.378	24.56
539.575	24.53
539.773	24.54
539.97	24.51
540.168	24.53
540.366	24.53
540.563	24.56
540.761	24.53
540.958	24.51
541.155	24.53
541.353	24.57
541.55	24.56
541.748	24.61
541.945	24.66
542.143	24.79
542.34	24.88
542.537	24.96
542.735	25.1
542.932	25.18
543.129	25.3
543.327	25.44
543.524	25.6
543.721	25.77
543.919	25.98
544.116	26.19
544.313	26.32
544.51	26.56
544.708	26.85
544.905	27.02
545.102	27.3
545.299	27.43
545.496	27.57
545.693	27.65
545.891	27.69
546.088	27.7
546.285	27.69
546.482	27.71
546.679	27.59
546.876	27.53
547.073	27.37
547.27	27.2
547.467	27.26
547.664	27.18
547.861	27.26
548.058	27.35
548.255	27.33
548.452	27.4
548.649	27.53
548.846	27.53
549.043	27.51
549.24	27.7
549.437	27.81
549.633	27.84
549.83	28.04
550.027	28
550.224	27.95
550.421	27.93
550.618	27.84
550.814	27.87
551.011	27.91
551.208	28.01
551.405	28
551.601	28.07
551.798	27.98
551.995	27.84
552.191	27.89
552.388	27.92
552.585	27.95
552.781	28.04
552.978	27.99
553.175	28.09
553.371	28.1
553.568	28.02
553.764	27.98
553.961	28.05
554.157	28.05
554.354	28.15
554.55	28.15
554.747	28.24
554.943	28.26
555.14	28.36
555.336	28.38
555.533	28.36
555.729	28.52
555.926	28.54
556.122	28.7
556.318	28.91
556.515	28.9
556.711	28.96
556.907	28.96
557.104	29.03
557.3	28.96
557.496	29
557.693	28.99
557.889	29.08
558.085	29.21
558.281	29.24
558.478	29.26
558.674	29.3
558.87	29.4
559.066	29.53
559.262	29.63
559.459	29.72
559.655	29.79
559.851	29.88
560.047	29.87
560.243	29.95
560.439	29.98
560.635	29.96
560.831	29.98
561.027	30.03
561.223	30.07
561.419	29.96
561.615	29.87
561.811	29.84
562.007	29.9
562.203	30.05
562.399	30.03
562.595	29.93
562.791	30.1
562.987	30.09
563.183	30.13
563.379	30.13
563.575	30.33
563.771	30.48
563.966	30.41
564.162	30.48
564.358	30.32
564.554	30.4
564.75	30.48
564.945	30.38
565.141	30.43
565.337	30.38
565.533	30.36
565.728	30.21
565.924	30.35
566.12	30.41
566.315	30.28
566.511	30.37
566.707	30.34
566.902	30.31
567.098	30.48
567.293	30.58
567.489	30.65
567.684	30.81
567.88	30.84
568.076	30.91
568.271	31.05
568.467	31.28
568.662	31.26
568.858	31.33
569.053	31.45
569.248	31.42
569.444	31.42
569.639	31.3
569.835	31.35
570.03	31.57
570.225	31.37
570.421	31.36
570.616	31.29
570.812	31.38
571.007	31.46
571.202	31.43
571.397	31.42
571.593	31.31
571.788	31.49
571.983	31.51
572.178	31.5
572.374	31.58
572.569	31.6
572.764	31.74
572.959	31.84
573.154	31.81
573.35	31.94
573.545	31.89
573.74	31.98
573.935	32.02
574.13	31.89
574.325	31.93
574.52	32.14
574.715	32.28
574.91	32.36
575.105	32.47
575.3	32.62
575.495	32.74
575.69	32.99
575.885	33.1
576.08	33.22
576.275	33.54
576.47	33.77
576.665	33.77
576.86	33.8
577.055	33.83
577.25	34.03
577.444	33.98
577.639	34.12
577.834	34.16
578.029	34.36
578.224	34.45
578.418	34.51
578.613	34.55
578.808	34.72
579.003	34.93
579.197	35.07
579.392	34.83
579.587	34.96
579.781	34.93
579.976	35.01
580.171	35
580.365	35.01
580.56	35.15
580.755	35.14
580.949	35.07
581.144	35.16
581.338	35.21
581.533	35.29
581.727	35.48
581.922	35.61
582.116	35.8
582.311	36.05
582.505	36.18
582.7	36.17
582.894	36.32
583.089	36.5
583.283	36.42
583.478	36.42
583.672	36.62
583.866	36.47
584.061	36.46
584.255	36.24
584.449	36.17
584.644	36.28
584.838	36.34
585.032	36.35
585.226	36.54
585.421	36.81
585.615	36.92
585.809	36.96
586.003	37.25
586.198	37.26
586.392	37.46
586.586	37.57
586.78	37.68
586.974	37.73
587.168	37.56
587.363	37.31
587.557	37.26
587.751	37.23
587.945	37.07
588.139	36.98
588.333	36.91
588.527	37.03
588.721	36.94
588.915	36.69
589.109	36.56
589.303	36.58
589.497	36.53
589.691	36.28
589.885	36.22
590.079	36.37
590.273	36.3
590.466	36.47
590.66	36.37
590.854	36.48
591.048	36.6
591.242	36.69
591.436	36.88
591.629	37.01
591.823	37.36
592.017	37.49
592.211	37.48
592.404	37.67
592.598	37.67
592.792	37.74
592.986	37.7
593.179	37.55
593.373	37.55
593.567	37.56
593.76	37.43
593.954	37.32
594.147	37.22
594.341	37.2
594.535	37.21
594.728	37.26
594.922	37.09
595.115	36.99
595.309	37.06
595.502	36.98
595.696	36.82
595.889	36.79
596.083	36.74
596.276	36.77
596.47	36.81
596.663	36.62
596.856	36.57
597.05	36.67
597.243	36.67
597.437	36.77
597.63	36.88
597.823	36.97
598.017	37.18
598.21	37.21
598.403	37.3
598.596	37.46
598.79	37.59
598.983	37.67
599.176	37.73
599.369	37.87
599.563	37.93
599.756	38.06
599.949	38.1
600.142	38.09
600.335	38.2
600.528	38.09
600.722	38.07
600.915	38.14
601.108	38.12
601.301	38.14
601.494	38.11
601.687	38.06
601.88	37.84
602.073	37.78
602.266	37.62
602.459	37.45
602.652	37.4
602.845	37.18
603.038	37.13
603.231	37.03
603.424	37.07
603.617	37.05
603.809	36.97
604.002	36.91
604.195	36.86
604.388	37.06
604.581	37.13
604.774	37.17
604.966	37.35
605.159	37.45
605.352	37.46
605.545	37.56
605.737	37.71
605.93	37.95
606.123	38.16
606.316	38.47
606.508	38.65
606.701	38.92
606.894	39.11
607.086	39.3
607.279	39.6
607.471	39.88
607.664	39.98
607.857	40.25
608.049	40.46
608.242	40.93
608.434	41.44
608.627	42.01
608.819	42.81
609.012	43.84
609.204	45.03
609.397	46.24
609.589	47.75
609.782	49.21
609.974	50.68
610.166	52.34
610.359	53.81
610.551	55.25
610.743	56.51
610.936	57.6
611.128	58.58
611.32	59.08
611.513	59.4
611.705	59.37
611.897	59.2
612.09	58.76
612.282	58.24
612.474	57.52
612.666	56.8
612.858	56.04
613.051	55.19
613.243	54.13
613.435	53.39
613.627	52.62
613.819	51.96
614.011	51.58
614.203	51.02
614.395	50.06
614.588	49.48
614.78	48.79
614.972	48.16
615.164	47.76
615.356	47.28
615.548	46.68
615.74	46.33
615.932	45.81
616.124	45.21
616.315	44.83
616.507	44.78
616.699	44.58
616.891	44.37
617.083	44.15
617.275	43.69
617.467	43.53
617.659	43.3
617.85	42.94
618.042	42.76
618.234	42.5
618.426	42.26
618.618	42.17
618.809	42.04
619.001	41.97
619.193	41.71
619.384	41.78
619.576	41.97
619.768	42.08
619.959	42.08
620.151	41.97
620.343	42.08
620.534	42.13
620.726	42.09
620.917	42
621.109	42
621.301	42.23
621.492	42.07
621.684	41.84
621.875	41.67
622.067	41.78
622.258	42.09
622.45	42.19
622.641	42.1
622.832	42.3
623.024	42.7
623.215	42.56
623.407	42.53
623.598	42.69
623.789	42.67
623.981	42.54
624.172	42.51
624.363	42.43
624.555	42.31
624.746	42.45
624.937	42.21
625.129	42.02
625.32	41.99
625.511	41.88
625.702	41.82
625.893	41.91
626.085	42.08
626.276	42.15
626.467	42.08
626.658	42.03
626.849	41.89
627.04	41.71
627.231	41.57
627.422	41.7
627.614	41.68
627.805	41.65
627.996	41.54
628.187	41.62
628.378	41.45
628.569	41.68
628.76	41.85
628.951	42.12
629.142	42.45
629.332	42.65
629.523	42.9
629.714	43.2
629.905	43.48
630.096	43.8
630.287	43.84
630.478	44.04
630.669	44
630.859	44.15
631.05	43.95
631.241	43.73
631.432	43.62
631.623	43.35
631.813	43.1
632.004	42.85
632.195	42.3
632.385	42.12
632.576	41.93
632.767	41.65
632.957	41.4
633.148	41.31
633.339	41.4
633.529	41.28
633.72	41.2
633.91	41.19
634.101	40.98
634.292	41.05
634.482	41.11
634.673	41.05
634.863	40.97
635.054	40.75
635.244	40.77
635.435	40.61
635.625	40.65
635.815	40.59
636.006	40.67
636.196	40.9
636.387	41.07
636.577	41.04
636.767	41.12
636.958	41.35
637.148	41.35
637.338	41.34
637.529	41.49
637.719	41.38
637.909	41.58
638.099	41.31
638.29	41.28
638.48	41.45
638.67	41.6
638.86	41.45
639.05	41.42
639.241	41.8
639.431	41.82
639.621	41.73
639.811	41.96
640.001	42.08
640.191	42.35
640.381	42.2
640.571	42
640.761	41.81
640.951	42.03
641.141	41.9
641.331	41.5
641.521	41.59
641.711	41.78
641.901	41.93
642.091	41.8
642.281	41.78
642.471	42.19
642.661	42.28
642.851	42.38
643.041	42.46
643.231	42.56
643.42	43.05
643.61	43.32
643.8	43.37
643.99	43.23
644.18	43.26
644.369	43.32
644.559	43.07
644.749	43.25
644.939	43.26
645.128	43.21
645.318	43.08
645.508	42.95
645.697	42.86
645.887	42.81
646.076	42.73
646.266	42.68
646.456	42.78
646.645	42.84
646.835	42.8
647.024	42.83
647.214	43.03
647.403	43.31
647.593	43.28
647.782	43.14
647.972	43.2
648.161	43.2
648.351	43.26
648.54	43.11
648.73	43.06
648.919	43.21
649.108	43.19
649.298	43.09
649.487	43.1
649.677	43.2
649.866	43.19
650.055	43.24
650.244	43.43
650.434	43.5
650.623	43.58
650.812	43.71
651.002	43.57
651.191	43.76
651.38	44
651.569	44.14
651.758	44.01
651.947	44
652.137	43.78
652.326	43.71
652.515	43.53
652.704	43.23
652.893	43.22
653.082	43.12
653.271	43
653.46	42.67
653.649	42.48
653.838	42.58
654.027	42.65
654.216	42.92
654.405	42.86
654.594	43
654.783	43.4
654.972	43.38
655.161	43.43
655.35	43.32
655.539	43.35
655.728	43.27
655.916	43.09
656.105	43
656.294	42.98
656.483	43.17
656.672	43.23
656.86	43.08
657.049	43.04
657.238	42.77
657.427	42.71
657.615	42.65
657.804	42.59
657.993	42.5
658.181	42.34
658.37	42.28
658.559	42.34
658.747	42.13
658.936	42.07
659.125	41.86
659.313	42.12
659.502	42.24
659.69	42.26
659.879	42.22
660.067	42.36
660.256	42.58
660.444	42.65
660.633	42.62
660.821	42.83
661.01	43.2
661.198	43.57
661.387	43.6
661.575	43.79
661.763	43.95
661.952	44.23
662.14	44.17
662.328	44.21
662.517	44.26
662.705	44.07
662.893	44.21
663.082	44.06
663.27	44.02
663.458	43.99
663.646	43.95
663.834	44.25
664.023	44.19
664.211	44.4
664.399	44.73
664.587	44.6
664.775	44.74
664.963	44.57
665.152	44.5
665.34	44.46
665.528	44.84
665.716	44.72
665.904	44.18
666.092	44.13
666.28	44.36
666.468	44.2
666.656	44.31
666.844	44.27
667.032	44.45
667.22	44.65
667.408	44.79
667.596	44.58
667.784	44.64
667.971	45.04
668.159	44.97
668.347	44.78
668.535	44.51
668.723	44.43
668.911	44.54
669.098	44.4
669.286	44.47
669.474	44.42
669.662	44.34
669.849	44.46
670.037	44.41
670.225	44.9
670.413	44.98
670.6	45.27
670.788	45.46
670.976	45.4
671.163	45.4
671.351	45.26
671.538	45.37
671.726	45.4
671.913	45.27
672.101	44.83
672.289	44.49
672.476	44.33
672.664	44.22
672.851	44.37
673.039	44.45
673.226	44.57
673.413	44.61
673.601	44.57
673.788	44.75
673.976	44.89
674.163	45.36
674.35	45.52
674.538	45.56
674.725	45.87
674.912	45.83
675.1	45.92
675.287	46.03
675.474	46.09
675.662	46.28
675.849	46.04
676.036	45.99
676.223	45.95
676.411	45.95
676.598	46.02
676.785	45.69
676.972	45.62
677.159	45.25
677.346	45.19
677.533	45.16
677.721	45.07
677.908	45.09
678.095	44.92
678.282	44.92
678.469	44.71
678.656	44.68
678.843	44.63
679.03	44.66
679.217	45.04
679.404	45.09
679.591	44.87
679.778	44.75
679.964	44.87
680.151	44.9
680.338	44.84
680.525	44.85
680.712	44.85
680.899	44.96
681.086	44.94
681.272	44.84
681.459	44.94
681.646	45.22
681.833	45.22
682.02	45.13
682.206	45.5
682.393	45.82
682.58	46.16
682.766	46.5
682.953	46.79
683.14	46.69
683.326	47.09
683.513	47.14
683.7	47.03
683.886	47.22
684.073	47.41
684.259	47.34
684.446	47.41
684.632	47.31
684.819	47.14
685.005	46.99
685.192	47.25
685.378	47.15
685.565	47.02
685.751	47.13
685.938	47.13
686.124	47.2
686.31	47.14
686.497	47.07
686.683	47.2
686.87	47.37
687.056	47.52
687.242	47.57
687.429	47.51
687.615	47.48
687.801	47.54
687.987	47.46
688.174	47.38
688.36	47.41
688.546	47.23
688.732	47.21
688.918	47.28
689.105	47.2
689.291	47.21
689.477	47.14
689.663	46.93
689.849	46.8
690.035	46.96
690.221	47.34
690.407	47.48
690.593	47.51
690.779	47.42
690.965	47.09
691.151	47.32
691.337	47.57
691.523	47.89
691.709	48.45
691.895	48.93
692.081	48.89
692.267	48.99
692.453	49.27
692.639	49.35
692.825	49.76
693.011	49.99
693.196	49.97
693.382	50.02
693.568	49.72
693.754	49.65
693.94	49.33
694.125	49.49
694.311	49.13
694.497	48.72
694.682	48.47
694.868	48.45
695.054	48.41
695.239	48.34
695.425	47.94
695.611	48.06
695.796	47.72
695.982	47.36
696.168	47.2
696.353	47.02
696.539	47.06
696.724	46.9
696.91	46.64
697.095	46.29
697.281	46.23
697.466	46.11
697.652	45.8
697.837	45.69
698.023	45.87
698.208	45.83
698.393	45.85
698.579	45.78
698.764	45.84
698.949	45.74
699.135	45.91
699.32	45.98
699.505	46.04
699.691	46.09
699.876	46.15
700.061	46.17
700.246	46.29
700.432	46.35
700.617	46.21
700.802	46.28
700.987	46.26
701.172	46.6
701.358	46.41
701.543	46.46
701.728	46.67
701.913	46.77
702.098	47.06
702.283	47.4
702.468	47.61
702.653	47.97
702.838	48.62
703.023	48.99
703.208	49
703.393	49.4
703.578	49.91
703.763	50.26
703.948	51.04
704.133	51.23
704.318	51.19
704.503	51.45
704.688	51.96
704.873	52.16
705.057	52.5
705.242	52.96
705.427	53.09
705.612	53.08
705.797	53.49
705.981	53.24
706.166	53.7
706.351	54
706.536	54.07
706.72	53.84
706.905	54.19
707.09	54.59
707.274	54.42
707.459	54.63
707.644	55.01
707.828	54.76
708.013	54.92
708.197	54.46
708.382	54.59
708.567	54.55
708.751	54.63
708.936	54.29
709.12	53.99
709.305	53.87
709.489	53.7
709.673	53.69
709.858	53.66
710.042	53.84
710.227	53.76
710.411	53.76
710.596	53.91
710.78	54.11
710.964	54.03
711.149	54.2
711.333	54.17
711.517	53.96
711.702	53.7
711.886	53.33
712.07	52.74
712.254	52.77
712.438	52.16
712.623	51.95
712.807	51.34
712.991	51.21
713.175	50.85
713.359	50.72
713.544	50.73
713.728	50.84
713.912	50.94
714.096	50.83
714.28	50.48
714.464	50.57
714.648	50.38
714.832	50.37
715.016	49.92
715.2	49.73
715.384	49.89
715.568	50.05
715.752	49.69
715.936	49.56
716.12	49.29
716.304	49.34
716.488	49.66
716.671	49.57
716.855	49.98
717.039	50.01
717.223	50.08
717.407	49.81
717.59	49.42
717.774	49.53
717.958	49.86
718.142	50.39
718.325	50.59
718.509	50.43
718.693	50.78
718.877	50.39
719.06	50.66
719.244	51.26
719.428	51.75
719.611	51.89
719.795	51.68
719.978	51.83
720.162	51.81
720.345	51.79
720.529	51.85
720.713	51.8
720.896	51.88
721.08	52.43
721.263	51.99
721.446	51.99
721.63	52.04
721.813	52.68
721.997	52.88
722.18	52.87
722.364	53.34
722.547	53.27
722.73	53.52
722.914	53.84
723.097	53.31
723.28	53.25
723.464	53.21
723.647	54.07
723.83	53.48
724.013	53.07
724.197	53.36
724.38	53.21
724.563	53.51
724.746	53.35
724.929	52.84
725.112	52.99
725.296	52.7
725.479	52.68
725.662	52.31
725.845	52.47
726.028	52.49
726.211	52.51
726.394	52.18
726.577	51.73
726.76	51.75
726.943	51.99
727.126	51.55
727.309	51.77
727.492	51.66
727.675	51.67
727.858	51.42
728.041	51.4
728.224	51.12
728.407	51.6
728.589	51.63
728.772	51.51
728.955	51.77
729.138	52.09
729.321	51.93
729.503	51.59
729.686	51.4
729.869	51.8
730.052	51.47
730.234	51.34
730.417	51.26
730.6	51.16
730.782	51.14
730.965	50.62
731.148	50.36
731.33	50.7
731.513	50.61
731.695	50.5
731.878	50.39
732.061	50.67
732.243	51.14
732.426	50.84
732.608	51.53
732.791	51.32
732.973	51.71
733.156	52.06
733.338	51.92
733.52	52.68
733.703	52.69
733.885	52.33
734.068	52.86
734.25	53.35
734.432	53.24
734.615	52.86
734.797	53
734.979	53.08
735.162	53.15
735.344	53.27
735.526	53.13
735.708	53.63
735.891	54.3
736.073	53.81
736.255	53.84
736.437	53.96
736.619	53.9
736.802	53.93
736.984	53.7
737.166	54.69
737.348	54.79
737.53	54.46
737.712	54.2
737.894	53.92
738.076	54.15
738.258	53.15
738.44	53.24
738.622	52.96
738.804	52.88
738.986	53.03
739.168	52.03
739.35	52.09
739.532	52.46
739.714	52.63
739.896	52.52
740.078	52.61
740.259	52.66
740.441	52.94
740.623	52.94
740.805	53.37
740.987	53.25
741.168	53.65
741.35	53.89
741.532	53.79
741.714	53.75
741.895	53.97
742.077	54.44
742.259	55.26
742.44	55.61
742.622	56.28
742.804	56.29
742.985	56.43
743.167	56.72
743.348	56.24
743.53	56.02
743.711	55.52
743.893	55.7
744.075	54.5
744.256	54.53
744.438	54.95
744.619	55.09
744.8	55.12
744.982	55.67
745.163	55.47
745.345	55.12
745.526	55.5
745.707	56.05
745.889	55.76
746.07	56.52
746.252	56.56
746.433	55.97
746.614	55.22
746.795	54.61
746.977	54.52
747.158	54.06
747.339	54.56
747.52	54.72
747.702	54.63
747.883	55.6
748.064	55.7
748.245	55.64
748.426	55.33
748.607	56.28
748.788	56.86
748.97	56.65
749.151	57.66
749.332	57.69
749.513	57.62
749.694	57.38
749.875	57.64
750.056	58.39
750.237	59.15
750.418	59.62
750.599	59.2
750.78	59.04
750.96	59.77
751.141	59.28
751.322	59.87
751.503	59.32
751.684	59.52
751.865	58.4
752.046	57.93
752.226	56.46
752.407	56.11
752.588	56.16
752.769	56.25
752.949	55.52
753.13	55.55
753.311	55.39
753.492	55.82
753.672	56.51
753.853	56.67
754.034	56.07
754.214	56.49
754.395	56.38
754.575	56.7
754.756	56.94
754.937	56.98
755.117	56.82
755.298	57.02
755.478	57.1
755.659	56.83
755.839	57.27
756.02	57.32
756.2	56.56
756.381	56.55
756.561	56.23
756.741	55.87
756.922	56.37
757.102	56.57
757.283	56.51
757.463	57.28
757.643	57.5
757.823	56.33
758.004	56.52
758.184	57.39
758.364	58.25
758.545	57.94
758.725	57.53
758.905	56.54
759.085	56.27
759.265	55.65
759.446	54.59
759.626	54.33
759.806	54.85
759.986	54.87
760.166	54.42
760.346	53.11
760.526	53.2
760.706	53.87
760.886	54.47
761.066	54.75
761.246	55.02
761.426	55.15
761.606	54.66
761.786	54.62
761.966	54.14
762.146	53.63
762.326	53.79
762.506	53.66
762.686	53.46
762.866	52.71
763.046	52.42
763.225	51.95
763.405	51.74
763.585	51.13
763.765	51.13
763.945	50.81
764.124	51.17
764.304	51.49
764.484	51.67
764.664	51.84
764.843	52.63
765.023	52.49
765.203	53.18
765.382	53.48
765.562	54.41
765.741	54.18
765.921	55.49
766.101	56.12
766.28	56.11
766.46	56.23
766.639	56.02
766.819	55.91
766.998	56.17
767.178	56.27
767.357	56.22
767.537	56.19
767.716	57.25
767.896	56.97
768.075	56.66
768.254	57.21
768.434	57.36
768.613	57.42
768.792	57.58
768.972	57.69
769.151	56.59
769.33	56.42
769.51	56.42
769.689	56.39
769.868	56.55
770.047	56.89
770.226	56.79
770.406	57.23
770.585	57.73
770.764	57.35
770.943	57.27
771.122	58.45
771.301	59.16
771.48	59.87
771.66	59.05
771.839	58.93
772.018	58.88
772.197	58.57
772.376	58.38
772.555	58.37
772.734	58.96
772.913	58.98
773.092	58.14
773.271	58.5
773.449	57.59
773.628	58.63
773.807	59.09
773.986	59.37
774.165	60.15
774.344	59.89
774.523	59.71
774.701	59.79
774.88	60.48
775.059	61.4
775.238	61.11
775.417	62.23
775.595	61.96
775.774	61.91
775.953	61.19
776.131	60.44
776.31	60.1
776.489	60.9
776.667	60.87
776.846	60.63
777.025	60.29
777.203	60.03
777.382	59.76
777.56	59.56
777.739	58.86
777.917	59.63
778.096	60.36
778.274	61.16
778.453	61.63
778.631	61.96
778.81	61.7
778.988	61.88
779.166	61.7
779.345	61.76
779.523	61.88
779.702	62.87
779.88	62.81
780.058	62.49
780.237	62.5
780.415	61.42
780.593	60.97
780.771	61.68
780.95	62.39
781.128	63.56
781.306	64.43
781.484	63.72
781.662	61.98
781.841	62.01
782.019	61.2
782.197	61.42
782.375	61.1
782.553	61.85
782.731	62.3
782.909	62.47
783.087	62.25
783.265	60.94
783.443	61.53
783.621	63.2
783.799	63.62
783.977	64.58
784.155	63.91
784.333	64.61
784.511	63.9
784.689	63.07
784.867	62.32
785.045	62.29
785.223	62.97
785.4	62.55
785.578	63.07
785.756	63.49
785.934	63.95
786.112	64.33
786.289	63.91
786.467	63.98
786.645	63.9
786.823	62.99
787	62.61
787.178	62.4
787.356	62.32
787.533	61.67
787.711	60.71
787.889	60.52
788.066	60.52
788.244	60.37
788.421	59.86
788.599	60.09
788.776	61.46
788.954	60.24
789.131	60.01
789.309	60.97
789.486	60.69
789.664	60.75
789.841	60.36
790.019	60.49
790.196	62.66
790.373	63.19
790.551	63.91
790.728	63.77
790.906	65.97
791.083	66.68
791.26	66.09
791.437	66.44
791.615	66.56
791.792	67.22
791.969	67.06
792.146	64.93
792.324	65.6
792.501	64.63
792.678	65.07
792.855	64.88
793.032	63.71
793.209	65.03
793.387	65
793.564	65.56
793.741	65.59
793.918	65.63
794.095	65.6
794.272	65.15
794.449	65.76
794.626	64.96
794.803	64.41
794.98	65.55
795.157	64.11
795.334	63.99
795.511	63.49
795.688	62.49
795.864	62.49
796.041	63.11
796.218	63.37
796.395	63.69
796.572	62.68
796.749	62.37
796.925	61.81
797.102	61.65
797.279	62.3
797.456	61.98
797.632	62.55
797.809	62.3
797.986	61.35
798.162	61.92
798.339	60.53
798.516	61.47
798.692	61.98
798.869	62.08
799.046	62.93
799.222	61.69
799.399	62.07
799.575	62.39
799.752	62.66
799.928	63.52
800.105	63.3
800.281	64.14
800.458	65.18
800.634	64.61
800.811	64.64
800.987	65.16
801.163	65.38
801.34	66.04
801.516	65.58
801.692	66.3
801.869	66.09
802.045	66.31
802.221	67.09
802.398	66.26
802.574	66.67
802.75	67.95
802.926	66.56
803.103	66.45
803.279	66.98
803.455	67.41
803.631	65.52
803.807	66.25
803.983	66.34
804.16	66.44
804.336	67.3
804.512	67.96
804.688	68.06
804.864	68.86
805.04	70
805.216	68.76
805.392	69.51
805.568	70.41
805.744	70.33
805.92	69.4
806.096	68.77
806.272	67.71
806.448	67.41
806.623	66.85
806.799	67.29
806.975	67.26
807.151	68.1
807.327	67.65
807.503	69.45
807.678	70.17
807.854	69.65
808.03	69.83
808.206	70.69
808.381	70.81
808.557	71.63
808.733	71.36
808.908	72.06
809.084	70.23
809.26	69.42
809.435	69.04
809.611	67.76
809.787	67.72
809.962	68
810.138	68.65
810.313	69.33
810.489	67.59
810.664	67.51
810.84	66.15
811.015	67.16
811.191	68.92
811.366	69.29
811.542	69.86
811.717	71.11
811.892	70.64
812.068	70.47
812.243	71.06
812.419	72.03
812.594	72.38
812.769	73.01
812.944	72.56
813.12	71.36
813.295	70.34
813.47	70.54
813.645	68.07
813.821	68.32
813.996	67.22
814.171	65.43
814.346	65.04
814.521	66.18
814.697	66.43
814.872	66.34
815.047	67.02
815.222	66.97
815.397	66.49
815.572	68.44
815.747	67.84
815.922	66.94
816.097	68.11
816.272	66.59
816.447	65.78
816.622	66.4
816.797	67.72
816.972	67.4
817.147	67.26
817.322	66.58
817.496	66.27
817.671	66.31
817.846	67.86
818.021	65.52
818.196	65.96
818.371	65.8
818.545	64.65
818.72	64.1
818.895	63.83
819.069	62.28
819.244	61.99
819.419	60.48
819.594	59.38
819.768	57.66
819.943	57.08
820.117	56.26
820.292	54.9
820.467	53.37
820.641	52
820.816	50.47
820.99	49.94
821.165	48.44
821.339	47.63
821.514	46.76
821.688	46.31
821.863	45.6
822.037	45.13
822.212	44.42
822.386	43.88
822.56	43.49
822.735	43.26
822.909	43.19
823.084	43.25
823.258	43.23
823.432	43.33
823.606	43.28
823.781	43.41
823.955	43.37
824.129	43.88
824.303	44.55
824.478	45.05
824.652	45.79
824.826	46.2
825	46.43
825.174	47.29
825.348	47.95
825.523	48.26
825.697	49.21
825.871	49.56
826.045	50.02
826.219	49.41
826.393	48.88
826.567	48.41
826.741	48.21
826.915	48.52
827.089	48.23
827.263	47.62
827.437	47.63
827.611	47.44
827.784	47.97
827.958	47.7
828.132	48.18
828.306	49.43
828.48	49.94
828.654	50.69
828.827	51.49
829.001	51.63
829.175	53.62
829.349	55.52
829.522	56.25
829.696	57.33
829.87	58.24
830.044	60.09
830.217	61.03
830.391	62.49
830.565	62.74
830.738	63.27
830.912	65.96
831.085	64.75
831.259	63.52
831.432	63.63
831.606	63.53
831.779	63.16
831.953	62.32
832.126	61.35
832.3	59.42
832.473	58.32
832.647	56.95
832.82	55.36
832.994	55.04
833.167	54.87
833.34	54.82
833.514	53.56
833.687	52.66
833.86	51.36
834.034	51.03
834.207	51.43
834.38	51.74
834.553	52.28
834.727	51.92
834.9	51.73
835.073	51.49
835.246	51.23
835.419	52.65
835.593	53.91
835.766	55.43
835.939	56.81
836.112	56.8
836.285	57.27
836.458	59.07
836.631	61.13
836.804	63.08
836.977	65.34
837.15	69
837.323	69.91
837.496	71.15
837.669	72.29
837.842	70.91
838.015	73.52
838.188	74.55
838.361	74.09
838.533	74.04
838.706	73.53
838.879	72.4
839.052	69.92
839.225	68.73
839.398	67.48
839.57	68.89
839.743	71.9
839.916	70.45
840.088	69.29
840.261	68.9
840.434	68.78
840.607	69.13
840.779	69.65
840.952	70.36
841.124	71.15
841.297	72.13
841.47	71.42
841.642	70.68
841.815	72.86
841.987	74.62
842.16	77.98
842.332	83
842.505	84.46
842.677	86.63
842.85	88.34
843.022	89.39
843.194	93.13
843.367	95.03
843.539	95.22
843.712	95.1
843.884	96.65
844.056	92.65
844.229	89.3
844.401	89.44
844.573	90.57
844.745	91.78
844.918	91.59
845.09	89.95
845.262	92.78
845.434	96.8
845.606	98.2
845.779	100.74
845.951	105.38
846.123	103.68
846.295	106.26
846.467	105.97
846.639	105.73
846.811	107.45
846.983	109.33
847.155	106.99
847.327	107.36
847.499	106.84
847.671	107.46
847.843	105.53
848.015	108.19
848.187	107.76
848.359	105.31
848.531	106.24
848.703	102.43
848.875	104.84
849.047	104.41
849.218	102.8
849.39	105.71
849.562	103.26
849.734	104.58
849.905	102.74
850.077	103.25
850.249	103.76
850.421	105.38
850.592	110.36
850.764	110.8
850.936	111.34
851.107	113.98
851.279	112.97
851.451	115.48
851.622	114.5
851.794	121.99
851.965	127.09
852.137	135.06
852.308	135.51
852.48	135.73
852.651	128.89
852.823	129.94
852.994	127.56
853.166	125.53
853.337	124.05
853.509	124.26
853.68	120.02
853.851	109.69
854.023	109.24
854.194	103.32
854.365	100.64
854.537	104
854.708	102.11
854.879	105.15
855.05	110.81
855.222	109.05
855.393	107.9
855.564	106.07
855.735	112.87
855.906	110.64
856.078	111.32
856.249	109.51
856.42	108.29
856.591	106.89
856.762	105.16
856.933	99.33
857.104	101.25
857.275	101.01
857.446	101.08
857.617	98.18
857.788	96.85
857.959	97.18
858.13	102.81
858.301	100.7
858.472	102.68
858.643	97.01
858.814	99.68
858.985	102.05
859.155	106.95
859.326	108.93
859.497	112.49
859.668	113.46
859.839	120.51
860.009	123.66
860.18	125.04
860.351	121.35
860.522	128.28
860.692	122.47
860.863	118.62
861.034	117.47
861.204	122.88
861.375	118.87
861.546	122.34
861.716	123.04
861.887	117.86
862.057	118.58
862.228	122.37
862.398	121.69
862.569	123.81
862.739	129.27
862.91	127.67
863.08	117.88
863.251	115.26
863.421	113.04
863.592	104.84
863.762	108.55
863.932	107.41
864.103	113.32
864.273	111.89
864.443	109.57
864.614	106.59
864.784	104.4
864.954	107.47
865.125	110.85
865.295	108.15
865.465	112.8
865.635	112.78
865.805	115.15
865.976	108.54
866.146	107.67
866.316	112.87
866.486	114.2
866.656	117.7
866.826	122.42
866.996	128.22
867.166	130.93
867.336	135.88
867.506	136.61
867.676	135.9
867.846	137.19
868.016	138.04
868.186	129.99
868.356	125.29
868.526	123.53
868.696	123.92
868.866	119.9
869.036	123.85
869.206	122.26
869.376	112.31
869.545	114.53
869.715	113.54
869.885	119.82
870.055	124.74
870.224	131.33
870.394	131.48
870.564	129.91
870.734	130.14
870.903	128.66
871.073	130.39
871.243	135.24
871.412	132.84
871.582	137.07
871.751	133.03
871.921	131.33
872.091	127.55
872.26	120.89
872.43	123.76
872.599	119.74
872.769	117.61
872.938	113.54
873.108	110.49
873.277	108.64
873.446	106.22
873.616	108.02
873.785	111.51
873.955	110.26
874.124	115.47
874.293	107.62
874.463	107.98
874.632	107.56
874.801	106.12
874.971	110.94
875.14	116.72
875.309	112.93
875.478	114.53
875.647	109.23
875.817	114.02
875.986	111.3
876.155	115.32
876.324	113.76
876.493	112.23
876.662	114.88
876.831	115.21
877	110.97
877.17	112.85
877.339	111.11
877.508	113.09
877.677	110.96
877.846	113.51
878.015	109.78
878.184	112.23
878.352	116.04
878.521	115.44
878.69	113.27
878.859	109.43
879.028	107.86
879.197	105.45
879.366	102.04
879.534	92.62
879.703	87.07
879.872	81.66
880.041	77.97
880.21	72.07
880.378	65.99
880.547	62.31
880.716	60.27
880.884	56.76
881.053	53.27
881.222	51.58
881.39	50.56
881.559	48.46
881.727	47.48
881.896	46.38
882.065	45.88
882.233	45.08
882.402	44.6
882.57	44.99
882.739	45.49
882.907	45.71
883.076	44.97
883.244	45.49
883.412	46.72
883.581	47.89
883.749	48.45
883.918	48.31
884.086	50.05
884.254	51.61
884.423	52.43
884.591	53.95
884.759	55.41
884.927	58.49
885.096	60.63
885.264	62.03
885.432	62.76
885.6	64.47
885.769	69.6
885.937	71.47
886.105	73.64
886.273	75.91
886.441	79.35
886.609	84.58
886.777	86.64
886.945	89.6
887.113	92.78
887.281	93.46
887.449	98.6
887.617	101.65
887.785	103.51
887.953	104.69
888.121	103.07
888.289	104.42
888.457	102.37
888.625	102.76
888.793	104.68
888.961	105.62
889.129	110.53
889.296	109.26
889.464	105.17
889.632	106.13
889.8	104.25
889.967	110.13
890.135	108.36
