Data from 2938845__Reflection_04.txt Node
Date: Wed Mar 11 14:15:39 EDT 2015
User: robert
Spectrometer: USB4E03002
Autoset integration time: false
Trigger mode: 4
Integration Time (sec): 1.000000E-1
Scans to average: 10
Electric dark correction enabled: false
Nonlinearity correction enabled: false
Boxcar width: 5
Stray light correction enabled: false
XAxis mode: Wavelengths
Stop averaging: false
Number of Pixels in Spectrum: 3648
>>>>>Begin Spectral Data<<<<<
177.575	-14.81
177.794	-162.5
178.014	-18.49
178.233	-83.82
178.452	-107.3
178.672	-33.23
178.891	-29.98
179.11	-37.69
179.33	-75.7
179.549	-58.13
179.768	-132.69
179.987	-221
180.207	-140.94
180.426	-130.94
180.645	-44.92
180.864	-37.97
181.084	-120.74
181.303	-578.57
181.522	-283.19
181.741	-161.54
181.96	-216.31
182.179	-355.17
182.398	-209.41
182.618	373.63
182.837	801.54
183.056	1572.34
183.275	255.71
183.494	198.37
183.713	406.06
183.932	174.64
184.151	190.08
184.37	207.14
184.589	502.65
184.808	501.46
185.027	-1257.14
185.246	-458.89
185.465	-76.75
185.684	-9.82
185.903	-71.36
186.122	-24.36
186.341	-33.47
186.56	-18.26
186.779	-28.55
186.998	5.27
187.216	23.84
187.435	21.92
187.654	14.02
187.873	2.06
188.092	-12.31
188.311	7.16
188.53	10.66
188.748	16.75
188.967	19.38
189.186	25.29
189.405	21.38
189.623	21.01
189.842	20.72
190.061	39.2
190.28	42.96
190.498	50.86
190.717	55.44
190.936	51.06
191.154	53.43
191.373	56.37
191.592	45.1
191.81	44.91
192.029	33.71
192.248	56.93
192.466	-22.83
192.685	-51.67
192.904	-78.12
193.122	-75.07
193.341	-183.22
193.559	-258.67
193.778	-624.69
193.996	-358.21
194.215	-373.17
194.433	-204.85
194.652	-149.55
194.87	-125.8
195.089	-123.57
195.307	-111.43
195.526	-185.8
195.744	-67.79
195.963	-44.7
196.181	-25.68
196.399	-18.91
196.618	-7.18
196.836	4.01
197.055	14.89
197.273	16.69
197.491	-12.79
197.71	-27.24
197.928	-6.03
198.146	-13.21
198.365	-35.76
198.583	-30.4
198.801	-20.27
199.019	-15.17
199.238	-20.47
199.456	-42.21
199.674	-36.53
199.892	7.92
200.111	3.77
200.329	-2.99
200.547	-40.32
200.765	-44.88
200.983	-66.88
201.202	-78.92
201.42	-57.08
201.638	-48.66
201.856	-56.97
202.074	-102.21
202.292	-97.36
202.51	-105.72
202.728	-123.3
202.946	-18.55
203.165	31.86
203.383	25.68
203.601	17.56
203.819	57.49
204.037	23.02
204.255	43.99
204.473	46.51
204.691	-11.09
204.909	-13.21
205.127	-22.5
205.345	-75.89
205.562	-73.46
205.78	-60
205.998	-108.36
206.216	-156.1
206.434	-52.86
206.652	-58.13
206.87	-47.07
207.088	-14.44
207.306	-26.84
207.523	-15.73
207.741	-17.53
207.959	-28.57
208.177	-23.7
208.395	-4.57
208.612	7.74
208.83	1.44
209.048	28.23
209.266	38.19
209.483	44.02
209.701	35.96
209.919	41.1
210.136	49.77
210.354	75.35
210.572	54.42
210.79	18.08
211.007	13.59
211.225	0.65
211.442	-9.29
211.66	-42.69
211.878	-35.05
212.095	6.1
212.313	-22.97
212.53	-10.3
212.748	1.37
212.966	0.86
213.183	6.6
213.401	11.74
213.618	5.63
213.836	15.14
214.053	22.52
214.271	22.92
214.488	2.53
214.705	7.3
214.923	-0.7
215.14	-19.83
215.358	-20.3
215.575	-15.92
215.793	-19.1
216.01	-22.39
216.227	-21.96
216.445	-22.47
216.662	-18.09
216.879	-14.16
217.097	-11.73
217.314	-2.61
217.531	-3.87
217.749	-9.11
217.966	0.18
218.183	2.11
218.4	-2.09
218.618	-13.5
218.835	-9.99
219.052	-17.12
219.269	-17.95
219.487	-17.85
219.704	-25.12
219.921	-11.42
220.138	-13.84
220.355	-16.82
220.572	-14.08
220.79	-6.64
221.007	-0.75
221.224	-17.34
221.441	-19.61
221.658	-10.34
221.875	-8.19
222.092	-7.91
222.309	-13.41
222.526	-6.16
222.743	-8.07
222.96	-12.58
223.177	-15.6
223.394	-17.25
223.611	-8.48
223.828	-2.08
224.045	-2.63
224.262	0.4
224.479	3.48
224.696	4.73
224.913	5.37
225.13	7.52
225.347	3.08
225.564	3.87
225.781	3.91
225.997	5.13
226.214	6.03
226.431	5.5
226.648	2.75
226.865	2.67
227.082	3.93
227.298	4.03
227.515	4.06
227.732	5.41
227.949	5.04
228.165	5.15
228.382	4.6
228.599	4.42
228.816	4.49
229.032	5.5
229.249	5.08
229.466	4.77
229.682	4.26
229.899	4.28
230.116	4
230.332	4.84
230.549	4.95
230.765	5.24
230.982	5.02
231.199	4.75
231.415	3.67
231.632	3.41
231.848	3.01
232.065	4.15
232.281	4.11
232.498	4.16
232.714	2.72
232.931	3.37
233.147	2.73
233.364	2.09
233.58	3.42
233.797	5.09
234.013	6.39
234.23	7.42
234.446	7.23
234.662	6.77
234.879	6.5
235.095	6.91
235.312	7.17
235.528	7.08
235.744	7.96
235.961	7.07
236.177	5.32
236.393	5.09
236.61	4.11
236.826	5.27
237.042	5.18
237.258	4.28
237.475	4.39
237.691	3.38
237.907	5.38
238.123	4.63
238.339	4.6
238.556	5.51
238.772	5.56
238.988	5.94
239.204	4.39
239.42	5.64
239.636	6.85
239.853	7.09
240.069	6.91
240.285	5.74
240.501	5.82
240.717	6.16
240.933	5.41
241.149	5
241.365	4.73
241.581	3.86
241.797	3.49
242.013	3.79
242.229	3.81
242.445	3.61
242.661	3.35
242.877	3.21
243.093	2.87
243.309	2.53
243.525	2.82
243.741	3.06
243.957	3.49
244.173	3.04
244.388	2.77
244.604	2.06
244.82	1.66
245.036	1.9
245.252	1.82
245.468	2.49
245.683	3.72
245.899	3.66
246.115	3.64
246.331	3.93
246.547	4.02
246.762	4.16
246.978	4.18
247.194	4.42
247.409	4.77
247.625	5.16
247.841	4.61
248.057	4.44
248.272	4.32
248.488	4.12
248.703	4.3
248.919	4.29
249.135	3.94
249.35	3.93
249.566	3.99
249.782	3.73
249.997	3.21
250.213	3.77
250.428	3.65
250.644	3.45
250.859	3.6
251.075	3.61
251.29	4.08
251.506	4.22
251.721	4.9
251.937	4.76
252.152	4.64
252.368	5.13
252.583	4.97
252.798	4.67
253.014	5.22
253.229	5.37
253.445	4.29
253.66	3.74
253.875	4.19
254.091	2.99
254.306	2.81
254.521	2.34
254.737	1.98
254.952	1.86
255.167	2.38
255.383	1.93
255.598	1.78
255.813	3.11
256.028	3.83
256.244	4.02
256.459	4.74
256.674	4.34
256.889	4.23
257.104	4.03
257.32	3.97
257.535	3.38
257.75	3.34
257.965	3.28
258.18	3.25
258.395	3.46
258.61	3.03
258.826	3.23
259.041	3.19
259.256	3.26
259.471	3.15
259.686	3.29
259.901	3.58
260.116	3.71
260.331	3.9
260.546	3.95
260.761	3.71
260.976	3.71
261.191	3.54
261.406	3.7
261.621	4.02
261.836	4.15
262.05	3.76
262.265	3.52
262.48	3.37
262.695	3
262.91	2.47
263.125	2.44
263.34	2.42
263.555	2.36
263.769	2.29
263.984	1.38
264.199	1.61
264.414	2.62
264.629	2.54
264.843	2.67
265.058	2.86
265.273	2.58
265.488	2.33
265.702	1.94
265.917	2.42
266.132	2.04
266.346	2.8
266.561	2.65
266.776	2.52
266.99	2.79
267.205	2.21
267.42	2.35
267.634	2.8
267.849	3.34
268.063	3.41
268.278	3.28
268.492	3.99
268.707	3.54
268.922	3.66
269.136	3.31
269.351	3.09
269.565	3.23
269.78	3.07
269.994	2.8
270.209	2.5
270.423	2.65
270.637	2.78
270.852	2.69
271.066	3.06
271.281	2.62
271.495	2.75
271.709	2.3
271.924	2.75
272.138	2.4
272.353	2.52
272.567	2.76
272.781	2.93
272.996	2.47
273.21	2.31
273.424	2.27
273.638	2.37
273.853	2.51
274.067	3.31
274.281	3.34
274.495	3.94
274.71	3.86
274.924	3.46
275.138	3.51
275.352	4.36
275.566	4.44
275.781	4.14
275.995	4.08
276.209	4.08
276.423	3.54
276.637	2.86
276.851	2.88
277.065	3.02
277.279	3.05
277.493	3.3
277.707	2.66
277.921	2.79
278.135	3.03
278.349	3.17
278.563	2.49
278.777	2.7
278.991	3.22
279.205	2.59
279.419	2.66
279.633	3.11
279.847	3.28
280.061	3.77
280.275	3.91
280.489	3.44
280.703	3.44
280.917	4.01
281.131	3.92
281.344	3.96
281.558	4.34
281.772	4.05
281.986	3.72
282.2	3.14
282.414	2.85
282.627	2.66
282.841	3.06
283.055	3.13
283.269	3.3
283.482	3.51
283.696	3.56
283.91	3.37
284.123	3.47
284.337	3.28
284.551	3.43
284.764	3.52
284.978	3.38
285.192	3.23
285.405	3.26
285.619	3.08
285.833	3.02
286.046	3.09
286.26	3.33
286.473	3.34
286.687	3.37
286.9	3.72
287.114	3.69
287.327	3.83
287.541	4.05
287.754	4.09
287.968	3.87
288.181	4.19
288.395	3.99
288.608	3.65
288.822	3.56
289.035	3.86
289.248	3.52
289.462	3.63
289.675	3.68
289.889	3.63
290.102	3.65
290.315	3.86
290.529	3.77
290.742	3.72
290.955	3.73
291.169	3.87
291.382	3.85
291.595	3.8
291.808	3.85
292.022	3.65
292.235	3.16
292.448	3
292.661	3.04
292.875	2.87
293.088	3.12
293.301	3.36
293.514	3.41
293.727	3.4
293.94	3.66
294.153	3.33
294.367	3.63
294.58	4.19
294.793	4.23
295.006	4.33
295.219	4.31
295.432	4.12
295.645	4.13
295.858	4.19
296.071	4.12
296.284	4.22
296.497	4.29
296.71	4.33
296.923	4.26
297.136	4.53
297.349	4.36
297.562	4.46
297.775	4.65
297.988	4.77
298.201	4.85
298.414	4.92
298.626	4.97
298.839	5.01
299.052	4.9
299.265	4.69
299.478	4.45
299.691	4.74
299.903	4.82
300.116	4.66
300.329	4.49
300.542	4.55
300.755	4.7
300.967	4.56
301.18	4.82
301.393	4.97
301.605	5.33
301.818	5.38
302.031	5.48
302.243	5.56
302.456	5.76
302.669	5.71
302.881	5.82
303.094	6.1
303.307	5.92
303.519	5.86
303.732	5.85
303.944	5.9
304.157	6.18
304.37	6.32
304.582	6.2
304.795	6.14
305.007	6.06
305.22	6.07
305.432	5.9
305.645	5.98
305.857	5.69
306.069	5.56
306.282	5.71
306.494	5.61
306.707	5.17
306.919	5.19
307.132	5.09
307.344	5.52
307.556	5.24
307.769	5.2
307.981	5.47
308.193	5.84
308.406	6.12
308.618	6.11
308.83	6.04
309.043	6.04
309.255	5.94
309.467	6.09
309.679	6.14
309.892	6.34
310.104	6.46
310.316	6.45
310.528	6.59
310.74	6.57
310.953	6.3
311.165	6.08
311.377	6.26
311.589	6.36
311.801	6.4
312.013	6.27
312.225	6.1
312.437	5.98
312.649	6.05
312.862	5.88
313.074	6.01
313.286	6.04
313.498	6.49
313.71	6.47
313.922	6.33
314.134	6.54
314.346	6.67
314.558	6.93
314.77	6.63
314.982	6.6
315.193	6.53
315.405	5.91
315.617	5.97
315.829	5.34
316.041	5.45
316.253	5.36
316.465	5.02
316.677	5.16
316.888	5.17
317.1	5.38
317.312	5.35
317.524	5.48
317.736	5.43
317.947	5.64
318.159	5.99
318.371	5.55
318.583	5.84
318.794	5.99
319.006	5.83
319.218	5.99
319.43	5.99
319.641	5.95
319.853	5.48
320.064	5.82
320.276	5.74
320.488	5.73
320.699	5.93
320.911	6.53
321.123	6.2
321.334	5.95
321.546	5.79
321.757	5.8
321.969	5.47
322.18	6
322.392	6.5
322.603	6.24
322.815	6.69
323.026	6.69
323.238	5.94
323.449	6.28
323.661	6.41
323.872	6.33
324.083	6.58
324.295	7
324.506	6.77
324.718	6.59
324.929	6.96
325.14	6.7
325.352	7.02
325.563	7.49
325.774	7.43
325.986	7.29
326.197	7.25
326.408	7.15
326.62	6.75
326.831	7.15
327.042	6.9
327.253	6.76
327.464	6.87
327.676	6.66
327.887	6.1
328.098	6.05
328.309	6.3
328.52	6.08
328.732	6.04
328.943	6.55
329.154	6.5
329.365	6.66
329.576	6.85
329.787	6.95
329.998	7.03
330.209	7.39
330.42	7.45
330.631	7.4
330.842	7.61
331.053	7.57
331.264	7.21
331.475	6.93
331.686	6.91
331.897	6.72
332.108	6.48
332.319	6.47
332.53	6.54
332.741	6.41
332.952	6.17
333.163	6.46
333.374	6.71
333.585	6.56
333.795	7.02
334.006	7.17
334.217	7.47
334.428	7.61
334.639	7.52
334.849	7.5
335.06	7.51
335.271	7.7
335.482	7.89
335.692	7.75
335.903	7.72
336.114	7.33
336.325	7.41
336.535	7.21
336.746	7.27
336.957	7.23
337.167	7.32
337.378	7.38
337.589	7.64
337.799	7.57
338.01	7.43
338.22	7.58
338.431	7.64
338.642	7.47
338.852	7.44
339.063	7.12
339.273	7.25
339.484	6.96
339.694	6.96
339.905	6.84
340.115	6.47
340.326	6.47
340.536	6.65
340.746	6.67
340.957	6.64
341.167	6.6
341.378	6.93
341.588	6.69
341.799	6.98
342.009	7.06
342.219	6.95
342.43	7.27
342.64	7.45
342.85	7.16
343.061	7.17
343.271	7.43
343.481	7.29
343.691	7.29
343.902	7.62
344.112	7.62
344.322	7.68
344.532	7.82
344.743	7.55
344.953	7.59
345.163	7.71
345.373	7.94
345.583	7.98
345.793	8.17
346.004	8.37
346.214	8.22
346.424	8.17
346.634	8.26
346.844	8.24
347.054	8.27
347.264	8.27
347.474	8.41
347.684	7.96
347.894	7.71
348.104	7.72
348.314	7.19
348.524	7.26
348.734	7.55
348.944	7.19
349.154	7.1
349.364	7.23
349.574	7.26
349.784	7.38
349.994	7.5
350.204	7.55
350.413	7.53
350.623	7.71
350.833	7.63
351.043	7.09
351.253	7.12
351.463	7.39
351.672	7.38
351.882	7.25
352.092	7.12
352.302	7.27
352.511	7.15
352.721	6.98
352.931	7.07
353.141	7.08
353.35	6.93
353.56	7.09
353.77	6.94
353.979	6.91
354.189	7.12
354.399	6.8
354.608	6.62
354.818	6.94
355.027	7.3
355.237	7.23
355.447	7.31
355.656	7.75
355.866	7.34
356.075	7.23
356.285	7.18
356.494	7.22
356.704	7.65
356.913	7.86
357.123	7.59
357.332	7.45
357.542	7.46
357.751	7.46
357.96	7.45
358.17	7.84
358.379	7.83
358.589	7.73
358.798	7.66
359.007	7.3
359.217	7.25
359.426	7.37
359.635	7.31
359.845	7.22
360.054	7.2
360.263	7.24
360.472	7.16
360.682	7.06
360.891	7.11
361.1	7.07
361.309	7.24
361.519	7.34
361.728	7.43
361.937	7.44
362.146	7.5
362.355	7.5
362.564	7.4
362.774	7.47
362.983	7.57
363.192	7.71
363.401	7.82
363.61	7.82
363.819	7.57
364.028	7.4
364.237	7.23
364.446	7.35
364.655	7.39
364.864	7.38
365.073	7.32
365.282	7.1
365.491	6.89
365.7	6.68
365.909	6.67
366.118	6.78
366.327	6.98
366.536	6.89
366.745	6.67
366.954	6.65
367.162	6.67
367.371	6.48
367.58	6.67
367.789	6.86
367.998	6.73
368.207	6.59
368.415	6.44
368.624	6.26
368.833	6.61
369.042	6.73
369.25	6.55
369.459	6.46
369.668	6.56
369.877	6.44
370.085	6.06
370.294	6.26
370.503	6.29
370.711	6.27
370.92	6.09
371.129	6
371.337	5.76
371.546	5.77
371.754	5.7
371.963	5.63
372.171	5.61
372.38	5.56
372.589	5.21
372.797	5.22
373.006	5.16
373.214	5.45
373.423	5.32
373.631	5.39
373.84	5.55
374.048	5.69
374.256	5.83
374.465	5.75
374.673	5.89
374.882	6.01
375.09	5.93
375.298	5.84
375.507	5.39
375.715	5.22
375.923	5.06
376.132	4.8
376.34	4.81
376.548	4.55
376.757	4.63
376.965	4.64
377.173	4.67
377.381	4.77
377.59	4.77
377.798	5
378.006	5.13
378.214	5.36
378.423	5.44
378.631	5.34
378.839	5.39
379.047	5.31
379.255	5.15
379.463	5.08
379.671	4.8
379.879	4.82
380.088	4.78
380.296	4.62
380.504	4.67
380.712	4.52
380.92	4.33
381.128	4.16
381.336	4.35
381.544	4.6
381.752	4.56
381.96	4.59
382.168	4.62
382.376	4.2
382.584	4.31
382.791	4.14
382.999	3.97
383.207	3.85
383.415	3.91
383.623	3.7
383.831	3.57
384.039	3.63
384.247	3.67
384.454	3.76
384.662	3.94
384.87	3.95
385.078	3.85
385.285	4
385.493	4.11
385.701	4.01
385.909	4.14
386.116	4.2
386.324	4.14
386.532	4.16
386.739	4.02
386.947	4.03
387.155	4.13
387.362	4.17
387.57	4.1
387.778	4.15
387.985	4.2
388.193	4.2
388.4	3.9
388.608	3.8
388.816	3.77
389.023	3.66
389.231	3.69
389.438	3.59
389.646	3.54
389.853	3.53
390.061	3.5
390.268	3.44
390.475	3.27
390.683	3.48
390.89	3.49
391.098	3.55
391.305	3.63
391.512	3.6
391.72	3.59
391.927	3.29
392.135	3.42
392.342	3.31
392.549	3.42
392.756	3.46
392.964	3.36
393.171	3.49
393.378	3.4
393.586	3.46
393.793	3.47
394	3.43
394.207	3.78
394.414	3.65
394.622	3.62
394.829	3.47
395.036	3.23
395.243	3.27
395.45	3.21
395.657	3.28
395.864	3.08
396.072	2.98
396.279	3.05
396.486	3.01
396.693	3.06
396.9	3.09
397.107	3.07
397.314	3.33
397.521	3.2
397.728	3.1
397.935	3.1
398.142	3.24
398.349	3.35
398.556	3.06
398.763	2.91
398.97	2.78
399.177	2.8
399.383	2.97
399.59	2.87
399.797	2.96
400.004	3.14
400.211	3.18
400.418	3.09
400.625	3.25
400.831	3.41
401.038	3.42
401.245	3.64
401.452	3.71
401.658	3.68
401.865	3.57
402.072	3.59
402.279	3.4
402.485	3.19
402.692	3.1
402.899	2.84
403.105	2.88
403.312	2.9
403.519	2.79
403.725	2.61
403.932	2.47
404.138	2.5
404.345	2.54
404.552	2.53
404.758	2.49
404.965	2.55
405.171	2.63
405.378	2.56
405.584	2.6
405.791	2.64
405.997	2.81
406.204	2.9
406.41	2.93
406.617	2.95
406.823	3.05
407.029	3.12
407.236	3.1
407.442	2.97
407.649	2.96
407.855	2.89
408.061	2.85
408.268	2.83
408.474	2.64
408.68	2.73
408.887	2.46
409.093	2.39
409.299	2.36
409.505	2.26
409.712	2.36
409.918	2.58
410.124	2.49
410.33	2.48
410.537	2.46
410.743	2.68
410.949	2.69
411.155	2.74
411.361	2.59
411.567	2.63
411.773	2.81
411.98	2.83
412.186	2.59
412.392	2.71
412.598	2.91
412.804	2.9
413.01	2.9
413.216	2.95
413.422	2.99
413.628	3.04
413.834	3.03
414.04	3
414.246	2.94
414.452	2.98
414.658	3
414.864	2.67
415.07	2.7
415.275	2.75
415.481	2.63
415.687	2.69
415.893	2.78
416.099	2.71
416.305	2.62
416.511	2.58
416.716	2.61
416.922	2.47
417.128	2.58
417.334	2.61
417.539	2.59
417.745	2.68
417.951	2.73
418.157	2.66
418.362	2.75
418.568	2.66
418.774	2.64
418.979	2.56
419.185	2.64
419.391	2.64
419.596	2.59
419.802	2.58
420.008	2.53
420.213	2.46
420.419	2.51
420.624	2.46
420.83	2.54
421.035	2.59
421.241	2.65
421.446	2.66
421.652	2.69
421.857	2.68
422.063	2.65
422.268	2.57
422.474	2.59
422.679	2.61
422.885	2.64
423.09	2.65
423.295	2.68
423.501	2.62
423.706	2.55
423.911	2.51
424.117	2.52
424.322	2.54
424.527	2.64
424.733	2.68
424.938	2.63
425.143	2.55
425.349	2.49
425.554	2.45
425.759	2.52
425.964	2.52
426.169	2.5
426.375	2.43
426.58	2.36
426.785	2.28
426.99	2.25
427.195	2.24
427.4	2.26
427.605	2.29
427.811	2.25
428.016	2.19
428.221	2.31
428.426	2.27
428.631	2.32
428.836	2.42
429.041	2.39
429.246	2.32
429.451	2.35
429.656	2.47
429.861	2.45
430.066	2.34
430.271	2.31
430.476	2.3
430.681	2.23
430.886	2.28
431.09	2.08
431.295	2.11
431.5	2.19
431.705	2.2
431.91	2.13
432.115	2.22
432.32	2.36
432.524	2.43
432.729	2.3
432.934	2.36
433.139	2.24
433.343	2.44
433.548	2.43
433.753	2.41
433.958	2.44
434.162	2.51
434.367	2.44
434.572	2.45
434.776	2.4
434.981	2.53
435.186	2.54
435.39	2.66
435.595	2.55
435.799	2.53
436.004	2.51
436.209	2.46
436.413	2.41
436.618	2.4
436.822	2.37
437.027	2.39
437.231	2.43
437.436	2.54
437.64	2.4
437.845	2.45
438.049	2.49
438.253	2.47
438.458	2.37
438.662	2.38
438.867	2.43
439.071	2.43
439.275	2.52
439.48	2.48
439.684	2.38
439.888	2.47
440.093	2.46
440.297	2.46
440.501	2.48
440.706	2.49
440.91	2.52
441.114	2.49
441.318	2.44
441.523	2.41
441.727	2.42
441.931	2.46
442.135	2.44
442.339	2.46
442.543	2.44
442.748	2.38
442.952	2.32
443.156	2.16
443.36	2.14
443.564	2.2
443.768	2.17
443.972	2.08
444.176	2.14
444.38	2.12
444.584	2.07
444.788	1.99
444.992	2.02
445.196	2.12
445.4	2.19
445.604	2.24
445.808	2.27
446.012	2.17
446.216	2.16
446.42	2.12
446.624	2.14
446.828	2.07
447.032	2.14
447.235	2.13
447.439	2.13
447.643	2.13
447.847	2.1
448.051	2.06
448.254	2.11
448.458	2.12
448.662	2.14
448.866	2.17
449.069	2.27
449.273	2.26
449.477	2.26
449.681	2.3
449.884	2.34
450.088	2.38
450.292	2.44
450.495	2.44
450.699	2.53
450.902	2.62
451.106	2.58
451.31	2.55
451.513	2.64
451.717	2.71
451.92	2.67
452.124	2.68
452.327	2.63
452.531	2.6
452.734	2.56
452.938	2.49
453.141	2.39
453.345	2.39
453.548	2.42
453.752	2.38
453.955	2.26
454.158	2.28
454.362	2.25
454.565	2.29
454.769	2.34
454.972	2.39
455.175	2.47
455.379	2.45
455.582	2.42
455.785	2.33
455.988	2.33
456.192	2.52
456.395	2.5
456.598	2.44
456.801	2.42
457.005	2.3
457.208	2.33
457.411	2.18
457.614	2.22
457.817	2.25
458.021	2.3
458.224	2.23
458.427	2.06
458.63	1.99
458.833	2.03
459.036	2.03
459.239	2.05
459.442	2.03
459.645	2.01
459.848	2.05
460.051	2.03
460.254	2.04
460.457	2.1
460.66	2.14
460.863	2.18
461.066	2.2
461.269	2.2
461.472	2.23
461.675	2.12
461.878	2.11
462.081	2.13
462.284	2.12
462.486	2.16
462.689	2.15
462.892	2.15
463.095	2.13
463.298	2.11
463.5	2.16
463.703	2.11
463.906	2.15
464.109	2.27
464.311	2.09
464.514	2.07
464.717	2.01
464.92	1.99
465.122	2.02
465.325	2.21
465.528	2.18
465.73	2.18
465.933	2.24
466.135	2.34
466.338	2.33
466.541	2.37
466.743	2.36
466.946	2.33
467.148	2.33
467.351	2.46
467.553	2.38
467.756	2.38
467.958	2.38
468.161	2.3
468.363	2.26
468.566	2.24
468.768	2.23
468.971	2.19
469.173	2.22
469.375	2.09
469.578	1.97
469.78	1.95
469.983	1.95
470.185	1.9
470.387	2
470.59	2.08
470.792	2.16
470.994	2.23
471.196	2.25
471.399	2.3
471.601	2.42
471.803	2.41
472.005	2.36
472.208	2.37
472.41	2.37
472.612	2.31
472.814	2.27
473.016	2.26
473.218	2.18
473.421	2.26
473.623	2.21
473.825	2.28
474.027	2.29
474.229	2.28
474.431	2.24
474.633	2.2
474.835	2.24
475.037	2.14
475.239	2.17
475.441	2.22
475.643	2.16
475.845	2.26
476.047	2.21
476.249	2.23
476.451	2.29
476.653	2.44
476.855	2.44
477.057	2.38
477.258	2.4
477.46	2.38
477.662	2.4
477.864	2.37
478.066	2.32
478.268	2.29
478.469	2.26
478.671	2.23
478.873	2.15
479.075	2.21
479.276	2.26
479.478	2.32
479.68	2.29
479.882	2.32
480.083	2.35
480.285	2.36
480.487	2.33
480.688	2.36
480.89	2.39
481.091	2.35
481.293	2.33
481.495	2.32
481.696	2.33
481.898	2.35
482.099	2.3
482.301	2.28
482.502	2.3
482.704	2.33
482.905	2.31
483.107	2.28
483.308	2.3
483.51	2.27
483.711	2.25
483.913	2.26
484.114	2.24
484.315	2.25
484.517	2.25
484.718	2.24
484.92	2.23
485.121	2.22
485.322	2.19
485.524	2.18
485.725	2.22
485.926	2.22
486.127	2.2
486.329	2.2
486.53	2.19
486.731	2.2
486.932	2.19
487.134	2.16
487.335	2.18
487.536	2.2
487.737	2.17
487.938	2.16
488.139	2.15
488.341	2.14
488.542	2.16
488.743	2.17
488.944	2.18
489.145	2.23
489.346	2.26
489.547	2.27
489.748	2.3
489.949	2.31
490.15	2.36
490.351	2.38
490.552	2.38
490.753	2.38
490.954	2.37
491.155	2.38
491.356	2.34
491.557	2.38
491.758	2.38
491.959	2.36
492.159	2.38
492.36	2.3
492.561	2.3
492.762	2.28
492.963	2.26
493.164	2.32
493.364	2.35
493.565	2.4
493.766	2.37
493.967	2.36
494.167	2.38
494.368	2.4
494.569	2.48
494.769	2.47
494.97	2.53
495.171	2.54
495.371	2.48
495.572	2.4
495.773	2.36
495.973	2.34
496.174	2.36
496.375	2.37
496.575	2.38
496.776	2.4
496.976	2.44
497.177	2.44
497.377	2.4
497.578	2.37
497.778	2.39
497.979	2.36
498.179	2.31
498.38	2.36
498.58	2.4
498.78	2.36
498.981	2.3
499.181	2.28
499.382	2.33
499.582	2.35
499.782	2.41
499.983	2.45
500.183	2.51
500.383	2.59
500.584	2.58
500.784	2.58
500.984	2.64
501.184	2.75
501.385	2.79
501.585	2.84
501.785	2.98
501.985	3
502.185	3.03
502.386	3.11
502.586	3.14
502.786	3.1
502.986	3.08
503.186	3.08
503.386	3.1
503.586	3.16
503.786	3.13
503.987	3.12
504.187	3.07
504.387	3.12
504.587	3.06
504.787	3.07
504.987	3.18
505.187	3.21
505.387	3.27
505.587	3.3
505.786	3.27
505.986	3.34
506.186	3.31
506.386	3.36
506.586	3.34
506.786	3.38
506.986	3.38
507.186	3.38
507.386	3.46
507.585	3.44
507.785	3.48
507.985	3.55
508.185	3.48
508.384	3.6
508.584	3.68
508.784	3.62
508.984	3.69
509.183	3.76
509.383	3.73
509.583	3.75
509.782	3.85
509.982	3.83
510.182	3.89
510.381	4.01
510.581	3.96
510.781	3.99
510.98	4.09
511.18	4.16
511.379	4.18
511.579	4.28
511.778	4.32
511.978	4.38
512.177	4.42
512.377	4.45
512.576	4.49
512.776	4.56
512.975	4.67
513.175	4.82
513.374	4.8
513.573	4.86
513.773	4.87
513.972	4.95
514.172	4.95
514.371	5.08
514.57	5.04
514.77	5.09
514.969	5.09
515.168	5.06
515.367	5.08
515.567	5.19
515.766	5.3
515.965	5.39
516.164	5.42
516.364	5.56
516.563	5.63
516.762	5.84
516.961	5.94
517.16	6.05
517.359	6.2
517.559	6.28
517.758	6.35
517.957	6.41
518.156	6.52
518.355	6.58
518.554	6.64
518.753	6.71
518.952	6.75
519.151	6.82
519.35	6.87
519.549	6.91
519.748	6.98
519.947	7.05
520.146	7.14
520.345	7.2
520.544	7.34
520.743	7.48
520.942	7.59
521.141	7.71
521.339	7.79
521.538	7.9
521.737	8.03
521.936	8.06
522.135	8.13
522.333	8.25
522.532	8.32
522.731	8.43
522.93	8.51
523.129	8.6
523.327	8.69
523.526	8.8
523.725	8.86
523.923	8.91
524.122	9.11
524.321	9.23
524.519	9.31
524.718	9.54
524.917	9.6
525.115	9.65
525.314	9.7
525.512	9.84
525.711	9.93
525.909	10.09
526.108	10.19
526.306	10.28
526.505	10.41
526.703	10.53
526.902	10.56
527.1	10.68
527.299	10.8
527.497	10.94
527.696	10.96
527.894	11.06
528.092	11.1
528.291	11.19
528.489	11.22
528.688	11.27
528.886	11.36
529.084	11.44
529.283	11.48
529.481	11.54
529.679	11.58
529.877	11.68
530.076	11.75
530.274	11.85
530.472	11.95
530.67	12.08
530.869	12.17
531.067	12.22
531.265	12.29
531.463	12.43
531.661	12.53
531.859	12.68
532.057	12.79
532.255	12.93
532.454	13.1
532.652	13.18
532.85	13.29
533.048	13.4
533.246	13.47
533.444	13.55
533.642	13.64
533.84	13.74
534.038	13.8
534.236	13.83
534.434	13.83
534.632	13.88
534.83	13.96
535.027	14.01
535.225	14.11
535.423	14.26
535.621	14.37
535.819	14.42
536.017	14.44
536.215	14.48
536.412	14.56
536.61	14.66
536.808	14.74
537.006	14.79
537.203	14.9
537.401	14.92
537.599	14.97
537.797	15.05
537.994	15.11
538.192	15.28
538.39	15.41
538.587	15.51
538.785	15.65
538.983	15.71
539.18	15.76
539.378	15.87
539.575	16.07
539.773	16.2
539.97	16.24
540.168	16.39
540.366	16.42
540.563	16.47
540.761	16.6
540.958	16.66
541.155	16.71
541.353	16.84
541.55	16.91
541.748	16.93
541.945	16.93
542.143	17
542.34	17.02
542.537	17.11
542.735	17.19
542.932	17.24
543.129	17.27
543.327	17.38
543.524	17.44
543.721	17.46
543.919	17.54
544.116	17.66
544.313	17.72
544.51	17.85
544.708	17.96
544.905	18.09
545.102	18.17
545.299	18.32
545.496	18.38
545.693	18.42
545.891	18.49
546.088	18.57
546.285	18.65
546.482	18.72
546.679	18.71
546.876	18.73
547.073	18.72
547.27	18.74
547.467	18.71
547.664	18.69
547.861	18.72
548.058	18.77
548.255	18.72
548.452	18.7
548.649	18.72
548.846	18.71
549.043	18.62
549.24	18.65
549.437	18.62
549.633	18.67
549.83	18.65
550.027	18.63
550.224	18.63
550.421	18.62
550.618	18.56
550.814	18.56
551.011	18.58
551.208	18.7
551.405	18.73
551.601	18.72
551.798	18.74
551.995	18.81
552.191	18.87
552.388	18.83
552.585	18.92
552.781	19.05
552.978	19.05
553.175	19.05
553.371	19.07
553.568	19.13
553.764	19.22
553.961	19.07
554.157	19.07
554.354	19.1
554.55	19.14
554.747	19.05
554.943	19.09
555.14	19.1
555.336	19.15
555.533	19.14
555.729	19.06
555.926	18.96
556.122	19.09
556.318	19.02
556.515	19.04
556.711	19.05
556.907	19.13
557.104	18.99
557.3	19
557.496	18.94
557.693	18.94
557.889	19.18
558.085	19.25
558.281	19.34
558.478	19.36
558.674	19.38
558.87	19.48
559.066	19.42
559.262	19.48
559.459	19.61
559.655	19.73
559.851	19.75
560.047	19.55
560.243	19.69
560.439	19.7
560.635	19.73
560.831	19.67
561.027	19.74
561.223	19.83
561.419	19.85
561.615	19.81
561.811	19.73
562.007	19.7
562.203	19.76
562.399	19.65
562.595	19.65
562.791	19.88
562.987	19.77
563.183	19.62
563.379	19.61
563.575	19.67
563.771	19.59
563.966	19.72
564.162	19.88
564.358	19.92
564.554	20.03
564.75	20
564.945	19.92
565.141	20.02
565.337	20.03
565.533	19.99
565.728	19.98
565.924	20.04
566.12	19.96
566.315	19.89
566.511	19.88
566.707	19.87
566.902	19.93
567.098	19.97
567.293	19.86
567.489	19.84
567.684	19.98
567.88	20.09
568.076	20.11
568.271	20.3
568.467	20.26
568.662	20.3
568.858	20.22
569.053	20.19
569.248	20.12
569.444	20.27
569.639	20.41
569.835	20.39
570.03	20.34
570.225	20.43
570.421	20.43
570.616	20.5
570.812	20.53
571.007	20.54
571.202	20.55
571.397	20.57
571.593	20.65
571.788	20.59
571.983	20.6
572.178	20.61
572.374	20.62
572.569	20.57
572.764	20.53
572.959	20.48
573.154	20.57
573.35	20.53
573.545	20.55
573.74	20.62
573.935	20.69
574.13	20.62
574.325	20.61
574.52	20.67
574.715	20.67
574.91	20.68
575.105	20.79
575.3	20.85
575.495	20.91
575.69	20.89
575.885	20.77
576.08	20.76
576.275	20.88
576.47	20.97
576.665	21.04
576.86	21.01
577.055	21.11
577.25	21.1
577.444	21.08
577.639	21.27
577.834	21.41
578.029	21.53
578.224	21.63
578.418	21.53
578.613	21.53
578.808	21.38
579.003	21.46
579.197	21.49
579.392	21.42
579.587	21.48
579.781	21.42
579.976	21.32
580.171	21.27
580.365	21.11
580.56	21.27
580.755	21.29
580.949	21.45
581.144	21.44
581.338	21.47
581.533	21.62
581.727	21.56
581.922	21.61
582.116	21.67
582.311	21.72
582.505	21.84
582.7	21.73
582.894	21.72
583.089	21.55
583.283	21.55
583.478	21.53
583.672	21.58
583.866	21.57
584.061	21.59
584.255	21.56
584.449	21.6
584.644	21.6
584.838	21.66
585.032	21.72
585.226	21.95
585.421	22.07
585.615	22.12
585.809	21.99
586.003	22.14
586.198	22.08
586.392	22.17
586.586	22.25
586.78	22.27
586.974	22.37
587.168	22.37
587.363	22.3
587.557	22.32
587.751	22.26
587.945	22.27
588.139	22.25
588.333	22.22
588.527	22.21
588.721	22.1
588.915	22.2
589.109	22.14
589.303	22.1
589.497	22.07
589.691	22.03
589.885	22.04
590.079	22.02
590.273	21.94
590.466	22.06
590.66	21.98
590.854	22.03
591.048	21.9
591.242	21.95
591.436	21.91
591.629	22.01
591.823	22.02
592.017	22.13
592.211	22.34
592.404	22.32
592.598	22.26
592.792	22.4
592.986	22.25
593.179	22.39
593.373	22.38
593.567	22.54
593.76	22.47
593.954	22.46
594.147	22.44
594.341	22.39
594.535	22.46
594.728	22.56
594.922	22.7
595.115	22.81
595.309	22.74
595.502	22.73
595.696	22.7
595.889	22.66
596.083	22.69
596.276	22.52
596.47	22.43
596.663	22.35
596.856	22.29
597.05	22.07
597.243	22.12
597.437	22.14
597.63	22.13
597.823	22.13
598.017	22.05
598.21	22.14
598.403	22.31
598.596	22.38
598.79	22.39
598.983	22.4
599.176	22.59
599.369	22.57
599.563	22.69
599.756	22.75
599.949	22.76
600.142	22.81
600.335	22.67
600.528	22.65
600.722	22.63
600.915	22.76
601.108	22.64
601.301	22.58
601.494	22.61
601.687	22.47
601.88	22.47
602.073	22.38
602.266	22.4
602.459	22.35
602.652	22.31
602.845	22.36
603.038	22.25
603.231	22.33
603.424	22.31
603.617	22.3
603.809	22.38
604.002	22.31
604.195	22.42
604.388	22.47
604.581	22.55
604.774	22.57
604.966	22.52
605.159	22.58
605.352	22.61
605.545	22.64
605.737	22.59
605.93	22.47
606.123	22.45
606.316	22.46
606.508	22.45
606.701	22.54
606.894	22.72
607.086	22.87
607.279	23.02
607.471	23.01
607.664	23.15
607.857	23.27
608.049	23.54
608.242	23.8
608.434	23.99
608.627	24.41
608.819	24.66
609.012	24.86
609.204	25.28
609.397	25.72
609.589	26.24
609.782	26.66
609.974	27.28
610.166	27.69
610.359	28.22
610.551	28.78
610.743	29.19
610.936	29.37
611.128	29.69
611.32	29.68
611.513	29.74
611.705	29.9
611.897	29.71
612.09	29.44
612.282	29.11
612.474	28.77
612.666	28.35
612.858	27.88
613.051	27.85
613.243	27.59
613.435	27.42
613.627	27.18
613.819	26.81
614.011	26.81
614.203	26.73
614.395	26.75
614.588	26.49
614.78	26.28
614.972	25.96
615.164	25.55
615.356	25.19
615.548	25.17
615.74	25.1
615.932	24.89
616.124	24.57
616.315	24.44
616.507	24.45
616.699	24.57
616.891	24.48
617.083	24.69
617.275	24.69
617.467	24.61
617.659	24.47
617.85	24.15
618.042	24.05
618.234	23.97
618.426	23.77
618.618	23.72
618.809	23.5
619.001	23.7
619.193	23.52
619.384	23.53
619.576	23.73
619.768	23.65
619.959	23.99
620.151	24.03
620.343	24.17
620.534	24.34
620.726	24.29
620.917	24.22
621.109	24
621.301	24.09
621.492	24.03
621.684	23.94
621.875	23.9
622.067	23.78
622.258	23.72
622.45	23.82
622.641	23.69
622.832	23.55
623.024	23.79
623.215	23.85
623.407	23.77
623.598	23.79
623.789	23.73
623.981	23.83
624.172	23.66
624.363	23.83
624.555	23.67
624.746	23.76
624.937	23.88
625.129	23.76
625.32	23.8
625.511	23.87
625.702	23.94
625.893	23.83
626.085	23.76
626.276	23.85
626.467	23.87
626.658	23.81
626.849	23.88
627.04	23.87
627.231	23.83
627.422	23.87
627.614	23.87
627.805	23.97
627.996	24.09
628.187	24.13
628.378	24.16
628.569	24.25
628.76	24.45
628.951	24.35
629.142	24.52
629.332	24.58
629.523	24.56
629.714	24.34
629.905	24.33
630.096	24.48
630.287	24.62
630.478	24.67
630.669	24.46
630.859	24.49
631.05	24.45
631.241	24.36
631.432	24.3
631.623	24.27
631.813	24.64
632.004	24.58
632.195	24.37
632.385	24.17
632.576	24.1
632.767	24.14
632.957	23.93
633.148	24
633.339	23.88
633.529	23.83
633.72	23.7
633.91	23.52
634.101	23.35
634.292	23.53
634.482	23.56
634.673	23.46
634.863	23.31
635.054	23.32
635.244	23.35
635.435	23.38
635.625	23.4
635.815	23.47
636.006	23.41
636.196	23.5
636.387	23.48
636.577	23.58
636.767	23.62
636.958	23.65
637.148	23.7
637.338	23.63
637.529	23.57
637.719	23.65
637.909	23.52
638.099	23.52
638.29	23.48
638.48	23.39
638.67	23.32
638.86	23.34
639.05	23.57
639.241	23.6
639.431	23.6
639.621	23.59
639.811	23.62
640.001	23.73
640.191	23.91
640.381	23.94
640.571	23.92
640.761	23.89
640.951	23.94
641.141	23.88
641.331	23.68
641.521	23.73
641.711	23.79
641.901	23.79
642.091	23.91
642.281	23.8
642.471	23.81
642.661	23.96
642.851	24.01
643.041	23.94
643.231	24.01
643.42	24.26
643.61	24.38
643.8	24.32
643.99	24.29
644.18	24.1
644.369	24.08
644.559	24.16
644.749	24.06
644.939	24.07
645.128	24.09
645.318	24.08
645.508	23.98
645.697	23.72
645.887	23.68
646.076	23.8
646.266	23.88
646.456	23.76
646.645	23.69
646.835	23.51
647.024	23.39
647.214	23.28
647.403	23.18
647.593	23.19
647.782	23.22
647.972	23.32
648.161	23.25
648.351	23.48
648.54	23.54
648.73	23.64
648.919	23.95
649.108	24.21
649.298	24.01
649.487	23.89
649.677	24.1
649.866	24.35
650.055	24.33
650.244	24.29
650.434	24.08
650.623	24.12
650.812	24.13
651.002	23.91
651.191	24.05
651.38	24.18
651.569	24.31
651.758	24.2
651.947	24.12
652.137	24.34
652.326	24.23
652.515	24.2
652.704	24.22
652.893	24.22
653.082	24.41
653.271	24.1
653.46	24.34
653.649	24.48
653.838	24.46
654.027	24.35
654.216	24.1
654.405	24.32
654.594	24.42
654.783	24.53
654.972	24.6
655.161	24.56
655.35	24.7
655.539	24.76
655.728	24.67
655.916	24.53
656.105	24.5
656.294	24.63
656.483	24.64
656.672	24.52
656.86	24.43
657.049	24.31
657.238	24.2
657.427	24.12
657.615	24.01
657.804	23.87
657.993	24.07
658.181	24.3
658.37	24.42
658.559	24.34
658.747	24.42
658.936	24.3
659.125	24.1
659.313	24.06
659.502	24.16
659.69	24.35
659.879	24.6
660.067	24.72
660.256	24.63
660.444	24.33
660.633	24.37
660.821	24.44
661.01	24.74
661.198	24.98
661.387	25.27
661.575	25.13
661.763	24.88
661.952	24.64
662.14	24.45
662.328	24.76
662.517	25.07
662.705	25
662.893	25.04
663.082	25.18
663.27	25.38
663.458	25.14
663.646	25.17
663.834	25.45
664.023	25.48
664.211	25.29
664.399	24.98
664.587	24.7
664.775	24.87
664.963	24.68
665.152	24.25
665.34	24.16
665.528	24.46
665.716	24.52
665.904	24.34
666.092	24.59
666.28	24.88
666.468	24.8
666.656	24.97
666.844	24.96
667.032	24.98
667.22	25.33
667.408	25.38
667.596	25.19
667.784	25.26
667.971	25.39
668.159	25.37
668.347	25.2
668.535	25.12
668.723	25.12
668.911	25.13
669.098	25.08
669.286	24.78
669.474	24.67
669.662	24.66
669.849	24.59
670.037	24.54
670.225	24.63
670.413	24.66
670.6	24.76
670.788	24.67
670.976	24.58
671.163	24.63
671.351	24.75
671.538	24.77
671.726	24.69
671.913	24.67
672.101	24.53
672.289	24.45
672.476	24.52
672.664	24.35
672.851	24.44
673.039	24.43
673.226	24.51
673.413	24.56
673.601	24.47
673.788	24.48
673.976	24.44
674.163	24.53
674.35	24.56
674.538	24.64
674.725	25.05
674.912	24.97
675.1	24.89
675.287	24.71
675.474	24.66
675.662	25
675.849	25.11
676.036	25.22
676.223	25.22
676.411	25.22
676.598	25.1
676.785	24.81
676.972	25
677.159	25.16
677.346	25.66
677.533	25.68
677.721	25.42
677.908	25.61
678.095	25.68
678.282	25.57
678.469	25.51
678.656	25.62
678.843	25.69
679.03	25.59
679.217	25.57
679.404	25.3
679.591	25.39
679.778	25.63
679.964	25.42
680.151	25.05
680.338	25.12
680.525	24.98
680.712	24.95
680.899	24.84
681.086	25.09
681.272	25.26
681.459	25.19
681.646	25.3
681.833	25.16
682.02	25.25
682.206	25.54
682.393	25.57
682.58	25.77
682.766	25.82
682.953	26.16
683.14	26.1
683.326	25.89
683.513	26.06
683.7	25.96
683.886	25.93
684.073	25.85
684.259	25.89
684.446	25.84
684.632	25.88
684.819	25.61
685.005	25.5
685.192	25.26
685.378	25.34
685.565	25.46
685.751	25.4
685.938	25.29
686.124	25.26
686.31	25.31
686.497	25.58
686.683	25.46
686.87	25.62
687.056	25.84
687.242	26.02
687.429	25.96
687.615	26
687.801	25.95
687.987	25.97
688.174	25.88
688.36	26.05
688.546	25.81
688.732	25.74
688.918	25.56
689.105	25.29
689.291	25.16
689.477	25.21
689.663	25.07
689.849	25.23
690.035	25.23
690.221	25.27
690.407	25.11
690.593	24.86
690.779	24.88
690.965	25.13
691.151	25.09
691.337	25.19
691.523	24.94
691.709	25.21
691.895	25.05
692.081	25.09
692.267	25.25
692.453	25.4
692.639	25.77
692.825	25.63
693.011	25.74
693.196	25.76
693.382	25.58
693.568	25.93
693.754	25.84
693.94	25.86
694.125	25.9
694.311	25.92
694.497	25.77
694.682	25.9
694.868	26.04
695.054	26.15
695.239	26.14
695.425	26.49
695.611	26.41
695.796	26.29
695.982	26.28
696.168	26.3
696.353	26.29
696.539	25.95
696.724	26
696.91	26.16
697.095	25.73
697.281	25.83
697.466	25.52
697.652	25.75
697.837	25.73
698.023	25.88
698.208	25.8
698.393	25.87
698.579	26.08
698.764	25.82
698.949	25.85
699.135	25.83
699.32	25.88
699.505	26.09
699.691	25.87
699.876	25.85
700.061	25.63
700.246	25.84
700.432	25.61
700.617	25.77
700.802	26.07
700.987	25.87
701.172	26.38
701.358	26.23
701.543	26.12
701.728	26.18
701.913	26.33
702.098	26.37
702.283	26.25
702.468	26.43
702.653	26.3
702.838	26.16
703.023	26.24
703.208	26.08
703.393	26.21
703.578	26.35
703.763	26.37
703.948	26.18
704.133	26.63
704.318	26.94
704.503	27.21
704.688	27.16
704.873	27.1
705.057	27.63
705.242	27.78
705.427	27.72
705.612	28.24
705.797	28.39
705.981	28.25
706.166	27.76
706.351	27.62
706.536	27.68
706.72	27.92
706.905	28.3
707.09	27.94
707.274	27.95
707.459	28.05
707.644	27.81
707.828	27.83
708.013	28.43
708.197	28.46
708.382	28.35
708.567	28.22
708.751	28.31
708.936	28.11
709.12	28.3
709.305	28.3
709.489	28.26
709.673	27.97
709.858	28.02
710.042	27.75
710.227	28.02
710.411	28.06
710.596	28.11
710.78	27.87
710.964	27.83
711.149	27.89
711.333	27.55
711.517	27.86
711.702	27.73
711.886	27.68
712.07	27.7
712.254	27.44
712.438	27.36
712.623	27.32
712.807	27.2
712.991	27.06
713.175	26.84
713.359	27.1
713.544	26.73
713.728	26.83
713.912	26.72
714.096	26.61
714.28	26.89
714.464	26.94
714.648	27.17
714.832	26.94
715.016	27.16
715.2	27.29
715.384	27.02
715.568	27.31
715.752	27.31
715.936	27.24
716.12	27.13
716.304	26.93
716.488	26.78
716.671	26.24
716.855	26.58
717.039	26.12
717.223	25.8
717.407	25.57
717.59	25.37
717.774	25.17
717.958	24.81
718.142	24.61
718.325	24.73
718.509	24.91
718.693	24.95
718.877	24.46
719.06	24.5
719.244	24.72
719.428	24.91
719.611	24.69
719.795	24.94
719.978	25.14
720.162	25.09
720.345	24.93
720.529	24.54
720.713	24.57
720.896	25.26
721.08	25.4
721.263	25.31
721.446	25.74
721.63	25.82
721.813	25.42
721.997	25.9
722.18	25.9
722.364	26.18
722.547	26.25
722.73	26.22
722.914	26.07
723.097	26.01
723.28	25.94
723.464	25.48
723.647	25.19
723.83	25.25
724.013	24.88
724.197	24.9
724.38	25.02
724.563	25.02
724.746	25.39
724.929	25.25
725.112	25.79
725.296	25.78
725.479	25.73
725.662	25.74
725.845	25.45
726.028	25.98
726.211	26.2
726.394	25.5
726.577	25.65
726.76	25.59
726.943	25.83
727.126	25.42
727.309	25.05
727.492	25.41
727.675	25.42
727.858	25.67
728.041	25.31
728.224	25.33
728.407	25.36
728.589	25.69
728.772	25.2
728.955	25.22
729.138	25.17
729.321	25.56
729.503	25.53
729.686	25.85
729.869	26.39
730.052	26.66
730.234	26.71
730.417	27.12
730.6	26.96
730.782	27.39
730.965	27.34
731.148	27.62
731.33	27.81
731.513	27.18
731.695	26.73
731.878	26.02
732.061	25.83
732.243	25.91
732.426	25.79
732.608	25.69
732.791	25.77
732.973	25.64
733.156	25.21
733.338	25.33
733.52	25.76
733.703	26.13
733.885	26.84
734.068	26.74
734.25	26.75
734.432	26.72
734.615	26.74
734.797	26.31
734.979	26.44
735.162	26.54
735.344	26.29
735.526	26.79
735.708	26.59
735.891	26.15
736.073	26.29
736.255	25.58
736.437	25.67
736.619	25.52
736.802	25.74
736.984	25.61
737.166	25.87
737.348	25.97
737.53	25.59
737.712	26.06
737.894	25.94
738.076	25.7
738.258	26.3
738.44	26.21
738.622	25.95
738.804	26.42
738.986	26.26
739.168	26.28
739.35	26.16
739.532	26.23
739.714	26.11
739.896	26.62
740.078	26.86
740.259	26.61
740.441	26.68
740.623	27.26
740.805	27.28
740.987	27.39
741.168	27.86
741.35	27.59
741.532	27.7
741.714	27.51
741.895	27.28
742.077	27.39
742.259	27.96
742.44	28.41
742.622	28.32
742.804	28.21
742.985	28.12
743.167	27.23
743.348	27.37
743.53	27.04
743.711	27.12
743.893	27.23
744.075	27.15
744.256	26.74
744.438	26.23
744.619	25.74
744.8	25.51
744.982	26.28
745.163	26.99
745.345	27.2
745.526	27.61
745.707	27.83
745.889	27.51
746.07	27.68
746.252	27.81
746.433	28.35
746.614	28.52
746.795	28.4
746.977	27.93
747.158	28.19
747.339	28.19
747.52	27.93
747.702	27.48
747.883	27.83
748.064	27.51
748.245	28.05
748.426	27.73
748.607	27.96
748.788	27.58
748.97	27.4
749.151	26.51
749.332	26.43
749.513	26.38
749.694	27.27
749.875	27.13
750.056	27.73
750.237	27.18
750.418	26.85
750.599	25.75
750.78	26.19
750.96	26.06
751.141	26.74
751.322	27.18
751.503	27.58
751.684	27.06
751.865	26.96
752.046	26.15
752.226	26.36
752.407	26.54
752.588	27.35
752.769	27.79
752.949	27.62
753.13	26.64
753.311	26.49
753.492	25.89
753.672	26.02
753.853	26.17
754.034	25.97
754.214	26.21
754.395	25.8
754.575	26.41
754.756	25.9
754.937	25.78
755.117	27.01
755.298	26.69
755.478	27.19
755.659	27.02
755.839	27.32
756.02	27.72
756.2	27.26
756.381	28.53
756.561	28.29
756.741	28.92
756.922	29.63
757.102	29.4
757.283	28.82
757.463	28.8
757.643	28.61
757.823	28.91
758.004	28.64
758.184	28.17
758.364	27.62
758.545	27.61
758.725	26.46
758.905	25.92
759.085	25.21
759.265	25.83
759.446	25.72
759.626	25.76
759.806	25.28
759.986	25.05
760.166	25.86
760.346	25.36
760.526	25.45
760.706	25.94
760.886	26.01
761.066	26.39
761.246	26.27
761.426	26.36
761.606	26.49
761.786	26.35
761.966	26.65
762.146	26.55
762.326	26.21
762.506	25.81
762.686	25.9
762.866	26.23
763.046	26.41
763.225	26.33
763.405	25.94
763.585	26.01
763.765	26.03
763.945	26.37
764.124	26.15
764.304	26.81
764.484	27.05
764.664	27.03
764.843	27.18
765.023	27.17
765.203	27.5
765.382	27.92
765.562	27.51
765.741	27.92
765.921	27.61
766.101	27.6
766.28	27.27
766.46	27.51
766.639	27.62
766.819	27.35
766.998	27.21
767.178	27.26
767.357	27.51
767.537	27.96
767.716	27.25
767.896	27.27
768.075	27.98
768.254	28.63
768.434	28.2
768.613	28.19
768.792	27.99
768.972	28.19
769.151	27.53
769.33	26.99
769.51	26.87
769.689	26.89
769.868	27.39
770.047	27.11
770.226	26.51
770.406	26.71
770.585	26.66
770.764	26.74
770.943	26.4
771.122	26.28
771.301	26.71
771.48	26.96
771.66	26.77
771.839	25.94
772.018	25.75
772.197	25.69
772.376	26.07
772.555	26.08
772.734	26.08
772.913	26.02
773.092	26.88
773.271	26.57
773.449	26.41
773.628	27.22
773.807	28.05
773.986	28.57
774.165	28.35
774.344	28.23
774.523	27.8
774.701	28
774.88	28.28
775.059	28.56
775.238	28.59
775.417	28.63
775.595	28.18
775.774	27.44
775.953	26.94
776.131	27.54
776.31	27.3
776.489	27.08
776.667	26.59
776.846	26.4
777.025	26.74
777.203	26.79
777.382	26.25
777.56	26.79
777.739	27.71
777.917	27.8
778.096	27.62
778.274	27.3
778.453	28.03
778.631	28.87
778.81	29.08
778.988	28.15
779.166	28.62
779.345	29.47
779.523	29.41
779.702	28.51
779.88	28.2
780.058	27.64
780.237	28.06
780.415	27.71
780.593	27.47
780.771	27.86
780.95	28.35
781.128	28.41
781.306	28.65
781.484	28.56
781.662	28.77
781.841	29.08
782.019	28.98
782.197	28.94
782.375	29.24
782.553	28.67
782.731	28.77
782.909	28.78
783.087	28.72
783.265	28.21
783.443	28.59
783.621	29.06
783.799	29.15
783.977	29.45
784.155	29.58
784.333	29.08
784.511	29.49
784.689	28.66
784.867	28.32
785.045	28.39
785.223	28.31
785.4	27.06
785.578	27.03
785.756	27.76
785.934	28.2
786.112	28.61
786.289	28.06
786.467	27.71
786.645	27.69
786.823	27.53
787	26.6
787.178	26.87
787.356	27.05
787.533	26.45
787.711	24.84
787.889	24.9
788.066	24.25
788.244	25.39
788.421	25.71
788.599	26.52
788.776	26.33
788.954	26.75
789.131	26.85
789.309	27.27
789.486	28.02
789.664	28.9
789.841	28.86
790.019	28.36
790.196	27.84
790.373	28.36
790.551	28.23
790.728	28.56
790.906	29.08
791.083	28.38
791.26	28.11
791.437	28.39
791.615	28.51
791.792	29.08
791.969	29.49
792.146	29.51
792.324	28.09
792.501	28.05
792.678	27.81
792.855	28.16
793.032	29.69
793.209	29.66
793.387	28.25
793.564	28
793.741	27.58
793.918	27.53
794.095	28.63
794.272	30.65
794.449	29.51
794.626	29.39
794.803	28.79
794.98	27.7
795.157	27.42
795.334	28.78
795.511	28.75
795.688	29.22
795.864	29.05
796.041	28.7
796.218	28
796.395	29.09
796.572	28.9
796.749	29.46
796.925	29.48
797.102	30.47
797.279	29.85
797.456	29.7
797.632	28.79
797.809	29.02
797.986	29.46
798.162	28.79
798.339	28.28
798.516	29.31
798.692	28.73
798.869	28.03
799.046	27.7
799.222	27.63
799.399	27.77
799.575	28.01
799.752	28.22
799.928	27.99
800.105	28.31
800.281	28.27
800.458	28.14
800.634	28.41
800.811	29.11
800.987	29.55
801.163	29.46
801.34	29.33
801.516	28.46
801.692	28.12
801.869	26.99
802.045	26.66
802.221	26.71
802.398	26.32
802.574	25.07
802.75	24.68
802.926	24.12
803.103	24.05
803.279	23.84
803.455	24.96
803.631	24.43
803.807	26.04
803.983	25.93
804.16	26.7
804.336	26.68
804.512	28.88
804.688	29.86
804.864	29.23
805.04	29.86
805.216	28.07
805.392	28.13
805.568	28.87
805.744	27.04
805.92	27.06
806.096	26.16
806.272	24.96
806.448	22.95
806.623	22.74
806.799	24.11
806.975	23.02
807.151	25.71
807.327	25.77
807.503	24.5
807.678	26.29
807.854	26.49
808.03	26.58
808.206	27.98
808.381	29.07
808.557	27.94
808.733	27.28
808.908	27.63
809.084	26.38
809.26	26.58
809.435	28.62
809.611	27.42
809.787	27.96
809.962	28.2
810.138	28.18
810.313	28
810.489	29.08
810.664	29.33
810.84	28.77
811.015	29.39
811.191	29.15
811.366	28.26
811.542	28.47
811.717	27.22
811.892	27.21
812.068	27.26
812.243	27.38
812.419	27.15
812.594	26.15
812.769	26.98
812.944	25.71
813.12	24.81
813.295	24.3
813.47	24.24
813.645	24.82
813.821	25.37
813.996	24.65
814.171	23
814.346	22.15
814.521	22.18
814.697	21.85
814.872	22.93
815.047	23.77
815.222	24.45
815.397	23.29
815.572	21.6
815.747	19.88
815.922	19.31
816.097	19.85
816.272	20.17
816.447	21.49
816.622	22.16
816.797	21.88
816.972	22.6
817.147	23.47
817.322	24.2
817.496	26.16
817.671	26.74
817.846	27.95
818.021	27.88
818.196	27.17
818.371	26.4
818.545	25.88
818.72	26.43
818.895	25.86
819.069	24.02
819.244	24.39
819.419	24.48
819.594	24.65
819.768	24.09
819.943	24.49
820.117	24.86
820.292	24.61
820.467	25.28
820.641	25.32
820.816	25.03
820.99	25.77
821.165	26.06
821.339	25.91
821.514	26.17
821.688	26.21
821.863	26.12
822.037	26.07
822.212	26.12
822.386	25.88
822.56	25.96
822.735	26.28
822.909	26.27
823.084	26.3
823.258	26.34
823.432	25.97
823.606	26.18
823.781	26.24
823.955	26.75
824.129	26.89
824.303	27.04
824.478	27.3
824.652	26.85
824.826	26.42
825	26.27
825.174	26.37
825.348	26.81
825.523	26.47
825.697	26.88
825.871	26.33
826.045	26.11
826.219	26.35
826.393	25.67
826.567	26.18
826.741	26.89
826.915	26.74
827.089	26.64
827.263	26.67
827.437	26.82
827.611	26.7
827.784	26.55
827.958	26.98
828.132	26.62
828.306	27.09
828.48	27.06
828.654	26.75
828.827	26.62
829.001	26.85
829.175	27.02
829.349	26.36
829.522	26.9
829.696	26.53
829.87	25.93
830.044	25.72
830.217	25.22
830.391	25.4
830.565	25.65
830.738	26.5
830.912	26.17
831.085	24.7
831.259	26.03
831.432	25.14
831.606	26.27
831.779	25.77
831.953	26.32
832.126	26.05
832.3	25.51
832.473	25.27
832.647	24.43
832.82	24.7
832.994	25.6
833.167	25.83
833.34	25.05
833.514	25.43
833.687	26.13
833.86	26.34
834.034	26.39
834.207	26.79
834.38	27.07
834.553	26.89
834.727	26.99
834.9	27.29
835.073	27.08
835.246	27.17
835.419	26.88
835.593	26.16
835.766	25.8
835.939	26.03
836.112	24.36
836.285	23.33
836.458	24.76
836.631	23.37
836.804	22.65
836.977	23.38
837.15	24.59
837.323	24.16
837.496	25.32
837.669	24.08
837.842	23.71
838.015	25.88
838.188	28.15
838.361	27.26
838.533	28.52
838.706	30.12
838.879	29.06
839.052	29.2
839.225	29.52
839.398	30.21
839.57	32.6
839.743	33.23
839.916	32.84
840.088	33.3
840.261	32.7
840.434	33.53
840.607	32
840.779	31.4
840.952	29.72
841.124	29.22
841.297	28.26
841.47	27.06
841.642	26.29
841.815	27.44
841.987	25.54
842.16	23.88
842.332	23.08
842.505	23.05
842.677	22.53
842.85	23.09
843.022	25.07
843.194	23.6
843.367	23.25
843.539	23.36
843.712	20.95
843.884	19.81
844.056	21.21
844.229	19.01
844.401	18.78
844.573	22.84
844.745	23.8
844.918	17.89
845.09	18.77
845.262	21
845.434	21.57
845.606	22.64
845.779	25.2
845.951	27.66
846.123	32.3
846.295	31.89
846.467	31.14
846.639	30.43
846.811	34.75
846.983	34.57
847.155	34.31
847.327	30.87
847.499	29.92
847.671	27.62
847.843	25.95
848.015	24.8
848.187	23.79
848.359	21.35
848.531	19.9
848.703	17.12
848.875	15.22
849.047	13.3
849.218	14.22
849.39	17.56
849.562	18.46
849.734	22.35
849.905	19.58
850.077	22.54
850.249	24.58
850.421	23.5
850.592	27.47
850.764	28.31
850.936	28.5
851.107	27.49
851.279	28.72
851.451	29.61
851.622	23.62
851.794	25.53
851.965	27.54
852.137	26
852.308	28.14
852.48	24.84
852.651	24.92
852.823	25.18
852.994	28.12
853.166	25.46
853.337	27.03
853.509	29.64
853.68	30.3
853.851	27.32
854.023	25.39
854.194	25.61
854.365	27.88
854.537	31.13
854.708	32.38
854.879	31.6
855.05	29.01
855.222	26.13
855.393	23.98
855.564	23.81
855.735	20.58
855.906	22.73
856.078	26.66
856.249	23.36
856.42	23.53
856.591	22.71
856.762	24.98
856.933	25.1
857.104	24.76
857.275	26.63
857.446	26.7
857.617	27.47
857.788	25.51
857.959	20.74
858.13	25.39
858.301	20.54
858.472	19.36
858.643	18.31
858.814	18.97
858.985	16.76
859.155	18.56
859.326	15.72
859.497	17.56
859.668	18.04
859.839	19.66
860.009	16.27
860.18	18.06
860.351	19.48
860.522	20.15
860.692	18.47
860.863	22.16
861.034	23.88
861.204	26.84
861.375	27.91
861.546	27.05
861.716	28.71
861.887	32.33
862.057	33.3
862.228	31.05
862.398	28.11
862.569	30.74
862.739	32.62
862.91	31.03
863.08	29.77
863.251	26.01
863.421	28.29
863.592	26.08
863.762	22.33
863.932	21.37
864.103	19.92
864.273	24.29
864.443	23.41
864.614	19.44
864.784	13.14
864.954	11.84
865.125	15.08
865.295	14.14
865.465	12.33
865.635	12.96
865.805	12
865.976	18.26
866.146	15.06
866.316	16.55
866.486	18.13
866.656	22.24
866.826	22.55
866.996	20.72
867.166	25.58
867.336	19.48
867.506	19.67
867.676	22.64
867.846	20.41
868.016	23.99
868.186	20.2
868.356	21.7
868.526	23.38
868.696	24.86
868.866	25.87
869.036	21.62
869.206	27.57
869.376	25.62
869.545	25.57
869.715	26.28
869.885	26.34
870.055	34.2
870.224	27.91
870.394	24.65
870.564	26.02
870.734	24.99
870.903	24.53
871.073	28.07
871.243	28.62
871.412	24.26
871.582	23.13
871.751	18.15
871.921	11.23
872.091	15.32
872.26	16.28
872.43	14.58
872.599	16.28
872.769	17.87
872.938	14.13
873.108	17.67
873.277	21.06
873.446	19.95
873.616	20.43
873.785	23.29
873.955	19.93
874.124	23.56
874.293	23.33
874.463	26.35
874.632	24.51
874.801	25.55
874.971	19.68
875.14	20.01
875.309	21.13
875.478	24.59
875.647	21.03
875.817	26.25
875.986	26.43
876.155	26.06
876.324	24.41
876.493	24.55
876.662	25.47
876.831	30.53
877	29.68
877.17	30.93
877.339	31.25
877.508	33.08
877.677	30.17
877.846	24.15
878.015	24.38
878.184	22.43
878.352	24.22
878.521	20.11
878.69	17.93
878.859	14.27
879.028	13.6
879.197	14.6
879.366	12.78
879.534	12.97
879.703	16.4
879.872	17.9
880.041	19.04
880.21	19.2
880.378	21.14
880.547	21.77
880.716	24.44
880.884	24.66
881.053	24.89
881.222	25.52
881.39	25.89
881.559	26.48
881.727	27.37
881.896	27
882.065	27.3
882.233	26.98
882.402	26.81
882.57	26.2
882.739	26.17
882.907	25.66
883.076	25.54
883.244	25.76
883.412	24.99
883.581	24.25
883.749	24.49
883.918	23.74
884.086	23.76
884.254	24.2
884.423	24.02
884.591	24.01
884.759	24.12
884.927	24.3
885.096	23.77
885.264	23.12
885.432	23.53
885.6	22.76
885.769	22.75
885.937	23.3
886.105	22.42
886.273	24.17
886.441	23.28
886.609	23.79
886.777	24.56
886.945	25.75
887.113	25.92
887.281	22.78
887.449	25.02
887.617	26.47
887.785	23.4
887.953	24.11
888.121	20.85
888.289	20.26
888.457	19.32
888.625	18.89
888.793	17.27
888.961	18.32
889.129	23.2
889.296	21.8
889.464	20.32
889.632	25.11
889.8	24.63
889.967	28.1
890.135	30.72
