Data from 2938836__Reflection_02.txt Node
Date: Thu Mar 12 11:04:04 EDT 2015
User: robert
Spectrometer: USB4E03002
Autoset integration time: false
Trigger mode: 4
Integration Time (sec): 1.000000E-1
Scans to average: 10
Electric dark correction enabled: false
Nonlinearity correction enabled: false
Boxcar width: 5
Stray light correction enabled: false
XAxis mode: Wavelengths
Stop averaging: false
Number of Pixels in Spectrum: 3648
>>>>>Begin Spectral Data<<<<<
177.575	554.46
177.794	972.06
178.014	947.91
178.233	1039.44
178.452	938.32
178.672	1017.23
178.891	1208.5
179.11	1158.87
179.33	1063.41
179.549	879.59
179.768	863.24
179.987	1774.06
180.207	1611.19
180.426	1793.39
180.645	1245.53
180.864	889.36
181.084	1038.27
181.303	936.9
181.522	996.33
181.741	1430.12
181.96	3004.43
182.179	3154.3
182.398	1809.12
182.618	1231.22
182.837	1115.33
183.056	1396.96
183.275	5715.38
183.494	2885.35
183.713	4019.44
183.932	-16022.22
184.151	13716.13
184.37	1637.35
184.589	3029.1
184.808	2873.94
185.027	3039.55
185.246	8697.83
185.465	-3588.39
185.684	4297.98
185.903	443200
186.122	1413.75
186.341	887.94
186.56	678.24
186.779	691.88
186.998	749.62
187.216	710.56
187.435	678.47
187.654	633.73
187.873	510.27
188.092	640.8
188.311	565.23
188.53	645.01
188.748	646.73
188.967	797.73
189.186	1034.43
189.405	825.13
189.623	744.27
189.842	723.82
190.061	674.07
190.28	653.11
190.498	706.88
190.717	613.52
190.936	649.03
191.154	792.95
191.373	715.18
191.592	679.11
191.81	687.24
192.029	1004.12
192.248	957.09
192.466	1044.88
192.685	1140.38
192.904	745.25
193.122	732.56
193.341	948.43
193.559	741.27
193.778	733.38
193.996	702.09
194.215	794.99
194.433	655.02
194.652	717.54
194.87	1030.75
195.089	1244.14
195.307	1737.6
195.526	3860.5
195.744	5906.25
195.963	-78233.33
196.181	-4224.32
196.399	-2581.42
196.618	-2123.35
196.836	-1173.07
197.055	-1431.56
197.273	-7365.67
197.491	26484.21
197.71	123975
197.928	5159.37
198.146	4099.15
198.365	6748.53
198.583	3941.82
198.801	1851.91
199.019	1215.47
199.238	800.17
199.456	858.8
199.674	888.98
199.892	800
200.111	739.34
200.329	718.81
200.547	627.13
200.765	600.26
200.983	607.16
201.202	738.03
201.42	695.89
201.638	656.95
201.856	735.86
202.074	849.37
202.292	1248.38
202.51	1838.96
202.728	1495.83
202.946	1825.78
203.165	1091.57
203.383	1083
203.601	786.2
203.819	997.47
204.037	1096.42
204.255	830.34
204.473	670.01
204.691	585.98
204.909	568.77
205.127	588.28
205.345	514.54
205.562	552.23
205.78	577.51
205.998	702.43
206.216	563.25
206.434	514.97
206.652	596.31
206.87	675.11
207.088	683.77
207.306	571.05
207.523	525.85
207.741	564.41
207.959	536.48
208.177	477.5
208.395	423.39
208.612	452.31
208.83	451.73
209.048	409.59
209.266	417.66
209.483	357.56
209.701	412.26
209.919	423.28
210.136	448.64
210.354	558.24
210.572	673.94
210.79	709.88
211.007	1011.58
211.225	1386.17
211.442	1508.55
211.66	1180.06
211.878	2476.92
212.095	1426.76
212.313	1221.71
212.53	1173.74
212.748	900.42
212.966	714.57
213.183	610.23
213.401	488.65
213.618	479.92
213.836	495.56
214.053	525.14
214.271	441.6
214.488	468
214.705	551.33
214.923	467.39
215.14	454.02
215.358	461.22
215.575	504.06
215.793	461.23
216.01	494.4
216.227	477.01
216.445	437.06
216.662	515.72
216.879	487.59
217.097	478.09
217.314	456.13
217.531	509.37
217.749	504.84
217.966	469.38
218.183	444.47
218.4	381.37
218.618	388.1
218.835	391.78
219.052	366.4
219.269	361.74
219.487	317.66
219.704	324.58
219.921	273.83
220.138	251.93
220.355	266.24
220.572	274.17
220.79	263.13
221.007	261.95
221.224	248.99
221.441	233.86
221.658	201.08
221.875	192.31
222.092	186.6
222.309	195.11
222.526	217.69
222.743	198.9
222.96	181.6
223.177	185.86
223.394	180.47
223.611	176.21
223.828	170.73
224.045	179.6
224.262	180.79
224.479	174.23
224.696	169.14
224.913	153.43
225.13	143.34
225.347	141.02
225.564	132.24
225.781	121.24
225.997	111.4
226.214	105.41
226.431	94.2
226.648	83.49
226.865	73.58
227.082	66.35
227.298	57.21
227.515	49.07
227.732	41.77
227.949	39.48
228.165	36.51
228.382	34.29
228.599	32.86
228.816	29.8
229.032	29.11
229.249	28.67
229.466	27.6
229.682	27.24
229.899	27.46
230.116	28.98
230.332	29.27
230.549	30.12
230.765	31.4
230.982	31.77
231.199	34.52
231.415	35.22
231.632	36.89
231.848	39.41
232.065	40.83
232.281	44.98
232.498	45.87
232.714	48.1
232.931	49.78
233.147	50.81
233.364	51.42
233.58	49.98
233.797	50.63
234.013	49.26
234.23	47.71
234.446	47.99
234.662	46.1
234.879	47.82
235.095	46.25
235.312	44.05
235.528	43.7
235.744	44.17
235.961	45.59
236.177	44.94
236.393	45.37
236.61	45.67
236.826	47.21
237.042	49.91
237.258	49.09
237.475	48.9
237.691	51.24
237.907	52.12
238.123	52.9
238.339	52.92
238.556	53.55
238.772	53
238.988	51.49
239.204	48.65
239.42	45.1
239.636	42.07
239.853	40.79
240.069	39.17
240.285	36.07
240.501	33.4
240.717	29.92
240.933	27.16
241.149	25.96
241.365	25.53
241.581	24.46
241.797	22.92
242.013	21.81
242.229	20.58
242.445	19.57
242.661	19.42
242.877	19.31
243.093	19.32
243.309	19.78
243.525	19.66
243.741	19.89
243.957	20.9
244.173	21.98
244.388	23.8
244.604	24.58
244.82	24.86
245.036	23.96
245.252	23.59
245.468	21.96
245.683	20.64
245.899	19.15
246.115	17.69
246.331	16.01
246.547	14.93
246.762	13.78
246.978	13.15
247.194	12.76
247.409	12.7
247.625	12.08
247.841	12.35
248.057	12.82
248.272	13.02
248.488	13.59
248.703	14.06
248.919	14.8
249.135	16.01
249.35	17.45
249.566	18.23
249.782	20.21
249.997	22.29
250.213	23.18
250.428	23.01
250.644	24.12
250.859	24.07
251.075	24.81
251.29	24.4
251.506	23.6
251.721	22.94
251.937	22.53
252.152	21.42
252.368	20.54
252.583	21.14
252.798	22
253.014	22.14
253.229	22.76
253.445	23.41
253.66	23.94
253.875	24.19
254.091	24.9
254.306	26.61
254.521	27.52
254.737	29.06
254.952	29.06
255.167	29.41
255.383	29.74
255.598	30.02
255.813	29.52
256.028	30.32
256.244	30.82
256.459	30.72
256.674	29.78
256.889	28.88
257.104	26.76
257.32	25.67
257.535	23.48
257.75	21.68
257.965	19.45
258.18	18.19
258.395	16.44
258.61	14.84
258.826	13.43
259.041	12.88
259.256	12.13
259.471	11.44
259.686	10.95
259.901	10.81
260.116	10.63
260.331	10.67
260.546	10.8
260.761	10.77
260.976	11.02
261.191	11.69
261.406	11.68
261.621	12.3
261.836	13.21
262.05	14.13
262.265	14.94
262.48	15.74
262.695	16.26
262.91	16.45
263.125	17.86
263.34	18.64
263.555	18.96
263.769	19.93
263.984	20.47
264.199	21.59
264.414	21.43
264.629	21.88
264.843	21.73
265.058	22.01
265.273	22.11
265.488	21.08
265.702	20.63
265.917	19.74
266.132	18.79
266.346	18.46
266.561	17.52
266.776	17.08
266.99	16.19
267.205	15.8
267.42	15.23
267.634	14.81
267.849	14.98
268.063	14.95
268.278	14.83
268.492	15
268.707	14.91
268.922	15.13
269.136	15.5
269.351	15.58
269.565	15.75
269.78	15.27
269.994	15.45
270.209	15.44
270.423	15.27
270.637	15.28
270.852	14.55
271.066	14.08
271.281	13.63
271.495	13.38
271.709	13.07
271.924	12.77
272.138	13.05
272.353	12.81
272.567	12.5
272.781	12.34
272.996	12.37
273.21	12.67
273.424	12.87
273.638	13.11
273.853	13.2
274.067	13.95
274.281	14.67
274.495	14.77
274.71	15.01
274.924	15.37
275.138	15.71
275.352	15.97
275.566	16.43
275.781	16.29
275.995	16.47
276.209	16.94
276.423	16.64
276.637	16.74
276.851	16.8
277.065	16.53
277.279	16.61
277.493	16.34
277.707	16.52
277.921	16.51
278.135	16.9
278.349	16.61
278.563	15.87
278.777	15.85
278.991	15.54
279.205	15.86
279.419	15.9
279.633	15.94
279.847	16.2
280.061	15.5
280.275	14.91
280.489	14.51
280.703	14.25
280.917	13.9
281.131	13.75
281.344	13.41
281.558	13.24
281.772	13.25
281.986	12.84
282.2	12.42
282.414	12.56
282.627	12.7
282.841	12.38
283.055	12.4
283.269	12.65
283.482	12.51
283.696	12
283.91	11.31
284.123	10.83
284.337	10.56
284.551	10.49
284.764	10.68
284.978	10.65
285.192	10.48
285.405	10.25
285.619	10.01
285.833	10.02
286.046	10.17
286.26	10.63
286.473	10.66
286.687	11.16
286.9	11.11
287.114	11.08
287.327	11.34
287.541	11.81
287.754	12.27
287.968	12.7
288.181	12.87
288.395	13.03
288.608	13.03
288.822	13
289.035	12.91
289.248	13.14
289.462	13.11
289.675	12.55
289.889	12.42
290.102	11.9
290.315	11.67
290.529	11.54
290.742	11.7
290.955	11.54
291.169	11.68
291.382	11.56
291.595	11.9
291.808	11.86
292.022	12.07
292.235	12
292.448	12.25
292.661	12.29
292.875	12.4
293.088	12.47
293.301	12.5
293.514	12.46
293.727	12.37
293.94	11.95
294.153	11.66
294.367	12.02
294.58	11.79
294.793	12
295.006	12.11
295.219	11.8
295.432	11.56
295.645	11.22
295.858	10.85
296.071	10.63
296.284	10.31
296.497	10.36
296.71	9.87
296.923	10.15
297.136	10.01
297.349	9.85
297.562	9.84
297.775	9.9
297.988	10.22
298.201	10.72
298.414	10.94
298.626	11.31
298.839	11.39
299.052	11.92
299.265	11.81
299.478	11.76
299.691	12.09
299.903	12.39
300.116	12.32
300.329	12.47
300.542	12.44
300.755	12.55
300.967	12.78
301.18	12.79
301.393	12.61
301.605	13.29
301.818	13.55
302.031	13.73
302.243	13.71
302.456	14.03
302.669	14.2
302.881	14.06
303.094	13.94
303.307	13.87
303.519	14.04
303.732	14.03
303.944	13.84
304.157	13.8
304.37	13.44
304.582	13.97
304.795	13.89
305.007	13.99
305.22	14.55
305.432	14.53
305.645	14.49
305.857	14.98
306.069	14.95
306.282	14.75
306.494	14.91
306.707	15.21
306.919	14.89
307.132	15.06
307.344	14.86
307.556	14.41
307.769	15.02
307.981	14.85
308.193	14.27
308.406	14.39
308.618	14.44
308.83	14.23
309.043	13.89
309.255	13.69
309.467	13.55
309.679	13.68
309.892	13.85
310.104	13.26
310.316	13.21
310.528	13.13
310.74	12.83
310.953	12.9
311.165	13.08
311.377	12.97
311.589	13.14
311.801	13.15
312.013	12.98
312.225	12.97
312.437	13.45
312.649	13.8
312.862	13.75
313.074	14.14
313.286	13.91
313.498	13.95
313.71	14.34
313.922	14.51
314.134	14.55
314.346	14.91
314.558	15.25
314.77	15.24
314.982	15.18
315.193	15.38
315.405	15.47
315.617	15.82
315.829	16.17
316.041	16.59
316.253	16.45
316.465	16.77
316.677	16.51
316.888	16.33
317.1	16.24
317.312	16.15
317.524	16.64
317.736	17.32
317.947	17.73
318.159	18.09
318.371	17.91
318.583	17.98
318.794	17.8
319.006	18.34
319.218	18.73
319.43	19.08
319.641	19.45
319.853	19.55
320.064	19.51
320.276	19.49
320.488	19.46
320.699	19.6
320.911	20.16
321.123	21.08
321.334	21.4
321.546	21.53
321.757	21.71
321.969	22.08
322.18	21.94
322.392	21.68
322.603	21.58
322.815	21.46
323.026	21.73
323.238	21.32
323.449	20.63
323.661	20.09
323.872	20.02
324.083	19.82
324.295	19.54
324.506	19.53
324.718	19.61
324.929	19.94
325.14	19.53
325.352	19.71
325.563	20.08
325.774	20.46
325.986	20.59
326.197	20.95
326.408	21.24
326.62	21.38
326.831	21.89
327.042	22.01
327.253	22.18
327.464	22.99
327.676	22.9
327.887	23.06
328.098	23.45
328.309	23.96
328.52	23.98
328.732	24.48
328.943	25.21
329.154	25.23
329.365	25.83
329.576	26.05
329.787	26.43
329.998	27.54
330.209	28.18
330.42	28.77
330.631	29.23
330.842	29.92
331.053	29.95
331.264	29.44
331.475	29.96
331.686	29.99
331.897	30.27
332.108	29.75
332.319	29.25
332.53	29.1
332.741	28.66
332.952	28.5
333.163	27.93
333.374	28.04
333.585	28.54
333.795	28.77
334.006	28.98
334.217	29.09
334.428	29.82
334.639	29.88
334.849	29.69
335.06	29.81
335.271	30.26
335.482	30.54
335.692	30.57
335.903	30.5
336.114	30.17
336.325	30.19
336.535	29.86
336.746	29.51
336.957	29.54
337.167	30.08
337.378	30.46
337.589	30.43
337.799	30.28
338.01	30.52
338.22	30.56
338.431	30.64
338.642	30.64
338.852	30.6
339.063	30.94
339.273	30.9
339.484	30.88
339.694	30.3
339.905	30.12
340.115	30.44
340.326	30.2
340.536	30.13
340.746	29.77
340.957	29.7
341.167	29.58
341.378	29.36
341.588	29.39
341.799	29.1
342.009	29.2
342.219	29.15
342.43	29.05
342.64	29.32
342.85	29.44
343.061	29.76
343.271	29.81
343.481	30.04
343.691	29.96
343.902	29.7
344.112	29.75
344.322	29.71
344.532	29.62
344.743	29.52
344.953	29.26
345.163	29.41
345.373	29.39
345.583	29.24
345.793	29.12
346.004	29.16
346.214	29.25
346.424	29.21
346.634	29.17
346.844	29.16
347.054	29.12
347.264	29.32
347.474	28.94
347.684	28.78
347.894	28.86
348.104	29.27
348.314	29.04
348.524	29.21
348.734	29.6
348.944	29.42
349.154	29.51
349.364	29.57
349.574	29.5
349.784	29.66
349.994	29.68
350.204	29.65
350.413	29.29
350.623	29.67
350.833	29.12
351.043	28.81
351.253	29.24
351.463	29.52
351.672	29.34
351.882	29.25
352.092	29.29
352.302	29.41
352.511	29.39
352.721	29.38
352.931	29.08
353.141	29.44
353.35	29.36
353.56	29.1
353.77	28.13
353.979	28.19
354.189	27.85
354.399	27.57
354.608	27.47
354.818	27.43
355.027	27.23
355.237	27.2
355.447	27.01
355.656	26.68
355.866	26.21
356.075	26.82
356.285	26.74
356.494	26.44
356.704	26.36
356.913	25.93
357.123	25.65
357.332	25.69
357.542	25.39
357.751	25.26
357.96	25.12
358.17	25.3
358.379	24.94
358.589	24.78
358.798	25.04
359.007	25.1
359.217	25.36
359.426	25.1
359.635	24.94
359.845	24.78
360.054	24.88
360.263	24.8
360.472	24.6
360.682	24.55
360.891	24.46
361.1	24.29
361.309	24.18
361.519	24.03
361.728	24.14
361.937	24.16
362.146	24.33
362.355	24.27
362.564	24.71
362.774	24.65
362.983	24.58
363.192	24.48
363.401	24.59
363.61	24.58
363.819	24.78
364.028	24.81
364.237	24.66
364.446	24.68
364.655	24.52
364.864	24.18
365.073	24.51
365.282	24.51
365.491	24.89
365.7	24.91
365.909	24.97
366.118	24.76
366.327	24.84
366.536	25.05
366.745	25.14
366.954	25.3
367.162	25.34
367.371	25.41
367.58	25.64
367.789	25.67
367.998	25.33
368.207	25.59
368.415	25.7
368.624	25.69
368.833	25.85
369.042	26.12
369.25	26.23
369.459	26.19
369.668	26.15
369.877	25.89
370.085	25.44
370.294	25.71
370.503	25.24
370.711	25.29
370.92	25.36
371.129	25.25
371.337	24.85
371.546	24.8
371.754	24.95
371.963	24.66
372.171	24.78
372.38	25.04
372.589	25.21
372.797	25.45
373.006	25.11
373.214	24.97
373.423	24.89
373.631	24.93
373.84	24.86
374.048	24.83
374.256	24.94
374.465	25.12
374.673	24.99
374.882	24.62
375.09	24.64
375.298	24.81
375.507	24.63
375.715	24.42
375.923	24.53
376.132	24.62
376.34	24.16
376.548	23.89
376.757	23.65
376.965	23.59
377.173	23.74
377.381	23.46
377.59	23.53
377.798	23.72
378.006	23.65
378.214	23.51
378.423	23.49
378.631	23.62
378.839	23.63
379.047	23.5
379.255	23.56
379.463	23.56
379.671	23.81
379.879	23.83
380.088	23.97
380.296	24.27
380.504	24.38
380.712	24.3
380.92	24.49
381.128	24.83
381.336	24.99
381.544	24.95
381.752	24.93
381.96	24.82
382.168	24.69
382.376	24.66
382.584	24.63
382.791	24.6
382.999	24.63
383.207	24.54
383.415	24.38
383.623	24.37
383.831	24.34
384.039	24.44
384.247	24.37
384.454	24.44
384.662	24.31
384.87	24.18
385.078	24.28
385.285	24.09
385.493	24.14
385.701	24.04
385.909	23.99
386.116	23.85
386.324	23.83
386.532	23.91
386.739	23.76
386.947	23.82
387.155	23.99
387.362	23.76
387.57	24.06
387.778	24.12
387.985	24.25
388.193	24.37
388.4	24.49
388.608	24.72
388.816	24.7
389.023	24.82
389.231	24.4
389.438	24.17
389.646	24.13
389.853	23.98
390.061	23.68
390.268	23.76
390.475	23.7
390.683	23.63
390.89	23.09
391.098	22.99
391.305	22.8
391.512	23.04
391.72	23
391.927	23.05
392.135	23.05
392.342	22.98
392.549	22.89
392.756	22.88
392.964	22.85
393.171	22.97
393.378	23.12
393.586	23.11
393.793	23.21
394	23.22
394.207	23.23
394.414	23.21
394.622	23.39
394.829	23.31
395.036	23.28
395.243	23.52
395.45	23.52
395.657	23.54
395.864	23.77
396.072	23.77
396.279	23.79
396.486	23.9
396.693	24
396.9	24.02
397.107	24.16
397.314	24.19
397.521	24.17
397.728	24.39
397.935	24.27
398.142	24.19
398.349	24.07
398.556	24.15
398.763	24.13
398.97	23.99
399.177	24.1
399.383	24.34
399.59	24.31
399.797	24.27
400.004	24.18
400.211	24.31
400.418	24.41
400.625	24.64
400.831	24.81
401.038	24.63
401.245	24.76
401.452	24.79
401.658	24.64
401.865	24.87
402.072	24.9
402.279	24.98
402.485	25.09
402.692	25.03
402.899	24.72
403.105	24.49
403.312	24.67
403.519	24.76
403.725	24.5
403.932	24.43
404.138	24.16
404.345	24.07
404.552	24.01
404.758	23.88
404.965	23.91
405.171	23.92
405.378	24.14
405.584	24.15
405.791	24.03
405.997	24.31
406.204	24.35
406.41	24.58
406.617	24.75
406.823	24.73
407.029	24.83
407.236	24.79
407.442	25.13
407.649	25.25
407.855	25.3
408.061	25.21
408.268	25.24
408.474	25.45
408.68	25.29
408.887	25.23
409.093	25.3
409.299	25.29
409.505	25.29
409.712	25.23
409.918	25.02
410.124	25.02
410.33	25.27
410.537	25.21
410.743	25.12
410.949	25.3
411.155	25.35
411.361	25.34
411.567	25.39
411.773	25.47
411.98	25.55
412.186	25.62
412.392	25.69
412.598	25.56
412.804	25.64
413.01	25.64
413.216	25.57
413.422	25.66
413.628	25.79
413.834	25.78
414.04	25.78
414.246	25.82
414.452	25.77
414.658	25.86
414.864	25.99
415.07	26.02
415.275	26.04
415.481	26.01
415.687	25.87
415.893	25.77
416.099	25.73
416.305	25.6
416.511	25.42
416.716	25.35
416.922	25.09
417.128	24.97
417.334	24.92
417.539	24.76
417.745	24.81
417.951	24.84
418.157	24.82
418.362	24.83
418.568	24.93
418.774	24.91
418.979	24.93
419.185	24.91
419.391	24.89
419.596	24.7
419.802	24.7
420.008	24.63
420.213	25.17
420.419	25.19
420.624	25.12
420.83	25.01
421.035	24.94
421.241	24.95
421.446	24.96
421.652	24.94
421.857	25.09
422.063	25.15
422.268	25.14
422.474	24.58
422.679	24.6
422.885	24.63
423.09	24.66
423.295	24.68
423.501	24.65
423.706	24.64
423.911	24.67
424.117	24.64
424.322	24.68
424.527	24.69
424.733	24.76
424.938	24.75
425.143	24.79
425.349	24.86
425.554	24.91
425.759	24.98
425.964	25.08
426.169	25.17
426.375	25.25
426.58	25.15
426.785	25.38
426.99	25.45
427.195	25.51
427.4	25.56
427.605	25.79
427.811	25.92
428.016	25.88
428.221	25.89
428.426	25.91
428.631	26.02
428.836	26.31
429.041	26.45
429.246	26.59
429.451	26.56
429.656	26.71
429.861	26.63
430.066	26.72
430.271	26.9
430.476	26.92
430.681	27.06
430.886	27.07
431.09	27.08
431.295	26.9
431.5	26.73
431.705	26.8
431.91	26.68
432.115	26.69
432.32	26.72
432.524	26.7
432.729	26.75
432.934	26.62
433.139	26.64
433.343	26.54
433.548	26.57
433.753	26.63
433.958	26.75
434.162	26.79
434.367	26.76
434.572	26.75
434.776	26.67
434.981	26.76
435.186	26.86
435.39	26.87
435.595	27.03
435.799	26.95
436.004	27.11
436.209	27.02
436.413	27.11
436.618	27.04
436.822	27.12
437.027	27.31
437.231	27.33
437.436	27.34
437.64	27.44
437.845	27.34
438.049	27.38
438.253	27.28
438.458	27.3
438.662	27.34
438.867	27.33
439.071	27.25
439.275	27.16
439.48	27.07
439.684	26.89
439.888	26.74
440.093	26.68
440.297	26.68
440.501	26.67
440.706	26.56
440.91	26.5
441.114	26.46
441.318	26.48
441.523	26.56
441.727	26.57
441.931	26.69
442.135	26.76
442.339	26.84
442.543	26.94
442.748	26.94
442.952	27.13
443.156	27.11
443.36	27.35
443.564	27.35
443.768	27.3
443.972	27.35
444.176	27.32
444.38	27.3
444.584	27.26
444.788	27.16
444.992	27.16
445.196	27.06
445.4	26.98
445.604	26.83
445.808	26.83
446.012	26.77
446.216	26.73
446.42	26.72
446.624	26.64
446.828	26.64
447.032	26.67
447.235	26.71
447.439	26.71
447.643	26.75
447.847	26.82
448.051	26.81
448.254	26.83
448.458	26.85
448.662	26.92
448.866	27.05
449.069	27.1
449.273	27.06
449.477	26.99
449.681	27.02
449.884	27.11
450.088	27.26
450.292	27.36
450.495	27.42
450.699	27.56
450.902	27.62
451.106	27.73
451.31	27.81
451.513	27.92
451.717	27.93
451.92	28.03
452.124	28
452.327	27.92
452.531	27.94
452.734	27.87
452.938	27.8
453.141	27.8
453.345	27.75
453.548	27.63
453.752	27.51
453.955	27.62
454.158	27.54
454.362	27.63
454.565	27.56
454.769	27.65
454.972	27.78
455.175	27.68
455.379	27.6
455.582	27.7
455.785	27.84
455.988	28.06
456.192	28.09
456.395	28.15
456.598	28.14
456.801	28.13
457.005	28.06
457.208	28.18
457.411	28.31
457.614	28.4
457.817	28.23
458.021	28.05
458.224	27.92
458.427	27.77
458.63	27.74
458.833	27.63
459.036	27.53
459.239	27.41
459.442	27.29
459.645	27.18
459.848	27.06
460.051	26.97
460.254	27.01
460.457	26.94
460.66	26.89
460.863	26.87
461.066	26.89
461.269	26.97
461.472	26.97
461.675	27.03
461.878	27.08
462.081	27.15
462.284	27.25
462.486	27.18
462.689	27.18
462.892	27.38
463.095	27.44
463.298	27.57
463.5	27.65
463.703	27.77
463.906	27.83
464.109	27.9
464.311	27.88
464.514	28.02
464.717	28.2
464.92	28.37
465.122	28.36
465.325	28.42
465.528	28.4
465.73	28.41
465.933	28.32
466.135	28.16
466.338	28.18
466.541	28.24
466.743	28.17
466.946	28.04
467.148	27.98
467.351	27.97
467.553	27.9
467.756	27.87
467.958	27.92
468.161	27.88
468.363	28.02
468.566	27.99
468.768	27.96
468.971	27.92
469.173	28.11
469.375	28.1
469.578	28.1
469.78	28.17
469.983	28.13
470.185	28.03
470.387	28.11
470.59	28.06
470.792	28.16
470.994	28.16
471.196	28.18
471.399	28.08
471.601	28.07
471.803	28.19
472.005	28.08
472.208	28.07
472.41	28.11
472.612	28.03
472.814	28.03
473.016	28.02
473.218	28.13
473.421	28.08
473.623	28.04
473.825	28.01
474.027	27.87
474.229	28.03
474.431	28.04
474.633	28.05
474.835	28.12
475.037	28.06
475.239	28.05
475.441	28
475.643	28.01
475.845	27.96
476.047	28
476.249	28.01
476.451	27.89
476.653	27.84
476.855	27.78
477.057	27.84
477.258	27.82
477.46	27.63
477.662	27.6
477.864	27.56
478.066	27.62
478.268	27.54
478.469	27.47
478.671	27.48
478.873	27.46
479.075	27.42
479.276	27.36
479.478	27.37
479.68	27.48
479.882	27.52
480.083	27.6
480.285	27.58
480.487	27.67
480.688	27.66
480.89	27.64
481.091	27.58
481.293	27.54
481.495	27.46
481.696	27.31
481.898	27.16
482.099	27.01
482.301	26.9
482.502	26.73
482.704	26.6
482.905	26.53
483.107	26.42
483.308	26.35
483.51	26.27
483.711	26.19
483.913	26.17
484.114	26.13
484.315	26.05
484.517	25.98
484.718	25.97
484.92	25.93
485.121	25.89
485.322	25.87
485.524	25.91
485.725	25.95
485.926	25.95
486.127	25.98
486.329	26.02
486.53	26.07
486.731	26.13
486.932	26.15
487.134	26.24
487.335	26.26
487.536	26.23
487.737	26.21
487.938	26.16
488.139	26.22
488.341	26.14
488.542	26.12
488.743	26.13
488.944	26.14
489.145	26.17
489.346	26.1
489.547	26.13
489.748	26.2
489.949	26.21
490.15	26.31
490.351	26.34
490.552	26.42
490.753	26.45
490.954	26.43
491.155	26.45
491.356	26.46
491.557	26.5
491.758	26.51
491.959	26.51
492.159	26.52
492.36	26.51
492.561	26.47
492.762	26.57
492.963	26.62
493.164	26.73
493.364	26.72
493.565	26.73
493.766	26.78
493.967	26.81
494.167	26.89
494.368	27.04
494.569	27.12
494.769	27.31
494.97	27.35
495.171	27.39
495.371	27.5
495.572	27.68
495.773	27.78
495.973	27.85
496.174	27.91
496.375	28.03
496.575	28.03
496.776	28.06
496.976	27.97
497.177	27.9
497.377	27.87
497.578	27.83
497.778	27.77
497.979	27.75
498.179	27.78
498.38	27.73
498.58	27.67
498.78	27.71
498.981	27.7
499.181	27.73
499.382	27.85
499.582	27.96
499.782	28
499.983	28.06
500.183	28.16
500.383	28.27
500.584	28.31
500.784	28.39
500.984	28.45
501.184	28.51
501.385	28.57
501.585	28.63
501.785	28.65
501.985	28.76
502.185	28.69
502.386	28.68
502.586	28.6
502.786	28.7
502.986	28.77
503.186	28.79
503.386	28.84
503.586	28.9
503.786	28.89
503.987	28.96
504.187	29.02
504.387	29.17
504.587	29.29
504.787	29.36
504.987	29.41
505.187	29.34
505.387	29.38
505.587	29.39
505.786	29.51
505.986	29.54
506.186	29.59
506.386	29.56
506.586	29.6
506.786	29.61
506.986	29.67
507.186	29.68
507.386	29.69
507.585	29.67
507.785	29.71
507.985	29.68
508.185	29.67
508.384	29.6
508.584	29.61
508.784	29.61
508.984	29.61
509.183	29.64
509.383	29.65
509.583	29.87
509.782	29.99
509.982	30.05
510.182	30.03
510.381	30.03
510.581	30.19
510.781	30.22
510.98	30.19
511.18	30.18
511.379	30.12
511.579	30.2
511.778	30.19
511.978	30.2
512.177	30.13
512.377	30.16
512.576	30.25
512.776	30.19
512.975	30.23
513.175	30.36
513.374	30.47
513.573	30.56
513.773	30.63
513.972	30.53
514.172	30.57
514.371	30.75
514.57	30.84
514.77	30.9
514.969	30.96
515.168	31.11
515.367	31.07
515.567	31
515.766	31
515.965	30.97
516.164	31.08
516.364	30.98
516.563	30.96
516.762	30.98
516.961	30.93
517.16	30.93
517.359	30.79
517.559	30.82
517.758	30.89
517.957	30.83
518.156	30.79
518.355	30.76
518.554	30.83
518.753	30.77
518.952	30.75
519.151	30.78
519.35	30.8
519.549	30.87
519.748	30.95
519.947	30.99
520.146	31.03
520.345	31.21
520.544	31.38
520.743	31.35
520.942	31.4
521.141	31.5
521.339	31.61
521.538	31.66
521.737	31.72
521.936	31.75
522.135	31.81
522.333	32.01
522.532	31.95
522.731	31.9
522.93	32.04
523.129	32.33
523.327	32.34
523.526	32.42
523.725	32.54
523.923	32.54
524.122	32.55
524.321	32.6
524.519	32.5
524.718	32.54
524.917	32.5
525.115	32.42
525.314	32.24
525.512	32.25
525.711	32.21
525.909	32.14
526.108	32.16
526.306	32.14
526.505	32.12
526.703	32.17
526.902	32.11
527.1	32.12
527.299	32.15
527.497	32.17
527.696	32.21
527.894	32.18
528.092	32.13
528.291	32.11
528.489	32.14
528.688	32.09
528.886	32.06
529.084	32.08
529.283	32.06
529.481	32.09
529.679	32.1
529.877	32.07
530.076	32.09
530.274	32.18
530.472	32.23
530.67	32.27
530.869	32.4
531.067	32.55
531.265	32.65
531.463	32.78
531.661	32.81
531.859	32.87
532.057	32.95
532.255	33.03
532.454	33.05
532.652	33
532.85	33
533.048	33.03
533.246	33.05
533.444	33.08
533.642	33.1
533.84	33.16
534.038	33.25
534.236	33.28
534.434	33.32
534.632	33.38
534.83	33.53
535.027	33.64
535.225	33.62
535.423	33.6
535.621	33.64
535.819	33.73
536.017	33.81
536.215	33.85
536.412	33.84
536.61	33.84
536.808	33.83
537.006	33.9
537.203	33.93
537.401	34.09
537.599	34.19
537.797	34.24
537.994	34.32
538.192	34.35
538.39	34.41
538.587	34.6
538.785	34.74
538.983	34.93
539.18	34.99
539.378	34.97
539.575	34.91
539.773	34.86
539.97	34.96
540.168	34.97
540.366	34.91
540.563	34.8
540.761	34.77
540.958	34.73
541.155	34.67
541.353	34.66
541.55	34.64
541.748	34.65
541.945	34.62
542.143	34.53
542.34	34.48
542.537	34.54
542.735	34.56
542.932	34.55
543.129	34.54
543.327	34.59
543.524	34.69
543.721	34.82
543.919	34.91
544.116	35.12
544.313	35.36
544.51	35.46
544.708	35.54
544.905	35.74
545.102	35.93
545.299	36.14
545.496	36.25
545.693	36.29
545.891	36.34
546.088	36.31
546.285	36.28
546.482	36.23
546.679	36.22
546.876	36.16
547.073	36.14
547.27	36.08
547.467	36.06
547.664	36.02
547.861	36.04
548.058	35.95
548.255	36.17
548.452	36.24
548.649	36.33
548.846	36.46
549.043	36.52
549.24	36.65
549.437	36.74
549.633	36.83
549.83	36.91
550.027	36.9
550.224	36.99
550.421	37
550.618	37.02
550.814	37.02
551.011	36.97
551.208	37.19
551.405	37.26
551.601	37.23
551.798	37.23
551.995	37.17
552.191	37.15
552.388	37.18
552.585	37.1
552.781	37.04
552.978	36.96
553.175	36.95
553.371	36.81
553.568	36.76
553.764	36.86
553.961	36.83
554.157	36.85
554.354	36.9
554.55	37.07
554.747	37.15
554.943	37.25
555.14	37.46
555.336	37.49
555.533	37.7
555.729	37.74
555.926	37.73
556.122	37.81
556.318	37.94
556.515	37.86
556.711	37.79
556.907	37.78
557.104	37.89
557.3	37.72
557.496	37.9
557.693	37.75
557.889	37.76
558.085	37.69
558.281	37.61
558.478	37.68
558.674	37.85
558.87	37.94
559.066	37.94
559.262	37.97
559.459	38.07
559.655	38
559.851	38.12
560.047	38.25
560.243	38.46
560.439	38.52
560.635	38.4
560.831	38.4
561.027	38.39
561.223	38.29
561.419	38.2
561.615	38.09
561.811	38.25
562.007	38.24
562.203	38.24
562.399	38.16
562.595	38.18
562.791	38.29
562.987	38.29
563.183	38.28
563.379	38.46
563.575	38.57
563.771	38.71
563.966	38.63
564.162	38.59
564.358	38.44
564.554	38.28
564.75	38.27
564.945	38.24
565.141	38.25
565.337	38.11
565.533	38.13
565.728	38.02
565.924	37.98
566.12	38.03
566.315	38.1
566.511	38.07
566.707	38.27
566.902	38.2
567.098	38.12
567.293	38.12
567.489	38.21
567.684	38.13
567.88	38.13
568.076	38.22
568.271	38.22
568.467	38.27
568.662	38.36
568.858	38.25
569.053	38.47
569.248	38.65
569.444	38.7
569.639	38.75
569.835	38.86
570.03	38.94
570.225	38.96
570.421	38.85
570.616	38.77
570.812	38.74
571.007	38.68
571.202	38.5
571.397	38.4
571.593	38.29
571.788	38.39
571.983	38.32
572.178	38.35
572.374	38.32
572.569	38.34
572.764	38.39
572.959	38.43
573.154	38.56
573.35	38.52
573.545	38.67
573.74	38.61
573.935	38.44
574.13	38.46
574.325	38.42
574.52	38.44
574.715	38.56
574.91	38.64
575.105	38.55
575.3	38.53
575.495	38.71
575.69	38.64
575.885	38.86
576.08	39.1
576.275	39.17
576.47	39.3
576.665	39.35
576.86	39.32
577.055	39.3
577.25	39.46
577.444	39.61
577.639	39.64
577.834	39.66
578.029	39.69
578.224	39.59
578.418	39.85
578.613	39.75
578.808	39.74
579.003	39.74
579.197	39.81
579.392	39.88
579.587	39.9
579.781	39.9
579.976	40
580.171	40.04
580.365	40.1
580.56	39.84
580.755	39.9
580.949	40.09
581.144	40.29
581.338	40.18
581.533	40.39
581.727	40.38
581.922	40.43
582.116	40.35
582.311	40.5
582.505	40.42
582.7	40.34
582.894	40.56
583.089	40.55
583.283	40.57
583.478	40.78
583.672	40.76
583.866	40.76
584.061	40.84
584.255	40.98
584.449	40.94
584.644	41.15
584.838	41.45
585.032	41.43
585.226	41.46
585.421	41.5
585.615	41.44
585.809	41.49
586.003	41.68
586.198	41.65
586.392	41.68
586.586	41.67
586.78	41.62
586.974	41.65
587.168	41.65
587.363	41.67
587.557	41.53
587.751	41.57
587.945	41.53
588.139	41.45
588.333	41.39
588.527	41.51
588.721	41.58
588.915	41.57
589.109	41.52
589.303	41.43
589.497	41.33
589.691	41.36
589.885	41.32
590.079	41.34
590.273	41.36
590.466	41.57
590.66	41.48
590.854	41.5
591.048	41.58
591.242	41.51
591.436	41.76
591.629	42.01
591.823	42.13
592.017	42.35
592.211	42.45
592.404	42.46
592.598	42.42
592.792	42.45
592.986	42.3
593.179	42.25
593.373	42.35
593.567	42.09
593.76	42.03
593.954	42.02
594.147	42.1
594.341	41.87
594.535	41.76
594.728	41.78
594.922	41.79
595.115	41.82
595.309	41.8
595.502	41.9
595.696	41.93
595.889	41.86
596.083	41.8
596.276	41.67
596.47	41.7
596.663	41.69
596.856	41.61
597.05	41.6
597.243	41.68
597.437	41.74
597.63	41.69
597.823	41.67
598.017	41.6
598.21	41.83
598.403	41.85
598.596	42.09
598.79	42.2
598.983	42.42
599.176	42.38
599.369	42.47
599.563	42.51
599.756	42.54
599.949	42.77
600.142	43.05
600.335	43.05
600.528	43.16
600.722	43.04
600.915	43.16
601.108	43.05
601.301	43.18
601.494	43.23
601.687	43.33
601.88	43.43
602.073	43.25
602.266	43
602.459	42.85
602.652	42.66
602.845	42.67
603.038	42.69
603.231	42.72
603.424	42.65
603.617	42.55
603.809	42.4
604.002	42.27
604.195	42.33
604.388	42.44
604.581	42.46
604.774	42.55
604.966	42.51
605.159	42.46
605.352	42.32
605.545	42.47
605.737	42.54
605.93	42.76
606.123	42.92
606.316	43.04
606.508	43.12
606.701	43.29
606.894	43.58
607.086	43.64
607.279	43.78
607.471	44.01
607.664	44.02
607.857	44.23
608.049	44.29
608.242	44.54
608.434	44.74
608.627	44.97
608.819	45.15
609.012	45.28
609.204	45.81
609.397	46.27
609.589	46.79
609.782	47.37
609.974	47.81
610.166	48.39
610.359	48.92
610.551	49.32
610.743	49.68
610.936	50.12
611.128	50.44
611.32	50.78
611.513	50.98
611.705	51.12
611.897	51.22
612.09	51.19
612.282	50.96
612.474	50.62
612.666	50.79
612.858	50.87
613.051	50.76
613.243	50.78
613.435	50.42
613.627	50.05
613.819	50.04
614.011	50.15
614.203	50.25
614.395	50.19
614.588	50.07
614.78	49.62
614.972	49.4
615.164	48.87
615.356	48.48
615.548	48.31
615.74	48.38
615.932	48.03
616.124	47.39
616.315	47.15
616.507	47.03
616.699	47.19
616.891	47.25
617.083	47.24
617.275	47.35
617.467	47.34
617.659	47.36
617.85	47.35
618.042	47.4
618.234	47.37
618.426	47.25
618.618	47.41
618.809	47.25
619.001	47.17
619.193	47.14
619.384	47.35
619.576	47.23
619.768	47.12
619.959	47.13
620.151	47.24
620.343	47.53
620.534	47.46
620.726	47.45
620.917	47.63
621.109	47.7
621.301	47.68
621.492	47.71
621.684	48.05
621.875	48.23
622.067	48.19
622.258	48.16
622.45	48.26
622.641	48.19
622.832	48.16
623.024	48.17
623.215	48.19
623.407	48.15
623.598	48.1
623.789	47.99
623.981	47.96
624.172	48.05
624.363	47.93
624.555	47.77
624.746	47.91
624.937	47.73
625.129	47.72
625.32	47.64
625.511	47.65
625.702	47.67
625.893	47.62
626.085	47.47
626.276	47.31
626.467	47.21
626.658	47.02
626.849	46.94
627.04	47.11
627.231	47.04
627.422	47.21
627.614	47.15
627.805	47.17
627.996	47.14
628.187	47.34
628.378	47.52
628.569	47.68
628.76	47.98
628.951	48.17
629.142	48.32
629.332	48.51
629.523	48.63
629.714	48.9
629.905	49.12
630.096	49.31
630.287	49.38
630.478	49.41
630.669	49.4
630.859	49.36
631.05	49.32
631.241	49.3
631.432	49.13
631.623	49.06
631.813	48.92
632.004	48.67
632.195	48.69
632.385	48.38
632.576	48.39
632.767	48.64
632.957	48.54
633.148	48.72
633.339	48.51
633.529	48.41
633.72	48.27
633.91	48.08
634.101	47.98
634.292	47.98
634.482	48.18
634.673	48.28
634.863	48.06
635.054	48.05
635.244	47.91
635.435	48.03
635.625	47.95
635.815	48
636.006	48.23
636.196	48.44
636.387	48.69
636.577	48.88
636.767	48.82
636.958	49.08
637.148	48.97
637.338	48.86
637.529	48.82
637.719	49.26
637.909	49.32
638.099	49.29
638.29	49.42
638.48	49.25
638.67	49.29
638.86	49.48
639.05	49.34
639.241	49.55
639.431	49.84
639.621	49.74
639.811	49.67
640.001	49.81
640.191	50.28
640.381	50.18
640.571	50.21
640.761	50.02
640.951	49.78
641.141	50.19
641.331	50.32
641.521	50.61
641.711	50.83
641.901	50.88
642.091	51.05
642.281	50.67
642.471	50.55
642.661	50.69
642.851	50.92
643.041	51.02
643.231	50.83
643.42	51.05
643.61	50.86
643.8	50.97
643.99	50.95
644.18	50.6
644.369	50.54
644.559	50.99
644.749	50.76
644.939	50.84
645.128	50.98
645.318	50.8
645.508	50.66
645.697	50.88
645.887	50.88
646.076	51.04
646.266	51.16
646.456	51.49
646.645	51.5
646.835	51.7
647.024	51.62
647.214	51.64
647.403	51.83
647.593	52.04
647.782	51.82
647.972	52.08
648.161	52.14
648.351	52.09
648.54	52.03
648.73	51.88
648.919	52.08
649.108	51.92
649.298	52.07
649.487	52.16
649.677	51.88
649.866	52.01
650.055	51.89
650.244	51.81
650.434	51.96
650.623	51.87
650.812	52
651.002	51.63
651.191	51.85
651.38	51.77
651.569	51.83
651.758	51.92
651.947	51.82
652.137	51.77
652.326	51.65
652.515	51.88
652.704	52.2
652.893	52.35
653.082	52.54
653.271	52.64
653.46	52.69
653.649	52.66
653.838	52.65
654.027	52.77
654.216	52.79
654.405	52.91
654.594	52.49
654.783	52.47
654.972	52.39
655.161	52.4
655.35	52.11
655.539	51.96
655.728	51.94
655.916	51.94
656.105	51.89
656.294	52.09
656.483	52.08
656.672	52.28
656.86	52.07
657.049	52.02
657.238	52.22
657.427	52.32
657.615	52.26
657.804	52.26
657.993	52.18
658.181	52.03
658.37	51.78
658.559	51.77
658.747	51.64
658.936	51.58
659.125	51.63
659.313	51.6
659.502	51.61
659.69	51.66
659.879	51.62
660.067	51.76
660.256	51.91
660.444	52.26
660.633	52.22
660.821	52.46
661.01	52.61
661.198	52.63
661.387	52.53
661.575	52.58
661.763	52.57
661.952	52.71
662.14	53.02
662.328	53.23
662.517	53.25
662.705	53.46
662.893	53.41
663.082	53.73
663.27	53.88
663.458	54.11
663.646	54.44
663.834	54.74
664.023	54.79
664.211	54.83
664.399	54.9
664.587	54.82
664.775	54.84
664.963	55.19
665.152	55.34
665.34	55.3
665.528	55.17
665.716	55.06
665.904	55.2
666.092	55.2
666.28	54.97
666.468	54.96
666.656	54.94
666.844	54.99
667.032	54.69
667.22	54.35
667.408	54.34
667.596	54.17
667.784	53.94
667.971	53.88
668.159	53.8
668.347	53.69
668.535	53.66
668.723	53.72
668.911	53.62
669.098	53.95
669.286	54.04
669.474	53.94
669.662	54.53
669.849	55.13
670.037	55.15
670.225	55.35
670.413	55.52
670.6	55.33
670.788	55.34
670.976	55.6
671.163	55.34
671.351	55.21
671.538	55.41
671.726	55.2
671.913	55.02
672.101	54.92
672.289	54.8
672.476	54.97
672.664	55.56
672.851	55.51
673.039	55.5
673.226	56.08
673.413	56.31
673.601	56.51
673.788	56.35
673.976	56.45
674.163	56.85
674.35	57.03
674.538	57.17
674.725	56.81
674.912	57.01
675.1	57.07
675.287	56.83
675.474	56.76
675.662	56.75
675.849	57.12
676.036	57.22
676.223	57.23
676.411	57.36
676.598	57.32
676.785	57.24
676.972	57.2
677.159	57.25
677.346	57.27
677.533	57.48
677.721	57.35
677.908	57.11
678.095	57.19
678.282	56.99
678.469	56.97
678.656	56.96
678.843	57.13
679.03	57.42
679.217	57.34
679.404	57.01
679.591	56.58
679.778	56.61
679.964	56.52
680.151	56.32
680.338	56.18
680.525	56.14
680.712	56.1
680.899	55.92
681.086	55.79
681.272	55.56
681.459	55.65
681.646	55.8
681.833	55.48
682.02	55.57
682.206	55.54
682.393	55.62
682.58	55.53
682.766	55.34
682.953	55.48
683.14	55.3
683.326	56.06
683.513	56.31
683.7	56.66
683.886	56.97
684.073	57.2
684.259	57.36
684.446	57.77
684.632	58.03
684.819	58.26
685.005	58.44
685.192	58.57
685.378	58.07
685.565	58.36
685.751	58.41
685.938	58.27
686.124	58.18
686.31	58
686.497	57.94
686.683	57.59
686.87	57.6
687.056	57.65
687.242	57.71
687.429	57.97
687.615	57.89
687.801	57.64
687.987	58.01
688.174	57.98
688.36	58.17
688.546	58.14
688.732	58.56
688.918	58.63
689.105	58.74
689.291	58.69
689.477	59.04
689.663	58.81
689.849	59.02
690.035	59.15
690.221	59.3
690.407	59.37
690.593	59.64
690.779	59.91
690.965	59.86
691.151	60
691.337	60.47
691.523	59.85
691.709	59.85
691.895	60.24
692.081	60
692.267	59.91
692.453	60.09
692.639	60.01
692.825	59.83
693.011	60.38
693.196	60.45
693.382	60.18
693.568	60.65
693.754	61.06
693.94	60.84
694.125	61.03
694.311	61.27
694.497	61.55
694.682	61.62
694.868	61.65
695.054	61.43
695.239	61.23
695.425	61.01
695.611	61.06
695.796	60.65
695.982	60.39
696.168	60.07
696.353	59.84
696.539	59.38
696.724	58.86
696.91	58.44
697.095	58.19
697.281	57.91
697.466	57.95
697.652	57.7
697.837	57.65
698.023	57.65
698.208	57.55
698.393	57.48
698.579	57.41
698.764	57.36
698.949	57.43
699.135	57.06
699.32	56.95
699.505	56.59
699.691	56.18
699.876	56.25
700.061	56.26
700.246	56.17
700.432	56.29
700.617	56.34
700.802	56.73
700.987	56.83
701.172	57.12
701.358	57.61
701.543	58.22
701.728	58.79
701.913	59.1
702.098	59.64
702.283	60.29
702.468	60.48
702.653	60.88
702.838	61.13
703.023	61.12
703.208	62.04
703.393	62
703.578	62.4
703.763	62.81
703.948	63.04
704.133	62.69
704.318	62.91
704.503	62.96
704.688	63.35
704.873	63.33
705.057	63.86
705.242	63.49
705.427	63.64
705.612	63.84
705.797	63.88
705.981	64.06
706.166	64.26
706.351	64.36
706.536	64.36
706.72	64.1
706.905	64.16
707.09	64.09
707.274	64.84
707.459	65.09
707.644	64.67
707.828	64.62
708.013	64.24
708.197	64.19
708.382	63.88
708.567	64.09
708.751	64.03
708.936	63.83
709.12	63.71
709.305	63.24
709.489	63.25
709.673	63.21
709.858	63.22
710.042	63.16
710.227	63.22
710.411	63.36
710.596	63.27
710.78	63.25
710.964	63.72
711.149	63.92
711.333	63.66
711.517	63.65
711.702	63.96
711.886	63.93
712.07	63.85
712.254	64.07
712.438	64.02
712.623	64.09
712.807	63.91
712.991	63.37
713.175	63.53
713.359	63.57
713.544	63.09
713.728	62.86
713.912	62.67
714.096	62.34
714.28	62.04
714.464	61.88
714.648	61.17
714.832	61.22
715.016	61.39
715.2	60.78
715.384	60.76
715.568	60.89
715.752	60.57
715.936	60.83
716.12	60.98
716.304	61.04
716.488	61.1
716.671	61.64
716.855	62.03
717.039	61.59
717.223	61.95
717.407	62.12
717.59	62.21
717.774	62.62
717.958	62.42
718.142	62.69
718.325	62.67
718.509	62.71
718.693	62.94
718.877	62.5
719.06	63.01
719.244	63.13
719.428	62.86
719.611	63.11
719.795	63.42
719.978	63.39
720.162	63.86
720.345	64.32
720.529	64.47
720.713	64.71
720.896	64.95
721.08	65.01
721.263	65.31
721.446	65.75
721.63	65.79
721.813	65.71
721.997	66
722.18	66.18
722.364	66.11
722.547	66.65
722.73	66.37
722.914	66.69
723.097	67.38
723.28	66.7
723.464	66.58
723.647	66.49
723.83	66.25
724.013	66.12
724.197	65.87
724.38	65.66
724.563	65.42
724.746	65.43
724.929	65.11
725.112	64.89
725.296	65.24
725.479	65.27
725.662	64.98
725.845	65.34
726.028	65.16
726.211	64.89
726.394	64.64
726.577	64.43
726.76	64.53
726.943	64.5
727.126	63.83
727.309	63.7
727.492	63.55
727.675	63.8
727.858	63.47
728.041	63.26
728.224	63.57
728.407	63.27
728.589	63.57
728.772	63.74
728.955	64.2
729.138	64.59
729.321	64.64
729.503	64.87
729.686	64.98
729.869	65.1
730.052	65.51
730.234	65.44
730.417	65.56
730.6	65.24
730.782	64.58
730.965	64.12
731.148	63.95
731.33	63.58
731.513	63.52
731.695	63.07
731.878	63.26
732.061	63.31
732.243	63.47
732.426	63.72
732.608	63.86
732.791	63.96
732.973	64.04
733.156	64.41
733.338	64.39
733.52	64.53
733.703	64.89
733.885	64.8
734.068	64.6
734.25	63.94
734.432	64.21
734.615	63.73
734.797	63.81
734.979	63.66
735.162	63.79
735.344	64.32
735.526	64.23
735.708	64.27
735.891	64.42
736.073	64.61
736.255	65.77
736.437	65.48
736.619	66.07
736.802	66.39
736.984	66.71
737.166	66.93
737.348	67.2
737.53	67.26
737.712	67.27
737.894	67.29
738.076	67.6
738.258	67.24
738.44	67.52
738.622	67.17
738.804	67.43
738.986	67.57
739.168	67.17
739.35	67.34
739.532	67.65
739.714	68.24
739.896	67.73
740.078	67.49
740.259	67.8
740.441	67.96
740.623	68.63
740.805	68.73
740.987	67.98
741.168	68.3
741.35	68.12
741.532	68.99
741.714	69.03
741.895	69.85
742.077	70.73
742.259	70.63
742.44	70.68
742.622	70.54
742.804	70.27
742.985	71.15
743.167	70.37
743.348	70.44
743.53	69.65
743.711	69.61
743.893	69.99
744.075	69.71
744.256	69.65
744.438	70.05
744.619	70.53
744.8	71.2
744.982	71.28
745.163	72.22
745.345	72.12
745.526	71.91
745.707	71.43
745.889	70.62
746.07	70.66
746.252	71.26
746.433	71.45
746.614	71.26
746.795	70.95
746.977	71.61
747.158	71.12
747.339	71.25
747.52	71.81
747.702	72.38
747.883	72.46
748.064	72.35
748.245	72.22
748.426	72.32
748.607	72.39
748.788	72.15
748.97	71.46
749.151	71.65
749.332	72.42
749.513	72.4
749.694	72.16
749.875	73.01
750.056	72.81
750.237	71.89
750.418	71.88
750.599	71.46
750.78	71.89
750.96	71.79
751.141	71.63
751.322	71.3
751.503	71.1
751.684	70.8
751.865	70.13
752.046	70.59
752.226	71.4
752.407	70.6
752.588	71.03
752.769	71.84
752.949	72.02
753.13	72.82
753.311	72.58
753.492	72.19
753.672	72.72
753.853	73.05
754.034	72.99
754.214	73.28
754.395	73.38
754.575	73.73
754.756	73.26
754.937	73.41
755.117	73.03
755.298	73.28
755.478	73.4
755.659	73.66
755.839	72.93
756.02	73.07
756.2	72.62
756.381	72.46
756.561	72.42
756.741	72.02
756.922	71.9
757.102	71.84
757.283	71.72
757.463	72.23
757.643	72.5
757.823	73.12
758.004	72.29
758.184	72.04
758.364	72.32
758.545	71.82
758.725	71.47
758.905	71.22
759.085	71.02
759.265	70.8
759.446	70.37
759.626	69.49
759.806	69.24
759.986	68.6
760.166	68.5
760.346	68.53
760.526	68.62
760.706	68.92
760.886	68.49
761.066	68.3
761.246	67.9
761.426	66.98
761.606	65.86
761.786	65.23
761.966	65.65
762.146	64.87
762.326	64.08
762.506	63.42
762.686	63.25
762.866	62.85
763.046	62.01
763.225	62.08
763.405	61.71
763.585	61.39
763.765	61.02
763.945	60.75
764.124	60.81
764.304	60.89
764.484	60.73
764.664	60.42
764.843	60.92
765.023	61.48
765.203	61.22
765.382	61.98
765.562	63.32
765.741	64.25
765.921	65.01
766.101	65.18
766.28	65.71
766.46	66.18
766.639	66.26
766.819	66.57
766.998	66.87
767.178	67.55
767.357	68.04
767.537	68.32
767.716	68.15
767.896	67.73
768.075	68.27
768.254	68.36
768.434	69.41
768.613	70.34
768.792	70.16
768.972	70.91
769.151	70.95
769.33	71.65
769.51	71.83
769.689	72.52
769.868	73.39
770.047	74.68
770.226	74.06
770.406	74.13
770.585	74.81
770.764	75.24
770.943	75.64
771.122	76.02
771.301	75.81
771.48	76.22
771.66	76.47
771.839	75.86
772.018	74.85
772.197	76.11
772.376	76.24
772.555	76.48
772.734	76.87
772.913	76.36
773.092	76.59
773.271	76.63
773.449	75.62
773.628	75.99
773.807	76.28
773.986	76.14
774.165	75.48
774.344	75.59
774.523	74.74
774.701	74.07
774.88	75.05
775.059	74.93
775.238	74.77
775.417	75.29
775.595	74.73
775.774	75.39
775.953	75.47
776.131	75.48
776.31	74.78
776.489	75.51
776.667	76.16
776.846	75.57
777.025	75.55
777.203	75.9
777.382	76.92
777.56	76.88
777.739	77.19
777.917	78.16
778.096	78.61
778.274	79.51
778.453	78.23
778.631	78.5
778.81	77.88
778.988	78.2
779.166	77.88
779.345	77.91
779.523	78.39
779.702	79.22
779.88	79.36
780.058	79.15
780.237	79.02
780.415	79.93
780.593	79.84
780.771	81.02
780.95	81.32
781.128	81.43
781.306	80.98
781.484	79.57
781.662	78.76
781.841	78.47
782.019	78.67
782.197	79.1
782.375	78.66
782.553	78.85
782.731	79.07
782.909	79.56
783.087	80.23
783.265	79.83
783.443	81.24
783.621	81.24
783.799	81.85
783.977	82.98
784.155	81.53
784.333	81.7
784.511	81.22
784.689	80.4
784.867	80.26
785.045	79.84
785.223	79.01
785.4	78.74
785.578	78.12
785.756	78.1
785.934	78.24
786.112	79.9
786.289	79.62
786.467	79.88
786.645	79.66
786.823	79.03
787	79.43
787.178	79.42
787.356	78.61
787.533	78.39
787.711	77.22
787.889	75.6
788.066	73.83
788.244	73.83
788.421	73.73
788.599	73.24
788.776	73.21
788.954	73.11
789.131	73.66
789.309	74.48
789.486	74.75
789.664	75.32
789.841	76.51
790.019	77.31
790.196	78.31
790.373	77.81
790.551	78.58
790.728	78.54
790.906	79.66
791.083	80.78
791.26	81.72
791.437	81.42
791.615	80.41
791.792	81.24
791.969	82.3
792.146	82.07
792.324	82.83
792.501	83.2
792.678	83.91
792.855	82.71
793.032	82.04
793.209	81.28
793.387	82.31
793.564	83.27
793.741	82.66
793.918	81.57
794.095	81.93
794.272	80.49
794.449	80.07
794.626	81.73
794.803	81.26
794.98	80.87
795.157	79.64
795.334	79.53
795.511	79.91
795.688	79.99
795.864	79.78
796.041	79.79
796.218	81.82
796.395	80.5
796.572	78.22
796.749	78.26
796.925	78.39
797.102	79.87
797.279	80.07
797.456	78.95
797.632	78.45
797.809	78.63
797.986	77.72
798.162	77.62
798.339	78.5
798.516	78.36
798.692	79.57
798.869	79.08
799.046	77.22
799.222	76.62
799.399	77.27
799.575	77.16
799.752	77.67
799.928	77.71
800.105	76.78
800.281	77.54
800.458	78.57
800.634	76.74
800.811	77.73
800.987	79.07
801.163	79.5
801.34	80.18
801.516	80.46
801.692	81.48
801.869	81.84
802.045	82.56
802.221	83.59
802.398	82.42
802.574	82.37
802.75	82.35
802.926	82.21
803.103	84.49
803.279	84.8
803.455	85.9
803.631	84.93
803.807	86.91
803.983	88.12
804.16	87.14
804.336	87.52
804.512	89.19
804.688	89.98
804.864	89.72
805.04	88.8
805.216	88.68
805.392	88.47
805.568	88.89
805.744	88.4
805.92	87.14
806.096	87.86
806.272	88.71
806.448	89.98
806.623	89.23
806.799	91.27
806.975	90.77
807.151	90.73
807.327	90
807.503	88.76
807.678	88.36
807.854	88.65
808.03	88.87
808.206	88.84
808.381	86.79
808.557	87
808.733	87.14
808.908	86.19
809.084	87.16
809.26	86.75
809.435	86.92
809.611	86.32
809.787	85.15
809.962	84.59
810.138	84.19
810.313	84.96
810.489	85.49
810.664	84.41
810.84	83.94
811.015	83.02
811.191	83.12
811.366	85.07
811.542	85.59
811.717	86.14
811.892	85.87
812.068	86.09
812.243	86.04
812.419	85.4
812.594	86.67
812.769	88.35
812.944	87.97
813.12	89.58
813.295	89.09
813.47	89.12
813.645	90.53
813.821	90.48
813.996	90.72
814.171	91.43
814.346	91.16
814.521	90.48
814.697	91.12
814.872	91.24
815.047	89.87
815.222	90.07
815.397	89.85
815.572	91.16
815.747	93.02
815.922	92.4
816.097	91.86
816.272	91.59
816.447	93.74
816.622	93.62
816.797	94.34
816.972	95.41
817.147	93.64
817.322	92.84
817.496	90.37
817.671	88.55
817.846	89.64
818.021	89.22
818.196	89.63
818.371	87.32
818.545	86.32
818.72	85.09
818.895	83.85
819.069	82.73
819.244	83.12
819.419	80.74
819.594	79.16
819.768	76.44
819.943	73.77
820.117	71
820.292	68.99
820.467	66.4
820.641	63.13
820.816	61.13
820.99	59.35
821.165	56.78
821.339	55.4
821.514	53.78
821.688	52.9
821.863	52.05
822.037	51.01
822.212	50.4
822.386	49.5
822.56	48.96
822.735	48.57
822.909	48.17
823.084	48.23
823.258	47.99
823.432	48.23
823.606	48.24
823.781	48.47
823.955	48.73
824.129	48.55
824.303	49.42
824.478	50.32
824.652	50.92
824.826	51.77
825	52.19
825.174	53.09
825.348	53.52
825.523	53.8
825.697	54.14
825.871	55.15
826.045	55.48
826.219	55.25
826.393	55.04
826.567	54.34
826.741	54.34
826.915	54.23
827.089	54.4
827.263	54.05
827.437	54.55
827.611	54.6
827.784	54.26
827.958	54.67
828.132	54.46
828.306	55.59
828.48	56.64
828.654	57.17
828.827	58.19
829.001	58.88
829.175	60.28
829.349	61.33
829.522	62.71
829.696	64.44
829.87	66.47
830.044	70.17
830.217	71.39
830.391	73.11
830.565	74.81
830.738	77.46
830.912	79.59
831.085	80.18
831.259	81.51
831.432	82.42
831.606	82.25
831.779	80.91
831.953	79.11
832.126	77.43
832.3	76.11
832.473	74.44
832.647	72.06
832.82	69.89
832.994	68.64
833.167	67.03
833.34	65.27
833.514	63.48
833.687	63.16
833.86	61.64
834.034	61.08
834.207	60.52
834.38	59.49
834.553	59.22
834.727	59.49
834.9	60.16
835.073	60.32
835.246	61.22
835.419	62.45
835.593	63.17
835.766	64.5
835.939	65.3
836.112	67.22
836.285	70
836.458	70.56
836.631	72.53
836.804	74.1
836.977	74.99
837.15	77.52
837.323	79.9
837.496	81.19
837.669	84.48
837.842	88.66
838.015	90.77
838.188	90.52
838.361	94.66
838.533	93.56
838.706	94.05
838.879	94.4
839.052	92.29
839.225	92.66
839.398	91.07
839.57	88.82
839.743	89.54
839.916	88.01
840.088	89.64
840.261	88.11
840.434	89.35
840.607	88.65
840.779	89.3
840.952	89.9
841.124	89.21
841.297	91.78
841.47	91.75
841.642	89.34
841.815	90.7
841.987	91.18
842.16	92.97
842.332	92.95
842.505	97.29
842.677	97.59
842.85	100.04
843.022	104.07
843.194	106.89
843.367	113.07
843.539	118.43
843.712	116.26
843.884	117.42
844.056	119.68
844.229	126.33
844.401	124.73
844.573	129.62
844.745	132.16
844.918	128.44
845.09	124.74
845.262	124.09
845.434	122.49
845.606	128.72
845.779	128.17
845.951	129.1
846.123	126
846.295	127.65
846.467	128.98
846.639	131.43
846.811	131.24
846.983	131.85
847.155	131.71
847.327	131.97
847.499	130.86
847.671	132.47
847.843	131.7
848.015	133.39
848.187	132.23
848.359	136.34
848.531	130.53
848.703	129.85
848.875	136.87
849.047	137.79
849.218	141.5
849.39	146.28
849.562	150.72
849.734	149.59
849.905	154.51
850.077	159.54
850.249	155.3
850.421	161.75
850.592	164.62
850.764	160.65
850.936	164.42
851.107	161.11
851.279	156.3
851.451	153.48
851.622	159.24
851.794	154.07
851.965	149.63
852.137	148.03
852.308	146.2
852.48	149.35
852.651	149.56
852.823	146.66
852.994	147.03
853.166	147.49
853.337	144.7
853.509	143.41
853.68	141.62
853.851	141.02
854.023	141.28
854.194	145.15
854.365	145.32
854.537	146.2
854.708	145.69
854.879	141.77
855.05	148.39
855.222	149.97
855.393	151.05
855.564	156.74
855.735	160.53
855.906	165.91
856.078	162.24
856.249	157.85
856.42	156.03
856.591	155.69
856.762	159.89
856.933	162.94
857.104	158.79
857.275	157.1
857.446	154.45
857.617	151.44
857.788	150.51
857.959	153.11
858.13	161.05
858.301	165.52
858.472	171.63
858.643	180.15
858.814	174.07
858.985	182.95
859.155	183.48
859.326	183.22
859.497	188.43
859.668	187.41
859.839	186.65
860.009	183.37
860.18	175.06
860.351	172.3
860.522	166.8
860.692	160.32
860.863	160.38
861.034	163.14
861.204	161.99
861.375	155.39
861.546	159.11
861.716	158.71
861.887	160.34
862.057	170.12
862.228	170.6
862.398	173.03
862.569	172.15
862.739	170.43
862.91	164.59
863.08	165.14
863.251	164.74
863.421	157.32
863.592	154.03
863.762	151.1
863.932	143.19
864.103	138.98
864.273	135.14
864.443	139.71
864.614	138.79
864.784	135.93
864.954	137.78
865.125	146.29
865.295	146.8
865.465	151.34
865.635	149.05
865.805	156.88
865.976	155.53
866.146	156.83
866.316	151.86
866.486	155.36
866.656	161.08
866.826	159.8
866.996	156.87
867.166	164.91
867.336	165.35
867.506	170.03
867.676	161.97
867.846	166.39
868.016	172.43
868.186	176.53
868.356	176.79
868.526	172.28
868.696	169.11
868.866	171.92
869.036	163.75
869.206	160.46
869.376	159.52
869.545	159.96
869.715	161.4
869.885	162.97
870.055	163.32
870.224	160.65
870.394	162.33
870.564	166.95
870.734	165.91
870.903	165.18
871.073	168.49
871.243	163.02
871.412	164.44
871.582	162.22
871.751	160.03
871.921	164.98
872.091	167.41
872.26	166.06
872.43	164.58
872.599	155.09
872.769	157.61
872.938	156.59
873.108	153.3
873.277	147.79
873.446	149.24
873.616	149.7
873.785	148.37
873.955	143.94
874.124	152.04
874.293	151.97
874.463	158.52
874.632	156.32
874.801	152.35
874.971	159.53
875.14	167.25
875.309	160.57
875.478	153.64
875.647	149.03
875.817	151.1
875.986	145.69
876.155	142.78
876.324	141.63
876.493	142.48
876.662	146.78
876.831	142.78
877	140.23
877.17	141.89
877.339	146.03
877.508	142.77
877.677	141.56
877.846	135.79
878.015	135.95
878.184	136.17
878.352	137.55
878.521	134.63
878.69	134.23
878.859	129.67
879.028	129.74
879.197	125.23
879.366	121.32
879.534	115.98
879.703	113.24
879.872	107.37
880.041	99.49
880.21	92.52
880.378	86.33
880.547	79.67
880.716	76.24
880.884	70.94
881.053	67.84
881.222	65.12
881.39	62.68
881.559	60.84
881.727	58.33
881.896	56.57
882.065	55.66
882.233	54.75
882.402	54.52
882.57	54.09
882.739	53.76
882.907	53.18
883.076	53.29
883.244	52.62
883.412	53.32
883.581	54.87
883.749	55.49
883.918	56.14
884.086	57.09
884.254	58.72
884.423	60.42
884.591	62.39
884.759	64.68
884.927	66.53
885.096	69.93
885.264	73.69
885.432	77.01
885.6	81.71
885.769	84.17
885.937	88.58
886.105	91.7
886.273	93.73
886.441	96.92
886.609	101.44
886.777	108.03
886.945	111.75
887.113	115.89
887.281	114.63
887.449	119.77
887.617	126.6
887.785	133.41
887.953	142.07
888.121	144.5
888.289	152.16
888.457	152.55
888.625	152.02
888.793	157.23
888.961	153.71
889.129	161.47
889.296	166.38
889.464	167.59
889.632	165.34
889.8	158.29
889.967	169.13
890.135	166.37
