Data from 2938711__Reflection_01.txt Node
Date: Tue Mar 17 19:25:38 EDT 2015
User: robert
Spectrometer: USB4E03002
Autoset integration time: false
Trigger mode: 4
Integration Time (sec): 1.000000E-1
Scans to average: 10
Electric dark correction enabled: false
Nonlinearity correction enabled: false
Boxcar width: 5
Stray light correction enabled: false
XAxis mode: Wavelengths
Stop averaging: false
Number of Pixels in Spectrum: 3648
>>>>>Begin Spectral Data<<<<<
177.575	58.29
177.794	68.49
178.014	77.78
178.233	85.02
178.452	91.97
178.672	103.24
178.891	103.58
179.11	138.82
179.33	359.61
179.549	580.34
179.768	-20333.33
179.987	-329.94
180.207	-663.73
180.426	4331.58
180.645	1148.61
180.864	515.93
181.084	616.3
181.303	15157.14
181.522	1505.26
181.741	409.61
181.96	333.91
182.179	286.86
182.398	286.13
182.618	184.64
182.837	187.82
183.056	186.31
183.275	221.04
183.494	205.52
183.713	160
183.932	148.97
184.151	132.63
184.37	145.19
184.589	160.09
184.808	124.46
185.027	167.97
185.246	177.82
185.465	192.49
185.684	192.42
185.903	303.64
186.122	374.38
186.341	284.79
186.56	309.32
186.779	199.28
186.998	226.11
187.216	222.46
187.435	230.67
187.654	238.65
187.873	207.49
188.092	185.73
188.311	145.89
188.53	153.81
188.748	162.11
188.967	160.97
189.186	226.2
189.405	225.27
189.623	258.74
189.842	174.5
190.061	147.12
190.28	157
190.498	146.56
190.717	152.24
190.936	139.92
191.154	140.47
191.373	147.71
191.592	138.24
191.81	132.16
192.029	130.23
192.248	185.23
192.466	176.91
192.685	197.52
192.904	176.4
193.122	157.14
193.341	148.76
193.559	175.95
193.778	165.89
193.996	153.82
194.215	137.51
194.433	135.61
194.652	123.04
194.87	134.68
195.089	118.64
195.307	131.89
195.526	159.57
195.744	169.87
195.963	167.07
196.181	169.66
196.399	179.97
196.618	188.97
196.836	194.29
197.055	213.97
197.273	216.52
197.491	378.65
197.71	798.63
197.928	247.35
198.146	343.02
198.365	211.9
198.583	288.46
198.801	291.98
199.019	328.24
199.238	309.76
199.456	191.8
199.674	236.34
199.892	172.79
200.111	159.57
200.329	161.24
200.547	176.96
200.765	162.24
200.983	125.45
201.202	123.78
201.42	131.38
201.638	147.08
201.856	145.96
202.074	160.32
202.292	185.37
202.51	194.92
202.728	196.42
202.946	152.16
203.165	144.34
203.383	197.36
203.601	187.65
203.819	173.56
204.037	161.75
204.255	193.76
204.473	150.68
204.691	140.32
204.909	124.48
205.127	117.75
205.345	116.33
205.562	124.94
205.78	103.94
205.998	102.08
206.216	104.23
206.434	97.48
206.652	93.87
206.87	86.38
207.088	96.89
207.306	114.99
207.523	111.91
207.741	118.3
207.959	128.74
208.177	153.69
208.395	133.98
208.612	128.33
208.83	118.64
209.048	127.46
209.266	124.97
209.483	132.97
209.701	119.87
209.919	129.78
210.136	119.87
210.354	112.6
210.572	100.56
210.79	98.98
211.007	98.11
211.225	114.39
211.442	104.28
211.66	128.65
211.878	119.07
212.095	204.92
212.313	191.42
212.53	163.15
212.748	160
212.966	158.37
213.183	161.81
213.401	150.34
213.618	142.16
213.836	132.31
214.053	122.26
214.271	107.55
214.488	55.49
214.705	59.12
214.923	75.77
215.14	71.11
215.358	62.52
215.575	62.63
215.793	60.07
216.01	56.72
216.227	62.98
216.445	67.79
216.662	64.36
216.879	62.39
217.097	57.28
217.314	61.97
217.531	69.74
217.749	74.98
217.966	77.08
218.183	83.6
218.4	86.84
218.618	83.21
218.835	75.2
219.052	77.43
219.269	80.48
219.487	77.18
219.704	64.06
219.921	55.71
220.138	59.24
220.355	57.78
220.572	44.57
220.79	40.57
221.007	49.52
221.224	49.46
221.441	50.17
221.658	47.91
221.875	47.84
222.092	44.74
222.309	46.89
222.526	41.3
222.743	39.48
222.96	36.57
223.177	24.66
223.394	18.31
223.611	19.96
223.828	15.95
224.045	6.04
224.262	2.61
224.479	8.36
224.696	6.32
224.913	8.1
225.13	8.93
225.347	15.34
225.564	21.37
225.781	22.52
225.997	21.21
226.214	22.39
226.431	22.09
226.648	24.16
226.865	20.35
227.082	21.77
227.298	19.66
227.515	18.18
227.732	15.01
227.949	13.81
228.165	11.15
228.382	11.24
228.599	9.9
228.816	10.02
229.032	8.5
229.249	9.16
229.466	7.79
229.682	6.84
229.899	6.18
230.116	6.92
230.332	7.26
230.549	8.1
230.765	8.25
230.982	9.56
231.199	9.78
231.415	11.74
231.632	11.34
231.848	12.81
232.065	14.44
232.281	15.44
232.498	15.17
232.714	16.05
232.931	16.71
233.147	14.74
233.364	13.77
233.58	13.06
233.797	11.81
234.013	11.58
234.23	10.53
234.446	9.95
234.662	9.78
234.879	9.16
235.095	9.19
235.312	9.22
235.528	10.72
235.744	11.44
235.961	12.71
236.177	14.07
236.393	14.99
236.61	14.9
236.826	14.85
237.042	15.1
237.258	15.63
237.475	15
237.691	14
237.907	13.7
238.123	14.35
238.339	11.88
238.556	10.7
238.772	9.38
238.988	10.87
239.204	11.36
239.42	11.79
239.636	10.97
239.853	10.71
240.069	11.58
240.285	12.02
240.501	10.63
240.717	10.15
240.933	9.16
241.149	9.22
241.365	8.37
241.581	7.46
241.797	7.35
242.013	7.69
242.229	7.19
242.445	6.81
242.661	6.14
242.877	6.1
243.093	6.71
243.309	6.37
243.525	6.35
243.741	6.13
243.957	6.37
244.173	5.78
244.388	5.06
244.604	4.59
244.82	3.99
245.036	4.33
245.252	4.52
245.468	4.85
245.683	5.46
245.899	5.73
246.115	5.93
246.331	6.1
246.547	5.85
246.762	5.73
246.978	6.02
247.194	6.22
247.409	6.27
247.625	6.82
247.841	6.85
248.057	6.87
248.272	6.72
248.488	6.58
248.703	6.5
248.919	7.23
249.135	7.86
249.35	8.11
249.566	8.78
249.782	8.8
249.997	8.29
250.213	7.7
250.428	7.85
250.644	8.36
250.859	8.61
251.075	9.53
251.29	9.36
251.506	8.63
251.721	8.53
251.937	7.67
252.152	7.56
252.368	7.1
252.583	7.24
252.798	6.81
253.014	7.15
253.229	7.4
253.445	6.74
253.66	6.74
253.875	7.33
254.091	7.41
254.306	7.58
254.521	7.52
254.737	7.63
254.952	8.66
255.167	9.97
255.383	8.15
255.598	7.81
255.813	7.85
256.028	7.47
256.244	7.52
256.459	7.54
256.674	7.28
256.889	7.56
257.104	8.08
257.32	7.88
257.535	6.93
257.75	7.44
257.965	7.67
258.18	7.04
258.395	6.39
258.61	6.21
258.826	5.92
259.041	5.94
259.256	5.88
259.471	5.55
259.686	5.23
259.901	5.24
260.116	5.23
260.331	4.97
260.546	5.07
260.761	5.06
260.976	5.03
261.191	4.78
261.406	5.15
261.621	4.93
261.836	4.89
262.05	5.04
262.265	5.16
262.48	5.03
262.695	5.22
262.91	5.13
263.125	5.68
263.34	5.66
263.555	6.41
263.769	5.61
263.984	6.41
264.199	6.78
264.414	6.95
264.629	6.53
264.843	5.85
265.058	5.45
265.273	5.73
265.488	5.73
265.702	5.77
265.917	5.38
266.132	5.21
266.346	5.07
266.561	4.84
266.776	4.14
266.99	4.71
267.205	4.88
267.42	5.19
267.634	4.78
267.849	4.67
268.063	4.16
268.278	4.46
268.492	4.42
268.707	3.89
268.922	4.09
269.136	4.57
269.351	4.75
269.565	5.26
269.78	4.95
269.994	5.03
270.209	5.01
270.423	5.34
270.637	4.64
270.852	4.69
271.066	4.82
271.281	4.24
271.495	4.46
271.709	4.15
271.924	3.94
272.138	4.22
272.353	4.57
272.567	4.38
272.781	4.64
272.996	5.17
273.21	5.57
273.424	5.4
273.638	5.89
273.853	5.63
274.067	5.67
274.281	5.69
274.495	5.03
274.71	4.59
274.924	4.96
275.138	5
275.352	4.58
275.566	4.24
275.781	4.79
275.995	4.81
276.209	5.07
276.423	5.17
276.637	5.43
276.851	5.76
277.065	6.12
277.279	5.81
277.493	5.67
277.707	5.99
277.921	5.54
278.135	5.51
278.349	5.02
278.563	4.92
278.777	4.44
278.991	4.17
279.205	4.4
279.419	4.05
279.633	4.06
279.847	4.06
280.061	4.02
280.275	4.43
280.489	4.35
280.703	4.65
280.917	4.83
281.131	5.33
281.344	5.31
281.558	5.27
281.772	5.85
281.986	5.93
282.2	5.8
282.414	5.52
282.627	5.41
282.841	5.4
283.055	5.13
283.269	4.99
283.482	4.99
283.696	5.06
283.91	5.12
284.123	4.4
284.337	4.35
284.551	4.35
284.764	4.77
284.978	4.8
285.192	4.59
285.405	4.74
285.619	4.53
285.833	4.49
286.046	4.64
286.26	4.76
286.473	4.98
286.687	5.09
286.9	5
287.114	4.83
287.327	4.87
287.541	4.87
287.754	4.92
287.968	5.08
288.181	4.91
288.395	4.93
288.608	4.72
288.822	4.83
289.035	4.66
289.248	4.97
289.462	5.02
289.675	5.01
289.889	5.42
290.102	5.46
290.315	5.42
290.529	5.33
290.742	5
290.955	5.09
291.169	4.82
291.382	5.29
291.595	5.21
291.808	5.16
292.022	5.01
292.235	4.36
292.448	4.58
292.661	4.5
292.875	4.58
293.088	5
293.301	4.76
293.514	5.07
293.727	5.02
293.94	5
294.153	4.76
294.367	5.03
294.58	5.27
294.793	5.01
295.006	4.92
295.219	4.99
295.432	4.78
295.645	4.97
295.858	4.86
296.071	4.72
296.284	4.71
296.497	4.86
296.71	4.86
296.923	4.97
297.136	4.91
297.349	5.14
297.562	5.26
297.775	5.13
297.988	5.23
298.201	5.35
298.414	5.05
298.626	5.15
298.839	5.42
299.052	5.53
299.265	5.65
299.478	5.8
299.691	5.99
299.903	5.94
300.116	5.98
300.329	5.82
300.542	6.1
300.755	6.51
300.967	6.71
301.18	6.46
301.393	6.18
301.605	6.06
301.818	5.95
302.031	5.74
302.243	5.67
302.456	6.02
302.669	6.48
302.881	6.26
303.094	6.23
303.307	5.89
303.519	5.87
303.732	6.04
303.944	5.96
304.157	6.06
304.37	6.06
304.582	6.14
304.795	6.08
305.007	5.3
305.22	5.33
305.432	5.16
305.645	5.52
305.857	6.04
306.069	6.01
306.282	5.9
306.494	6.25
306.707	6.47
306.919	6.27
307.132	6.43
307.344	7.14
307.556	7.36
307.769	7.58
307.981	7.54
308.193	7.09
308.406	7.2
308.618	7.45
308.83	6.87
309.043	6.72
309.255	7.04
309.467	6.79
309.679	6.6
309.892	6.44
310.104	6.25
310.316	5.98
310.528	6.19
310.74	5.87
310.953	5.88
311.165	6.28
311.377	6.16
311.589	6.24
311.801	6.68
312.013	6.5
312.225	6.43
312.437	6.75
312.649	7.09
312.862	6.62
313.074	7.18
313.286	7.13
313.498	6.99
313.71	7.48
313.922	7.23
314.134	6.56
314.346	6.98
314.558	7.27
314.77	6.99
314.982	6.86
315.193	7.22
315.405	7.4
315.617	7.46
315.829	7.26
316.041	6.93
316.253	7.12
316.465	7.63
316.677	7.42
316.888	7.41
317.1	7.27
317.312	7.43
317.524	7.58
317.736	7.77
317.947	8.01
318.159	8.76
318.371	8.73
318.583	9.14
318.794	8.86
319.006	9.26
319.218	8.96
319.43	9.26
319.641	9.11
319.853	9.12
320.064	9.04
320.276	8.77
320.488	8.84
320.699	8.76
320.911	8.37
321.123	8.21
321.334	8.05
321.546	8.82
321.757	9.08
321.969	9.21
322.18	9.24
322.392	8.44
322.603	8.87
322.815	8.73
323.026	9.3
323.238	9.16
323.449	9.28
323.661	9.14
323.872	8.57
324.083	8.4
324.295	8.12
324.506	8.18
324.718	8.29
324.929	8.02
325.14	7.93
325.352	7.77
325.563	8.19
325.774	8.19
325.986	8.32
326.197	8.6
326.408	8.56
326.62	9.09
326.831	9.55
327.042	9.88
327.253	10.26
327.464	10.38
327.676	10.33
327.887	10.32
328.098	10.38
328.309	10.75
328.52	10.79
328.732	11.19
328.943	11.11
329.154	11.07
329.365	11.41
329.576	11.41
329.787	11.53
329.998	11.68
330.209	11.86
330.42	12.14
330.631	12.17
330.842	12.41
331.053	12.21
331.264	12.34
331.475	11.98
331.686	11.8
331.897	11.84
332.108	11.69
332.319	11.45
332.53	10.74
332.741	10.72
332.952	10.45
333.163	10.38
333.374	10.47
333.585	10.22
333.795	10.35
334.006	10.1
334.217	9.79
334.428	9.7
334.639	10.06
334.849	10.54
335.06	10.65
335.271	10.79
335.482	10.68
335.692	10.91
335.903	11.27
336.114	11.21
336.325	11.46
336.535	11.24
336.746	11.3
336.957	11.47
337.167	11.79
337.378	11.59
337.589	11.6
337.799	11.65
338.01	11.22
338.22	10.96
338.431	11.13
338.642	11.11
338.852	11.39
339.063	11.72
339.273	11.5
339.484	11.17
339.694	11.24
339.905	11.02
340.115	11.2
340.326	11.25
340.536	11.37
340.746	11.2
340.957	11.75
341.167	11.82
341.378	11.65
341.588	11.75
341.799	11.75
342.009	11.78
342.219	12.05
342.43	11.83
342.64	11.91
342.85	12.07
343.061	12.05
343.271	11.46
343.481	11.58
343.691	11.45
343.902	11.68
344.112	11.8
344.322	11.92
344.532	11.92
344.743	12.08
344.953	12.32
345.163	12.13
345.373	12.24
345.583	12.32
345.793	11.97
346.004	12.02
346.214	11.54
346.424	11.62
346.634	11.28
346.844	11.51
347.054	11.41
347.264	11.05
347.474	10.83
347.684	10.83
347.894	10.8
348.104	10.87
348.314	10.88
348.524	11.18
348.734	10.98
348.944	10.98
349.154	10.61
349.364	10.63
349.574	10.89
349.784	10.76
349.994	10.7
350.204	10.85
350.413	11.08
350.623	10.82
350.833	10.63
351.043	10.65
351.253	11
351.463	10.74
351.672	10.62
351.882	10.21
352.092	10.09
352.302	10.37
352.511	10.25
352.721	10.08
352.931	10.33
353.141	10.42
353.35	10.46
353.56	10.47
353.77	10.57
353.979	10.61
354.189	10.63
354.399	10.66
354.608	10.43
354.818	10.56
355.027	10.64
355.237	10.54
355.447	10.46
355.656	10.4
355.866	10.4
356.075	10.36
356.285	10.23
356.494	10.31
356.704	10.36
356.913	10.32
357.123	9.77
357.332	9.91
357.542	9.93
357.751	9.73
357.96	9.39
358.17	9.25
358.379	9.32
358.589	9.37
358.798	9.57
359.007	9.59
359.217	9.58
359.426	10.05
359.635	9.87
359.845	9.78
360.054	9.85
360.263	9.98
360.472	10.06
360.682	10.04
360.891	10.08
361.1	9.78
361.309	9.96
361.519	10
361.728	9.87
361.937	9.81
362.146	9.79
362.355	9.88
362.564	9.8
362.774	9.72
362.983	9.62
363.192	9.64
363.401	9.76
363.61	9.6
363.819	9.35
364.028	9.31
364.237	9.27
364.446	9.45
364.655	9.54
364.864	9.83
365.073	9.94
365.282	9.85
365.491	9.56
365.7	9.38
365.909	9.36
366.118	9.35
366.327	9.3
366.536	9.45
366.745	9.35
366.954	9.12
367.162	8.75
367.371	8.53
367.58	8.69
367.789	8.72
367.998	8.75
368.207	8.63
368.415	8.79
368.624	8.48
368.833	8.22
369.042	8.26
369.25	8.3
369.459	8.51
369.668	8.47
369.877	8.38
370.085	8.36
370.294	8.6
370.503	8.74
370.711	8.54
370.92	8.86
371.129	9.19
371.337	8.93
371.546	9.04
371.754	9.11
371.963	9.25
372.171	9.26
372.38	9.27
372.589	9.35
372.797	9.28
373.006	9.34
373.214	9.35
373.423	9.06
373.631	9.06
373.84	8.79
374.048	8.7
374.256	8.63
374.465	8.46
374.673	8.78
374.882	8.51
375.09	8.42
375.298	8.38
375.507	8.28
375.715	8.35
375.923	8.32
376.132	8.49
376.34	8.4
376.548	8.24
376.757	8.31
376.965	8.06
377.173	8.06
377.381	8.19
377.59	8.33
377.798	8.26
378.006	8.21
378.214	8.33
378.423	8.05
378.631	7.97
378.839	7.97
379.047	8.07
379.255	8.06
379.463	8.05
379.671	7.96
379.879	7.69
380.088	7.88
380.296	8.04
380.504	7.99
380.712	8.13
380.92	8.28
381.128	8.31
381.336	8.3
381.544	8.22
381.752	8.11
381.96	7.98
382.168	8.12
382.376	8.12
382.584	7.92
382.791	7.96
382.999	7.99
383.207	7.89
383.415	7.93
383.623	7.99
383.831	7.91
384.039	7.98
384.247	8.23
384.454	8.32
384.662	8.06
384.87	8.12
385.078	8.07
385.285	7.99
385.493	7.98
385.701	7.73
385.909	7.53
386.116	7.46
386.324	7.36
386.532	7.16
386.739	7.16
386.947	7.33
387.155	7.16
387.362	6.99
387.57	7.15
387.778	7.25
387.985	7.48
388.193	7.53
388.4	7.61
388.608	7.92
388.816	7.88
389.023	7.75
389.231	7.55
389.438	7.6
389.646	7.76
389.853	7.58
390.061	7.48
390.268	7.44
390.475	7.38
390.683	7.34
390.89	6.99
391.098	7.03
391.305	7
391.512	6.92
391.72	6.74
391.927	6.45
392.135	6.4
392.342	6.26
392.549	6.04
392.756	5.9
392.964	5.83
393.171	5.81
393.378	5.88
393.586	5.89
393.793	6.04
394	6.18
394.207	6.56
394.414	6.51
394.622	6.5
394.829	6.7
395.036	6.74
395.243	6.84
395.45	6.94
395.657	6.82
395.864	6.87
396.072	6.92
396.279	6.92
396.486	6.56
396.693	6.36
396.9	6.39
397.107	6.22
397.314	6.56
397.521	6.46
397.728	6.43
397.935	6.4
398.142	6.18
398.349	5.97
398.556	5.81
398.763	5.89
398.97	6.18
399.177	6.16
399.383	6.2
399.59	5.79
399.797	6.03
400.004	6.01
400.211	6.11
400.418	6.1
400.625	6.17
400.831	6.46
401.038	6.39
401.245	6.25
401.452	6.4
401.658	6.49
401.865	6.49
402.072	6.26
402.279	6.48
402.485	6.27
402.692	6.37
402.899	6.37
403.105	6.26
403.312	6.29
403.519	6.46
403.725	6.34
403.932	6.39
404.138	6.4
404.345	6.39
404.552	6.29
404.758	6.34
404.965	6.27
405.171	6.28
405.378	6.22
405.584	6.3
405.791	6.07
405.997	5.97
406.204	6.04
406.41	6.17
406.617	6.19
406.823	6.09
407.029	6.17
407.236	6.17
407.442	6.07
407.649	6.22
407.855	6.06
408.061	6.21
408.268	6.23
408.474	5.87
408.68	5.78
408.887	5.78
409.093	5.62
409.299	5.56
409.505	5.63
409.712	5.66
409.918	5.37
410.124	5.54
410.33	5.6
410.537	5.66
410.743	5.81
410.949	5.78
411.155	5.67
411.361	5.87
411.567	5.85
411.773	5.68
411.98	5.83
412.186	6.01
412.392	5.88
412.598	5.81
412.804	5.93
413.01	5.92
413.216	5.8
413.422	6.06
413.628	6.09
413.834	5.94
414.04	6.19
414.246	5.95
414.452	5.91
414.658	5.9
414.864	6
415.07	5.81
415.275	5.84
415.481	5.94
415.687	5.77
415.893	5.56
416.099	5.7
416.305	5.56
416.511	5.55
416.716	5.4
416.922	5.44
417.128	5.36
417.334	5.43
417.539	5.36
417.745	5.44
417.951	5.44
418.157	5.52
418.362	5.46
418.568	5.47
418.774	5.51
418.979	5.55
419.185	5.61
419.391	5.49
419.596	5.41
419.802	5.38
420.008	5.3
420.213	4.54
420.419	4.59
420.624	4.55
420.83	4.53
421.035	4.54
421.241	4.55
421.446	4.47
421.652	4.53
421.857	4.56
422.063	4.59
422.268	4.57
422.474	5.28
422.679	5.25
422.885	5.26
423.09	5.26
423.295	5.27
423.501	5.31
423.706	5.28
423.911	5.2
424.117	5.22
424.322	5.24
424.527	5.23
424.733	5.21
424.938	5.17
425.143	5.19
425.349	5.15
425.554	5.14
425.759	5.09
425.964	5.15
426.169	5.28
426.375	5.25
426.58	5.29
426.785	5.32
426.99	5.33
427.195	5.27
427.4	5.26
427.605	5.3
427.811	5.29
428.016	5.26
428.221	5.24
428.426	5.12
428.631	5.11
428.836	5
429.041	4.93
429.246	4.83
429.451	5.01
429.656	5.08
429.861	5.09
430.066	5.15
430.271	5.31
430.476	5.29
430.681	5.39
430.886	5.39
431.09	5.4
431.295	5.57
431.5	5.72
431.705	5.72
431.91	5.65
432.115	5.63
432.32	5.52
432.524	5.44
432.729	5.42
432.934	5.38
433.139	5.36
433.343	5.35
433.548	5.25
433.753	5.19
433.958	5.17
434.162	5.26
434.367	5.29
434.572	5.34
434.776	5.31
434.981	5.38
435.186	5.44
435.39	5.54
435.595	5.61
435.799	5.64
436.004	5.61
436.209	5.54
436.413	5.49
436.618	5.43
436.822	5.44
437.027	5.48
437.231	5.38
437.436	5.34
437.64	5.32
437.845	5.25
438.049	5.3
438.253	5.35
438.458	5.51
438.662	5.57
438.867	5.59
439.071	5.52
439.275	5.59
439.48	5.64
439.684	5.59
439.888	5.56
440.093	5.55
440.297	5.45
440.501	5.48
440.706	5.31
440.91	5.28
441.114	5.31
441.318	5.32
441.523	5.29
441.727	5.23
441.931	5.24
442.135	5.29
442.339	5.29
442.543	5.32
442.748	5.28
442.952	5.39
443.156	5.4
443.36	5.44
443.564	5.49
443.768	5.39
443.972	5.39
444.176	5.45
444.38	5.48
444.584	5.47
444.788	5.49
444.992	5.52
445.196	5.45
445.4	5.44
445.604	5.33
445.808	5.28
446.012	5.32
446.216	5.38
446.42	5.41
446.624	5.39
446.828	5.4
447.032	5.39
447.235	5.4
447.439	5.37
447.643	5.37
447.847	5.45
448.051	5.5
448.254	5.49
448.458	5.43
448.662	5.36
448.866	5.32
449.069	5.34
449.273	5.31
449.477	5.31
449.681	5.29
449.884	5.33
450.088	5.25
450.292	5.25
450.495	5.28
450.699	5.33
450.902	5.3
451.106	5.25
451.31	5.22
451.513	5.34
451.717	5.29
451.92	5.34
452.124	5.4
452.327	5.43
452.531	5.39
452.734	5.39
452.938	5.36
453.141	5.35
453.345	5.4
453.548	5.44
453.752	5.33
453.955	5.32
454.158	5.31
454.362	5.31
454.565	5.32
454.769	5.36
454.972	5.4
455.175	5.46
455.379	5.5
455.582	5.47
455.785	5.43
455.988	5.47
456.192	5.46
456.395	5.47
456.598	5.39
456.801	5.42
457.005	5.42
457.208	5.35
457.411	5.2
457.614	5.22
457.817	5.19
458.021	5.19
458.224	5.16
458.427	5.15
458.63	5.12
458.833	5.11
459.036	5.03
459.239	5.02
459.442	5.05
459.645	5.12
459.848	5.13
460.051	5.17
460.254	5.19
460.457	5.17
460.66	5.21
460.863	5.21
461.066	5.2
461.269	5.31
461.472	5.4
461.675	5.4
461.878	5.43
462.081	5.37
462.284	5.36
462.486	5.39
462.689	5.5
462.892	5.55
463.095	5.61
463.298	5.66
463.5	5.57
463.703	5.36
463.906	5.34
464.109	5.29
464.311	5.4
464.514	5.36
464.717	5.51
464.92	5.34
465.122	5.32
465.325	5.33
465.528	5.36
465.73	5.41
465.933	5.57
466.135	5.61
466.338	5.75
466.541	5.79
466.743	5.83
466.946	5.69
467.148	5.74
467.351	5.65
467.553	5.7
467.756	5.68
467.958	5.71
468.161	5.7
468.363	5.62
468.566	5.49
468.768	5.43
468.971	5.42
469.173	5.49
469.375	5.52
469.578	5.56
469.78	5.49
469.983	5.51
470.185	5.5
470.387	5.39
470.59	5.49
470.792	5.54
470.994	5.46
471.196	5.59
471.399	5.61
471.601	5.58
471.803	5.52
472.005	5.6
472.208	5.62
472.41	5.6
472.612	5.56
472.814	5.5
473.016	5.6
473.218	5.61
473.421	5.52
473.623	5.44
473.825	5.54
474.027	5.64
474.229	5.58
474.431	5.63
474.633	5.65
474.835	5.67
475.037	5.78
475.239	5.68
475.441	5.68
475.643	5.66
475.845	5.61
476.047	5.56
476.249	5.5
476.451	5.54
476.653	5.42
476.855	5.39
477.057	5.42
477.258	5.43
477.46	5.47
477.662	5.53
477.864	5.52
478.066	5.55
478.268	5.5
478.469	5.54
478.671	5.51
478.873	5.56
479.075	5.57
479.276	5.56
479.478	5.55
479.68	5.45
479.882	5.47
480.083	5.44
480.285	5.45
480.487	5.57
480.688	5.56
480.89	5.6
481.091	5.62
481.293	5.61
481.495	5.59
481.696	5.52
481.898	5.56
482.099	5.48
482.301	5.48
482.502	5.44
482.704	5.37
482.905	5.36
483.107	5.29
483.308	5.27
483.51	5.25
483.711	5.25
483.913	5.26
484.114	5.23
484.315	5.23
484.517	5.23
484.718	5.23
484.92	5.23
485.121	5.26
485.322	5.28
485.524	5.32
485.725	5.36
485.926	5.4
486.127	5.35
486.329	5.32
486.53	5.33
486.731	5.33
486.932	5.35
487.134	5.36
487.335	5.34
487.536	5.35
487.737	5.29
487.938	5.28
488.139	5.23
488.341	5.29
488.542	5.31
488.743	5.33
488.944	5.32
489.145	5.31
489.346	5.3
489.547	5.31
489.748	5.33
489.949	5.37
490.15	5.31
490.351	5.34
490.552	5.35
490.753	5.41
490.954	5.37
491.155	5.37
491.356	5.39
491.557	5.42
491.758	5.4
491.959	5.39
492.159	5.39
492.36	5.48
492.561	5.53
492.762	5.53
492.963	5.5
493.164	5.58
493.364	5.63
493.565	5.6
493.766	5.61
493.967	5.67
494.167	5.7
494.368	5.67
494.569	5.65
494.769	5.64
494.97	5.64
495.171	5.7
495.371	5.75
495.572	5.68
495.773	5.74
495.973	5.77
496.174	5.8
496.375	5.83
496.575	5.88
496.776	5.87
496.976	5.85
497.177	5.88
497.377	5.91
497.578	5.88
497.778	5.88
497.979	5.9
498.179	5.9
498.38	5.86
498.58	5.86
498.78	5.88
498.981	5.88
499.181	5.9
499.382	5.97
499.582	5.91
499.782	5.94
499.983	6.01
500.183	6.03
500.383	6.12
500.584	6.14
500.784	6.14
500.984	6.31
501.184	6.3
501.385	6.31
501.585	6.22
501.785	6.3
501.985	6.36
502.185	6.42
502.386	6.41
502.586	6.36
502.786	6.47
502.986	6.49
503.186	6.42
503.386	6.46
503.586	6.54
503.786	6.49
503.987	6.52
504.187	6.5
504.387	6.53
504.587	6.61
504.787	6.61
504.987	6.57
505.187	6.64
505.387	6.65
505.587	6.69
505.786	6.72
505.986	6.87
506.186	6.91
506.386	6.93
506.586	6.99
506.786	7
506.986	7.03
507.186	7.12
507.386	7.13
507.585	7.16
507.785	7.18
507.985	7.2
508.185	7.26
508.384	7.24
508.584	7.34
508.784	7.35
508.984	7.41
509.183	7.43
509.383	7.47
509.583	7.47
509.782	7.48
509.982	7.56
510.182	7.56
510.381	7.62
510.581	7.68
510.781	7.7
510.98	7.75
511.18	7.82
511.379	7.92
511.579	7.89
511.778	7.98
511.978	8.04
512.177	8.08
512.377	8.15
512.576	8.11
512.776	8.17
512.975	8.18
513.175	8.27
513.374	8.34
513.573	8.45
513.773	8.53
513.972	8.6
514.172	8.63
514.371	8.73
514.57	8.8
514.77	8.9
514.969	8.9
515.168	9.01
515.367	9.07
515.567	9.05
515.766	8.98
515.965	9.07
516.164	9.09
516.364	9.19
516.563	9.2
516.762	9.17
516.961	9.24
517.16	9.39
517.359	9.43
517.559	9.44
517.758	9.54
517.957	9.58
518.156	9.64
518.355	9.71
518.554	9.74
518.753	9.81
518.952	9.91
519.151	9.96
519.35	9.98
519.549	10
519.748	10.04
519.947	10.08
520.146	10.13
520.345	10.22
520.544	10.23
520.743	10.41
520.942	10.42
521.141	10.54
521.339	10.57
521.538	10.69
521.737	10.78
521.936	10.91
522.135	10.97
522.333	11.08
522.532	11.09
522.731	11.23
522.93	11.14
523.129	11.31
523.327	11.39
523.526	11.5
523.725	11.48
523.923	11.54
524.122	11.57
524.321	11.62
524.519	11.66
524.718	11.74
524.917	11.77
525.115	11.84
525.314	11.82
525.512	11.82
525.711	11.88
525.909	11.88
526.108	11.95
526.306	12.03
526.505	12.09
526.703	12.17
526.902	12.18
527.1	12.28
527.299	12.34
527.497	12.4
527.696	12.44
527.894	12.44
528.092	12.49
528.291	12.52
528.489	12.51
528.688	12.53
528.886	12.53
529.084	12.58
529.283	12.59
529.481	12.63
529.679	12.64
529.877	12.71
530.076	12.8
530.274	12.86
530.472	12.93
530.67	13.03
530.869	13.07
531.067	13.15
531.265	13.22
531.463	13.36
531.661	13.45
531.859	13.56
532.057	13.61
532.255	13.65
532.454	13.75
532.652	13.79
532.85	13.81
533.048	13.86
533.246	13.93
533.444	13.96
533.642	13.94
533.84	13.91
534.038	13.91
534.236	13.93
534.434	13.95
534.632	13.93
534.83	13.97
535.027	14.03
535.225	14.09
535.423	14.1
535.621	14.17
535.819	14.19
536.017	14.35
536.215	14.46
536.412	14.58
536.61	14.64
536.808	14.77
537.006	14.85
537.203	14.95
537.401	15.04
537.599	15.12
537.797	15.15
537.994	15.27
538.192	15.23
538.39	15.3
538.587	15.34
538.785	15.51
538.983	15.57
539.18	15.6
539.378	15.65
539.575	15.82
539.773	15.96
539.97	16.14
540.168	16.23
540.366	16.33
540.563	16.34
540.761	16.38
540.958	16.4
541.155	16.43
541.353	16.54
541.55	16.61
541.748	16.63
541.945	16.67
542.143	16.65
542.34	16.74
542.537	16.82
542.735	16.91
542.932	17.02
543.129	17.08
543.327	17.27
543.524	17.41
543.721	17.56
543.919	17.68
544.116	17.8
544.313	18.04
544.51	18.21
544.708	18.42
544.905	18.65
545.102	18.79
545.299	18.97
545.496	19.02
545.693	19.03
545.891	19.07
546.088	19.16
546.285	19.22
546.482	19.2
546.679	19.05
546.876	18.98
547.073	18.96
547.27	18.91
547.467	18.83
547.664	18.81
547.861	18.82
548.058	18.9
548.255	18.9
548.452	18.87
548.649	18.89
548.846	18.98
549.043	19.02
549.24	18.98
549.437	19.07
549.633	19.06
549.83	19.05
550.027	19
550.224	18.81
550.421	18.75
550.618	18.71
550.814	18.61
551.011	18.58
551.208	18.41
551.405	18.46
551.601	18.43
551.798	18.54
551.995	18.51
552.191	18.57
552.388	18.66
552.585	18.66
552.781	18.64
552.978	18.61
553.175	18.65
553.371	18.73
553.568	18.7
553.764	18.77
553.961	18.71
554.157	18.76
554.354	18.68
554.55	18.73
554.747	18.79
554.943	18.79
555.14	18.95
555.336	18.94
555.533	19.01
555.729	18.97
555.926	18.99
556.122	18.99
556.318	18.97
556.515	19.03
556.711	18.97
556.907	19.12
557.104	19.22
557.3	19.21
557.496	19.33
557.693	19.43
557.889	19.66
558.085	19.71
558.281	19.8
558.478	19.87
558.674	19.84
558.87	19.99
559.066	19.91
559.262	19.9
559.459	19.84
559.655	19.97
559.851	20
560.047	19.94
560.243	19.91
560.439	19.85
560.635	19.91
560.831	20.14
561.027	20.04
561.223	20.09
561.419	20.17
561.615	20.35
561.811	20.25
562.007	20.28
562.203	20.4
562.399	20.39
562.595	20.48
562.791	20.44
562.987	20.43
563.183	20.59
563.379	20.7
563.575	20.73
563.771	20.7
563.966	20.73
564.162	20.81
564.358	20.75
564.554	20.88
564.75	21
564.945	21.06
565.141	21.14
565.337	21.05
565.533	20.99
565.728	21.09
565.924	21.06
566.12	21.07
566.315	21.06
566.511	21.02
566.707	21.01
566.902	20.97
567.098	20.99
567.293	20.92
567.489	21.04
567.684	21.14
567.88	21.09
568.076	21.24
568.271	21.33
568.467	21.45
568.662	21.57
568.858	21.56
569.053	21.62
569.248	21.69
569.444	21.76
569.639	21.78
569.835	21.81
570.03	21.85
570.225	21.85
570.421	21.93
570.616	21.84
570.812	21.94
571.007	22
571.202	22.13
571.397	22.1
571.593	22.03
571.788	22.05
571.983	22.07
572.178	22.23
572.374	22.24
572.569	22.23
572.764	22.38
572.959	22.33
573.154	22.42
573.35	22.35
573.545	22.45
573.74	22.6
573.935	22.65
574.13	22.7
574.325	22.7
574.52	22.76
574.715	22.77
574.91	22.8
575.105	22.9
575.3	22.83
575.495	23.01
575.69	23.11
575.885	23.13
576.08	23.26
576.275	23.32
576.47	23.3
576.665	23.45
576.86	23.64
577.055	23.66
577.25	23.71
577.444	23.91
577.639	23.93
577.834	24.08
578.029	24.32
578.224	24.3
578.418	24.5
578.613	24.77
578.808	24.65
579.003	24.65
579.197	24.75
579.392	24.63
579.587	24.62
579.781	24.66
579.976	24.67
580.171	24.66
580.365	24.78
580.56	24.73
580.755	24.71
580.949	24.84
581.144	24.89
581.338	24.96
581.533	25.12
581.727	25.26
581.922	25.33
582.116	25.38
582.311	25.36
582.505	25.33
582.7	25.2
582.894	25.2
583.089	25.19
583.283	25.2
583.478	25.14
583.672	25.32
583.866	25.26
584.061	25.22
584.255	25.1
584.449	25.22
584.644	25.26
584.838	25.36
585.032	25.4
585.226	25.56
585.421	25.74
585.615	25.97
585.809	26
586.003	26.07
586.198	26.09
586.392	26.27
586.586	26.14
586.78	26.3
586.974	26.37
587.168	26.45
587.363	26.38
587.557	26.11
587.751	26.06
587.945	26.01
588.139	26.08
588.333	26.07
588.527	25.97
588.721	26
588.915	25.8
589.109	25.82
589.303	25.75
589.497	25.72
589.691	25.96
589.885	25.86
590.079	25.84
590.273	25.79
590.466	25.72
590.66	25.92
590.854	25.93
591.048	26.14
591.242	26.15
591.436	26.26
591.629	26.5
591.823	26.49
592.017	26.45
592.211	26.55
592.404	26.58
592.598	26.59
592.792	26.47
592.986	26.49
593.179	26.5
593.373	26.44
593.567	26.35
593.76	26.17
593.954	26.17
594.147	26.25
594.341	26.24
594.535	26.28
594.728	26.38
594.922	26.39
595.115	26.32
595.309	26.2
595.502	26.31
595.696	26.31
595.889	26.3
596.083	26.31
596.276	26.4
596.47	26.35
596.663	26.24
596.856	26.15
597.05	26.15
597.243	26.16
597.437	26.12
597.63	26.11
597.823	26.12
598.017	26.16
598.21	26.08
598.403	26.08
598.596	26.12
598.79	26.28
598.983	26.53
599.176	26.55
599.369	26.75
599.563	26.84
599.756	26.91
599.949	26.9
600.142	26.88
600.335	26.96
600.528	26.89
600.722	26.75
600.915	26.72
601.108	26.64
601.301	26.66
601.494	26.49
601.687	26.57
601.88	26.4
602.073	26.44
602.266	26.46
602.459	26.48
602.652	26.45
602.845	26.51
603.038	26.46
603.231	26.36
603.424	26.26
603.617	26.34
603.809	26.34
604.002	26.36
604.195	26.31
604.388	26.28
604.581	26.31
604.774	26.28
604.966	26.32
605.159	26.32
605.352	26.44
605.545	26.54
605.737	26.56
605.93	26.64
606.123	26.67
606.316	26.8
606.508	26.9
606.701	26.86
606.894	27.06
607.086	27.15
607.279	27.43
607.471	27.47
607.664	27.68
607.857	28.01
608.049	28.29
608.242	28.97
608.434	29.39
608.627	30.17
608.819	31.09
609.012	31.89
609.204	32.8
609.397	33.77
609.589	34.86
609.782	36.09
609.974	37.21
610.166	38.5
610.359	39.59
610.551	40.79
610.743	41.57
610.936	42.41
611.128	43.11
611.32	43.64
611.513	43.81
611.705	43.89
611.897	43.75
612.09	43.54
612.282	42.84
612.474	42.2
612.666	41.55
612.858	41.15
613.051	40.3
613.243	39.63
613.435	39.04
613.627	38.49
613.819	38.09
614.011	37.55
614.203	37.01
614.395	36.46
614.588	35.8
614.78	35.26
614.972	34.56
615.164	34.12
615.356	33.62
615.548	33.18
615.74	32.77
615.932	32.45
616.124	32.03
616.315	31.52
616.507	31.27
616.699	31.18
616.891	30.95
617.083	30.73
617.275	30.52
617.467	30.16
617.659	29.85
617.85	29.7
618.042	29.49
618.234	29.36
618.426	29.27
618.618	29.37
618.809	29.01
619.001	29.08
619.193	28.96
619.384	28.78
619.576	28.99
619.768	28.99
619.959	28.95
620.151	28.81
620.343	28.86
620.534	29.08
620.726	29
620.917	29.26
621.109	29.08
621.301	29.03
621.492	29.37
621.684	29.38
621.875	29.55
622.067	29.51
622.258	29.71
622.45	29.71
622.641	29.58
622.832	29.6
623.024	29.65
623.215	29.77
623.407	29.86
623.598	29.67
623.789	29.78
623.981	29.77
624.172	29.97
624.363	29.88
624.555	29.8
624.746	29.74
624.937	29.79
625.129	29.63
625.32	29.71
625.511	29.76
625.702	29.71
625.893	29.55
626.085	29.43
626.276	29.34
626.467	29.37
626.658	29.4
626.849	29.41
627.04	29.44
627.231	29.59
627.422	29.42
627.614	29.43
627.805	29.53
627.996	29.6
628.187	29.88
628.378	30.07
628.569	30.26
628.76	30.47
628.951	30.65
629.142	30.77
629.332	30.84
629.523	31.1
629.714	31.27
629.905	31.3
630.096	31.49
630.287	31.41
630.478	31.39
630.669	31.33
630.859	31.15
631.05	31.19
631.241	30.95
631.432	30.79
631.623	30.67
631.813	30.5
632.004	30.34
632.195	30.13
632.385	29.9
632.576	29.65
632.767	29.33
632.957	29.3
633.148	28.99
633.339	28.98
633.529	29.02
633.72	28.93
633.91	28.84
634.101	28.92
634.292	28.74
634.482	28.54
634.673	28.59
634.863	28.72
635.054	28.78
635.244	28.76
635.435	28.7
635.625	28.46
635.815	28.18
636.006	28.14
636.196	28.03
636.387	28.1
636.577	28.24
636.767	28.21
636.958	28.09
637.148	28.03
637.338	28.2
637.529	28.13
637.719	28.31
637.909	28.46
638.099	28.46
638.29	28.54
638.48	28.63
638.67	28.75
638.86	28.74
639.05	28.75
639.241	28.6
639.431	28.47
639.621	28.63
639.811	28.63
640.001	28.82
640.191	28.84
640.381	28.9
640.571	28.9
640.761	28.85
640.951	28.91
641.141	28.89
641.331	28.93
641.521	28.85
641.711	28.99
641.901	29.08
642.091	29.02
642.281	28.94
642.471	28.87
642.661	28.89
642.851	28.71
643.041	28.61
643.231	28.73
643.42	28.92
643.61	29.27
643.8	28.99
643.99	28.69
644.18	28.55
644.369	28.7
644.559	28.5
644.749	28.55
644.939	28.67
645.128	28.62
645.318	28.48
645.508	28.38
645.697	28.18
645.887	28.21
646.076	28.55
646.266	28.71
646.456	28.83
646.645	29.13
646.835	29.12
647.024	29.07
647.214	29.48
647.403	29.53
647.593	29.52
647.782	29.66
647.972	29.91
648.161	29.83
648.351	29.87
648.54	29.68
648.73	29.77
648.919	29.91
649.108	30.07
649.298	29.77
649.487	29.83
649.677	29.91
649.866	29.86
650.055	29.91
650.244	30.12
650.434	30.08
650.623	30.33
650.812	30.47
651.002	30.25
651.191	30.21
651.38	30.4
651.569	30.35
651.758	30.4
651.947	30.5
652.137	30.42
652.326	30.22
652.515	30.13
652.704	30.02
652.893	29.75
653.082	29.91
653.271	30.03
653.46	29.97
653.649	30.11
653.838	29.96
654.027	29.86
654.216	29.7
654.405	29.64
654.594	29.72
654.783	29.7
654.972	29.56
655.161	29.49
655.35	29.34
655.539	29.48
655.728	29.52
655.916	29.63
656.105	29.68
656.294	29.74
656.483	29.87
656.672	29.83
656.86	29.87
657.049	30.07
657.238	29.82
657.427	29.85
657.615	29.57
657.804	29.56
657.993	29.61
658.181	29.62
658.37	29.69
658.559	29.64
658.747	29.72
658.936	29.65
659.125	29.09
659.313	29.3
659.502	29.32
659.69	29.45
659.879	29.48
660.067	29.53
660.256	29.47
660.444	29.4
660.633	29.32
660.821	29.23
661.01	29.19
661.198	29.85
661.387	29.93
661.575	30.14
661.763	30.13
661.952	29.98
662.14	29.81
662.328	29.85
662.517	29.88
662.705	30.16
662.893	30.12
663.082	30.27
663.27	30.03
663.458	30.12
663.646	29.87
663.834	29.92
664.023	29.98
664.211	30.05
664.399	30
664.587	30.06
664.775	29.99
664.963	30.18
665.152	30.19
665.34	30.3
665.528	30.17
665.716	30.13
665.904	29.99
666.092	29.84
666.28	29.81
666.468	29.85
666.656	29.97
666.844	29.85
667.032	29.88
667.22	29.84
667.408	29.78
667.596	29.67
667.784	29.83
667.971	29.94
668.159	30.09
668.347	29.99
668.535	29.79
668.723	29.81
668.911	30.12
669.098	30.05
669.286	29.91
669.474	30.2
669.662	30.31
669.849	30.12
670.037	30.06
670.225	30.04
670.413	29.87
670.6	29.95
670.788	29.73
670.976	29.39
671.163	29.58
671.351	29.74
671.538	29.72
671.726	29.79
671.913	29.94
672.101	30.03
672.289	30.13
672.476	30.37
672.664	30.62
672.851	30.7
673.039	30.6
673.226	30.43
673.413	30.5
673.601	30.16
673.788	30.21
673.976	30.28
674.163	30.1
674.35	30.12
674.538	30.13
674.725	30.06
674.912	30.03
675.1	30.01
675.287	29.94
675.474	29.96
675.662	30.03
675.849	29.76
676.036	29.54
676.223	29.52
676.411	29.77
676.598	29.84
676.785	30.05
676.972	30.02
677.159	30.16
677.346	30.26
677.533	30.19
677.721	30.29
677.908	30.38
678.095	30.63
678.282	30.89
678.469	30.62
678.656	30.54
678.843	30.37
679.03	30.1
679.217	30.28
679.404	30.5
679.591	30.24
679.778	30.33
679.964	30.4
680.151	30.21
680.338	29.94
680.525	29.87
680.712	29.94
680.899	29.93
681.086	30.14
681.272	30.17
681.459	30.08
681.646	30.3
681.833	30.09
682.02	29.93
682.206	30.05
682.393	30.24
682.58	30.22
682.766	30.33
682.953	30.47
683.14	30.85
683.326	30.83
683.513	30.81
683.7	30.8
683.886	30.71
684.073	31
684.259	31.04
684.446	31.27
684.632	31.55
684.819	31.43
685.005	31.46
685.192	31.33
685.378	31.28
685.565	31.14
685.751	31.7
685.938	32.02
686.124	32.28
686.31	32.38
686.497	32.38
686.683	32.4
686.87	32.3
687.056	32.25
687.242	31.82
687.429	32
687.615	31.91
687.801	31.14
687.987	31.31
688.174	31.14
688.36	30.99
688.546	31
688.732	30.95
688.918	30.95
689.105	30.85
689.291	30.97
689.477	30.49
689.663	30.61
689.849	30.94
690.035	30.71
690.221	30.53
690.407	30.64
690.593	30.56
690.779	30.73
690.965	30.71
691.151	30.87
691.337	31.19
691.523	31.38
691.709	31.5
691.895	31.26
692.081	31.28
692.267	31.04
692.453	31.13
692.639	31.09
692.825	30.84
693.011	31.31
693.196	31.45
693.382	31.44
693.568	31.62
693.754	31.73
693.94	32.21
694.125	32.23
694.311	32.56
694.497	32.68
694.682	32.55
694.868	32.45
695.054	31.89
695.239	31.98
695.425	31.77
695.611	31.64
695.796	31.58
695.982	31.26
696.168	31.12
696.353	31.26
696.539	31.18
696.724	31.32
696.91	31.33
697.095	31.66
697.281	31.39
697.466	31.16
697.652	31.23
697.837	30.96
698.023	30.92
698.208	30.89
698.393	30.73
698.579	30.47
698.764	30.46
698.949	30.27
699.135	30.15
699.32	30.05
699.505	30.34
699.691	30.32
699.876	30.5
700.061	30.61
700.246	30.64
700.432	30.56
700.617	30.73
700.802	30.71
700.987	30.97
701.172	31.47
701.358	31.66
701.543	31.74
701.728	31.96
701.913	31.72
702.098	31.74
702.283	31.93
702.468	32.13
702.653	32.12
702.838	32.39
703.023	32.51
703.208	32.13
703.393	31.81
703.578	31.87
703.763	31.6
703.948	31.99
704.133	32.33
704.318	32.67
704.503	32.39
704.688	32.68
704.873	33.04
705.057	33.49
705.242	33.8
705.427	34.22
705.612	34.59
705.797	35.12
705.981	35.35
706.166	35.27
706.351	35.29
706.536	36.2
706.72	36.12
706.905	35.98
707.09	35.59
707.274	35.57
707.459	35.82
707.644	35.62
707.828	35.43
708.013	35.34
708.197	35.57
708.382	35.56
708.567	35.09
708.751	34.92
708.936	34.68
709.12	35.04
709.305	35.11
709.489	34.85
709.673	34.8
709.858	34.73
710.042	34.92
710.227	34.75
710.411	34.78
710.596	34.73
710.78	34.94
710.964	35.23
711.149	34.78
711.333	34.43
711.517	34.54
711.702	34.14
711.886	34.2
712.07	33.91
712.254	34.03
712.438	33.73
712.623	33.24
712.807	33
712.991	32.4
713.175	32.63
713.359	32.12
713.544	31.75
713.728	31.81
713.912	31.62
714.096	31.48
714.28	31.35
714.464	31
714.648	31.22
714.832	31.18
715.016	30.99
715.2	30.89
715.384	30.9
715.568	31.14
715.752	31.16
715.936	31.04
716.12	31.2
716.304	30.87
716.488	31.29
716.671	31.52
716.855	31.59
717.039	31.94
717.223	31.5
717.407	31.47
717.59	31.77
717.774	31.71
717.958	31.71
718.142	31.24
718.325	31.33
718.509	30.84
718.693	30.57
718.877	30.39
719.06	30.22
719.244	30.71
719.428	30.82
719.611	30.26
719.795	30.18
719.978	30.1
720.162	30.09
720.345	30.18
720.529	30.49
720.713	31.11
720.896	31.69
721.08	31.99
721.263	32.26
721.446	32.51
721.63	32.77
721.813	32.82
721.997	32.79
722.18	32.95
722.364	32.79
722.547	32.66
722.73	31.95
722.914	31.69
723.097	31.32
723.28	30.96
723.464	31.07
723.647	30.98
723.83	31.32
724.013	31.22
724.197	31.38
724.38	31.11
724.563	31.1
724.746	31.45
724.929	31.62
725.112	31.78
725.296	31.35
725.479	31.38
725.662	31.35
725.845	31.42
726.028	31.77
726.211	31.84
726.394	32.39
726.577	32.38
726.76	32.28
726.943	32.06
727.126	31.92
727.309	32.47
727.492	32.37
727.675	32.21
727.858	31.94
728.041	31.76
728.224	32.01
728.407	32.14
728.589	32.06
728.772	32.27
728.955	31.98
729.138	32.11
729.321	32.08
729.503	32.24
729.686	32.12
729.869	32.42
730.052	32.25
730.234	31.84
730.417	31.24
730.6	30.95
730.782	30.69
730.965	31.52
731.148	31.52
731.33	31.49
731.513	31.27
731.695	31.69
731.878	31.13
732.061	31.34
732.243	31.23
732.426	31.49
732.608	31.87
732.791	32.16
732.973	31.19
733.156	31.13
733.338	30.93
733.52	31.31
733.703	31.19
733.885	31.47
734.068	31.46
734.25	31.68
734.432	31.46
734.615	31.7
734.797	31.51
734.979	31.5
735.162	31.97
735.344	32.26
735.526	32.13
735.708	32.24
735.891	32.17
736.073	31.79
736.255	31.62
736.437	31.9
736.619	31.45
736.802	31.14
736.984	31.35
737.166	30.83
737.348	30.49
737.53	30.41
737.712	30.52
737.894	30.48
738.076	31.07
738.258	31.34
738.44	31.6
738.622	31.81
738.804	32
738.986	31.9
739.168	31.88
739.35	31.86
739.532	31.77
739.714	31.55
739.896	31.83
740.078	31.85
740.259	31.91
740.441	32.05
740.623	31.79
740.805	31.56
740.987	31.97
741.168	31.81
741.35	32.01
741.532	32.49
741.714	32.23
741.895	32.18
742.077	32.32
742.259	32.53
742.44	32.46
742.622	32.99
742.804	33.27
742.985	33.52
743.167	33.7
743.348	33.79
743.53	32.96
743.711	33.02
743.893	32.7
744.075	32.41
744.256	32.55
744.438	32.16
744.619	31.66
744.8	31.63
744.982	31.04
745.163	31.69
745.345	31.14
745.526	31.53
745.707	31.53
745.889	31.96
746.07	31.9
746.252	31.3
746.433	31.45
746.614	32.08
746.795	32.1
746.977	32.56
747.158	32.68
747.339	33.33
747.52	33.95
747.702	33.74
747.883	33.48
748.064	33.22
748.245	32.96
748.426	32.34
748.607	32.6
748.788	32.43
748.97	32.39
749.151	31.6
749.332	31.68
749.513	30.92
749.694	31.7
749.875	31.69
750.056	32.09
750.237	32.86
750.418	33.36
750.599	32.2
750.78	32.83
750.96	32.16
751.141	32.22
751.322	31.79
751.503	32.53
751.684	31.76
751.865	32.05
752.046	32.62
752.226	32.09
752.407	32.41
752.588	32.67
752.769	31.96
752.949	32.37
753.13	32.59
753.311	33.25
753.492	32.96
753.672	33.22
753.853	32.8
754.034	32.08
754.214	32.02
754.395	31.78
754.575	32.17
754.756	31.82
754.937	32
755.117	32.43
755.298	31.51
755.478	31.31
755.659	31.54
755.839	32.38
756.02	32.29
756.2	32.56
756.381	32.41
756.561	31.84
756.741	32.31
756.922	32.1
757.102	31.83
757.283	32.77
757.463	32.92
757.643	33.08
757.823	32.79
758.004	33.19
758.184	33.08
758.364	32.82
758.545	33.82
758.725	33.67
758.905	33.66
759.085	33.38
759.265	32.55
759.446	31.69
759.626	31.85
759.806	31.26
759.986	30.82
760.166	30.35
760.346	31
760.526	30.65
760.706	31.36
760.886	31.47
761.066	32.07
761.246	32.72
761.426	33.13
761.606	32.8
761.786	33.11
761.966	33.46
762.146	33.67
762.326	33.46
762.506	32.87
762.686	32.01
762.866	31.84
763.046	31.29
763.225	30.71
763.405	30.5
763.585	30.17
763.765	30.44
763.945	30.24
764.124	30.45
764.304	30.28
764.484	30.6
764.664	30.84
764.843	31.01
765.023	31.08
765.203	31.28
765.382	31.77
765.562	31.94
765.741	31.13
765.921	31.38
766.101	31.34
766.28	30.97
766.46	31.19
766.639	31.67
766.819	31.54
766.998	31.44
767.178	31.53
767.357	31.52
767.537	31.78
767.716	32.14
767.896	31.72
768.075	31.3
768.254	31.56
768.434	31.73
768.613	32.76
768.792	33.51
768.972	34.18
769.151	34.99
769.33	34.42
769.51	34.56
769.689	35.23
769.868	35.35
770.047	35.67
770.226	36.43
770.406	35.86
770.585	34.31
770.764	33.93
770.943	33.41
771.122	32.31
771.301	33.27
771.48	33.55
771.66	33.45
771.839	33.8
772.018	33.38
772.197	32.57
772.376	32.69
772.555	32.54
772.734	32.36
772.913	32.06
773.092	32.97
773.271	32.15
773.449	31.15
773.628	31.71
773.807	31.67
773.986	32.34
774.165	32.78
774.344	32.7
774.523	33.2
774.701	32.93
774.88	33.37
775.059	33.21
775.238	33.36
775.417	34.7
775.595	34.37
775.774	34.4
775.953	34.93
776.131	35.18
776.31	34.71
776.489	34.28
776.667	34.44
776.846	35.14
777.025	34.97
777.203	35.48
777.382	35.69
777.56	34.79
777.739	34.54
777.917	33.99
778.096	33.04
778.274	33.73
778.453	33.62
778.631	33.44
778.81	32.19
778.988	31.97
779.166	31.95
779.345	32.15
779.523	32.6
779.702	31.88
779.88	31.38
780.058	32.98
780.237	32.67
780.415	33.34
780.593	33.8
780.771	33.59
780.95	34.29
781.128	34.53
781.306	33.97
781.484	33.62
781.662	34.09
781.841	34.3
782.019	33.34
782.197	33.56
782.375	33.32
782.553	32.91
782.731	34.03
782.909	32.99
783.087	32.17
783.265	31.9
783.443	32.62
783.621	32.01
783.799	32.42
783.977	32.21
784.155	32.87
784.333	33.38
784.511	32.56
784.689	32.29
784.867	33.49
785.045	34.51
785.223	33.64
785.4	33.63
785.578	34.59
785.756	34.03
785.934	34.29
786.112	33.87
786.289	33.89
786.467	34.3
786.645	34.75
786.823	34.09
787	33.1
787.178	33.15
787.356	32.8
787.533	32.32
787.711	32.91
787.889	33.27
788.066	32.88
788.244	32.04
788.421	32.48
788.599	31.04
788.776	30.3
788.954	30.38
789.131	30.21
789.309	30.15
789.486	30.29
789.664	30.16
789.841	29.73
790.019	30.59
790.196	31.23
790.373	31.16
790.551	32.72
790.728	33.39
790.906	34.82
791.083	34.02
791.26	33.59
791.437	33.36
791.615	32.99
791.792	32.27
791.969	32.1
792.146	31.74
792.324	32.3
792.501	32.16
792.678	32.44
792.855	31.1
793.032	32.26
793.209	32.97
793.387	33.71
793.564	34.56
793.741	35.08
793.918	35.14
794.095	35.17
794.272	33.63
794.449	33.2
794.626	33.3
794.803	33.01
794.98	34.03
795.157	33.91
795.334	34.2
795.511	34.2
795.688	34.43
795.864	33.98
796.041	34.06
796.218	35.46
796.395	34.79
796.572	34.34
796.749	34.75
796.925	34.24
797.102	33.86
797.279	33.34
797.456	32.66
797.632	31.76
797.809	31.3
797.986	31.66
798.162	31.08
798.339	31.87
798.516	33.16
798.692	33.64
798.869	33.57
799.046	33.78
799.222	33.37
799.399	33.49
799.575	34.19
799.752	35.74
799.928	36.64
800.105	37.05
800.281	36.47
800.458	35.92
800.634	35.21
800.811	35.23
800.987	35.27
801.163	35.17
801.34	35.8
801.516	36.11
801.692	35.46
801.869	34.73
802.045	34.81
802.221	34.84
802.398	34.49
802.574	34.46
802.75	35.05
802.926	34.9
803.103	35.58
803.279	35.39
803.455	35.5
803.631	35.22
803.807	34.47
803.983	34.42
804.16	35.83
804.336	35.74
804.512	36.1
804.688	35.68
804.864	37.01
805.04	36.75
805.216	36.27
805.392	34.98
805.568	34.87
805.744	34.09
805.92	33.9
806.096	33.62
806.272	32.54
806.448	33.05
806.623	33.27
806.799	32.58
806.975	33.45
807.151	33.2
807.327	34.95
807.503	35.52
807.678	36.72
807.854	36.99
808.03	36.6
808.206	36.91
808.381	36.4
808.557	36.43
808.733	35.4
808.908	35.03
809.084	35.4
809.26	35.89
809.435	35.49
809.611	35.68
809.787	36.19
809.962	36.76
810.138	36.83
810.313	37.32
810.489	36.58
810.664	36.19
810.84	35.82
811.015	35.67
811.191	35.02
811.366	34.39
811.542	33.71
811.717	32.62
811.892	32.23
812.068	32.66
812.243	32.03
812.419	33.24
812.594	34.44
812.769	35.24
812.944	35.12
813.12	35.14
813.295	35.5
813.47	35.11
813.645	35.95
813.821	35.09
813.996	34.83
814.171	34.91
814.346	35.15
814.521	34.7
814.697	34.26
814.872	34.06
815.047	33.77
815.222	33.61
815.397	33.52
815.572	32.02
815.747	32.42
815.922	33.19
816.097	31.75
816.272	29.62
816.447	30.93
816.622	31.69
816.797	32.37
816.972	31.79
817.147	31.91
817.322	32.1
817.496	32.45
817.671	32.65
817.846	32.05
818.021	33.39
818.196	34.47
818.371	33.77
818.545	32.37
818.72	32.44
818.895	33.29
819.069	32.99
819.244	32.92
819.419	32.9
819.594	32.86
819.768	32.85
819.943	32.29
820.117	31.98
820.292	32.15
820.467	32.36
820.641	31.15
820.816	29.98
820.99	29.57
821.165	29.13
821.339	29.22
821.514	28.86
821.688	28.55
821.863	28.11
822.037	27.8
822.212	27.31
822.386	27.17
822.56	27.3
822.735	27.45
822.909	27.43
823.084	27.38
823.258	27.08
823.432	26.91
823.606	26.83
823.781	27.1
823.955	27.05
824.129	27.19
824.303	27.3
824.478	27.41
824.652	27.43
824.826	27.45
825	27.56
825.174	27.52
825.348	27.8
825.523	28.39
825.697	28.08
825.871	28.39
826.045	27.87
826.219	27.65
826.393	27.4
826.567	27.53
826.741	27.76
826.915	27.77
827.089	27.95
827.263	27.47
827.437	26.91
827.611	27.15
827.784	27.33
827.958	27.9
828.132	28.2
828.306	28.62
828.48	28.34
828.654	28.3
828.827	28.33
829.001	28.67
829.175	29.65
829.349	30.44
829.522	30.19
829.696	31.09
829.87	32.15
830.044	32.02
830.217	31.93
830.391	31.98
830.565	32.08
830.738	32.42
830.912	32.21
831.085	31.42
831.259	30.36
831.432	30.66
831.606	29.01
831.779	28.03
831.953	27.97
832.126	26.93
832.3	26.88
832.473	27.07
832.647	27.83
832.82	27.91
832.994	27.67
833.167	28.51
833.34	28.77
833.514	29.41
833.687	29.84
833.86	30.31
834.034	30.4
834.207	31.24
834.38	31.26
834.553	30.84
834.727	30.89
834.9	31.64
835.073	31.2
835.246	31.71
835.419	31.33
835.593	30.66
835.766	30.3
835.939	31.04
836.112	30.02
836.285	30.36
836.458	31.45
836.631	31.97
836.804	32.94
836.977	33.85
837.15	34.75
837.323	35.88
837.496	37.37
837.669	37.72
837.842	37.23
838.015	38.24
838.188	37.72
838.361	37.1
838.533	36.79
838.706	34.51
838.879	34.87
839.052	33.35
839.225	32.41
839.398	32.14
839.57	33.17
839.743	35.15
839.916	35.09
840.088	35.15
840.261	34.88
840.434	37.05
840.607	39.1
840.779	39.55
840.952	39.84
841.124	40.66
841.297	41.46
841.47	41.94
841.642	40.38
841.815	42.14
841.987	43.89
842.16	44.31
842.332	41.34
842.505	41.05
842.677	41.42
842.85	43.23
843.022	43.74
843.194	43.61
843.367	42.46
843.539	43.08
843.712	41.85
843.884	42.98
844.056	42.67
844.229	45.73
844.401	46.57
844.573	47.98
844.745	47.73
844.918	47.37
845.09	48.03
845.262	48.18
845.434	47.87
845.606	48.64
845.779	45.89
845.951	48.11
846.123	47.22
846.295	47.12
846.467	44.35
846.639	43.57
846.811	44.56
846.983	44.21
847.155	45.52
847.327	47.45
847.499	51.15
847.671	48.44
847.843	48.38
848.015	49.19
848.187	46.75
848.359	48.26
848.531	46.53
848.703	44.34
848.875	37.46
849.047	34.27
849.218	33.64
849.39	29.07
849.562	32.43
849.734	33.91
849.905	33.07
850.077	33.94
850.249	34.13
850.421	32.79
850.592	35.66
850.764	38.89
850.936	44.76
851.107	44.34
851.279	49.11
851.451	48.46
851.622	42.7
851.794	39.18
851.965	39.48
852.137	38.05
852.308	41.02
852.48	38.17
852.651	41.16
852.823	40.73
852.994	40.32
853.166	36.04
853.337	36.61
853.509	40.68
853.68	41.54
853.851	37.57
854.023	37.54
854.194	37.74
854.365	44.3
854.537	45.66
854.708	40.13
854.879	45.12
855.05	48.56
855.222	46.14
855.393	48.05
855.564	49.28
855.735	51.09
855.906	49.73
856.078	48.75
856.249	43.58
856.42	42.24
856.591	43.83
856.762	41.09
856.933	35.64
857.104	39.57
857.275	37.08
857.446	37.04
857.617	41
857.788	40.59
857.959	39.38
858.13	43.13
858.301	44.68
858.472	46.43
858.643	49.18
858.814	53.98
858.985	52.05
859.155	51.19
859.326	49.68
859.497	47.81
859.668	51.12
859.839	53.74
860.009	51.64
860.18	49.81
860.351	48.71
860.522	46.78
860.692	45.63
860.863	44.62
861.034	44.87
861.204	41.94
861.375	42.37
861.546	44.05
861.716	40.69
861.887	45.45
862.057	45.17
862.228	44.55
862.398	44.5
862.569	44.21
862.739	44.03
862.91	42.61
863.08	48.56
863.251	49.9
863.421	47.87
863.592	48.33
863.762	43.55
863.932	46.68
864.103	47.97
864.273	45.16
864.443	46.89
864.614	47.04
864.784	49.53
864.954	51.17
865.125	49.22
865.295	49.18
865.465	49.76
865.635	50.03
865.805	47.66
865.976	48.2
866.146	51.5
866.316	51.51
866.486	50.33
866.656	50.08
866.826	45.1
866.996	45.32
867.166	45.91
867.336	46.86
867.506	51.18
867.676	52.56
867.846	52.39
868.016	51.91
868.186	47.73
868.356	47.24
868.526	49.47
868.696	54.56
868.866	54.86
869.036	53.26
869.206	53.69
869.376	52.37
869.545	51.66
869.715	47.87
869.885	45.21
870.055	48.78
870.224	50.12
870.394	47.62
870.564	45.93
870.734	46.87
870.903	43.01
871.073	43.34
871.243	38.04
871.412	37.55
871.582	40.5
871.751	40.83
871.921	40.93
872.091	44.14
872.26	46.65
872.43	45.6
872.599	44.34
872.769	48.83
872.938	47.69
873.108	52.84
873.277	53.11
873.446	55.24
873.616	56.65
873.785	55.77
873.955	49.45
874.124	48.29
874.293	47.8
874.463	50.01
874.632	53.55
874.801	54.37
874.971	56.23
875.14	55.41
875.309	50.79
875.478	49.15
875.647	47.2
875.817	51.78
875.986	53.51
876.155	54.75
876.324	50.27
876.493	50.58
876.662	51.29
876.831	47.49
877	48.92
877.17	52.28
877.339	55.14
877.508	57.93
877.677	59.48
877.846	58.44
878.015	55.04
878.184	56.65
878.352	51.49
878.521	48.58
878.69	47.57
878.859	45.58
879.028	44.15
879.197	43.13
879.366	41.99
879.534	39.06
879.703	38.4
879.872	38.8
880.041	37.07
880.21	35.13
880.378	33.86
880.547	32.27
880.716	29.62
880.884	29.19
881.053	28.46
881.222	26.85
881.39	27.52
881.559	26.55
881.727	25.78
881.896	25.34
882.065	25.8
882.233	26.44
882.402	26.64
882.57	27.71
882.739	27.8
882.907	27.97
883.076	28.19
883.244	28.11
883.412	29.18
883.581	30.13
883.749	30.48
883.918	30.58
884.086	30.13
884.254	30.54
884.423	30.39
884.591	30.51
884.759	31.4
884.927	32.33
885.096	31.53
885.264	30.25
885.432	29.61
885.6	30.66
885.769	30.73
885.937	32.4
886.105	32.39
886.273	34.93
886.441	35.29
886.609	33.87
886.777	36.93
886.945	40.42
887.113	39.81
887.281	41.22
887.449	39.41
887.617	40.34
887.785	40.64
887.953	39.45
888.121	38.64
888.289	37.6
888.457	39.77
888.625	37.11
888.793	34.87
888.961	36.58
889.129	39.19
889.296	43.44
889.464	43.53
889.632	42.04
889.8	46.25
889.967	44.74
890.135	49.57
