Data from 2938779__Reflection_01.txt Node
Date: Fri Mar 13 13:13:16 EDT 2015
User: robert
Spectrometer: USB4E03002
Autoset integration time: false
Trigger mode: 4
Integration Time (sec): 1.000000E-1
Scans to average: 10
Electric dark correction enabled: false
Nonlinearity correction enabled: false
Boxcar width: 5
Stray light correction enabled: false
XAxis mode: Wavelengths
Stop averaging: false
Number of Pixels in Spectrum: 3648
>>>>>Begin Spectral Data<<<<<
177.575	164.58
177.794	304.11
178.014	481.48
178.233	10.45
178.452	340.54
178.672	88.07
178.891	136.59
179.11	1013.04
179.33	-440.3
179.549	-111.9
179.768	-660
179.987	464.18
180.207	1500
180.426	621.54
180.645	-928.57
180.864	-212.9
181.084	-12.6
181.303	-9.35
181.522	-55.32
181.741	780
181.96	120.32
182.179	86.21
182.398	57.11
182.618	58.55
182.837	-16.61
183.056	-26.15
183.275	-26.28
183.494	-13.35
183.713	-62.43
183.932	-72.76
184.151	-101.79
184.37	-206.9
184.589	-303.93
184.808	-592.22
185.027	-180
185.246	-125.41
185.465	-127.15
185.684	-108.07
185.903	-101.17
186.122	-20.4
186.341	18.65
186.56	39.53
186.779	36.17
186.998	29.9
187.216	39.62
187.435	50
187.654	121.56
187.873	131.12
188.092	115.89
188.311	183.82
188.53	148.56
188.748	290.63
188.967	175
189.186	76.81
189.405	135.25
189.623	134.42
189.842	94.93
190.061	90.63
190.28	90.55
190.498	77.21
190.717	71.29
190.936	71.29
191.154	53.66
191.373	70.31
191.592	63.88
191.81	56.81
192.029	35.66
192.248	38.4
192.466	51.18
192.685	54.52
192.904	63.73
193.122	59.45
193.341	37.28
193.559	55
193.778	44.8
193.996	-10.95
194.215	100
194.433	101.87
194.652	57.43
194.87	98.94
195.089	2900
195.307	411.54
195.526	-138.32
195.744	714.89
195.963	198.36
196.181	195.87
196.399	192.27
196.618	161.68
196.836	177.26
197.055	244.16
197.273	163.74
197.491	-250
197.71	-48.15
197.928	-47.49
198.146	-64.41
198.365	-21.33
198.583	-236.36
198.801	208.3
199.019	182.07
199.238	134.91
199.456	117.56
199.674	144.7
199.892	166.26
200.111	167.77
200.329	124.4
200.547	126.95
200.765	170.62
200.983	90.12
201.202	153.27
201.42	-64.58
201.638	47.83
201.856	-20.62
202.074	34.15
202.292	107.89
202.51	55.81
202.728	54.47
202.946	55.03
203.165	174.6
203.383	-11100
203.601	18.31
203.819	-142.57
204.037	-38.5
204.255	-20.74
204.473	-16.87
204.691	-107.73
204.909	-46.73
205.127	-94.98
205.345	-82.54
205.562	-135.79
205.78	-36.08
205.998	-50.96
206.216	-35.04
206.434	-57.25
206.652	-5.21
206.87	14.48
207.088	19.58
207.306	61.05
207.523	58.04
207.741	52.83
207.959	26.49
208.177	15.91
208.395	-6.71
208.612	-14.78
208.83	0.81
209.048	-65.02
209.266	-1053.33
209.483	1391.18
209.701	2068
209.919	-901.56
210.136	-10420
210.354	1077.78
210.572	288.52
210.79	-221.5
211.007	-57.36
211.225	-276.27
211.442	-84.09
211.66	-16.41
211.878	-1.8
212.095	-34.95
212.313	-37.99
212.53	-46.47
212.748	-62.27
212.966	-18.43
213.183	-40.17
213.401	-43.17
213.618	-51.37
213.836	-51.89
214.053	-55.72
214.271	-51.89
214.488	-10.39
214.705	-16.12
214.923	-14.47
215.14	-0.77
215.358	-11.61
215.575	-10.6
215.793	-1.61
216.01	18.25
216.227	15.48
216.445	7.99
216.662	5.38
216.879	-13.63
217.097	-18.38
217.314	-13.39
217.531	-20.67
217.749	-9.56
217.966	-1.81
218.183	-12.23
218.4	-27.51
218.618	-16.07
218.835	-8.78
219.052	-9.99
219.269	-2.34
219.487	5.12
219.704	-8.54
219.921	-19.15
220.138	-24.87
220.355	-18.74
220.572	-20.71
220.79	-24.39
221.007	-34.93
221.224	-40.76
221.441	-38.58
221.658	-26.99
221.875	-24.19
222.092	-14.48
222.309	-4.94
222.526	-1.88
222.743	-13.76
222.96	-11.49
223.177	-2.25
223.394	-1.95
223.611	-7.16
223.828	6.27
224.045	6.81
224.262	6.57
224.479	2.65
224.696	-1.15
224.913	-0.91
225.13	1.98
225.347	7.37
225.564	6.25
225.781	8.74
225.997	8.03
226.214	5.41
226.431	4.98
226.648	4.53
226.865	6.39
227.082	6.67
227.298	6.01
227.515	4.72
227.732	3.02
227.949	2.76
228.165	2.75
228.382	3.87
228.599	3.28
228.816	3.03
229.032	2.86
229.249	2.39
229.466	2.56
229.682	2.88
229.899	2.82
230.116	2.16
230.332	1.61
230.549	0.84
230.765	-0.06
230.982	0.36
231.199	0.33
231.415	1.19
231.632	0.51
231.848	1.06
232.065	-1.09
232.281	-0.39
232.498	1
232.714	0.54
232.931	2.5
233.147	3.37
233.364	2.6
233.58	0.78
233.797	-0.57
234.013	-0.19
234.23	-1.54
234.446	-0.13
234.662	-1.29
234.879	-1.62
235.095	0.63
235.312	0.6
235.528	-1.56
235.744	-3.28
235.961	-0.1
236.177	-0.24
236.393	-0.56
236.61	-0.51
236.826	-2.28
237.042	-1.37
237.258	-2.2
237.475	-3.9
237.691	-5.46
237.907	-5.29
238.123	-4.1
238.339	-6
238.556	-6
238.772	-5.33
238.988	-5.68
239.204	-4.67
239.42	-3.37
239.636	-1.07
239.853	0.01
240.069	1.35
240.285	2.01
240.501	2.78
240.717	4.35
240.933	5.3
241.149	4.71
241.365	4.6
241.581	4.66
241.797	4.16
242.013	3.74
242.229	3.59
242.445	3.39
242.661	3.71
242.877	3.39
243.093	2.63
243.309	2.1
243.525	2.33
243.741	2.55
243.957	2.84
244.173	2.59
244.388	2.44
244.604	1.59
244.82	1.56
245.036	1.02
245.252	1.09
245.468	1.45
245.683	2.03
245.899	1.84
246.115	2.31
246.331	2.1
246.547	2.23
246.762	2.5
246.978	2.98
247.194	3.02
247.409	3.55
247.625	3.55
247.841	3.31
248.057	3.2
248.272	3.45
248.488	3.49
248.703	3.94
248.919	3.9
249.135	3.51
249.35	3.76
249.566	3.55
249.782	3.05
249.997	3.11
250.213	3.77
250.428	3.64
250.644	2.87
250.859	2.28
251.075	2.66
251.29	2.68
251.506	3.76
251.721	3.18
251.937	3.24
252.152	3.31
252.368	3.47
252.583	3.73
252.798	3.96
253.014	4.75
253.229	5.27
253.445	4.45
253.66	4.67
253.875	4.35
254.091	3.69
254.306	4.3
254.521	4.52
254.737	4.27
254.952	3.28
255.167	3.17
255.383	2.26
255.598	1.66
255.813	1.86
256.028	1.53
256.244	-0.04
256.459	0.9
256.674	0.01
256.889	-0.26
257.104	-0.43
257.32	-0.22
257.535	-0.41
257.75	0.41
257.965	0.64
258.18	0.79
258.395	0.81
258.61	2.02
258.826	2.12
259.041	2.54
259.256	2.48
259.471	2.4
259.686	2.32
259.901	2.35
260.116	2.21
260.331	2.66
260.546	2.29
260.761	2.42
260.976	1.87
261.191	1.6
261.406	1.09
261.621	1.05
261.836	1.01
262.05	0.43
262.265	0.27
262.48	-0.3
262.695	-1.52
262.91	-1.29
263.125	-1.48
263.34	-1.48
263.555	-1.45
263.769	-1.7
263.984	-2.14
264.199	-2.22
264.414	-1.48
264.629	-1.4
264.843	-0.46
265.058	-0.36
265.273	-0.39
265.488	-0.19
265.702	0.32
265.917	0.47
266.132	1.11
266.346	1.31
266.561	1.89
266.776	1.95
266.99	2.15
267.205	1.66
267.42	1.63
267.634	1.63
267.849	1.4
268.063	1.61
268.278	1.68
268.492	1.4
268.707	1.78
268.922	1.05
269.136	1.75
269.351	1.21
269.565	1.83
269.78	2.1
269.994	2.6
270.209	2.51
270.423	2.29
270.637	2.09
270.852	2.18
271.066	2.35
271.281	2.65
271.495	2.24
271.709	2.29
271.924	1.84
272.138	1.79
272.353	1.62
272.567	1.77
272.781	1.86
272.996	1.93
273.21	2.27
273.424	2
273.638	2.13
273.853	2.23
274.067	2.28
274.281	2.62
274.495	2.43
274.71	2.52
274.924	2.68
275.138	2.48
275.352	2.7
275.566	2.02
275.781	1.95
275.995	1.95
276.209	1.84
276.423	1.41
276.637	0.95
276.851	1.32
277.065	1.44
277.279	1.43
277.493	1.34
277.707	1.27
277.921	1.64
278.135	1.72
278.349	1.56
278.563	1.41
278.777	2.13
278.991	2.48
279.205	2.23
279.419	1.95
279.633	1.74
279.847	1.61
280.061	1.36
280.275	0.69
280.489	0.61
280.703	0.61
280.917	0.59
281.131	0.35
281.344	0.18
281.558	0.03
281.772	0.16
281.986	0.22
282.2	0.43
282.414	0.51
282.627	1.09
282.841	0.92
283.055	0.95
283.269	0.93
283.482	1.2
283.696	1.28
283.91	1.22
284.123	1.17
284.337	1.6
284.551	1.54
284.764	1.59
284.978	1.65
285.192	1.98
285.405	2.06
285.619	1.99
285.833	1.78
286.046	1.77
286.26	1.95
286.473	2
286.687	1.62
286.9	1.61
287.114	1.49
287.327	1.15
287.541	0.91
287.754	0.73
287.968	0.82
288.181	1.19
288.395	1.31
288.608	1.48
288.822	1.27
289.035	1.49
289.248	1.35
289.462	1.6
289.675	1.85
289.889	2.07
290.102	2.21
290.315	2.23
290.529	2.06
290.742	2.08
290.955	1.97
291.169	2.52
291.382	2.42
291.595	2.89
291.808	2.89
292.022	2.9
292.235	2.48
292.448	2.29
292.661	2.37
292.875	2.2
293.088	2.35
293.301	2.55
293.514	2.18
293.727	2.53
293.94	2.33
294.153	2.2
294.367	2.09
294.58	2.05
294.793	2.13
295.006	2.17
295.219	2.26
295.432	1.73
295.645	1.67
295.858	1.51
296.071	1.32
296.284	1.1
296.497	1.31
296.71	1.51
296.923	1.95
297.136	1.87
297.349	1.81
297.562	2.1
297.775	2.45
297.988	2.76
298.201	2.86
298.414	2.85
298.626	3.09
298.839	3.09
299.052	2.95
299.265	2.78
299.478	3.29
299.691	3.43
299.903	3.44
300.116	3.31
300.329	2.83
300.542	3.31
300.755	3.15
300.967	2.88
301.18	2.69
301.393	3.02
301.605	2.92
301.818	2.96
302.031	2.92
302.243	2.51
302.456	2.55
302.669	2.54
302.881	2.09
303.094	1.99
303.307	2.39
303.519	2.41
303.732	2.49
303.944	2.31
304.157	2.03
304.37	1.82
304.582	1.64
304.795	1.71
305.007	2.25
305.22	2.15
305.432	2.24
305.645	2.06
305.857	2.25
306.069	2.28
306.282	2.55
306.494	2.37
306.707	2.33
306.919	2.49
307.132	2.68
307.344	2.45
307.556	2.68
307.769	3.11
307.981	3.15
308.193	3
308.406	2.78
308.618	2.67
308.83	2.91
309.043	3.09
309.255	3.05
309.467	2.93
309.679	2.67
309.892	2.42
310.104	2.64
310.316	2.12
310.528	2.08
310.74	2.28
310.953	2.32
311.165	2.16
311.377	2.04
311.589	2.43
311.801	2.29
312.013	2.07
312.225	2.25
312.437	1.89
312.649	2.35
312.862	2.5
313.074	2.33
313.286	2.55
313.498	2.3
313.71	2.51
313.922	2.08
314.134	2.26
314.346	2.49
314.558	2.65
314.77	2.74
314.982	2.84
315.193	2.79
315.405	2.93
315.617	2.9
315.829	3.18
316.041	3.15
316.253	2.89
316.465	3.23
316.677	3.21
316.888	3.08
317.1	2.98
317.312	3.42
317.524	2.93
317.736	2.76
317.947	2.52
318.159	3.02
318.371	3.17
318.583	3.38
318.794	3.15
319.006	3.51
319.218	3.44
319.43	3.24
319.641	3.16
319.853	3.75
320.064	3.74
320.276	3.95
320.488	3.39
320.699	3.24
320.911	3.14
321.123	2.76
321.334	2.16
321.546	2.2
321.757	2.28
321.969	1.51
322.18	1.82
322.392	2.07
322.603	2.01
322.815	1.87
323.026	2.37
323.238	2.58
323.449	2.85
323.661	3.22
323.872	3.43
324.083	3.5
324.295	4.09
324.506	3.76
324.718	3.43
324.929	3.49
325.14	3.74
325.352	3.33
325.563	3.43
325.774	3.25
325.986	3.21
326.197	3.4
326.408	3.75
326.62	3.63
326.831	3.79
327.042	4.02
327.253	3.83
327.464	4.24
327.676	4.36
327.887	4.4
328.098	4.91
328.309	4.68
328.52	4.73
328.732	4.65
328.943	4.64
329.154	4.64
329.365	4.73
329.576	5.02
329.787	5.11
329.998	5.07
330.209	5.18
330.42	5.39
330.631	6.14
330.842	5.64
331.053	5.91
331.264	5.98
331.475	5.74
331.686	5.98
331.897	5.94
332.108	5.7
332.319	6.05
332.53	6.26
332.741	6.58
332.952	6.47
333.163	6.5
333.374	6.04
333.585	6.19
333.795	6.16
334.006	6.27
334.217	6.25
334.428	6.24
334.639	6.07
334.849	5.7
335.06	5.02
335.271	5.1
335.482	5.26
335.692	5.41
335.903	5.25
336.114	5.61
336.325	4.84
336.535	4.86
336.746	4.74
336.957	4.52
337.167	4.87
337.378	5.06
337.589	5.29
337.799	5.31
338.01	5.59
338.22	5.7
338.431	5.46
338.642	6
338.852	6.13
339.063	6.33
339.273	6.55
339.484	6.26
339.694	6.21
339.905	5.71
340.115	5.94
340.326	5.71
340.536	5.48
340.746	5.56
340.957	5.78
341.167	5.62
341.378	5.35
341.588	5.31
341.799	5.43
342.009	5.2
342.219	5.5
342.43	5.14
342.64	5.29
342.85	5.56
343.061	5.58
343.271	5.15
343.481	5.17
343.691	5.26
343.902	5.58
344.112	5.66
344.322	5.51
344.532	5.43
344.743	5.82
344.953	5.86
345.163	5.83
345.373	5.89
345.583	5.81
345.793	5.83
346.004	6
346.214	5.8
346.424	5.68
346.634	5.86
346.844	5.5
347.054	5.33
347.264	5.28
347.474	5.07
347.684	5.2
347.894	5.68
348.104	5.79
348.314	5.6
348.524	5.58
348.734	5.48
348.944	5.57
349.154	5.94
349.364	5.99
349.574	5.91
349.784	6.21
349.994	6.07
350.204	5.9
350.413	6.09
350.623	6.21
350.833	5.95
351.043	6.06
351.253	5.87
351.463	5.96
351.672	5.61
351.882	5.88
352.092	5.63
352.302	5.76
352.511	5.78
352.721	5.52
352.931	5.29
353.141	5.42
353.35	5.09
353.56	5.6
353.77	5.28
353.979	5.33
354.189	5.08
354.399	5.12
354.608	5.27
354.818	4.99
355.027	4.94
355.237	5.26
355.447	5.37
355.656	5.54
355.866	5.25
356.075	5.35
356.285	5.48
356.494	5.25
356.704	5.24
356.913	5.21
357.123	5.3
357.332	5.36
357.542	5.35
357.751	5.32
357.96	5.47
358.17	5.32
358.379	5.16
358.589	5.16
358.798	5.62
359.007	5.63
359.217	5.48
359.426	5.62
359.635	5.68
359.845	5.44
360.054	5.35
360.263	5.46
360.472	5.65
360.682	5.78
360.891	5.88
361.1	5.58
361.309	5.62
361.519	5.46
361.728	5.51
361.937	5.51
362.146	5.66
362.355	5.86
362.564	5.85
362.774	5.77
362.983	5.74
363.192	5.7
363.401	5.72
363.61	5.78
363.819	5.87
364.028	5.52
364.237	5.43
364.446	5.33
364.655	5.11
364.864	5.1
365.073	5.07
365.282	5.11
365.491	5
365.7	5.08
365.909	4.98
366.118	5.17
366.327	5.53
366.536	5.72
366.745	5.72
366.954	5.72
367.162	5.62
367.371	5.61
367.58	5.67
367.789	5.64
367.998	5.48
368.207	5.52
368.415	5.34
368.624	5.11
368.833	4.88
369.042	4.9
369.25	4.97
369.459	4.78
369.668	4.71
369.877	4.52
370.085	4.48
370.294	4.7
370.503	4.91
370.711	5.03
370.92	5.32
371.129	5.15
371.337	4.85
371.546	4.75
371.754	5.02
371.963	5.15
372.171	5.22
372.38	5.31
372.589	5.06
372.797	4.66
373.006	4.32
373.214	4.03
373.423	4.19
373.631	4.5
373.84	4.69
374.048	4.58
374.256	4.63
374.465	4.74
374.673	4.58
374.882	4.63
375.09	4.63
375.298	5.09
375.507	4.92
375.715	4.59
375.923	4.59
376.132	4.44
376.34	4.28
376.548	4.26
376.757	4.05
376.965	4.13
377.173	4.02
377.381	4.15
377.59	3.96
377.798	4.26
378.006	4.39
378.214	4.31
378.423	4.24
378.631	4.26
378.839	4.22
379.047	4.31
379.255	4.51
379.463	4.52
379.671	4.42
379.879	4.32
380.088	4.05
380.296	4.12
380.504	3.93
380.712	4.02
380.92	4.05
381.128	3.93
381.336	3.72
381.544	3.46
381.752	3.34
381.96	3.55
382.168	3.55
382.376	3.78
382.584	3.77
382.791	3.72
382.999	3.6
383.207	3.67
383.415	3.85
383.623	3.86
383.831	3.96
384.039	4.28
384.247	4.08
384.454	4.27
384.662	4.26
384.87	4.21
385.078	4.4
385.285	4.27
385.493	4.27
385.701	4
385.909	4.03
386.116	4.05
386.324	3.76
386.532	3.79
386.739	3.59
386.947	3.42
387.155	3.59
387.362	3.5
387.57	3.58
387.778	3.53
387.985	3.75
388.193	3.87
388.4	3.77
388.608	3.97
388.816	4.01
389.023	4.14
389.231	4.23
389.438	4.19
389.646	4.13
389.853	4.37
390.061	4.51
390.268	4.23
390.475	4.25
390.683	4.21
390.89	4.06
391.098	4
391.305	3.81
391.512	3.75
391.72	3.6
391.927	3.85
392.135	3.67
392.342	3.49
392.549	3.72
392.756	3.44
392.964	3.42
393.171	3.32
393.378	3.14
393.586	3.19
393.793	3.22
394	3.3
394.207	3.14
394.414	3.07
394.622	3.13
394.829	2.89
395.036	3.01
395.243	2.92
395.45	3.08
395.657	3.2
395.864	3.15
396.072	3.04
396.279	3.18
396.486	3.04
396.693	3.28
396.9	3.24
397.107	3.31
397.314	3.38
397.521	3.57
397.728	3.55
397.935	3.8
398.142	3.95
398.349	4.09
398.556	3.69
398.763	3.63
398.97	3.35
399.177	3.25
399.383	3.19
399.59	3.27
399.797	3.31
400.004	3.29
400.211	3.04
400.418	2.71
400.625	2.69
400.831	2.84
401.038	3.15
401.245	3.17
401.452	3.26
401.658	3.3
401.865	3.23
402.072	3.13
402.279	3.08
402.485	3.09
402.692	3.4
402.899	3.41
403.105	3.59
403.312	3.43
403.519	3.49
403.725	3.52
403.932	3.59
404.138	3.77
404.345	3.77
404.552	3.79
404.758	3.87
404.965	3.67
405.171	3.58
405.378	3.37
405.584	3.36
405.791	3.33
405.997	3.26
406.204	3.24
406.41	3.18
406.617	3.34
406.823	3.45
407.029	3.39
407.236	3.42
407.442	3.51
407.649	3.61
407.855	3.62
408.061	3.6
408.268	3.54
408.474	3.54
408.68	3.29
408.887	3.17
409.093	3.01
409.299	2.9
409.505	3.01
409.712	2.92
409.918	3.02
410.124	3.03
410.33	3.23
410.537	3.41
410.743	3.3
410.949	3.36
411.155	3.27
411.361	3.45
411.567	3.56
411.773	3.6
411.98	3.55
412.186	3.36
412.392	3.4
412.598	3.16
412.804	3.03
413.01	3.17
413.216	3.32
413.422	3.25
413.628	3.29
413.834	3.33
414.04	3.26
414.246	3.35
414.452	3.32
414.658	3.41
414.864	3.51
415.07	3.63
415.275	3.67
415.481	3.62
415.687	3.77
415.893	3.65
416.099	3.56
416.305	3.57
416.511	3.6
416.716	3.7
416.922	3.63
417.128	3.55
417.334	3.43
417.539	3.3
417.745	3.26
417.951	3.25
418.157	3.27
418.362	3.28
418.568	3.23
418.774	3.19
418.979	3.3
419.185	3.36
419.391	3.39
419.596	3.5
419.802	3.64
420.008	3.62
420.213	3.63
420.419	3.6
420.624	3.63
420.83	3.71
421.035	3.72
421.241	3.6
421.446	3.54
421.652	3.59
421.857	3.54
422.063	3.46
422.268	3.56
422.474	3.53
422.679	3.57
422.885	3.53
423.09	3.52
423.295	3.53
423.501	3.63
423.706	3.62
423.911	3.66
424.117	3.73
424.322	3.72
424.527	3.6
424.733	3.55
424.938	3.61
425.143	3.65
425.349	3.61
425.554	3.52
425.759	3.45
425.964	3.46
426.169	3.42
426.375	3.35
426.58	3.37
426.785	3.35
426.99	3.37
427.195	3.32
427.4	3.38
427.605	3.41
427.811	3.49
428.016	3.46
428.221	3.48
428.426	3.41
428.631	3.38
428.836	3.28
429.041	3.22
429.246	3.09
429.451	3.04
429.656	2.94
429.861	2.95
430.066	3.02
430.271	3.01
430.476	3
430.681	3.04
430.886	2.9
431.09	3.07
431.295	3.37
431.5	3.6
431.705	3.53
431.91	3.49
432.115	3.44
432.32	3.41
432.524	3.47
432.729	3.6
432.934	3.58
433.139	3.66
433.343	3.61
433.548	3.51
433.753	3.53
433.958	3.69
434.162	3.8
434.367	3.95
434.572	3.94
434.776	3.96
434.981	3.85
435.186	3.94
435.39	4.02
435.595	4.05
435.799	4
436.004	3.91
436.209	3.79
436.413	3.77
436.618	3.62
436.822	3.66
437.027	3.6
437.231	3.53
437.436	3.46
437.64	3.4
437.845	3.35
438.049	3.48
438.253	3.47
438.458	3.52
438.662	3.42
438.867	3.51
439.071	3.49
439.275	3.51
439.48	3.57
439.684	3.57
439.888	3.58
440.093	3.59
440.297	3.53
440.501	3.53
440.706	3.45
440.91	3.48
441.114	3.41
441.318	3.41
441.523	3.4
441.727	3.38
441.931	3.34
442.135	3.32
442.339	3.34
442.543	3.34
442.748	3.29
442.952	3.32
443.156	3.31
443.36	3.38
443.564	3.36
443.768	3.43
443.972	3.27
444.176	3.26
444.38	3.19
444.584	3.27
444.788	3.27
444.992	3.3
445.196	3.28
445.4	3.37
445.604	3.33
445.808	3.34
446.012	3.28
446.216	3.47
446.42	3.49
446.624	3.51
446.828	3.46
447.032	3.44
447.235	3.45
447.439	3.39
447.643	3.31
447.847	3.37
448.051	3.3
448.254	3.31
448.458	3.19
448.662	3.17
448.866	3.22
449.069	3.23
449.273	3.17
449.477	3.19
449.681	3.23
449.884	3.24
450.088	3.22
450.292	3.23
450.495	3.3
450.699	3.25
450.902	3.26
451.106	3.17
451.31	3.21
451.513	3.26
451.717	3.21
451.92	3.27
452.124	3.27
452.327	3.22
452.531	3.27
452.734	3.19
452.938	3.25
453.141	3.27
453.345	3.27
453.548	3.12
453.752	3.06
453.955	3.08
454.158	3.11
454.362	3.1
454.565	3.13
454.769	3.07
454.972	3.06
455.175	3.16
455.379	3.17
455.582	3.35
455.785	3.38
455.988	3.42
456.192	3.37
456.395	3.36
456.598	3.42
456.801	3.4
457.005	3.54
457.208	3.51
457.411	3.49
457.614	3.42
457.817	3.26
458.021	3.3
458.224	3.33
458.427	3.42
458.63	3.33
458.833	3.32
459.036	3.28
459.239	3.24
459.442	3.23
459.645	3.21
459.848	3.21
460.051	3.28
460.254	3.27
460.457	3.28
460.66	3.24
460.863	3.3
461.066	3.28
461.269	3.35
461.472	3.4
461.675	3.44
461.878	3.45
462.081	3.54
462.284	3.51
462.486	3.5
462.689	3.49
462.892	3.47
463.095	3.46
463.298	3.49
463.5	3.47
463.703	3.37
463.906	3.45
464.109	3.43
464.311	3.34
464.514	3.42
464.717	3.41
464.92	3.46
465.122	3.52
465.325	3.63
465.528	3.65
465.73	3.59
465.933	3.59
466.135	3.55
466.338	3.52
466.541	3.54
466.743	3.39
466.946	3.47
467.148	3.43
467.351	3.37
467.553	3.37
467.756	3.33
467.958	3.38
468.161	3.37
468.363	3.43
468.566	3.4
468.768	3.35
468.971	3.35
469.173	3.28
469.375	3.43
469.578	3.46
469.78	3.41
469.983	3.45
470.185	3.37
470.387	3.47
470.59	3.43
470.792	3.44
470.994	3.56
471.196	3.52
471.399	3.57
471.601	3.42
471.803	3.48
472.005	3.44
472.208	3.39
472.41	3.52
472.612	3.51
472.814	3.43
473.016	3.45
473.218	3.41
473.421	3.37
473.623	3.41
473.825	3.35
474.027	3.41
474.229	3.42
474.431	3.41
474.633	3.26
474.835	3.23
475.037	3.36
475.239	3.41
475.441	3.39
475.643	3.57
475.845	3.5
476.047	3.49
476.249	3.37
476.451	3.44
476.653	3.45
476.855	3.48
477.057	3.49
477.258	3.48
477.46	3.38
477.662	3.37
477.864	3.35
478.066	3.36
478.268	3.39
478.469	3.37
478.671	3.24
478.873	3.3
479.075	3.33
479.276	3.34
479.478	3.33
479.68	3.43
479.882	3.43
480.083	3.48
480.285	3.55
480.487	3.68
480.688	3.72
480.89	3.84
481.091	3.81
481.293	3.8
481.495	3.77
481.696	3.73
481.898	3.75
482.099	3.79
482.301	3.76
482.502	3.75
482.704	3.73
482.905	3.75
483.107	3.73
483.308	3.73
483.51	3.72
483.711	3.72
483.913	3.72
484.114	3.71
484.315	3.7
484.517	3.7
484.718	3.68
484.92	3.66
485.121	3.64
485.322	3.65
485.524	3.66
485.725	3.64
485.926	3.65
486.127	3.65
486.329	3.62
486.53	3.62
486.731	3.65
486.932	3.65
487.134	3.66
487.335	3.67
487.536	3.65
487.737	3.63
487.938	3.66
488.139	3.68
488.341	3.68
488.542	3.71
488.743	3.7
488.944	3.69
489.145	3.77
489.346	3.78
489.547	3.79
489.748	3.84
489.949	3.87
490.15	3.85
490.351	3.84
490.552	3.87
490.753	3.91
490.954	3.9
491.155	3.89
491.356	3.82
491.557	3.81
491.758	3.8
491.959	3.74
492.159	3.75
492.36	3.75
492.561	3.78
492.762	3.77
492.963	3.72
493.164	3.75
493.364	3.68
493.565	3.69
493.766	3.63
493.967	3.6
494.167	3.57
494.368	3.56
494.569	3.56
494.769	3.54
494.97	3.56
495.171	3.55
495.371	3.57
495.572	3.71
495.773	3.75
495.973	3.85
496.174	3.86
496.375	3.94
496.575	3.94
496.776	3.97
496.976	3.93
497.177	3.95
497.377	4
497.578	3.98
497.778	3.99
497.979	3.98
498.179	4
498.38	4.01
498.58	3.96
498.78	3.94
498.981	4.03
499.181	4.03
499.382	3.99
499.582	3.97
499.782	3.97
499.983	3.89
500.183	3.88
500.383	3.8
500.584	3.84
500.784	3.85
500.984	3.92
501.184	3.86
501.385	3.97
501.585	4.06
501.785	4.09
501.985	4.14
502.185	4.25
502.386	4.37
502.586	4.47
502.786	4.4
502.986	4.44
503.186	4.51
503.386	4.42
503.586	4.37
503.786	4.31
503.987	4.4
504.187	4.33
504.387	4.25
504.587	4.2
504.787	4.2
504.987	4.32
505.187	4.39
505.387	4.38
505.587	4.51
505.786	4.53
505.986	4.54
506.186	4.49
506.386	4.5
506.586	4.61
506.786	4.65
506.986	4.73
507.186	4.74
507.386	4.78
507.585	4.77
507.785	4.77
507.985	4.91
508.185	4.95
508.384	4.97
508.584	5.07
508.784	5.07
508.984	5.08
509.183	5.04
509.383	5.08
509.583	5.13
509.782	5.15
509.982	5.2
510.182	5.22
510.381	5.32
510.581	5.34
510.781	5.32
510.98	5.32
511.18	5.38
511.379	5.47
511.579	5.5
511.778	5.49
511.978	5.51
512.177	5.5
512.377	5.56
512.576	5.57
512.776	5.7
512.975	5.76
513.175	5.82
513.374	5.77
513.573	5.82
513.773	5.95
513.972	6.01
514.172	6.1
514.371	6.27
514.57	6.25
514.77	6.24
514.969	6.33
515.168	6.5
515.367	6.53
515.567	6.74
515.766	6.71
515.965	6.66
516.164	6.69
516.364	6.75
516.563	6.74
516.762	6.78
516.961	6.9
517.16	6.9
517.359	6.94
517.559	7.06
517.758	7.06
517.957	7.18
518.156	7.28
518.355	7.35
518.554	7.42
518.753	7.49
518.952	7.54
519.151	7.56
519.35	7.54
519.549	7.59
519.748	7.61
519.947	7.61
520.146	7.68
520.345	7.7
520.544	7.78
520.743	7.82
520.942	7.9
521.141	7.99
521.339	8.07
521.538	8.2
521.737	8.29
521.936	8.37
522.135	8.51
522.333	8.56
522.532	8.58
522.731	8.67
522.93	8.76
523.129	8.84
523.327	8.87
523.526	8.91
523.725	8.98
523.923	9.04
524.122	9.1
524.321	9.15
524.519	9.21
524.718	9.36
524.917	9.44
525.115	9.47
525.314	9.53
525.512	9.62
525.711	9.77
525.909	9.89
526.108	9.94
526.306	9.99
526.505	10.09
526.703	10.21
526.902	10.26
527.1	10.34
527.299	10.43
527.497	10.5
527.696	10.57
527.894	10.56
528.092	10.55
528.291	10.6
528.489	10.63
528.688	10.63
528.886	10.64
529.084	10.62
529.283	10.61
529.481	10.6
529.679	10.62
529.877	10.64
530.076	10.7
530.274	10.78
530.472	10.8
530.67	10.92
530.869	11.04
531.067	11.12
531.265	11.24
531.463	11.33
531.661	11.45
531.859	11.53
532.057	11.64
532.255	11.75
532.454	11.85
532.652	11.92
532.85	11.98
533.048	12.02
533.246	12.09
533.444	12.15
533.642	12.23
533.84	12.27
534.038	12.33
534.236	12.38
534.434	12.4
534.632	12.42
534.83	12.48
535.027	12.57
535.225	12.65
535.423	12.73
535.621	12.85
535.819	12.96
536.017	13.03
536.215	13.1
536.412	13.17
536.61	13.25
536.808	13.31
537.006	13.42
537.203	13.5
537.401	13.61
537.599	13.68
537.797	13.72
537.994	13.76
538.192	13.89
538.39	14.07
538.587	14.25
538.785	14.35
538.983	14.5
539.18	14.61
539.378	14.78
539.575	14.96
539.773	15.12
539.97	15.27
540.168	15.42
540.366	15.52
540.563	15.61
540.761	15.71
540.958	15.82
541.155	15.89
541.353	15.98
541.55	15.98
541.748	15.99
541.945	15.97
542.143	16.01
542.34	16.03
542.537	16.11
542.735	16.11
542.932	16.12
543.129	16.2
543.327	16.31
543.524	16.43
543.721	16.65
543.919	16.88
544.116	17.2
544.313	17.52
544.51	17.81
544.708	18.07
544.905	18.36
545.102	18.69
545.299	18.9
545.496	19.1
545.693	19.26
545.891	19.28
546.088	19.28
546.285	19.19
546.482	19.08
546.679	18.93
546.876	18.89
547.073	18.78
547.27	18.64
547.467	18.53
547.664	18.4
547.861	18.21
548.058	18.14
548.255	18.08
548.452	18.01
548.649	17.95
548.846	18.05
549.043	17.87
549.24	17.86
549.437	17.84
549.633	17.84
549.83	17.89
550.027	17.91
550.224	17.99
550.421	17.97
550.618	18
550.814	18.03
551.011	17.96
551.208	18.06
551.405	18.02
551.601	17.94
551.798	17.95
551.995	17.95
552.191	17.97
552.388	17.87
552.585	17.94
552.781	17.94
552.978	17.98
553.175	18.03
553.371	17.91
553.568	17.89
553.764	17.94
553.961	17.92
554.157	17.83
554.354	17.86
554.55	17.86
554.747	17.95
554.943	17.9
555.14	17.83
555.336	17.82
555.533	17.96
555.729	18.04
555.926	18.03
556.122	18.02
556.318	18.07
556.515	18.02
556.711	18.02
556.907	17.81
557.104	17.93
557.3	17.94
557.496	17.82
557.693	17.84
557.889	17.87
558.085	17.84
558.281	17.87
558.478	17.98
558.674	18.08
558.87	18.25
559.066	18.45
559.262	18.54
559.459	18.64
559.655	18.69
559.851	18.77
560.047	18.87
560.243	18.97
560.439	18.93
560.635	18.92
560.831	19
561.027	19
561.223	18.93
561.419	18.85
561.615	18.94
561.811	19.11
562.007	19.13
562.203	19.16
562.399	19.21
562.595	19.33
562.791	19.33
562.987	19.44
563.183	19.49
563.379	19.65
563.575	19.74
563.771	19.67
563.966	19.66
564.162	19.74
564.358	19.66
564.554	19.63
564.75	19.67
564.945	19.78
565.141	19.67
565.337	19.56
565.533	19.6
565.728	19.6
565.924	19.74
566.12	19.78
566.315	19.69
566.511	19.77
566.707	19.89
566.902	19.9
567.098	19.79
567.293	19.82
567.489	19.91
567.684	19.79
567.88	19.81
568.076	19.7
568.271	19.78
568.467	19.82
568.662	19.89
568.858	19.76
569.053	19.76
569.248	19.91
569.444	20.02
569.639	20.1
569.835	20.15
570.03	20.21
570.225	20.2
570.421	20.07
570.616	20.09
570.812	20.05
571.007	20.23
571.202	20.29
571.397	20.28
571.593	20.23
571.788	20.18
571.983	20.23
572.178	20.24
572.374	20.39
572.569	20.44
572.764	20.5
572.959	20.53
573.154	20.5
573.35	20.58
573.545	20.62
573.74	20.69
573.935	20.78
574.13	20.81
574.325	20.84
574.52	20.83
574.715	20.94
574.91	20.93
575.105	20.96
575.3	20.98
575.495	21
575.69	21.02
575.885	21.09
576.08	21.22
576.275	21.27
576.47	21.4
576.665	21.5
576.86	21.56
577.055	21.7
577.25	21.84
577.444	22.01
577.639	22.04
577.834	22.2
578.029	22.27
578.224	22.31
578.418	22.47
578.613	22.55
578.808	22.39
579.003	22.36
579.197	22.4
579.392	22.43
579.587	22.48
579.781	22.63
579.976	22.55
580.171	22.6
580.365	22.42
580.56	22.41
580.755	22.33
580.949	22.42
581.144	22.59
581.338	22.65
581.533	22.65
581.727	22.63
581.922	22.71
582.116	22.79
582.311	22.75
582.505	23.11
582.7	23.21
582.894	23.26
583.089	23.39
583.283	23.3
583.478	23.34
583.672	23.4
583.866	23.43
584.061	23.37
584.255	23.44
584.449	23.53
584.644	23.47
584.838	23.56
585.032	23.71
585.226	23.8
585.421	23.9
585.615	23.94
585.809	24.12
586.003	24.18
586.198	24.29
586.392	24.33
586.586	24.45
586.78	24.33
586.974	24.15
587.168	24.06
587.363	23.9
587.557	23.83
587.751	23.77
587.945	23.66
588.139	23.59
588.333	23.42
588.527	23.4
588.721	23.01
588.915	22.91
589.109	22.87
589.303	22.85
589.497	22.98
589.691	22.96
589.885	22.91
590.079	22.85
590.273	22.78
590.466	22.78
590.66	22.81
590.854	22.99
591.048	23.32
591.242	23.37
591.436	23.5
591.629	23.61
591.823	23.66
592.017	23.65
592.211	23.84
592.404	24
592.598	24.1
592.792	23.98
592.986	24.15
593.179	24.01
593.373	24.04
593.567	24.04
593.76	23.98
593.954	24.09
594.147	24.25
594.341	24.11
594.535	24.11
594.728	24.03
594.922	24.01
595.115	23.79
595.309	23.59
595.502	23.44
595.696	23.33
595.889	23.12
596.083	23.01
596.276	22.8
596.47	22.79
596.663	22.61
596.856	22.62
597.05	22.67
597.243	22.82
597.437	22.95
597.63	23.13
597.823	23.19
598.017	23.4
598.21	23.41
598.403	23.53
598.596	23.54
598.79	23.78
598.983	23.91
599.176	23.97
599.369	24
599.563	24.02
599.756	23.98
599.949	23.97
600.142	23.89
600.335	24.02
600.528	24.17
600.722	24.13
600.915	23.96
601.108	23.84
601.301	23.9
601.494	23.82
601.687	23.84
601.88	23.94
602.073	23.95
602.266	24.04
602.459	23.84
602.652	23.69
602.845	23.74
603.038	23.89
603.231	23.89
603.424	23.83
603.617	23.84
603.809	23.69
604.002	23.62
604.195	23.66
604.388	23.58
604.581	23.57
604.774	23.63
604.966	23.55
605.159	23.47
605.352	23.45
605.545	23.55
605.737	23.76
605.93	23.97
606.123	23.96
606.316	23.99
606.508	24.15
606.701	24.39
606.894	24.42
607.086	24.66
607.279	24.79
607.471	25.05
607.664	25.29
607.857	25.33
608.049	25.58
608.242	26.05
608.434	26.52
608.627	27.33
608.819	28.06
609.012	29.19
609.204	30.24
609.397	31.46
609.589	32.66
609.782	33.78
609.974	35
610.166	36.45
610.359	37.82
610.551	38.95
610.743	39.83
610.936	40.85
611.128	41.37
611.32	41.84
611.513	41.88
611.705	41.86
611.897	41.67
612.09	41.26
612.282	40.65
612.474	39.88
612.666	39.21
612.858	38.55
613.051	37.67
613.243	36.86
613.435	36.06
613.627	35.57
613.819	34.99
614.011	34.33
614.203	33.83
614.395	33.34
614.588	32.81
614.78	32.45
614.972	31.86
615.164	31.38
615.356	30.96
615.548	30.32
615.74	29.88
615.932	29.51
616.124	29.02
616.315	28.77
616.507	28.33
616.699	28.06
616.891	27.63
617.083	27.23
617.275	27.04
617.467	26.84
617.659	26.88
617.85	26.63
618.042	26.32
618.234	26.67
618.426	26.78
618.618	26.77
618.809	26.73
619.001	26.7
619.193	26.75
619.384	26.65
619.576	26.5
619.768	26.49
619.959	26.49
620.151	26.43
620.343	26.32
620.534	26.04
620.726	25.93
620.917	25.82
621.109	25.98
621.301	25.94
621.492	25.99
621.684	26.04
621.875	26.07
622.067	26.1
622.258	26.36
622.45	26.37
622.641	26.37
622.832	26.55
623.024	26.71
623.215	26.65
623.407	26.73
623.598	26.76
623.789	26.87
623.981	26.87
624.172	26.93
624.363	27.02
624.555	26.85
624.746	26.85
624.937	26.75
625.129	26.71
625.32	26.74
625.511	26.74
625.702	26.58
625.893	26.62
626.085	26.52
626.276	26.44
626.467	26.36
626.658	26.41
626.849	26.28
627.04	26.22
627.231	26.25
627.422	26.22
627.614	26.25
627.805	26.37
627.996	26.41
628.187	26.52
628.378	26.74
628.569	26.79
628.76	26.91
628.951	27.25
629.142	27.46
629.332	27.8
629.523	27.9
629.714	28.08
629.905	28.19
630.096	28.22
630.287	28.29
630.478	28.18
630.669	28.17
630.859	28.2
631.05	28.03
631.241	27.97
631.432	27.36
631.623	27.24
631.813	27.04
632.004	26.8
632.195	26.69
632.385	26.54
632.576	26.43
632.767	26.2
632.957	25.9
633.148	25.82
633.339	25.68
633.529	25.83
633.72	25.8
633.91	25.63
634.101	25.59
634.292	25.32
634.482	25.22
634.673	25.09
634.863	25.18
635.054	25.17
635.244	25.06
635.435	25.17
635.625	25.11
635.815	24.85
636.006	24.78
636.196	25.01
636.387	25.24
636.577	25.3
636.767	25.62
636.958	25.43
637.148	25.42
637.338	25.49
637.529	25.57
637.719	25.5
637.909	25.9
638.099	26
638.29	25.95
638.48	25.85
638.67	25.89
638.86	25.63
639.05	25.81
639.241	25.9
639.431	26.06
639.621	25.81
639.811	25.89
640.001	25.89
640.191	26.13
640.381	26.13
640.571	26.22
640.761	26.22
640.951	26.06
641.141	26.04
641.331	26.06
641.521	25.93
641.711	26.17
641.901	26.16
642.091	25.96
642.281	25.83
642.471	25.76
642.661	25.66
642.851	25.79
643.041	26.08
643.231	26.12
643.42	26.22
643.61	26.34
643.8	26.19
643.99	26.27
644.18	26.18
644.369	26.19
644.559	26.21
644.749	26.33
644.939	26.26
645.128	26.11
645.318	26.2
645.508	26.1
645.697	26.06
645.887	26.06
646.076	26.08
646.266	26.02
646.456	25.91
646.645	25.98
646.835	25.89
647.024	25.79
647.214	25.87
647.403	25.74
647.593	25.84
647.782	25.86
647.972	26.06
648.161	26
648.351	26.15
648.54	26.38
648.73	26.4
648.919	26.46
649.108	26.56
649.298	26.74
649.487	27.1
649.677	27.02
649.866	27.07
650.055	27.15
650.244	27.2
650.434	27.41
650.623	27.25
650.812	27.28
651.002	27.33
651.191	27.37
651.38	27.17
651.569	26.96
651.758	26.85
651.947	26.79
652.137	26.47
652.326	26.34
652.515	26.13
652.704	26.18
652.893	26.15
653.082	26.16
653.271	26.07
653.46	26.05
653.649	26.11
653.838	26.33
654.027	26.38
654.216	26.38
654.405	26.51
654.594	26.52
654.783	26.59
654.972	26.49
655.161	26.56
655.35	26.48
655.539	26.65
655.728	26.49
655.916	26.47
656.105	26.19
656.294	26.41
656.483	26.56
656.672	26.57
656.86	26.49
657.049	26.55
657.238	26.33
657.427	26.57
657.615	26.39
657.804	26.61
657.993	26.42
658.181	26.43
658.37	26.31
658.559	26.15
658.747	26.17
658.936	26.23
659.125	26.23
659.313	26.47
659.502	26.32
659.69	26.42
659.879	26.35
660.067	26.48
660.256	26.65
660.444	26.55
660.633	26.73
660.821	26.83
661.01	26.72
661.198	26.72
661.387	26.82
661.575	27.03
661.763	26.91
661.952	27.02
662.14	27.13
662.328	27.31
662.517	27.58
662.705	27.44
662.893	27.4
663.082	27.42
663.27	27.28
663.458	27.12
663.646	27
663.834	27.05
664.023	26.94
664.211	26.97
664.399	26.9
664.587	26.74
664.775	26.85
664.963	26.75
665.152	26.75
665.34	27.02
665.528	26.94
665.716	27.09
665.904	27.26
666.092	27.05
666.28	27.14
666.468	27.05
666.656	27.11
666.844	27.16
667.032	27.5
667.22	27.69
667.408	27.52
667.596	27.55
667.784	27.31
667.971	27.41
668.159	27.62
668.347	27.53
668.535	27.5
668.723	27.55
668.911	27.5
669.098	27.42
669.286	27.14
669.474	27.41
669.662	27.44
669.849	27.51
670.037	27.43
670.225	27.57
670.413	27.39
670.6	27.7
670.788	27.79
670.976	27.65
671.163	27.6
671.351	27.85
671.538	27.68
671.726	27.77
671.913	27.74
672.101	27.83
672.289	27.77
672.476	27.9
672.664	27.74
672.851	27.68
673.039	27.66
673.226	27.51
673.413	27.36
673.601	27.42
673.788	27.26
673.976	27.41
674.163	27.27
674.35	27.26
674.538	27.32
674.725	27.23
674.912	27.32
675.1	27.48
675.287	27.65
675.474	27.64
675.662	27.74
675.849	27.73
676.036	27.72
676.223	27.99
676.411	27.97
676.598	27.85
676.785	27.91
676.972	27.78
677.159	27.85
677.346	27.88
677.533	27.91
677.721	27.75
677.908	27.65
678.095	27.47
678.282	27.2
678.469	26.96
678.656	26.91
678.843	27.16
679.03	27.13
679.217	26.96
679.404	26.87
679.591	27.04
679.778	27
679.964	27.09
680.151	27.25
680.338	27.28
680.525	27.2
680.712	27.27
680.899	27.1
681.086	27.13
681.272	27.15
681.459	27.19
681.646	27.21
681.833	27.32
682.02	27.13
682.206	26.87
682.393	27.08
682.58	27.15
682.766	27.19
682.953	27.27
683.14	27.34
683.326	27.35
683.513	27.41
683.7	27.43
683.886	27.61
684.073	28.24
684.259	28.55
684.446	28.52
684.632	28.91
684.819	28.8
685.005	28.83
685.192	29.07
685.378	29.27
685.565	29.38
685.751	29.4
685.938	29.34
686.124	29.25
686.31	28.94
686.497	29.18
686.683	28.99
686.87	29.2
687.056	29.12
687.242	28.53
687.429	28.66
687.615	28.28
687.801	28.05
687.987	27.85
688.174	27.57
688.36	27.87
688.546	27.39
688.732	27.53
688.918	27.47
689.105	27.32
689.291	27.69
689.477	27.63
689.663	27.81
689.849	27.96
690.035	28.09
690.221	28.22
690.407	28.16
690.593	28.34
690.779	28.34
690.965	28.26
691.151	28.54
691.337	28.58
691.523	28.45
691.709	28.65
691.895	28.89
692.081	28.85
692.267	28.89
692.453	28.98
692.639	29.05
692.825	29.19
693.011	29.43
693.196	29.31
693.382	29.2
693.568	29.23
693.754	29.2
693.94	29.24
694.125	29.25
694.311	29.15
694.497	29.04
694.682	28.71
694.868	28.61
695.054	28.65
695.239	28.48
695.425	28.65
695.611	28.92
695.796	28.58
695.982	28.28
696.168	28.11
696.353	28.03
696.539	28.01
696.724	28.51
696.91	28.19
697.095	27.97
697.281	28.19
697.466	28.12
697.652	27.64
697.837	27.97
698.023	27.89
698.208	27.9
698.393	27.81
698.579	27.76
698.764	27.44
698.949	27.36
699.135	27.4
699.32	27.44
699.505	27.33
699.691	27.41
699.876	27
700.061	27.25
700.246	27.24
700.432	27.5
700.617	27.46
700.802	27.65
700.987	28.01
701.172	27.5
701.358	27.43
701.543	27.64
701.728	27.88
701.913	28.22
702.098	28.31
702.283	28.59
702.468	28.29
702.653	28.97
702.838	28.89
703.023	29.12
703.208	30.09
703.393	30.02
703.578	30.32
703.763	30.42
703.948	30.75
704.133	30.7
704.318	30.89
704.503	31.65
704.688	31.6
704.873	32.2
705.057	32.34
705.242	32.46
705.427	32.8
705.612	32.91
705.797	33.59
705.981	33.81
706.166	33.92
706.351	34.06
706.536	34.1
706.72	34.04
706.905	34.22
707.09	34.19
707.274	34.34
707.459	34.56
707.644	34.7
707.828	34.54
708.013	34.49
708.197	34.55
708.382	34.62
708.567	34.4
708.751	34.28
708.936	34.05
709.12	34.04
709.305	33.88
709.489	33.63
709.673	33.29
709.858	32.79
710.042	32.81
710.227	33.04
710.411	32.97
710.596	32.7
710.78	32.81
710.964	32.69
711.149	32.71
711.333	32.74
711.517	32.63
711.702	32.78
711.886	33.11
712.07	32.82
712.254	32.49
712.438	32.62
712.623	32.54
712.807	32.05
712.991	32.07
713.175	31.82
713.359	31.63
713.544	31.49
713.728	30.87
713.912	30.35
714.096	30.28
714.28	30.25
714.464	30.03
714.648	30.03
714.832	29.97
715.016	29.46
715.2	29.52
715.384	29.27
715.568	29.29
715.752	29.64
715.936	29.86
716.12	29.46
716.304	29.19
716.488	28.92
716.671	28.71
716.855	28.91
717.039	29.02
717.223	28.8
717.407	29.24
717.59	29.22
717.774	28.93
717.958	28.77
718.142	29.1
718.325	29.27
718.509	29.53
718.693	29.74
718.877	29.41
719.06	29.56
719.244	29.41
719.428	29.11
719.611	29.33
719.795	29.65
719.978	29.34
720.162	29.22
720.345	29.24
720.529	28.8
720.713	28.93
720.896	29.45
721.08	29.4
721.263	29.62
721.446	29.4
721.63	29.04
721.813	28.74
721.997	29.25
722.18	29.44
722.364	29.34
722.547	29.52
722.73	29.04
722.914	28.8
723.097	29.11
723.28	29.1
723.464	29.27
723.647	29.29
723.83	29.06
724.013	29.56
724.197	29.55
724.38	29.69
724.563	29.92
724.746	30.25
724.929	30.02
725.112	30.1
725.296	30.03
725.479	29.63
725.662	29.56
725.845	30
726.028	29.67
726.211	29.47
726.394	29.28
726.577	29.06
726.76	28.67
726.943	28.83
727.126	28.08
727.309	28.38
727.492	28.27
727.675	28.35
727.858	28.07
728.041	27.86
728.224	28.12
728.407	27.92
728.589	28.37
728.772	29.25
728.955	29.36
729.138	29.33
729.321	28.58
729.503	29.2
729.686	29.17
729.869	29.33
730.052	29.04
730.234	28.78
730.417	29.18
730.6	28.75
730.782	28.54
730.965	28.11
731.148	28.56
731.33	28.92
731.513	28.86
731.695	29.36
731.878	29.7
732.061	30.26
732.243	31.04
732.426	30.99
732.608	31.18
732.791	31.52
732.973	31.98
733.156	32.27
733.338	32.17
733.52	32.09
733.703	31.81
733.885	31.58
734.068	31.43
734.25	30.79
734.432	30.76
734.615	30.4
734.797	30.12
734.979	30.19
735.162	29.46
735.344	30.23
735.526	30.38
735.708	30.62
735.891	30.37
736.073	30.36
736.255	30.77
736.437	31.06
736.619	31.38
736.802	31.4
736.984	31.11
737.166	32.14
737.348	32.45
737.53	32.45
737.712	32.25
737.894	32.68
738.076	32.64
738.258	32.47
738.44	31.99
738.622	32.06
738.804	31.9
738.986	32.22
739.168	31.74
739.35	30.8
739.532	30.61
739.714	30.23
739.896	30.28
740.078	30.3
740.259	30.17
740.441	30.45
740.623	30.46
740.805	30.28
740.987	30.37
741.168	30.01
741.35	30.46
741.532	31.04
741.714	31.96
741.895	32.18
742.077	32.53
742.259	32.55
742.44	32.45
742.622	32.81
742.804	33.14
742.985	33.31
743.167	33.6
743.348	33.45
743.53	32.92
743.711	32.81
743.893	32.55
744.075	32.34
744.256	32.57
744.438	32.46
744.619	31.99
744.8	32.2
744.982	31.69
745.163	31.87
745.345	32.09
745.526	32.27
745.707	31.85
745.889	31.87
746.07	31.62
746.252	31.4
746.433	31.89
746.614	32.44
746.795	32.57
746.977	33.5
747.158	33.3
747.339	33.62
747.52	34.11
747.702	34.17
747.883	34.49
748.064	35.02
748.245	35.57
748.426	35.06
748.607	35.13
748.788	34.76
748.97	33.96
749.151	33.44
749.332	33.23
749.513	32.59
749.694	32.86
749.875	32.52
750.056	31.65
750.237	31.79
750.418	32.82
750.599	32.29
750.78	32.28
750.96	32.57
751.141	33.29
751.322	33.16
751.503	34.05
751.684	33.39
751.865	34.25
752.046	34.5
752.226	34.33
752.407	33.43
752.588	33.88
752.769	34.47
752.949	34.1
753.13	34.2
753.311	34.19
753.492	33.76
753.672	34.25
753.853	33.51
754.034	34.25
754.214	33.95
754.395	34.36
754.575	33.92
754.756	33.44
754.937	33.23
755.117	33.79
755.298	33.6
755.478	32.98
755.659	33.09
755.839	32.82
756.02	32.87
756.2	33.36
756.381	32.44
756.561	31.98
756.741	31.84
756.922	32.19
757.102	31.13
757.283	31.45
757.463	31.94
757.643	32.2
757.823	31.69
758.004	30.88
758.184	30.65
758.364	30.09
758.545	29.99
758.725	29.57
758.905	29
759.085	28.81
759.265	28.41
759.446	27.88
759.626	27.04
759.806	27.44
759.986	27.99
760.166	27.77
760.346	28.61
760.526	28.99
760.706	29.16
760.886	29.03
761.066	29.89
761.246	29.98
761.426	29.83
761.606	29.87
761.786	29.2
761.966	28.94
762.146	29.19
762.326	28.82
762.506	28.66
762.686	28.78
762.866	29.41
763.046	28.55
763.225	28.52
763.405	28.4
763.585	28.18
763.765	28.76
763.945	28.68
764.124	28.57
764.304	29.04
764.484	29.11
764.664	28.82
764.843	29.09
765.023	29.61
765.203	29.85
765.382	30.48
765.562	30.96
765.741	30.97
765.921	30.88
766.101	30.94
766.28	30.39
766.46	30.9
766.639	31.75
766.819	31.26
766.998	31.1
767.178	31.98
767.357	31.71
767.537	31.94
767.716	32.35
767.896	32.97
768.075	33.11
768.254	33.72
768.434	34.07
768.613	33.53
768.792	33.71
768.972	34.25
769.151	33.56
769.33	33.64
769.51	33.9
769.689	33.56
769.868	33.78
770.047	33.55
770.226	33.81
770.406	33.36
770.585	33.91
770.764	33.77
770.943	33.2
771.122	33.06
771.301	33.52
771.48	34.09
771.66	34.25
771.839	34.15
772.018	35.03
772.197	35.63
772.376	36.15
772.555	36.24
772.734	36.93
772.913	37.1
773.092	37.11
773.271	36.79
773.449	36.6
773.628	36.75
773.807	36.65
773.986	36.26
774.165	35.64
774.344	35.6
774.523	35.42
774.701	34.88
774.88	35.72
775.059	35.44
775.238	36.21
775.417	35.36
775.595	35.48
775.774	35.97
775.953	35.23
776.131	34.99
776.31	34.77
776.489	35.18
776.667	35.38
776.846	35.51
777.025	35.87
777.203	35.81
777.382	36.4
777.56	36.32
777.739	35.99
777.917	36.24
778.096	36.47
778.274	36.11
778.453	35.99
778.631	35.98
778.81	36.12
778.988	36.36
779.166	35.66
779.345	35.2
779.523	35.23
779.702	34.81
779.88	34.42
780.058	34.38
780.237	33.87
780.415	34.13
780.593	34.31
780.771	33.32
780.95	33.68
781.128	34.71
781.306	35.63
781.484	35.57
781.662	36.55
781.841	38.01
782.019	37.99
782.197	38.51
782.375	37.36
782.553	37.18
782.731	37.71
782.909	37.45
783.087	36.99
783.265	36.14
783.443	36.22
783.621	35.72
783.799	35.18
783.977	35.46
784.155	34.43
784.333	35.37
784.511	35
784.689	35.26
784.867	35.2
785.045	34.65
785.223	34.87
785.4	33.87
785.578	34.76
785.756	35.1
785.934	35.88
786.112	35.96
786.289	36.56
786.467	37.15
786.645	36.33
786.823	35.16
787	35.4
787.178	34.87
787.356	35.46
787.533	34.69
787.711	34.31
787.889	33.81
788.066	34.69
788.244	33.53
788.421	32.94
788.599	33.5
788.776	34.19
788.954	34.73
789.131	34.94
789.309	35.46
789.486	35.18
789.664	35.18
789.841	35.26
790.019	34
790.196	34.08
790.373	34.41
790.551	34.88
790.728	35.07
790.906	34.86
791.083	35.09
791.26	33.84
791.437	33.3
791.615	33.94
791.792	33.01
791.969	34.81
792.146	35.26
792.324	35.77
792.501	34.9
792.678	35.41
792.855	34.49
793.032	35.22
793.209	35.99
793.387	36.71
793.564	35.61
793.741	36.74
793.918	36.11
794.095	36.25
794.272	36.01
794.449	35.62
794.626	35.59
794.803	36.47
794.98	35.68
795.157	35.18
795.334	34.55
795.511	33.45
795.688	33.49
795.864	34.84
796.041	34.65
796.218	33.66
796.395	33.26
796.572	32.75
796.749	31.96
796.925	31.28
797.102	31.2
797.279	31.19
797.456	32.21
797.632	31.55
797.809	29.84
797.986	29.2
798.162	30.62
798.339	31.5
798.516	30.95
798.692	32.2
798.869	32.5
799.046	32.88
799.222	33.64
799.399	34.76
799.575	34.34
799.752	34.56
799.928	35.3
800.105	34.07
800.281	34.12
800.458	34.34
800.634	33.83
800.811	33.38
800.987	33.57
801.163	33.36
801.34	31.73
801.516	32.18
801.692	32.62
801.869	33.16
802.045	33.12
802.221	33.9
802.398	34.48
802.574	34.12
802.75	35.8
802.926	35.77
803.103	34.76
803.279	35.73
803.455	34.68
803.631	34.11
803.807	33.57
803.983	35.22
804.16	34.44
804.336	33.21
804.512	32.71
804.688	32.51
804.864	32.49
805.04	33.44
805.216	33.13
805.392	35.36
805.568	36.11
805.744	36.31
805.92	34.01
806.096	33.95
806.272	35.6
806.448	35.41
806.623	33.98
806.799	33.95
806.975	33.88
807.151	34.12
807.327	32.79
807.503	32.78
807.678	31.98
807.854	33.15
808.03	33.95
808.206	32.49
808.381	34.13
808.557	34.39
808.733	34.07
808.908	33.51
809.084	32.09
809.26	33.6
809.435	32.7
809.611	33.28
809.787	34.88
809.962	33.82
810.138	35.45
810.313	33.65
810.489	33.66
810.664	32.85
810.84	32.43
811.015	34.56
811.191	33.65
811.366	33.66
811.542	33.71
811.717	31.6
811.892	31.75
812.068	31.42
812.243	32.29
812.419	33.31
812.594	33.41
812.769	34.76
812.944	32.13
813.12	32.78
813.295	33.57
813.47	32.71
813.645	33.68
813.821	33.69
813.996	32.01
814.171	32.61
814.346	31.52
814.521	31.75
814.697	30.58
814.872	31.7
815.047	30.33
815.222	29.44
815.397	29.96
815.572	28.56
815.747	27.27
815.922	28.77
816.097	27.66
816.272	27.52
816.447	29.06
816.622	30.86
816.797	30.73
816.972	30.07
817.147	29.79
817.322	29.41
817.496	30.16
817.671	31.14
817.846	30.05
818.021	29.84
818.196	29.7
818.371	28.09
818.545	27.4
818.72	27.86
818.895	28.92
819.069	28.71
819.244	28.15
819.419	27.55
819.594	27.11
819.768	26.75
819.943	27.51
820.117	28.18
820.292	28.94
820.467	28.26
820.641	28.43
820.816	27.97
820.99	28.31
821.165	28.17
821.339	28.49
821.514	28.18
821.688	28.05
821.863	27.64
822.037	27.49
822.212	27.32
822.386	27.18
822.56	26.56
822.735	26.65
822.909	26.31
823.084	26.27
823.258	26.09
823.432	26.15
823.606	26.19
823.781	26.16
823.955	26.01
824.129	25.95
824.303	26.02
824.478	26.48
824.652	26.39
824.826	26.39
825	26.21
825.174	26.19
825.348	26.85
825.523	26.69
825.697	26.52
825.871	26.75
826.045	26.97
826.219	27.05
826.393	26.95
826.567	27.05
826.741	27.34
826.915	27.79
827.089	27.65
827.263	26.45
827.437	26.65
827.611	27.45
827.784	27.15
827.958	26.47
828.132	26.89
828.306	26.62
828.48	26.58
828.654	26.53
828.827	26.09
829.001	26.24
829.175	27.03
829.349	26.79
829.522	26.31
829.696	26.91
829.87	27.62
830.044	28.28
830.217	28.83
830.391	28.61
830.565	29.42
830.738	30.06
830.912	29.86
831.085	29.18
831.259	30.42
831.432	28.69
831.606	28.52
831.779	28.06
831.953	27.13
832.126	27.93
832.3	28.73
832.473	27.94
832.647	27.95
832.82	28.42
832.994	28.85
833.167	28.23
833.34	28.84
833.514	28.34
833.687	28.42
833.86	28.04
834.034	27.83
834.207	27.2
834.38	27.87
834.553	28.3
834.727	28.04
834.9	28.07
835.073	27.53
835.246	27.71
835.419	27.71
835.593	27.61
835.766	27.8
835.939	28.86
836.112	29.6
836.285	29.46
836.458	28.94
836.631	28.35
836.804	28.44
836.977	30.12
837.15	31.45
837.323	32.36
837.496	34.23
837.669	35.8
837.842	34.36
838.015	34.17
838.188	33.03
838.361	32.68
838.533	35.64
838.706	35.5
838.879	34.49
839.052	32.92
839.225	32.89
839.398	32.72
839.57	30.24
839.743	29.21
839.916	28.76
840.088	28.59
840.261	29.44
840.434	28.18
840.607	28.43
840.779	28.54
840.952	28.61
841.124	29.86
841.297	29.6
841.47	29.08
841.642	30.42
841.815	30.16
841.987	33.02
842.16	32.35
842.332	30.09
842.505	30.81
842.677	33.18
842.85	33.04
843.022	29.2
843.194	29.33
843.367	31.44
843.539	31.41
843.712	31.68
843.884	31.55
844.056	33.07
844.229	34.39
844.401	34.72
844.573	31.86
844.745	34.89
844.918	36.82
845.09	37.01
845.262	35.47
845.434	35.15
845.606	33.6
845.779	30.6
845.951	32.29
846.123	36.74
846.295	35.41
846.467	36.37
846.639	32.34
846.811	34.53
846.983	32.67
847.155	34.39
847.327	33.3
847.499	36.2
847.671	40.39
847.843	36.87
848.015	35.72
848.187	38.98
848.359	37.82
848.531	40.17
848.703	37.74
848.875	40.78
849.047	38.45
849.218	38.91
849.39	37.45
849.562	34
849.734	32
849.905	28.56
850.077	29.77
850.249	31.67
850.421	29.61
850.592	33.49
850.764	30.36
850.936	32
851.107	32.86
851.279	33.35
851.451	36.12
851.622	38.4
851.794	38.12
851.965	33.52
852.137	28.92
852.308	31.54
852.48	30.26
852.651	32.26
852.823	34.07
852.994	34.56
853.166	36.74
853.337	35.1
853.509	38.89
853.68	38.84
853.851	40.39
854.023	44.98
854.194	47.01
854.365	45.16
854.537	42.73
854.708	43.14
854.879	41.18
855.05	42.96
855.222	44.01
855.393	38.45
855.564	41.78
855.735	39.52
855.906	37.79
856.078	33.6
856.249	35.8
856.42	38.79
856.591	38.26
856.762	40.91
856.933	36.62
857.104	33.56
857.275	35.85
857.446	38.16
857.617	37.68
857.788	42.06
857.959	45.3
858.13	44.31
858.301	45.77
858.472	41.27
858.643	37.67
858.814	40.87
858.985	44.94
859.155	42.85
859.326	40.15
859.497	39.79
859.668	33.91
859.839	29.84
860.009	28.69
860.18	27.35
860.351	30.08
860.522	33.13
860.692	32.62
860.863	32.92
861.034	31.2
861.204	30.02
861.375	33.23
861.546	33.75
861.716	32.16
861.887	32.4
862.057	30.8
862.228	36.46
862.398	32.92
862.569	32.23
862.739	27.47
862.91	33.69
863.08	32.2
863.251	34.81
863.421	35.05
863.592	40.36
863.762	42.31
863.932	43.53
864.103	38.64
864.273	37.32
864.443	34.88
864.614	38.55
864.784	34.93
864.954	37.89
865.125	33.08
865.295	35.7
865.465	31.05
865.635	30.21
865.805	28.19
865.976	26.67
866.146	31.38
866.316	31.62
866.486	28.47
866.656	27.83
866.826	25.42
866.996	23.67
867.166	19.34
867.336	18.69
867.506	17.82
867.676	16
867.846	16.26
868.016	19.31
868.186	18.11
868.356	18.19
868.526	20.41
868.696	20.14
868.866	19.02
869.036	17.36
869.206	19.19
869.376	22.13
869.545	24.93
869.715	29.73
869.885	28.15
870.055	31.11
870.224	34.93
870.394	34.72
870.564	38.29
870.734	41.81
870.903	45.31
871.073	44.78
871.243	43.67
871.412	43.24
871.582	39.38
871.751	36.34
871.921	32.94
872.091	31.2
872.26	29.81
872.43	28.28
872.599	23.87
872.769	21.06
872.938	19.58
873.108	21.5
873.277	21.11
873.446	22.54
873.616	20.89
873.785	20.34
873.955	14.1
874.124	12.56
874.293	9.78
874.463	10.12
874.632	19.48
874.801	20.26
874.971	16.02
875.14	12.88
875.309	12.57
875.478	11.12
875.647	17.01
875.817	23.09
875.986	24.72
876.155	22.27
876.324	25.83
876.493	18.37
876.662	23.39
876.831	22.27
877	20.91
877.17	21.53
877.339	21.94
877.508	22.58
877.677	23.04
877.846	23.47
878.015	28.77
878.184	25.4
878.352	23.83
878.521	19.58
878.69	21.19
878.859	24.08
879.028	25.17
879.197	27.28
879.366	25.86
879.534	24.35
879.703	22.17
879.872	21.66
880.041	24.12
880.21	26.03
880.378	27.47
880.547	27.83
880.716	27.44
880.884	25.49
881.053	24.34
881.222	23.89
881.39	23.58
881.559	24.48
881.727	24.22
881.896	23.8
882.065	23.18
882.233	23.71
882.402	23.14
882.57	22.84
882.739	23.19
882.907	23.48
883.076	23.55
883.244	23.74
883.412	23.8
883.581	24.49
883.749	24.39
883.918	24.56
884.086	22.91
884.254	23.24
884.423	23.79
884.591	23.01
884.759	22.37
884.927	22.26
885.096	22.47
885.264	23.11
885.432	21.6
885.6	22.19
885.769	21.65
885.937	21.9
886.105	22.64
886.273	22.55
886.441	25.41
886.609	28.51
886.777	30.04
886.945	31.79
887.113	31.58
887.281	31.21
887.449	30.57
887.617	30.63
887.785	30.31
887.953	28.53
888.121	28.3
888.289	27.8
888.457	24.75
888.625	23.99
888.793	24.85
888.961	22.55
889.129	24.25
889.296	24.09
889.464	25.3
889.632	28.71
889.8	30.85
889.967	31.05
890.135	31.84
