Data from 2938749__Reflection_03.txt Node
Date: Sat Mar 14 14:47:48 EDT 2015
User: robert
Spectrometer: USB4E03002
Autoset integration time: false
Trigger mode: 4
Integration Time (sec): 1.000000E-1
Scans to average: 10
Electric dark correction enabled: false
Nonlinearity correction enabled: false
Boxcar width: 5
Stray light correction enabled: false
XAxis mode: Wavelengths
Stop averaging: false
Number of Pixels in Spectrum: 3648
>>>>>Begin Spectral Data<<<<<
177.575	-33.17
177.794	-16.83
178.014	-5.37
178.233	-48.02
178.452	-71.9
178.672	-6275
178.891	152.24
179.11	130.3
179.33	91.84
179.549	78.21
179.768	86.8
179.987	81.59
180.207	73.61
180.426	33.42
180.645	12.97
180.864	-9.55
181.084	-73.95
181.303	-125.42
181.522	-91.03
181.741	-89.05
181.96	-130.23
182.179	-107.14
182.398	-79.9
182.618	-37.21
182.837	46.61
183.056	-19.63
183.275	123.81
183.494	110.18
183.713	209.55
183.932	157.8
184.151	112.96
184.37	91.82
184.589	96.46
184.808	91.12
185.027	109.28
185.246	96.07
185.465	134.49
185.684	95.11
185.903	141.19
186.122	119.01
186.341	117.93
186.56	144.81
186.779	171.09
186.998	187.73
187.216	1631.82
187.435	263.27
187.654	1030
187.873	611.9
188.092	587.04
188.311	203.07
188.53	825.58
188.748	-1059.37
188.967	-1339.13
189.186	-254.05
189.405	777.78
189.623	241.98
189.842	227.8
190.061	198.68
190.28	171.49
190.498	148.76
190.717	143
190.936	31.08
191.154	117.05
191.373	133.55
191.592	118.38
191.81	194.66
192.029	172.61
192.248	198.07
192.466	200.5
192.685	192.93
192.904	408.67
193.122	281.75
193.341	-7937.5
193.559	-467.05
193.778	-87.68
193.996	-52.83
194.215	-79.65
194.433	-93.39
194.652	-67.71
194.87	-49.16
195.089	-69.79
195.307	-56.3
195.526	-75
195.744	-393.94
195.963	876.47
196.181	297
196.399	175.12
196.618	113
196.836	90.32
197.055	87.05
197.273	96.9
197.491	80.85
197.71	67.36
197.928	73.84
198.146	57.07
198.365	17.6
198.583	29.48
198.801	28.02
199.019	47.22
199.238	75.65
199.456	97.4
199.674	19.35
199.892	67.55
200.111	54.85
200.329	39.21
200.547	38.77
200.765	61.71
200.983	81.29
201.202	83.33
201.42	104.16
201.638	66.8
201.856	76.34
202.074	112.34
202.292	76.3
202.51	128.3
202.728	127.64
202.946	152.66
203.165	141.18
203.383	-21.37
203.601	65.7
203.819	-1.33
204.037	10.43
204.255	3.75
204.473	7.97
204.691	32.02
204.909	20.1
205.127	18.36
205.345	28.4
205.562	34.86
205.78	31.44
205.998	27.28
206.216	37.82
206.434	42.88
206.652	62.04
206.87	57.43
207.088	42.83
207.306	56.93
207.523	77.26
207.741	106.55
207.959	90.63
208.177	18.62
208.395	-11.07
208.612	-15.74
208.83	-20.77
209.048	-17.92
209.266	-21.34
209.483	-0.86
209.701	7.82
209.919	8.47
210.136	-14.42
210.354	11.69
210.572	70.82
210.79	96.58
211.007	162.66
211.225	224.29
211.442	155.68
211.66	102.89
211.878	64.59
212.095	-140.53
212.313	-134.22
212.53	-76.31
212.748	-60.1
212.966	-65.91
213.183	-94.8
213.401	-109.36
213.618	-103.49
213.836	-124.73
214.053	-215.87
214.271	-373.03
214.488	-95.13
214.705	-68.42
214.923	-148.19
215.14	-100.47
215.358	-96.72
215.575	-15.56
215.793	7.95
216.01	19.96
216.227	71.23
216.445	85.62
216.662	61.87
216.879	68.97
217.097	44.46
217.314	36.2
217.531	44.21
217.749	57.81
217.966	48.24
218.183	43.73
218.4	37.17
218.618	32.37
218.835	49.21
219.052	51.51
219.269	43.86
219.487	36.62
219.704	38.29
219.921	29.38
220.138	37.16
220.355	37.85
220.572	31.88
220.79	26.7
221.007	28.12
221.224	18.45
221.441	17.85
221.658	21.17
221.875	29.22
222.092	30.8
222.309	25.75
222.526	15.76
222.743	12.04
222.96	8.56
223.177	13.64
223.394	10.97
223.611	5.84
223.828	2.33
224.045	5.12
224.262	3.76
224.479	2.12
224.696	4.1
224.913	3.33
225.13	4.25
225.347	11.54
225.564	13.6
225.781	18.77
225.997	20.9
226.214	22.97
226.431	21.31
226.648	17.93
226.865	18.18
227.082	18.8
227.298	16.98
227.515	16.84
227.732	15.65
227.949	15
228.165	13.7
228.382	13.03
228.599	12.55
228.816	11.8
229.032	13.15
229.249	11.98
229.466	12.37
229.682	12.38
229.899	12.18
230.116	12.05
230.332	12.21
230.549	11.52
230.765	10.76
230.982	11.29
231.199	11.59
231.415	11.33
231.632	12.54
231.848	10.76
232.065	12.14
232.281	12.58
232.498	12.8
232.714	13.26
232.931	13.56
233.147	13.14
233.364	11.19
233.58	10.06
233.797	9.66
234.013	10
234.23	10.34
234.446	9.88
234.662	8.6
234.879	7.33
235.095	7.28
235.312	8.3
235.528	10.05
235.744	10.39
235.961	11.73
236.177	12.54
236.393	12.72
236.61	15.05
236.826	13.02
237.042	14.32
237.258	14.71
237.475	15.98
237.691	16.16
237.907	14.52
238.123	15.32
238.339	15.63
238.556	15.77
238.772	14.74
238.988	13.13
239.204	14.37
239.42	13.12
239.636	13.64
239.853	13.16
240.069	12.12
240.285	12.51
240.501	12.44
240.717	10.94
240.933	8.81
241.149	8.58
241.365	8.51
241.581	8.81
241.797	9.14
242.013	9.01
242.229	8.96
242.445	9.44
242.661	9.31
242.877	8.94
243.093	9.58
243.309	9.89
243.525	9.64
243.741	9.25
243.957	9.15
244.173	8.68
244.388	8.8
244.604	8.89
244.82	8.67
245.036	8.89
245.252	8.93
245.468	8.75
245.683	8.76
245.899	9.26
246.115	9.28
246.331	8.93
246.547	9.35
246.762	9.11
246.978	8.89
247.194	8.66
247.409	8.47
247.625	8.34
247.841	8.04
248.057	7.93
248.272	7.97
248.488	7.92
248.703	8.18
248.919	7.91
249.135	8.03
249.35	7.5
249.566	7.45
249.782	7.44
249.997	7.57
250.213	7.58
250.428	7.76
250.644	7.12
250.859	6.91
251.075	6.64
251.29	6.27
251.506	5.68
251.721	6.2
251.937	5.84
252.152	6.16
252.368	5.63
252.583	5.44
252.798	5.31
253.014	5.27
253.229	5.26
253.445	4.79
253.66	4.63
253.875	4.95
254.091	4.75
254.306	5.04
254.521	4.92
254.737	5.22
254.952	6.75
255.167	6.86
255.383	7.8
255.598	7.26
255.813	7.27
256.028	7.04
256.244	7.28
256.459	7.02
256.674	7.27
256.889	7.47
257.104	7.1
257.32	6.12
257.535	5.68
257.75	5.04
257.965	6.22
258.18	5.76
258.395	5.56
258.61	5.04
258.826	4.99
259.041	5.1
259.256	4.9
259.471	5.43
259.686	5.52
259.901	5.64
260.116	5.81
260.331	5.73
260.546	5.87
260.761	6.25
260.976	6.73
261.191	6.71
261.406	6.63
261.621	6.82
261.836	6.54
262.05	6.85
262.265	7.14
262.48	7.27
262.695	7.13
262.91	7.66
263.125	7.58
263.34	7.02
263.555	7.4
263.769	7.52
263.984	7.55
264.199	7.04
264.414	6.61
264.629	6.5
264.843	6.26
265.058	5.78
265.273	5.22
265.488	5
265.702	4.89
265.917	5.02
266.132	5.2
266.346	5.33
266.561	5.72
266.776	6.1
266.99	6.07
267.205	6.31
267.42	6.12
267.634	6.07
267.849	6.08
268.063	6.27
268.278	5.72
268.492	5.31
268.707	5.23
268.922	5.22
269.136	4.86
269.351	4.71
269.565	3.98
269.78	4.5
269.994	4.74
270.209	4.72
270.423	4.71
270.637	5.03
270.852	4.98
271.066	4.94
271.281	5.07
271.495	5.1
271.709	5.02
271.924	5.37
272.138	4.97
272.353	4.99
272.567	5.16
272.781	5.09
272.996	5.09
273.21	4.77
273.424	4.4
273.638	4.26
273.853	4.02
274.067	4.37
274.281	4.28
274.495	4.81
274.71	4.89
274.924	4.32
275.138	4.26
275.352	4.27
275.566	4.77
275.781	5.35
275.995	5.54
276.209	5.7
276.423	5.38
276.637	5.43
276.851	5
277.065	4.93
277.279	4.78
277.493	5.37
277.707	5.57
277.921	5.46
278.135	4.95
278.349	5.16
278.563	5
278.777	5.11
278.991	5.12
279.205	5.55
279.419	5.25
279.633	5.28
279.847	4.6
280.061	4.34
280.275	4.05
280.489	3.57
280.703	3.47
280.917	3.45
281.131	3.41
281.344	3.66
281.558	3.49
281.772	3.65
281.986	3.79
282.2	3.83
282.414	3.94
282.627	4.24
282.841	4.74
283.055	4.66
283.269	5.22
283.482	5.21
283.696	5.05
283.91	5.24
284.123	5.24
284.337	5.52
284.551	5.35
284.764	5.31
284.978	5.32
285.192	5.57
285.405	5.56
285.619	5.18
285.833	5.38
286.046	5.18
286.26	5.12
286.473	4.93
286.687	4.95
286.9	5.45
287.114	5.34
287.327	5.56
287.541	5.43
287.754	5.4
287.968	5.2
288.181	4.96
288.395	5.04
288.608	5.05
288.822	5.8
289.035	5.6
289.248	5.26
289.462	5.29
289.675	5.45
289.889	5.15
290.102	5.18
290.315	5.78
290.529	5.82
290.742	5.99
290.955	5.61
291.169	5.29
291.382	5.67
291.595	5.64
291.808	5.93
292.022	5.89
292.235	6.33
292.448	6.3
292.661	5.81
292.875	5.96
293.088	6.02
293.301	6.5
293.514	6.35
293.727	6.25
293.94	6.13
294.153	5.69
294.367	5.51
294.58	5.18
294.793	5.2
295.006	5.71
295.219	5.64
295.432	5.62
295.645	5.65
295.858	5.43
296.071	5.21
296.284	5.37
296.497	5.6
296.71	5.4
296.923	5.62
297.136	5.59
297.349	5.26
297.562	5.28
297.775	5.23
297.988	4.99
298.201	5.34
298.414	5.17
298.626	5.13
298.839	5.02
299.052	5.14
299.265	5.21
299.478	5.37
299.691	5.35
299.903	5.47
300.116	5.39
300.329	5.55
300.542	5.85
300.755	6.25
300.967	6.48
301.18	6.7
301.393	6.45
301.605	6.35
301.818	6.39
302.031	6.1
302.243	5.7
302.456	5.69
302.669	5.29
302.881	4.54
303.094	4.35
303.307	4.5
303.519	4.23
303.732	4.66
303.944	4.72
304.157	4.7
304.37	5.23
304.582	5.53
304.795	5.83
305.007	6.42
305.22	6.43
305.432	6.6
305.645	6.36
305.857	6.85
306.069	6.56
306.282	6.68
306.494	6.4
306.707	6.52
306.919	6.51
307.132	6.34
307.344	6.3
307.556	6.4
307.769	6.61
307.981	6.76
308.193	6.94
308.406	6.97
308.618	6.51
308.83	6.81
309.043	6.88
309.255	7.28
309.467	7.51
309.679	7.49
309.892	7.69
310.104	7.32
310.316	7.38
310.528	7.24
310.74	7.38
310.953	7.67
311.165	7.56
311.377	7.36
311.589	7.29
311.801	7.24
312.013	7.31
312.225	7.48
312.437	7.65
312.649	7.86
312.862	7.67
313.074	7.66
313.286	7.69
313.498	7.73
313.71	7.86
313.922	8.12
314.134	7.76
314.346	7.86
314.558	7.91
314.77	7.96
314.982	7.62
315.193	8.01
315.405	8.06
315.617	8.05
315.829	8.21
316.041	8.53
316.253	8.01
316.465	8.13
316.677	8.35
316.888	8.29
317.1	8.39
317.312	8.45
317.524	8.01
317.736	8.41
317.947	9
318.159	9.23
318.371	8.97
318.583	9.14
318.794	9.67
319.006	9.39
319.218	9.26
319.43	9.24
319.641	9.35
319.853	9.21
320.064	9.32
320.276	9.04
320.488	9.11
320.699	9.32
320.911	9.44
321.123	8.96
321.334	9.21
321.546	9.63
321.757	10.15
321.969	9.86
322.18	10.69
322.392	10.52
322.603	10.64
322.815	10.69
323.026	10.15
323.238	9.82
323.449	10.08
323.661	10.18
323.872	9.85
324.083	9.61
324.295	10.11
324.506	9.74
324.718	9.95
324.929	9.97
325.14	10.27
325.352	11.1
325.563	11.45
325.774	11.92
325.986	12.11
326.197	12.48
326.408	12.78
326.62	12.82
326.831	13.11
327.042	13.25
327.253	13.28
327.464	13.11
327.676	13.31
327.887	13.34
328.098	13.42
328.309	13.5
328.52	13.62
328.732	13.62
328.943	13.53
329.154	13.8
329.365	13.67
329.576	14
329.787	13.79
329.998	13.57
330.209	14.3
330.42	13.96
330.631	13.5
330.842	13.75
331.053	14.18
331.264	14.62
331.475	14.8
331.686	15.1
331.897	15.25
332.108	15.22
332.319	15.5
332.53	15.27
332.741	15.39
332.952	15.82
333.163	15.67
333.374	15.84
333.585	15.89
333.795	15.97
334.006	16.11
334.217	16
334.428	16.53
334.639	16.51
334.849	16.09
335.06	16.09
335.271	16.08
335.482	16.19
335.692	16.33
335.903	16.3
336.114	16.23
336.325	15.83
336.535	15.82
336.746	15.9
336.957	16.19
337.167	16.77
337.378	16.8
337.589	16.83
337.799	16.58
338.01	16.14
338.22	16.19
338.431	16.14
338.642	16.13
338.852	16.33
339.063	16.07
339.273	15.89
339.484	15.78
339.694	16.27
339.905	16.13
340.115	16.43
340.326	16.37
340.536	16.58
340.746	16.59
340.957	16.51
341.167	16.11
341.378	16.41
341.588	16.2
341.799	15.82
342.009	15.34
342.219	15.5
342.43	15.12
342.64	15.38
342.85	15.02
343.061	15.13
343.271	15.4
343.481	15.65
343.691	15.5
343.902	15.45
344.112	15.75
344.322	15.59
344.532	15.75
344.743	15.86
344.953	15.49
345.163	15.49
345.373	15.27
345.583	15.17
345.793	15.09
346.004	15.39
346.214	15.4
346.424	15.17
346.634	15.53
346.844	15.63
347.054	16.1
347.264	16.23
347.474	16.3
347.684	16.52
347.894	16.35
348.104	16.56
348.314	16.41
348.524	16.69
348.734	16.8
348.944	16.66
349.154	16.04
349.364	15.45
349.574	15.64
349.784	15.59
349.994	15.24
350.204	15.51
350.413	15.22
350.623	14.59
350.833	14.39
351.043	14.45
351.253	14.68
351.463	14.99
351.672	15.33
351.882	15.15
352.092	15.37
352.302	15.62
352.511	15.31
352.721	15.15
352.931	15.23
353.141	14.82
353.35	14.75
353.56	14.59
353.77	14.55
353.979	14.38
354.189	14.55
354.399	14.42
354.608	14.34
354.818	14.6
355.027	14.88
355.237	15.07
355.447	15.31
355.656	15.35
355.866	14.94
356.075	14.96
356.285	14.76
356.494	14.55
356.704	14.4
356.913	14.25
357.123	14.17
357.332	14.02
357.542	13.94
357.751	13.75
357.96	13.62
358.17	13.83
358.379	13.75
358.589	14.11
358.798	14.18
359.007	14.21
359.217	14.15
359.426	13.84
359.635	14.13
359.845	13.78
360.054	13.94
360.263	13.93
360.472	13.82
360.682	13.63
360.891	13.43
361.1	13.57
361.309	13.47
361.519	13.62
361.728	13.94
361.937	13.8
362.146	13.91
362.355	13.84
362.564	13.85
362.774	13.9
362.983	14.08
363.192	14.12
363.401	13.83
363.61	13.81
363.819	13.85
364.028	13.79
364.237	13.63
364.446	13.9
364.655	13.82
364.864	13.88
365.073	14.01
365.282	14.09
365.491	14.2
365.7	14.22
365.909	14.42
366.118	14.29
366.327	14.34
366.536	14.4
366.745	14.34
366.954	14.52
367.162	14.46
367.371	14.45
367.58	14.27
367.789	13.84
367.998	13.75
368.207	13.86
368.415	13.84
368.624	13.62
368.833	13.68
369.042	13.61
369.25	13.62
369.459	13.74
369.668	13.65
369.877	13.4
370.085	13.54
370.294	13.41
370.503	13.01
370.711	12.8
370.92	12.69
371.129	12.59
371.337	12.57
371.546	12.36
371.754	12
371.963	11.95
372.171	12.04
372.38	11.91
372.589	12.19
372.797	12.29
373.006	12.35
373.214	12.25
373.423	12.23
373.631	12.05
373.84	11.76
374.048	11.84
374.256	11.67
374.465	11.66
374.673	11.8
374.882	11.84
375.09	11.65
375.298	11.76
375.507	11.87
375.715	11.77
375.923	11.77
376.132	12.06
376.34	11.91
376.548	12.03
376.757	12.02
376.965	11.81
377.173	11.46
377.381	11.69
377.59	11.51
377.798	11.38
378.006	11.48
378.214	11.52
378.423	11.35
378.631	11.35
378.839	11.15
379.047	11.14
379.255	11.08
379.463	11.22
379.671	10.86
379.879	10.75
380.088	10.67
380.296	10.57
380.504	10.66
380.712	10.71
380.92	10.46
381.128	10.47
381.336	10.5
381.544	10.58
381.752	10.28
381.96	10.36
382.168	10.52
382.376	10.66
382.584	10.28
382.791	10.15
382.999	10.02
383.207	10.26
383.415	10.16
383.623	10.29
383.831	10.44
384.039	10.36
384.247	10.39
384.454	10.27
384.662	10.18
384.87	10.21
385.078	10.1
385.285	10.09
385.493	9.94
385.701	9.88
385.909	9.62
386.116	9.44
386.324	9.7
386.532	9.53
386.739	9.36
386.947	9.31
387.155	9.34
387.362	9.45
387.57	9.5
387.778	9.43
387.985	9.54
388.193	9.44
388.4	9.33
388.608	9.24
388.816	9.17
389.023	9.42
389.231	9.35
389.438	9.25
389.646	9.22
389.853	8.99
390.061	9.13
390.268	9.06
390.475	8.98
390.683	9.17
390.89	9.29
391.098	9.47
391.305	9.14
391.512	9.07
391.72	9.19
391.927	8.96
392.135	9.06
392.342	8.94
392.549	8.95
392.756	9.02
392.964	8.95
393.171	8.84
393.378	8.73
393.586	8.9
393.793	8.78
394	8.51
394.207	8.59
394.414	8.53
394.622	8.51
394.829	8.44
395.036	8.34
395.243	8.23
395.45	7.97
395.657	7.89
395.864	7.71
396.072	7.67
396.279	7.86
396.486	7.59
396.693	7.44
396.9	7.4
397.107	7.18
397.314	7.13
397.521	7.08
397.728	7.17
397.935	7.12
398.142	7
398.349	7.08
398.556	7.1
398.763	7.19
398.97	7.18
399.177	7.19
399.383	7.2
399.59	6.84
399.797	6.95
400.004	6.86
400.211	6.78
400.418	6.91
400.625	6.72
400.831	6.63
401.038	6.52
401.245	6.55
401.452	6.34
401.658	6.42
401.865	6.58
402.072	6.44
402.279	6.43
402.485	6.51
402.692	6.61
402.899	6.75
403.105	6.73
403.312	6.75
403.519	6.81
403.725	6.92
403.932	6.96
404.138	6.96
404.345	6.92
404.552	7.05
404.758	7.1
404.965	7.01
405.171	7.03
405.378	6.97
405.584	7.06
405.791	7.09
405.997	7.21
406.204	7.11
406.41	7.22
406.617	7.16
406.823	7.17
407.029	7.06
407.236	6.99
407.442	6.97
407.649	6.94
407.855	6.89
408.061	6.81
408.268	6.74
408.474	6.8
408.68	6.7
408.887	6.87
409.093	6.84
409.299	6.79
409.505	6.85
409.712	6.79
409.918	6.79
410.124	6.86
410.33	6.72
410.537	6.59
410.743	6.59
410.949	6.74
411.155	6.58
411.361	6.48
411.567	6.62
411.773	6.46
411.98	6.49
412.186	6.36
412.392	6.22
412.598	6.32
412.804	6.41
413.01	6.29
413.216	6.25
413.422	6.27
413.628	6.34
413.834	6.26
414.04	6.22
414.246	6.16
414.452	6.18
414.658	6.16
414.864	6.04
415.07	6.02
415.275	6.08
415.481	5.92
415.687	5.84
415.893	5.74
416.099	5.67
416.305	5.77
416.511	5.7
416.716	5.73
416.922	5.71
417.128	5.74
417.334	5.78
417.539	5.72
417.745	5.78
417.951	5.82
418.157	5.73
418.362	5.75
418.568	5.67
418.774	5.71
418.979	5.77
419.185	5.76
419.391	5.78
419.596	5.73
419.802	5.71
420.008	5.64
420.213	6.16
420.419	6.13
420.624	6.07
420.83	6.1
421.035	6.13
421.241	6.05
421.446	6.05
421.652	6
421.857	6.05
422.063	6.03
422.268	6.12
422.474	5.6
422.679	5.62
422.885	5.59
423.09	5.52
423.295	5.48
423.501	5.45
423.706	5.47
423.911	5.42
424.117	5.29
424.322	5.29
424.527	5.2
424.733	5.14
424.938	5.13
425.143	5.1
425.349	5.1
425.554	5.05
425.759	5.12
425.964	5.02
426.169	5.04
426.375	5.07
426.58	5.11
426.785	5.1
426.99	5.13
427.195	5.14
427.4	5.18
427.605	5.34
427.811	5.4
428.016	5.32
428.221	5.47
428.426	5.49
428.631	5.31
428.836	5.34
429.041	5.3
429.246	5.35
429.451	5.32
429.656	5.37
429.861	5.25
430.066	5.19
430.271	5.35
430.476	5.19
430.681	5.15
430.886	5.42
431.09	5.49
431.295	5.53
431.5	5.51
431.705	5.47
431.91	5.51
432.115	5.52
432.32	5.53
432.524	5.4
432.729	5.42
432.934	5.41
433.139	5.29
433.343	5.18
433.548	5.22
433.753	5.18
433.958	5.25
434.162	5.13
434.367	5.21
434.572	5.1
434.776	5.17
434.981	5.2
435.186	5.28
435.39	5.39
435.595	5.26
435.799	5.22
436.004	5.38
436.209	5.3
436.413	5.45
436.618	5.19
436.822	5.22
437.027	5.17
437.231	5.2
437.436	5.18
437.64	5.05
437.845	5.07
438.049	5.08
438.253	4.91
438.458	4.93
438.662	4.8
438.867	4.83
439.071	4.82
439.275	4.77
439.48	4.74
439.684	4.78
439.888	4.83
440.093	4.91
440.297	4.91
440.501	4.93
440.706	4.95
440.91	4.9
441.114	5.03
441.318	5.01
441.523	5.06
441.727	5.01
441.931	4.92
442.135	5.05
442.339	5
442.543	5.01
442.748	5.06
442.952	5.13
443.156	5.2
443.36	5.18
443.564	5.25
443.768	5.24
443.972	5.26
444.176	5.22
444.38	5.05
444.584	5.06
444.788	5.04
444.992	4.97
445.196	4.9
445.4	4.84
445.604	4.82
445.808	4.72
446.012	4.77
446.216	4.77
446.42	4.79
446.624	4.73
446.828	4.71
447.032	4.68
447.235	4.7
447.439	4.72
447.643	4.77
447.847	4.79
448.051	4.83
448.254	4.76
448.458	4.79
448.662	4.77
448.866	4.79
449.069	4.76
449.273	4.77
449.477	4.82
449.681	4.79
449.884	4.74
450.088	4.67
450.292	4.74
450.495	4.84
450.699	4.75
450.902	4.75
451.106	4.82
451.31	4.78
451.513	4.78
451.717	4.64
451.92	4.45
452.124	4.42
452.327	4.41
452.531	4.41
452.734	4.32
452.938	4.33
453.141	4.34
453.345	4.28
453.548	4.31
453.752	4.21
453.955	4.24
454.158	4.45
454.362	4.58
454.565	4.58
454.769	4.57
454.972	4.54
455.175	4.67
455.379	4.69
455.582	4.71
455.785	4.76
455.988	4.88
456.192	4.84
456.395	4.82
456.598	4.75
456.801	4.8
457.005	4.77
457.208	4.76
457.411	4.62
457.614	4.65
457.817	4.69
458.021	4.64
458.224	4.69
458.427	4.72
458.63	4.65
458.833	4.65
459.036	4.63
459.239	4.65
459.442	4.63
459.645	4.59
459.848	4.58
460.051	4.59
460.254	4.6
460.457	4.58
460.66	4.64
460.863	4.7
461.066	4.69
461.269	4.71
461.472	4.68
461.675	4.74
461.878	4.84
462.081	4.84
462.284	4.79
462.486	4.8
462.689	4.8
462.892	4.7
463.095	4.73
463.298	4.93
463.5	4.95
463.703	4.95
463.906	4.94
464.109	5.11
464.311	5.1
464.514	5.08
464.717	5.16
464.92	5.18
465.122	5.21
465.325	5.27
465.528	5.19
465.73	5.14
465.933	5.15
466.135	5.25
466.338	5.16
466.541	5.22
466.743	5.38
466.946	5.27
467.148	5.23
467.351	5.27
467.553	5.26
467.756	5.23
467.958	5.27
468.161	5.3
468.363	5.29
468.566	5.19
468.768	5.13
468.971	5.09
469.173	5.13
469.375	5.12
469.578	5.12
469.78	5.06
469.983	5.12
470.185	5.09
470.387	5
470.59	4.94
470.792	4.98
470.994	4.97
471.196	4.95
471.399	4.97
471.601	4.96
471.803	4.96
472.005	5.08
472.208	4.94
472.41	5
472.612	5.12
472.814	5.19
473.016	5.08
473.218	5.07
473.421	4.93
473.623	4.86
473.825	4.89
474.027	4.89
474.229	4.8
474.431	4.74
474.633	4.79
474.835	4.7
475.037	4.58
475.239	4.64
475.441	4.63
475.643	4.69
475.845	4.72
476.047	4.7
476.249	4.73
476.451	4.64
476.653	4.7
476.855	4.61
477.057	4.64
477.258	4.73
477.46	4.72
477.662	4.81
477.864	4.85
478.066	4.94
478.268	4.92
478.469	4.88
478.671	4.91
478.873	4.88
479.075	4.9
479.276	4.87
479.478	4.9
479.68	4.96
479.882	4.87
480.083	4.88
480.285	4.79
480.487	4.86
480.688	4.87
480.89	4.87
481.091	4.87
481.293	4.84
481.495	4.84
481.696	4.79
481.898	4.78
482.099	4.77
482.301	4.74
482.502	4.77
482.704	4.74
482.905	4.7
483.107	4.67
483.308	4.7
483.51	4.7
483.711	4.71
483.913	4.67
484.114	4.68
484.315	4.65
484.517	4.65
484.718	4.62
484.92	4.62
485.121	4.61
485.322	4.66
485.524	4.64
485.725	4.61
485.926	4.59
486.127	4.62
486.329	4.58
486.53	4.61
486.731	4.63
486.932	4.63
487.134	4.63
487.335	4.65
487.536	4.63
487.737	4.6
487.938	4.62
488.139	4.67
488.341	4.67
488.542	4.7
488.743	4.71
488.944	4.72
489.145	4.74
489.346	4.77
489.547	4.78
489.748	4.82
489.949	4.89
490.15	4.92
490.351	4.86
490.552	4.88
490.753	4.86
490.954	4.88
491.155	4.86
491.356	4.84
491.557	4.83
491.758	4.83
491.959	4.8
492.159	4.81
492.36	4.78
492.561	4.84
492.762	4.88
492.963	4.89
493.164	4.87
493.364	4.92
493.565	4.97
493.766	4.98
493.967	5.02
494.167	5.07
494.368	5.03
494.569	5.12
494.769	5.1
494.97	5.09
495.171	5.18
495.371	5.14
495.572	5.19
495.773	5.17
495.973	5.25
496.174	5.26
496.375	5.26
496.575	5.35
496.776	5.32
496.976	5.39
497.177	5.43
497.377	5.36
497.578	5.52
497.778	5.5
497.979	5.56
498.179	5.51
498.38	5.57
498.58	5.55
498.78	5.52
498.981	5.55
499.181	5.61
499.382	5.66
499.582	5.73
499.782	5.68
499.983	5.7
500.183	5.76
500.383	5.87
500.584	5.81
500.784	5.88
500.984	5.93
501.184	6
501.385	5.97
501.585	5.98
501.785	6.03
501.985	6.03
502.185	6.11
502.386	6.11
502.586	6.09
502.786	6.25
502.986	6.33
503.186	6.41
503.386	6.46
503.586	6.5
503.786	6.5
503.987	6.59
504.187	6.71
504.387	6.77
504.587	6.81
504.787	6.89
504.987	6.94
505.187	7.04
505.387	7.11
505.587	7.12
505.786	7.17
505.986	7.31
506.186	7.38
506.386	7.41
506.586	7.51
506.786	7.58
506.986	7.67
507.186	7.66
507.386	7.69
507.585	7.79
507.785	7.9
507.985	8.02
508.185	8.08
508.384	8.08
508.584	8.22
508.784	8.23
508.984	8.33
509.183	8.35
509.383	8.55
509.583	8.72
509.782	8.75
509.982	8.8
510.182	8.87
510.381	8.89
510.581	9.08
510.781	9.2
510.98	9.3
511.18	9.38
511.379	9.47
511.579	9.43
511.778	9.5
511.978	9.54
512.177	9.72
512.377	9.75
512.576	9.86
512.776	9.86
512.975	9.87
513.175	9.97
513.374	10.09
513.573	10.18
513.773	10.33
513.972	10.4
514.172	10.56
514.371	10.53
514.57	10.73
514.77	10.83
514.969	11.02
515.168	11.16
515.367	11.24
515.567	11.31
515.766	11.43
515.965	11.54
516.164	11.58
516.364	11.72
516.563	11.89
516.762	12.02
516.961	12.14
517.16	12.18
517.359	12.18
517.559	12.36
517.758	12.49
517.957	12.59
518.156	12.61
518.355	12.69
518.554	12.67
518.753	12.77
518.952	12.81
519.151	12.89
519.35	12.98
519.549	13.08
519.748	13.12
519.947	13.16
520.146	13.23
520.345	13.43
520.544	13.62
520.743	13.81
520.942	13.9
521.141	13.97
521.339	14.06
521.538	14.11
521.737	14.27
521.936	14.36
522.135	14.48
522.333	14.6
522.532	14.64
522.731	14.73
522.93	14.78
523.129	14.9
523.327	15.04
523.526	15.13
523.725	15.37
523.923	15.43
524.122	15.49
524.321	15.57
524.519	15.69
524.718	15.74
524.917	15.77
525.115	15.85
525.314	15.86
525.512	15.9
525.711	15.99
525.909	16.01
526.108	16.07
526.306	16.17
526.505	16.22
526.703	16.29
526.902	16.43
527.1	16.54
527.299	16.6
527.497	16.67
527.696	16.76
527.894	16.8
528.092	16.83
528.291	16.86
528.489	16.89
528.688	16.92
528.886	16.92
529.084	16.94
529.283	16.94
529.481	16.98
529.679	17.03
529.877	17.1
530.076	17.15
530.274	17.24
530.472	17.33
530.67	17.43
530.869	17.54
531.067	17.66
531.265	17.76
531.463	17.84
531.661	17.92
531.859	17.94
532.057	17.95
532.255	17.99
532.454	18
532.652	18.06
532.85	18.12
533.048	18.16
533.246	18.22
533.444	18.28
533.642	18.39
533.84	18.46
534.038	18.57
534.236	18.61
534.434	18.7
534.632	18.84
534.83	18.88
535.027	18.91
535.225	19.02
535.423	19.06
535.621	19.11
535.819	19.12
536.017	19.18
536.215	19.24
536.412	19.34
536.61	19.34
536.808	19.31
537.006	19.32
537.203	19.42
537.401	19.43
537.599	19.48
537.797	19.47
537.994	19.54
538.192	19.63
538.39	19.63
538.587	19.78
538.785	19.96
538.983	20.18
539.18	20.36
539.378	20.39
539.575	20.55
539.773	20.67
539.97	20.84
540.168	20.97
540.366	20.98
540.563	21.02
540.761	20.98
540.958	21.03
541.155	21.01
541.353	21.07
541.55	21.14
541.748	21.14
541.945	21.18
542.143	21.18
542.34	21.19
542.537	21.23
542.735	21.31
542.932	21.44
543.129	21.53
543.327	21.66
543.524	21.77
543.721	21.95
543.919	22.14
544.116	22.3
544.313	22.48
544.51	22.71
544.708	22.97
544.905	23.14
545.102	23.27
545.299	23.36
545.496	23.44
545.693	23.51
545.891	23.46
546.088	23.45
546.285	23.41
546.482	23.4
546.679	23.3
546.876	23.22
547.073	23.21
547.27	23.12
547.467	23.04
547.664	22.96
547.861	22.95
548.058	22.9
548.255	22.89
548.452	22.91
548.649	22.89
548.846	22.9
549.043	22.87
549.24	22.78
549.437	22.8
549.633	22.73
549.83	22.86
550.027	22.71
550.224	22.77
550.421	22.79
550.618	22.7
550.814	22.69
551.011	22.71
551.208	22.67
551.405	22.77
551.601	22.79
551.798	22.89
551.995	22.74
552.191	22.99
552.388	23.07
552.585	23.02
552.781	23.07
552.978	23.12
553.175	23.13
553.371	23.25
553.568	23.27
553.764	23.24
553.961	23.26
554.157	23.27
554.354	23.12
554.55	23.12
554.747	23.14
554.943	23.19
555.14	23.16
555.336	23.08
555.533	22.96
555.729	22.95
555.926	23.12
556.122	23.11
556.318	23.3
556.515	23.36
556.711	23.33
556.907	23.41
557.104	23.41
557.3	23.36
557.496	23.35
557.693	23.4
557.889	23.31
558.085	23.23
558.281	23.3
558.478	23.25
558.674	23.31
558.87	23.35
559.066	23.32
559.262	23.4
559.459	23.5
559.655	23.52
559.851	23.67
560.047	23.83
560.243	23.67
560.439	23.59
560.635	23.65
560.831	23.6
561.027	23.62
561.223	23.65
561.419	23.65
561.615	23.71
561.811	23.79
562.007	23.78
562.203	23.74
562.399	23.91
562.595	24.09
562.791	24.02
562.987	24.12
563.183	24.16
563.379	24.25
563.575	24.16
563.771	24.28
563.966	24.43
564.162	24.39
564.358	24.43
564.554	24.62
564.75	24.57
564.945	24.7
565.141	24.64
565.337	24.54
565.533	24.47
565.728	24.62
565.924	24.59
566.12	24.58
566.315	24.52
566.511	24.51
566.707	24.41
566.902	24.49
567.098	24.46
567.293	24.55
567.489	24.6
567.684	24.64
567.88	24.62
568.076	24.54
568.271	24.51
568.467	24.63
568.662	24.65
568.858	24.59
569.053	24.52
569.248	24.57
569.444	24.55
569.639	24.58
569.835	24.67
570.03	24.65
570.225	24.7
570.421	24.81
570.616	24.87
570.812	24.95
571.007	25.04
571.202	25.11
571.397	25.19
571.593	25.08
571.788	25.2
571.983	25.15
572.178	25.24
572.374	25.31
572.569	25.27
572.764	25.25
572.959	25.26
573.154	25.34
573.35	25.3
573.545	25.25
573.74	25.4
573.935	25.47
574.13	25.51
574.325	25.58
574.52	25.67
574.715	25.81
574.91	25.86
575.105	25.9
575.3	25.92
575.495	26.1
575.69	26.22
575.885	26.32
576.08	26.3
576.275	26.55
576.47	26.6
576.665	26.65
576.86	26.68
577.055	26.86
577.25	26.99
577.444	27.02
577.639	27.14
577.834	27.12
578.029	27.33
578.224	27.42
578.418	27.44
578.613	27.48
578.808	27.45
579.003	27.47
579.197	27.4
579.392	27.34
579.587	27.54
579.781	27.44
579.976	27.48
580.171	27.31
580.365	27.37
580.56	27.28
580.755	27.26
580.949	27.39
581.144	27.38
581.338	27.5
581.533	27.54
581.727	27.39
581.922	27.35
582.116	27.51
582.311	27.57
582.505	27.57
582.7	27.53
582.894	27.55
583.089	27.6
583.283	27.58
583.478	27.6
583.672	27.68
583.866	27.76
584.061	27.78
584.255	27.79
584.449	27.87
584.644	27.8
584.838	27.99
585.032	28.07
585.226	28.13
585.421	28.31
585.615	28.14
585.809	28.26
586.003	28.26
586.198	28.46
586.392	28.45
586.586	28.51
586.78	28.69
586.974	28.63
587.168	28.65
587.363	28.59
587.557	28.56
587.751	28.71
587.945	28.68
588.139	28.73
588.333	28.56
588.527	28.53
588.721	28.36
588.915	28.4
589.109	28.38
589.303	28.28
589.497	28.34
589.691	28.25
589.885	28.29
590.079	28.19
590.273	28.16
590.466	28.3
590.66	28.41
590.854	28.51
591.048	28.55
591.242	28.55
591.436	28.69
591.629	28.65
591.823	28.65
592.017	28.57
592.211	28.67
592.404	28.81
592.598	28.91
592.792	28.85
592.986	29.02
593.179	28.97
593.373	28.9
593.567	28.84
593.76	28.87
593.954	29.04
594.147	29.13
594.341	29.02
594.535	28.82
594.728	28.6
594.922	28.53
595.115	28.38
595.309	28.21
595.502	28.27
595.696	28.17
595.889	28.09
596.083	28.01
596.276	27.97
596.47	27.92
596.663	28.06
596.856	28.17
597.05	28.14
597.243	28.08
597.437	28.15
597.63	28.23
597.823	28.42
598.017	28.46
598.21	28.53
598.403	28.71
598.596	28.96
598.79	28.94
598.983	28.89
599.176	28.81
599.369	28.91
599.563	28.95
599.756	28.85
599.949	28.82
600.142	28.91
600.335	28.82
600.528	28.6
600.722	28.46
600.915	28.51
601.108	28.43
601.301	28.61
601.494	28.46
601.687	28.25
601.88	28.36
602.073	28.23
602.266	28.25
602.459	28.27
602.652	28.31
602.845	28.51
603.038	28.4
603.231	28.39
603.424	28.38
603.617	28.36
603.809	28.6
604.002	28.47
604.195	28.47
604.388	28.41
604.581	28.43
604.774	28.46
604.966	28.3
605.159	28.38
605.352	28.38
605.545	28.44
605.737	28.67
605.93	28.71
606.123	28.98
606.316	29.16
606.508	29.03
606.701	29.05
606.894	29.18
607.086	29.35
607.279	29.54
607.471	29.71
607.664	29.95
607.857	30.11
608.049	30.35
608.242	30.55
608.434	30.81
608.627	31.65
608.819	32.23
609.012	32.92
609.204	33.57
609.397	34.38
609.589	35.34
609.782	36.24
609.974	37.18
610.166	38.18
610.359	39.17
610.551	40.33
610.743	41.16
610.936	41.88
611.128	42.33
611.32	42.55
611.513	42.67
611.705	42.74
611.897	42.52
612.09	42.42
612.282	42.07
612.474	41.65
612.666	41.04
612.858	40.38
613.051	39.82
613.243	39.38
613.435	39.17
613.627	38.7
613.819	38.04
614.011	37.72
614.203	37.13
614.395	36.37
614.588	36.03
614.78	35.45
614.972	35.02
615.164	34.5
615.356	33.98
615.548	33.59
615.74	33.37
615.932	33.22
616.124	32.9
616.315	32.69
616.507	32.75
616.699	32.4
616.891	32.36
617.083	32.01
617.275	31.99
617.467	31.99
617.659	31.79
617.85	31.54
618.042	31.28
618.234	31.08
618.426	30.96
618.618	30.78
618.809	30.81
619.001	30.61
619.193	30.77
619.384	30.62
619.576	30.6
619.768	30.55
619.959	30.6
620.151	30.86
620.343	31.16
620.534	30.98
620.726	31.05
620.917	30.96
621.109	31.12
621.301	30.91
621.492	31.04
621.684	31.07
621.875	31.17
622.067	31.21
622.258	31.06
622.45	31
622.641	31.26
622.832	31.26
623.024	31.29
623.215	31.19
623.407	31.27
623.598	31.17
623.789	31.12
623.981	31.28
624.172	31.25
624.363	31.47
624.555	31.46
624.746	31.39
624.937	31.29
625.129	31.28
625.32	31.27
625.511	31.16
625.702	31.18
625.893	31.17
626.085	31.07
626.276	31.11
626.467	30.82
626.658	30.6
626.849	30.61
627.04	30.44
627.231	30.58
627.422	30.55
627.614	30.67
627.805	30.77
627.996	30.78
628.187	30.82
628.378	30.86
628.569	31.08
628.76	31.36
628.951	31.5
629.142	31.92
629.332	31.95
629.523	31.99
629.714	32.22
629.905	32.5
630.096	32.71
630.287	32.92
630.478	32.96
630.669	33.11
630.859	33.03
631.05	32.9
631.241	32.7
631.432	32.69
631.623	32.78
631.813	32.56
632.004	32.24
632.195	31.87
632.385	31.5
632.576	31.48
632.767	31.19
632.957	31.04
633.148	30.93
633.339	30.98
633.529	30.67
633.72	30.38
633.91	30.28
634.101	30.24
634.292	30.14
634.482	30.27
634.673	29.96
634.863	29.96
635.054	29.94
635.244	29.97
635.435	29.71
635.625	29.66
635.815	29.69
636.006	29.7
636.196	29.58
636.387	29.52
636.577	29.36
636.767	29.43
636.958	29.52
637.148	29.65
637.338	29.6
637.529	29.8
637.719	29.96
637.909	30.17
638.099	30.23
638.29	30.45
638.48	30.55
638.67	30.63
638.86	30.91
639.05	30.87
639.241	30.82
639.431	30.95
639.621	30.85
639.811	30.76
640.001	30.63
640.191	30.77
640.381	30.6
640.571	30.82
640.761	30.97
640.951	30.9
641.141	30.77
641.331	30.65
641.521	30.67
641.711	30.76
641.901	30.9
642.091	30.85
642.281	30.64
642.471	30.7
642.661	30.72
642.851	30.55
643.041	30.49
643.231	30.63
643.42	30.59
643.61	30.65
643.8	30.7
643.99	30.79
644.18	31.04
644.369	31.1
644.559	31.33
644.749	31.35
644.939	31.49
645.128	31.66
645.318	31.68
645.508	31.83
645.697	31.37
645.887	31.48
646.076	31.37
646.266	31.38
646.456	31.35
646.645	31.08
646.835	30.99
647.024	30.81
647.214	30.59
647.403	30.6
647.593	30.82
647.782	31.03
647.972	30.96
648.161	31.09
648.351	30.99
648.54	30.98
648.73	31.18
648.919	31.24
649.108	31.05
649.298	31.24
649.487	31.21
649.677	31.02
649.866	30.95
650.055	30.98
650.244	30.94
650.434	30.91
650.623	31.07
650.812	30.94
651.002	31.03
651.191	31.49
651.38	31.35
651.569	31.57
651.758	31.5
651.947	31.71
652.137	31.79
652.326	31.69
652.515	31.58
652.704	31.52
652.893	31.64
653.082	31.52
653.271	31.15
653.46	31.25
653.649	31.31
653.838	31.43
654.027	31.38
654.216	31.18
654.405	31.23
654.594	31.22
654.783	31.13
654.972	31.01
655.161	31.06
655.35	31.28
655.539	31.32
655.728	31.05
655.916	30.89
656.105	31.03
656.294	31.05
656.483	30.92
656.672	31.22
656.86	31.21
657.049	31.17
657.238	31.18
657.427	31.2
657.615	31.25
657.804	31.11
657.993	31.28
658.181	31.11
658.37	31.21
658.559	31.41
658.747	31.17
658.936	31.36
659.125	31.54
659.313	31.51
659.502	31.42
659.69	31.28
659.879	31.55
660.067	31.61
660.256	31.66
660.444	31.58
660.633	31.61
660.821	31.76
661.01	31.68
661.198	31.72
661.387	31.78
661.575	31.88
661.763	32.14
661.952	32.02
662.14	32.06
662.328	32.1
662.517	32.08
662.705	31.93
662.893	32.01
663.082	31.98
663.27	31.55
663.458	31.57
663.646	31.45
663.834	31.09
664.023	30.88
664.211	30.69
664.399	30.65
664.587	30.73
664.775	30.93
664.963	30.88
665.152	31.26
665.34	31.82
665.528	31.88
665.716	31.92
665.904	31.99
666.092	32.15
666.28	32.36
666.468	32.46
666.656	32.36
666.844	32.29
667.032	32.16
667.22	31.45
667.408	31.18
667.596	31.14
667.784	31.3
667.971	31.56
668.159	31.56
668.347	31.35
668.535	31.42
668.723	31.63
668.911	31.5
669.098	31.59
669.286	32.03
669.474	32.03
669.662	32.15
669.849	32.19
670.037	31.87
670.225	31.86
670.413	31.95
670.6	31.66
670.788	31.67
670.976	31.71
671.163	31.9
671.351	31.58
671.538	31.67
671.726	31.51
671.913	31.43
672.101	31.54
672.289	31.88
672.476	31.72
672.664	31.91
672.851	31.66
673.039	31.71
673.226	31.27
673.413	31.46
673.601	31.17
673.788	31.22
673.976	31.29
674.163	31.33
674.35	30.94
674.538	31.02
674.725	31.02
674.912	30.98
675.1	31.08
675.287	31.35
675.474	31.45
675.662	31.78
675.849	31.66
676.036	31.45
676.223	31.45
676.411	31.63
676.598	31.75
676.785	31.7
676.972	32.04
677.159	31.9
677.346	31.92
677.533	31.88
677.721	31.94
677.908	32.33
678.095	32.46
678.282	32.22
678.469	32.33
678.656	32.06
678.843	32
679.03	31.79
679.217	31.91
679.404	31.99
679.591	31.91
679.778	31.78
679.964	31.61
680.151	31.75
680.338	32.1
680.525	32.01
680.712	32.29
680.899	32.46
681.086	32.62
681.272	32.58
681.459	32.57
681.646	32.59
681.833	32.67
682.02	32.63
682.206	32.45
682.393	32.07
682.58	32.15
682.766	32.01
682.953	31.84
683.14	31.69
683.326	31.58
683.513	31.44
683.7	31.36
683.886	31.21
684.073	31.35
684.259	31.43
684.446	31.64
684.632	31.49
684.819	31.54
685.005	31.79
685.192	31.59
685.378	31.71
685.565	31.82
685.751	31.97
685.938	32.2
686.124	32.11
686.31	32.08
686.497	32.19
686.683	32.14
686.87	32.22
687.056	32.26
687.242	32.46
687.429	32.63
687.615	32.7
687.801	32.83
687.987	32.7
688.174	32.66
688.36	32.68
688.546	32.65
688.732	32.72
688.918	32.73
689.105	32.53
689.291	32.45
689.477	32.32
689.663	32.19
689.849	32.01
690.035	31.78
690.221	31.9
690.407	31.91
690.593	31.84
690.779	32.18
690.965	32.17
691.151	32.34
691.337	32.34
691.523	32.59
691.709	33.02
691.895	32.79
692.081	33.06
692.267	32.92
692.453	32.87
692.639	33.23
692.825	32.61
693.011	32.35
693.196	32.51
693.382	32.67
693.568	32.63
693.754	32.77
693.94	33.02
694.125	33.23
694.311	33.42
694.497	33.57
694.682	33.39
694.868	33.6
695.054	33.68
695.239	33.45
695.425	33.19
695.611	33.25
695.796	32.7
695.982	32.89
696.168	32.24
696.353	32.03
696.539	31.91
696.724	31.98
696.91	31.67
697.095	31.58
697.281	31.66
697.466	31.79
697.652	31.5
697.837	31.38
698.023	31.15
698.208	31.53
698.393	31.5
698.579	31.31
698.764	31.15
698.949	31.3
699.135	31.55
699.32	31.48
699.505	31.58
699.691	31.62
699.876	31.74
700.061	32.02
700.246	31.81
700.432	32.03
700.617	32.23
700.802	32.35
700.987	32.62
701.172	32.76
701.358	32.58
701.543	32.45
701.728	32.72
701.913	33.04
702.098	32.87
702.283	33.25
702.468	33.56
702.653	33.58
702.838	33.61
703.023	33.82
703.208	33.83
703.393	34.35
703.578	34.73
703.763	34.68
703.948	34.5
704.133	34.65
704.318	34.77
704.503	34.42
704.688	34.64
704.873	34.64
705.057	34.71
705.242	34.96
705.427	34.77
705.612	34.8
705.797	35.2
705.981	35.38
706.166	35.9
706.351	35.55
706.536	35.71
706.72	35.65
706.905	36.41
707.09	36.18
707.274	36.39
707.459	36.94
707.644	36.86
707.828	36.74
708.013	36.74
708.197	36.44
708.382	36.31
708.567	36.13
708.751	36.47
708.936	35.97
709.12	36.13
709.305	35.85
709.489	35.78
709.673	35.76
709.858	35.16
710.042	34.88
710.227	34.97
710.411	35.31
710.596	35.14
710.78	34.9
710.964	35.03
711.149	34.89
711.333	34.49
711.517	34.24
711.702	34.59
711.886	34.98
712.07	34.93
712.254	34.85
712.438	34.81
712.623	35.18
712.807	35.08
712.991	34.86
713.175	34.89
713.359	35.05
713.544	34.73
713.728	33.98
713.912	33.48
714.096	33.46
714.28	32.88
714.464	32.8
714.648	32.52
714.832	32.69
715.016	32.64
715.2	32.82
715.384	32.42
715.568	32.59
715.752	32.43
715.936	32.89
716.12	32.72
716.304	32.98
716.488	33.22
716.671	33.01
716.855	32.99
717.039	32.8
717.223	32.55
717.407	32.55
717.59	32.33
717.774	32.96
717.958	32.85
718.142	32.77
718.325	32.46
718.509	31.96
718.693	32.04
718.877	32
719.06	32.29
719.244	32.12
719.428	32.8
719.611	33.02
719.795	32.74
719.978	32.89
720.162	33.27
720.345	33.51
720.529	33.48
720.713	33.5
720.896	33.76
721.08	33.77
721.263	34.12
721.446	33.73
721.63	33.71
721.813	33.69
721.997	33.68
722.18	33.72
722.364	33.65
722.547	33.56
722.73	33.8
722.914	33.38
723.097	33.19
723.28	32.81
723.464	33.02
723.647	32.91
723.83	32.87
724.013	33.02
724.197	33.02
724.38	33.28
724.563	33.3
724.746	33.23
724.929	33.2
725.112	33.33
725.296	33.83
725.479	33.64
725.662	33.76
725.845	33.65
726.028	33.43
726.211	33.52
726.394	33.22
726.577	33.61
726.76	33.67
726.943	33.62
727.126	33.13
727.309	32.79
727.492	32.72
727.675	32.78
727.858	32.86
728.041	32.7
728.224	32.74
728.407	32.81
728.589	32.66
728.772	32.75
728.955	33.06
729.138	33.46
729.321	33.02
729.503	32.73
729.686	32.67
729.869	32.91
730.052	33
730.234	32.91
730.417	33.05
730.6	32.92
730.782	32.9
730.965	32.41
731.148	32.21
731.33	32.61
731.513	33.09
731.695	33.15
731.878	33.35
732.061	33.08
732.243	33.14
732.426	33.45
732.608	33.71
732.791	33.68
732.973	33.93
733.156	34.23
733.338	34.09
733.52	34.28
733.703	34.49
733.885	34.3
734.068	34.37
734.25	34.36
734.432	34.11
734.615	34.03
734.797	34.04
734.979	34.05
735.162	34.09
735.344	34.11
735.526	34.28
735.708	33.79
735.891	33.65
736.073	34.26
736.255	34.37
736.437	34.5
736.619	34.4
736.802	34.19
736.984	34.36
737.166	34.76
737.348	34.77
737.53	34.49
737.712	35.03
737.894	35.27
738.076	35.24
738.258	34.95
738.44	34.53
738.622	34.4
738.804	34.15
738.986	34.07
739.168	33.55
739.35	33.72
739.532	33.82
739.714	33.33
739.896	33.21
740.078	33
740.259	33.28
740.441	33.09
740.623	33.4
740.805	33.73
740.987	33.58
741.168	33.36
741.35	33.77
741.532	33.4
741.714	33.67
741.895	33.84
742.077	33.59
742.259	34.12
742.44	34.9
742.622	35.16
742.804	35.44
742.985	35.53
743.167	35.71
743.348	35.98
743.53	36.41
743.711	36.34
743.893	36.2
744.075	36.4
744.256	35.75
744.438	35.38
744.619	35.66
744.8	35.08
744.982	35.94
745.163	35.67
745.345	35.53
745.526	35.4
745.707	35.63
745.889	36.06
746.07	36.16
746.252	36.42
746.433	36.53
746.614	36.55
746.795	37.33
746.977	36.24
747.158	36.74
747.339	35.51
747.52	35.31
747.702	35.43
747.883	35.48
748.064	35.56
748.245	35.53
748.426	36.14
748.607	35.35
748.788	34.75
748.97	35.12
749.151	35.19
749.332	36.12
749.513	35.88
749.694	35.53
749.875	34.94
750.056	34.6
750.237	34.26
750.418	33.78
750.599	33.96
750.78	34.09
750.96	34.13
751.141	33.73
751.322	33.15
751.503	33.15
751.684	33.27
751.865	33.22
752.046	33.81
752.226	33.86
752.407	33.6
752.588	33.84
752.769	33.64
752.949	33.69
753.13	33.51
753.311	34.26
753.492	34.56
753.672	34.6
753.853	34.33
754.034	34.16
754.214	34.65
754.395	34.75
754.575	34.86
754.756	35
754.937	35.1
755.117	34.99
755.298	34.95
755.478	34.7
755.659	35.01
755.839	35.13
756.02	34.81
756.2	34.23
756.381	33.89
756.561	34.12
756.741	34.49
756.922	34.08
757.102	34.42
757.283	34.6
757.463	34.61
757.643	34.09
757.823	34.12
758.004	34.21
758.184	34.33
758.364	34.53
758.545	33.85
758.725	33.15
758.905	33.62
759.085	33.36
759.265	33.1
759.446	33.23
759.626	33.87
759.806	33.66
759.986	33.68
760.166	33.76
760.346	33.22
760.526	32.76
760.706	33.09
760.886	32.15
761.066	32.2
761.246	31.54
761.426	31.75
761.606	31.1
761.786	31.36
761.966	31.27
762.146	31.13
762.326	31.95
762.506	31.77
762.686	31.54
762.866	32.3
763.046	32.36
763.225	32.77
763.405	32.76
763.585	32.88
763.765	32.98
763.945	32.61
764.124	32.35
764.304	32.1
764.484	32.7
764.664	32.62
764.843	32.03
765.023	32.1
765.203	31.86
765.382	31.6
765.562	31.73
765.741	31.71
765.921	32.26
766.101	32.56
766.28	32.41
766.46	32.7
766.639	32.83
766.819	33.43
766.998	33.7
767.178	33.24
767.357	33.91
767.537	33.39
767.716	33.59
767.896	33.63
768.075	34.22
768.254	34.69
768.434	34.68
768.613	35.35
768.792	35.84
768.972	35.52
769.151	36.33
769.33	36.09
769.51	36.84
769.689	36.58
769.868	36.42
770.047	35.9
770.226	36.37
770.406	36.09
770.585	35.6
770.764	35.04
770.943	35.96
771.122	36.33
771.301	36.56
771.48	37.01
771.66	37.02
771.839	36.81
772.018	37.19
772.197	37.2
772.376	37.23
772.555	37.92
772.734	38.45
772.913	38.3
773.092	38.56
773.271	38.05
773.449	37.77
773.628	37.93
773.807	38.4
773.986	38.34
774.165	37.73
774.344	38.08
774.523	38.48
774.701	38.32
774.88	37.69
775.059	36.94
775.238	36.58
775.417	36.21
775.595	36.67
775.774	36.62
775.953	37.36
776.131	37.1
776.31	37.99
776.489	37.21
776.667	36.7
776.846	37.12
777.025	38.07
777.203	39.31
777.382	39.15
777.56	38.12
777.739	37.15
777.917	36.2
778.096	36.08
778.274	35.55
778.453	35.95
778.631	36.05
778.81	35.5
778.988	33.94
779.166	33.3
779.345	33.95
779.523	34.75
779.702	36.2
779.88	36.61
780.058	37.31
780.237	36.5
780.415	36.17
780.593	36.09
780.771	37.33
780.95	38.58
781.128	38.24
781.306	38.32
781.484	37.49
781.662	36.7
781.841	35.8
782.019	35.37
782.197	35.56
782.375	35.79
782.553	35.95
782.731	35.44
782.909	34.59
783.087	35.01
783.265	34.66
783.443	35.36
783.621	36
783.799	37.08
783.977	37.49
784.155	37.51
784.333	37.3
784.511	36.98
784.689	37.21
784.867	37.54
785.045	36.67
785.223	36.79
785.4	37.04
785.578	37.38
785.756	37.04
785.934	36.48
786.112	36.8
786.289	36.49
786.467	36.71
786.645	36.52
786.823	36.86
787	36.52
787.178	35.56
787.356	34.96
787.533	34.94
787.711	35.41
787.889	35.52
788.066	35.05
788.244	34.68
788.421	34.43
788.599	33.9
788.776	34.7
788.954	35.21
789.131	35.21
789.309	35.77
789.486	35.67
789.664	34.45
789.841	34.97
790.019	34.21
790.196	34.5
790.373	34.6
790.551	34.15
790.728	33.14
790.906	31.99
791.083	32.29
791.26	31.9
791.437	30.24
791.615	31.04
791.792	29.76
791.969	30.77
792.146	31.09
792.324	31.14
792.501	31.26
792.678	31.68
792.855	33.16
793.032	33.53
793.209	33.19
793.387	34.36
793.564	34.4
793.741	34.92
793.918	34.51
794.095	33.85
794.272	33.24
794.449	32.95
794.626	32.14
794.803	31.97
794.98	32.42
795.157	31.76
795.334	31.86
795.511	31.11
795.688	30.89
795.864	31.36
796.041	31.69
796.218	31.4
796.395	31.13
796.572	31.34
796.749	31.58
796.925	30.22
797.102	31.41
797.279	31.03
797.456	32.18
797.632	32.3
797.809	31.8
797.986	32.03
798.162	32.86
798.339	33.52
798.516	33.98
798.692	34.18
798.869	35.45
799.046	35.27
799.222	36.83
799.399	36.61
799.575	36.28
799.752	35.74
799.928	36.52
800.105	36.25
800.281	36.82
800.458	35.85
800.634	36.39
800.811	36.24
800.987	35.1
801.163	33.39
801.34	33.1
801.516	32.34
801.692	33.21
801.869	32.18
802.045	33.4
802.221	34.04
802.398	34.81
802.574	34.61
802.75	34.69
802.926	36.42
803.103	36.54
803.279	37.15
803.455	38.58
803.631	38.18
803.807	38.93
803.983	37.5
804.16	37.33
804.336	36.57
804.512	37.11
804.688	36.97
804.864	35.54
805.04	35.81
805.216	34.59
805.392	35.73
805.568	35.36
805.744	34.61
805.92	35.08
806.096	34.52
806.272	34.26
806.448	32.91
806.623	32.13
806.799	33.16
806.975	33.58
807.151	33.45
807.327	31.27
807.503	31.45
807.678	31.47
807.854	33.14
808.03	32.55
808.206	33.51
808.381	33.99
808.557	34.83
808.733	34.43
808.908	34.94
809.084	36.1
809.26	36.72
809.435	37.7
809.611	38.36
809.787	36.81
809.962	37.33
810.138	37.36
810.313	36.67
810.489	35.73
810.664	35.72
810.84	33.48
811.015	32.83
811.191	33.41
811.366	33.64
811.542	32.47
811.717	33.28
811.892	32.05
812.068	33.69
812.243	33.72
812.419	33.85
812.594	35.15
812.769	36.36
812.944	36.77
813.12	36.81
813.295	37.36
813.47	38.42
813.645	37.55
813.821	38.82
813.996	37.79
814.171	37.12
814.346	37.6
814.521	36.78
814.697	37.14
814.872	37.02
815.047	36.94
815.222	35.94
815.397	34.67
815.572	36.14
815.747	36.29
815.922	34.04
816.097	35.21
816.272	35.38
816.447	34.73
816.622	35.36
816.797	35.72
816.972	34.87
817.147	33.95
817.322	34.87
817.496	32.43
817.671	31.58
817.846	33.55
818.021	33.09
818.196	33.36
818.371	33.37
818.545	33.38
818.72	32.47
818.895	33.24
819.069	34.73
819.244	35.34
819.419	37.14
819.594	37.18
819.768	36.07
819.943	36.09
820.117	35.33
820.292	35.29
820.467	34.14
820.641	33.94
820.816	33.3
820.99	31.92
821.165	31.35
821.339	30.91
821.514	30.66
821.688	30.64
821.863	30.51
822.037	30.26
822.212	29.93
822.386	29.92
822.56	29.75
822.735	29.67
822.909	29.66
823.084	29.62
823.258	29.59
823.432	29.5
823.606	29.46
823.781	29.06
823.955	29.02
824.129	29.03
824.303	28.89
824.478	28.96
824.652	28.99
824.826	28.96
825	28.9
825.174	28.86
825.348	29.11
825.523	29.17
825.697	29.76
825.871	30.27
826.045	30.57
826.219	30.58
826.393	30.65
826.567	30.39
826.741	31.2
826.915	30.36
827.089	30.58
827.263	30.47
827.437	30.36
827.611	30.4
827.784	29.79
827.958	29.67
828.132	29.8
828.306	29.7
828.48	30.13
828.654	29.87
828.827	30.75
829.001	29.83
829.175	29.66
829.349	29.98
829.522	30.63
829.696	31.78
829.87	31.44
830.044	31.77
830.217	32.69
830.391	31.75
830.565	31.02
830.738	31.25
830.912	32.55
831.085	32.52
831.259	33.5
831.432	31.64
831.606	31.04
831.779	32.2
831.953	31.06
832.126	30.45
832.3	32.09
832.473	33.27
832.647	33.14
832.82	32.19
832.994	32.14
833.167	31.05
833.34	31.34
833.514	31.17
833.687	30.38
833.86	31.18
834.034	31.03
834.207	31.48
834.38	30.43
834.553	30.66
834.727	30.59
834.9	31.39
835.073	31.5
835.246	32.43
835.419	32.43
835.593	33.19
835.766	33.23
835.939	33.29
836.112	33.1
836.285	33.59
836.458	33.7
836.631	35.38
836.804	34.51
836.977	34.77
837.15	32.87
837.323	34.34
837.496	34.33
837.669	33.87
837.842	33.92
838.015	33.08
838.188	34.63
838.361	32.84
838.533	31.58
838.706	31.63
838.879	30.99
839.052	31.78
839.225	31.88
839.398	32.23
839.57	33.39
839.743	34.67
839.916	34.85
840.088	36.16
840.261	38.77
840.434	39.31
840.607	39.79
840.779	38.35
840.952	38.54
841.124	38.02
841.297	37.92
841.47	37.87
841.642	36.99
841.815	37.98
841.987	36.22
842.16	35.03
842.332	34.6
842.505	34.93
842.677	37.3
842.85	39.25
843.022	36.97
843.194	37.17
843.367	37
843.539	37.81
843.712	32.5
843.884	33.32
844.056	31.08
844.229	29.99
844.401	29.14
844.573	28.86
844.745	26.91
844.918	27.24
845.09	28.32
845.262	28.22
845.434	24.09
845.606	28.28
845.779	26.7
845.951	28.97
846.123	30.64
846.295	32.75
846.467	34.43
846.639	35.44
846.811	40.4
846.983	40.98
847.155	41.29
847.327	45.85
847.499	45.89
847.671	47.98
847.843	46.46
848.015	44.57
848.187	44.21
848.359	41.72
848.531	39.4
848.703	39.14
848.875	36.42
849.047	34.86
849.218	34.34
849.39	36.02
849.562	35.87
849.734	37.19
849.905	41.43
850.077	38.73
850.249	40.15
850.421	42.6
850.592	36.83
850.764	39.44
850.936	37.83
851.107	36.94
851.279	36.79
851.451	30.25
851.622	29.06
851.794	28.82
851.965	31.78
852.137	32.9
852.308	33.69
852.48	37.1
852.651	35.56
852.823	35.78
852.994	34.17
853.166	33.37
853.337	38.06
853.509	42.09
853.68	37.5
853.851	38.03
854.023	35.33
854.194	32.02
854.365	30.88
854.537	29.82
854.708	34.47
854.879	37.48
855.05	36.47
855.222	34.64
855.393	32.34
855.564	36.18
855.735	38.53
855.906	41.8
856.078	44.02
856.249	43.47
856.42	44
856.591	45.17
856.762	45.79
856.933	43.66
857.104	41.83
857.275	42.21
857.446	42.77
857.617	38.31
857.788	35.07
857.959	33.79
858.13	32.61
858.301	34.06
858.472	29.14
858.643	27.11
858.814	31.06
858.985	33.53
859.155	28.65
859.326	28.33
859.497	25.11
859.668	23.89
859.839	26.6
860.009	29.05
860.18	28.27
860.351	27.18
860.522	29.52
860.692	29.35
860.863	30.28
861.034	36.88
861.204	34.05
861.375	36
861.546	39.57
861.716	35.46
861.887	37.73
862.057	41.3
862.228	40.65
862.398	41.11
862.569	38.94
862.739	43.2
862.91	38.31
863.08	38.23
863.251	39.72
863.421	36.76
863.592	35.33
863.762	35.16
863.932	32.64
864.103	34.6
864.273	33.9
864.443	36.53
864.614	32.07
864.784	35.92
864.954	37.6
865.125	35.59
865.295	39.51
865.465	40.27
865.635	36.81
865.805	35.29
865.976	36.24
866.146	34.11
866.316	30.57
866.486	30.72
866.656	27.41
866.826	24.6
866.996	25.72
867.166	22.01
867.336	24.96
867.506	28.91
867.676	30.39
867.846	28.28
868.016	28.17
868.186	26.96
868.356	29.72
868.526	31.51
868.696	41.06
868.866	43.98
869.036	44.39
869.206	45.03
869.376	42.71
869.545	46.33
869.715	49.14
869.885	46.67
870.055	51.74
870.224	49.67
870.394	51.28
870.564	48.7
870.734	50.95
870.903	52.4
871.073	49.88
871.243	49.47
871.412	47.37
871.582	48.23
871.751	49.27
871.921	45.5
872.091	44.58
872.26	42.49
872.43	39.16
872.599	33.53
872.769	31.41
872.938	34.74
873.108	38.56
873.277	37.54
873.446	34.7
873.616	37.75
873.785	36.86
873.955	35.14
874.124	39.08
874.293	37.38
874.463	38.62
874.632	38.31
874.801	33.44
874.971	30.17
875.14	26.64
875.309	25.37
875.478	25.18
875.647	30.16
875.817	30.69
875.986	28.63
876.155	28.72
876.324	30.37
876.493	29.46
876.662	32.45
876.831	34.31
877	37.6
877.17	35.87
877.339	37.9
877.508	36.26
877.677	37.18
877.846	34.84
878.015	34.76
878.184	32.8
878.352	36.88
878.521	33.69
878.69	33.48
878.859	29.35
879.028	32.84
879.197	26.98
879.366	24.47
879.534	25.52
879.703	25.91
879.872	25.23
880.041	25.92
880.21	25.03
880.378	25.42
880.547	24.97
880.716	25.59
880.884	25.72
881.053	26.53
881.222	27.5
881.39	27.15
881.559	26.71
881.727	27.16
881.896	26.8
882.065	26.69
882.233	27.14
882.402	27.41
882.57	27.19
882.739	27.03
882.907	27.58
883.076	27.39
883.244	27.92
883.412	27.91
883.581	27.75
883.749	27.61
883.918	27.34
884.086	27.32
884.254	27.52
884.423	29.15
884.591	29.27
884.759	29.35
884.927	29.75
885.096	30.01
885.264	30.92
885.432	31.8
885.6	33.6
885.769	34.89
885.937	34.81
886.105	33.6
886.273	32.36
886.441	31.16
886.609	30.34
886.777	29.33
886.945	28.69
887.113	28.54
887.281	26.9
887.449	27.61
887.617	27.34
887.785	29.18
887.953	31.09
888.121	31.99
888.289	35.41
888.457	35.83
888.625	35.29
888.793	32.89
888.961	34.25
889.129	36.23
889.296	35.68
889.464	37.48
889.632	36.02
889.8	34.49
889.967	33.18
890.135	32.64
