Data from 2938759__Reflection_05.txt Node
Date: Fri Mar 13 18:28:18 EDT 2015
User: robert
Spectrometer: USB4E03002
Autoset integration time: false
Trigger mode: 4
Integration Time (sec): 1.000000E-1
Scans to average: 10
Electric dark correction enabled: false
Nonlinearity correction enabled: false
Boxcar width: 5
Stray light correction enabled: false
XAxis mode: Wavelengths
Stop averaging: false
Number of Pixels in Spectrum: 3648
>>>>>Begin Spectral Data<<<<<
177.575	-110.23
177.794	-678.57
178.014	43.1
178.233	151.35
178.452	1900
178.672	31.21
178.891	9.68
179.11	51.69
179.33	37.4
179.549	53.01
179.768	68.06
179.987	76.88
180.207	127.27
180.426	133.74
180.645	531.67
180.864	-106.67
181.084	-95.69
181.303	-73.83
181.522	-71.65
181.741	-57.86
181.96	-43.41
182.179	-32.19
182.398	-23.85
182.618	-38.84
182.837	-100.78
183.056	-169.07
183.275	-258.15
183.494	-71.15
183.713	-560.32
183.932	-725
184.151	40500
184.37	132.19
184.589	143.53
184.808	135.03
185.027	134.38
185.246	103.37
185.465	140.73
185.684	114.12
185.903	145.05
186.122	298.2
186.341	132.56
186.56	-69.23
186.779	-33.33
186.998	-15.29
187.216	11.82
187.435	15.79
187.654	36.49
187.873	22.77
188.092	23.55
188.311	35.35
188.53	39.79
188.748	8.98
188.967	-26.1
189.186	84.71
189.405	5.88
189.623	42.59
189.842	67.58
190.061	125.26
190.28	74.86
190.498	80.05
190.717	144.01
190.936	102.4
191.154	109.81
191.373	65.76
191.592	127.98
191.81	-1093.75
192.029	-502.5
192.248	-53.5
192.466	24.59
192.685	52.04
192.904	113.02
193.122	489.36
193.341	878.95
193.559	1269.23
193.778	-636.36
193.996	-14.47
194.215	-40.11
194.433	-71.96
194.652	11.11
194.87	-1800
195.089	129.27
195.307	-183.87
195.526	16.32
195.744	-4.36
195.963	41.37
196.181	59.44
196.399	82.3
196.618	74.4
196.836	122.97
197.055	153.44
197.273	116.75
197.491	166.38
197.71	131.71
197.928	241.14
198.146	171.15
198.365	173.74
198.583	98.96
198.801	8.84
199.019	-24.82
199.238	-105.33
199.456	-100.87
199.674	-53.61
199.892	-81.68
200.111	-102.44
200.329	-36.2
200.547	-22.34
200.765	5.77
200.983	46.99
201.202	21.29
201.42	33.72
201.638	46.15
201.856	46.24
202.074	80.71
202.292	54.3
202.51	1.04
202.728	-54.42
202.946	-76.85
203.165	-106.42
203.383	-523.71
203.601	-758.7
203.819	-99.74
204.037	-92.14
204.255	-51.28
204.473	-135.59
204.691	-116.55
204.909	-45.88
205.127	-31.01
205.345	25.8
205.562	14.34
205.78	-18.36
205.998	48.72
206.216	17.05
206.434	15.85
206.652	-11.01
206.87	44.82
207.088	52.52
207.306	31.23
207.523	17.8
207.741	19.77
207.959	36.88
208.177	38.74
208.395	32.81
208.612	8.68
208.83	0.54
209.048	52.2
209.266	28.47
209.483	20.8
209.701	53.94
209.919	44.49
210.136	14.81
210.354	-1.7
210.572	14.22
210.79	15.34
211.007	19.48
211.225	14.15
211.442	-9.98
211.66	4.75
211.878	-13.29
212.095	-17.14
212.313	-37.84
212.53	4.42
212.748	-35.45
212.966	-9
213.183	-35.03
213.401	7.65
213.618	21.06
213.836	-5.88
214.053	-114.29
214.271	-13.41
214.488	13.56
214.705	-20.24
214.923	-10.86
215.14	-2.21
215.358	-3.61
215.575	5.39
215.793	-19.81
216.01	-20.18
216.227	3.67
216.445	15.06
216.662	7.36
216.879	8.14
217.097	11.09
217.314	-1.07
217.531	6.71
217.749	-19.32
217.966	-12.86
218.183	10.63
218.4	19.06
218.618	17.58
218.835	30.17
219.052	25.46
219.269	7.09
219.487	16.67
219.704	26.56
219.921	33.97
220.138	28.91
220.355	27.17
220.572	26.84
220.79	18.2
221.007	6.74
221.224	-10.36
221.441	-6.72
221.658	3.71
221.875	-0.1
222.092	2.45
222.309	-3.52
222.526	-6.24
222.743	-8.44
222.96	-7.83
223.177	-10.9
223.394	-9.13
223.611	-5.82
223.828	-4.46
224.045	-16.03
224.262	-11.04
224.479	-12.56
224.696	-9.8
224.913	-7.61
225.13	-9.05
225.347	-12.72
225.564	-8.78
225.781	-8.31
225.997	-4.3
226.214	-0.45
226.431	3.83
226.648	2.32
226.865	0.05
227.082	-1.01
227.298	0.78
227.515	2.47
227.732	3.21
227.949	3.33
228.165	4.94
228.382	5.25
228.599	4.94
228.816	5.08
229.032	5.09
229.249	4.71
229.466	5.38
229.682	6.1
229.899	6.21
230.116	5.98
230.332	5.47
230.549	5.09
230.765	3.81
230.982	3.3
231.199	2.92
231.415	3.29
231.632	2.88
231.848	2.53
232.065	0.88
232.281	0.69
232.498	-0.36
232.714	0.6
232.931	0.02
233.147	0.57
233.364	0.81
233.58	0.57
233.797	-1.37
234.013	-0.4
234.23	-1.84
234.446	-0.4
234.662	-0.93
234.879	0.01
235.095	1.15
235.312	2.76
235.528	3.11
235.744	2.87
235.961	3.24
236.177	5.55
236.393	6.49
236.61	7.13
236.826	6.75
237.042	8.09
237.258	8.88
237.475	8.4
237.691	5.87
237.907	4.33
238.123	3.46
238.339	2.97
238.556	2.42
238.772	0.78
238.988	0.32
239.204	1.3
239.42	0.64
239.636	0.54
239.853	1.6
240.069	2.82
240.285	4.3
240.501	4.27
240.717	3.9
240.933	3.81
241.149	4.75
241.365	4.75
241.581	4.48
241.797	4.37
242.013	4.41
242.229	3.59
242.445	3.2
242.661	2.58
242.877	2.55
243.093	2.85
243.309	2.88
243.525	2.36
243.741	2.31
243.957	1.91
244.173	2.08
244.388	2.47
244.604	2.38
244.82	2.74
245.036	3.4
245.252	3.01
245.468	3.4
245.683	3.49
245.899	3.88
246.115	3.83
246.331	3.53
246.547	3.39
246.762	3.18
246.978	3.35
247.194	3.26
247.409	3.17
247.625	3.29
247.841	2.75
248.057	2.69
248.272	2.68
248.488	2.49
248.703	2.41
248.919	2.3
249.135	2.16
249.35	2.16
249.566	2.12
249.782	2.33
249.997	2.85
250.213	3.3
250.428	3.12
250.644	2.67
250.859	3.52
251.075	3.55
251.29	3.69
251.506	3.42
251.721	3.38
251.937	4.34
252.152	4.59
252.368	4.4
252.583	4.56
252.798	4.89
253.014	5.25
253.229	4.85
253.445	5.63
253.66	5.42
253.875	5.41
254.091	5.89
254.306	5.72
254.521	4.67
254.737	4.18
254.952	3.7
255.167	3.43
255.383	3.09
255.598	2.95
255.813	2.07
256.028	1.72
256.244	1.99
256.459	1.97
256.674	1.22
256.889	1.38
257.104	2.12
257.32	2.19
257.535	1.54
257.75	1.63
257.965	1.68
258.18	1.7
258.395	2.04
258.61	2.13
258.826	1.58
259.041	1.68
259.256	1.67
259.471	1.42
259.686	1.3
259.901	1.59
260.116	1.49
260.331	1.38
260.546	1.61
260.761	1.66
260.976	1.43
261.191	1.63
261.406	1.64
261.621	1.59
261.836	1.54
262.05	1.93
262.265	1.63
262.48	1.56
262.695	1.76
262.91	1.34
263.125	1.09
263.34	1.55
263.555	1.65
263.769	1.45
263.984	1.89
264.199	1.91
264.414	1.58
264.629	1.51
264.843	1.62
265.058	2.4
265.273	2.67
265.488	2.59
265.702	2.53
265.917	2.61
266.132	2.67
266.346	2.49
266.561	2.34
266.776	2.89
266.99	3.18
267.205	2.84
267.42	1.85
267.634	2.28
267.849	2.45
268.063	2.13
268.278	2.18
268.492	2.08
268.707	2.26
268.922	2.57
269.136	1.77
269.351	1.6
269.565	1.75
269.78	2.08
269.994	2.08
270.209	1.96
270.423	2.15
270.637	1.78
270.852	1.97
271.066	1.83
271.281	1.65
271.495	1.76
271.709	1.64
271.924	1.53
272.138	1.6
272.353	1.36
272.567	1.37
272.781	1.53
272.996	1.58
273.21	1.33
273.424	1.6
273.638	1.71
273.853	2.2
274.067	2.24
274.281	2.37
274.495	2.03
274.71	2.11
274.924	2.35
275.138	2.65
275.352	2.57
275.566	2.82
275.781	2.64
275.995	2.49
276.209	2.44
276.423	2.18
276.637	2.56
276.851	3.51
277.065	3.46
277.279	2.9
277.493	2.8
277.707	2.77
277.921	2.5
278.135	2.47
278.349	2.9
278.563	2.86
278.777	3.21
278.991	2.49
279.205	2.11
279.419	1.95
279.633	2.71
279.847	2.3
280.061	2.19
280.275	2.43
280.489	2.56
280.703	2.25
280.917	1.96
281.131	1.96
281.344	2.03
281.558	1.84
281.772	1.85
281.986	1.58
282.2	1.42
282.414	1.29
282.627	1.22
282.841	1.21
283.055	1.08
283.269	1.13
283.482	1.17
283.696	1.54
283.91	1.17
284.123	1.17
284.337	1.12
284.551	1.33
284.764	1.42
284.978	1.56
285.192	1.2
285.405	1.34
285.619	1.44
285.833	1.54
286.046	1.71
286.26	1.86
286.473	1.98
286.687	2.02
286.9	1.89
287.114	2.23
287.327	2.03
287.541	2.34
287.754	2.27
287.968	2.08
288.181	1.87
288.395	1.53
288.608	1.63
288.822	1.65
289.035	1.35
289.248	1.32
289.462	1.08
289.675	0.92
289.889	0.75
290.102	0.74
290.315	0.5
290.529	0.66
290.742	0.91
290.955	1.37
291.169	1.22
291.382	1.32
291.595	1.52
291.808	1.89
292.022	1.89
292.235	1.9
292.448	2.09
292.661	2.37
292.875	2.66
293.088	2.41
293.301	2.14
293.514	1.8
293.727	1.74
293.94	1.71
294.153	1.68
294.367	1.85
294.58	2.14
294.793	2.3
295.006	2.6
295.219	2.14
295.432	2.03
295.645	1.92
295.858	2.27
296.071	2.47
296.284	2.61
296.497	2.5
296.71	2.7
296.923	2.73
297.136	2.63
297.349	2.45
297.562	2.48
297.775	2.54
297.988	2.87
298.201	3.14
298.414	3.11
298.626	3.08
298.839	3.08
299.052	3.17
299.265	3.05
299.478	2.92
299.691	3.02
299.903	2.98
300.116	3.4
300.329	3.02
300.542	2.86
300.755	2.88
300.967	2.93
301.18	3.11
301.393	2.6
301.605	2.34
301.818	2.33
302.031	2.3
302.243	2.46
302.456	2.35
302.669	2.08
302.881	1.94
303.094	2.17
303.307	2.02
303.519	2.08
303.732	2.57
303.944	3.06
304.157	3.21
304.37	3.21
304.582	3.26
304.795	2.9
305.007	3.21
305.22	3.16
305.432	2.85
305.645	2.74
305.857	2.59
306.069	2.53
306.282	2.33
306.494	2.48
306.707	2.52
306.919	2.89
307.132	3.34
307.344	3.61
307.556	3.93
307.769	4.38
307.981	4.66
308.193	4.93
308.406	4.96
308.618	4.92
308.83	4.9
309.043	4.81
309.255	4.75
309.467	4.5
309.679	4.52
309.892	4.43
310.104	4.17
310.316	3.91
310.528	3.93
310.74	3.84
310.953	3.87
311.165	3.87
311.377	4.18
311.589	4.01
311.801	4.55
312.013	4.34
312.225	4.34
312.437	4.54
312.649	4.65
312.862	4.5
313.074	4.51
313.286	4.65
313.498	5.05
313.71	5.04
313.922	5.44
314.134	5.14
314.346	5.4
314.558	5.74
314.77	5.96
314.982	6.39
315.193	6.47
315.405	6.6
315.617	7.01
315.829	6.82
316.041	7.39
316.253	7.38
316.465	7.22
316.677	7.36
316.888	6.97
317.1	6.78
317.312	6.71
317.524	6.82
317.736	6.56
317.947	6.43
318.159	6.02
318.371	5.49
318.583	5.09
318.794	5.32
319.006	5.68
319.218	5.84
319.43	6.4
319.641	6.57
319.853	6.46
320.064	7.18
320.276	6.83
320.488	7.68
320.699	7.48
320.911	7.9
321.123	8.29
321.334	8.21
321.546	8.09
321.757	7.79
321.969	7.68
322.18	7.97
322.392	7.63
322.603	7.86
322.815	7.67
323.026	7.79
323.238	8.12
323.449	7.83
323.661	7.55
323.872	7.98
324.083	7.96
324.295	8.05
324.506	8.29
324.718	8.62
324.929	8.83
325.14	9.28
325.352	9.6
325.563	9.24
325.774	9.57
325.986	10.07
326.197	10.61
326.408	11.28
326.62	11.62
326.831	11.85
327.042	12.04
327.253	12.19
327.464	12.42
327.676	12.89
327.887	13.62
328.098	13.87
328.309	14.08
328.52	14.1
328.732	14.15
328.943	14.3
329.154	14.53
329.365	14.57
329.576	15.4
329.787	15.34
329.998	15.59
330.209	15.75
330.42	16.11
330.631	16.23
330.842	16.23
331.053	16.41
331.264	16.52
331.475	16.57
331.686	17.29
331.897	17.04
332.108	17.25
332.319	17.36
332.53	17.66
332.741	17.72
332.952	17.98
333.163	18
333.374	18.34
333.585	18.57
333.795	18.94
334.006	18.33
334.217	18.55
334.428	18.59
334.639	18.85
334.849	19.03
335.06	19.39
335.271	19.45
335.482	19.98
335.692	19.89
335.903	19.95
336.114	20
336.325	20.39
336.535	20.33
336.746	20.65
336.957	20.23
337.167	19.99
337.378	19.65
337.589	19.83
337.799	19.62
338.01	19.5
338.22	19.79
338.431	19.84
338.642	19.99
338.852	20.17
339.063	19.76
339.273	20.19
339.484	20.55
339.694	20.77
339.905	20.74
340.115	20.89
340.326	21.17
340.536	20.97
340.746	20.51
340.957	20.53
341.167	20.48
341.378	20.75
341.588	20.31
341.799	19.77
342.009	19.63
342.219	19.7
342.43	19.71
342.64	19.6
342.85	19.54
343.061	20.03
343.271	19.84
343.481	19.58
343.691	19.76
343.902	19.76
344.112	20.11
344.322	20.24
344.532	19.97
344.743	19.75
344.953	19.73
345.163	19.85
345.373	19.38
345.583	19.53
345.793	19.42
346.004	19.19
346.214	19.17
346.424	19.16
346.634	19.13
346.844	19.34
347.054	19.36
347.264	19.04
347.474	19.21
347.684	19.42
347.894	19.28
348.104	19.68
348.314	19.57
348.524	19.74
348.734	19.5
348.944	19.48
349.154	19.56
349.364	19.63
349.574	19.6
349.784	19.56
349.994	19.5
350.204	19.51
350.413	19.44
350.623	19.44
350.833	19.35
351.043	19.7
351.253	19.59
351.463	19.63
351.672	19.63
351.882	19.82
352.092	19.86
352.302	19.72
352.511	19.86
352.721	19.82
352.931	19.87
353.141	19.61
353.35	19.33
353.56	19.34
353.77	18.95
353.979	18.69
354.189	18.36
354.399	17.95
354.608	17.84
354.818	17.63
355.027	17.53
355.237	17.39
355.447	17.55
355.656	17.69
355.866	17.63
356.075	17.67
356.285	17.97
356.494	18.2
356.704	18.33
356.913	18.64
357.123	18.66
357.332	18.54
357.542	18.59
357.751	18.71
357.96	18.71
358.17	18.84
358.379	18.69
358.589	18.31
358.798	18.46
359.007	18.37
359.217	18.29
359.426	18.45
359.635	18.49
359.845	18.49
360.054	18.28
360.263	18.15
360.472	17.87
360.682	17.84
360.891	17.96
361.1	17.89
361.309	17.67
361.519	17.47
361.728	17.44
361.937	17.44
362.146	17.4
362.355	17.38
362.564	17.27
362.774	17.42
362.983	17.4
363.192	17.27
363.401	17.23
363.61	17.38
363.819	17.42
364.028	17.34
364.237	17.32
364.446	17.18
364.655	17.28
364.864	17.46
365.073	17.56
365.282	17.85
365.491	18
365.7	18.1
365.909	18.16
366.118	18.19
366.327	18.13
366.536	18.27
366.745	18.37
366.954	18.22
367.162	17.95
367.371	17.7
367.58	17.36
367.789	17.29
367.998	17.03
368.207	17.11
368.415	17.04
368.624	16.96
368.833	17.02
369.042	16.94
369.25	17.09
369.459	17.33
369.668	17.27
369.877	17.54
370.085	17.62
370.294	17.83
370.503	17.75
370.711	17.91
370.92	17.85
371.129	17.63
371.337	17.54
371.546	17.48
371.754	17.46
371.963	17.6
372.171	17.45
372.38	17.4
372.589	17.21
372.797	17.09
373.006	17.15
373.214	17.17
373.423	17.16
373.631	17.48
373.84	17.55
374.048	17.4
374.256	17.53
374.465	17.52
374.673	17.47
374.882	17.43
375.09	17.49
375.298	17.46
375.507	17.4
375.715	17.24
375.923	17.26
376.132	17.13
376.34	17.28
376.548	17.02
376.757	17.03
376.965	16.94
377.173	16.91
377.381	16.86
377.59	16.61
377.798	16.75
378.006	16.88
378.214	16.74
378.423	16.68
378.631	16.5
378.839	16.52
379.047	16.47
379.255	16.49
379.463	16.48
379.671	16.47
379.879	16.55
380.088	16.35
380.296	16.3
380.504	15.98
380.712	15.91
380.92	15.98
381.128	15.72
381.336	15.66
381.544	15.71
381.752	15.48
381.96	15.42
382.168	15.46
382.376	15.46
382.584	15.49
382.791	15.52
382.999	15.85
383.207	15.83
383.415	15.97
383.623	15.84
383.831	15.84
384.039	15.98
384.247	16.11
384.454	15.98
384.662	15.91
384.87	15.75
385.078	15.92
385.285	15.71
385.493	15.69
385.701	15.76
385.909	15.82
386.116	15.65
386.324	15.73
386.532	15.5
386.739	15.41
386.947	15.58
387.155	15.66
387.362	15.6
387.57	15.55
387.778	15.61
387.985	15.66
388.193	15.57
388.4	15.58
388.608	15.4
388.816	15.48
389.023	15.69
389.231	15.59
389.438	15.64
389.646	15.66
389.853	15.61
390.061	15.51
390.268	15.46
390.475	15.69
390.683	15.82
390.89	15.86
391.098	15.81
391.305	15.64
391.512	15.68
391.72	15.69
391.927	15.59
392.135	15.52
392.342	15.41
392.549	15.31
392.756	15.19
392.964	15.15
393.171	15.13
393.378	15.15
393.586	15.19
393.793	15.28
394	15.19
394.207	15.24
394.414	15.27
394.622	15.19
394.829	15.08
395.036	14.99
395.243	15.08
395.45	15.15
395.657	15.07
395.864	15.18
396.072	14.93
396.279	14.97
396.486	15.08
396.693	15.23
396.9	15.4
397.107	15.61
397.314	15.66
397.521	15.46
397.728	15.49
397.935	15.59
398.142	15.44
398.349	15.39
398.556	15.43
398.763	15.36
398.97	15.17
399.177	15.19
399.383	15.25
399.59	15.36
399.797	15.51
400.004	15.54
400.211	15.49
400.418	15.45
400.625	15.48
400.831	15.35
401.038	15.25
401.245	15.47
401.452	15.36
401.658	15.3
401.865	15.11
402.072	14.75
402.279	14.65
402.485	14.47
402.692	14.64
402.899	14.98
403.105	15.14
403.312	15.2
403.519	15.16
403.725	15.25
403.932	15.23
404.138	15.2
404.345	15.48
404.552	15.29
404.758	15.59
404.965	15.64
405.171	15.45
405.378	15.31
405.584	15.42
405.791	15.36
405.997	15.22
406.204	15.18
406.41	15.45
406.617	15.49
406.823	15.67
407.029	15.66
407.236	15.65
407.442	15.75
407.649	15.85
407.855	15.72
408.061	15.62
408.268	15.76
408.474	15.8
408.68	15.63
408.887	15.45
409.093	15.6
409.299	15.51
409.505	15.35
409.712	15.38
409.918	15.41
410.124	15.42
410.33	15.46
410.537	15.48
410.743	15.55
410.949	15.48
411.155	15.67
411.361	15.6
411.567	15.66
411.773	15.67
411.98	15.53
412.186	15.58
412.392	15.52
412.598	15.59
412.804	15.4
413.01	15.38
413.216	15.37
413.422	15.3
413.628	15.26
413.834	15.18
414.04	15.39
414.246	15.42
414.452	15.42
414.658	15.45
414.864	15.45
415.07	15.6
415.275	15.69
415.481	15.91
415.687	15.95
415.893	16
416.099	16.17
416.305	15.97
416.511	15.98
416.716	15.92
416.922	16.02
417.128	16.17
417.334	16.28
417.539	16.26
417.745	16.16
417.951	16.08
418.157	16.03
418.362	15.91
418.568	16.01
418.774	16
418.979	16.07
419.185	16.1
419.391	16.05
419.596	16.04
419.802	16.08
420.008	16.12
420.213	16.27
420.419	16.29
420.624	16.32
420.83	16.32
421.035	16.34
421.241	16.3
421.446	16.24
421.652	16.22
421.857	16.21
422.063	16.12
422.268	16.14
422.474	16.05
422.679	16.11
422.885	16.11
423.09	16.16
423.295	16.18
423.501	16.25
423.706	16.29
423.911	16.37
424.117	16.35
424.322	16.44
424.527	16.45
424.733	16.43
424.938	16.41
425.143	16.46
425.349	16.48
425.554	16.47
425.759	16.39
425.964	16.4
426.169	16.38
426.375	16.38
426.58	16.29
426.785	16.37
426.99	16.47
427.195	16.53
427.4	16.53
427.605	16.48
427.811	16.52
428.016	16.64
428.221	16.72
428.426	16.68
428.631	16.75
428.836	16.81
429.041	16.79
429.246	16.8
429.451	16.75
429.656	16.81
429.861	16.91
430.066	16.9
430.271	16.91
430.476	16.78
430.681	16.8
430.886	16.91
431.09	16.96
431.295	16.91
431.5	16.89
431.705	16.89
431.91	16.77
432.115	16.81
432.32	16.84
432.524	16.84
432.729	17.01
432.934	16.99
433.139	16.99
433.343	17.01
433.548	17.09
433.753	17.09
433.958	17.15
434.162	17.25
434.367	17.2
434.572	17.22
434.776	17.28
434.981	17.3
435.186	17.4
435.39	17.4
435.595	17.37
435.799	17.33
436.004	17.38
436.209	17.4
436.413	17.48
436.618	17.61
436.822	17.73
437.027	17.76
437.231	17.78
437.436	17.73
437.64	17.77
437.845	17.85
438.049	17.86
438.253	17.87
438.458	17.85
438.662	17.83
438.867	17.81
439.071	17.85
439.275	17.84
439.48	17.8
439.684	17.87
439.888	17.84
440.093	17.88
440.297	17.88
440.501	17.89
440.706	18.03
440.91	18.1
441.114	18.12
441.318	17.98
441.523	17.94
441.727	17.98
441.931	17.98
442.135	17.91
442.339	17.97
442.543	18.07
442.748	18.09
442.952	17.98
443.156	17.87
443.36	17.85
443.564	17.92
443.768	17.96
443.972	17.91
444.176	17.85
444.38	18.02
444.584	17.86
444.788	17.77
444.992	17.79
445.196	17.78
445.4	17.81
445.604	17.8
445.808	17.78
446.012	17.73
446.216	17.79
446.42	17.9
446.624	17.79
446.828	17.84
447.032	17.92
447.235	17.91
447.439	18.02
447.643	17.92
447.847	17.95
448.051	17.99
448.254	18.06
448.458	18.03
448.662	17.93
448.866	18
449.069	18.02
449.273	17.98
449.477	18.12
449.681	18.02
449.884	18.23
450.088	18.21
450.292	18.33
450.495	18.34
450.699	18.43
450.902	18.58
451.106	18.55
451.31	18.51
451.513	18.55
451.717	18.46
451.92	18.43
452.124	18.39
452.327	18.43
452.531	18.35
452.734	18.21
452.938	18.23
453.141	18.13
453.345	18.23
453.548	18.27
453.752	18.31
453.955	18.17
454.158	18.21
454.362	18.18
454.565	18.16
454.769	18.17
454.972	18.36
455.175	18.2
455.379	18.24
455.582	18.26
455.785	18.26
455.988	18.21
456.192	18.39
456.395	18.47
456.598	18.43
456.801	18.44
457.005	18.49
457.208	18.44
457.411	18.55
457.614	18.52
457.817	18.4
458.021	18.47
458.224	18.44
458.427	18.37
458.63	18.35
458.833	18.39
459.036	18.34
459.239	18.31
459.442	18.37
459.645	18.36
459.848	18.33
460.051	18.39
460.254	18.41
460.457	18.47
460.66	18.48
460.863	18.51
461.066	18.47
461.269	18.63
461.472	18.59
461.675	18.5
461.878	18.54
462.081	18.55
462.284	18.59
462.486	18.5
462.689	18.48
462.892	18.47
463.095	18.42
463.298	18.54
463.5	18.44
463.703	18.5
463.906	18.58
464.109	18.45
464.311	18.5
464.514	18.48
464.717	18.47
464.92	18.39
465.122	18.46
465.325	18.51
465.528	18.45
465.73	18.47
465.933	18.39
466.135	18.4
466.338	18.52
466.541	18.58
466.743	18.55
466.946	18.58
467.148	18.63
467.351	18.59
467.553	18.63
467.756	18.66
467.958	18.63
468.161	18.84
468.363	18.77
468.566	18.83
468.768	18.77
468.971	18.83
469.173	18.82
469.375	18.85
469.578	18.91
469.78	18.89
469.983	18.92
470.185	18.86
470.387	18.73
470.59	18.79
470.792	18.74
470.994	18.8
471.196	18.79
471.399	18.81
471.601	18.81
471.803	18.89
472.005	18.79
472.208	18.82
472.41	18.92
472.612	18.96
472.814	18.94
473.016	19.01
473.218	18.9
473.421	18.82
473.623	18.92
473.825	18.89
474.027	18.73
474.229	18.77
474.431	18.68
474.633	18.67
474.835	18.62
475.037	18.56
475.239	18.51
475.441	18.61
475.643	18.67
475.845	18.58
476.047	18.61
476.249	18.61
476.451	18.66
476.653	18.71
476.855	18.77
477.057	18.77
477.258	18.85
477.46	18.8
477.662	18.75
477.864	18.77
478.066	18.87
478.268	18.85
478.469	18.85
478.671	18.84
478.873	18.83
479.075	18.66
479.276	18.67
479.478	18.67
479.68	18.65
479.882	18.67
480.083	18.69
480.285	18.51
480.487	18.44
480.688	18.51
480.89	18.52
481.091	18.46
481.293	18.49
481.495	18.45
481.696	18.45
481.898	18.52
482.099	18.52
482.301	18.55
482.502	18.61
482.704	18.65
482.905	18.64
483.107	18.67
483.308	18.68
483.51	18.69
483.711	18.72
483.913	18.71
484.114	18.7
484.315	18.71
484.517	18.68
484.718	18.67
484.92	18.65
485.121	18.65
485.322	18.57
485.524	18.58
485.725	18.61
485.926	18.58
486.127	18.57
486.329	18.53
486.53	18.49
486.731	18.51
486.932	18.51
487.134	18.49
487.335	18.55
487.536	18.6
487.737	18.6
487.938	18.55
488.139	18.58
488.341	18.6
488.542	18.67
488.743	18.75
488.944	18.76
489.145	18.79
489.346	18.9
489.547	18.85
489.748	18.83
489.949	18.85
490.15	18.91
490.351	18.87
490.552	18.88
490.753	18.86
490.954	18.79
491.155	18.75
491.356	18.76
491.557	18.67
491.758	18.7
491.959	18.75
492.159	18.75
492.36	18.73
492.561	18.76
492.762	18.76
492.963	18.79
493.164	18.77
493.364	18.82
493.565	18.86
493.766	18.88
493.967	18.86
494.167	18.88
494.368	18.95
494.569	18.95
494.769	19.03
494.97	19.06
495.171	19.07
495.371	19.12
495.572	19.07
495.773	19.03
495.973	19
496.174	18.99
496.375	18.92
496.575	18.91
496.776	18.95
496.976	18.91
497.177	18.97
497.377	18.97
497.578	18.99
497.778	19.01
497.979	19.05
498.179	19.09
498.38	19.12
498.58	19.18
498.78	19.14
498.981	19.11
499.181	19.12
499.382	19.02
499.582	19.02
499.782	19
499.983	18.94
500.183	18.99
500.383	19.02
500.584	19.05
500.784	18.99
500.984	19.06
501.184	19.2
501.385	19.26
501.585	19.27
501.785	19.28
501.985	19.36
502.185	19.53
502.386	19.59
502.586	19.61
502.786	19.62
502.986	19.64
503.186	19.72
503.386	19.58
503.586	19.53
503.786	19.53
503.987	19.66
504.187	19.6
504.387	19.62
504.587	19.54
504.787	19.55
504.987	19.59
505.187	19.73
505.387	19.7
505.587	19.87
505.786	19.85
505.986	19.96
506.186	19.95
506.386	20.08
506.586	20.13
506.786	20.19
506.986	20.22
507.186	20.27
507.386	20.24
507.585	20.25
507.785	20.25
507.985	20.42
508.185	20.45
508.384	20.52
508.584	20.55
508.784	20.53
508.984	20.55
509.183	20.64
509.383	20.66
509.583	20.69
509.782	20.72
509.982	20.66
510.182	20.66
510.381	20.64
510.581	20.53
510.781	20.43
510.98	20.46
511.18	20.41
511.379	20.39
511.579	20.38
511.778	20.38
511.978	20.38
512.177	20.4
512.377	20.32
512.576	20.41
512.776	20.52
512.975	20.58
513.175	20.58
513.374	20.71
513.573	20.74
513.773	20.81
513.972	20.77
514.172	20.83
514.371	20.98
514.57	21.07
514.77	21
514.969	21.03
515.168	21.02
515.367	21.07
515.567	21.13
515.766	21.18
515.965	21.18
516.164	21.33
516.364	21.37
516.563	21.31
516.762	21.43
516.961	21.57
517.16	21.53
517.359	21.66
517.559	21.72
517.758	21.71
517.957	21.73
518.156	21.77
518.355	21.75
518.554	21.83
518.753	21.97
518.952	21.92
519.151	21.91
519.35	22.04
519.549	22.05
519.748	22.11
519.947	22.21
520.146	22.21
520.345	22.3
520.544	22.5
520.743	22.54
520.942	22.56
521.141	22.64
521.339	22.79
521.538	22.79
521.737	22.86
521.936	22.85
522.135	22.76
522.333	22.93
522.532	22.96
522.731	22.88
522.93	22.9
523.129	22.92
523.327	22.93
523.526	22.91
523.725	23.01
523.923	23.09
524.122	23.1
524.321	23.22
524.519	23.19
524.718	23.19
524.917	23.26
525.115	23.31
525.314	23.29
525.512	23.36
525.711	23.38
525.909	23.4
526.108	23.4
526.306	23.45
526.505	23.49
526.703	23.49
526.902	23.54
527.1	23.57
527.299	23.57
527.497	23.62
527.696	23.61
527.894	23.63
528.092	23.68
528.291	23.71
528.489	23.75
528.688	23.77
528.886	23.85
529.084	23.89
529.283	23.92
529.481	23.98
529.679	24
529.877	24.08
530.076	24.11
530.274	24.13
530.472	24.15
530.67	24.2
530.869	24.25
531.067	24.27
531.265	24.33
531.463	24.38
531.661	24.4
531.859	24.47
532.057	24.47
532.255	24.57
532.454	24.56
532.652	24.65
532.85	24.63
533.048	24.7
533.246	24.71
533.444	24.71
533.642	24.73
533.84	24.75
534.038	24.72
534.236	24.78
534.434	24.78
534.632	24.85
534.83	24.88
535.027	24.96
535.225	24.95
535.423	24.97
535.621	24.98
535.819	24.99
536.017	25.01
536.215	25.11
536.412	25.11
536.61	25.2
536.808	25.19
537.006	25.22
537.203	25.24
537.401	25.29
537.599	25.32
537.797	25.34
537.994	25.41
538.192	25.51
538.39	25.58
538.587	25.65
538.785	25.63
538.983	25.7
539.18	25.71
539.378	25.74
539.575	25.79
539.773	25.87
539.97	25.9
540.168	25.85
540.366	25.89
540.563	25.87
540.761	25.93
540.958	25.96
541.155	25.99
541.353	26.02
541.55	26.07
541.748	26.05
541.945	26.05
542.143	26.11
542.34	26.2
542.537	26.18
542.735	26.27
542.932	26.27
543.129	26.3
543.327	26.35
543.524	26.4
543.721	26.45
543.919	26.55
544.116	26.63
544.313	26.69
544.51	26.73
544.708	26.83
544.905	26.89
545.102	26.94
545.299	27.01
545.496	27.07
545.693	27.14
545.891	27.16
546.088	27.13
546.285	27.13
546.482	27.1
546.679	27.14
546.876	27.11
547.073	27.09
547.27	27.06
547.467	26.99
547.664	26.97
547.861	26.87
548.058	26.87
548.255	26.91
548.452	26.94
548.649	26.98
548.846	26.94
549.043	26.93
549.24	26.86
549.437	27.05
549.633	27.1
549.83	27.16
550.027	27.11
550.224	27.18
550.421	27.06
550.618	27.08
550.814	26.96
551.011	26.89
551.208	27.12
551.405	27.12
551.601	26.99
551.798	27.03
551.995	27.03
552.191	27.09
552.388	27.04
552.585	27.07
552.781	26.97
552.978	27.08
553.175	27.19
553.371	26.95
553.568	26.95
553.764	26.96
553.961	27.05
554.157	26.96
554.354	27.04
554.55	27.01
554.747	27.16
554.943	27.14
555.14	27.06
555.336	27.09
555.533	27.18
555.729	27.23
555.926	27.14
556.122	26.99
556.318	27
556.515	26.89
556.711	26.98
556.907	26.85
557.104	26.9
557.3	26.92
557.496	26.8
557.693	26.76
557.889	26.76
558.085	26.82
558.281	26.76
558.478	26.65
558.674	26.68
558.87	26.58
559.066	26.65
559.262	26.66
559.459	26.79
559.655	26.86
559.851	26.87
560.047	26.87
560.243	26.93
560.439	27.02
560.635	27.16
560.831	27.22
561.027	27.23
561.223	27.22
561.419	27.2
561.615	27.23
561.811	27.27
562.007	27.22
562.203	27.22
562.399	27.2
562.595	27.22
562.791	27.16
562.987	27.09
563.183	26.98
563.379	27.08
563.575	27.15
563.771	27.16
563.966	27.12
564.162	27.17
564.358	27.18
564.554	27.22
564.75	27.23
564.945	27.37
565.141	27.47
565.337	27.62
565.533	27.53
565.728	27.56
565.924	27.45
566.12	27.52
566.315	27.55
566.511	27.54
566.707	27.48
566.902	27.43
567.098	27.35
567.293	27.31
567.489	27.23
567.684	27.36
567.88	27.39
568.076	27.5
568.271	27.53
568.467	27.63
568.662	27.65
568.858	27.7
569.053	27.79
569.248	27.86
569.444	27.84
569.639	28.05
569.835	27.94
570.03	27.86
570.225	27.89
570.421	27.9
570.616	27.77
570.812	27.83
571.007	27.75
571.202	27.73
571.397	27.73
571.593	27.7
571.788	27.66
571.983	27.73
572.178	27.77
572.374	27.61
572.569	27.57
572.764	27.56
572.959	27.6
573.154	27.67
573.35	27.72
573.545	27.69
573.74	27.78
573.935	27.7
574.13	27.67
574.325	27.61
574.52	27.7
574.715	27.73
574.91	27.87
575.105	27.77
575.3	27.93
575.495	27.93
575.69	27.94
575.885	27.86
576.08	27.96
576.275	27.98
576.47	28.09
576.665	28.13
576.86	28.07
577.055	28.02
577.25	28.02
577.444	27.93
577.639	27.88
577.834	27.91
578.029	27.92
578.224	27.83
578.418	27.82
578.613	27.95
578.808	28.04
579.003	28.16
579.197	28.28
579.392	28.35
579.587	28.34
579.781	28.24
579.976	28.29
580.171	28.36
580.365	28.47
580.56	28.56
580.755	28.4
580.949	28.33
581.144	28.25
581.338	28.27
581.533	28.39
581.727	28.49
581.922	28.67
582.116	28.66
582.311	28.68
582.505	28.61
582.7	28.52
582.894	28.56
583.089	28.6
583.283	28.67
583.478	28.55
583.672	28.5
583.866	28.53
584.061	28.46
584.255	28.46
584.449	28.58
584.644	28.61
584.838	28.62
585.032	28.67
585.226	28.78
585.421	28.73
585.615	28.84
585.809	28.74
586.003	28.79
586.198	28.89
586.392	28.96
586.586	29.17
586.78	29.17
586.974	29.32
587.168	29.42
587.363	29.39
587.557	29.4
587.751	29.47
587.945	29.6
588.139	29.55
588.333	29.54
588.527	29.59
588.721	29.3
588.915	29.3
589.109	29.27
589.303	29.25
589.497	29.28
589.691	29.25
589.885	29.05
590.079	29.05
590.273	28.97
590.466	29.11
590.66	29.15
590.854	29.24
591.048	29.23
591.242	29.16
591.436	29.15
591.629	29.21
591.823	29.36
592.017	29.52
592.211	29.59
592.404	29.73
592.598	29.72
592.792	29.73
592.986	29.71
593.179	29.77
593.373	29.81
593.567	29.77
593.76	29.6
593.954	29.66
594.147	29.63
594.341	29.6
594.535	29.58
594.728	29.59
594.922	29.54
595.115	29.55
595.309	29.61
595.502	29.58
595.696	29.52
595.889	29.5
596.083	29.48
596.276	29.44
596.47	29.51
596.663	29.55
596.856	29.45
597.05	29.45
597.243	29.4
597.437	29.46
597.63	29.52
597.823	29.66
598.017	29.73
598.21	29.67
598.403	29.79
598.596	29.61
598.79	29.61
598.983	29.63
599.176	29.61
599.369	29.71
599.563	29.7
599.756	29.67
599.949	29.77
600.142	29.71
600.335	29.82
600.528	29.71
600.722	29.95
600.915	29.9
601.108	30
601.301	30.17
601.494	30.2
601.687	30.17
601.88	30.31
602.073	30.03
602.266	30.23
602.459	30.1
602.652	30.23
602.845	30.17
603.038	30.14
603.231	30.08
603.424	30.02
603.617	29.99
603.809	29.88
604.002	29.66
604.195	29.83
604.388	29.79
604.581	29.84
604.774	29.84
604.966	29.93
605.159	30
605.352	30.04
605.545	29.93
605.737	30.01
605.93	30.17
606.123	30.39
606.316	30.39
606.508	30.33
606.701	30.46
606.894	30.57
607.086	30.63
607.279	30.71
607.471	30.68
607.664	30.83
607.857	30.97
608.049	31.02
608.242	31.17
608.434	31.34
608.627	31.72
608.819	31.99
609.012	32.29
609.204	32.59
609.397	32.94
609.589	33.67
609.782	34.17
609.974	34.61
610.166	35.22
610.359	35.65
610.551	36.24
610.743	36.64
610.936	36.91
611.128	37.08
611.32	37.32
611.513	37.49
611.705	37.31
611.897	37.37
612.09	37.24
612.282	37.07
612.474	37.05
612.666	36.6
612.858	36.39
613.051	36.16
613.243	36.06
613.435	35.66
613.627	35.4
613.819	35.32
614.011	35.1
614.203	34.83
614.395	34.6
614.588	34.34
614.78	34.28
614.972	33.95
615.164	33.7
615.356	33.38
615.548	33.31
615.74	33.2
615.932	32.92
616.124	32.66
616.315	32.65
616.507	32.55
616.699	32.34
616.891	32.21
617.083	32.15
617.275	32.15
617.467	32.22
617.659	31.99
617.85	31.78
618.042	31.75
618.234	31.91
618.426	31.9
618.618	31.9
618.809	31.87
619.001	31.88
619.193	31.85
619.384	31.81
619.576	31.93
619.768	32.04
619.959	32.17
620.151	32.28
620.343	32.09
620.534	31.95
620.726	31.91
620.917	32.19
621.109	32.23
621.301	32.37
621.492	32.32
621.684	32.17
621.875	32.12
622.067	32.12
622.258	32.13
622.45	32.09
622.641	32.11
622.832	32.17
623.024	31.92
623.215	31.82
623.407	31.82
623.598	31.9
623.789	31.9
623.981	32.12
624.172	32.1
624.363	32.06
624.555	32.33
624.746	32.42
624.937	32.4
625.129	32.53
625.32	32.68
625.511	32.66
625.702	32.56
625.893	32.74
626.085	32.63
626.276	32.7
626.467	32.75
626.658	32.68
626.849	32.81
627.04	32.7
627.231	32.67
627.422	32.64
627.614	32.59
627.805	32.75
627.996	32.54
628.187	32.56
628.378	32.54
628.569	32.49
628.76	32.59
628.951	32.6
629.142	32.81
629.332	32.73
629.523	32.67
629.714	32.87
629.905	32.88
630.096	32.94
630.287	32.91
630.478	33.14
630.669	33.38
630.859	33.34
631.05	33.12
631.241	33.17
631.432	33.14
631.623	33.04
631.813	32.91
632.004	32.95
632.195	32.9
632.385	32.94
632.576	32.66
632.767	32.42
632.957	32.32
633.148	32.24
633.339	32.01
633.529	31.97
633.72	32.18
633.91	31.98
634.101	31.88
634.292	31.94
634.482	31.8
634.673	31.81
634.863	31.77
635.054	31.77
635.244	31.86
635.435	31.85
635.625	31.93
635.815	31.79
636.006	31.81
636.196	31.65
636.387	31.61
636.577	31.68
636.767	31.53
636.958	31.51
637.148	31.41
637.338	31.54
637.529	31.6
637.719	31.77
637.909	31.61
638.099	31.55
638.29	31.62
638.48	31.59
638.67	31.65
638.86	31.77
639.05	31.9
639.241	32.13
639.431	31.95
639.621	32.04
639.811	31.83
640.001	31.81
640.191	31.96
640.381	32.18
640.571	32.31
640.761	32.27
640.951	32.46
641.141	32.36
641.331	32.15
641.521	32.12
641.711	31.88
641.901	32.08
642.091	32.35
642.281	32.62
642.471	32.62
642.661	32.58
642.851	32.52
643.041	32.31
643.231	32.44
643.42	32.46
643.61	32.5
643.8	32.75
643.99	32.74
644.18	32.7
644.369	32.52
644.559	32.41
644.749	32.39
644.939	32.51
645.128	32.68
645.318	32.83
645.508	32.83
645.697	32.97
645.887	32.88
646.076	32.79
646.266	32.95
646.456	33.01
646.645	33.1
646.835	33.18
647.024	33.35
647.214	33.52
647.403	33.36
647.593	33.41
647.782	33.47
647.972	33.46
648.161	33.33
648.351	33.32
648.54	33.37
648.73	33.36
648.919	33.38
649.108	33.32
649.298	33.16
649.487	33.06
649.677	33.06
649.866	33.1
650.055	33.32
650.244	33.66
650.434	33.63
650.623	33.62
650.812	33.69
651.002	33.88
651.191	33.86
651.38	33.79
651.569	33.85
651.758	34.04
651.947	33.86
652.137	33.77
652.326	33.49
652.515	33.39
652.704	33.49
652.893	33.57
653.082	33.37
653.271	33.35
653.46	33.33
653.649	33.28
653.838	33.33
654.027	33.54
654.216	33.61
654.405	33.91
654.594	33.96
654.783	33.87
654.972	33.55
655.161	33.55
655.35	33.44
655.539	33.79
655.728	34.12
655.916	34
656.105	34.11
656.294	34.12
656.483	33.96
656.672	34.02
656.86	34.07
657.049	34.26
657.238	34.29
657.427	34.51
657.615	34.28
657.804	34.2
657.993	34.15
658.181	34.05
658.37	34.1
658.559	34.06
658.747	33.86
658.936	33.88
659.125	34.01
659.313	33.91
659.502	33.85
659.69	33.8
659.879	33.61
660.067	33.62
660.256	33.52
660.444	33.46
660.633	33.46
660.821	33.92
661.01	33.97
661.198	33.77
661.387	33.92
661.575	34.02
661.763	34.01
661.952	34.1
662.14	34.1
662.328	34.17
662.517	34.23
662.705	34.39
662.893	34.22
663.082	34.19
663.27	34.36
663.458	34.44
663.646	34.19
663.834	34.28
664.023	34.28
664.211	34.45
664.399	34.47
664.587	34.51
664.775	34.62
664.963	34.66
665.152	34.66
665.34	34.68
665.528	34.88
665.716	34.95
665.904	35.04
666.092	35.28
666.28	35.64
666.468	35.68
666.656	35.81
666.844	35.91
667.032	35.89
667.22	35.75
667.408	35.64
667.596	35.34
667.784	35.5
667.971	35.4
668.159	35.11
668.347	34.64
668.535	34.7
668.723	34.38
668.911	34.2
669.098	34.2
669.286	34.24
669.474	34.25
669.662	34.13
669.849	34
670.037	34.28
670.225	34.3
670.413	34.44
670.6	34.45
670.788	34.71
670.976	34.69
671.163	34.88
671.351	34.95
671.538	35.29
671.726	35.53
671.913	35.62
672.101	35.74
672.289	35.87
672.476	35.7
672.664	35.63
672.851	35.37
673.039	35.55
673.226	35.24
673.413	35.38
673.601	35.2
673.788	35.3
673.976	35.43
674.163	35.41
674.35	35.17
674.538	35.3
674.725	35.46
674.912	35.53
675.1	35.3
675.287	35.35
675.474	35.25
675.662	35.36
675.849	35.37
676.036	35.33
676.223	35.04
676.411	35.27
676.598	35.1
676.785	34.85
676.972	34.86
677.159	34.96
677.346	35.06
677.533	34.89
677.721	34.62
677.908	34.71
678.095	34.65
678.282	34.73
678.469	34.69
678.656	34.91
678.843	35.14
679.03	35.04
679.217	35.14
679.404	35.12
679.591	35.39
679.778	35.77
679.964	35.8
680.151	36.06
680.338	36.29
680.525	36.59
680.712	36.63
680.899	36.81
681.086	36.85
681.272	36.9
681.459	36.99
681.646	36.74
681.833	36.63
682.02	36.66
682.206	36.42
682.393	36.31
682.58	36.17
682.766	36.08
682.953	35.86
683.14	36.06
683.326	36
683.513	36.12
683.7	36.39
683.886	36.4
684.073	36.07
684.259	36.26
684.446	36.35
684.632	36.23
684.819	36.31
685.005	36.54
685.192	36.6
685.378	36.82
685.565	36.87
685.751	37.17
685.938	37.03
686.124	37.1
686.31	36.86
686.497	36.81
686.683	37.09
686.87	37.36
687.056	37.12
687.242	37.29
687.429	37.22
687.615	37.12
687.801	36.93
687.987	37.11
688.174	37.39
688.36	37.6
688.546	37.48
688.732	37.55
688.918	37.68
689.105	37.99
689.291	37.93
689.477	37.94
689.663	37.76
689.849	37.55
690.035	37.17
690.221	37.07
690.407	36.91
690.593	36.97
690.779	36.45
690.965	36.16
691.151	35.83
691.337	35.88
691.523	35.9
691.709	36.05
691.895	36.08
692.081	36.59
692.267	36.6
692.453	36.58
692.639	36.67
692.825	36.95
693.011	36.95
693.196	37.02
693.382	36.72
693.568	36.91
693.754	36.85
693.94	37.03
694.125	36.54
694.311	36.48
694.497	36.33
694.682	36.29
694.868	36.55
695.054	36.32
695.239	36.38
695.425	36.43
695.611	35.98
695.796	35.94
695.982	35.86
696.168	36.11
696.353	36.22
696.539	36.53
696.724	36.41
696.91	36.17
697.095	36.25
697.281	36.47
697.466	36.61
697.652	36.63
697.837	36.91
698.023	36.9
698.208	36.82
698.393	36.89
698.579	36.68
698.764	36.85
698.949	36.76
699.135	36.79
699.32	36.69
699.505	36.62
699.691	36.66
699.876	36.51
700.061	36.5
700.246	36.63
700.432	36.47
700.617	36.52
700.802	36.26
700.987	36.59
701.172	36.2
701.358	36.13
701.543	36.1
701.728	36.2
701.913	36.16
702.098	36.14
702.283	36.44
702.468	36.37
702.653	36.51
702.838	36.54
703.023	36.44
703.208	36.88
703.393	37.03
703.578	37.15
703.763	37.48
703.948	37.7
704.133	37.97
704.318	37.81
704.503	38.21
704.688	38.25
704.873	38.92
705.057	39.51
705.242	39.98
705.427	40.08
705.612	40.09
705.797	39.96
705.981	39.98
706.166	39.87
706.351	40.02
706.536	40.44
706.72	40.89
706.905	40.41
707.09	39.96
707.274	39.98
707.459	39.95
707.644	40.07
707.828	40.23
708.013	40.17
708.197	40.53
708.382	40.18
708.567	39.83
708.751	39.55
708.936	40.02
709.12	40.11
709.305	39.94
709.489	39.61
709.673	39.8
709.858	39.68
710.042	39.7
710.227	39.79
710.411	39.84
710.596	40
710.78	40.14
710.964	39.82
711.149	39.94
711.333	40.24
711.517	40.48
711.702	40.75
711.886	40.54
712.07	40.56
712.254	40.09
712.438	40.01
712.623	39.66
712.807	39.59
712.991	39.49
713.175	39.4
713.359	39.28
713.544	39.35
713.728	38.65
713.912	38.87
714.096	38.65
714.28	38.8
714.464	38.63
714.648	38.77
714.832	38.71
715.016	38.45
715.2	38.13
715.384	38.07
715.568	38.09
715.752	38.31
715.936	38.04
716.12	38.11
716.304	38.26
716.488	38.2
716.671	38.19
716.855	38.14
717.039	38.36
717.223	38.59
717.407	38.69
717.59	38.54
717.774	38.57
717.958	38.74
718.142	38.92
718.325	38.77
718.509	39.13
718.693	38.93
718.877	38.92
719.06	39.36
719.244	39.52
719.428	39.35
719.611	39.76
719.795	40.02
719.978	39.45
720.162	39.05
720.345	38.69
720.529	38.63
720.713	38.77
720.896	38.75
721.08	38.25
721.263	37.55
721.446	37.26
721.63	36.79
721.813	36.4
721.997	36.97
722.18	37.1
722.364	37.78
722.547	37.92
722.73	37.79
722.914	38.01
723.097	38.19
723.28	38.78
723.464	39.07
723.647	39.12
723.83	38.92
724.013	38.94
724.197	38.91
724.38	38.59
724.563	38.81
724.746	39.3
724.929	39.05
725.112	39.05
725.296	38.98
725.479	39.07
725.662	39.08
725.845	39.18
726.028	38.99
726.211	39.35
726.394	39.1
726.577	38.85
726.76	38.19
726.943	38.36
727.126	38.46
727.309	38.33
727.492	38.03
727.675	38.28
727.858	38.52
728.041	38.71
728.224	38.54
728.407	39.26
728.589	39.64
728.772	40.18
728.955	40.23
729.138	40.16
729.321	40.04
729.503	40.34
729.686	40.3
729.869	40.62
730.052	40.41
730.234	40.34
730.417	39.98
730.6	40.06
730.782	40.12
730.965	40.17
731.148	39.89
731.33	39.95
731.513	39.89
731.695	39.69
731.878	39.52
732.061	39.82
732.243	40.02
732.426	39.86
732.608	39.55
732.791	39.34
732.973	39.49
733.156	40.03
733.338	40.34
733.52	40.01
733.703	40.47
733.885	39.95
734.068	40.2
734.25	40.16
734.432	40.08
734.615	39.77
734.797	39.48
734.979	39.29
735.162	39.04
735.344	39.12
735.526	39.19
735.708	38.84
735.891	38.76
736.073	38.47
736.255	38.38
736.437	38.77
736.619	39.29
736.802	39.27
736.984	39.05
737.166	39.52
737.348	39.29
737.53	40.09
737.712	40.41
737.894	40.88
738.076	40.72
738.258	40.74
738.44	40.94
738.622	40.79
738.804	41.07
738.986	41.44
739.168	41.28
739.35	41.02
739.532	41.03
739.714	40.54
739.896	40.65
740.078	41.58
740.259	41.39
740.441	40.79
740.623	40.59
740.805	40.92
740.987	40.43
741.168	40.42
741.35	40.5
741.532	40.49
741.714	40.3
741.895	40.48
742.077	39.55
742.259	40.49
742.44	40.51
742.622	40.67
742.804	39.92
742.985	40.42
743.167	40.28
743.348	40.27
743.53	39.8
743.711	40.26
743.893	39.83
744.075	39.64
744.256	39.16
744.438	39.66
744.619	39.5
744.8	40.05
744.982	39.56
745.163	39.42
745.345	39.52
745.526	39.54
745.707	39.68
745.889	40.14
746.07	40.16
746.252	40.53
746.433	40.68
746.614	41.22
746.795	41.42
746.977	41.97
747.158	41.84
747.339	41.86
747.52	41.46
747.702	41.34
747.883	41.44
748.064	41.91
748.245	41.28
748.426	40.74
748.607	40.71
748.788	40.73
748.97	41.13
749.151	41.44
749.332	40.89
749.513	40.81
749.694	40.83
749.875	40.26
750.056	40.09
750.237	40.14
750.418	40.32
750.599	39.92
750.78	39.4
750.96	38.5
751.141	38.25
751.322	39.5
751.503	40.23
751.684	40.27
751.865	39.91
752.046	39.48
752.226	39.38
752.407	39.35
752.588	39.53
752.769	40.03
752.949	39.98
753.13	40.38
753.311	40
753.492	39.7
753.672	39.94
753.853	40.9
754.034	41.71
754.214	42.07
754.395	42.03
754.575	41.95
754.756	42
754.937	42.68
755.117	43.37
755.298	43.33
755.478	43.24
755.659	43.42
755.839	43.05
756.02	42.68
756.2	42.77
756.381	42.76
756.561	42.93
756.741	42.57
756.922	42.71
757.102	42.04
757.283	41.72
757.463	41.74
757.643	41.3
757.823	41.26
758.004	41.32
758.184	40.77
758.364	40.57
758.545	40.48
758.725	40.69
758.905	40.61
759.085	40.37
759.265	39.75
759.446	40.12
759.626	40.31
759.806	40.66
759.986	40.52
760.166	40.73
760.346	41.37
760.526	41.1
760.706	40.66
760.886	40.44
761.066	40.17
761.246	40.27
761.426	39.97
761.606	39.8
761.786	39.35
761.966	39.78
762.146	39.98
762.326	39.66
762.506	39.34
762.686	39.53
762.866	39.38
763.046	39.99
763.225	40.48
763.405	40.42
763.585	40.06
763.765	40.08
763.945	39.9
764.124	39.99
764.304	39.89
764.484	40.53
764.664	40.43
764.843	40.9
765.023	40.46
765.203	40.12
765.382	40.11
765.562	40.32
765.741	40.51
765.921	40.55
766.101	40.47
766.28	40.53
766.46	40.12
766.639	40.05
766.819	39.86
766.998	39.72
767.178	40.06
767.357	40.25
767.537	40.42
767.716	40.57
767.896	40.69
768.075	40.79
768.254	41.18
768.434	40.98
768.613	41.82
768.792	41.24
768.972	41.13
769.151	40.92
769.33	41.46
769.51	42.37
769.689	42.11
769.868	41.73
770.047	41.1
770.226	40.53
770.406	41.24
770.585	41.23
770.764	41.55
770.943	42.24
771.122	42.84
771.301	41.87
771.48	41.02
771.66	41.84
771.839	42.12
772.018	42.25
772.197	42.44
772.376	42.81
772.555	42.86
772.734	43.12
772.913	43.06
773.092	42.28
773.271	42.46
773.449	42.36
773.628	41.32
773.807	41.01
773.986	40.53
774.165	41.29
774.344	41.43
774.523	40.9
774.701	40.4
774.88	40.52
775.059	41.26
775.238	41.86
775.417	42.2
775.595	42.82
775.774	43.67
775.953	43.84
776.131	43.31
776.31	42.87
776.489	42.64
776.667	43.43
776.846	42.77
777.025	42.73
777.203	41.45
777.382	40.71
777.56	40.25
777.739	39.55
777.917	40.19
778.096	40.26
778.274	39.83
778.453	39.89
778.631	39.01
778.81	39.08
778.988	39.13
779.166	40.34
779.345	40.73
779.523	40.86
779.702	40.56
779.88	40.49
780.058	40.95
780.237	40.7
780.415	41.86
780.593	42.71
780.771	43.32
780.95	43.11
781.128	42.62
781.306	42.8
781.484	42.59
781.662	43.04
781.841	43.31
782.019	43.18
782.197	43.8
782.375	42.39
782.553	41.93
782.731	41
782.909	41.14
783.087	40.64
783.265	40.98
783.443	42.11
783.621	42.03
783.799	41.66
783.977	40.96
784.155	40.73
784.333	40.48
784.511	40.54
784.689	41.27
784.867	41.15
785.045	42.74
785.223	42.27
785.4	41.21
785.578	41.35
785.756	41.02
785.934	41.65
786.112	41.26
786.289	42.27
786.467	42.17
786.645	41.73
786.823	41.68
787	39.9
787.178	40.53
787.356	41.08
787.533	40.92
787.711	41.37
787.889	40.65
788.066	41.31
788.244	40.29
788.421	40.19
788.599	39.76
788.776	39.48
788.954	41
789.131	40.09
789.309	39.5
789.486	38.57
789.664	38.62
789.841	38.65
790.019	38.55
790.196	38.97
790.373	38.72
790.551	39.02
790.728	39.41
790.906	39.31
791.083	39.99
791.26	40.93
791.437	41.29
791.615	40.48
791.792	40.84
791.969	40.99
792.146	42.87
792.324	44.65
792.501	45.35
792.678	45.26
792.855	45.4
793.032	45.52
793.209	45.13
793.387	46.5
793.564	46.92
793.741	47
793.918	45.57
794.095	44.55
794.272	42.6
794.449	42.63
794.626	42.18
794.803	42.1
794.98	41.02
795.157	39.4
795.334	39.23
795.511	39.54
795.688	38.54
795.864	39.2
796.041	38.74
796.218	39.01
796.395	38.5
796.572	38.47
796.749	37.62
796.925	38.34
797.102	39.31
797.279	39.02
797.456	38.5
797.632	39.43
797.809	40.33
797.986	40.71
798.162	40.73
798.339	40.22
798.516	41.27
798.692	41.56
798.869	40.33
799.046	41.09
799.222	40.83
799.399	41.1
799.575	40.85
799.752	40.2
799.928	40.12
800.105	40.2
800.281	41.33
800.458	40
800.634	40.54
800.811	41.61
800.987	41.51
801.163	41.47
801.34	41.64
801.516	41.54
801.692	41.24
801.869	40.65
802.045	40.5
802.221	40.15
802.398	40.65
802.574	38.9
802.75	38.56
802.926	38.92
803.103	38.72
803.279	38.96
803.455	38.24
803.631	39.4
803.807	40.28
803.983	40.41
804.16	38.78
804.336	39.8
804.512	40.92
804.688	42.87
804.864	41.28
805.04	42.08
805.216	40.12
805.392	40.28
805.568	39.71
805.744	38
805.92	36.31
806.096	37.99
806.272	38.47
806.448	37.57
806.623	37.09
806.799	36.47
806.975	35.57
807.151	37.71
807.327	38.69
807.503	38.61
807.678	40.52
807.854	41.08
808.03	41.05
808.206	39.03
808.381	38.78
808.557	37.12
808.733	38.61
808.908	38.31
809.084	38.32
809.26	38.54
809.435	38.07
809.611	37.65
809.787	38.25
809.962	38.37
810.138	40.01
810.313	40.8
810.489	41.2
810.664	41.81
810.84	43.12
811.015	43.05
811.191	43.14
811.366	42.75
811.542	41.47
811.717	42.19
811.892	42.47
812.068	40.29
812.243	40.24
812.419	42.12
812.594	41.7
812.769	40.06
812.944	39.19
813.12	36.83
813.295	37.72
813.47	39.27
813.645	39.07
813.821	39.11
813.996	40.24
814.171	40.86
814.346	38.34
814.521	36.91
814.697	38.18
814.872	39.23
815.047	40.06
815.222	41.08
815.397	39.79
815.572	39.71
815.747	38.48
815.922	38.86
816.097	37.71
816.272	37.74
816.447	38.43
816.622	36.93
816.797	36.55
816.972	36.84
817.147	35.19
817.322	35.17
817.496	35.57
817.671	36.37
817.846	35.91
818.021	36.07
818.196	37.64
818.371	37.69
818.545	38.54
818.72	38.55
818.895	39.47
819.069	40.17
819.244	39.97
819.419	40.6
819.594	40.22
819.768	39.98
819.943	40.67
820.117	40.19
820.292	39.78
820.467	39.94
820.641	39.17
820.816	37.9
820.99	37.2
821.165	37.37
821.339	36.58
821.514	36.37
821.688	36.67
821.863	36.28
822.037	36.38
822.212	36.58
822.386	36.55
822.56	36.65
822.735	36.93
822.909	36.83
823.084	36.66
823.258	36.87
823.432	36.91
823.606	36.85
823.781	36.97
823.955	36.69
824.129	36.58
824.303	36.35
824.478	36.1
824.652	36.1
824.826	36.16
825	36.49
825.174	36.5
825.348	36.46
825.523	36.13
825.697	35.66
825.871	35.79
826.045	35.76
826.219	36.33
826.393	36.85
826.567	36.58
826.741	36.72
826.915	36.68
827.089	36.73
827.263	36.99
827.437	37.17
827.611	37.23
827.784	37.15
827.958	37.04
828.132	36.98
828.306	36.76
828.48	37.08
828.654	37.28
828.827	37.05
829.001	36.64
829.175	36.19
829.349	36.16
829.522	36.9
829.696	36.49
829.87	36.29
830.044	35.06
830.217	35.23
830.391	35.26
830.565	35.05
830.738	35.81
830.912	36.09
831.085	36.68
831.259	36.57
831.432	35.31
831.606	36.24
831.779	35.86
831.953	36.83
832.126	35.58
832.3	35.07
832.473	35.17
832.647	34.54
832.82	34.67
832.994	34.58
833.167	34.66
833.34	35.32
833.514	34.82
833.687	35.02
833.86	35.45
834.034	36.64
834.207	35.97
834.38	35.9
834.553	35.93
834.727	35.72
834.9	35.9
835.073	35.82
835.246	36.2
835.419	36.31
835.593	36.33
835.766	35.51
835.939	35.33
836.112	36.43
836.285	36.6
836.458	36.7
836.631	36.2
836.804	36.73
836.977	36.82
837.15	36.05
837.323	36.61
837.496	38.75
837.669	38.94
837.842	38
838.015	36
838.188	34.9
838.361	34.77
838.533	36.33
838.706	35.12
838.879	35.84
839.052	37.24
839.225	36.76
839.398	33.54
839.57	36.1
839.743	35.33
839.916	37.72
840.088	38.95
840.261	39.57
840.434	38.3
840.607	37.09
840.779	35.98
840.952	35.36
841.124	36.07
841.297	37
841.47	33.75
841.642	35.38
841.815	33.64
841.987	36.09
842.16	35.31
842.332	37.77
842.505	40.53
842.677	40.83
842.85	40.39
843.022	41.35
843.194	42.43
843.367	44.5
843.539	44.61
843.712	45.63
843.884	40.61
844.056	37.98
844.229	36.12
844.401	33.86
844.573	33.65
844.745	35.87
844.918	32.92
845.09	31.69
845.262	33.01
845.434	29.74
845.606	31.82
845.779	34.6
845.951	38.84
846.123	39.45
846.295	38.69
846.467	37.16
846.639	36.27
846.811	41.35
846.983	41.83
847.155	39.75
847.327	42.1
847.499	43.03
847.671	40.47
847.843	40.41
848.015	40.35
848.187	45.83
848.359	48.94
848.531	48.71
848.703	46.21
848.875	46.57
849.047	47.73
849.218	45.31
849.39	44.67
849.562	44.8
849.734	41.44
849.905	40.08
850.077	38.24
850.249	38.73
850.421	37.21
850.592	35.38
850.764	37.78
850.936	35.67
851.107	38.32
851.279	38.62
851.451	36.77
851.622	42.58
851.794	44.67
851.965	43.17
852.137	41.91
852.308	41.11
852.48	40.11
852.651	37.63
852.823	41.41
852.994	44.62
853.166	43.58
853.337	49.49
853.509	44.27
853.68	42.17
853.851	43.04
854.023	46.21
854.194	48.92
854.365	50.35
854.537	51.94
854.708	51.44
854.879	51.25
855.05	50.55
855.222	46.86
855.393	47.79
855.564	50.12
855.735	48.05
855.906	44.8
856.078	42.13
856.249	38.63
856.42	36.26
856.591	30.91
856.762	27.7
856.933	29.12
857.104	28.1
857.275	27.08
857.446	24.49
857.617	31.25
857.788	31.13
857.959	31.86
858.13	39.38
858.301	37.99
858.472	46.36
858.643	43.7
858.814	44.31
858.985	44.49
859.155	44.21
859.326	44.61
859.497	40.7
859.668	40.33
859.839	42.63
860.009	37.94
860.18	42.62
860.351	34.64
860.522	35.72
860.692	32.5
860.863	29.44
861.034	29.75
861.204	25.15
861.375	24.97
861.546	24.75
861.716	22.16
861.887	22.54
862.057	20.63
862.228	25.26
862.398	23.42
862.569	24.57
862.739	26.98
862.91	27.11
863.08	29.86
863.251	25.85
863.421	28.79
863.592	28.47
863.762	31.85
863.932	28.93
864.103	33.68
864.273	36.31
864.443	34.49
864.614	33.94
864.784	36.24
864.954	35.26
865.125	39.68
865.295	40.59
865.465	40.96
865.635	39.49
865.805	40.73
865.976	37.43
866.146	36.22
866.316	40.16
866.486	42.26
866.656	40.28
866.826	43.69
866.996	44.78
867.166	42.47
867.336	40.93
867.506	40.77
867.676	40.36
867.846	38.11
868.016	35.07
868.186	34.08
868.356	30.54
868.526	28.65
868.696	27.61
868.866	28.35
869.036	32.99
869.206	37.48
869.376	35.44
869.545	36.72
869.715	39.7
869.885	40.97
870.055	35.89
870.224	35.64
870.394	36.55
870.564	39.68
870.734	37.05
870.903	31.65
871.073	31.5
871.243	32.06
871.412	34.38
871.582	32.4
871.751	31.73
871.921	37.28
872.091	38.85
872.26	41.47
872.43	37.41
872.599	38.64
872.769	41.04
872.938	42.52
873.108	42.85
873.277	43.29
873.446	39.78
873.616	37.99
873.785	39.83
873.955	40.92
874.124	36.04
874.293	37.62
874.463	36.49
874.632	36.03
874.801	31.04
874.971	32.02
875.14	30.53
875.309	34.69
875.478	34.54
875.647	31.17
875.817	32.19
875.986	36.56
876.155	34.19
876.324	32.5
876.493	33.83
876.662	35.24
876.831	32.39
877	28.75
877.17	27.61
877.339	33.47
877.508	35.5
877.677	34.84
877.846	33.77
878.015	33.96
878.184	34.07
878.352	32.71
878.521	32.82
878.69	34.5
878.859	36.81
879.028	37.12
879.197	32.94
879.366	34.54
879.534	35.64
879.703	35.01
879.872	36.82
880.041	37.48
880.21	37.18
880.378	36.4
880.547	34.83
880.716	34.2
880.884	34.37
881.053	33.74
881.222	32.89
881.39	31.39
881.559	31.44
881.727	30.75
881.896	29.97
882.065	30.04
882.233	29.8
882.402	30.27
882.57	30.83
882.739	29.4
882.907	29.5
883.076	28.77
883.244	28.82
883.412	29.19
883.581	28.91
883.749	29.62
883.918	29.93
884.086	29.9
884.254	30.02
884.423	28.52
884.591	29.8
884.759	30.01
884.927	31.06
885.096	30.98
885.264	30.54
885.432	30.74
885.6	31.14
885.769	28.65
885.937	28.24
886.105	27.19
886.273	25.53
886.441	25.1
886.609	23.65
886.777	24.72
886.945	25.62
887.113	26.25
887.281	25.53
887.449	25.24
887.617	27.2
887.785	27.08
887.953	27.16
888.121	31.83
888.289	29
888.457	32.62
888.625	33.32
888.793	34.64
888.961	30.99
889.129	28.72
889.296	22.37
889.464	21.25
889.632	23.5
889.8	21.8
889.967	19.04
890.135	24.52
