Data from 2938773__Reflection_01.txt Node
Date: Fri Mar 13 14:33:20 EDT 2015
User: robert
Spectrometer: USB4E03002
Autoset integration time: false
Trigger mode: 4
Integration Time (sec): 1.000000E-1
Scans to average: 10
Electric dark correction enabled: false
Nonlinearity correction enabled: false
Boxcar width: 5
Stray light correction enabled: false
XAxis mode: Wavelengths
Stop averaging: false
Number of Pixels in Spectrum: 3648
>>>>>Begin Spectral Data<<<<<
177.575	-38.89
177.794	-247.95
178.014	-1114.81
178.233	608.96
178.452	1218.92
178.672	255.68
178.891	266.46
179.11	1434.78
179.33	-217.91
179.549	-57.94
179.768	-760
179.987	497.01
180.207	948.15
180.426	309.23
180.645	-268.57
180.864	-87.1
181.084	-24.8
181.303	-60.28
181.522	-408.51
181.741	3713.33
181.96	260.63
182.179	212.47
182.398	159.45
182.618	159.36
182.837	235.06
183.056	228.16
183.275	201.02
183.494	167.89
183.713	174.86
183.932	200.62
184.151	85.93
184.37	84.29
184.589	105.06
184.808	270
185.027	158.25
185.246	138.25
185.465	147.26
185.684	174.93
185.903	157.89
186.122	163.21
186.341	122.32
186.56	161.14
186.779	193.09
186.998	173.33
187.216	217.69
187.435	572.88
187.654	255.76
187.873	148.67
188.092	131.51
188.311	224.86
188.53	171.15
188.748	712.5
188.967	-850
189.186	292.03
189.405	285.61
189.623	132.97
189.842	101.21
190.061	119.23
190.28	214.01
190.498	176.84
190.717	159.64
190.936	155.23
191.154	143.24
191.373	178.77
191.592	185.13
191.81	151.57
192.029	160.99
192.248	170.78
192.466	176.25
192.685	153.16
192.904	187.5
193.122	161.05
193.341	238.35
193.559	333.75
193.778	218.64
193.996	210.45
194.215	1388
194.433	304.67
194.652	216.22
194.87	263.83
195.089	5960
195.307	607.69
195.526	-113.08
195.744	523.4
195.963	168.31
196.181	143.8
196.399	137.33
196.618	138.02
196.836	185.28
197.055	254.55
197.273	457.14
197.491	823.53
197.71	705.56
197.928	283.8
198.146	369.49
198.365	524
198.583	656.06
198.801	-120.52
199.019	-90
199.238	-83.2
199.456	-69.02
199.674	-92.05
199.892	-139.02
200.111	-133.7
200.329	-130.42
200.547	-96.41
200.765	-224.64
200.983	-189.3
201.202	-448.6
201.42	-1077.08
201.638	1830.43
201.856	369.07
202.074	1034.15
202.292	237.89
202.51	246.51
202.728	96.6
202.946	239.6
203.165	534.92
203.383	26100
203.601	240.14
203.819	316.83
204.037	227.81
204.255	293.55
204.473	150.86
204.691	324.86
204.909	131.66
205.127	233.89
205.345	173.08
205.562	181.61
205.78	137.94
205.998	144.74
206.216	124.27
206.434	129.39
206.652	176.74
206.87	240.98
207.088	219.06
207.306	291.12
207.523	234.46
207.741	217.83
207.959	224.34
208.177	239.02
208.395	285.65
208.612	379.56
208.83	302.96
209.048	332.92
209.266	1910
209.483	-670.59
209.701	-1428
209.919	556.25
210.136	5400
210.354	-183.33
210.572	25.14
210.79	99.07
211.007	36.98
211.225	106.78
211.442	2.65
211.66	46.09
211.878	74.82
212.095	59.61
212.313	36.61
212.53	27.33
212.748	82.15
212.966	80.33
213.183	97.36
213.401	111.5
213.618	83.79
213.836	75.34
214.053	58.17
214.271	55.97
214.488	50.53
214.705	72.72
214.923	56.49
215.14	45.3
215.358	34.4
215.575	42.28
215.793	37.5
216.01	49.35
216.227	57.14
216.445	65.76
216.662	57.28
216.879	64.29
217.097	66.49
217.314	80.21
217.531	81.49
217.749	90.02
217.966	73.16
218.183	72.38
218.4	46.02
218.618	40.41
218.835	34.43
219.052	37.24
219.269	24.97
219.487	12.44
219.704	12.2
219.921	0.19
220.138	-2.95
220.355	8.13
220.572	2.09
220.79	7.71
221.007	-6.87
221.224	-3.47
221.441	0.58
221.658	14.35
221.875	6.77
222.092	8.71
222.309	16.21
222.526	12.61
222.743	4.91
222.96	11.59
223.177	21.61
223.394	26.81
223.611	24.33
223.828	24.6
224.045	20.73
224.262	37.38
224.479	34.02
224.696	29.99
224.913	30.02
225.13	32.41
225.347	35.55
225.564	28.69
225.781	27.87
225.997	24.64
226.214	21.09
226.431	19.37
226.648	9.82
226.865	11.62
227.082	10.78
227.298	8.82
227.515	6.92
227.732	4.52
227.949	3.82
228.165	4.23
228.382	4.62
228.599	4.87
228.816	5.28
229.032	5.38
229.249	4.82
229.466	4.35
229.682	4.76
229.899	4.83
230.116	4.98
230.332	4.74
230.549	4.33
230.765	4.27
230.982	4.19
231.199	3.1
231.415	4.36
231.632	3.68
231.848	5.78
232.065	3.82
232.281	3.52
232.498	3.03
232.714	4.54
232.931	5.32
233.147	4.43
233.364	3.92
233.58	3.87
233.797	2.53
234.013	3.7
234.23	2.46
234.446	3.79
234.662	2.77
234.879	3.71
235.095	3.7
235.312	5.08
235.528	4.96
235.744	3.46
235.961	6.48
236.177	6.43
236.393	5.49
236.61	3.94
236.826	2.92
237.042	4.08
237.258	2.71
237.475	2.42
237.691	1.36
237.907	0.94
238.123	2.92
238.339	2.19
238.556	3.01
238.772	3.25
238.988	3.39
239.204	5.1
239.42	6.24
239.636	7.77
239.853	7.04
240.069	7.41
240.285	8.05
240.501	7.83
240.717	7.06
240.933	6.74
241.149	6.44
241.365	6.78
241.581	6.34
241.797	5.91
242.013	5.63
242.229	5.94
242.445	5.57
242.661	5.65
242.877	5.49
243.093	5.19
243.309	5.23
243.525	5.18
243.741	4.95
243.957	4.62
244.173	4.19
244.388	4.07
244.604	4.32
244.82	4.35
245.036	4.02
245.252	3.98
245.468	4.45
245.683	4.32
245.899	4.21
246.115	4.37
246.331	4.37
246.547	4.88
246.762	4.48
246.978	4.36
247.194	4.4
247.409	4.52
247.625	4.66
247.841	4.45
248.057	4.4
248.272	4.49
248.488	4.61
248.703	4.92
248.919	4.3
249.135	4.42
249.35	4.49
249.566	4.29
249.782	4.17
249.997	4.07
250.213	4.37
250.428	4.74
250.644	4.6
250.859	4.22
251.075	4.15
251.29	4.37
251.506	5.24
251.721	5.32
251.937	5.71
252.152	5.67
252.368	6.13
252.583	5.86
252.798	5.59
253.014	5.43
253.229	5.93
253.445	5.12
253.66	5.45
253.875	5.85
254.091	5.57
254.306	5.19
254.521	5.15
254.737	4.33
254.952	4.44
255.167	3.92
255.383	4.69
255.598	3.62
255.813	4.42
256.028	4.44
256.244	2.92
256.459	3.15
256.674	2.63
256.889	2.45
257.104	1.92
257.32	2.58
257.535	2.37
257.75	2.36
257.965	2.56
258.18	2.58
258.395	2.59
258.61	3.25
258.826	3.41
259.041	3.65
259.256	3.88
259.471	3.9
259.686	3.55
259.901	3.65
260.116	3.47
260.331	3.57
260.546	3.53
260.761	3.53
260.976	3.25
261.191	3.02
261.406	3.02
261.621	2.77
261.836	2.76
262.05	2.13
262.265	2.12
262.48	1.98
262.695	1.86
262.91	1.74
263.125	1.71
263.34	1.79
263.555	2.16
263.769	1.66
263.984	1.36
264.199	1.14
264.414	2.37
264.629	2.18
264.843	2.89
265.058	2.4
265.273	2.33
265.488	2.12
265.702	2.7
265.917	2.45
266.132	2.77
266.346	2.36
266.561	2.95
266.776	2.43
266.99	2.35
267.205	2.17
267.42	2.5
267.634	2.69
267.849	3.03
268.063	2.99
268.278	2.89
268.492	2.5
268.707	2.87
268.922	2.61
269.136	3.48
269.351	3.24
269.565	3.2
269.78	3.34
269.994	3.34
270.209	2.88
270.423	2.53
270.637	2.6
270.852	2.59
271.066	2.61
271.281	2.71
271.495	2.17
271.709	2.19
271.924	2.21
272.138	1.93
272.353	1.97
272.567	2.2
272.781	2.17
272.996	2.28
273.21	3.01
273.424	3.39
273.638	3.13
273.853	3.1
274.067	3.57
274.281	3.6
274.495	3.82
274.71	4.24
274.924	4.56
275.138	4.44
275.352	4.36
275.566	3.43
275.781	3
275.995	3.48
276.209	3.79
276.423	3.22
276.637	2.73
276.851	3.13
277.065	2.93
277.279	2.68
277.493	2.81
277.707	3.18
277.921	3.18
278.135	3.06
278.349	2.52
278.563	2.58
278.777	3.18
278.991	3.77
279.205	3.7
279.419	3.27
279.633	2.93
279.847	2.81
280.061	1.97
280.275	2.09
280.489	2.42
280.703	2.61
280.917	2.42
281.131	2.24
281.344	1.82
281.558	1.51
281.772	1.78
281.986	1.88
282.2	1.71
282.414	2.26
282.627	2.3
282.841	2.06
283.055	2.18
283.269	2.05
283.482	2.2
283.696	2.58
283.91	2.41
284.123	2.21
284.337	2.67
284.551	2.89
284.764	2.56
284.978	2.7
285.192	2.65
285.405	2.35
285.619	2.32
285.833	2.35
286.046	2.1
286.26	2.18
286.473	2.25
286.687	1.62
286.9	1.56
287.114	1.39
287.327	1.09
287.541	1.07
287.754	1.17
287.968	1.39
288.181	1.07
288.395	1.24
288.608	1.54
288.822	1.56
289.035	1.81
289.248	1.48
289.462	1.64
289.675	1.76
289.889	2.07
290.102	2.18
290.315	2.19
290.529	2.56
290.742	2.66
290.955	2.55
291.169	2.73
291.382	3.04
291.595	3.52
291.808	3.82
292.022	3.94
292.235	3.72
292.448	3.94
292.661	3.81
292.875	3.51
293.088	3.59
293.301	3.52
293.514	3.56
293.727	3.63
293.94	3.78
294.153	3.68
294.367	3.26
294.58	3.18
294.793	2.8
295.006	2.82
295.219	2.81
295.432	2.48
295.645	2.79
295.858	2.46
296.071	2.26
296.284	2.08
296.497	2.06
296.71	2.44
296.923	2.82
297.136	2.88
297.349	2.88
297.562	3.04
297.775	3.25
297.988	3.22
298.201	3.43
298.414	3.46
298.626	3.53
298.839	3.5
299.052	3.64
299.265	3.18
299.478	3.3
299.691	3.54
299.903	3.16
300.116	3.29
300.329	3.26
300.542	3.35
300.755	3.04
300.967	2.86
301.18	2.88
301.393	2.86
301.605	3.15
301.818	3.11
302.031	2.94
302.243	2.99
302.456	2.9
302.669	2.85
302.881	2.9
303.094	3.23
303.307	3.21
303.519	2.91
303.732	2.96
303.944	2.65
304.157	2.57
304.37	2.57
304.582	2.41
304.795	2.18
305.007	2.31
305.22	1.97
305.432	1.65
305.645	1.87
305.857	2.51
306.069	2.55
306.282	2.73
306.494	2.91
306.707	2.84
306.919	3.12
307.132	3.02
307.344	3.03
307.556	3.6
307.769	3.98
307.981	4
308.193	3.5
308.406	3.5
308.618	3.49
308.83	3.21
309.043	3.21
309.255	3.17
309.467	3.57
309.679	3.11
309.892	2.8
310.104	2.86
310.316	2.77
310.528	2.82
310.74	2.8
310.953	2.61
311.165	2.89
311.377	2.71
311.589	3.01
311.801	2.86
312.013	2.98
312.225	2.98
312.437	3.22
312.649	3.21
312.862	3.34
313.074	3.18
313.286	3.76
313.498	3.28
313.71	3.76
313.922	3.75
314.134	3.72
314.346	3.72
314.558	4.22
314.77	4.07
314.982	4
315.193	4.09
315.405	4.27
315.617	4.11
315.829	4.73
316.041	4.71
316.253	4.3
316.465	4.59
316.677	4.68
316.888	4.23
317.1	3.97
317.312	4.53
317.524	4.14
317.736	4.53
317.947	4.28
318.159	4.57
318.371	4.45
318.583	4.93
318.794	4.79
319.006	4.88
319.218	4.72
319.43	4.33
319.641	4.48
319.853	5.06
320.064	4.75
320.276	5.01
320.488	4.67
320.699	4.88
320.911	4.98
321.123	5.04
321.334	4.86
321.546	5.4
321.757	5.81
321.969	5.16
322.18	5.19
322.392	5.31
322.603	5.53
322.815	5.5
323.026	5.62
323.238	5.65
323.449	5.61
323.661	5.68
323.872	5.45
324.083	5.39
324.295	5.71
324.506	5.45
324.718	5.21
324.929	5.14
325.14	5.21
325.352	5.46
325.563	5.6
325.774	5.43
325.986	5.77
326.197	5.92
326.408	6.54
326.62	6.67
326.831	6.92
327.042	7.16
327.253	7.1
327.464	7.57
327.676	7.27
327.887	7.32
328.098	7.7
328.309	7.63
328.52	8.09
328.732	8.1
328.943	8.61
329.154	8.58
329.365	8.85
329.576	9.02
329.787	9.06
329.998	9.37
330.209	9.5
330.42	9.94
330.631	10.44
330.842	10.36
331.053	10.63
331.264	10.11
331.475	10.25
331.686	10.25
331.897	10.45
332.108	10.17
332.319	10.62
332.53	10.41
332.741	10.46
332.952	10.53
333.163	10.07
333.374	9.49
333.585	9.5
333.795	9.39
334.006	9.41
334.217	9.56
334.428	9.58
334.639	9.25
334.849	8.98
335.06	8.53
335.271	8.62
335.482	8.94
335.692	9.25
335.903	9.37
336.114	9.9
336.325	9.71
336.535	9.37
336.746	9.62
336.957	9.62
337.167	10.04
337.378	10.35
337.589	10.04
337.799	10.16
338.01	10.16
338.22	10.29
338.431	9.91
338.642	9.66
338.852	9.7
339.063	9.62
339.273	9.68
339.484	9.6
339.694	9.27
339.905	9.32
340.115	9.14
340.326	9.23
340.536	9.29
340.746	9.6
340.957	10.11
341.167	10.37
341.378	10.31
341.588	10.29
341.799	10.44
342.009	10.48
342.219	10.43
342.43	10.37
342.64	10.29
342.85	10.3
343.061	9.97
343.271	9.67
343.481	9.51
343.691	9.47
343.902	9.46
344.112	9.48
344.322	9.29
344.532	9.31
344.743	9.73
344.953	9.76
345.163	9.51
345.373	9.46
345.583	9.77
345.793	9.77
346.004	9.77
346.214	9.73
346.424	9.7
346.634	9.94
346.844	9.82
347.054	9.27
347.264	9.51
347.474	9.67
347.684	9.82
347.894	9.75
348.104	10.12
348.314	10.08
348.524	10.01
348.734	9.87
348.944	9.94
349.154	10.14
349.364	10.44
349.574	9.82
349.784	9.9
349.994	10.08
350.204	10
350.413	9.71
350.623	9.77
350.833	9.57
351.043	9.62
351.253	9.71
351.463	9.78
351.672	9.62
351.882	10.13
352.092	9.95
352.302	9.89
352.511	9.82
352.721	9.85
352.931	10
353.141	9.99
353.35	9.87
353.56	9.9
353.77	9.64
353.979	9.74
354.189	9.6
354.399	9.62
354.608	9.54
354.818	9.65
355.027	9.72
355.237	9.51
355.447	9.85
355.656	9.83
355.866	9.73
356.075	9.62
356.285	9.52
356.494	9.44
356.704	9.5
356.913	9.52
357.123	9.42
357.332	9.24
357.542	9.37
357.751	9.17
357.96	9.12
358.17	8.84
358.379	8.86
358.589	8.99
358.798	8.93
359.007	8.74
359.217	8.84
359.426	9.16
359.635	9.22
359.845	9.21
360.054	9.11
360.263	9.14
360.472	9.34
360.682	9.32
360.891	9.21
361.1	9.22
361.309	9.39
361.519	9.12
361.728	8.78
361.937	8.87
362.146	8.75
362.355	8.79
362.564	8.78
362.774	8.62
362.983	8.77
363.192	8.66
363.401	8.58
363.61	8.36
363.819	8.51
364.028	8.47
364.237	8.21
364.446	8.09
364.655	8.02
364.864	8.07
365.073	8.11
365.282	7.96
365.491	7.94
365.7	8.12
365.909	8.27
366.118	8.28
366.327	8.49
366.536	8.56
366.745	8.55
366.954	8.37
367.162	8.42
367.371	8.54
367.58	8.53
367.789	8.45
367.998	8.19
368.207	8.13
368.415	8
368.624	7.95
368.833	7.91
369.042	8.15
369.25	8.44
369.459	8.3
369.668	8.02
369.877	7.81
370.085	8.01
370.294	8.21
370.503	8.29
370.711	8.46
370.92	8.35
371.129	8.24
371.337	8.07
371.546	8.05
371.754	8.34
371.963	8.54
372.171	8.9
372.38	8.78
372.589	8.75
372.797	8.5
373.006	8.3
373.214	8.11
373.423	8.19
373.631	8.18
373.84	8.21
374.048	7.88
374.256	7.91
374.465	7.87
374.673	7.87
374.882	7.75
375.09	7.81
375.298	8.08
375.507	8.09
375.715	7.8
375.923	7.63
376.132	7.37
376.34	7.24
376.548	7.23
376.757	7.25
376.965	7.15
377.173	7.07
377.381	7.09
377.59	6.92
377.798	7.14
378.006	7.27
378.214	7.36
378.423	7.49
378.631	7.48
378.839	7.19
379.047	7.01
379.255	7.15
379.463	7.12
379.671	6.99
379.879	7.04
380.088	6.91
380.296	7.01
380.504	6.94
380.712	7.03
380.92	7.01
381.128	7.28
381.336	7.01
381.544	6.92
381.752	6.84
381.96	6.76
382.168	6.81
382.376	6.85
382.584	6.93
382.791	6.72
382.999	6.64
383.207	6.79
383.415	6.69
383.623	6.75
383.831	6.87
384.039	7.16
384.247	7.27
384.454	7.12
384.662	6.97
384.87	6.74
385.078	6.86
385.285	6.78
385.493	6.65
385.701	6.54
385.909	6.57
386.116	6.6
386.324	6.46
386.532	6.41
386.739	6.29
386.947	6.13
387.155	6.16
387.362	6.31
387.57	6.22
387.778	6.33
387.985	6.33
388.193	6.29
388.4	6.02
388.608	6.06
388.816	5.99
389.023	6.22
389.231	6.27
389.438	6.36
389.646	6.15
389.853	6.28
390.061	6.17
390.268	6.14
390.475	6.06
390.683	6.08
390.89	6
391.098	6.02
391.305	5.86
391.512	5.74
391.72	5.7
391.927	5.89
392.135	5.65
392.342	5.65
392.549	5.83
392.756	5.79
392.964	5.67
393.171	5.39
393.378	5.16
393.586	5.12
393.793	5.27
394	5.22
394.207	5.16
394.414	5.14
394.622	4.98
394.829	4.67
395.036	4.82
395.243	4.79
395.45	4.87
395.657	5.13
395.864	5.02
396.072	4.95
396.279	5.04
396.486	4.7
396.693	4.97
396.9	5.08
397.107	5.16
397.314	5.16
397.521	5.17
397.728	5.27
397.935	5.08
398.142	5.19
398.349	5.17
398.556	4.86
398.763	5.01
398.97	4.85
399.177	4.86
399.383	4.83
399.59	4.7
399.797	4.88
400.004	4.83
400.211	4.88
400.418	4.75
400.625	4.7
400.831	4.81
401.038	4.85
401.245	4.97
401.452	5.02
401.658	4.95
401.865	5.09
402.072	5.07
402.279	4.9
402.485	4.86
402.692	4.88
402.899	4.99
403.105	5.14
403.312	5.11
403.519	5.01
403.725	5.04
403.932	5.15
404.138	5.28
404.345	5.27
404.552	5.46
404.758	5.47
404.965	5.41
405.171	5.33
405.378	5.24
405.584	5.29
405.791	5.27
405.997	5.14
406.204	5.01
406.41	4.81
406.617	4.88
406.823	5
407.029	5.08
407.236	5.11
407.442	5.24
407.649	5.18
407.855	5.26
408.061	5.19
408.268	5.17
408.474	5.19
408.68	5.15
408.887	5.32
409.093	5.14
409.299	5.06
409.505	5.13
409.712	5.03
409.918	4.96
410.124	4.88
410.33	5.07
410.537	5.16
410.743	5.31
410.949	5.31
411.155	5
411.361	5.15
411.567	5.12
411.773	5.2
411.98	5.14
412.186	5.2
412.392	5.23
412.598	5.1
412.804	5.11
413.01	4.96
413.216	5.09
413.422	5.15
413.628	5.09
413.834	5.2
414.04	5.17
414.246	5.24
414.452	5.31
414.658	5.36
414.864	5.27
415.07	5.31
415.275	5.36
415.481	5.33
415.687	5.29
415.893	5.28
416.099	5.27
416.305	5.23
416.511	5.18
416.716	5.18
416.922	5.11
417.128	5.11
417.334	5.03
417.539	4.93
417.745	4.87
417.951	4.81
418.157	4.76
418.362	4.72
418.568	4.73
418.774	4.7
418.979	4.73
419.185	4.72
419.391	4.7
419.596	4.72
419.802	4.75
420.008	4.73
420.213	4.09
420.419	4.06
420.624	4.01
420.83	3.96
421.035	4.01
421.241	3.94
421.446	3.91
421.652	4
421.857	3.94
422.063	4
422.268	4.09
422.474	4.74
422.679	4.88
422.885	4.94
423.09	4.99
423.295	4.93
423.501	4.95
423.706	5.02
423.911	5
424.117	5.03
424.322	4.99
424.527	4.9
424.733	4.89
424.938	4.74
425.143	4.78
425.349	4.76
425.554	4.79
425.759	4.8
425.964	4.77
426.169	4.76
426.375	4.8
426.58	4.8
426.785	4.79
426.99	4.87
427.195	5.1
427.4	5.13
427.605	5.18
427.811	5.3
428.016	5.35
428.221	5.41
428.426	5.47
428.631	5.53
428.836	5.71
429.041	5.83
429.246	5.71
429.451	5.52
429.656	5.49
429.861	5.57
430.066	5.53
430.271	5.47
430.476	5.45
430.681	5.47
430.886	5.34
431.09	5.24
431.295	5.28
431.5	5.46
431.705	5.57
431.91	5.59
432.115	5.53
432.32	5.59
432.524	5.63
432.729	5.62
432.934	5.59
433.139	5.68
433.343	5.72
433.548	5.71
433.753	5.78
433.958	5.81
434.162	5.97
434.367	6.16
434.572	6.26
434.776	6.43
434.981	6.59
435.186	6.85
435.39	6.93
435.595	7.04
435.799	7.1
436.004	7.04
436.209	7.1
436.413	7.05
436.618	6.86
436.822	6.73
437.027	6.56
437.231	6.29
437.436	6.13
437.64	6.07
437.845	5.96
438.049	5.87
438.253	5.7
438.458	5.51
438.662	5.38
438.867	5.32
439.071	5.32
439.275	5.34
439.48	5.32
439.684	5.22
439.888	5.17
440.093	5.08
440.297	5.06
440.501	5.07
440.706	5.14
440.91	5.17
441.114	5.2
441.318	5.11
441.523	5.15
441.727	5.22
441.931	5.18
442.135	5.22
442.339	5.29
442.543	5.28
442.748	5.3
442.952	5.28
443.156	5.24
443.36	5.22
443.564	5.33
443.768	5.37
443.972	5.37
444.176	5.48
444.38	5.42
444.584	5.47
444.788	5.57
444.992	5.53
445.196	5.46
445.4	5.53
445.604	5.48
445.808	5.44
446.012	5.3
446.216	5.34
446.42	5.3
446.624	5.36
446.828	5.3
447.032	5.17
447.235	5.19
447.439	5.23
447.643	5.14
447.847	5.18
448.051	5.14
448.254	5.23
448.458	5.2
448.662	5.24
448.866	5.24
449.069	5.29
449.273	5.36
449.477	5.43
449.681	5.44
449.884	5.53
450.088	5.59
450.292	5.75
450.495	5.82
450.699	5.86
450.902	5.84
451.106	5.73
451.31	5.82
451.513	5.87
451.717	5.82
451.92	5.78
452.124	5.69
452.327	5.68
452.531	5.61
452.734	5.5
452.938	5.49
453.141	5.49
453.345	5.59
453.548	5.55
453.752	5.38
453.955	5.35
454.158	5.46
454.362	5.59
454.565	5.64
454.769	5.58
454.972	5.61
455.175	5.68
455.379	5.77
455.582	5.84
455.785	5.83
455.988	5.91
456.192	6.01
456.395	6.02
456.598	5.97
456.801	5.92
457.005	6.01
457.208	5.94
457.411	5.88
457.614	5.73
457.817	5.55
458.021	5.48
458.224	5.56
458.427	5.49
458.63	5.39
458.833	5.34
459.036	5.27
459.239	5.24
459.442	5.27
459.645	5.21
459.848	5.21
460.051	5.28
460.254	5.3
460.457	5.24
460.66	5.21
460.863	5.26
461.066	5.28
461.269	5.37
461.472	5.44
461.675	5.47
461.878	5.58
462.081	5.65
462.284	5.71
462.486	5.75
462.689	5.9
462.892	5.94
463.095	5.94
463.298	6.06
463.5	6.11
463.703	6.09
463.906	6.12
464.109	6.12
464.311	6.14
464.514	6.13
464.717	6.02
464.92	6.02
465.122	6.01
465.325	5.97
465.528	5.82
465.73	5.78
465.933	5.81
466.135	5.72
466.338	5.71
466.541	5.7
466.743	5.64
466.946	5.84
467.148	5.82
467.351	5.8
467.553	5.93
467.756	6.04
467.958	6
468.161	5.95
468.363	6.06
468.566	5.99
468.768	5.97
468.971	5.98
469.173	5.9
469.375	5.93
469.578	6.03
469.78	6.04
469.983	6.02
470.185	5.97
470.387	6.03
470.59	5.95
470.792	6
470.994	6.04
471.196	6.07
471.399	6.11
471.601	6.07
471.803	6.04
472.005	6.06
472.208	6.07
472.41	6.19
472.612	6.25
472.814	6.28
473.016	6.32
473.218	6.36
473.421	6.32
473.623	6.3
473.825	6.18
474.027	6.24
474.229	6.1
474.431	6.02
474.633	6.05
474.835	5.92
475.037	6
475.239	6.03
475.441	5.95
475.643	6.02
475.845	5.96
476.047	5.94
476.249	5.88
476.451	5.93
476.653	6
476.855	5.88
477.057	5.87
477.258	5.88
477.46	5.79
477.662	5.83
477.864	5.8
478.066	5.85
478.268	5.98
478.469	6.02
478.671	5.93
478.873	5.92
479.075	5.94
479.276	5.93
479.478	5.85
479.68	5.94
479.882	5.89
480.083	5.91
480.285	5.93
480.487	5.9
480.688	5.83
480.89	5.94
481.091	5.86
481.293	5.79
481.495	5.72
481.696	5.61
481.898	5.48
482.099	5.35
482.301	5.21
482.502	5.12
482.704	4.99
482.905	4.93
483.107	4.83
483.308	4.76
483.51	4.72
483.711	4.69
483.913	4.67
484.114	4.66
484.315	4.69
484.517	4.72
484.718	4.72
484.92	4.77
485.121	4.79
485.322	4.87
485.524	4.94
485.725	4.99
485.926	5.04
486.127	5.09
486.329	5.1
486.53	5.1
486.731	5.09
486.932	5.08
487.134	5.08
487.335	5.11
487.536	5.09
487.737	5.06
487.938	5.08
488.139	5.12
488.341	5.17
488.542	5.2
488.743	5.21
488.944	5.28
489.145	5.37
489.346	5.45
489.547	5.43
489.748	5.47
489.949	5.48
490.15	5.47
490.351	5.42
490.552	5.4
490.753	5.39
490.954	5.42
491.155	5.36
491.356	5.32
491.557	5.28
491.758	5.32
491.959	5.29
492.159	5.35
492.36	5.37
492.561	5.45
492.762	5.49
492.963	5.54
493.164	5.59
493.364	5.66
493.565	5.71
493.766	5.77
493.967	5.83
494.167	5.9
494.368	6.01
494.569	6.1
494.769	6.04
494.97	6.11
495.171	6.12
495.371	6.09
495.572	6.21
495.773	6.25
495.973	6.25
496.174	6.16
496.375	6.21
496.575	6.22
496.776	6.2
496.976	6.26
497.177	6.17
497.377	6.21
497.578	6.29
497.778	6.29
497.979	6.21
498.179	6.23
498.38	6.24
498.58	6.26
498.78	6.21
498.981	6.26
499.181	6.22
499.382	6.32
499.582	6.29
499.782	6.29
499.983	6.25
500.183	6.32
500.383	6.34
500.584	6.41
500.784	6.45
500.984	6.47
501.184	6.55
501.385	6.61
501.585	6.57
501.785	6.71
501.985	6.71
502.185	6.82
502.386	7.01
502.586	6.95
502.786	6.89
502.986	6.89
503.186	6.92
503.386	6.89
503.586	6.94
503.786	7.04
503.987	7.03
504.187	7
504.387	6.89
504.587	6.78
504.787	6.9
504.987	7.04
505.187	7.02
505.387	7.09
505.587	7.19
505.786	7.19
505.986	7.08
506.186	7.14
506.386	7.19
506.586	7.28
506.786	7.3
506.986	7.35
507.186	7.34
507.386	7.43
507.585	7.28
507.785	7.17
507.985	7.21
508.185	7.32
508.384	7.26
508.584	7.24
508.784	7.18
508.984	7.22
509.183	7.13
509.383	7.19
509.583	7.17
509.782	7.26
509.982	7.37
510.182	7.44
510.381	7.57
510.581	7.64
510.781	7.66
510.98	7.73
511.18	7.76
511.379	7.89
511.579	7.95
511.778	8.02
511.978	8.06
512.177	8.08
512.377	8.09
512.576	8.06
512.776	8.12
512.975	8.25
513.175	8.36
513.374	8.34
513.573	8.32
513.773	8.41
513.972	8.39
514.172	8.45
514.371	8.52
514.57	8.56
514.77	8.55
514.969	8.56
515.168	8.64
515.367	8.64
515.567	8.79
515.766	8.78
515.965	8.71
516.164	8.82
516.364	8.83
516.563	8.81
516.762	8.77
516.961	8.79
517.16	8.81
517.359	8.74
517.559	8.77
517.758	8.75
517.957	8.8
518.156	8.84
518.355	8.84
518.554	8.89
518.753	8.95
518.952	9.05
519.151	9.12
519.35	9.12
519.549	9.22
519.748	9.26
519.947	9.31
520.146	9.45
520.345	9.53
520.544	9.65
520.743	9.77
520.942	9.96
521.141	10.02
521.339	10.11
521.538	10.28
521.737	10.47
521.936	10.6
522.135	10.73
522.333	10.78
522.532	10.87
522.731	10.85
522.93	10.89
523.129	10.88
523.327	10.98
523.526	10.93
523.725	10.92
523.923	10.9
524.122	10.92
524.321	10.93
524.519	10.89
524.718	10.9
524.917	10.98
525.115	10.99
525.314	10.98
525.512	10.98
525.711	11.15
525.909	11.11
526.108	11.11
526.306	11.06
526.505	11.09
526.703	11.12
526.902	11.14
527.1	11.05
527.299	11.03
527.497	11.01
527.696	10.94
527.894	10.87
528.092	10.88
528.291	10.86
528.489	10.86
528.688	10.86
528.886	10.89
529.084	10.89
529.283	10.97
529.481	11.05
529.679	11.13
529.877	11.25
530.076	11.34
530.274	11.5
530.472	11.66
530.67	11.83
530.869	11.99
531.067	12.14
531.265	12.3
531.463	12.43
531.661	12.52
531.859	12.64
532.057	12.68
532.255	12.77
532.454	12.84
532.652	12.92
532.85	12.99
533.048	13.05
533.246	13.09
533.444	13.15
533.642	13.22
533.84	13.31
534.038	13.43
534.236	13.57
534.434	13.67
534.632	13.78
534.83	13.93
535.027	14.11
535.225	14.27
535.423	14.48
535.621	14.68
535.819	14.9
536.017	15.06
536.215	15.19
536.412	15.42
536.61	15.66
536.808	15.87
537.006	16.09
537.203	16.33
537.401	16.59
537.599	16.96
537.797	17.3
537.994	17.69
538.192	18.18
538.39	18.74
538.587	19.33
538.785	19.9
538.983	20.49
539.18	21.08
539.378	21.77
539.575	22.3
539.773	22.69
539.97	23.09
540.168	23.43
540.366	23.71
540.563	23.94
540.761	24.09
540.958	24.28
541.155	24.44
541.353	24.61
541.55	24.74
541.748	24.89
541.945	25.05
542.143	25.31
542.34	25.51
542.537	25.84
542.735	26.14
542.932	26.5
543.129	27.06
543.327	27.95
543.524	29.05
543.721	30.34
543.919	31.9
544.116	33.62
544.313	35.36
544.51	37.19
544.708	39.06
544.905	40.98
545.102	42.74
545.299	44.21
545.496	45.11
545.693	45.47
545.891	45.37
546.088	44.92
546.285	44.1
546.482	43.11
546.679	42.09
546.876	40.89
547.073	39.64
547.27	38.43
547.467	37.21
547.664	36.08
547.861	35.17
548.058	34.4
548.255	33.75
548.452	33.28
548.649	32.93
548.846	32.49
549.043	32.04
549.24	31.66
549.437	31.33
549.633	30.92
549.83	30.56
550.027	30.18
550.224	29.88
550.421	29.52
550.618	29.08
550.814	28.61
551.011	28.18
551.208	27.8
551.405	27.39
551.601	26.99
551.798	26.56
551.995	26.19
552.191	25.69
552.388	25.21
552.585	24.91
552.781	24.59
552.978	24.36
553.175	24.2
553.371	23.98
553.568	23.85
553.764	23.75
553.961	23.56
554.157	23.46
554.354	23.44
554.55	23.49
554.747	23.45
554.943	23.47
555.14	23.44
555.336	23.38
555.533	23.51
555.729	23.39
555.926	23.27
556.122	23.36
556.318	23.3
556.515	23.28
556.711	23.12
556.907	22.98
557.104	22.93
557.3	23.01
557.496	22.96
557.693	22.81
557.889	22.91
558.085	22.97
558.281	22.93
558.478	22.96
558.674	23
558.87	23.12
559.066	23.25
559.262	23.29
559.459	23.17
559.655	23.11
559.851	23.14
560.047	23.19
560.243	23.14
560.439	23.2
560.635	23.13
560.831	23.2
561.027	23.21
561.223	23.17
561.419	23.19
561.615	23.33
561.811	23.48
562.007	23.4
562.203	23.41
562.399	23.47
562.595	23.49
562.791	23.63
562.987	23.5
563.183	23.56
563.379	23.64
563.575	23.55
563.771	23.4
563.966	23.26
564.162	23.31
564.358	23.13
564.554	22.97
564.75	22.89
564.945	22.75
565.141	22.62
565.337	22.51
565.533	22.41
565.728	22.46
565.924	22.48
566.12	22.52
566.315	22.52
566.511	22.64
566.707	22.69
566.902	22.73
567.098	22.78
567.293	22.97
567.489	23.05
567.684	23.04
567.88	23.02
568.076	23.07
568.271	23.18
568.467	23.17
568.662	23.12
568.858	23.18
569.053	23.1
569.248	23.13
569.444	23.07
569.639	22.99
569.835	23.06
570.03	23.02
570.225	23.02
570.421	22.9
570.616	22.85
570.812	22.8
571.007	22.75
571.202	22.7
571.397	22.62
571.593	22.53
571.788	22.56
571.983	22.49
572.178	22.54
572.374	22.6
572.569	22.64
572.764	22.79
572.959	22.78
573.154	22.72
573.35	22.89
573.545	22.93
573.74	23.14
573.935	23.13
574.13	23.27
574.325	23.48
574.52	23.79
574.715	24.17
574.91	24.52
575.105	25.02
575.3	25.77
575.495	26.28
575.69	27.03
575.885	27.71
576.08	28.54
576.275	29.31
576.47	30.04
576.665	30.68
576.86	31.28
577.055	31.87
577.25	32.36
577.444	32.79
577.639	33.44
577.834	33.94
578.029	34.41
578.224	34.92
578.418	35.32
578.613	35.63
578.808	35.58
579.003	35.69
579.197	35.7
579.392	35.84
579.587	35.75
579.781	35.55
579.976	35.34
580.171	35.18
580.365	34.68
580.56	34.47
580.755	34.17
580.949	34.2
581.144	34.36
581.338	34.46
581.533	34.62
581.727	34.85
581.922	34.85
582.116	34.96
582.311	34.99
582.505	35.46
582.7	35.61
582.894	35.8
583.089	36.05
583.283	36.1
583.478	36.1
583.672	36.05
583.866	35.98
584.061	36.21
584.255	36.28
584.449	36.55
584.644	36.79
584.838	37.23
585.032	37.63
585.226	38.08
585.421	38.38
585.615	38.89
585.809	39.38
586.003	39.85
586.198	40.38
586.392	40.78
586.586	41
586.78	40.83
586.974	40.49
587.168	40.14
587.363	39.55
587.557	39.06
587.751	38.31
587.945	37.67
588.139	36.96
588.333	36.03
588.527	35.37
588.721	34.59
588.915	33.99
589.109	33.58
589.303	33.25
589.497	33.12
589.691	33.05
589.885	33.2
590.079	33.31
590.273	33.48
590.466	33.79
590.66	34.19
590.854	34.62
591.048	35.34
591.242	35.98
591.436	36.67
591.629	37.2
591.823	37.81
592.017	38.28
592.211	38.7
592.404	39.01
592.598	39.13
592.792	39
592.986	38.93
593.179	38.65
593.373	38.2
593.567	37.54
593.76	36.95
593.954	36.26
594.147	35.79
594.341	35.04
594.535	34.42
594.728	33.73
594.922	33.21
595.115	32.61
595.309	31.85
595.502	31.36
595.696	30.95
595.889	30.63
596.083	30.38
596.276	30
596.47	29.97
596.663	29.82
596.856	29.93
597.05	30.03
597.243	30.26
597.437	30.75
597.63	31.16
597.823	31.77
598.017	32.31
598.21	32.82
598.403	33.49
598.596	33.91
598.79	34.5
598.983	35.08
599.176	35.39
599.369	35.81
599.563	35.89
599.756	35.95
599.949	35.88
600.142	35.7
600.335	35.53
600.528	35.26
600.722	34.86
600.915	34.44
601.108	33.95
601.301	33.52
601.494	32.88
601.687	32.55
601.88	32.13
602.073	31.85
602.266	31.45
602.459	31.02
602.652	30.47
602.845	30.22
603.038	29.89
603.231	29.61
603.424	29.38
603.617	29.23
603.809	28.96
604.002	28.97
604.195	28.82
604.388	28.82
604.581	28.91
604.774	29.1
604.966	29.21
605.159	29.53
605.352	29.86
605.545	30.28
605.737	30.83
605.93	31.36
606.123	31.9
606.316	32.52
606.508	33.27
606.701	33.97
606.894	34.87
607.086	35.96
607.279	37
607.471	38.15
607.664	39.65
607.857	41.33
608.049	43.48
608.242	46.47
608.434	50.11
608.627	54.62
608.819	60.29
609.012	66.86
609.204	73.93
609.397	81.81
609.589	90.27
609.782	99.18
609.974	108.41
610.166	117.87
610.359	126.69
610.551	134.91
610.743	142.07
610.936	147.76
611.128	151.74
611.32	154.33
611.513	155.14
611.705	155.09
611.897	153.37
612.09	150.28
612.282	146.65
612.474	141.94
612.666	136.96
612.858	131.73
613.051	126.63
613.243	121.53
613.435	117.02
613.627	112.63
613.819	108.26
614.011	104.12
614.203	100.25
614.395	96.04
614.588	91.74
614.78	87.9
614.972	83.93
615.164	80.05
615.356	76.43
615.548	72.78
615.74	69.52
615.932	66.47
616.124	63.59
616.315	60.75
616.507	58.23
616.699	56.06
616.891	54.03
617.083	52.05
617.275	50.66
617.467	49.23
617.659	48.2
617.85	47.16
618.042	46.2
618.234	45.57
618.426	45.19
618.618	44.84
618.809	44.63
619.001	44.48
619.193	44.45
619.384	44.12
619.576	43.99
619.768	43.81
619.959	43.76
620.151	43.71
620.343	43.73
620.534	43.59
620.726	43.42
620.917	43.38
621.109	43.49
621.301	43.56
621.492	43.82
621.684	44.28
621.875	44.5
622.067	44.84
622.258	45.19
622.45	45.46
622.641	45.63
622.832	46.21
623.024	46.48
623.215	46.54
623.407	46.54
623.598	46.66
623.789	46.49
623.981	46.57
624.172	46.46
624.363	46.16
624.555	45.9
624.746	45.81
624.937	45.44
625.129	45.17
625.32	44.79
625.511	44.61
625.702	44.33
625.893	43.97
626.085	43.42
626.276	43.14
626.467	43.05
626.658	42.91
626.849	42.81
627.04	42.71
627.231	42.8
627.422	42.86
627.614	43.09
627.805	43.28
627.996	43.71
628.187	44.4
628.378	45.2
628.569	46.12
628.76	47.04
628.951	48.05
629.142	49.14
629.332	50.35
629.523	51.47
629.714	52.5
629.905	53.66
630.096	54.54
630.287	55.23
630.478	55.36
630.669	55.33
630.859	54.98
631.05	54.25
631.241	53.44
631.432	52.05
631.623	50.84
631.813	49.41
632.004	47.68
632.195	46.21
632.385	44.67
632.576	43.28
632.767	41.88
632.957	40.6
633.148	39.64
633.339	38.66
633.529	37.86
633.72	37.19
633.91	36.52
634.101	36.01
634.292	35.45
634.482	35.12
634.673	34.81
634.863	34.53
635.054	34.48
635.244	34.2
635.435	34.06
635.625	34.14
635.815	34.05
636.006	34.03
636.196	34.04
636.387	33.93
636.577	33.85
636.767	34.06
636.958	34.1
637.148	33.99
637.338	34.09
637.529	34.16
637.719	34.12
637.909	34.04
638.099	33.92
638.29	33.97
638.48	34.06
638.67	34.11
638.86	33.91
639.05	33.9
639.241	34
639.431	34.03
639.621	34.06
639.811	33.98
640.001	33.96
640.191	34.06
640.381	34.11
640.571	34.28
640.761	34.13
640.951	34.07
641.141	34.26
641.331	34.42
641.521	34.47
641.711	34.75
641.901	34.88
642.091	35.04
642.281	35.28
642.471	35.34
642.661	35.36
642.851	35.55
643.041	36.04
643.231	35.9
643.42	35.95
643.61	36
643.8	35.68
643.99	35.64
644.18	35.7
644.369	35.64
644.559	35.55
644.749	35.6
644.939	35.7
645.128	35.53
645.318	35.73
645.508	35.56
645.697	35.48
645.887	35.54
646.076	35.76
646.266	35.5
646.456	35.25
646.645	35.31
646.835	35.3
647.024	35.14
647.214	34.98
647.403	34.81
647.593	35.02
647.782	35.33
647.972	35.58
648.161	35.8
648.351	36.29
648.54	37.05
648.73	37.36
648.919	37.54
649.108	38.04
649.298	38.44
649.487	38.84
649.677	39.1
649.866	39.08
650.055	39.38
650.244	39.36
650.434	39.34
650.623	38.96
650.812	38.96
651.002	38.89
651.191	38.95
651.38	38.78
651.569	38.65
651.758	38.23
651.947	38.26
652.137	37.92
652.326	37.78
652.515	37.59
652.704	37.58
652.893	37.54
653.082	37.5
653.271	37.07
653.46	36.82
653.649	36.58
653.838	36.8
654.027	36.64
654.216	36.52
654.405	36.33
654.594	36.21
654.783	36.09
654.972	35.8
655.161	35.71
655.35	35.76
655.539	35.98
655.728	35.81
655.916	35.67
656.105	35.32
656.294	35.22
656.483	35.23
656.672	35.04
656.86	34.9
657.049	34.61
657.238	34.5
657.427	34.13
657.615	33.62
657.804	33.48
657.993	33.01
658.181	32.75
658.37	32.48
658.559	32.13
658.747	31.76
658.936	31.66
659.125	31.86
659.313	31.8
659.502	31.81
659.69	32.02
659.879	32.19
660.067	32.56
660.256	33.04
660.444	33.32
660.633	34.02
660.821	34.77
661.01	35.19
661.198	35.52
661.387	35.93
661.575	36.62
661.763	36.99
661.952	37.43
662.14	37.77
662.328	38.12
662.517	38.54
662.705	38.26
662.893	38.39
663.082	38.21
663.27	38.05
663.458	38.17
663.646	37.92
663.834	37.93
664.023	37.76
664.211	37.7
664.399	37.46
664.587	37.15
664.775	37.26
664.963	37.02
665.152	37.1
665.34	37.19
665.528	36.7
665.716	36.8
665.904	36.86
666.092	36.65
666.28	36.32
666.468	36.21
666.656	36.27
666.844	36.16
667.032	35.96
667.22	36.05
667.408	35.82
667.596	36.03
667.784	35.8
667.971	35.62
668.159	35.55
668.347	35.5
668.535	35.48
668.723	35.36
668.911	35.21
669.098	35.46
669.286	35.17
669.474	35.44
669.662	35.36
669.849	35.66
670.037	35.7
670.225	35.78
670.413	35.94
670.6	36.31
670.788	36.48
670.976	36.64
671.163	36.87
671.351	37.1
671.538	36.95
671.726	37.07
671.913	36.8
672.101	36.76
672.289	36.91
672.476	36.88
672.664	36.72
672.851	36.62
673.039	36.69
673.226	36.43
673.413	36.32
673.601	36.42
673.788	36.27
673.976	36.41
674.163	36.32
674.35	36.37
674.538	36.5
674.725	36.44
674.912	36.34
675.1	36.31
675.287	36.35
675.474	36.52
675.662	36.73
675.849	36.75
676.036	36.79
676.223	36.99
676.411	37.09
676.598	37.26
676.785	37.32
676.972	37.13
677.159	37.07
677.346	37.16
677.533	37.03
677.721	36.56
677.908	36.48
678.095	36.26
678.282	36.05
678.469	35.28
678.656	34.79
678.843	34.54
679.03	34.74
679.217	34.47
679.404	34.13
679.591	34.08
679.778	34.15
679.964	34.16
680.151	34.05
680.338	34.09
680.525	34.26
680.712	34.48
680.899	34.56
681.086	34.57
681.272	34.55
681.459	34.74
681.646	34.75
681.833	34.89
682.02	34.93
682.206	35.02
682.393	34.93
682.58	35.19
682.766	35.08
682.953	35.22
683.14	35.39
683.326	35.96
683.513	36.17
683.7	36.36
683.886	36.53
684.073	36.83
684.259	36.91
684.446	37.21
684.632	37.62
684.819	38.03
685.005	38.31
685.192	38.64
685.378	38.66
685.565	39.01
685.751	39.34
685.938	39.25
686.124	39.72
686.31	40.02
686.497	40.36
686.683	40.49
686.87	40.39
687.056	40.25
687.242	39.91
687.429	39.83
687.615	39.27
687.801	39.22
687.987	39.16
688.174	38.71
688.36	38.61
688.546	38.46
688.732	38.31
688.918	38.31
689.105	38.3
689.291	38.37
689.477	38.44
689.663	38.63
689.849	38.39
690.035	38.49
690.221	38.58
690.407	38.37
690.593	38.32
690.779	38.12
690.965	37.92
691.151	38
691.337	38.23
691.523	38.36
691.709	38.64
691.895	38.98
692.081	38.97
692.267	39.03
692.453	39.66
692.639	39.52
692.825	39.96
693.011	40.36
693.196	40.49
693.382	40.09
693.568	39.97
693.754	40.1
693.94	40.09
694.125	40.27
694.311	39.95
694.497	39.43
694.682	39.42
694.868	39.01
695.054	38.82
695.239	38.81
695.425	39.08
695.611	38.68
695.796	37.99
695.982	37.31
696.168	36.87
696.353	36.46
696.539	35.89
696.724	35.51
696.91	34.92
697.095	34.45
697.281	33.85
697.466	33.46
697.652	33.08
697.837	33.02
698.023	32.94
698.208	32.64
698.393	32.48
698.579	32.5
698.764	32.38
698.949	32.37
699.135	32.37
699.32	32.48
699.505	32.42
699.691	32.61
699.876	32.5
700.061	32.71
700.246	32.83
700.432	33.27
700.617	33.52
700.802	33.89
700.987	34.73
701.172	35.02
701.358	35.4
701.543	35.91
701.728	36.61
701.913	37.45
702.098	37.89
702.283	38.71
702.468	38.95
702.653	39.87
702.838	40.58
703.023	40.87
703.208	41.42
703.393	41.86
703.578	42.45
703.763	43.11
703.948	44.01
704.133	44.97
704.318	46.25
704.503	47.88
704.688	49.12
704.873	50.53
705.057	52.09
705.242	53.46
705.427	55.08
705.612	55.89
705.797	57.12
705.981	58.04
706.166	59.06
706.351	59.77
706.536	60.52
706.72	61.08
706.905	61.37
707.09	61.58
707.274	62.06
707.459	62.2
707.644	63.05
707.828	63.11
708.013	63.2
708.197	63.03
708.382	62.63
708.567	61.93
708.751	60.75
708.936	59.9
709.12	59.38
709.305	58.44
709.489	57.52
709.673	56.59
709.858	55.81
710.042	54.93
710.227	54.7
710.411	54.67
710.596	54.7
710.78	55.03
710.964	54.94
711.149	54.58
711.333	54.63
711.517	54.35
711.702	54.54
711.886	54.39
712.07	54.48
712.254	53.82
712.438	53.1
712.623	51.97
712.807	50.86
712.991	50.06
713.175	49.04
713.359	47.83
713.544	46.99
713.728	45.43
713.912	44.39
714.096	42.95
714.28	42.02
714.464	41
714.648	40.37
714.832	39.84
715.016	39.06
715.2	38.31
715.384	38.19
715.568	37.57
715.752	37.22
715.936	37.03
716.12	36.53
716.304	36.15
716.488	35.86
716.671	35.75
716.855	35.25
717.039	35.07
717.223	35.04
717.407	34.77
717.59	35.03
717.774	35.3
717.958	34.88
718.142	35.27
718.325	35.53
718.509	35.54
718.693	35.64
718.877	35.87
719.06	36.23
719.244	36.48
719.428	36.66
719.611	36.78
719.795	37.04
719.978	37.17
720.162	37.45
720.345	37.49
720.529	37.7
720.713	38.09
720.896	38.69
721.08	39.06
721.263	39.22
721.446	39.27
721.63	39.31
721.813	38.99
721.997	39.42
722.18	39.24
722.364	39.5
722.547	39.55
722.73	39.22
722.914	39.14
723.097	38.87
723.28	38.71
723.464	38.3
723.647	38.17
723.83	37.81
724.013	37.97
724.197	38.3
724.38	38.14
724.563	38.17
724.746	37.53
724.929	37.4
725.112	38.02
725.296	37.84
725.479	38
725.662	37.9
725.845	38.25
726.028	38.05
726.211	37.76
726.394	37.49
726.577	37.44
726.76	38.05
726.943	38.25
727.126	37.19
727.309	37.38
727.492	37.36
727.675	37.31
727.858	37.57
728.041	37.08
728.224	37.37
728.407	37.37
728.589	37.33
728.772	37.16
728.955	36.97
729.138	36.76
729.321	36.41
729.503	36.63
729.686	36.98
729.869	36.7
730.052	36.88
730.234	36.63
730.417	36.7
730.6	36.59
730.782	36.48
730.965	36.09
731.148	36.5
731.33	36.64
731.513	36.13
731.695	35.82
731.878	35.51
732.061	35.98
732.243	36.4
732.426	36.47
732.608	36.64
732.791	36.97
732.973	37.46
733.156	37.26
733.338	37.59
733.52	38.06
733.703	37.97
733.885	38.68
734.068	38.27
734.25	37.89
734.432	38.11
734.615	37.77
734.797	37.9
734.979	38.04
735.162	38.27
735.344	38.55
735.526	38.39
735.708	39.25
735.891	39.37
736.073	39.91
736.255	40.21
736.437	40.35
736.619	40.88
736.802	40.93
736.984	40.75
737.166	41.41
737.348	41.76
737.53	41.98
737.712	41.28
737.894	41.01
738.076	40.81
738.258	40.93
738.44	40.4
738.622	40.9
738.804	40.94
738.986	40.8
739.168	40.47
739.35	39.38
739.532	40.02
739.714	40.39
739.896	40.88
740.078	40.86
740.259	40.66
740.441	40.93
740.623	40.43
740.805	40.42
740.987	40.68
741.168	41.17
741.35	41.94
741.532	41.8
741.714	42.1
741.895	41.7
742.077	42.5
742.259	42.7
742.44	42.77
742.622	43.4
742.804	43.55
742.985	43.74
743.167	43.83
743.348	43.97
743.53	43.78
743.711	44.16
743.893	44.82
744.075	44.09
744.256	44.33
744.438	44.94
744.619	44.61
744.8	44.53
744.982	44.41
745.163	44.58
745.345	44.85
745.526	44.87
745.707	44.49
745.889	43.94
746.07	44.02
746.252	43.52
746.433	43.56
746.614	44.21
746.795	44.61
746.977	44.93
747.158	44.95
747.339	44.79
747.52	45.34
747.702	45.49
747.883	45.66
748.064	45.61
748.245	45.9
748.426	45.08
748.607	44.71
748.788	44.71
748.97	44.27
749.151	43.87
749.332	44.42
749.513	44.02
749.694	43.68
749.875	43.57
750.056	43.54
750.237	43.98
750.418	44.76
750.599	44.18
750.78	43.57
750.96	43.81
751.141	43.76
751.322	43.47
751.503	43.48
751.684	42.55
751.865	43.24
752.046	42.88
752.226	42.03
752.407	41.89
752.588	42.02
752.769	42.65
752.949	42.76
753.13	42.8
753.311	41.4
753.492	41.79
753.672	42.94
753.853	41.89
754.034	42.56
754.214	43.37
754.395	42.65
754.575	41.96
754.756	41.45
754.937	41.14
755.117	41.54
755.298	42.69
755.478	42.47
755.659	42.35
755.839	42.56
756.02	42.19
756.2	42.02
756.381	42.86
756.561	43.48
756.741	43.45
756.922	43.2
757.102	41.6
757.283	41.74
757.463	40.9
757.643	40.55
757.823	40.15
758.004	40.1
758.184	39.4
758.364	38.11
758.545	37.7
758.725	37.19
758.905	37.29
759.085	37.01
759.265	35.62
759.446	34.88
759.626	33.83
759.806	33.59
759.986	33.08
760.166	33.06
760.346	33.12
760.526	32.87
760.706	33.27
760.886	32.49
761.066	33.21
761.246	33.32
761.426	33.11
761.606	33.55
761.786	33.23
761.966	33.07
762.146	32.34
762.326	32.11
762.506	32.1
762.686	31.46
762.866	31.28
763.046	30.67
763.225	30.68
763.405	30.78
763.585	30.8
763.765	30.82
763.945	31.14
764.124	31.83
764.304	32.22
764.484	32.91
764.664	32.91
764.843	33.71
765.023	34.43
765.203	34.67
765.382	35.77
765.562	36.46
765.741	37.32
765.921	37.4
766.101	37.76
766.28	38.56
766.46	38.99
766.639	40.07
766.819	40.02
766.998	40.32
767.178	41
767.357	41.09
767.537	41.37
767.716	42.18
767.896	42.7
768.075	42.24
768.254	42.39
768.434	42.47
768.613	42.33
768.792	43.23
768.972	44.1
769.151	44.46
769.33	44.36
769.51	45.63
769.689	45.15
769.868	45.8
770.047	45.96
770.226	45.51
770.406	45.06
770.585	45.67
770.764	45.07
770.943	44.24
771.122	44.49
771.301	45
771.48	44.42
771.66	44.19
771.839	43.99
772.018	44.95
772.197	45.14
772.376	45.97
772.555	45.8
772.734	46.55
772.913	47.03
773.092	47.58
773.271	47.37
773.449	46.73
773.628	46.94
773.807	48.36
773.986	48.51
774.165	49.13
774.344	48.65
774.523	48.44
774.701	48.05
774.88	48.21
775.059	47.32
775.238	47.5
775.417	47.47
775.595	47.56
775.774	46.79
775.953	45.78
776.131	45.38
776.31	45.57
776.489	46.02
776.667	46.29
776.846	46.6
777.025	47.44
777.203	47.54
777.382	48.88
777.56	48.49
777.739	48.12
777.917	48.11
778.096	48.16
778.274	48.1
778.453	47.89
778.631	47.6
778.81	46.33
778.988	46.59
779.166	46.79
779.345	45.39
779.523	45.51
779.702	45.24
779.88	45.73
780.058	45.28
780.237	44.09
780.415	44.66
780.593	44.2
780.771	45.49
780.95	45.08
781.128	44.63
781.306	44.38
781.484	44.68
781.662	44.35
781.841	44.5
782.019	44.3
782.197	45.26
782.375	44.89
782.553	45.27
782.731	45.2
782.909	44.48
783.087	44.79
783.265	44.9
783.443	44.71
783.621	44.71
783.799	45.45
783.977	46
784.155	46.36
784.333	47.05
784.511	47.42
784.689	47.5
784.867	46.78
785.045	46.66
785.223	47.31
785.4	47.26
785.578	48.51
785.756	47.68
785.934	48.23
786.112	46.92
786.289	46.06
786.467	45.43
786.645	44.97
786.823	45.16
787	44.24
787.178	44.2
787.356	44.02
787.533	43.35
787.711	42.95
787.889	42.47
788.066	42.56
788.244	41.67
788.421	41.42
788.599	41.12
788.776	40.99
788.954	42.15
789.131	41.92
789.309	42.15
789.486	42.1
789.664	41.62
789.841	41.16
790.019	40.73
790.196	41.31
790.373	41.58
790.551	42.22
790.728	42.96
790.906	42.57
791.083	42.35
791.26	42.29
791.437	41.51
791.615	43.12
791.792	43.11
791.969	43.55
792.146	43.78
792.324	44.79
792.501	45.01
792.678	43.99
792.855	43.46
793.032	43.78
793.209	43.94
793.387	44.41
793.564	43.48
793.741	44.57
793.918	44.98
794.095	44.83
794.272	44.8
794.449	43.51
794.626	44.87
794.803	45.68
794.98	44.68
795.157	45.13
795.334	45.09
795.511	44.45
795.688	44.07
795.864	44.04
796.041	43.95
796.218	43.03
796.395	42.71
796.572	43.38
796.749	42.41
796.925	42.11
797.102	40.99
797.279	40.42
797.456	41.6
797.632	40.98
797.809	39.99
797.986	40.22
798.162	40.99
798.339	41.46
798.516	40.84
798.692	41.29
798.869	42.66
799.046	42.59
799.222	43.43
799.399	43.03
799.575	43.54
799.752	44.77
799.928	45.47
800.105	44.05
800.281	44.95
800.458	43.65
800.634	44.53
800.811	43.78
800.987	45.59
801.163	45.43
801.34	44.68
801.516	43.92
801.692	43.6
801.869	42.75
802.045	43.28
802.221	43.22
802.398	44.11
802.574	43.78
802.75	44.73
802.926	43.18
803.103	42.96
803.279	43.62
803.455	43.92
803.631	44.09
803.807	45.04
803.983	46.02
804.16	45.64
804.336	45.36
804.512	44.54
804.688	44.42
804.864	45.19
805.04	45
805.216	44.31
805.392	45.18
805.568	45.32
805.744	44.74
805.92	44.15
806.096	44.67
806.272	45.48
806.448	45.46
806.623	44.28
806.799	43.46
806.975	43.2
807.151	42.91
807.327	42.04
807.503	41.12
807.678	41.32
807.854	41.4
808.03	41.96
808.206	41.93
808.381	41.89
808.557	41.94
808.733	42.15
808.908	42.74
809.084	42.7
809.26	43.82
809.435	45.23
809.611	43.2
809.787	44.95
809.962	44.33
810.138	44.24
810.313	44.3
810.489	44.59
810.664	44.6
810.84	44.64
811.015	46.3
811.191	47.5
811.366	46.71
811.542	47.52
811.717	45.91
811.892	45.95
812.068	45.44
812.243	44.84
812.419	45.44
812.594	44.18
812.769	44.36
812.944	43.78
813.12	42.65
813.295	42.76
813.47	42.39
813.645	41.66
813.821	40.85
813.996	41.56
814.171	42.42
814.346	42.34
814.521	42.84
814.697	42.32
814.872	42.37
815.047	40.73
815.222	39.61
815.397	40.37
815.572	39.92
815.747	39.63
815.922	38.66
816.097	38.25
816.272	37.85
816.447	38.13
816.622	38.99
816.797	38.17
816.972	37.7
817.147	37.89
817.322	37.74
817.496	37.75
817.671	36.13
817.846	35.97
818.021	35.18
818.196	35.03
818.371	35.43
818.545	34.27
818.72	34.36
818.895	34.75
819.069	34.41
819.244	34.52
819.419	34.52
819.594	34.98
819.768	34.63
819.943	34.69
820.117	33.75
820.292	32.12
820.467	31.65
820.641	30.73
820.816	29.33
820.99	28.32
821.165	27.03
821.339	26.74
821.514	26.2
821.688	25.52
821.863	25.25
822.037	24.84
822.212	24.69
822.386	24.41
822.56	24.04
822.735	24.12
822.909	24.04
823.084	24.18
823.258	24.06
823.432	24.17
823.606	24.25
823.781	24.39
823.955	24.43
824.129	24.88
824.303	25.27
824.478	25.65
824.652	26.05
824.826	26.51
825	26.75
825.174	27.11
825.348	27.94
825.523	28.41
825.697	28.57
825.871	29.31
826.045	29.65
826.219	29.05
826.393	29.34
826.567	29.24
826.741	29.36
826.915	29.93
827.089	30
827.263	29.25
827.437	28.41
827.611	28.56
827.784	28.59
827.958	27.98
828.132	28.52
828.306	28.44
828.48	28.84
828.654	29.27
828.827	29.32
829.001	29.58
829.175	30.29
829.349	32.4
829.522	32.36
829.696	32.7
829.87	33.55
830.044	34.25
830.217	35.15
830.391	34.88
830.565	35.38
830.738	35.43
830.912	35.09
831.085	35.42
831.259	34.24
831.432	32.93
831.606	34.11
831.779	34.66
831.953	34.34
832.126	33.83
832.3	33.65
832.473	33.48
832.647	33.47
832.82	33.49
832.994	32.35
833.167	32.33
833.34	33.47
833.514	32.04
833.687	31.12
833.86	30.33
834.034	30.25
834.207	30.29
834.38	29.99
834.553	29.93
834.727	29.7
834.9	30.11
835.073	30.06
835.246	30.32
835.419	30.81
835.593	30.57
835.766	30.95
835.939	32.41
836.112	33.41
836.285	34.42
836.458	34.99
836.631	35.09
836.804	35.83
836.977	37.77
837.15	37.15
837.323	37.39
837.496	39.77
837.669	41.19
837.842	40.1
838.015	39.24
838.188	39.62
838.361	38.28
838.533	40.09
838.706	40.39
838.879	39.67
839.052	39.63
839.225	39.92
839.398	40.09
839.57	39.13
839.743	38.81
839.916	38.66
840.088	36.53
840.261	36.91
840.434	35.74
840.607	36.36
840.779	35.71
840.952	36.36
841.124	37
841.297	36.03
841.47	35.03
841.642	34.52
841.815	36.2
841.987	38.87
842.16	38.68
842.332	38.91
842.505	40.05
842.677	41.51
842.85	42.04
843.022	43.36
843.194	43.74
843.367	46.37
843.539	48.22
843.712	48.67
843.884	47.96
844.056	49.74
844.229	53.57
844.401	52.5
844.573	53.85
844.745	54.2
844.918	51.55
845.09	50.75
845.262	52.21
845.434	50.85
845.606	51.9
845.779	51.85
845.951	52.07
846.123	51.14
846.295	51.46
846.467	48.88
846.639	49.88
846.811	52.65
846.983	55.2
847.155	54.81
847.327	56.33
847.499	50.19
847.671	50.55
847.843	52.3
848.015	54.08
848.187	52.65
848.359	51.33
848.531	50.36
848.703	48.57
848.875	47.13
849.047	46.25
849.218	47.36
849.39	49.5
849.562	46.86
849.734	46.83
849.905	43.92
850.077	48.37
850.249	50.95
850.421	49.43
850.592	51.74
850.764	54.37
850.936	53.92
851.107	52.11
851.279	55.74
851.451	61.7
851.622	60.76
851.794	62.9
851.965	57.44
852.137	52.37
852.308	51.34
852.48	52.51
852.651	51.17
852.823	54.66
852.994	55.62
853.166	54.02
853.337	52.95
853.509	54.82
853.68	51.29
853.851	53.07
854.023	64.92
854.194	69.13
854.365	65.07
854.537	64.35
854.708	64.73
854.879	64.58
855.05	67.9
855.222	69.39
855.393	69.26
855.564	69.85
855.735	66.4
855.906	60.5
856.078	62.11
856.249	65.92
856.42	63.96
856.591	58.9
856.762	59.23
856.933	51.74
857.104	47.4
857.275	46.33
857.446	45.04
857.617	48.23
857.788	48.19
857.959	44.78
858.13	41.64
858.301	42.34
858.472	42.68
858.643	41.78
858.814	48.42
858.985	50.83
859.155	47.92
859.326	53.33
859.497	53.83
859.668	56.63
859.839	58.06
860.009	58.17
860.18	57.67
860.351	55.29
860.522	55.11
860.692	54.65
860.863	52.73
861.034	54.73
861.204	51.11
861.375	52
861.546	46.95
861.716	48.6
861.887	52.19
862.057	59.46
862.228	61.54
862.398	60.5
862.569	69.33
862.739	74.42
862.91	73.52
863.08	76.58
863.251	76.76
863.421	78.18
863.592	77.36
863.762	78.77
863.932	71.27
864.103	72.02
864.273	70.29
864.443	60.12
864.614	59.93
864.784	60.73
864.954	61.39
865.125	62.07
865.295	58.02
865.465	53.34
865.635	51.59
865.805	54.01
865.976	55.35
866.146	60.29
866.316	61.7
866.486	59.05
866.656	60.1
866.826	54.74
866.996	52.63
867.166	56.39
867.336	61.08
867.506	57.63
867.676	54.57
867.846	52.7
868.016	50.6
868.186	49
868.356	47.2
868.526	46.24
868.696	49.67
868.866	44.2
869.036	44.56
869.206	39.73
869.376	41.37
869.545	42.33
869.715	44.47
869.885	43.11
870.055	40.24
870.224	42.03
870.394	38.87
870.564	42.6
870.734	47.85
870.903	47.81
871.073	50.5
871.243	53.21
871.412	53.32
871.582	49.8
871.751	44.86
871.921	46.57
872.091	46.28
872.26	50.47
872.43	49.19
872.599	45.87
872.769	42.76
872.938	43.94
873.108	42.31
873.277	42.3
873.446	40.41
873.616	42.94
873.785	42.15
873.955	38.35
874.124	37.55
874.293	34.87
874.463	37.14
874.632	39.06
874.801	37.09
874.971	38.73
875.14	40.36
875.309	43.4
875.478	44.52
875.647	46.64
875.817	49.86
875.986	50.81
876.155	50.2
876.324	43.83
876.493	42.22
876.662	43.9
876.831	41.17
877	38.77
877.17	40.23
877.339	42.75
877.508	42.92
877.677	44.71
877.846	40.68
878.015	42.16
878.184	46.48
878.352	43.58
878.521	38.63
878.69	40.77
878.859	39.71
879.028	43.1
879.197	39.26
879.366	37.24
879.534	33.35
879.703	32.52
879.872	31.26
880.041	31.91
880.21	34.27
880.378	34.35
880.547	31.65
880.716	30.65
880.884	27.59
881.053	26.52
881.222	26.29
881.39	26.8
881.559	27.11
881.727	27.06
881.896	26.43
882.065	25.65
882.233	26.28
882.402	26.75
882.57	26.89
882.739	26.97
882.907	27.27
883.076	27.39
883.244	27.08
883.412	26.69
883.581	26.68
883.749	26.29
883.918	26.27
884.086	24.95
884.254	24.99
884.423	25.09
884.591	24.63
884.759	24.13
884.927	24.8
885.096	25.41
885.264	25.54
885.432	25.15
885.6	27.53
885.769	27.77
885.937	29.15
886.105	30.02
886.273	31.3
886.441	35.28
886.609	37.92
886.777	39.3
886.945	43.21
887.113	48.3
887.281	47.08
887.449	46.25
887.617	47.01
887.785	46.68
887.953	43.34
888.121	41.87
888.289	42.35
888.457	46.44
888.625	44.02
888.793	42.29
888.961	35.38
889.129	40.81
889.296	38.43
889.464	39.77
889.632	42.62
889.8	49.26
889.967	50.96
890.135	46.15
