Data from 2938833__Reflection_02.txt Node
Date: Thu Mar 12 11:48:28 EDT 2015
User: robert
Spectrometer: USB4E03002
Autoset integration time: false
Trigger mode: 4
Integration Time (sec): 1.000000E-1
Scans to average: 10
Electric dark correction enabled: false
Nonlinearity correction enabled: false
Boxcar width: 5
Stray light correction enabled: false
XAxis mode: Wavelengths
Stop averaging: false
Number of Pixels in Spectrum: 3648
>>>>>Begin Spectral Data<<<<<
177.575	74.64
177.794	80.5
178.014	93.56
178.233	86.52
178.452	90.1
178.672	76.62
178.891	84.34
179.11	80.65
179.33	21.29
179.549	-16.43
179.768	20.44
179.987	51.34
180.207	20.35
180.426	20
180.645	-79.69
180.864	733.33
181.084	-73.13
181.303	-12.62
181.522	-12.04
181.741	28.74
181.96	55.27
182.179	-54.77
182.398	-37.89
182.618	67.34
182.837	-152.5
183.056	19.77
183.275	-41.98
183.494	-4
183.713	30.74
183.932	32.97
184.151	39.72
184.37	24.67
184.589	50.48
184.808	48.73
185.027	55.45
185.246	71.64
185.465	50.3
185.684	74.7
185.903	64.39
186.122	52.11
186.341	56.52
186.56	39.88
186.779	54.35
186.998	27.99
187.216	-4.76
187.435	-38.4
187.654	-30.23
187.873	-53.9
188.092	-72.89
188.311	-82.89
188.53	-124.21
188.748	-108.95
188.967	-69.98
189.186	-112.42
189.405	-66.13
189.623	-13.22
189.842	-3.69
190.061	-10.44
190.28	-12.71
190.498	1.2
190.717	13.6
190.936	17.79
191.154	18.16
191.373	27.94
191.592	42.29
191.81	46.02
192.029	32.58
192.248	138.97
192.466	152.84
192.685	208.61
192.904	211.39
193.122	126.65
193.341	91.44
193.559	99.5
193.778	79.89
193.996	66.97
194.215	55.02
194.433	44.26
194.652	37.68
194.87	26.14
195.089	20.59
195.307	16.15
195.526	17.31
195.744	45.57
195.963	69.48
196.181	95.55
196.399	207.87
196.618	357.97
196.836	-753.03
197.055	572.73
197.273	256.88
197.491	388.89
197.71	235.1
197.928	111.43
198.146	67.31
198.365	37.3
198.583	52.09
198.801	54.16
199.019	33.01
199.238	17.95
199.456	27.76
199.674	50.74
199.892	58.84
200.111	65.84
200.329	67.55
200.547	58.86
200.765	82.65
200.983	55.26
201.202	52.18
201.42	67.16
201.638	73.59
201.856	49.25
202.074	58.81
202.292	64.37
202.51	41.13
202.728	31.02
202.946	62.25
203.165	12.97
203.383	47.36
203.601	45.26
203.819	-1.32
204.037	6.8
204.255	19.11
204.473	18.84
204.691	9.33
204.909	28.68
205.127	32.34
205.345	35.63
205.562	37.59
205.78	21.59
205.998	24.32
206.216	50.7
206.434	44.37
206.652	50.73
206.87	46.2
207.088	73.95
207.306	72.89
207.523	90.03
207.741	78.94
207.959	77.19
208.177	72.42
208.395	79.08
208.612	93.89
208.83	108.42
209.048	77.51
209.266	96.96
209.483	82.8
209.701	69.28
209.919	72.62
210.136	79.4
210.354	93.97
210.572	89.36
210.79	62.63
211.007	28.01
211.225	32.69
211.442	60.93
211.66	44.48
211.878	18.63
212.095	113.01
212.313	96.68
212.53	82.47
212.748	89.21
212.966	82.94
213.183	88.25
213.401	95.61
213.618	104.87
213.836	88.54
214.053	93.18
214.271	107.18
214.488	24.72
214.705	22.07
214.923	22.41
215.14	35.1
215.358	22.25
215.575	23.46
215.793	16.87
216.01	16.23
216.227	21.37
216.445	-0.33
216.662	-0.37
216.879	2.08
217.097	3.23
217.314	16.28
217.531	7.62
217.749	25.34
217.966	23.08
218.183	29.66
218.4	23.05
218.618	24.76
218.835	40.46
219.052	30.66
219.269	30.38
219.487	22.24
219.704	19.58
219.921	4.71
220.138	6.34
220.355	6.22
220.572	2.98
220.79	4.72
221.007	1.8
221.224	0.92
221.441	8.04
221.658	11.17
221.875	15.33
222.092	9.87
222.309	14.27
222.526	9.19
222.743	7.9
222.96	9.6
223.177	13.39
223.394	13.13
223.611	12.37
223.828	9.82
224.045	0.54
224.262	0.21
224.479	2.61
224.696	0
224.913	7.18
225.13	9.77
225.347	8.28
225.564	2.12
225.781	5.74
225.997	4.38
226.214	7.52
226.431	13.04
226.648	13.05
226.865	12.37
227.082	12.72
227.298	9.22
227.515	7.81
227.732	7.79
227.949	8.33
228.165	6.45
228.382	7.12
228.599	6.79
228.816	5.65
229.032	5.31
229.249	5.95
229.466	5.77
229.682	6.41
229.899	6.29
230.116	6.78
230.332	6.8
230.549	7.07
230.765	6.22
230.982	5.85
231.199	6.48
231.415	5.62
231.632	5.76
231.848	5.87
232.065	6.01
232.281	5.69
232.498	5.94
232.714	6.84
232.931	7.04
233.147	8.15
233.364	6.78
233.58	6.07
233.797	5.96
234.013	5.13
234.23	4.81
234.446	6.77
234.662	6.92
234.879	5.62
235.095	6.49
235.312	6.27
235.528	5.03
235.744	4.7
235.961	6.05
236.177	8.13
236.393	9.27
236.61	9.04
236.826	8.15
237.042	8.26
237.258	9.23
237.475	9.03
237.691	8.08
237.907	10.22
238.123	10.2
238.339	11.04
238.556	11.11
238.772	10.4
238.988	11.36
239.204	11.39
239.42	9.9
239.636	7.75
239.853	6.24
240.069	5.71
240.285	4.98
240.501	5.31
240.717	4.85
240.933	3.45
241.149	3.84
241.365	3.17
241.581	2.93
241.797	3.62
242.013	4.11
242.229	4.61
242.445	4.97
242.661	5.01
242.877	5.3
243.093	4.56
243.309	5.23
243.525	4.92
243.741	5.31
243.957	4.76
244.173	4.62
244.388	4.51
244.604	4.27
244.82	4.52
245.036	4.45
245.252	4.09
245.468	5.06
245.683	4.88
245.899	4.9
246.115	4.72
246.331	4.69
246.547	4.84
246.762	4.87
246.978	4.63
247.194	4.77
247.409	4.3
247.625	4.23
247.841	4.11
248.057	3.99
248.272	3.67
248.488	3.58
248.703	3.52
248.919	3.39
249.135	3.14
249.35	3.1
249.566	2.71
249.782	3.42
249.997	3.25
250.213	2.7
250.428	2.71
250.644	3.03
250.859	3.39
251.075	3.69
251.29	4.47
251.506	4.74
251.721	4.39
251.937	3.99
252.152	3.81
252.368	3.81
252.583	4.72
252.798	4.27
253.014	3.96
253.229	3.56
253.445	3.6
253.66	2.97
253.875	3.14
254.091	3.29
254.306	3.65
254.521	3.95
254.737	4.44
254.952	3.27
255.167	4.54
255.383	5.56
255.598	5.29
255.813	5.13
256.028	3.71
256.244	3.36
256.459	2.81
256.674	2.65
256.889	2.97
257.104	3.58
257.32	3.23
257.535	2.8
257.75	2.63
257.965	2.68
258.18	2.62
258.395	3.27
258.61	3.17
258.826	3.33
259.041	3.42
259.256	3.29
259.471	3.01
259.686	2.85
259.901	2.98
260.116	2.94
260.331	3.04
260.546	3.29
260.761	3.25
260.976	3.07
261.191	3.13
261.406	3.22
261.621	3.27
261.836	3.79
262.05	4.33
262.265	3.38
262.48	3.21
262.695	3.37
262.91	2.94
263.125	3.15
263.34	4.1
263.555	3.74
263.769	3.37
263.984	2.65
264.199	2.21
264.414	2.17
264.629	3.78
264.843	4.1
265.058	3.64
265.273	3.8
265.488	3.48
265.702	3.37
265.917	3.55
266.132	3.98
266.346	4.39
266.561	4.13
266.776	3.14
266.99	2.96
267.205	2.57
267.42	2.73
267.634	2.68
267.849	2.66
268.063	2.54
268.278	2.57
268.492	2.8
268.707	2.58
268.922	2.61
269.136	3.78
269.351	4.01
269.565	4.27
269.78	3.91
269.994	3.99
270.209	4.2
270.423	3.55
270.637	3.69
270.852	2.99
271.066	2.89
271.281	3.24
271.495	2.62
271.709	2.42
271.924	2.57
272.138	2.63
272.353	2.5
272.567	2.1
272.781	2.48
272.996	2.64
273.21	3.09
273.424	3.26
273.638	2.76
273.853	2.88
274.067	3.02
274.281	2.74
274.495	2.82
274.71	3.16
274.924	3.35
275.138	3.33
275.352	2.28
275.566	2.14
275.781	1.58
275.995	1.92
276.209	2.3
276.423	2.22
276.637	1.96
276.851	1.91
277.065	1.77
277.279	1.6
277.493	1.87
277.707	3.16
277.921	2.67
278.135	2.83
278.349	2.37
278.563	2.52
278.777	2.28
278.991	2.86
279.205	2.9
279.419	2.47
279.633	2.37
279.847	2.07
280.061	1.54
280.275	1.48
280.489	1.66
280.703	2.09
280.917	1.89
281.131	2.11
281.344	2.27
281.558	2.44
281.772	2.39
281.986	2.83
282.2	2.48
282.414	3.05
282.627	3.01
282.841	2.93
283.055	2.75
283.269	2.72
283.482	2.64
283.696	2.29
283.91	2.26
284.123	2.71
284.337	2.5
284.551	2.85
284.764	2.52
284.978	2.86
285.192	2.83
285.405	2.74
285.619	2.78
285.833	2.61
286.046	2.64
286.26	2.71
286.473	2.41
286.687	2.57
286.9	2.34
287.114	2.28
287.327	2.35
287.541	2.63
287.754	2.82
287.968	3.08
288.181	3.35
288.395	3.38
288.608	3.01
288.822	3.29
289.035	2.94
289.248	3.32
289.462	3.27
289.675	2.93
289.889	2.96
290.102	2.83
290.315	2.39
290.529	2.47
290.742	2.32
290.955	2.49
291.169	2.18
291.382	2.71
291.595	2.39
291.808	2.54
292.022	3.2
292.235	3.12
292.448	3.02
292.661	3.64
292.875	3.56
293.088	3.88
293.301	4.32
293.514	4.94
293.727	4.8
293.94	5.1
294.153	5.02
294.367	4.51
294.58	4.81
294.793	5.16
295.006	4.98
295.219	4.76
295.432	4.49
295.645	4.41
295.858	4.25
296.071	4.31
296.284	4.28
296.497	4.37
296.71	4.43
296.923	4.26
297.136	4.15
297.349	3.95
297.562	4.23
297.775	4.53
297.988	4.64
298.201	4.73
298.414	4.77
298.626	4.95
298.839	5.05
299.052	5.2
299.265	5.39
299.478	5.5
299.691	5.96
299.903	5.87
300.116	6.14
300.329	6.03
300.542	6.17
300.755	6.11
300.967	6.21
301.18	6
301.393	6.39
301.605	6.06
301.818	6.32
302.031	6.13
302.243	6.44
302.456	5.76
302.669	5.64
302.881	5.56
303.094	5.66
303.307	5.58
303.519	5.52
303.732	5.23
303.944	5.54
304.157	5.4
304.37	5.39
304.582	5.45
304.795	5.91
305.007	6.12
305.22	6.23
305.432	6.07
305.645	6.48
305.857	6.6
306.069	6.82
306.282	7.06
306.494	7.29
306.707	7.36
306.919	7.51
307.132	7.54
307.344	7.64
307.556	7.62
307.769	7.59
307.981	7.32
308.193	7.12
308.406	7
308.618	6.75
308.83	6.67
309.043	6.63
309.255	6.42
309.467	6.22
309.679	6.26
309.892	6.29
310.104	6.55
310.316	6.41
310.528	6.9
310.74	6.85
310.953	6.91
311.165	6.9
311.377	7.21
311.589	7.19
311.801	7.56
312.013	7.1
312.225	7.2
312.437	7.17
312.649	7.07
312.862	7.16
313.074	7.43
313.286	7.62
313.498	7.94
313.71	7.82
313.922	7.87
314.134	7.89
314.346	8.46
314.558	8.22
314.77	8.43
314.982	8.99
315.193	8.71
315.405	8.79
315.617	8.56
315.829	8.33
316.041	8.51
316.253	8.42
316.465	8.42
316.677	8.61
316.888	9.01
317.1	8.61
317.312	8.3
317.524	7.99
317.736	7.95
317.947	8.09
318.159	7.92
318.371	7.89
318.583	7.86
318.794	7.56
319.006	7.44
319.218	7.35
319.43	7.59
319.641	7.76
319.853	8.61
320.064	8.48
320.276	8.61
320.488	9.07
320.699	9.02
320.911	9.37
321.123	9.53
321.334	9.18
321.546	9.33
321.757	9.45
321.969	9.47
322.18	9.25
322.392	9.28
322.603	9.37
322.815	9.62
323.026	9.75
323.238	10.04
323.449	10.4
323.661	10.9
323.872	10.72
324.083	10.9
324.295	10.97
324.506	11.08
324.718	11.29
324.929	11.2
325.14	11.15
325.352	11.22
325.563	11.23
325.774	11.51
325.986	11.32
326.197	11.68
326.408	11.64
326.62	11.68
326.831	12.07
327.042	12.49
327.253	12.93
327.464	13.06
327.676	13.8
327.887	14.14
328.098	14.09
328.309	14.89
328.52	15.26
328.732	15.51
328.943	16.22
329.154	16.26
329.365	16.44
329.576	16.88
329.787	17.14
329.998	17.1
330.209	17.36
330.42	17.61
330.631	17.65
330.842	17.68
331.053	18.1
331.264	18.24
331.475	18.53
331.686	18.86
331.897	18.74
332.108	19.05
332.319	19.21
332.53	19.21
332.741	19.59
332.952	19.7
333.163	19.92
333.374	20.08
333.585	19.96
333.795	20
334.006	19.96
334.217	20.11
334.428	20.03
334.639	20
334.849	20.02
335.06	20.19
335.271	20.06
335.482	20.05
335.692	19.92
335.903	19.97
336.114	20.11
336.325	20.32
336.535	20.46
336.746	20.52
336.957	20.64
337.167	20.67
337.378	20.65
337.589	20.89
337.799	20.75
338.01	21.02
338.22	21.24
338.431	21.43
338.642	21.23
338.852	21.56
339.063	21.74
339.273	21.83
339.484	22.13
339.694	22.42
339.905	22.23
340.115	22.28
340.326	22.28
340.536	22.13
340.746	22.06
340.957	22.19
341.167	21.97
341.378	22.06
341.588	21.84
341.799	21.44
342.009	21.05
342.219	21.23
342.43	21.24
342.64	21.45
342.85	21.53
343.061	21.27
343.271	21.46
343.481	21.39
343.691	21.17
343.902	20.87
344.112	20.97
344.322	21.22
344.532	21.43
344.743	21.38
344.953	21.33
345.163	21.13
345.373	21.19
345.583	20.75
345.793	20.87
346.004	21.02
346.214	21.12
346.424	21.33
346.634	20.93
346.844	20.96
347.054	21.29
347.264	21.1
347.474	21.07
347.684	21.2
347.894	21.31
348.104	21.09
348.314	20.94
348.524	21.02
348.734	20.83
348.944	21.13
349.154	20.61
349.364	20.31
349.574	20.23
349.784	20.19
349.994	20.26
350.204	20.48
350.413	20.48
350.623	20.47
350.833	20.46
351.043	20.45
351.253	20.14
351.463	20.2
351.672	20.26
351.882	20.35
352.092	20.57
352.302	20.14
352.511	19.93
352.721	19.91
352.931	19.81
353.141	20.01
353.35	19.86
353.56	19.97
353.77	20.21
353.979	20.15
354.189	20.09
354.399	20.01
354.608	20.29
354.818	20.27
355.027	20.29
355.237	20.2
355.447	19.98
355.656	20.02
355.866	19.91
356.075	19.82
356.285	19.83
356.494	19.86
356.704	19.77
356.913	19.63
357.123	19.68
357.332	19.68
357.542	19.97
357.751	20.02
357.96	19.94
358.17	19.99
358.379	19.77
358.589	19.75
358.798	19.49
359.007	19.66
359.217	19.62
359.426	19.51
359.635	19.36
359.845	19.08
360.054	19
360.263	19.08
360.472	19.03
360.682	19.3
360.891	19.26
361.1	19.32
361.309	19.26
361.519	19.2
361.728	19.08
361.937	19.24
362.146	19.16
362.355	19.12
362.564	19.09
362.774	19.22
362.983	19
363.192	18.92
363.401	18.89
363.61	19.02
363.819	19.05
364.028	19.41
364.237	19.31
364.446	19.37
364.655	19.34
364.864	19.27
365.073	19
365.282	18.96
365.491	19.09
365.7	18.9
365.909	18.59
366.118	18.67
366.327	18.4
366.536	18.18
366.745	18.1
366.954	18.14
367.162	18.13
367.371	18.14
367.58	18.29
367.789	18.08
367.998	18.18
368.207	18.17
368.415	17.98
368.624	17.76
368.833	17.86
369.042	17.71
369.25	17.5
369.459	17.64
369.668	17.49
369.877	17.28
370.085	17.58
370.294	17.72
370.503	17.55
370.711	17.62
370.92	17.77
371.129	17.73
371.337	17.87
371.546	18
371.754	17.65
371.963	17.56
372.171	17.61
372.38	17.3
372.589	17.15
372.797	17.26
373.006	17.18
373.214	16.97
373.423	16.96
373.631	16.87
373.84	16.92
374.048	17.02
374.256	17.22
374.465	17.04
374.673	17.09
374.882	17.25
375.09	16.92
375.298	16.95
375.507	16.78
375.715	16.7
375.923	16.76
376.132	16.42
376.34	16.09
376.548	16
376.757	16.09
376.965	16.12
377.173	15.85
377.381	15.97
377.59	15.69
377.798	15.82
378.006	15.76
378.214	15.68
378.423	15.8
378.631	16.22
378.839	16.1
379.047	16.03
379.255	15.8
379.463	15.81
379.671	15.67
379.879	15.74
380.088	15.65
380.296	15.63
380.504	15.61
380.712	15.56
380.92	15.17
381.128	15.38
381.336	15.25
381.544	15.26
381.752	15.2
381.96	15.22
382.168	15.27
382.376	15.21
382.584	14.95
382.791	14.83
382.999	14.81
383.207	14.95
383.415	14.84
383.623	14.89
383.831	14.95
384.039	14.94
384.247	14.84
384.454	14.86
384.662	14.88
384.87	15.01
385.078	14.97
385.285	14.94
385.493	14.74
385.701	14.62
385.909	14.34
386.116	14.4
386.324	14.38
386.532	14.44
386.739	14.39
386.947	14.45
387.155	14.39
387.362	14.42
387.57	14.5
387.778	14.63
387.985	14.6
388.193	14.74
388.4	14.59
388.608	14.52
388.816	14.61
389.023	14.39
389.231	14.36
389.438	14.47
389.646	14.43
389.853	14.14
390.061	14.17
390.268	14.37
390.475	14.31
390.683	14.36
390.89	14.33
391.098	14.3
391.305	14.24
391.512	14.13
391.72	13.85
391.927	13.9
392.135	13.94
392.342	13.83
392.549	13.54
392.756	13.42
392.964	13.3
393.171	13.23
393.378	13.17
393.586	13.21
393.793	12.98
394	13.08
394.207	12.95
394.414	13.2
394.622	13.21
394.829	13.26
395.036	13.54
395.243	13.44
395.45	13.63
395.657	13.55
395.864	13.65
396.072	13.86
396.279	13.81
396.486	13.85
396.693	13.46
396.9	13.38
397.107	13.49
397.314	13.2
397.521	13.4
397.728	13.1
397.935	13.1
398.142	13
398.349	13.16
398.556	13.18
398.763	13.25
398.97	13.3
399.177	13.17
399.383	13.05
399.59	13.04
399.797	12.88
400.004	12.81
400.211	12.82
400.418	12.72
400.625	12.4
400.831	12.5
401.038	12.6
401.245	12.58
401.452	12.8
401.658	12.71
401.865	12.74
402.072	12.66
402.279	13.04
402.485	13.01
402.692	13.11
402.899	13.32
403.105	13.25
403.312	12.93
403.519	12.82
403.725	12.84
403.932	12.88
404.138	12.89
404.345	12.94
404.552	12.74
404.758	12.65
404.965	12.71
405.171	12.6
405.378	12.52
405.584	12.67
405.791	12.86
405.997	12.82
406.204	12.71
406.41	12.84
406.617	12.8
406.823	12.7
407.029	12.96
407.236	12.8
407.442	12.9
407.649	12.91
407.855	12.74
408.061	12.63
408.268	12.42
408.474	12.53
408.68	12.38
408.887	12.4
409.093	12.48
409.299	12.26
409.505	12.36
409.712	12.3
409.918	12.3
410.124	12.33
410.33	12.38
410.537	12.62
410.743	12.57
410.949	12.52
411.155	12.56
411.361	12.64
411.567	12.48
411.773	12.35
411.98	12.36
412.186	12.27
412.392	12.46
412.598	12.37
412.804	12.32
413.01	12.52
413.216	12.62
413.422	12.73
413.628	12.85
413.834	13.17
414.04	13.28
414.246	13.2
414.452	13.34
414.658	13.16
414.864	13.13
415.07	13.09
415.275	12.92
415.481	12.84
415.687	12.72
415.893	12.48
416.099	12.34
416.305	12.26
416.511	12.14
416.716	12.1
416.922	12.13
417.128	12.11
417.334	12.11
417.539	12.13
417.745	12.1
417.951	11.88
418.157	11.85
418.362	11.96
418.568	12
418.774	12.11
418.979	12.05
419.185	12.08
419.391	12.1
419.596	12.02
419.802	11.99
420.008	11.95
420.213	12.1
420.419	12.18
420.624	12.05
420.83	11.99
421.035	11.99
421.241	11.91
421.446	11.86
421.652	11.8
421.857	11.86
422.063	11.91
422.268	11.94
422.474	11.92
422.679	11.8
422.885	11.77
423.09	11.76
423.295	11.77
423.501	11.86
423.706	11.86
423.911	11.93
424.117	11.89
424.322	11.93
424.527	12.01
424.733	11.99
424.938	12.06
425.143	12.18
425.349	12.22
425.554	12.08
425.759	12.15
425.964	12.16
426.169	12.12
426.375	12.06
426.58	11.95
426.785	11.85
426.99	11.91
427.195	11.87
427.4	11.69
427.605	11.74
427.811	11.8
428.016	11.76
428.221	11.93
428.426	12.02
428.631	12.12
428.836	12.18
429.041	12.26
429.246	12.18
429.451	12.27
429.656	12.36
429.861	12.34
430.066	12.5
430.271	12.38
430.476	12.28
430.681	12.16
430.886	12.18
431.09	12.14
431.295	12.11
431.5	12.13
431.705	12.16
431.91	12.21
432.115	12.16
432.32	12.06
432.524	12.16
432.729	12.15
432.934	12.28
433.139	12.25
433.343	12.35
433.548	12.46
433.753	12.45
433.958	12.38
434.162	12.44
434.367	12.51
434.572	12.65
434.776	12.67
434.981	12.68
435.186	12.74
435.39	12.87
435.595	12.75
435.799	12.71
436.004	12.86
436.209	12.93
436.413	12.88
436.618	12.92
436.822	12.82
437.027	12.79
437.231	12.82
437.436	12.72
437.64	12.68
437.845	12.73
438.049	12.66
438.253	12.62
438.458	12.57
438.662	12.59
438.867	12.52
439.071	12.54
439.275	12.57
439.48	12.52
439.684	12.58
439.888	12.59
440.093	12.66
440.297	12.76
440.501	12.75
440.706	12.78
440.91	12.74
441.114	12.77
441.318	12.75
441.523	12.79
441.727	12.8
441.931	12.72
442.135	12.69
442.339	12.59
442.543	12.55
442.748	12.52
442.952	12.45
443.156	12.49
443.36	12.56
443.564	12.59
443.768	12.55
443.972	12.62
444.176	12.59
444.38	12.54
444.584	12.61
444.788	12.6
444.992	12.64
445.196	12.68
445.4	12.63
445.604	12.65
445.808	12.58
446.012	12.63
446.216	12.62
446.42	12.71
446.624	12.7
446.828	12.69
447.032	12.69
447.235	12.71
447.439	12.69
447.643	12.76
447.847	12.72
448.051	12.71
448.254	12.64
448.458	12.68
448.662	12.71
448.866	12.72
449.069	12.72
449.273	12.67
449.477	12.75
449.681	12.76
449.884	12.68
450.088	12.67
450.292	12.77
450.495	12.78
450.699	12.71
450.902	12.62
451.106	12.58
451.31	12.62
451.513	12.69
451.717	12.52
451.92	12.66
452.124	12.67
452.327	12.62
452.531	12.61
452.734	12.68
452.938	12.76
453.141	12.93
453.345	12.96
453.548	12.91
453.752	12.95
453.955	12.89
454.158	12.86
454.362	12.95
454.565	12.9
454.769	12.84
454.972	12.74
455.175	12.62
455.379	12.52
455.582	12.55
455.785	12.47
455.988	12.46
456.192	12.57
456.395	12.58
456.598	12.6
456.801	12.62
457.005	12.67
457.208	12.73
457.411	12.68
457.614	12.58
457.817	12.53
458.021	12.74
458.224	12.64
458.427	12.63
458.63	12.55
458.833	12.42
459.036	12.39
459.239	12.39
459.442	12.45
459.645	12.56
459.848	12.55
460.051	12.64
460.254	12.6
460.457	12.63
460.66	12.64
460.863	12.64
461.066	12.7
461.269	12.77
461.472	12.78
461.675	12.74
461.878	12.69
462.081	12.81
462.284	12.79
462.486	12.66
462.689	12.59
462.892	12.62
463.095	12.79
463.298	12.9
463.5	13.03
463.703	13.07
463.906	13.03
464.109	13.04
464.311	12.92
464.514	12.92
464.717	12.99
464.92	13.03
465.122	13.02
465.325	12.89
465.528	12.74
465.73	12.65
465.933	12.68
466.135	12.62
466.338	12.69
466.541	12.75
466.743	12.68
466.946	12.71
467.148	12.8
467.351	12.78
467.553	12.81
467.756	12.93
467.958	13.03
468.161	13.03
468.363	13.08
468.566	12.97
468.768	13.02
468.971	13.12
469.173	13.2
469.375	13.15
469.578	13.2
469.78	13.21
469.983	13.25
470.185	13.2
470.387	13.26
470.59	13.29
470.792	13.37
470.994	13.3
471.196	13.35
471.399	13.21
471.601	13.22
471.803	13.21
472.005	13.18
472.208	13.15
472.41	13.19
472.612	13.14
472.814	13.11
473.016	12.95
473.218	13.12
473.421	13.1
473.623	13.1
473.825	13.15
474.027	13.11
474.229	13.09
474.431	13.15
474.633	13.16
474.835	13.2
475.037	13.17
475.239	13.24
475.441	13.12
475.643	13.12
475.845	13.07
476.047	13.07
476.249	13.03
476.451	13.09
476.653	13.01
476.855	13
477.057	12.87
477.258	12.94
477.46	13.06
477.662	13.08
477.864	13.05
478.066	13.19
478.268	13.14
478.469	13.21
478.671	13.14
478.873	13.12
479.075	13.1
479.276	13.2
479.478	13.14
479.68	13.06
479.882	13.03
480.083	13.03
480.285	12.9
480.487	12.97
480.688	13
480.89	13.01
481.091	13.05
481.293	13.08
481.495	13.03
481.696	13.03
481.898	12.96
482.099	12.99
482.301	12.97
482.502	12.96
482.704	12.92
482.905	12.85
483.107	12.86
483.308	12.8
483.51	12.78
483.711	12.81
483.913	12.79
484.114	12.83
484.315	12.79
484.517	12.79
484.718	12.79
484.92	12.77
485.121	12.78
485.322	12.77
485.524	12.81
485.725	12.79
485.926	12.74
486.127	12.76
486.329	12.74
486.53	12.77
486.731	12.74
486.932	12.72
487.134	12.67
487.335	12.69
487.536	12.66
487.737	12.66
487.938	12.67
488.139	12.67
488.341	12.7
488.542	12.68
488.743	12.68
488.944	12.68
489.145	12.68
489.346	12.73
489.547	12.76
489.748	12.73
489.949	12.74
490.15	12.74
490.351	12.74
490.552	12.74
490.753	12.72
490.954	12.72
491.155	12.75
491.356	12.73
491.557	12.77
491.758	12.76
491.959	12.79
492.159	12.77
492.36	12.82
492.561	12.84
492.762	12.82
492.963	12.89
493.164	12.85
493.364	12.86
493.565	12.93
493.766	12.98
493.967	12.98
494.167	13
494.368	12.98
494.569	13
494.769	12.94
494.97	12.99
495.171	13.02
495.371	13.08
495.572	13.14
495.773	13.23
495.973	13.22
496.174	13.31
496.375	13.35
496.575	13.44
496.776	13.41
496.976	13.5
497.177	13.47
497.377	13.5
497.578	13.62
497.778	13.64
497.979	13.61
498.179	13.65
498.38	13.59
498.58	13.61
498.78	13.65
498.981	13.69
499.181	13.7
499.382	13.8
499.582	13.74
499.782	13.74
499.983	13.71
500.183	13.78
500.383	13.8
500.584	13.89
500.784	13.94
500.984	13.9
501.184	13.96
501.385	14.12
501.585	14.1
501.785	14.23
501.985	14.27
502.185	14.31
502.386	14.35
502.586	14.36
502.786	14.37
502.986	14.42
503.186	14.51
503.386	14.54
503.586	14.57
503.786	14.59
503.987	14.61
504.187	14.62
504.387	14.6
504.587	14.6
504.787	14.62
504.987	14.73
505.187	14.82
505.387	14.92
505.587	15.03
505.786	14.94
505.986	15.03
506.186	15.07
506.386	15.18
506.586	15.33
506.786	15.4
506.986	15.49
507.186	15.52
507.386	15.58
507.585	15.59
507.785	15.61
507.985	15.72
508.185	15.78
508.384	15.79
508.584	15.85
508.784	15.89
508.984	16.04
509.183	16.03
509.383	16.13
509.583	16.16
509.782	16.2
509.982	16.23
510.182	16.3
510.381	16.32
510.581	16.49
510.781	16.6
510.98	16.75
511.18	16.78
511.379	16.88
511.579	16.92
511.778	17.01
511.978	17.12
512.177	17.18
512.377	17.37
512.576	17.53
512.776	17.51
512.975	17.6
513.175	17.55
513.374	17.64
513.573	17.79
513.773	17.86
513.972	17.95
514.172	18.1
514.371	18.24
514.57	18.18
514.77	18.3
514.969	18.47
515.168	18.48
515.367	18.69
515.567	18.81
515.766	18.99
515.965	19.11
516.164	19.23
516.364	19.32
516.563	19.43
516.762	19.6
516.961	19.72
517.16	19.74
517.359	19.92
517.559	19.99
517.758	20.06
517.957	20.07
518.156	20.11
518.355	20.18
518.554	20.27
518.753	20.35
518.952	20.39
519.151	20.42
519.35	20.61
519.549	20.69
519.748	20.76
519.947	20.85
520.146	20.96
520.345	21.09
520.544	21.17
520.743	21.25
520.942	21.33
521.141	21.52
521.339	21.59
521.538	21.58
521.737	21.59
521.936	21.7
522.135	21.87
522.333	21.97
522.532	22.08
522.731	22.26
522.93	22.43
523.129	22.62
523.327	22.65
523.526	22.74
523.725	22.9
523.923	23
524.122	23.14
524.321	23.24
524.519	23.35
524.718	23.44
524.917	23.48
525.115	23.54
525.314	23.6
525.512	23.72
525.711	23.89
525.909	23.99
526.108	24.06
526.306	24.15
526.505	24.22
526.703	24.32
526.902	24.41
527.1	24.51
527.299	24.57
527.497	24.64
527.696	24.72
527.894	24.77
528.092	24.83
528.291	24.89
528.489	24.96
528.688	25.01
528.886	25.04
529.084	25.09
529.283	25.12
529.481	25.15
529.679	25.22
529.877	25.23
530.076	25.28
530.274	25.35
530.472	25.42
530.67	25.44
530.869	25.48
531.067	25.55
531.265	25.72
531.463	25.86
531.661	25.99
531.859	26.01
532.057	26.09
532.255	26.11
532.454	26.15
532.652	26.2
532.85	26.28
533.048	26.35
533.246	26.43
533.444	26.42
533.642	26.42
533.84	26.45
534.038	26.53
534.236	26.6
534.434	26.73
534.632	26.78
534.83	26.88
535.027	26.87
535.225	27.02
535.423	27.13
535.621	27.23
535.819	27.34
536.017	27.44
536.215	27.53
536.412	27.6
536.61	27.62
536.808	27.72
537.006	27.76
537.203	27.87
537.401	27.81
537.599	27.8
537.797	27.82
537.994	27.86
538.192	27.83
538.39	27.89
538.587	27.98
538.785	28.12
538.983	28.21
539.18	28.25
539.378	28.4
539.575	28.47
539.773	28.54
539.97	28.54
540.168	28.62
540.366	28.71
540.563	28.75
540.761	28.76
540.958	28.72
541.155	28.68
541.353	28.75
541.55	28.75
541.748	28.77
541.945	28.78
542.143	28.88
542.34	28.87
542.537	28.86
542.735	28.83
542.932	28.87
543.129	28.94
543.327	29.04
543.524	29.08
543.721	29.15
543.919	29.25
544.116	29.31
544.313	29.24
544.51	29.35
544.708	29.49
544.905	29.59
545.102	29.67
545.299	29.71
545.496	29.7
545.693	29.72
545.891	29.66
546.088	29.66
546.285	29.73
546.482	29.82
546.679	29.81
546.876	29.76
547.073	29.76
547.27	29.78
547.467	29.79
547.664	29.74
547.861	29.78
548.058	29.87
548.255	29.92
548.452	29.97
548.649	29.97
548.846	30.07
549.043	29.99
549.24	30.01
549.437	30
549.633	29.98
549.83	30.14
550.027	30.08
550.224	30.09
550.421	30.08
550.618	30.04
550.814	30.06
551.011	30.05
551.208	30.16
551.405	30.1
551.601	30.15
551.798	30.1
551.995	30.06
552.191	30.02
552.388	29.94
552.585	29.94
552.781	29.87
552.978	29.89
553.175	29.76
553.371	29.7
553.568	29.84
553.764	29.76
553.961	29.83
554.157	29.88
554.354	29.97
554.55	30.06
554.747	30.05
554.943	30.05
555.14	30
555.336	30.02
555.533	30.11
555.729	30.08
555.926	30.3
556.122	30.21
556.318	30.23
556.515	30.29
556.711	30.23
556.907	30.27
557.104	30.34
557.3	30.35
557.496	30.4
557.693	30.41
557.889	30.32
558.085	30.15
558.281	30.25
558.478	30.2
558.674	30.05
558.87	30.12
559.066	30.06
559.262	29.97
559.459	29.99
559.655	30
559.851	30.06
560.047	30.31
560.243	30.3
560.439	30.31
560.635	30.39
560.831	30.45
561.027	30.42
561.223	30.5
561.419	30.56
561.615	30.54
561.811	30.6
562.007	30.61
562.203	30.48
562.399	30.46
562.595	30.34
562.791	30.24
562.987	30.27
563.183	30.18
563.379	30.12
563.575	30
563.771	30.03
563.966	30.06
564.162	30.07
564.358	30.06
564.554	30.11
564.75	30.18
564.945	30.29
565.141	30.28
565.337	30.37
565.533	30.33
565.728	30.47
565.924	30.48
566.12	30.44
566.315	30.38
566.511	30.38
566.707	30.35
566.902	30.4
567.098	30.33
567.293	30.43
567.489	30.49
567.684	30.5
567.88	30.46
568.076	30.37
568.271	30.35
568.467	30.32
568.662	30.32
568.858	30.36
569.053	30.44
569.248	30.35
569.444	30.2
569.639	30.18
569.835	30.31
570.03	30.39
570.225	30.51
570.421	30.59
570.616	30.6
570.812	30.47
571.007	30.43
571.202	30.45
571.397	30.48
571.593	30.43
571.788	30.53
571.983	30.54
572.178	30.5
572.374	30.5
572.569	30.52
572.764	30.59
572.959	30.72
573.154	30.65
573.35	30.59
573.545	30.72
573.74	30.83
573.935	30.69
574.13	30.7
574.325	30.75
574.52	30.75
574.715	30.71
574.91	30.74
575.105	30.81
575.3	30.95
575.495	31.05
575.69	30.98
575.885	31
576.08	31.05
576.275	30.9
576.47	30.88
576.665	31.05
576.86	31.11
577.055	31.16
577.25	31.17
577.444	31.12
577.639	31.16
577.834	31.17
578.029	31.26
578.224	31.3
578.418	31.49
578.613	31.53
578.808	31.44
579.003	31.37
579.197	31.27
579.392	31.34
579.587	31.48
579.781	31.37
579.976	31.43
580.171	31.48
580.365	31.57
580.56	31.6
580.755	31.73
580.949	31.75
581.144	31.79
581.338	31.86
581.533	31.8
581.727	31.84
581.922	31.86
582.116	32.05
582.311	32.14
582.505	32.18
582.7	32.25
582.894	32.21
583.089	32.17
583.283	32.21
583.478	32.33
583.672	32.34
583.866	32.3
584.061	32.37
584.255	32.16
584.449	31.9
584.644	31.84
584.838	31.74
585.032	31.71
585.226	31.74
585.421	31.82
585.615	31.79
585.809	31.84
586.003	31.86
586.198	31.94
586.392	32.08
586.586	32.2
586.78	32.1
586.974	32.12
587.168	32.09
587.363	32.1
587.557	32.09
587.751	32.09
587.945	31.97
588.139	31.9
588.333	31.93
588.527	31.91
588.721	32
588.915	32.11
589.109	32.08
589.303	32.09
589.497	32.09
589.691	32
589.885	31.99
590.079	32.13
590.273	32.03
590.466	32.06
590.66	32.07
590.854	32.19
591.048	32.22
591.242	32.26
591.436	32.27
591.629	32.26
591.823	32.54
592.017	32.6
592.211	32.63
592.404	32.91
592.598	32.93
592.792	33.05
592.986	33.03
593.179	32.94
593.373	32.98
593.567	33.03
593.76	33.23
593.954	32.98
594.147	32.82
594.341	32.74
594.535	32.51
594.728	32.47
594.922	32.28
595.115	32.1
595.309	32.18
595.502	32.14
595.696	32.26
595.889	32.22
596.083	32.35
596.276	32.47
596.47	32.52
596.663	32.59
596.856	32.47
597.05	32.57
597.243	32.8
597.437	32.78
597.63	32.99
597.823	32.91
598.017	32.88
598.21	32.85
598.403	32.76
598.596	32.92
598.79	32.91
598.983	33.1
599.176	33.23
599.369	33.08
599.563	33.21
599.756	33.19
599.949	33.22
600.142	33.18
600.335	33.17
600.528	33.28
600.722	33.18
600.915	33.34
601.108	33.32
601.301	33.24
601.494	33.3
601.687	33.31
601.88	33.29
602.073	33.38
602.266	33.42
602.459	33.55
602.652	33.6
602.845	33.71
603.038	33.67
603.231	33.71
603.424	33.79
603.617	33.74
603.809	33.68
604.002	33.59
604.195	33.52
604.388	33.47
604.581	33.4
604.774	33.39
604.966	33.22
605.159	33.23
605.352	33.29
605.545	33.28
605.737	33.35
605.93	33.37
606.123	33.52
606.316	33.57
606.508	33.71
606.701	33.86
606.894	34.01
607.086	34.24
607.279	34.64
607.471	34.58
607.664	34.6
607.857	34.78
608.049	34.91
608.242	35
608.434	35.42
608.627	35.7
608.819	36.08
609.012	36.61
609.204	37.04
609.397	37.4
609.589	37.94
609.782	38.56
609.974	39.17
610.166	39.99
610.359	40.74
610.551	41.27
610.743	41.71
610.936	42.15
611.128	42.35
611.32	42.57
611.513	42.57
611.705	42.6
611.897	42.39
612.09	42.14
612.282	41.79
612.474	41.5
612.666	41.03
612.858	40.77
613.051	40.17
613.243	39.81
613.435	39.6
613.627	39.31
613.819	39.13
614.011	39.13
614.203	38.95
614.395	38.64
614.588	38.17
614.78	38.15
614.972	38.17
615.164	38.05
615.356	37.84
615.548	37.53
615.74	37.35
615.932	37.26
616.124	36.89
616.315	36.79
616.507	36.82
616.699	36.87
616.891	36.56
617.083	36.36
617.275	36.37
617.467	36.24
617.659	36.3
617.85	36.3
618.042	36.2
618.234	36.28
618.426	36.02
618.618	35.98
618.809	36.02
619.001	36.05
619.193	36.11
619.384	36.21
619.576	36.37
619.768	36.14
619.959	36.24
620.151	36.22
620.343	36.07
620.534	36.27
620.726	36.27
620.917	36.25
621.109	36.32
621.301	36.28
621.492	36.32
621.684	36.34
621.875	36.59
622.067	36.52
622.258	36.63
622.45	36.83
622.641	36.95
622.832	36.99
623.024	36.82
623.215	36.84
623.407	36.84
623.598	36.76
623.789	36.67
623.981	36.54
624.172	36.41
624.363	36.35
624.555	36.24
624.746	36.09
624.937	35.9
625.129	36.07
625.32	35.92
625.511	35.88
625.702	35.96
625.893	35.92
626.085	35.83
626.276	35.97
626.467	35.88
626.658	36.15
626.849	36.12
627.04	36.24
627.231	36.17
627.422	36.43
627.614	36.38
627.805	36.35
627.996	36.49
628.187	36.73
628.378	36.67
628.569	36.75
628.76	36.62
628.951	36.68
629.142	36.73
629.332	36.8
629.523	36.77
629.714	36.97
629.905	37.07
630.096	37.15
630.287	37.11
630.478	37.16
630.669	37.14
630.859	37.14
631.05	37.21
631.241	37.18
631.432	37.2
631.623	37.1
631.813	37
632.004	36.99
632.195	36.94
632.385	36.89
632.576	36.88
632.767	36.91
632.957	36.8
633.148	36.59
633.339	36.57
633.529	36.67
633.72	36.58
633.91	36.3
634.101	36.06
634.292	35.85
634.482	35.79
634.673	35.79
634.863	35.98
635.054	36.11
635.244	36.29
635.435	36.4
635.625	36.32
635.815	36.36
636.006	36.49
636.196	36.51
636.387	36.75
636.577	36.7
636.767	36.65
636.958	36.49
637.148	36.45
637.338	36.55
637.529	36.27
637.719	36.2
637.909	36.3
638.099	36.37
638.29	36.42
638.48	36.33
638.67	36.5
638.86	36.69
639.05	36.69
639.241	36.66
639.431	36.52
639.621	36.65
639.811	36.76
640.001	36.73
640.191	36.72
640.381	36.85
640.571	36.86
640.761	36.81
640.951	36.58
641.141	36.61
641.331	36.59
641.521	36.62
641.711	36.76
641.901	36.65
642.091	36.6
642.281	36.47
642.471	36.39
642.661	36.44
642.851	36.65
643.041	36.69
643.231	36.52
643.42	36.48
643.61	36.32
643.8	36.1
643.99	36.08
644.18	36.18
644.369	36.44
644.559	36.35
644.749	36.35
644.939	36.19
645.128	36.35
645.318	36.59
645.508	36.49
645.697	36.52
645.887	36.76
646.076	36.7
646.266	36.81
646.456	36.63
646.645	36.83
646.835	36.85
647.024	36.77
647.214	36.76
647.403	36.54
647.593	36.71
647.782	36.77
647.972	36.75
648.161	36.92
648.351	36.67
648.54	36.84
648.73	36.87
648.919	36.69
649.108	36.92
649.298	36.79
649.487	36.97
649.677	37.2
649.866	37.29
650.055	37.09
650.244	37.04
650.434	36.95
650.623	37.08
650.812	37.04
651.002	37.3
651.191	37.1
651.38	37.26
651.569	37.52
651.758	37.36
651.947	37.59
652.137	37.87
652.326	37.84
652.515	38
652.704	37.88
652.893	37.7
653.082	37.63
653.271	37.82
653.46	37.67
653.649	37.48
653.838	37.24
654.027	36.92
654.216	37.09
654.405	37.23
654.594	37.42
654.783	37.59
654.972	37.78
655.161	37.61
655.35	37.61
655.539	37.6
655.728	37.66
655.916	37.87
656.105	38.02
656.294	37.88
656.483	37.75
656.672	37.52
656.86	37.32
657.049	37.37
657.238	37.46
657.427	37.47
657.615	37.58
657.804	37.46
657.993	37.48
658.181	37.45
658.37	37.4
658.559	37.32
658.747	37.44
658.936	37.35
659.125	37.62
659.313	37.45
659.502	37.3
659.69	37.28
659.879	37.28
660.067	37.36
660.256	37.41
660.444	37.56
660.633	37.78
660.821	37.79
661.01	38.01
661.198	37.67
661.387	38.2
661.575	38.23
661.763	38.18
661.952	38.43
662.14	38.51
662.328	38.37
662.517	38.25
662.705	38.28
662.893	38.29
663.082	38.25
663.27	38.68
663.458	38.4
663.646	38.44
663.834	38.67
664.023	38.55
664.211	38.51
664.399	38.85
664.587	38.68
664.775	38.62
664.963	38.55
665.152	38.72
665.34	38.22
665.528	38.07
665.716	38.14
665.904	38.12
666.092	38.04
666.28	38.01
666.468	38.02
666.656	38.24
666.844	38.25
667.032	38.52
667.22	38.59
667.408	38.74
667.596	38.79
667.784	38.91
667.971	39.01
668.159	39.02
668.347	39.13
668.535	38.97
668.723	38.96
668.911	39.04
669.098	38.91
669.286	38.81
669.474	39
669.662	39.05
669.849	39.15
670.037	39.08
670.225	39.24
670.413	39
670.6	38.9
670.788	38.67
670.976	38.61
671.163	38.76
671.351	39.01
671.538	38.96
671.726	39.17
671.913	38.85
672.101	38.72
672.289	38.66
672.476	38.74
672.664	39.03
672.851	39.24
673.039	39.38
673.226	39.29
673.413	38.91
673.601	38.82
673.788	38.69
673.976	39
674.163	39.17
674.35	39.38
674.538	39.42
674.725	39.48
674.912	39.41
675.1	39.37
675.287	39.59
675.474	39.47
675.662	39.51
675.849	39.34
676.036	39.22
676.223	39.25
676.411	38.9
676.598	38.88
676.785	38.98
676.972	39
677.159	39.03
677.346	38.93
677.533	39.38
677.721	39.31
677.908	39.58
678.095	39.73
678.282	39.67
678.469	39.79
678.656	40.08
678.843	39.74
679.03	39.7
679.217	39.6
679.404	39.47
679.591	39.12
679.778	39.21
679.964	39.14
680.151	39.12
680.338	39.03
680.525	39.23
680.712	39.25
680.899	39.24
681.086	39.36
681.272	39.31
681.459	39.2
681.646	39.38
681.833	39.42
682.02	39.75
682.206	39.67
682.393	39.67
682.58	39.52
682.766	39.04
682.953	39.36
683.14	39.31
683.326	39.81
683.513	40.06
683.7	39.95
683.886	39.97
684.073	39.66
684.259	39.49
684.446	39.71
684.632	39.76
684.819	39.99
685.005	39.8
685.192	39.76
685.378	39.34
685.565	39.29
685.751	39.49
685.938	39.62
686.124	39.9
686.31	40.3
686.497	40.24
686.683	40.12
686.87	40.15
687.056	40.16
687.242	40.3
687.429	40.25
687.615	40.23
687.801	39.85
687.987	39.88
688.174	39.68
688.36	39.73
688.546	39.71
688.732	39.67
688.918	39.77
689.105	39.75
689.291	39.93
689.477	40.27
689.663	40.23
689.849	40.73
690.035	40.24
690.221	40.63
690.407	40.5
690.593	40.8
690.779	41.11
690.965	41.01
691.151	41.02
691.337	40.71
691.523	40.45
691.709	40.51
691.895	40.4
692.081	40.67
692.267	40.09
692.453	40.1
692.639	39.92
692.825	39.72
693.011	39.89
693.196	39.83
693.382	40.08
693.568	40.31
693.754	40.4
693.94	40.85
694.125	41.04
694.311	41.3
694.497	41.23
694.682	41.32
694.868	41.41
695.054	41.58
695.239	42.01
695.425	41.57
695.611	41.37
695.796	41.41
695.982	40.68
696.168	40.74
696.353	40.85
696.539	40.79
696.724	40.38
696.91	40.42
697.095	40.25
697.281	39.91
697.466	40.29
697.652	40.45
697.837	40.51
698.023	40.71
698.208	40.47
698.393	40.15
698.579	40.01
698.764	39.96
698.949	39.9
699.135	39.84
699.32	39.8
699.505	39.55
699.691	39.42
699.876	39.22
700.061	39.28
700.246	39.33
700.432	39.56
700.617	39.88
700.802	40.03
700.987	40.12
701.172	40.11
701.358	40.24
701.543	40.08
701.728	40.06
701.913	39.94
702.098	39.96
702.283	39.94
702.468	40.02
702.653	39.98
702.838	40.29
703.023	40.25
703.208	40.42
703.393	40.75
703.578	41.18
703.763	41.12
703.948	41.49
704.133	41.52
704.318	41.88
704.503	41.62
704.688	41.79
704.873	41.83
705.057	41.81
705.242	42.15
705.427	42.39
705.612	43.14
705.797	43.44
705.981	43.78
706.166	43.85
706.351	43.8
706.536	44.39
706.72	44.36
706.905	44.66
707.09	44.71
707.274	44.93
707.459	44.72
707.644	44.46
707.828	44.42
708.013	44.11
708.197	44.06
708.382	44.12
708.567	43.59
708.751	43.69
708.936	43.55
709.12	43.67
709.305	43.55
709.489	43.24
709.673	43.01
709.858	42.99
710.042	43.33
710.227	43.26
710.411	42.83
710.596	43.08
710.78	42.85
710.964	42.85
711.149	42.79
711.333	42.74
711.517	42.88
711.702	42.98
711.886	43.21
712.07	43.18
712.254	43.43
712.438	43.88
712.623	44.03
712.807	43.86
712.991	43.35
713.175	43.25
713.359	42.5
713.544	42.78
713.728	42.33
713.912	41.91
714.096	41.3
714.28	40.95
714.464	40.63
714.648	40.32
714.832	40.3
715.016	40.49
715.2	40.21
715.384	40.45
715.568	40.22
715.752	40.46
715.936	40.52
716.12	40.46
716.304	40.41
716.488	40.31
716.671	39.96
716.855	40.2
717.039	40.04
717.223	40.22
717.407	40.4
717.59	40.15
717.774	40.05
717.958	40.34
718.142	40.5
718.325	40.5
718.509	40.62
718.693	40.89
718.877	40.76
719.06	40.82
719.244	41.04
719.428	41.17
719.611	41.4
719.795	41.32
719.978	40.96
720.162	41.25
720.345	41.58
720.529	41.37
720.713	41.07
720.896	41.16
721.08	41.69
721.263	41.68
721.446	41.3
721.63	41.12
721.813	41.48
721.997	41.67
722.18	41.38
722.364	41.14
722.547	41.14
722.73	41.57
722.914	41.38
723.097	41.17
723.28	40.73
723.464	41.07
723.647	41.14
723.83	40.76
724.013	40.69
724.197	40.91
724.38	40.77
724.563	41.15
724.746	40.87
724.929	41.15
725.112	40.84
725.296	41.27
725.479	41.2
725.662	40.85
725.845	40.62
726.028	40.85
726.211	40.65
726.394	40.81
726.577	40.43
726.76	40.37
726.943	39.94
727.126	40.02
727.309	39.76
727.492	39.61
727.675	39.78
727.858	39.84
728.041	39.96
728.224	39.72
728.407	39.77
728.589	40.14
728.772	40.44
728.955	40.73
729.138	40.82
729.321	40.76
729.503	40.7
729.686	40.63
729.869	40.49
730.052	40.08
730.234	40.35
730.417	39.91
730.6	39.75
730.782	39.54
730.965	39.46
731.148	39.35
731.33	39.28
731.513	39.41
731.695	39.78
731.878	40.17
732.061	40.36
732.243	40.07
732.426	40.47
732.608	40.25
732.791	40.77
732.973	40.9
733.156	41.31
733.338	41.33
733.52	41.3
733.703	40.95
733.885	40.94
734.068	41.04
734.25	41.64
734.432	41.7
734.615	42.55
734.797	42.5
734.979	42.75
735.162	42.12
735.344	42.44
735.526	42.06
735.708	42.61
735.891	43.37
736.073	43.35
736.255	43.07
736.437	43.12
736.619	41.89
736.802	41.72
736.984	41.77
737.166	42.38
737.348	42.22
737.53	43.06
737.712	42.84
737.894	41.81
738.076	41.93
738.258	42.42
738.44	42.18
738.622	42.64
738.804	42.96
738.986	42.72
739.168	42.41
739.35	42.52
739.532	42.81
739.714	42.64
739.896	42.99
740.078	42.33
740.259	41.81
740.441	42.07
740.623	42.43
740.805	42.34
740.987	42.66
741.168	43.08
741.35	42.64
741.532	42.44
741.714	42.12
741.895	42.07
742.077	42.23
742.259	42.14
742.44	42.24
742.622	42.03
742.804	41.79
742.985	41.29
743.167	41.24
743.348	42.3
743.53	42.07
743.711	42.95
743.893	42.96
744.075	43.57
744.256	43.93
744.438	44.06
744.619	44.2
744.8	44.58
744.982	44.49
745.163	44.12
745.345	44.02
745.526	43.99
745.707	43.68
745.889	44.11
746.07	43.71
746.252	43.54
746.433	43.52
746.614	43.33
746.795	43.31
746.977	43.19
747.158	43.46
747.339	43.42
747.52	43.52
747.702	43.85
747.883	43.27
748.064	43.33
748.245	43.44
748.426	43.69
748.607	43.18
748.788	42.92
748.97	43.36
749.151	42.64
749.332	42.7
749.513	42.68
749.694	42.35
749.875	42.59
750.056	42.66
750.237	42.49
750.418	42.32
750.599	43.28
750.78	43.5
750.96	43.72
751.141	44.96
751.322	44.29
751.503	44.56
751.684	44.87
751.865	45.31
752.046	45.89
752.226	46.07
752.407	46.31
752.588	46.25
752.769	45.85
752.949	45.4
753.13	44.73
753.311	45.16
753.492	44.47
753.672	43.92
753.853	43.18
754.034	42.66
754.214	42.43
754.395	42.11
754.575	42.21
754.756	42.48
754.937	42.74
755.117	42.61
755.298	42.16
755.478	42.31
755.659	42.68
755.839	42.83
756.02	42.43
756.2	42.89
756.381	43.37
756.561	43.22
756.741	42.92
756.922	43.44
757.102	43.48
757.283	43.39
757.463	43.14
757.643	42.3
757.823	41.45
758.004	40.99
758.184	39.95
758.364	39.69
758.545	38.64
758.725	38.55
758.905	37.4
759.085	37.16
759.265	36.64
759.446	36.65
759.626	37.33
759.806	38.27
759.986	38.3
760.166	38.76
760.346	37.9
760.526	38.37
760.706	38.45
760.886	38.25
761.066	38.47
761.246	38.89
761.426	39.04
761.606	38.46
761.786	38.33
761.966	38.49
762.146	38.68
762.326	39.15
762.506	39.27
762.686	38.75
762.866	39.04
763.046	39.04
763.225	39.11
763.405	38.8
763.585	39.38
763.765	39.02
763.945	39.28
764.124	38.99
764.304	39.07
764.484	38.76
764.664	39.02
764.843	39.65
765.023	39.73
765.203	39.33
765.382	39.92
765.562	39.53
765.741	40.37
765.921	40.31
766.101	40.47
766.28	40.26
766.46	41.18
766.639	41
766.819	40.69
766.998	40.39
767.178	41.14
767.357	40.11
767.537	40.38
767.716	39.89
767.896	39.82
768.075	40.4
768.254	40.4
768.434	39.93
768.613	40.88
768.792	40.6
768.972	40.94
769.151	41.24
769.33	42.25
769.51	42.35
769.689	41.9
769.868	41.61
770.047	41.18
770.226	41.23
770.406	41.62
770.585	40.92
770.764	40.72
770.943	41.26
771.122	40.12
771.301	40.43
771.48	40.51
771.66	41.91
771.839	43.02
772.018	44.02
772.197	44.42
772.376	44.19
772.555	44.59
772.734	44.8
772.913	43.79
773.092	44.03
773.271	42.93
773.449	42.49
773.628	42.03
773.807	41.96
773.986	41.53
774.165	41.38
774.344	41.45
774.523	41.64
774.701	42.44
774.88	43.74
775.059	43.75
775.238	44.7
775.417	45.66
775.595	45.59
775.774	45.32
775.953	45.94
776.131	46.09
776.31	45.7
776.489	45.32
776.667	44.88
776.846	44.77
777.025	45.67
777.203	45.31
777.382	45.14
777.56	44.84
777.739	44.97
777.917	43.77
778.096	43.18
778.274	43.5
778.453	44.07
778.631	44.54
778.81	43.78
778.988	43.49
779.166	43.2
779.345	42.81
779.523	42.84
779.702	43
779.88	43.53
780.058	43.73
780.237	43.28
780.415	42.63
780.593	41.62
780.771	41.33
780.95	41.8
781.128	42.37
781.306	42.91
781.484	43.14
781.662	42.87
781.841	43.09
782.019	43.6
782.197	44.55
782.375	44.82
782.553	45.42
782.731	46.48
782.909	45.92
783.087	46.09
783.265	45.77
783.443	45.03
783.621	45.09
783.799	44.61
783.977	43.36
784.155	42.16
784.333	41.46
784.511	41.21
784.689	41.02
784.867	41.72
785.045	41.8
785.223	41.14
785.4	41.64
785.578	40.8
785.756	41.37
785.934	41.76
786.112	41.51
786.289	41.58
786.467	41.33
786.645	40.84
786.823	39.71
787	39.53
787.178	39.08
787.356	39.52
787.533	39.96
787.711	39.82
787.889	39.99
788.066	40.48
788.244	40.29
788.421	40.84
788.599	40.72
788.776	41.14
788.954	40.39
789.131	41.9
789.309	41.38
789.486	41.67
789.664	41.15
789.841	42.05
790.019	42.25
790.196	43.59
790.373	42.87
790.551	43.48
790.728	43.29
790.906	44.22
791.083	42.99
791.26	43.43
791.437	42.9
791.615	42.73
791.792	41.38
791.969	40.99
792.146	40.26
792.324	41.04
792.501	40.18
792.678	41.18
792.855	40.46
793.032	40.98
793.209	40.2
793.387	40.4
793.564	40.42
793.741	40.95
793.918	41.75
794.095	41.16
794.272	40.4
794.449	41.14
794.626	41.32
794.803	41.19
794.98	41.1
795.157	41.32
795.334	41.4
795.511	41
795.688	40.46
795.864	39.75
796.041	39.92
796.218	40.06
796.395	40.04
796.572	39.94
796.749	40.41
796.925	38.94
797.102	38.88
797.279	38.45
797.456	38.64
797.632	39.32
797.809	39.37
797.986	39.86
798.162	39.5
798.339	38.46
798.516	38.04
798.692	38.2
798.869	39.54
799.046	39.47
799.222	40.01
799.399	40.17
799.575	39.07
799.752	39.69
799.928	39.18
800.105	38.84
800.281	40.26
800.458	40.96
800.634	40.89
800.811	41.15
800.987	41.73
801.163	40.45
801.34	40.89
801.516	41.21
801.692	40.58
801.869	40.66
802.045	42.36
802.221	41.71
802.398	40.86
802.574	40.83
802.75	40.39
802.926	40.13
803.103	42.12
803.279	41.05
803.455	41.93
803.631	41.77
803.807	42.35
803.983	41.2
804.16	40.75
804.336	40.55
804.512	40.66
804.688	40.02
804.864	39.97
805.04	38.14
805.216	39.58
805.392	38.99
805.568	39.63
805.744	39.27
805.92	38.88
806.096	39.16
806.272	38.83
806.448	38.33
806.623	38.64
806.799	39.22
806.975	39.27
807.151	37.64
807.327	38.01
807.503	37.21
807.678	37.79
807.854	37.93
808.03	38.25
808.206	38.01
808.381	38.28
808.557	38.59
808.733	39.13
808.908	40.08
809.084	41.2
809.26	41.88
809.435	42.04
809.611	40.72
809.787	40.58
809.962	39.88
810.138	40.59
810.313	39.71
810.489	40.09
810.664	40.12
810.84	40.44
811.015	39.83
811.191	39.6
811.366	39.8
811.542	41.13
811.717	41.51
811.892	41.06
812.068	40.94
812.243	40.2
812.419	40.1
812.594	37.94
812.769	37.31
812.944	37.06
813.12	36.52
813.295	37.48
813.47	37.32
813.645	37.33
813.821	37.82
813.996	36.71
814.171	38.11
814.346	37.36
814.521	38.05
814.697	37.38
814.872	37.66
815.047	37.31
815.222	35.48
815.397	34.86
815.572	34.39
815.747	35.59
815.922	36.03
816.097	35.22
816.272	35.95
816.447	35.76
816.622	34.67
816.797	35.17
816.972	35.23
817.147	35.85
817.322	35.06
817.496	34.02
817.671	32.93
817.846	32.9
818.021	33.56
818.196	32.05
818.371	32.4
818.545	34.45
818.72	33.16
818.895	33.02
819.069	34.46
819.244	34.6
819.419	35.57
819.594	34.77
819.768	34.13
819.943	33.94
820.117	34.45
820.292	33.81
820.467	32.76
820.641	32.69
820.816	31.85
820.99	31.09
821.165	30.78
821.339	30.77
821.514	31.07
821.688	31.02
821.863	30.81
822.037	30.75
822.212	30.65
822.386	30.8
822.56	30.89
822.735	30.81
822.909	30.6
823.084	30.69
823.258	30.52
823.432	30.39
823.606	30.49
823.781	30.58
823.955	30.72
824.129	30.73
824.303	30.71
824.478	30.49
824.652	30.84
824.826	31.19
825	31.42
825.174	31.48
825.348	31.48
825.523	31.63
825.697	31.73
825.871	31.85
826.045	32.04
826.219	31.89
826.393	31.87
826.567	31.96
826.741	31.89
826.915	31.58
827.089	31.81
827.263	31.75
827.437	31.56
827.611	31.76
827.784	31.06
827.958	30.86
828.132	30.85
828.306	31.55
828.48	30.76
828.654	30.76
828.827	31.06
829.001	31.24
829.175	31.29
829.349	30.67
829.522	30.95
829.696	31.9
829.87	32.66
830.044	32.83
830.217	32.26
830.391	34.48
830.565	34.77
830.738	34.54
830.912	33.92
831.085	34.24
831.259	35.92
831.432	33.78
831.606	33.3
831.779	33.08
831.953	34.12
832.126	33.8
832.3	31.8
832.473	31.55
832.647	31.6
832.82	32.11
832.994	30.58
833.167	30.9
833.34	31.85
833.514	31.47
833.687	30.97
833.86	30.67
834.034	30.4
834.207	31.25
834.38	30.85
834.553	31.35
834.727	31.31
834.9	32.23
835.073	31.62
835.246	31.37
835.419	32.06
835.593	32.37
835.766	31.68
835.939	32.33
836.112	32.6
836.285	32.43
836.458	31.51
836.631	31.16
836.804	31.59
836.977	33.21
837.15	33.84
837.323	33.73
837.496	34.28
837.669	34.78
837.842	34.43
838.015	32.5
838.188	33.66
838.361	34.43
838.533	34.11
838.706	34.42
838.879	33.12
839.052	31.96
839.225	33.2
839.398	34.06
839.57	34.38
839.743	35.62
839.916	37.68
840.088	38.62
840.261	38.72
840.434	38.12
840.607	38.01
840.779	39.02
840.952	39.21
841.124	37.2
841.297	35.81
841.47	35.1
841.642	33.8
841.815	34.48
841.987	32.89
842.16	32.27
842.332	32.64
842.505	31.58
842.677	30.4
842.85	30.27
843.022	30.29
843.194	31.4
843.367	32.92
843.539	35.56
843.712	34.53
843.884	37.4
844.056	40.03
844.229	39.64
844.401	40.08
844.573	42.5
844.745	45.04
844.918	46.71
845.09	46.51
845.262	46.78
845.434	45.73
845.606	46.89
845.779	44.09
845.951	41.95
846.123	43.7
846.295	45.21
846.467	42.09
846.639	41.54
846.811	42.31
846.983	42.63
847.155	41.91
847.327	40.42
847.499	39.56
847.671	41.9
847.843	45.13
848.015	44.44
848.187	42.53
848.359	44.8
848.531	43.65
848.703	44.71
848.875	46.75
849.047	45.64
849.218	46.34
849.39	46.19
849.562	47.09
849.734	43.71
849.905	44.93
850.077	43.75
850.249	44.04
850.421	45.03
850.592	43.02
850.764	40.23
850.936	42.73
851.107	41.77
851.279	42.58
851.451	39.93
851.622	37.74
851.794	35.94
851.965	38.48
852.137	36.4
852.308	34.7
852.48	35.88
852.651	37.58
852.823	34.86
852.994	33.53
853.166	31.82
853.337	33.82
853.509	36.79
853.68	38.09
853.851	38.36
854.023	39.7
854.194	39.4
854.365	38.15
854.537	36.02
854.708	34.71
854.879	35.33
855.05	38.3
855.222	37.8
855.393	39.43
855.564	37.55
855.735	36.1
855.906	32.29
856.078	34.29
856.249	34.72
856.42	34.38
856.591	35.82
856.762	35.85
856.933	35
857.104	34.5
857.275	30.99
857.446	29.85
857.617	27.28
857.788	30.53
857.959	27.74
858.13	27.44
858.301	28.88
858.472	32.9
858.643	32.95
858.814	29.64
858.985	28.8
859.155	28.99
859.326	31.29
859.497	34.06
859.668	34.49
859.839	37.47
860.009	34.01
860.18	31.98
860.351	29.71
860.522	35.05
860.692	36.23
860.863	36.62
861.034	36.48
861.204	37.98
861.375	35.08
861.546	34.75
861.716	32.71
861.887	35.71
862.057	39.3
862.228	44.16
862.398	41.87
862.569	42.08
862.739	41.99
862.91	43.6
863.08	40.84
863.251	44.81
863.421	42.11
863.592	40.72
863.762	45.69
863.932	43.55
864.103	37.85
864.273	34.3
864.443	31.94
864.614	30.93
864.784	31.3
864.954	33.49
865.125	35.6
865.295	37.09
865.465	40.87
865.635	34.56
865.805	36.42
865.976	38.76
866.146	39.21
866.316	41.04
866.486	39.95
866.656	40.75
866.826	44.04
866.996	43.81
867.166	45.25
867.336	41.45
867.506	46.7
867.676	44.57
867.846	40.4
868.016	38.91
868.186	37.25
868.356	37.32
868.526	37.65
868.696	36.07
868.866	37.45
869.036	38.27
869.206	37.71
869.376	35.39
869.545	30.82
869.715	33.88
869.885	35.03
870.055	34.72
870.224	36.76
870.394	33.08
870.564	26.75
870.734	23.65
870.903	20.06
871.073	27.28
871.243	23.61
871.412	29.34
871.582	30.04
871.751	31.23
871.921	30.76
872.091	34.95
872.26	37.87
872.43	42.64
872.599	38.09
872.769	38.8
872.938	38.88
873.108	43.72
873.277	41.45
873.446	39.27
873.616	38.73
873.785	38.07
873.955	31.8
874.124	30.25
874.293	25.99
874.463	31.78
874.632	29.47
874.801	27.87
874.971	27.29
875.14	29.33
875.309	29.38
875.478	30.38
875.647	30.67
875.817	30.8
875.986	34.17
876.155	39.2
876.324	38.06
876.493	39.2
876.662	37.04
876.831	33.2
877	30.67
877.17	30.62
877.339	31.33
877.508	30.79
877.677	34.34
877.846	29.11
878.015	24.8
878.184	25.03
878.352	25.96
878.521	25.08
878.69	26.72
878.859	28.49
879.028	31.31
879.197	28.75
879.366	27.92
879.534	29.67
879.703	29.61
879.872	29.11
880.041	28.35
880.21	27.29
880.378	27.31
880.547	26.21
880.716	25.29
880.884	24.61
881.053	24.85
881.222	24.32
881.39	23.71
881.559	23.76
881.727	24.68
881.896	24.22
882.065	24.04
882.233	24.13
882.402	23.99
882.57	24.86
882.739	24.2
882.907	24.61
883.076	25.08
883.244	24.34
883.412	24.93
883.581	24.78
883.749	25.28
883.918	25.6
884.086	25.82
884.254	25.76
884.423	24.78
884.591	25.11
884.759	24.77
884.927	25.2
885.096	26.16
885.264	24.7
885.432	23.6
885.6	22.9
885.769	22.06
885.937	20.57
886.105	21.44
886.273	23.12
886.441	24.16
886.609	23.23
886.777	23.72
886.945	24.14
887.113	25.68
887.281	28.06
887.449	29.69
887.617	29.64
887.785	31.12
887.953	31.41
888.121	33.52
888.289	33.17
888.457	33.92
888.625	30.98
888.793	29.35
888.961	30.69
889.129	32.01
889.296	29.17
889.464	31.24
889.632	31.09
889.8	31.93
889.967	26.75
890.135	28.06
