Data from 2938709__Reflection_03.txt Node
Date: Tue Mar 17 19:38:08 EDT 2015
User: robert
Spectrometer: USB4E03002
Autoset integration time: false
Trigger mode: 4
Integration Time (sec): 1.000000E-1
Scans to average: 10
Electric dark correction enabled: false
Nonlinearity correction enabled: false
Boxcar width: 5
Stray light correction enabled: false
XAxis mode: Wavelengths
Stop averaging: false
Number of Pixels in Spectrum: 3648
>>>>>Begin Spectral Data<<<<<
177.575	121.32
177.794	106.25
178.014	134.18
178.233	141.99
178.452	100
178.672	140.72
178.891	191.96
179.11	218.64
179.33	154.49
179.549	284.77
179.768	312.35
179.987	344.29
180.207	-2221.74
180.426	412.66
180.645	211.93
180.864	184.49
181.084	164.85
181.303	116.05
181.522	120.63
181.741	136.77
181.96	112.8
182.179	115.76
182.398	81.64
182.618	126.98
182.837	131.43
183.056	156.27
183.275	228.65
183.494	215.99
183.713	207.33
183.932	158.57
184.151	267.46
184.37	325.83
184.589	234.82
184.808	287.93
185.027	333.33
185.246	276.34
185.465	415.23
185.684	321.11
185.903	191.63
186.122	305.38
186.341	344.09
186.56	279.63
186.779	224.84
186.998	325.94
187.216	295.76
187.435	253.57
187.654	223.31
187.873	237.79
188.092	251.1
188.311	819.74
188.53	325.57
188.748	311.85
188.967	177.33
189.186	171.99
189.405	141.2
189.623	134.24
189.842	126.49
190.061	153.66
190.28	127.86
190.498	220.47
190.717	157.55
190.936	253.55
191.154	1121.21
191.373	-789.83
191.592	550.36
191.81	1732.5
192.029	1700
192.248	24100
192.466	-831.58
192.685	-204.55
192.904	-788.89
193.122	-876.92
193.341	-2182.14
193.559	10316.67
193.778	2118.52
193.996	-650.94
194.215	-446.91
194.433	-151.59
194.652	-618.75
194.87	1038
195.089	612.15
195.307	821.52
195.526	2083.87
195.744	2080.77
195.963	549.46
196.181	739.47
196.399	779
196.618	3159.09
196.836	843.43
197.055	416.83
197.273	357.53
197.491	226.75
197.71	182.83
197.928	149.13
198.146	152.31
198.365	144.27
198.583	129.31
198.801	100.19
199.019	98.42
199.238	98.8
199.456	102.91
199.674	129.6
199.892	175
200.111	167.99
200.329	213.46
200.547	242.98
200.765	1878.95
200.983	1000
201.202	-238.39
201.42	-60.56
201.638	5.38
201.856	22.67
202.074	73.75
202.292	69.26
202.51	63.98
202.728	88.36
202.946	21.29
203.165	344.44
203.383	1940
203.601	5
203.819	17.24
204.037	413.51
204.255	-735.9
204.473	1016
204.691	1069.57
204.909	476.58
205.127	456.02
205.345	534.65
205.562	-1355.56
205.78	522.14
205.998	250.75
206.216	170
206.434	224.23
206.652	157.53
206.87	146.27
207.088	129.45
207.306	129.17
207.523	116.7
207.741	135.17
207.959	89.67
208.177	117.94
208.395	90.26
208.612	96.22
208.83	84.79
209.048	57.89
209.266	92.61
209.483	94.04
209.701	104.26
209.919	84.5
210.136	-41.75
210.354	320.45
210.572	30.51
210.79	-1709.09
211.007	182.24
211.225	207.51
211.442	138.11
211.66	52.49
211.878	58.85
212.095	-51.88
212.313	-20.35
212.53	-39.16
212.748	-56.56
212.966	-72.09
213.183	-82.95
213.401	-92.95
213.618	-68.35
213.836	-52.19
214.053	-51.12
214.271	-39.23
214.488	96.83
214.705	63.85
214.923	72.19
215.14	77.16
215.358	83.63
215.575	89.73
215.793	110.02
216.01	91.44
216.227	106.8
216.445	88.45
216.662	75.55
216.879	105.39
217.097	99
217.314	142.15
217.531	80.51
217.749	78.66
217.966	67.92
218.183	60.5
218.4	51.75
218.618	33.08
218.835	19.87
219.052	26.45
219.269	13.15
219.487	11.99
219.704	-11.54
219.921	1.89
220.138	-1.44
220.355	-11.86
220.572	1.3
220.79	10.79
221.007	21.38
221.224	30.53
221.441	22.4
221.658	30.39
221.875	33.69
222.092	38.58
222.309	35.64
222.526	36.57
222.743	39.54
222.96	38.59
223.177	38.47
223.394	36.02
223.611	32.18
223.828	32.15
224.045	25.44
224.262	22.88
224.479	22.02
224.696	26.91
224.913	29.59
225.13	32.92
225.347	28.08
225.564	27.81
225.781	25.15
225.997	20.86
226.214	17.97
226.431	14.24
226.648	11.87
226.865	12.85
227.082	8.81
227.298	6.32
227.515	3.9
227.732	6.33
227.949	5.99
228.165	5.15
228.382	5.51
228.599	5.56
228.816	6.73
229.032	6.17
229.249	5.66
229.466	6.13
229.682	5.9
229.899	5.29
230.116	5.11
230.332	4.67
230.549	4.68
230.765	4.78
230.982	4.9
231.199	4.29
231.415	4.48
231.632	3.72
231.848	2.87
232.065	1.72
232.281	3.37
232.498	2.65
232.714	3.01
232.931	3.69
233.147	2.94
233.364	1.8
233.58	1.52
233.797	3.59
234.013	3.3
234.23	4.75
234.446	6.55
234.662	5
234.879	3.97
235.095	4.06
235.312	4.59
235.528	6.86
235.744	8.5
235.961	8.45
236.177	6.37
236.393	6.6
236.61	5.29
236.826	3.25
237.042	5.37
237.258	6.4
237.475	5.06
237.691	3.22
237.907	2.44
238.123	1.97
238.339	0.16
238.556	1.79
238.772	2.47
238.988	2.4
239.204	3.24
239.42	4.63
239.636	4.5
239.853	4.27
240.069	5.29
240.285	4.28
240.501	3.87
240.717	5.16
240.933	5.81
241.149	4.96
241.365	4.53
241.581	4.61
241.797	3.56
242.013	2.92
242.229	2.93
242.445	2.74
242.661	3.08
242.877	2.74
243.093	2.87
243.309	1.54
243.525	2.02
243.741	2.47
243.957	2.64
244.173	2.99
244.388	3.81
244.604	4.53
244.82	4.89
245.036	4.62
245.252	5.03
245.468	5.12
245.683	5.24
245.899	4.9
246.115	4.98
246.331	4.86
246.547	4.57
246.762	3.99
246.978	3.96
247.194	3.84
247.409	4
247.625	4.1
247.841	4.07
248.057	4.46
248.272	4.34
248.488	3.99
248.703	3.89
248.919	4.17
249.135	4.96
249.35	4.96
249.566	4.51
249.782	4.22
249.997	3.93
250.213	3.48
250.428	3
250.644	3.33
250.859	3.33
251.075	3.53
251.29	3.3
251.506	2.87
251.721	3.09
251.937	4.15
252.152	4.27
252.368	4.02
252.583	4.11
252.798	4.19
253.014	4.2
253.229	4.25
253.445	3.81
253.66	3.8
253.875	3.87
254.091	4.2
254.306	3.61
254.521	3.21
254.737	4.21
254.952	4.68
255.167	4.53
255.383	4.38
255.598	4.5
255.813	3.67
256.028	3.56
256.244	3.11
256.459	2.11
256.674	2.51
256.889	2.63
257.104	1.98
257.32	1.42
257.535	1.92
257.75	2.03
257.965	1.81
258.18	2.49
258.395	2.3
258.61	2.45
258.826	2.78
259.041	2.7
259.256	2.67
259.471	2.64
259.686	2.68
259.901	2.51
260.116	2.28
260.331	2.38
260.546	2.27
260.761	2.4
260.976	2.21
261.191	2.1
261.406	2.17
261.621	2.21
261.836	2.54
262.05	2.13
262.265	1.86
262.48	2.24
262.695	2.63
262.91	3.15
263.125	3.47
263.34	3.37
263.555	3.62
263.769	2.86
263.984	3.03
264.199	2.61
264.414	3.2
264.629	3.2
264.843	3.15
265.058	2.98
265.273	2.78
265.488	2.35
265.702	2.58
265.917	2.76
266.132	3.63
266.346	3.28
266.561	3.61
266.776	3.93
266.99	3.9
267.205	3.76
267.42	3.45
267.634	3.44
267.849	3.17
268.063	3.54
268.278	2.86
268.492	2.52
268.707	2.71
268.922	2.23
269.136	2.01
269.351	2.15
269.565	2.18
269.78	2.11
269.994	1.98
270.209	2.19
270.423	2.04
270.637	2.57
270.852	2.69
271.066	2.81
271.281	3.04
271.495	2.82
271.709	3.01
271.924	3.07
272.138	3.43
272.353	3.62
272.567	3.71
272.781	3.57
272.996	3.28
273.21	3.46
273.424	3.48
273.638	3.29
273.853	3.21
274.067	3.24
274.281	3.49
274.495	3.01
274.71	2.77
274.924	2.55
275.138	2.74
275.352	2.97
275.566	2.49
275.781	2.04
275.995	2.09
276.209	2.22
276.423	2.27
276.637	1.69
276.851	2.09
277.065	2.13
277.279	2.05
277.493	2.09
277.707	1.89
277.921	2.18
278.135	2.42
278.349	2.46
278.563	2.54
278.777	2.23
278.991	2.57
279.205	1.93
279.419	1.67
279.633	1.26
279.847	0.84
280.061	0.9
280.275	0.79
280.489	1.1
280.703	0.98
280.917	1.29
281.131	0.99
281.344	0.66
281.558	1.18
281.772	1.54
281.986	1.72
282.2	1.95
282.414	2.21
282.627	2.37
282.841	1.89
283.055	1.96
283.269	1.45
283.482	1.72
283.696	2.06
283.91	1.97
284.123	1.54
284.337	1.8
284.551	1.97
284.764	1.57
284.978	1.27
285.192	1.61
285.405	1.8
285.619	1.97
285.833	2.08
286.046	2.2
286.26	2.24
286.473	2.89
286.687	2.9
286.9	2.9
287.114	2.89
287.327	2.96
287.541	2.73
287.754	2.78
287.968	2.65
288.181	2.44
288.395	2.48
288.608	2.44
288.822	2.12
289.035	2.23
289.248	2.15
289.462	2.68
289.675	2.71
289.889	3.1
290.102	2.87
290.315	3.14
290.529	3.55
290.742	3.41
290.955	3.7
291.169	3.56
291.382	3.59
291.595	3.54
291.808	3.34
292.022	3.19
292.235	3.15
292.448	3.15
292.661	3.27
292.875	2.74
293.088	2.56
293.301	2.05
293.514	2.03
293.727	1.74
293.94	2.06
294.153	1.85
294.367	2.25
294.58	2.35
294.793	2.34
295.006	2.42
295.219	2.74
295.432	2.44
295.645	2.58
295.858	2.81
296.071	3.02
296.284	3.09
296.497	3.26
296.71	3.19
296.923	2.8
297.136	2.94
297.349	2.93
297.562	2.78
297.775	3.2
297.988	3.42
298.201	3.33
298.414	3.4
298.626	3.25
298.839	3.15
299.052	3.15
299.265	3.34
299.478	3.48
299.691	3.67
299.903	3.95
300.116	3.96
300.329	3.91
300.542	3.91
300.755	3.76
300.967	3.36
301.18	3.58
301.393	3.7
301.605	3.62
301.818	3.3
302.031	3.23
302.243	3.12
302.456	3.19
302.669	3.21
302.881	3.29
303.094	3.31
303.307	3.25
303.519	3.24
303.732	3.09
303.944	3.49
304.157	3.95
304.37	3.84
304.582	3.94
304.795	4.12
305.007	4.08
305.22	3.79
305.432	3.68
305.645	4.39
305.857	4.42
306.069	4.53
306.282	4.55
306.494	4.17
306.707	3.97
306.919	4.02
307.132	3.94
307.344	3.64
307.556	4.02
307.769	4.62
307.981	4.63
308.193	4.46
308.406	4.67
308.618	4.67
308.83	4.6
309.043	4.82
309.255	4.81
309.467	4.87
309.679	4.92
309.892	5.18
310.104	4.82
310.316	4.6
310.528	4.59
310.74	4.6
310.953	4.5
311.165	4.73
311.377	4.73
311.589	4.47
311.801	3.99
312.013	3.93
312.225	3.65
312.437	3.65
312.649	3.9
312.862	3.77
313.074	3.48
313.286	3.77
313.498	3.82
313.71	3.88
313.922	4.36
314.134	4.61
314.346	4.82
314.558	5.01
314.77	5.18
314.982	4.83
315.193	5.13
315.405	5.31
315.617	4.77
315.829	4.75
316.041	4.28
316.253	4.15
316.465	4.4
316.677	4.68
316.888	4.39
317.1	4.54
317.312	4.81
317.524	4.55
317.736	4.43
317.947	4.49
318.159	4.66
318.371	5.02
318.583	5.11
318.794	5.22
319.006	4.94
319.218	5.06
319.43	5.18
319.641	4.91
319.853	5.48
320.064	5.85
320.276	5.9
320.488	5.83
320.699	6.02
320.911	5.99
321.123	6.21
321.334	6.35
321.546	6.59
321.757	6.14
321.969	6.56
322.18	6.52
322.392	6.34
322.603	6.55
322.815	6.21
323.026	6.15
323.238	6.15
323.449	5.85
323.661	6.16
323.872	6.09
324.083	6.27
324.295	6.09
324.506	5.96
324.718	5.92
324.929	6
325.14	6.49
325.352	6.7
325.563	7.02
325.774	7.07
325.986	7.1
326.197	7.25
326.408	7.79
326.62	7.99
326.831	7.98
327.042	8.56
327.253	8.53
327.464	8.46
327.676	8.28
327.887	8.37
328.098	8.53
328.309	8.63
328.52	8.73
328.732	8.2
328.943	8.44
329.154	8.88
329.365	8.24
329.576	8.6
329.787	8.31
329.998	8.58
330.209	8.59
330.42	8.57
330.631	8.41
330.842	8.75
331.053	8.95
331.264	8.31
331.475	8.24
331.686	8.67
331.897	8.27
332.108	8.84
332.319	9.08
332.53	8.59
332.741	8.62
332.952	8.82
333.163	8.81
333.374	8.99
333.585	9.41
333.795	9.43
334.006	9.06
334.217	9.52
334.428	9.48
334.639	9.6
334.849	10
335.06	10.02
335.271	10.09
335.482	10.02
335.692	10.19
335.903	10.26
336.114	10.07
336.325	10.32
336.535	10.39
336.746	10.43
336.957	10.27
337.167	10.31
337.378	10.36
337.589	10.29
337.799	9.84
338.01	9.95
338.22	9.87
338.431	9.68
338.642	9.97
338.852	9.68
339.063	9.8
339.273	9.77
339.484	9.72
339.694	9.58
339.905	9.55
340.115	10.08
340.326	9.86
340.536	9.75
340.746	9.88
340.957	9.89
341.167	10
341.378	9.77
341.588	9.58
341.799	9.54
342.009	9.46
342.219	9.33
342.43	9.12
342.64	8.77
342.85	8.96
343.061	8.93
343.271	8.63
343.481	8.35
343.691	8.23
343.902	8.2
344.112	8.38
344.322	8.34
344.532	8.39
344.743	8.09
344.953	8.3
345.163	8.23
345.373	8.34
345.583	8.32
345.793	8.63
346.004	8.72
346.214	8.81
346.424	8.58
346.634	8.96
346.844	8.89
347.054	9.12
347.264	9.34
347.474	9.27
347.684	9.34
347.894	9.52
348.104	9.38
348.314	9.14
348.524	9.31
348.734	9.2
348.944	8.99
349.154	9.25
349.364	9.35
349.574	8.91
349.784	9.08
349.994	9.01
350.204	8.76
350.413	8.84
350.623	9.05
350.833	8.69
351.043	8.8
351.253	8.82
351.463	8.67
351.672	8.49
351.882	8.84
352.092	8.63
352.302	8.62
352.511	8.86
352.721	8.92
352.931	9.08
353.141	9.57
353.35	9.38
353.56	9.3
353.77	9.19
353.979	9.15
354.189	9.28
354.399	9.13
354.608	9.33
354.818	9.46
355.027	9.33
355.237	9.25
355.447	8.9
355.656	8.99
355.866	8.84
356.075	8.91
356.285	9
356.494	8.7
356.704	8.95
356.913	8.86
357.123	8.61
357.332	8.45
357.542	8.49
357.751	8.6
357.96	8.57
358.17	8.74
358.379	8.66
358.589	8.61
358.798	8.59
359.007	8.68
359.217	8.74
359.426	8.67
359.635	8.9
359.845	9.09
360.054	9.11
360.263	9.07
360.472	9.12
360.682	9.33
360.891	9.29
361.1	9.11
361.309	9.04
361.519	8.9
361.728	8.79
361.937	8.67
362.146	8.32
362.355	8.22
362.564	8.26
362.774	8.21
362.983	8.06
363.192	8.03
363.401	8.38
363.61	8.33
363.819	8.38
364.028	8.37
364.237	8.16
364.446	8.29
364.655	8.18
364.864	8
365.073	7.69
365.282	7.61
365.491	7.58
365.7	7.31
365.909	7.23
366.118	7.19
366.327	7.18
366.536	7.52
366.745	7.5
366.954	7.72
367.162	7.88
367.371	8.03
367.58	7.84
367.789	7.92
367.998	7.91
368.207	7.91
368.415	8.07
368.624	8.26
368.833	8.01
369.042	7.94
369.25	8.01
369.459	8.01
369.668	8.4
369.877	8.54
370.085	8.69
370.294	8.82
370.503	8.58
370.711	8.35
370.92	8.39
371.129	8.5
371.337	8.3
371.546	8.02
371.754	8.01
371.963	7.75
372.171	7.95
372.38	7.86
372.589	7.97
372.797	8.22
373.006	7.99
373.214	7.87
373.423	8.01
373.631	8.23
373.84	8.22
374.048	8.38
374.256	8.33
374.465	8.35
374.673	8.19
374.882	7.96
375.09	7.69
375.298	7.8
375.507	7.69
375.715	7.42
375.923	7.44
376.132	7.6
376.34	7.3
376.548	7.49
376.757	7.29
376.965	7.4
377.173	7.4
377.381	7.73
377.59	8
377.798	8.09
378.006	8.31
378.214	8.46
378.423	8.46
378.631	8.54
378.839	8.42
379.047	8.52
379.255	8.6
379.463	8.47
379.671	8.43
379.879	8.28
380.088	8.2
380.296	8.11
380.504	7.76
380.712	7.48
380.92	7.6
381.128	7.45
381.336	7.34
381.544	7.12
381.752	7.06
381.96	6.85
382.168	6.75
382.376	7.02
382.584	6.95
382.791	7.06
382.999	7.24
383.207	7.15
383.415	7.26
383.623	7.3
383.831	7.27
384.039	7.42
384.247	7.5
384.454	7.43
384.662	6.97
384.87	7.08
385.078	7.08
385.285	6.91
385.493	6.75
385.701	6.63
385.909	6.68
386.116	6.61
386.324	6.66
386.532	6.45
386.739	6.58
386.947	6.8
387.155	6.67
387.362	6.67
387.57	6.52
387.778	6.58
387.985	6.48
388.193	6.37
388.4	6.38
388.608	6.37
388.816	6.43
389.023	6.42
389.231	6.29
389.438	6.29
389.646	6.13
389.853	6.44
390.061	6.49
390.268	6.62
390.475	6.69
390.683	6.8
390.89	6.84
391.098	6.91
391.305	6.81
391.512	6.8
391.72	6.98
391.927	7.13
392.135	6.98
392.342	6.86
392.549	6.83
392.756	6.81
392.964	6.82
393.171	6.67
393.378	6.66
393.586	6.73
393.793	6.8
394	6.57
394.207	6.62
394.414	6.73
394.622	6.69
394.829	6.75
395.036	6.57
395.243	6.48
395.45	6.32
395.657	6.33
395.864	6.44
396.072	6.33
396.279	6.4
396.486	6.32
396.693	6.14
396.9	6.35
397.107	6.15
397.314	6.22
397.521	6.32
397.728	6.39
397.935	6.04
398.142	5.86
398.349	6.02
398.556	5.81
398.763	5.71
398.97	5.91
399.177	5.88
399.383	5.82
399.59	5.82
399.797	5.55
400.004	5.71
400.211	6.01
400.418	5.93
400.625	5.72
400.831	5.81
401.038	5.88
401.245	5.75
401.452	5.56
401.658	5.68
401.865	5.58
402.072	5.68
402.279	5.65
402.485	5.58
402.692	5.61
402.899	5.71
403.105	5.85
403.312	5.73
403.519	5.8
403.725	5.81
403.932	5.74
404.138	5.86
404.345	5.94
404.552	5.9
404.758	6.01
404.965	6.03
405.171	5.96
405.378	5.85
405.584	6.1
405.791	6.08
405.997	6.15
406.204	6.3
406.41	6.41
406.617	6.35
406.823	6.32
407.029	6.12
407.236	6.17
407.442	6.24
407.649	6.25
407.855	5.92
408.061	5.83
408.268	5.79
408.474	5.77
408.68	5.56
408.887	5.57
409.093	5.59
409.299	5.77
409.505	5.79
409.712	5.74
409.918	5.6
410.124	5.83
410.33	5.71
410.537	5.73
410.743	5.79
410.949	5.87
411.155	5.75
411.361	5.63
411.567	5.49
411.773	5.28
411.98	5.36
412.186	5.5
412.392	5.32
412.598	5.37
412.804	5.29
413.01	5.25
413.216	5.23
413.422	5.37
413.628	5.59
413.834	5.65
414.04	5.85
414.246	5.81
414.452	5.81
414.658	5.92
414.864	5.94
415.07	6.08
415.275	5.98
415.481	5.98
415.687	5.87
415.893	5.85
416.099	5.81
416.305	5.84
416.511	5.8
416.716	5.78
416.922	5.72
417.128	5.75
417.334	5.64
417.539	5.61
417.745	5.64
417.951	5.73
418.157	5.72
418.362	5.74
418.568	5.66
418.774	5.67
418.979	5.72
419.185	5.74
419.391	5.8
419.596	5.81
419.802	5.85
420.008	5.81
420.213	6.41
420.419	6.34
420.624	6.39
420.83	6.3
421.035	6.27
421.241	6.22
421.446	6.21
421.652	6.17
421.857	6.16
422.063	6.15
422.268	6.14
422.474	5.56
422.679	5.61
422.885	5.57
423.09	5.66
423.295	5.73
423.501	5.7
423.706	5.77
423.911	5.74
424.117	5.65
424.322	5.62
424.527	5.67
424.733	5.65
424.938	5.64
425.143	5.64
425.349	5.58
425.554	5.51
425.759	5.52
425.964	5.46
426.169	5.52
426.375	5.61
426.58	5.68
426.785	5.67
426.99	5.72
427.195	5.65
427.4	5.57
427.605	5.58
427.811	5.69
428.016	5.64
428.221	5.57
428.426	5.55
428.631	5.66
428.836	5.54
429.041	5.56
429.246	5.59
429.451	5.7
429.656	5.74
429.861	5.81
430.066	5.8
430.271	5.9
430.476	5.98
430.681	5.89
430.886	5.78
431.09	5.79
431.295	5.64
431.5	5.55
431.705	5.48
431.91	5.44
432.115	5.43
432.32	5.41
432.524	5.46
432.729	5.38
432.934	5.42
433.139	5.42
433.343	5.48
433.548	5.38
433.753	5.42
433.958	5.33
434.162	5.36
434.367	5.41
434.572	5.38
434.776	5.37
434.981	5.46
435.186	5.44
435.39	5.5
435.595	5.47
435.799	5.68
436.004	5.69
436.209	5.76
436.413	5.78
436.618	5.76
436.822	5.75
437.027	5.72
437.231	5.62
437.436	5.61
437.64	5.7
437.845	5.74
438.049	5.7
438.253	5.73
438.458	5.81
438.662	5.89
438.867	5.88
439.071	5.92
439.275	5.84
439.48	5.82
439.684	5.77
439.888	5.68
440.093	5.61
440.297	5.6
440.501	5.48
440.706	5.56
440.91	5.56
441.114	5.55
441.318	5.58
441.523	5.64
441.727	5.67
441.931	5.8
442.135	5.84
442.339	5.86
442.543	5.92
442.748	6.04
442.952	5.97
443.156	5.84
443.36	5.82
443.564	5.76
443.768	5.71
443.972	5.76
444.176	5.67
444.38	5.72
444.584	5.78
444.788	5.79
444.992	5.76
445.196	5.77
445.4	5.87
445.604	5.88
445.808	5.85
446.012	5.76
446.216	5.75
446.42	5.77
446.624	5.73
446.828	5.65
447.032	5.65
447.235	5.63
447.439	5.68
447.643	5.58
447.847	5.56
448.051	5.54
448.254	5.67
448.458	5.62
448.662	5.58
448.866	5.56
449.069	5.66
449.273	5.58
449.477	5.66
449.681	5.55
449.884	5.67
450.088	5.77
450.292	5.79
450.495	5.74
450.699	5.8
450.902	5.79
451.106	5.86
451.31	5.79
451.513	5.77
451.717	5.71
451.92	5.78
452.124	5.73
452.327	5.6
452.531	5.59
452.734	5.6
452.938	5.54
453.141	5.56
453.345	5.42
453.548	5.4
453.752	5.43
453.955	5.43
454.158	5.38
454.362	5.3
454.565	5.39
454.769	5.41
454.972	5.33
455.175	5.49
455.379	5.49
455.582	5.69
455.785	5.63
455.988	5.75
456.192	5.85
456.395	5.86
456.598	5.99
456.801	5.92
457.005	5.91
457.208	6.1
457.411	5.99
457.614	6.04
457.817	5.96
458.021	5.98
458.224	5.85
458.427	5.77
458.63	5.78
458.833	5.73
459.036	5.71
459.239	5.74
459.442	5.71
459.645	5.73
459.848	5.66
460.051	5.5
460.254	5.57
460.457	5.61
460.66	5.63
460.863	5.61
461.066	5.58
461.269	5.7
461.472	5.65
461.675	5.61
461.878	5.52
462.081	5.58
462.284	5.73
462.486	5.66
462.689	5.63
462.892	5.64
463.095	5.66
463.298	5.66
463.5	5.49
463.703	5.51
463.906	5.54
464.109	5.52
464.311	5.47
464.514	5.5
464.717	5.55
464.92	5.5
465.122	5.49
465.325	5.45
465.528	5.52
465.73	5.73
465.933	5.78
466.135	5.79
466.338	5.88
466.541	5.91
466.743	5.9
466.946	5.94
467.148	6
467.351	5.95
467.553	5.99
467.756	5.98
467.958	5.87
468.161	5.87
468.363	5.84
468.566	5.85
468.768	5.85
468.971	5.84
469.173	5.8
469.375	5.75
469.578	5.72
469.78	5.66
469.983	5.64
470.185	5.69
470.387	5.68
470.59	5.61
470.792	5.57
470.994	5.51
471.196	5.56
471.399	5.54
471.601	5.65
471.803	5.78
472.005	5.75
472.208	5.75
472.41	5.69
472.612	5.72
472.814	5.79
473.016	5.82
473.218	5.91
473.421	6.03
473.623	6.02
473.825	5.98
474.027	5.88
474.229	5.92
474.431	6.08
474.633	6.04
474.835	6.03
475.037	5.97
475.239	5.97
475.441	5.9
475.643	5.76
475.845	5.67
476.047	5.7
476.249	5.81
476.451	5.81
476.653	5.67
476.855	5.7
477.057	5.75
477.258	5.85
477.46	5.8
477.662	5.8
477.864	5.83
478.066	5.88
478.268	5.89
478.469	5.85
478.671	5.92
478.873	5.91
479.075	5.97
479.276	5.83
479.478	5.83
479.68	5.86
479.882	5.86
480.083	5.83
480.285	5.85
480.487	5.83
480.688	5.81
480.89	5.76
481.091	5.79
481.293	5.74
481.495	5.82
481.696	5.73
481.898	5.68
482.099	5.66
482.301	5.66
482.502	5.61
482.704	5.58
482.905	5.55
483.107	5.53
483.308	5.52
483.51	5.52
483.711	5.5
483.913	5.52
484.114	5.5
484.315	5.5
484.517	5.49
484.718	5.53
484.92	5.54
485.121	5.55
485.322	5.56
485.524	5.54
485.725	5.52
485.926	5.5
486.127	5.53
486.329	5.57
486.53	5.59
486.731	5.59
486.932	5.57
487.134	5.56
487.335	5.56
487.536	5.56
487.737	5.6
487.938	5.61
488.139	5.63
488.341	5.58
488.542	5.64
488.743	5.67
488.944	5.7
489.145	5.75
489.346	5.73
489.547	5.72
489.748	5.73
489.949	5.73
490.15	5.74
490.351	5.77
490.552	5.75
490.753	5.67
490.954	5.66
491.155	5.67
491.356	5.63
491.557	5.73
491.758	5.78
491.959	5.8
492.159	5.77
492.36	5.79
492.561	5.75
492.762	5.79
492.963	5.79
493.164	5.84
493.364	5.83
493.565	5.81
493.766	5.68
493.967	5.63
494.167	5.64
494.368	5.71
494.569	5.74
494.769	5.79
494.97	5.79
495.171	5.93
495.371	5.87
495.572	5.85
495.773	5.92
495.973	6
496.174	6.01
496.375	5.98
496.575	6.03
496.776	5.97
496.976	5.92
497.177	5.95
497.377	5.91
497.578	5.98
497.778	5.98
497.979	6.02
498.179	6.05
498.38	6.13
498.58	6.17
498.78	6.14
498.981	6.18
499.181	6.23
499.382	6.27
499.582	6.28
499.782	6.23
499.983	6.31
500.183	6.24
500.383	6.25
500.584	6.13
500.784	6.16
500.984	6.2
501.184	6.31
501.385	6.37
501.585	6.33
501.785	6.36
501.985	6.45
502.185	6.44
502.386	6.49
502.586	6.54
502.786	6.58
502.986	6.58
503.186	6.5
503.386	6.37
503.586	6.4
503.786	6.43
503.987	6.43
504.187	6.38
504.387	6.38
504.587	6.39
504.787	6.35
504.987	6.37
505.187	6.47
505.387	6.63
505.587	6.71
505.786	6.7
505.986	6.75
506.186	6.82
506.386	6.82
506.586	6.87
506.786	6.89
506.986	6.99
507.186	7.06
507.386	6.98
507.585	6.91
507.785	6.96
507.985	6.98
508.185	6.97
508.384	6.94
508.584	7
508.784	7.11
508.984	7.17
509.183	7.16
509.383	7.2
509.583	7.32
509.782	7.38
509.982	7.42
510.182	7.53
510.381	7.56
510.581	7.65
510.781	7.63
510.98	7.62
511.18	7.62
511.379	7.67
511.579	7.67
511.778	7.67
511.978	7.76
512.177	7.75
512.377	7.69
512.576	7.72
512.776	7.78
512.975	7.88
513.175	7.88
513.374	7.94
513.573	7.95
513.773	8.04
513.972	8.05
514.172	8.08
514.371	8.12
514.57	8.15
514.77	8.26
514.969	8.19
515.168	8.21
515.367	8.28
515.567	8.27
515.766	8.33
515.965	8.3
516.164	8.3
516.364	8.27
516.563	8.32
516.762	8.43
516.961	8.43
517.16	8.5
517.359	8.54
517.559	8.59
517.758	8.65
517.957	8.68
518.156	8.67
518.355	8.73
518.554	8.78
518.753	8.85
518.952	8.82
519.151	8.86
519.35	8.89
519.549	8.97
519.748	8.98
519.947	8.99
520.146	8.97
520.345	9.05
520.544	9.06
520.743	9.06
520.942	9.11
521.141	9.21
521.339	9.24
521.538	9.29
521.737	9.24
521.936	9.24
522.135	9.33
522.333	9.46
522.532	9.51
522.731	9.57
522.93	9.67
523.129	9.61
523.327	9.67
523.526	9.71
523.725	9.78
523.923	9.83
524.122	9.94
524.321	9.9
524.519	9.85
524.718	9.85
524.917	9.86
525.115	9.92
525.314	9.97
525.512	9.91
525.711	9.93
525.909	9.96
526.108	9.98
526.306	9.95
526.505	10.02
526.703	10.09
526.902	10.15
527.1	10.17
527.299	10.19
527.497	10.24
527.696	10.29
527.894	10.32
528.092	10.3
528.291	10.31
528.489	10.36
528.688	10.38
528.886	10.41
529.084	10.39
529.283	10.44
529.481	10.46
529.679	10.48
529.877	10.53
530.076	10.55
530.274	10.6
530.472	10.67
530.67	10.68
530.869	10.74
531.067	10.74
531.265	10.88
531.463	10.88
531.661	10.93
531.859	10.96
532.057	10.93
532.255	10.96
532.454	11.02
532.652	11.05
532.85	11.11
533.048	11.1
533.246	11.16
533.444	11.14
533.642	11.15
533.84	11.12
534.038	11.13
534.236	11.26
534.434	11.33
534.632	11.34
534.83	11.33
535.027	11.38
535.225	11.43
535.423	11.44
535.621	11.51
535.819	11.63
536.017	11.7
536.215	11.75
536.412	11.74
536.61	11.76
536.808	11.78
537.006	11.92
537.203	11.9
537.401	11.92
537.599	11.96
537.797	11.99
537.994	12.05
538.192	12.15
538.39	12.24
538.587	12.32
538.785	12.35
538.983	12.38
539.18	12.4
539.378	12.44
539.575	12.49
539.773	12.51
539.97	12.53
540.168	12.48
540.366	12.54
540.563	12.54
540.761	12.56
540.958	12.61
541.155	12.68
541.353	12.71
541.55	12.79
541.748	12.87
541.945	12.94
542.143	12.99
542.34	13.09
542.537	13.07
542.735	13.16
542.932	13.22
543.129	13.33
543.327	13.38
543.524	13.48
543.721	13.55
543.919	13.63
544.116	13.74
544.313	13.88
544.51	14.03
544.708	14.18
544.905	14.27
545.102	14.36
545.299	14.41
545.496	14.54
545.693	14.6
545.891	14.61
546.088	14.56
546.285	14.57
546.482	14.58
546.679	14.53
546.876	14.54
547.073	14.54
547.27	14.45
547.467	14.47
547.664	14.4
547.861	14.4
548.058	14.4
548.255	14.45
548.452	14.42
548.649	14.4
548.846	14.33
549.043	14.29
549.24	14.28
549.437	14.39
549.633	14.3
549.83	14.27
550.027	14.24
550.224	14.32
550.421	14.29
550.618	14.37
550.814	14.34
551.011	14.34
551.208	14.21
551.405	14.14
551.601	14.12
551.798	14.12
551.995	14.1
552.191	14.11
552.388	14.11
552.585	14.13
552.781	14
552.978	13.96
553.175	14.09
553.371	14.23
553.568	14.39
553.764	14.36
553.961	14.31
554.157	14.37
554.354	14.21
554.55	14.17
554.747	14.21
554.943	14.28
555.14	14.37
555.336	14.18
555.533	14.2
555.729	14.12
555.926	14.14
556.122	14.3
556.318	14.27
556.515	14.47
556.711	14.47
556.907	14.41
557.104	14.47
557.3	14.34
557.496	14.43
557.693	14.42
557.889	14.53
558.085	14.55
558.281	14.46
558.478	14.45
558.674	14.5
558.87	14.48
559.066	14.54
559.262	14.55
559.459	14.69
559.655	14.85
559.851	14.86
560.047	14.8
560.243	14.86
560.439	14.95
560.635	15.12
560.831	15.09
561.027	15.2
561.223	15.26
561.419	15.23
561.615	15.15
561.811	15.1
562.007	15.09
562.203	15.11
562.399	15.16
562.595	15.19
562.791	15.19
562.987	15.16
563.183	15.29
563.379	15.31
563.575	15.45
563.771	15.48
563.966	15.41
564.162	15.39
564.358	15.44
564.554	15.35
564.75	15.31
564.945	15.24
565.141	15.18
565.337	15.04
565.533	15.07
565.728	14.99
565.924	15.01
566.12	15.08
566.315	15.1
566.511	15.06
566.707	15.15
566.902	15.15
567.098	15.17
567.293	15.24
567.489	15.27
567.684	15.23
567.88	15.29
568.076	15.34
568.271	15.4
568.467	15.46
568.662	15.42
568.858	15.48
569.053	15.45
569.248	15.47
569.444	15.59
569.639	15.58
569.835	15.54
570.03	15.51
570.225	15.48
570.421	15.38
570.616	15.31
570.812	15.36
571.007	15.29
571.202	15.39
571.397	15.44
571.593	15.42
571.788	15.52
571.983	15.65
572.178	15.73
572.374	15.77
572.569	15.85
572.764	15.88
572.959	15.86
573.154	15.87
573.35	15.82
573.545	15.78
573.74	15.81
573.935	15.78
574.13	15.81
574.325	15.72
574.52	15.81
574.715	15.87
574.91	15.92
575.105	16.08
575.3	16.13
575.495	16.26
575.69	16.33
575.885	16.36
576.08	16.37
576.275	16.38
576.47	16.48
576.665	16.42
576.86	16.5
577.055	16.47
577.25	16.5
577.444	16.64
577.639	16.64
577.834	16.59
578.029	16.54
578.224	16.55
578.418	16.6
578.613	16.66
578.808	16.7
579.003	16.76
579.197	16.97
579.392	16.98
579.587	17
579.781	17.02
579.976	17.13
580.171	17.34
580.365	17.35
580.56	17.31
580.755	17.39
580.949	17.57
581.144	17.56
581.338	17.5
581.533	17.46
581.727	17.47
581.922	17.42
582.116	17.45
582.311	17.3
582.505	17.3
582.7	17.25
582.894	17.24
583.089	17.17
583.283	17.18
583.478	17.19
583.672	17.22
583.866	17.23
584.061	17.43
584.255	17.48
584.449	17.62
584.644	17.75
584.838	17.96
585.032	17.86
585.226	17.91
585.421	17.86
585.615	17.93
585.809	18.05
586.003	18.09
586.198	18.11
586.392	18.16
586.586	18.23
586.78	18.29
586.974	18.23
587.168	18.38
587.363	18.4
587.557	18.29
587.751	18.27
587.945	18.24
588.139	18.27
588.333	18.23
588.527	18.18
588.721	18.13
588.915	18.04
589.109	18.09
589.303	18.01
589.497	18.04
589.691	18.3
589.885	18.21
590.079	18.21
590.273	18.14
590.466	18.15
590.66	18.09
590.854	18.23
591.048	18.36
591.242	18.38
591.436	18.51
591.629	18.5
591.823	18.48
592.017	18.62
592.211	18.61
592.404	18.65
592.598	18.73
592.792	18.78
592.986	18.59
593.179	18.56
593.373	18.59
593.567	18.48
593.76	18.38
593.954	18.24
594.147	18.23
594.341	18.18
594.535	18.16
594.728	18.04
594.922	18.02
595.115	17.87
595.309	17.83
595.502	17.8
595.696	17.78
595.889	17.81
596.083	17.82
596.276	17.78
596.47	17.83
596.663	17.74
596.856	17.69
597.05	17.65
597.243	17.8
597.437	17.84
597.63	17.93
597.823	18.05
598.017	18.09
598.21	18.19
598.403	18.26
598.596	18.28
598.79	18.5
598.983	18.7
599.176	18.83
599.369	18.92
599.563	18.96
599.756	18.85
599.949	18.72
600.142	18.63
600.335	18.57
600.528	18.52
600.722	18.54
600.915	18.44
601.108	18.34
601.301	18.43
601.494	18.36
601.687	18.32
601.88	18.43
602.073	18.47
602.266	18.38
602.459	18.33
602.652	18.32
602.845	18.17
603.038	18.05
603.231	18.13
603.424	18.02
603.617	18.11
603.809	18.21
604.002	18.07
604.195	18.06
604.388	18.26
604.581	18.31
604.774	18.31
604.966	18.29
605.159	18.43
605.352	18.31
605.545	18.38
605.737	18.3
605.93	18.32
606.123	18.5
606.316	18.6
606.508	18.65
606.701	18.74
606.894	19.04
607.086	19.37
607.279	19.42
607.471	19.66
607.664	19.68
607.857	19.76
608.049	19.89
608.242	20.04
608.434	20.47
608.627	20.79
608.819	21.35
609.012	21.85
609.204	22.6
609.397	23.32
609.589	24.14
609.782	25.06
609.974	26.06
610.166	26.89
610.359	27.75
610.551	28.66
610.743	29.51
610.936	30.24
611.128	30.83
611.32	31.23
611.513	31.59
611.705	31.66
611.897	31.72
612.09	31.53
612.282	31.28
612.474	30.97
612.666	30.3
612.858	29.8
613.051	29.3
613.243	28.61
613.435	27.89
613.627	27.51
613.819	27.13
614.011	26.61
614.203	26.25
614.395	25.88
614.588	25.44
614.78	25.01
614.972	24.51
615.164	24.12
615.356	23.67
615.548	23.34
615.74	22.88
615.932	22.41
616.124	22.26
616.315	21.93
616.507	21.65
616.699	21.48
616.891	21.4
617.083	21.31
617.275	20.87
617.467	20.66
617.659	20.55
617.85	20.27
618.042	20.34
618.234	20.22
618.426	20.02
618.618	19.96
618.809	19.71
619.001	19.72
619.193	19.75
619.384	19.78
619.576	20.03
619.768	19.86
619.959	19.88
620.151	20
620.343	19.97
620.534	20.27
620.726	20.23
620.917	20.53
621.109	20.39
621.301	20.21
621.492	20.22
621.684	20.19
621.875	20.39
622.067	20.48
622.258	20.4
622.45	20.46
622.641	20.45
622.832	20.67
623.024	20.67
623.215	20.82
623.407	20.97
623.598	21.2
623.789	21.12
623.981	21.04
624.172	20.86
624.363	20.87
624.555	20.78
624.746	20.59
624.937	20.4
625.129	20.3
625.32	20.28
625.511	20.19
625.702	20.05
625.893	20.05
626.085	20.17
626.276	20.32
626.467	20.15
626.658	20.15
626.849	20.14
627.04	20.17
627.231	20.31
627.422	20.14
627.614	20.19
627.805	20.19
627.996	20.22
628.187	20.19
628.378	20.27
628.569	20.36
628.76	20.41
628.951	20.51
629.142	20.64
629.332	20.64
629.523	20.92
629.714	21.02
629.905	21.18
630.096	21.3
630.287	21.44
630.478	21.51
630.669	21.55
630.859	21.42
631.05	21.43
631.241	21.31
631.432	21.18
631.623	21.14
631.813	20.97
632.004	20.67
632.195	20.58
632.385	20.35
632.576	20.09
632.767	19.98
632.957	20.02
633.148	19.83
633.339	19.76
633.529	19.88
633.72	19.72
633.91	19.84
634.101	19.97
634.292	19.9
634.482	19.91
634.673	20.04
634.863	19.89
635.054	19.82
635.244	19.82
635.435	19.9
635.625	19.62
635.815	19.7
636.006	19.35
636.196	19.42
636.387	19.38
636.577	19.43
636.767	19.39
636.958	19.59
637.148	19.55
637.338	19.63
637.529	19.54
637.719	19.76
637.909	19.72
638.099	19.98
638.29	19.87
638.48	19.9
638.67	19.83
638.86	19.8
639.05	19.6
639.241	19.71
639.431	19.6
639.621	19.7
639.811	19.57
640.001	19.47
640.191	19.33
640.381	19.15
640.571	19.19
640.761	18.97
640.951	19.01
641.141	19
641.331	18.99
641.521	18.94
641.711	18.77
641.901	18.53
642.091	18.63
642.281	18.69
642.471	18.81
642.661	18.82
642.851	19.1
643.041	18.89
643.231	18.99
643.42	19.06
643.61	19.15
643.8	19.28
643.99	19.45
644.18	19.27
644.369	19.39
644.559	19.25
644.749	19.23
644.939	19.17
645.128	19.33
645.318	19.28
645.508	19.26
645.697	19.38
645.887	19.34
646.076	19.39
646.266	19.47
646.456	19.44
646.645	19.58
646.835	19.56
647.024	19.57
647.214	19.71
647.403	19.87
647.593	19.81
647.782	19.86
647.972	19.92
648.161	19.99
648.351	20.22
648.54	20.25
648.73	20.38
648.919	20.48
649.108	20.41
649.298	20.3
649.487	20.28
649.677	20.44
649.866	20.32
650.055	20.26
650.244	20.11
650.434	20.03
650.623	19.99
650.812	19.99
651.002	19.94
651.191	20.02
651.38	19.87
651.569	19.88
651.758	19.75
651.947	19.84
652.137	20.14
652.326	20.39
652.515	20.22
652.704	20.19
652.893	20.19
653.082	20.38
653.271	20.5
653.46	20.67
653.649	20.71
653.838	20.68
654.027	20.63
654.216	20.52
654.405	20.43
654.594	20.51
654.783	20.5
654.972	20.47
655.161	20.42
655.35	20.37
655.539	20.37
655.728	20.14
655.916	20.05
656.105	20.08
656.294	19.82
656.483	19.93
656.672	19.92
656.86	19.87
657.049	19.62
657.238	19.4
657.427	19.4
657.615	19.36
657.804	19.5
657.993	19.59
658.181	19.57
658.37	19.64
658.559	19.26
658.747	19.17
658.936	19.26
659.125	19.35
659.313	19.4
659.502	19.25
659.69	19.17
659.879	19.1
660.067	19.13
660.256	19.27
660.444	19.19
660.633	19.43
660.821	19.46
661.01	19.5
661.198	19.67
661.387	19.75
661.575	19.99
661.763	20.2
661.952	20.15
662.14	20.18
662.328	20.08
662.517	20.17
662.705	20.3
662.893	20.5
663.082	20.53
663.27	20.31
663.458	20.13
663.646	19.8
663.834	19.65
664.023	19.87
664.211	19.83
664.399	19.64
664.587	19.47
664.775	19.09
664.963	19.17
665.152	19.07
665.34	19.38
665.528	19.52
665.716	19.62
665.904	19.43
666.092	19.23
666.28	19.14
666.468	19.27
666.656	19.43
666.844	19.69
667.032	19.61
667.22	19.42
667.408	19.16
667.596	19.16
667.784	19.23
667.971	19.51
668.159	19.76
668.347	19.87
668.535	19.98
668.723	19.81
668.911	19.87
669.098	19.84
669.286	20.09
669.474	20.16
669.662	19.96
669.849	20.1
670.037	20.17
670.225	20.08
670.413	20.06
670.6	19.73
670.788	19.85
670.976	19.62
671.163	19.5
671.351	19.5
671.538	19.56
671.726	19.69
671.913	19.58
672.101	19.57
672.289	19.66
672.476	19.66
672.664	19.89
672.851	20.05
673.039	20.24
673.226	20.1
673.413	20.19
673.601	20.01
673.788	19.9
673.976	19.7
674.163	19.67
674.35	19.76
674.538	19.73
674.725	19.86
674.912	19.51
675.1	19.65
675.287	19.92
675.474	19.62
675.662	19.55
675.849	19.68
676.036	19.89
676.223	19.8
676.411	19.72
676.598	19.79
676.785	19.3
676.972	19.46
677.159	19.28
677.346	19.21
677.533	19.29
677.721	19.3
677.908	19.36
678.095	19.32
678.282	19.29
678.469	19.3
678.656	19.31
678.843	19.61
679.03	19.73
679.217	19.92
679.404	20.09
679.591	19.95
679.778	19.82
679.964	19.8
680.151	19.96
680.338	20.04
680.525	20.01
680.712	19.8
680.899	19.7
681.086	19.65
681.272	19.45
681.459	19.11
681.646	19.29
681.833	19.56
682.02	19.64
682.206	19.38
682.393	19.29
682.58	19.35
682.766	19.63
682.953	19.85
683.14	19.79
683.326	19.92
683.513	19.86
683.7	19.88
683.886	19.93
684.073	19.78
684.259	19.84
684.446	20.01
684.632	20.17
684.819	20.17
685.005	20.1
685.192	20.2
685.378	19.94
685.565	20.34
685.751	20.68
685.938	20.79
686.124	21.07
686.31	21.03
686.497	21.22
686.683	21.03
686.87	20.99
687.056	20.9
687.242	21.05
687.429	21.31
687.615	21.28
687.801	20.87
687.987	20.9
688.174	20.43
688.36	20.77
688.546	20.64
688.732	20.71
688.918	20.86
689.105	20.89
689.291	20.93
689.477	20.77
689.663	20.88
689.849	20.95
690.035	20.92
690.221	21.35
690.407	21.27
690.593	21.14
690.779	20.98
690.965	20.75
691.151	20.69
691.337	20.57
691.523	20.58
691.709	20.46
691.895	20.57
692.081	20.52
692.267	20.04
692.453	20.12
692.639	20.17
692.825	20.33
693.011	20.19
693.196	20.1
693.382	19.97
693.568	19.88
693.754	19.6
693.94	19.51
694.125	19.55
694.311	19.51
694.497	19.39
694.682	19.42
694.868	19.12
695.054	19.73
695.239	20.06
695.425	19.85
695.611	20.05
695.796	20.12
695.982	20.1
696.168	19.74
696.353	20.03
696.539	19.71
696.724	19.61
696.91	19.47
697.095	19.12
697.281	19.05
697.466	19.34
697.652	19.22
697.837	19.22
698.023	19.04
698.208	19.24
698.393	19.23
698.579	19.35
698.764	19.1
698.949	19.26
699.135	19.42
699.32	19.3
699.505	19.32
699.691	19.47
699.876	19.63
700.061	19.82
700.246	19.85
700.432	19.92
700.617	19.89
700.802	20.33
700.987	20.38
701.172	20.3
701.358	20.39
701.543	20.15
701.728	20.28
701.913	20.21
702.098	20.43
702.283	20.24
702.468	20.06
702.653	20.07
702.838	19.85
703.023	20.04
703.208	20.16
703.393	20.34
703.578	20.61
703.763	20.4
703.948	20.5
704.133	20.29
704.318	20.81
704.503	21.13
704.688	21.76
704.873	22.15
705.057	22.35
705.242	22.46
705.427	22.68
705.612	22.96
705.797	23.23
705.981	23.5
706.166	23.55
706.351	23.56
706.536	23.85
706.72	23.38
706.905	23.58
707.09	23.52
707.274	23.56
707.459	23.55
707.644	23.51
707.828	23.46
708.013	23.73
708.197	24.04
708.382	24.17
708.567	24.09
708.751	24.17
708.936	24
709.12	24.21
709.305	24.27
709.489	24.06
709.673	23.91
709.858	24.2
710.042	24.06
710.227	24.13
710.411	23.7
710.596	23.52
710.78	23.57
710.964	23.83
711.149	23.6
711.333	23.53
711.517	23.64
711.702	23.9
711.886	23.64
712.07	23.35
712.254	23.07
712.438	23.19
712.623	23.33
712.807	23.23
712.991	22.69
713.175	22.29
713.359	22.06
713.544	21.91
713.728	21.34
713.912	20.85
714.096	20.94
714.28	20.84
714.464	20.69
714.648	20.43
714.832	20.12
715.016	20.59
715.2	20.69
715.384	20.4
715.568	20.59
715.752	20.41
715.936	20.6
716.12	20.21
716.304	20.33
716.488	20.16
716.671	20.21
716.855	20.34
717.039	19.82
717.223	19.85
717.407	20
717.59	19.19
717.774	19.57
717.958	19.6
718.142	19.58
718.325	19.36
718.509	19.25
718.693	19.3
718.877	19.43
719.06	19.24
719.244	19.34
719.428	19.2
719.611	19.72
719.795	19.72
719.978	19.28
720.162	19.52
720.345	19.49
720.529	19.57
720.713	18.9
720.896	18.76
721.08	19.26
721.263	18.86
721.446	18.98
721.63	19.23
721.813	19
721.997	19.08
722.18	19
722.364	19.27
722.547	19.67
722.73	20.34
722.914	20.5
723.097	20.11
723.28	20.24
723.464	20.54
723.647	20.11
723.83	20.14
724.013	20.55
724.197	20.2
724.38	19.96
724.563	20.16
724.746	19.99
724.929	19.91
725.112	19.98
725.296	20.45
725.479	20.11
725.662	20.02
725.845	20.27
726.028	20.13
726.211	20.9
726.394	20.94
726.577	20.67
726.76	20.9
726.943	21
727.126	21
727.309	20.76
727.492	21.23
727.675	21.54
727.858	20.97
728.041	21.35
728.224	21.08
728.407	20.92
728.589	20.97
728.772	20.51
728.955	20.12
729.138	20.28
729.321	20.14
729.503	19.81
729.686	19.86
729.869	19.99
730.052	19.76
730.234	19.77
730.417	19.75
730.6	19.44
730.782	19.54
730.965	19.89
731.148	19.89
731.33	19.98
731.513	19.85
731.695	19.94
731.878	20.67
732.061	20.47
732.243	20.13
732.426	20.4
732.608	20.36
732.791	20.56
732.973	20.45
733.156	20.05
733.338	19.73
733.52	19.97
733.703	19.65
733.885	19.19
734.068	19.62
734.25	19.77
734.432	19.59
734.615	19.95
734.797	19.68
734.979	20.15
735.162	20.69
735.344	20.69
735.526	20.37
735.708	20.65
735.891	20.3
736.073	20.06
736.255	20.27
736.437	20
736.619	20.01
736.802	19.96
736.984	19.65
737.166	19.4
737.348	19.57
737.53	20
737.712	19.71
737.894	20.24
738.076	20.06
738.258	19.28
738.44	19.37
738.622	19.27
738.804	19.21
738.986	18.85
739.168	18.81
739.35	19.13
739.532	19.19
739.714	19.61
739.896	19.51
740.078	19.6
740.259	19.98
740.441	20.11
740.623	20.12
740.805	20.75
740.987	20.89
741.168	20.75
741.35	20.4
741.532	20.25
741.714	19.93
741.895	19.65
742.077	19.11
742.259	19.47
742.44	19.64
742.622	19.71
742.804	19.51
742.985	19.52
743.167	19.65
743.348	19.86
743.53	19.33
743.711	19.14
743.893	19.58
744.075	20.02
744.256	19.71
744.438	19.7
744.619	19.44
744.8	19.36
744.982	20.09
745.163	19.75
745.345	20.28
745.526	20.82
745.707	20.91
745.889	20.31
746.07	20.6
746.252	20.48
746.433	20.8
746.614	20.92
746.795	20.11
746.977	19.17
747.158	19.84
747.339	19.19
747.52	18.47
747.702	18.46
747.883	19.15
748.064	18.43
748.245	18.31
748.426	18.01
748.607	18.25
748.788	19.32
748.97	19.43
749.151	18.74
749.332	19.24
749.513	20.07
749.694	20.43
749.875	19.99
750.056	20.15
750.237	20.45
750.418	20.49
750.599	20.1
750.78	19.87
750.96	19.92
751.141	20.23
751.322	19.61
751.503	19.09
751.684	19.25
751.865	19.11
752.046	19.75
752.226	19.76
752.407	19.7
752.588	19.76
752.769	19.36
752.949	19.7
753.13	20.05
753.311	20.07
753.492	19.84
753.672	19.3
753.853	19.4
754.034	19.15
754.214	19.16
754.395	18.96
754.575	18.66
754.756	18.89
754.937	18.54
755.117	18.79
755.298	19.09
755.478	19.35
755.659	19.35
755.839	19.54
756.02	18.91
756.2	18.7
756.381	18.25
756.561	18.67
756.741	18.79
756.922	18.63
757.102	18.43
757.283	18.45
757.463	18.64
757.643	19.25
757.823	18.89
758.004	18.9
758.184	19.32
758.364	20.11
758.545	20.32
758.725	20.62
758.905	20.51
759.085	20
759.265	19.93
759.446	20.2
759.626	19.74
759.806	20.07
759.986	21
760.166	21.1
760.346	20.14
760.526	19.95
760.706	19.44
760.886	19.61
761.066	19.95
761.246	20.12
761.426	19.84
761.606	19.79
761.786	19.65
761.966	18.84
762.146	18.9
762.326	19.48
762.506	19.5
762.686	19.74
762.866	20.1
763.046	19.83
763.225	19.61
763.405	19.27
763.585	19.04
763.765	19.15
763.945	19.41
764.124	19.73
764.304	19.72
764.484	19.84
764.664	19.76
764.843	19.54
765.023	19.94
765.203	19.69
765.382	19.66
765.562	20.07
765.741	20.02
765.921	20.63
766.101	20.35
766.28	20.52
766.46	20.43
766.639	20.34
766.819	20.44
766.998	20.34
767.178	20.24
767.357	20.5
767.537	20.2
767.716	20.38
767.896	19.03
768.075	18.83
768.254	18.42
768.434	18.65
768.613	18.95
768.792	18.7
768.972	18.26
769.151	18.82
769.33	18.76
769.51	19.52
769.689	19.98
769.868	21.24
770.047	20.9
770.226	21.71
770.406	21.23
770.585	20.65
770.764	20.74
770.943	20.96
771.122	20.82
771.301	20.83
771.48	19.67
771.66	18.93
771.839	18.43
772.018	18.43
772.197	17.3
772.376	17.62
772.555	17.81
772.734	17.6
772.913	18.56
773.092	18.31
773.271	18.78
773.449	19.76
773.628	19.16
773.807	18.93
773.986	18.64
774.165	19.36
774.344	18.86
774.523	19.31
774.701	19.89
774.88	19.22
775.059	19.72
775.238	19.37
775.417	18.29
775.595	19.17
775.774	19.7
775.953	19.78
776.131	19.76
776.31	19.69
776.489	19.32
776.667	19.11
776.846	18.32
777.025	17.6
777.203	17.21
777.382	17.15
777.56	16.84
777.739	16.79
777.917	16.57
778.096	16.73
778.274	16.88
778.453	17.5
778.631	17.48
778.81	17.38
778.988	18.23
779.166	18.25
779.345	19.14
779.523	19.25
779.702	17.98
779.88	18.04
780.058	17.38
780.237	17.52
780.415	16.21
780.593	15.91
780.771	15.69
780.95	16.24
781.128	15.7
781.306	15.18
781.484	14.24
781.662	16.16
781.841	16.23
782.019	15.94
782.197	15.86
782.375	16.67
782.553	16.84
782.731	17.88
782.909	16.86
783.087	17.51
783.265	17.65
783.443	19.08
783.621	17.72
783.799	17.91
783.977	18.29
784.155	18.48
784.333	18.91
784.511	19.39
784.689	18.68
784.867	18.66
785.045	19.03
785.223	18.14
785.4	17.34
785.578	17.15
785.756	17.36
785.934	17.87
786.112	18.3
786.289	18.55
786.467	17.37
786.645	18.03
786.823	17.97
787	18.71
787.178	19.22
787.356	19.1
787.533	20.31
787.711	20.5
787.889	19.74
788.066	19.5
788.244	19.29
788.421	19.93
788.599	19.85
788.776	20.35
788.954	19.4
789.131	19.98
789.309	20.03
789.486	18.58
789.664	18.08
789.841	19.01
790.019	18.5
790.196	17.35
790.373	17.15
790.551	17.09
790.728	16.45
790.906	17.38
791.083	17.43
791.26	17.35
791.437	18.71
791.615	19.05
791.792	18.25
791.969	18.65
792.146	18.82
792.324	19.36
792.501	18.66
792.678	18.43
792.855	17.61
793.032	17.45
793.209	17.3
793.387	17.79
793.564	17.73
793.741	17.95
793.918	18.87
794.095	19.8
794.272	19.13
794.449	19.27
794.626	20.42
794.803	20.35
794.98	20.11
795.157	20.65
795.334	19.74
795.511	20.44
795.688	20.89
795.864	20.24
796.041	19.48
796.218	19.18
796.395	18.99
796.572	17.84
796.749	18.2
796.925	18.41
797.102	18.87
797.279	19.28
797.456	18
797.632	18.16
797.809	18.25
797.986	19.7
798.162	19.57
798.339	20.09
798.516	20.31
798.692	20.28
798.869	20.49
799.046	20.15
799.222	19.13
799.399	19.59
799.575	19.09
799.752	19.29
799.928	18.02
800.105	18.29
800.281	18.62
800.458	18.37
800.634	17.99
800.811	17.66
800.987	17.42
801.163	18.5
801.34	18.74
801.516	18.65
801.692	17.69
801.869	18.29
802.045	18.84
802.221	19.39
802.398	19.48
802.574	19.97
802.75	19.98
802.926	19.73
803.103	20.6
803.279	20.44
803.455	21.23
803.631	20.91
803.807	20.73
803.983	21.42
804.16	22.16
804.336	21.91
804.512	20.79
804.688	20.14
804.864	21
805.04	20.06
805.216	20.81
805.392	20.08
805.568	20.96
805.744	21.34
805.92	20.9
806.096	20.14
806.272	20.91
806.448	21.14
806.623	23.33
806.799	22.6
806.975	22.57
807.151	21.48
807.327	21.09
807.503	20.72
807.678	20.9
807.854	22.36
808.03	20.18
808.206	20.5
808.381	22.14
808.557	21.54
808.733	21.87
808.908	22.03
809.084	22.5
809.26	22.1
809.435	22.93
809.611	22.62
809.787	20.27
809.962	21.27
810.138	21.82
810.313	22.13
810.489	21.88
810.664	22.03
810.84	20.48
811.015	21.63
811.191	23.01
811.366	23.49
811.542	22.58
811.717	22.01
811.892	22.57
812.068	21.75
812.243	20.09
812.419	20.28
812.594	19.34
812.769	20.96
812.944	20.12
813.12	18.68
813.295	17.79
813.47	19.24
813.645	20.76
813.821	20.49
813.996	20.37
814.171	20.46
814.346	20.03
814.521	20.78
814.697	19.53
814.872	19.33
815.047	19.74
815.222	19.28
815.397	19.18
815.572	18.51
815.747	19.81
815.922	19.79
816.097	20.58
816.272	20
816.447	18.85
816.622	20.41
816.797	19.68
816.972	19.3
817.147	20.52
817.322	19.44
817.496	19.15
817.671	17.5
817.846	17.22
818.021	18.34
818.196	18.42
818.371	18.52
818.545	17.36
818.72	18.4
818.895	18.58
819.069	16.95
819.244	17.1
819.419	17.05
819.594	17.39
819.768	17.82
819.943	16.59
820.117	17.26
820.292	17.21
820.467	17.32
820.641	16.74
820.816	16.93
820.99	16.94
821.165	16.89
821.339	16.99
821.514	16.58
821.688	16.48
821.863	16.39
822.037	16.08
822.212	16.06
822.386	16.13
822.56	16.46
822.735	16.54
822.909	16.7
823.084	16.93
823.258	16.9
823.432	17.19
823.606	17.28
823.781	17.36
823.955	17.57
824.129	17.91
824.303	18.14
824.478	17.86
824.652	17.97
824.826	17.99
825	18.11
825.174	18.49
825.348	18.35
825.523	18.55
825.697	18.96
825.871	18.78
826.045	18.52
826.219	17.82
826.393	17.97
826.567	17.8
826.741	17.92
826.915	17.66
827.089	18.3
827.263	18.46
827.437	18.45
827.611	18.13
827.784	18.2
827.958	18.42
828.132	18.85
828.306	19.17
828.48	19.28
828.654	19.41
828.827	19.54
829.001	18.76
829.175	18.71
829.349	18.92
829.522	19.18
829.696	19.11
829.87	19.29
830.044	19.2
830.217	17.88
830.391	17.34
830.565	17.09
830.738	16.73
830.912	16.69
831.085	16.39
831.259	15
831.432	15.28
831.606	15.37
831.779	15.42
831.953	15.18
832.126	15.98
832.3	16.5
832.473	15.66
832.647	15.74
832.82	15.66
832.994	16.64
833.167	17.72
833.34	17.99
833.514	18.09
833.687	17.65
833.86	17.16
834.034	17.71
834.207	17.92
834.38	18.86
834.553	18.88
834.727	18.92
834.9	18.38
835.073	18.45
835.246	18.07
835.419	18.35
835.593	18.29
835.766	20.24
835.939	19.51
836.112	19.64
836.285	19.09
836.458	19.65
836.631	19.56
836.804	19.55
836.977	18.86
837.15	18.72
837.323	18.93
837.496	19.44
837.669	16.92
837.842	18.98
838.015	19.09
838.188	18.35
838.361	17.13
838.533	17.57
838.706	18.2
838.879	17.75
839.052	19.12
839.225	18.86
839.398	17.99
839.57	18.47
839.743	18.23
839.916	17.22
840.088	19.27
840.261	20.23
840.434	19.29
840.607	19.74
840.779	17.9
840.952	18.07
841.124	16.94
841.297	17.18
841.47	17.32
841.642	14.38
841.815	15.84
841.987	16.42
842.16	16.02
842.332	18.23
842.505	16.56
842.677	20.22
842.85	18.05
843.022	18.64
843.194	18.73
843.367	20.04
843.539	20.88
843.712	22.75
843.884	22.53
844.056	21.92
844.229	17.8
844.401	20.78
844.573	20.72
844.745	20.3
844.918	22.74
845.09	25.88
845.262	26.59
845.434	28.74
845.606	23.43
845.779	19.97
845.951	15.54
846.123	19.18
846.295	17.71
846.467	15.53
846.639	17.51
846.811	16.5
846.983	14.19
847.155	9.88
847.327	12.18
847.499	14.64
847.671	12.84
847.843	15.29
848.015	18.24
848.187	18.82
848.359	20.11
848.531	20.68
848.703	24.5
848.875	27.51
849.047	30.96
849.218	29.62
849.39	31.4
849.562	36.76
849.734	36.5
849.905	34.39
850.077	34.12
850.249	36.3
850.421	35.28
850.592	28.23
850.764	26.73
850.936	26.1
851.107	25.99
851.279	22.99
851.451	20.84
851.622	23.01
851.794	20.52
851.965	21.57
852.137	21.64
852.308	21.1
852.48	24.81
852.651	27.11
852.823	27.21
852.994	28.22
853.166	27.89
853.337	25.56
853.509	25.06
853.68	25.26
853.851	23.41
854.023	19.2
854.194	16.24
854.365	14.16
854.537	11.71
854.708	9.43
854.879	7.78
855.05	10.27
855.222	10.08
855.393	7.31
855.564	9.55
855.735	10.68
855.906	13.04
856.078	15.27
856.249	17.32
856.42	18.77
856.591	17.52
856.762	19.01
856.933	15.37
857.104	15.09
857.275	19.66
857.446	21.61
857.617	20.57
857.788	22
857.959	22.31
858.13	23.67
858.301	23.33
858.472	24.29
858.643	29.81
858.814	33.58
858.985	27.06
859.155	25.34
859.326	25.27
859.497	21.96
859.668	21.23
859.839	19.32
860.009	15.31
860.18	11.95
860.351	13.66
860.522	9.79
860.692	6.51
860.863	12.21
861.034	10.66
861.204	4.5
861.375	9.68
861.546	7.78
861.716	5.36
861.887	6.36
862.057	12.11
862.228	12.58
862.398	13.33
862.569	16.8
862.739	19.09
862.91	17.62
863.08	22.64
863.251	21.89
863.421	19.75
863.592	26.39
863.762	24.22
863.932	23.84
864.103	26.16
864.273	20.01
864.443	19.84
864.614	19.83
864.784	22.39
864.954	21.08
865.125	20.96
865.295	23.56
865.465	21.11
865.635	27.59
865.805	25.8
865.976	22.85
866.146	30.24
866.316	32.57
866.486	32.78
866.656	31.88
866.826	32.28
866.996	29.6
867.166	33.71
867.336	32.88
867.506	32.95
867.676	33.72
867.846	33.11
868.016	29.74
868.186	26.41
868.356	25.83
868.526	25.28
868.696	24.13
868.866	28.95
869.036	23.84
869.206	24.28
869.376	19.77
869.545	19.08
869.715	20.13
869.885	21.27
870.055	18.76
870.224	18.45
870.394	17.37
870.564	16.44
870.734	16.83
870.903	13.02
871.073	17.31
871.243	19.02
871.412	15.39
871.582	16.12
871.751	13.21
871.921	12.75
872.091	16.24
872.26	20.09
872.43	21.92
872.599	22.68
872.769	26.99
872.938	26.58
873.108	25.03
873.277	27.36
873.446	26.42
873.616	25.14
873.785	23.76
873.955	22.08
874.124	21.09
874.293	21.1
874.463	21.71
874.632	21.62
874.801	21
874.971	24.84
875.14	24.49
875.309	24.76
875.478	30.52
875.647	34.29
875.817	34.52
875.986	33.57
876.155	32.09
876.324	32.18
876.493	34.29
876.662	30.49
876.831	25.09
877	21.35
877.17	23.36
877.339	23.13
877.508	22.08
877.677	23.08
877.846	24.75
878.015	27.11
878.184	22.89
878.352	21.05
878.521	24.1
878.69	25.74
878.859	29.7
879.028	28.83
879.197	25.31
879.366	25.8
879.534	22.3
879.703	21.33
879.872	18.39
880.041	19.9
880.21	17.72
880.378	17.7
880.547	17.46
880.716	17.19
880.884	16.28
881.053	16.56
881.222	16.56
881.39	16.75
881.559	16.07
881.727	16.87
881.896	15.71
882.065	16.47
882.233	15.98
882.402	15.37
882.57	14.96
882.739	15.36
882.907	15.51
883.076	15.02
883.244	15.13
883.412	15.54
883.581	14.93
883.749	15.91
883.918	15.37
884.086	15.16
884.254	16.81
884.423	17.95
884.591	18.77
884.759	18.78
884.927	19.33
885.096	19
885.264	19.27
885.432	21.59
885.6	21.78
885.769	21.81
885.937	23.3
886.105	23.41
886.273	23.74
886.441	22.66
886.609	25.29
886.777	29.78
886.945	30.91
887.113	30.83
887.281	29.98
887.449	29.1
887.617	32.17
887.785	32.11
887.953	30.01
888.121	26.11
888.289	25.36
888.457	21.71
888.625	18.38
888.793	20.81
888.961	20.4
889.129	17.54
889.296	22.45
889.464	21.35
889.632	20.42
889.8	20.66
889.967	26.81
890.135	26.83
