Data from 2938736__Reflection_05.txt Node
Date: Sun Mar 15 18:20:01 EDT 2015
User: robert
Spectrometer: USB4E03002
Autoset integration time: false
Trigger mode: 4
Integration Time (sec): 1.000000E-1
Scans to average: 10
Electric dark correction enabled: false
Nonlinearity correction enabled: false
Boxcar width: 5
Stray light correction enabled: false
XAxis mode: Wavelengths
Stop averaging: false
Number of Pixels in Spectrum: 3648
>>>>>Begin Spectral Data<<<<<
177.575	544.09
177.794	533.86
178.014	409.73
178.233	522.16
178.452	563.47
178.672	562.17
178.891	585.02
179.11	854.23
179.33	-2674.58
179.549	-2640.35
179.768	-34440
179.987	-5503.23
180.207	-8600
180.426	-1170.92
180.645	-2270.59
180.864	10587.5
181.084	2524.64
181.303	2133.72
181.522	1054.74
181.741	480.67
181.96	654.8
182.179	595.51
182.398	550.62
182.618	735.96
182.837	937.1
183.056	1154.8
183.275	1585.6
183.494	4291.49
183.713	7958.33
183.932	-1854.64
184.151	-1300
184.37	-1359.56
184.589	-1394.53
184.808	-626
185.027	-2338.67
185.246	6181.25
185.465	9095.45
185.684	3277.05
185.903	693.71
186.122	588.99
186.341	348.75
186.56	352.62
186.779	197.61
186.998	196.67
187.216	183.62
187.435	191.71
187.654	180.24
187.873	190.17
188.092	192.85
188.311	221.16
188.53	233.3
188.748	324.76
188.967	237.9
189.186	308.9
189.405	557.79
189.623	742.01
189.842	599.73
190.061	496.16
190.28	419.05
190.498	484.51
190.717	495.33
190.936	395.45
191.154	430.04
191.373	764.96
191.592	971.11
191.81	680.95
192.029	527.19
192.248	569.61
192.466	643.48
192.685	625.98
192.904	703.87
193.122	1068.97
193.341	805.28
193.559	510.07
193.778	427.33
193.996	455.98
194.215	372.28
194.433	405.86
194.652	350.84
194.87	389.47
195.089	353.88
195.307	362.45
195.526	363.32
195.744	595.6
195.963	668.7
196.181	3038
196.399	22700
196.618	-10831.25
196.836	-24657.14
197.055	-1785.23
197.273	-818.14
197.491	-443.37
197.71	-396.3
197.928	-726.48
198.146	-1152.41
198.365	-2652.54
198.583	3310.2
198.801	791.63
199.019	651.54
199.238	630.8
199.456	467.65
199.674	354.97
199.892	339.87
200.111	335.73
200.329	613.64
200.547	736.4
200.765	1115.12
200.983	1375.52
201.202	3483.05
201.42	2875
201.638	-48675
201.856	-2409.21
202.074	-56133.33
202.292	5164.71
202.51	1864.13
202.728	3112.5
202.946	-2971.43
203.165	-3573.81
203.383	3551.16
203.601	-2987.23
203.819	-1586.32
204.037	-1767.42
204.255	-829.63
204.473	-445.38
204.691	-457.77
204.909	-418.42
205.127	-397.35
205.345	-575.83
205.562	-460.55
205.78	-425.81
205.998	-910.49
206.216	-1251.75
206.434	-2476.79
206.652	-2580.77
206.87	-2428.57
207.088	-960.54
207.306	-2053.23
207.523	3161.7
207.741	1877.91
207.959	797.37
208.177	882.69
208.395	769.83
208.612	604.92
208.83	591.96
209.048	475.23
209.266	320.26
209.483	262.5
209.701	336.52
209.919	236.72
210.136	240.78
210.354	254.25
210.572	274.33
210.79	338.69
211.007	374.21
211.225	326.41
211.442	317.54
211.66	317.34
211.878	309.97
212.095	299.17
212.313	362.01
212.53	437.35
212.748	370.72
212.966	323.45
213.183	329.46
213.401	282.41
213.618	317.49
213.836	320.47
214.053	357.01
214.271	443.8
214.488	478.68
214.705	538.55
214.923	552.32
215.14	468.1
215.358	571.28
215.575	400.98
215.793	433.62
216.01	431.29
216.227	427.16
216.445	352.83
216.662	308.47
216.879	289.69
217.097	250.26
217.314	247.99
217.531	239.78
217.749	234.01
217.966	282.2
218.183	291.02
218.4	285.67
218.618	242.44
218.835	293.4
219.052	215.14
219.269	212.62
219.487	225.17
219.704	229.89
219.921	224.27
220.138	195.93
220.355	150.81
220.572	151.31
220.79	159.09
221.007	170.09
221.224	166.44
221.441	175.6
221.658	145.54
221.875	139.31
222.092	132.42
222.309	129.58
222.526	135.19
222.743	135.83
222.96	124.73
223.177	118.23
223.394	119.86
223.611	110.53
223.828	112.52
224.045	113.01
224.262	105.83
224.479	92.16
224.696	87.41
224.913	75
225.13	72.86
225.347	67.9
225.564	63.4
225.781	53.77
225.997	47.71
226.214	40.31
226.431	38.24
226.648	32.75
226.865	27.44
227.082	25.36
227.298	22.26
227.515	18.44
227.732	16.71
227.949	15.36
228.165	12.96
228.382	11.08
228.599	11.16
228.816	10.16
229.032	10.13
229.249	10.93
229.466	10.59
229.682	10.24
229.899	9.84
230.116	8.41
230.332	7.55
230.549	8.11
230.765	10.94
230.982	11.55
231.199	11.92
231.415	11.39
231.632	11.31
231.848	13.13
232.065	13.67
232.281	16.81
232.498	20.02
232.714	20.71
232.931	21.72
233.147	21.05
233.364	20.69
233.58	21.69
233.797	21.54
234.013	21.62
234.23	22.03
234.446	21.83
234.662	21.42
234.879	20.1
235.095	20.47
235.312	19.84
235.528	19.66
235.744	19.82
235.961	18.58
236.177	19.49
236.393	18.8
236.61	18.09
236.826	19.46
237.042	19.14
237.258	20.04
237.475	19.84
237.691	20.8
237.907	18.38
238.123	17.38
238.339	16.08
238.556	17.1
238.772	16.88
238.988	17.75
239.204	17.61
239.42	18.55
239.636	16.74
239.853	15.34
240.069	13.48
240.285	13.48
240.501	12.84
240.717	13.04
240.933	11.07
241.149	10.1
241.365	8.53
241.581	6.98
241.797	6.81
242.013	6.47
242.229	6.65
242.445	7.27
242.661	6.96
242.877	6.88
243.093	6.65
243.309	7.3
243.525	7.91
243.741	8.61
243.957	9.82
244.173	9.22
244.388	10.71
244.604	10.82
244.82	10
245.036	10.23
245.252	10.08
245.468	9.45
245.683	8.45
245.899	7.86
246.115	6.67
246.331	5.76
246.547	5.56
246.762	4.99
246.978	4.76
247.194	4.52
247.409	4.18
247.625	4.1
247.841	3.82
248.057	4.03
248.272	4.01
248.488	4.22
248.703	4.6
248.919	4.84
249.135	5.26
249.35	5.68
249.566	6.86
249.782	7.41
249.997	8.06
250.213	9.05
250.428	8.92
250.644	8.39
250.859	8.62
251.075	9.29
251.29	9.56
251.506	9.11
251.721	8.83
251.937	8.39
252.152	8.17
252.368	8.03
252.583	7.86
252.798	8.16
253.014	8.19
253.229	9.03
253.445	8.69
253.66	8.9
253.875	9.64
254.091	10.08
254.306	9.26
254.521	10.58
254.737	10.67
254.952	11.1
255.167	11.34
255.383	12.43
255.598	12.52
255.813	12.39
256.028	11.2
256.244	10.51
256.459	9.55
256.674	10.11
256.889	9.94
257.104	9.81
257.32	9.72
257.535	8.86
257.75	8.39
257.965	7.85
258.18	6.71
258.395	6.61
258.61	6.25
258.826	6.21
259.041	5.54
259.256	5.12
259.471	4.6
259.686	3.91
259.901	3.67
260.116	3.46
260.331	3.07
260.546	3.26
260.761	3.09
260.976	3.05
261.191	3.19
261.406	3.32
261.621	3.15
261.836	3.05
262.05	3.9
262.265	4.98
262.48	5.48
262.695	5.75
262.91	6.16
263.125	6.84
263.34	7.31
263.555	7.95
263.769	8.33
263.984	8.71
264.199	9.41
264.414	8.9
264.629	8.75
264.843	8.18
265.058	8.4
265.273	8.22
265.488	7.59
265.702	6.74
265.917	5.62
266.132	6.03
266.346	5.37
266.561	5.16
266.776	5.53
266.99	5.06
267.205	5.35
267.42	5.09
267.634	4.98
267.849	4.91
268.063	5.63
268.278	6.3
268.492	5.93
268.707	6.82
268.922	6.82
269.136	6.4
269.351	6.16
269.565	6.09
269.78	6.37
269.994	6.36
270.209	6.22
270.423	5.54
270.637	5.01
270.852	5.19
271.066	4.98
271.281	5.15
271.495	5.15
271.709	5.02
271.924	5.23
272.138	4.84
272.353	4.76
272.567	5.1
272.781	5.46
272.996	5.28
273.21	5.04
273.424	4.5
273.638	4.43
273.853	4.58
274.067	4.73
274.281	4.64
274.495	4.97
274.71	5.07
274.924	4.92
275.138	4.64
275.352	5.19
275.566	4.83
275.781	5.37
275.995	5.4
276.209	5.49
276.423	5.59
276.637	5.36
276.851	5.28
277.065	5.44
277.279	5.12
277.493	4.98
277.707	4.49
277.921	5.17
278.135	5.19
278.349	5.27
278.563	5.21
278.777	4.91
278.991	4.89
279.205	5.38
279.419	5.13
279.633	5.51
279.847	5.35
280.061	5.32
280.275	5.61
280.489	5.74
280.703	5.29
280.917	5.1
281.131	5.35
281.344	5.4
281.558	4.88
281.772	5.26
281.986	5.44
282.2	5.58
282.414	5.53
282.627	5.31
282.841	4.77
283.055	4.9
283.269	4.62
283.482	4.64
283.696	4.34
283.91	4.3
284.123	3.33
284.337	2.81
284.551	2.86
284.764	2.73
284.978	2.33
285.192	2.51
285.405	2.6
285.619	2.85
285.833	2.65
286.046	2.82
286.26	2.77
286.473	3.18
286.687	3.43
286.9	3.55
287.114	3.76
287.327	3.99
287.541	3.99
287.754	3.76
287.968	4.04
288.181	3.99
288.395	4.08
288.608	3.96
288.822	3.66
289.035	3.68
289.248	3.48
289.462	3.46
289.675	3.38
289.889	3.43
290.102	3.77
290.315	3.32
290.529	3.41
290.742	3.3
290.955	3.54
291.169	3.91
291.382	4.04
291.595	4.25
291.808	4.35
292.022	4.43
292.235	4.02
292.448	4.3
292.661	4.45
292.875	4.6
293.088	4.29
293.301	4.37
293.514	4.12
293.727	4.16
293.94	3.56
294.153	3.67
294.367	3.4
294.58	3.7
294.793	3.04
295.006	3.14
295.219	3.31
295.432	3.74
295.645	3.88
295.858	3.8
296.071	3.37
296.284	3.74
296.497	3.67
296.71	3.72
296.923	3.72
297.136	3.84
297.349	3.83
297.562	3.65
297.775	3.54
297.988	3.54
298.201	3.72
298.414	3.86
298.626	3.64
298.839	3.87
299.052	4.21
299.265	3.96
299.478	4.32
299.691	4.22
299.903	4.37
300.116	4.34
300.329	4.29
300.542	4.16
300.755	4.09
300.967	4.51
301.18	4.31
301.393	3.86
301.605	4.19
301.818	3.64
302.031	3.67
302.243	3.62
302.456	4.07
302.669	4.07
302.881	4.2
303.094	4.42
303.307	3.92
303.519	3.75
303.732	4.01
303.944	3.96
304.157	4.42
304.37	4.63
304.582	4.53
304.795	4.2
305.007	4.07
305.22	4.28
305.432	4.29
305.645	4.47
305.857	4.67
306.069	4.73
306.282	4.51
306.494	4.08
306.707	3.92
306.919	3.92
307.132	3.62
307.344	4.02
307.556	4.07
307.769	4.34
307.981	4.34
308.193	4.25
308.406	3.88
308.618	4.41
308.83	4.71
309.043	4.9
309.255	4.73
309.467	4.9
309.679	4.57
309.892	4.6
310.104	4.17
310.316	4.39
310.528	4.4
310.74	4.35
310.953	4.5
311.165	4.66
311.377	4.28
311.589	4.44
311.801	4.46
312.013	4.4
312.225	4.59
312.437	4.9
312.649	4.75
312.862	4.89
313.074	5.36
313.286	5.13
313.498	4.99
313.71	5.41
313.922	5.89
314.134	5.78
314.346	5.74
314.558	5.45
314.77	5.63
314.982	5.12
315.193	4.75
315.405	4.98
315.617	4.83
315.829	4.66
316.041	4.51
316.253	4.21
316.465	4.93
316.677	5.39
316.888	5.15
317.1	4.75
317.312	5.56
317.524	5.89
317.736	5.43
317.947	5.82
318.159	6.39
318.371	6.76
318.583	6.93
318.794	6.71
319.006	6.44
319.218	6.84
319.43	7.15
319.641	7.21
319.853	7.47
320.064	7.79
320.276	7.97
320.488	8.28
320.699	8.23
320.911	8.29
321.123	8.31
321.334	8.51
321.546	8.56
321.757	8.88
321.969	9.05
322.18	9.28
322.392	8.98
322.603	8.75
322.815	8.18
323.026	8.29
323.238	8.2
323.449	8.02
323.661	8.31
323.872	7.87
324.083	7.71
324.295	7.32
324.506	6.76
324.718	6.99
324.929	7.2
325.14	7.33
325.352	7.28
325.563	7.55
325.774	7.75
325.986	7.92
326.197	8.39
326.408	8.4
326.62	8.52
326.831	8.68
327.042	8.77
327.253	8.91
327.464	9.23
327.676	9.41
327.887	9.42
328.098	9.55
328.309	9.37
328.52	9.36
328.732	9.61
328.943	9.95
329.154	10.99
329.365	11.45
329.576	11.52
329.787	11.75
329.998	12.05
330.209	12.4
330.42	12.54
330.631	12.47
330.842	13.21
331.053	13.34
331.264	13.86
331.475	13.52
331.686	13.68
331.897	13.37
332.108	13.08
332.319	13.12
332.53	13.07
332.741	13.39
332.952	14.29
333.163	13.71
333.374	13.94
333.585	14
333.795	14.12
334.006	14.08
334.217	14.58
334.428	14.55
334.639	14.43
334.849	14.18
335.06	14.25
335.271	13.92
335.482	14.58
335.692	14.57
335.903	14.38
336.114	14.27
336.325	14.8
336.535	14.98
336.746	15.23
336.957	15.51
337.167	15.61
337.378	15.58
337.589	15.66
337.799	15.36
338.01	15.51
338.22	15.8
338.431	15.93
338.642	15.37
338.852	15.29
339.063	15.55
339.273	15.34
339.484	15.52
339.694	15.5
339.905	15.48
340.115	15.36
340.326	15.28
340.536	14.89
340.746	14.93
340.957	14.82
341.167	14.82
341.378	14.58
341.588	14.71
341.799	14.83
342.009	14.58
342.219	14.46
342.43	14.92
342.64	14.56
342.85	14.59
343.061	14.49
343.271	14.76
343.481	15
343.691	14.94
343.902	14.87
344.112	14.87
344.322	15.01
344.532	14.88
344.743	14.54
344.953	14.55
345.163	14.96
345.373	15.09
345.583	14.76
345.793	14.54
346.004	14.78
346.214	14.76
346.424	14.68
346.634	14.87
346.844	15.17
347.054	15.31
347.264	15.58
347.474	15.22
347.684	15.43
347.894	15.57
348.104	15.69
348.314	15.63
348.524	15.67
348.734	15.51
348.944	15.05
349.154	15.06
349.364	14.9
349.574	14.63
349.784	14.7
349.994	14.19
350.204	14.5
350.413	14.09
350.623	14
350.833	14.12
351.043	13.92
351.253	14.33
351.463	13.82
351.672	13.89
351.882	14.27
352.092	14.04
352.302	14.44
352.511	14.2
352.721	14.51
352.931	14.5
353.141	14.32
353.35	14.66
353.56	14.57
353.77	14.81
353.979	14.89
354.189	14.79
354.399	14.64
354.608	14.4
354.818	14.79
355.027	14.85
355.237	15.07
355.447	15.03
355.656	15.11
355.866	15.06
356.075	15.13
356.285	15.09
356.494	14.82
356.704	14.97
356.913	14.96
357.123	14.55
357.332	14.43
357.542	14.32
357.751	14.34
357.96	14.33
358.17	14.25
358.379	13.97
358.589	13.87
358.798	13.63
359.007	13.85
359.217	13.64
359.426	13.45
359.635	13.34
359.845	13.02
360.054	12.96
360.263	12.82
360.472	12.79
360.682	13.16
360.891	13.12
361.1	13.34
361.309	13.13
361.519	13.11
361.728	13.41
361.937	13.43
362.146	13.39
362.355	13.6
362.564	13.6
362.774	13.54
362.983	13.42
363.192	13.49
363.401	13.71
363.61	13.71
363.819	13.98
364.028	13.75
364.237	13.64
364.446	13.66
364.655	13.54
364.864	13.6
365.073	13.62
365.282	13.57
365.491	13.54
365.7	13.49
365.909	13.53
366.118	13.41
366.327	13.35
366.536	13.55
366.745	13.71
366.954	13.75
367.162	13.5
367.371	13.62
367.58	13.71
367.789	13.6
367.998	13.75
368.207	13.55
368.415	13.44
368.624	13.59
368.833	13.54
369.042	13.44
369.25	13.38
369.459	13.59
369.668	13.45
369.877	13.33
370.085	13.34
370.294	13.21
370.503	13.4
370.711	13.43
370.92	13.43
371.129	13.3
371.337	13.24
371.546	13.19
371.754	13.06
371.963	13.37
372.171	13.33
372.38	13.4
372.589	13.15
372.797	13.49
373.006	13.55
373.214	13.44
373.423	13.43
373.631	13.39
373.84	13.45
374.048	13.83
374.256	13.65
374.465	13.73
374.673	13.78
374.882	13.77
375.09	13.62
375.298	13.67
375.507	13.67
375.715	13.7
375.923	13.79
376.132	13.88
376.34	13.48
376.548	13.41
376.757	13.3
376.965	13.26
377.173	13.15
377.381	13.09
377.59	13.05
377.798	12.97
378.006	13.17
378.214	13.37
378.423	13.04
378.631	13
378.839	13.07
379.047	13.29
379.255	13.11
379.463	13.51
379.671	13.45
379.879	13.44
380.088	13.62
380.296	13.41
380.504	13.35
380.712	13.58
380.92	13.82
381.128	13.72
381.336	13.46
381.544	13.67
381.752	13.36
381.96	13.38
382.168	13.44
382.376	13.35
382.584	13.49
382.791	13.27
382.999	13.4
383.207	13.21
383.415	13.26
383.623	13.42
383.831	13.26
384.039	13.58
384.247	13.81
384.454	13.74
384.662	13.73
384.87	13.44
385.078	13.54
385.285	13.27
385.493	13.47
385.701	13.37
385.909	13.14
386.116	13.45
386.324	13.32
386.532	13
386.739	13.23
386.947	13.15
387.155	13.36
387.362	13.36
387.57	13.55
387.778	13.67
387.985	13.81
388.193	14.02
388.4	13.75
388.608	13.64
388.816	13.74
389.023	13.46
389.231	13.32
389.438	13.36
389.646	13.44
389.853	13.22
390.061	13.2
390.268	13
390.475	13.02
390.683	13.1
390.89	13.01
391.098	12.87
391.305	12.79
391.512	13.06
391.72	12.97
391.927	12.86
392.135	12.74
392.342	12.61
392.549	12.56
392.756	12.61
392.964	12.64
393.171	12.85
393.378	12.87
393.586	12.85
393.793	12.71
394	12.63
394.207	12.6
394.414	12.83
394.622	12.8
394.829	12.82
395.036	12.49
395.243	12.29
395.45	12.18
395.657	12.28
395.864	12.4
396.072	12.45
396.279	12.52
396.486	12.62
396.693	12.56
396.9	12.5
397.107	12.45
397.314	12.63
397.521	12.75
397.728	12.72
397.935	12.63
398.142	12.66
398.349	12.43
398.556	12.6
398.763	12.58
398.97	12.69
399.177	12.78
399.383	12.86
399.59	13.06
399.797	13.05
400.004	13.17
400.211	13.07
400.418	13.03
400.625	13.34
400.831	13.12
401.038	12.97
401.245	12.88
401.452	12.87
401.658	13.02
401.865	12.94
402.072	12.96
402.279	12.93
402.485	13.06
402.692	13.1
402.899	12.94
403.105	13
403.312	13.15
403.519	13.12
403.725	13.03
403.932	13.01
404.138	12.9
404.345	12.86
404.552	12.87
404.758	12.91
404.965	12.87
405.171	12.94
405.378	13
405.584	12.99
405.791	13.09
405.997	13.18
406.204	13.12
406.41	13.03
406.617	13.25
406.823	13.22
407.029	13.38
407.236	13.5
407.442	13.52
407.649	13.43
407.855	13.43
408.061	13.41
408.268	13.22
408.474	13.28
408.68	13.29
408.887	13.21
409.093	13.21
409.299	13
409.505	12.84
409.712	12.87
409.918	12.96
410.124	13
410.33	13.05
410.537	13.19
410.743	13.11
410.949	13.35
411.155	13.29
411.361	13.15
411.567	13.09
411.773	13.37
411.98	13.33
412.186	13.53
412.392	13.44
412.598	13.18
412.804	13.33
413.01	13.32
413.216	13.33
413.422	13.36
413.628	13.35
413.834	13.48
414.04	13.31
414.246	13.41
414.452	13.2
414.658	13.35
414.864	13.56
415.07	13.41
415.275	13.43
415.481	13.41
415.687	13.37
415.893	13.47
416.099	13.41
416.305	13.38
416.511	13.29
416.716	13.3
416.922	13.12
417.128	13.06
417.334	13.05
417.539	13.03
417.745	13.02
417.951	12.94
418.157	12.87
418.362	12.74
418.568	12.7
418.774	12.78
418.979	12.67
419.185	12.65
419.391	12.57
419.596	12.61
419.802	12.58
420.008	12.45
420.213	12.54
420.419	12.47
420.624	12.5
420.83	12.48
421.035	12.39
421.241	12.45
421.446	12.43
421.652	12.42
421.857	12.41
422.063	12.47
422.268	12.49
422.474	12.46
422.679	12.58
422.885	12.6
423.09	12.63
423.295	12.63
423.501	12.49
423.706	12.6
423.911	12.63
424.117	12.61
424.322	12.56
424.527	12.57
424.733	12.62
424.938	12.54
425.143	12.64
425.349	12.63
425.554	12.61
425.759	12.79
425.964	12.82
426.169	12.83
426.375	12.9
426.58	12.96
426.785	12.97
426.99	12.9
427.195	12.99
427.4	13.02
427.605	13.08
427.811	13.16
428.016	13.05
428.221	13
428.426	13.11
428.631	13.11
428.836	13.14
429.041	13.23
429.246	13.23
429.451	13.21
429.656	13.12
429.861	12.98
430.066	13.05
430.271	13.21
430.476	13.06
430.681	13.09
430.886	13.07
431.09	13.06
431.295	13.05
431.5	13.16
431.705	13.14
431.91	13.18
432.115	13.33
432.32	13.25
432.524	13.19
432.729	13.49
432.934	13.37
433.139	13.31
433.343	13.35
433.548	13.35
433.753	13.24
433.958	13.37
434.162	13.34
434.367	13.35
434.572	13.31
434.776	13.38
434.981	13.25
435.186	13.34
435.39	13.34
435.595	13.39
435.799	13.34
436.004	13.31
436.209	13.21
436.413	13.29
436.618	13.28
436.822	13.31
437.027	13.22
437.231	13.19
437.436	13.07
437.64	13.13
437.845	13.07
438.049	13.08
438.253	13.12
438.458	13.14
438.662	13.03
438.867	13
439.071	13.03
439.275	13.07
439.48	13.09
439.684	13.14
439.888	13.1
440.093	13.01
440.297	12.96
440.501	12.97
440.706	12.9
440.91	12.9
441.114	12.96
441.318	12.94
441.523	12.94
441.727	12.83
441.931	12.73
442.135	12.81
442.339	12.94
442.543	13.08
442.748	13.13
442.952	13.26
443.156	13.24
443.36	13.17
443.564	13.21
443.768	13.23
443.972	13.31
444.176	13.42
444.38	13.36
444.584	13.28
444.788	13.2
444.992	13.11
445.196	12.98
445.4	13.02
445.604	13.06
445.808	12.96
446.012	12.89
446.216	12.87
446.42	12.79
446.624	12.84
446.828	12.85
447.032	12.86
447.235	12.96
447.439	13.07
447.643	13.09
447.847	13.1
448.051	13.21
448.254	13.23
448.458	13.38
448.662	13.49
448.866	13.43
449.069	13.47
449.273	13.54
449.477	13.5
449.681	13.46
449.884	13.49
450.088	13.46
450.292	13.47
450.495	13.48
450.699	13.49
450.902	13.45
451.106	13.45
451.31	13.43
451.513	13.37
451.717	13.42
451.92	13.43
452.124	13.29
452.327	13.29
452.531	13.31
452.734	13.34
452.938	13.34
453.141	13.32
453.345	13.3
453.548	13.35
453.752	13.47
453.955	13.48
454.158	13.49
454.362	13.66
454.565	13.72
454.769	13.81
454.972	13.9
455.175	13.74
455.379	13.85
455.582	14.01
455.785	13.93
455.988	13.83
456.192	13.62
456.395	13.65
456.598	13.65
456.801	13.59
457.005	13.45
457.208	13.38
457.411	13.5
457.614	13.47
457.817	13.3
458.021	13.25
458.224	13.3
458.427	13.31
458.63	13.36
458.833	13.26
459.036	13.18
459.239	13.13
459.442	13.11
459.645	13.09
459.848	13.06
460.051	13.11
460.254	13.14
460.457	13.16
460.66	13.26
460.863	13.17
461.066	13.21
461.269	13.31
461.472	13.36
461.675	13.36
461.878	13.4
462.081	13.49
462.284	13.44
462.486	13.52
462.689	13.46
462.892	13.41
463.095	13.49
463.298	13.47
463.5	13.43
463.703	13.32
463.906	13.47
464.109	13.42
464.311	13.49
464.514	13.54
464.717	13.5
464.92	13.58
465.122	13.62
465.325	13.66
465.528	13.72
465.73	13.78
465.933	13.93
466.135	13.87
466.338	13.92
466.541	13.85
466.743	13.8
466.946	13.76
467.148	13.64
467.351	13.51
467.553	13.44
467.756	13.43
467.958	13.45
468.161	13.41
468.363	13.37
468.566	13.33
468.768	13.24
468.971	13.34
469.173	13.52
469.375	13.53
469.578	13.7
469.78	13.69
469.983	13.63
470.185	13.65
470.387	13.68
470.59	13.72
470.792	13.72
470.994	13.82
471.196	13.86
471.399	13.58
471.601	13.72
471.803	13.76
472.005	13.77
472.208	13.85
472.41	13.7
472.612	13.75
472.814	13.73
473.016	13.7
473.218	13.7
473.421	13.68
473.623	13.75
473.825	13.71
474.027	13.64
474.229	13.63
474.431	13.54
474.633	13.54
474.835	13.45
475.037	13.47
475.239	13.38
475.441	13.3
475.643	13.25
475.845	13.25
476.047	13.23
476.249	13.29
476.451	13.25
476.653	13.3
476.855	13.35
477.057	13.43
477.258	13.39
477.46	13.39
477.662	13.43
477.864	13.36
478.066	13.38
478.268	13.28
478.469	13.33
478.671	13.32
478.873	13.3
479.075	13.28
479.276	13.21
479.478	13.21
479.68	13.26
479.882	13.21
480.083	13.29
480.285	13.3
480.487	13.27
480.688	13.12
480.89	13.15
481.091	13.07
481.293	13.06
481.495	13.06
481.696	12.97
481.898	12.93
482.099	12.83
482.301	12.74
482.502	12.68
482.704	12.64
482.905	12.58
483.107	12.5
483.308	12.49
483.51	12.49
483.711	12.49
483.913	12.47
484.114	12.46
484.315	12.5
484.517	12.55
484.718	12.56
484.92	12.63
485.121	12.67
485.322	12.75
485.524	12.8
485.725	12.82
485.926	12.82
486.127	12.87
486.329	12.87
486.53	12.85
486.731	12.85
486.932	12.85
487.134	12.83
487.335	12.85
487.536	12.8
487.737	12.75
487.938	12.78
488.139	12.75
488.341	12.72
488.542	12.73
488.743	12.8
488.944	12.81
489.145	12.8
489.346	12.84
489.547	12.84
489.748	12.89
489.949	12.98
490.15	12.94
490.351	12.96
490.552	12.97
490.753	12.98
490.954	12.9
491.155	12.88
491.356	12.91
491.557	12.91
491.758	12.91
491.959	12.93
492.159	12.92
492.36	12.97
492.561	12.99
492.762	13.07
492.963	13.11
493.164	13.17
493.364	13.19
493.565	13.23
493.766	13.22
493.967	13.22
494.167	13.27
494.368	13.36
494.569	13.39
494.769	13.48
494.97	13.46
495.171	13.45
495.371	13.38
495.572	13.43
495.773	13.3
495.973	13.33
496.174	13.4
496.375	13.34
496.575	13.13
496.776	13.16
496.976	13.16
497.177	13.12
497.377	13.08
497.578	13.17
497.778	13.15
497.979	13.27
498.179	13.32
498.38	13.35
498.58	13.3
498.78	13.44
498.981	13.49
499.181	13.51
499.382	13.57
499.582	13.67
499.782	13.73
499.983	13.72
500.183	13.75
500.383	13.74
500.584	13.75
500.784	13.89
500.984	13.84
501.184	13.72
501.385	13.7
501.585	13.61
501.785	13.59
501.985	13.58
502.185	13.6
502.386	13.64
502.586	13.69
502.786	13.63
502.986	13.67
503.186	13.77
503.386	13.87
503.586	13.83
503.786	14.01
503.987	14.05
504.187	13.98
504.387	14.05
504.587	13.98
504.787	13.89
504.987	13.96
505.187	13.98
505.387	13.95
505.587	14.04
505.786	14.13
505.986	14.07
506.186	14.1
506.386	14.15
506.586	14.06
506.786	14.06
506.986	14.05
507.186	14.01
507.386	13.96
507.585	14.04
507.785	13.82
507.985	13.74
508.185	13.76
508.384	13.77
508.584	13.81
508.784	13.86
508.984	13.89
509.183	13.97
509.383	14.02
509.583	13.99
509.782	14
509.982	14.08
510.182	14.15
510.381	14.1
510.581	14.13
510.781	14.16
510.98	14.21
511.18	14.23
511.379	14.32
511.579	14.31
511.778	14.36
511.978	14.39
512.177	14.4
512.377	14.43
512.576	14.43
512.776	14.24
512.975	14.17
513.175	14.23
513.374	14.28
513.573	14.31
513.773	14.31
513.972	14.26
514.172	14.11
514.371	14.22
514.57	14.22
514.77	14.39
514.969	14.56
515.168	14.75
515.367	14.65
515.567	14.67
515.766	14.47
515.965	14.57
516.164	14.56
516.364	14.65
516.563	14.67
516.762	14.59
516.961	14.63
517.16	14.63
517.359	14.57
517.559	14.6
517.758	14.52
517.957	14.56
518.156	14.51
518.355	14.61
518.554	14.65
518.753	14.64
518.952	14.71
519.151	14.57
519.35	14.58
519.549	14.58
519.748	14.55
519.947	14.63
520.146	14.66
520.345	14.77
520.544	14.76
520.743	14.86
520.942	14.83
521.141	14.82
521.339	14.96
521.538	14.92
521.737	14.91
521.936	15.02
522.135	14.96
522.333	15.05
522.532	14.9
522.731	14.9
522.93	14.88
523.129	15
523.327	15.04
523.526	14.98
523.725	15.04
523.923	15.05
524.122	14.96
524.321	15.06
524.519	15.05
524.718	15.11
524.917	15.1
525.115	14.97
525.314	14.88
525.512	14.84
525.711	14.79
525.909	14.83
526.108	14.78
526.306	14.79
526.505	14.75
526.703	14.72
526.902	14.65
527.1	14.63
527.299	14.62
527.497	14.65
527.696	14.63
527.894	14.68
528.092	14.63
528.291	14.61
528.489	14.63
528.688	14.58
528.886	14.59
529.084	14.68
529.283	14.71
529.481	14.78
529.679	14.83
529.877	14.89
530.076	14.91
530.274	14.98
530.472	15.11
530.67	15.12
530.869	15.25
531.067	15.3
531.265	15.24
531.463	15.28
531.661	15.23
531.859	15.16
532.057	15.14
532.255	15.1
532.454	15.05
532.652	14.97
532.85	14.99
533.048	15
533.246	14.95
533.444	14.94
533.642	14.96
533.84	15.04
534.038	15.1
534.236	15.13
534.434	15.18
534.632	15.18
534.83	15.21
535.027	15.22
535.225	15.14
535.423	15.21
535.621	15.32
535.819	15.31
536.017	15.3
536.215	15.31
536.412	15.33
536.61	15.36
536.808	15.45
537.006	15.51
537.203	15.54
537.401	15.71
537.599	15.68
537.797	15.73
537.994	15.8
538.192	15.9
538.39	15.94
538.587	15.9
538.785	15.86
538.983	15.79
539.18	15.79
539.378	15.77
539.575	15.67
539.773	15.66
539.97	15.61
540.168	15.53
540.366	15.42
540.563	15.37
540.761	15.38
540.958	15.37
541.155	15.39
541.353	15.37
541.55	15.36
541.748	15.31
541.945	15.32
542.143	15.3
542.34	15.32
542.537	15.39
542.735	15.41
542.932	15.42
543.129	15.43
543.327	15.49
543.524	15.56
543.721	15.61
543.919	15.76
544.116	15.82
544.313	15.9
544.51	15.87
544.708	15.92
544.905	16.04
545.102	16.15
545.299	16.2
545.496	16.19
545.693	16.21
545.891	16.24
546.088	16.25
546.285	16.3
546.482	16.3
546.679	16.36
546.876	16.35
547.073	16.22
547.27	16.2
547.467	16.31
547.664	16.37
547.861	16.38
548.058	16.4
548.255	16.43
548.452	16.47
548.649	16.45
548.846	16.53
549.043	16.56
549.24	16.7
549.437	16.79
549.633	16.66
549.83	16.64
550.027	16.63
550.224	16.57
550.421	16.45
550.618	16.45
550.814	16.55
551.011	16.45
551.208	16.45
551.405	16.4
551.601	16.3
551.798	16.33
551.995	16.26
552.191	16.12
552.388	16.17
552.585	16.25
552.781	16.15
552.978	16.16
553.175	16.24
553.371	16.21
553.568	16.25
553.764	16.27
553.961	16.35
554.157	16.44
554.354	16.55
554.55	16.58
554.747	16.54
554.943	16.53
555.14	16.44
555.336	16.32
555.533	16.35
555.729	16.26
555.926	16.21
556.122	16.04
556.318	16.01
556.515	16.09
556.711	16.21
556.907	16.21
557.104	16.2
557.3	16.36
557.496	16.36
557.693	16.36
557.889	16.44
558.085	16.41
558.281	16.63
558.478	16.84
558.674	16.82
558.87	16.75
559.066	16.88
559.262	17.03
559.459	16.83
559.655	16.98
559.851	17
560.047	16.97
560.243	17.1
560.439	16.98
560.635	16.8
560.831	16.77
561.027	16.64
561.223	16.55
561.419	16.44
561.615	16.65
561.811	16.7
562.007	16.73
562.203	16.69
562.399	16.7
562.595	16.76
562.791	16.78
562.987	16.76
563.183	16.84
563.379	16.91
563.575	16.98
563.771	16.87
563.966	16.8
564.162	16.65
564.358	16.73
564.554	16.58
564.75	16.47
564.945	16.43
565.141	16.42
565.337	16.51
565.533	16.43
565.728	16.42
565.924	16.31
566.12	16.3
566.315	16.34
566.511	16.33
566.707	16.28
566.902	16.35
567.098	16.42
567.293	16.43
567.489	16.28
567.684	16.33
567.88	16.37
568.076	16.55
568.271	16.59
568.467	16.59
568.662	16.58
568.858	16.59
569.053	16.59
569.248	16.5
569.444	16.42
569.639	16.48
569.835	16.42
570.03	16.41
570.225	16.37
570.421	16.23
570.616	16.27
570.812	16.25
571.007	16.38
571.202	16.27
571.397	16.29
571.593	16.41
571.788	16.4
571.983	16.46
572.178	16.4
572.374	16.38
572.569	16.43
572.764	16.36
572.959	16.36
573.154	16.3
573.35	16.37
573.545	16.43
573.74	16.3
573.935	16.23
574.13	16.28
574.325	16.22
574.52	16.21
574.715	16.25
574.91	16.17
575.105	16.22
575.3	16.24
575.495	16.19
575.69	16.24
575.885	16.42
576.08	16.48
576.275	16.48
576.47	16.64
576.665	16.66
576.86	16.7
577.055	16.9
577.25	16.96
577.444	17.12
577.639	17.23
577.834	17.19
578.029	17.17
578.224	17.21
578.418	17.31
578.613	17.32
578.808	17.51
579.003	17.51
579.197	17.53
579.392	17.46
579.587	17.38
579.781	17.59
579.976	17.52
580.171	17.51
580.365	17.55
580.56	17.43
580.755	17.35
580.949	17.17
581.144	17.09
581.338	17.05
581.533	17.09
581.727	17.16
581.922	17.02
582.116	17.21
582.311	17.12
582.505	17.18
582.7	17.06
582.894	17
583.089	17.1
583.283	17.28
583.478	17.28
583.672	17.4
583.866	17.38
584.061	17.43
584.255	17.43
584.449	17.61
584.644	17.59
584.838	17.59
585.032	17.67
585.226	17.65
585.421	17.5
585.615	17.52
585.809	17.43
586.003	17.42
586.198	17.43
586.392	17.54
586.586	17.47
586.78	17.45
586.974	17.53
587.168	17.67
587.363	17.73
587.557	17.65
587.751	17.75
587.945	17.78
588.139	17.93
588.333	17.94
588.527	17.71
588.721	17.71
588.915	17.68
589.109	17.62
589.303	17.58
589.497	17.56
589.691	17.62
589.885	17.48
590.079	17.5
590.273	17.46
590.466	17.54
590.66	17.53
590.854	17.55
591.048	17.63
591.242	17.79
591.436	17.82
591.629	17.86
591.823	17.89
592.017	18.13
592.211	18.12
592.404	18.07
592.598	17.84
592.792	18.08
592.986	18.18
593.179	17.96
593.373	17.99
593.567	17.94
593.76	17.88
593.954	17.95
594.147	17.89
594.341	17.86
594.535	17.83
594.728	17.83
594.922	17.64
595.115	17.39
595.309	17.61
595.502	17.41
595.696	17.31
595.889	17.19
596.083	16.99
596.276	16.86
596.47	16.85
596.663	16.81
596.856	16.86
597.05	17
597.243	17.12
597.437	16.98
597.63	17.18
597.823	17.18
598.017	17.28
598.21	17.34
598.403	17.54
598.596	17.65
598.79	17.65
598.983	17.66
599.176	17.6
599.369	17.63
599.563	17.9
599.756	17.86
599.949	18.07
600.142	18.04
600.335	18.28
600.528	18.07
600.722	17.87
600.915	17.83
601.108	17.95
601.301	17.84
601.494	17.86
601.687	17.65
601.88	17.58
602.073	17.39
602.266	17.39
602.459	17.2
602.652	17.25
602.845	17.46
603.038	17.39
603.231	17.34
603.424	17.28
603.617	17.2
603.809	17.21
604.002	17.11
604.195	17.25
604.388	17.22
604.581	17.36
604.774	17.32
604.966	17.2
605.159	17.34
605.352	17.23
605.545	17.28
605.737	17.35
605.93	17.41
606.123	17.47
606.316	17.39
606.508	17.56
606.701	17.47
606.894	17.66
607.086	17.58
607.279	17.68
607.471	17.61
607.664	17.79
607.857	17.88
608.049	18.03
608.242	18.09
608.434	18.14
608.627	18.16
608.819	18.2
609.012	18.2
609.204	18.56
609.397	18.8
609.589	19.3
609.782	19.61
609.974	20.05
610.166	20.3
610.359	20.82
610.551	21.21
610.743	21.48
610.936	22
611.128	22.27
611.32	22.61
611.513	22.54
611.705	22.62
611.897	22.58
612.09	22.48
612.282	22.43
612.474	22.19
612.666	22.07
612.858	22.02
613.051	21.91
613.243	21.76
613.435	21.36
613.627	21.23
613.819	21.03
614.011	20.98
614.203	20.93
614.395	20.66
614.588	20.55
614.78	20.58
614.972	20.36
615.164	20.08
615.356	20.09
615.548	20.1
615.74	20.28
615.932	20.26
616.124	20.09
616.315	19.98
616.507	20.03
616.699	20.01
616.891	19.71
617.083	19.75
617.275	19.79
617.467	19.6
617.659	19.46
617.85	19.19
618.042	19.11
618.234	19.07
618.426	18.68
618.618	18.57
618.809	18.42
619.001	18.5
619.193	18.44
619.384	18.23
619.576	18.33
619.768	18.44
619.959	18.6
620.151	18.58
620.343	18.6
620.534	18.71
620.726	18.75
620.917	18.7
621.109	18.73
621.301	18.79
621.492	18.99
621.684	19.03
621.875	18.89
622.067	18.76
622.258	18.68
622.45	18.68
622.641	18.66
622.832	18.6
623.024	18.82
623.215	18.84
623.407	18.75
623.598	18.66
623.789	18.7
623.981	18.64
624.172	18.79
624.363	18.9
624.555	18.88
624.746	18.95
624.937	19.15
625.129	19.09
625.32	19.08
625.511	19.08
625.702	19.11
625.893	19
626.085	18.96
626.276	19.06
626.467	19.04
626.658	18.99
626.849	19.02
627.04	19.02
627.231	19.06
627.422	18.93
627.614	18.77
627.805	18.65
627.996	18.75
628.187	18.97
628.378	18.68
628.569	18.85
628.76	18.93
628.951	19
629.142	18.94
629.332	18.89
629.523	19.02
629.714	19.29
629.905	19.41
630.096	19.28
630.287	19.16
630.478	19.48
630.669	19.32
630.859	19.4
631.05	19.43
631.241	19.4
631.432	19.48
631.623	19.4
631.813	19.42
632.004	19.47
632.195	19.42
632.385	19.4
632.576	19.12
632.767	18.99
632.957	18.9
633.148	18.81
633.339	18.55
633.529	18.47
633.72	18.49
633.91	18.32
634.101	18.25
634.292	18.33
634.482	18.32
634.673	18.55
634.863	18.55
635.054	18.52
635.244	18.56
635.435	18.65
635.625	18.73
635.815	18.49
636.006	18.69
636.196	18.71
636.387	18.73
636.577	18.8
636.767	18.75
636.958	18.84
637.148	18.88
637.338	18.9
637.529	19.03
637.719	18.83
637.909	19.27
638.099	19.21
638.29	19.29
638.48	19.3
638.67	19.26
638.86	19.34
639.05	19.21
639.241	19.36
639.431	19.17
639.621	19.19
639.811	19.52
640.001	19.63
640.191	19.82
640.381	19.75
640.571	19.72
640.761	19.89
640.951	19.54
641.141	19.72
641.331	19.73
641.521	19.85
641.711	19.94
641.901	19.5
642.091	19.34
642.281	19.03
642.471	19.24
642.661	19.33
642.851	19.2
643.041	19.56
643.231	19.55
643.42	19.55
643.61	19.55
643.8	19.68
643.99	20.04
644.18	19.99
644.369	20.22
644.559	19.9
644.749	19.98
644.939	20.06
645.128	19.71
645.318	19.78
645.508	19.88
645.697	19.7
645.887	19.66
646.076	19.64
646.266	19.93
646.456	19.71
646.645	20.17
646.835	20.02
647.024	20.09
647.214	20.12
647.403	20.07
647.593	19.87
647.782	20.1
647.972	20.05
648.161	19.97
648.351	19.67
648.54	19.73
648.73	19.57
648.919	19.52
649.108	19.42
649.298	19.59
649.487	19.73
649.677	19.84
649.866	19.85
650.055	19.82
650.244	19.86
650.434	19.85
650.623	19.92
650.812	19.65
651.002	19.38
651.191	19.52
651.38	19.75
651.569	19.69
651.758	19.32
651.947	19.15
652.137	19.04
652.326	19
652.515	19.14
652.704	19.23
652.893	19.38
653.082	19.82
653.271	19.84
653.46	19.46
653.649	19.46
653.838	20
654.027	20.17
654.216	20.44
654.405	20.38
654.594	20.07
654.783	19.96
654.972	19.91
655.161	20.05
655.35	20.07
655.539	20.19
655.728	20.06
655.916	19.78
656.105	19.75
656.294	19.53
656.483	19.59
656.672	19.91
656.86	19.7
657.049	19.74
657.238	19.29
657.427	19.2
657.615	19.26
657.804	19.25
657.993	19.15
658.181	19.19
658.37	19.06
658.559	19.15
658.747	19.09
658.936	19.2
659.125	19.37
659.313	19.62
659.502	19.68
659.69	19.68
659.879	19.59
660.067	19.63
660.256	19.58
660.444	19.72
660.633	19.72
660.821	19.72
661.01	19.81
661.198	19.7
661.387	19.7
661.575	19.66
661.763	19.74
661.952	20.12
662.14	20.26
662.328	20.55
662.517	20.6
662.705	20.78
662.893	21.1
663.082	21.27
663.27	21.17
663.458	21.29
663.646	21.46
663.834	21.11
664.023	21.06
664.211	21.11
664.399	21.05
664.587	21.3
664.775	21.21
664.963	20.82
665.152	20.74
665.34	21.44
665.528	21.72
665.716	21.53
665.904	21.8
666.092	21.87
666.28	21.92
666.468	21.72
666.656	21.53
666.844	21.41
667.032	21.53
667.22	21.41
667.408	20.96
667.596	20.32
667.784	20.38
667.971	20.52
668.159	20.61
668.347	20.46
668.535	20.4
668.723	20.14
668.911	20.16
669.098	19.85
669.286	19.96
669.474	19.77
669.662	20.04
669.849	19.95
670.037	19.9
670.225	19.71
670.413	19.7
670.6	19.98
670.788	20.33
670.976	20.29
671.163	20.52
671.351	20.55
671.538	21.12
671.726	21.03
671.913	20.94
672.101	20.7
672.289	20.43
672.476	20.58
672.664	20.77
672.851	20.88
673.039	21.13
673.226	21.22
673.413	21.13
673.601	20.85
673.788	20.95
673.976	21.34
674.163	21.33
674.35	21.76
674.538	21.34
674.725	21.09
674.912	21.23
675.1	21.11
675.287	21.17
675.474	20.81
675.662	20.71
675.849	20.8
676.036	20.67
676.223	20.87
676.411	20.89
676.598	21.03
676.785	20.99
676.972	20.87
677.159	20.95
677.346	21.06
677.533	21.23
677.721	21.01
677.908	21.08
678.095	21.08
678.282	21.23
678.469	20.97
678.656	21.09
678.843	20.87
679.03	20.87
679.217	20.67
679.404	20.43
679.591	20.38
679.778	20.44
679.964	20.04
680.151	19.9
680.338	19.68
680.525	19.89
680.712	19.8
680.899	20.04
681.086	19.87
681.272	19.88
681.459	19.87
681.646	20.23
681.833	20.41
682.02	20.84
682.206	20.81
682.393	21
682.58	20.89
682.766	21.63
682.953	21.58
683.14	21.64
683.326	22.12
683.513	22.29
683.7	22.04
683.886	21.81
684.073	21.81
684.259	21.91
684.446	21.73
684.632	21.85
684.819	21.39
685.005	21.32
685.192	21.55
685.378	21.07
685.565	20.93
685.751	20.96
685.938	21.31
686.124	21.11
686.31	21.59
686.497	21.95
686.683	21.62
686.87	21.31
687.056	21.41
687.242	21.34
687.429	21.39
687.615	21.68
687.801	21.62
687.987	21.78
688.174	22.01
688.36	21.68
688.546	21.78
688.732	22.27
688.918	22.52
689.105	22.44
689.291	22.28
689.477	22.43
689.663	22.4
689.849	22.72
690.035	22.85
690.221	22.55
690.407	22.18
690.593	21.9
690.779	21.46
690.965	21.5
691.151	21.66
691.337	21.57
691.523	21.52
691.709	21.38
691.895	21.61
692.081	21.44
692.267	21.21
692.453	21.43
692.639	21.31
692.825	21.74
693.011	21.69
693.196	21.54
693.382	21.81
693.568	22.03
693.754	22
693.94	21.61
694.125	20.92
694.311	21.51
694.497	21.9
694.682	22.04
694.868	21.94
695.054	21.66
695.239	21.56
695.425	20.97
695.611	20.75
695.796	20.6
695.982	20.6
696.168	20.67
696.353	20.34
696.539	20.06
696.724	19.94
696.91	19.8
697.095	19.95
697.281	19.92
697.466	20.23
697.652	20.27
697.837	20.41
698.023	20.07
698.208	20.14
698.393	20.17
698.579	20.23
698.764	20.26
698.949	20.2
699.135	20.12
699.32	20.25
699.505	20.38
699.691	20.32
699.876	20.27
700.061	20.71
700.246	20.84
700.432	21.11
700.617	21.27
700.802	21.36
700.987	21.75
701.172	21.78
701.358	21.71
701.543	21.66
701.728	21.79
701.913	22.21
702.098	22.38
702.283	22.72
702.468	22.35
702.653	22.19
702.838	22.28
703.023	22.46
703.208	22.86
703.393	23.52
703.578	23.61
703.763	23.68
703.948	23.56
704.133	23.26
704.318	22.77
704.503	22.98
704.688	23.36
704.873	23.23
705.057	23.16
705.242	23.24
705.427	22.99
705.612	22.63
705.797	22.37
705.981	22.73
706.166	23.03
706.351	23.67
706.536	24.12
706.72	23.77
706.905	24.19
707.09	24.16
707.274	23.96
707.459	24.16
707.644	24.88
707.828	25.36
708.013	24.78
708.197	24.92
708.382	24.64
708.567	24.17
708.751	24.12
708.936	23.98
709.12	23.72
709.305	23.91
709.489	23.68
709.673	23.4
709.858	23.3
710.042	23.51
710.227	23.8
710.411	23.73
710.596	23.88
710.78	24.43
710.964	24.19
711.149	24.6
711.333	24.8
711.517	25.04
711.702	25.1
711.886	24.89
712.07	24.57
712.254	24.22
712.438	24.57
712.623	24.6
712.807	23.95
712.991	24.18
713.175	23.55
713.359	23.49
713.544	23.33
713.728	23.19
713.912	23.25
714.096	23.62
714.28	22.98
714.464	22.9
714.648	22.85
714.832	22.95
715.016	22.82
715.2	22.78
715.384	22.53
715.568	22.39
715.752	22.27
715.936	22.12
716.12	21.71
716.304	22.12
716.488	21.81
716.671	21.67
716.855	21.64
717.039	21.66
717.223	21.63
717.407	21.78
717.59	21.49
717.774	21.74
717.958	22.12
718.142	22.38
718.325	22.4
718.509	22.5
718.693	22.58
718.877	22.36
719.06	22.17
719.244	22.62
719.428	22.66
719.611	22.87
719.795	22.71
719.978	22.95
720.162	23.43
720.345	23.91
720.529	24.2
720.713	24.7
720.896	25.21
721.08	25.25
721.263	24.75
721.446	24.39
721.63	24.4
721.813	24.98
721.997	24.55
722.18	24.26
722.364	23.97
722.547	23.18
722.73	23.28
722.914	23.63
723.097	24.26
723.28	24.74
723.464	25.05
723.647	25.45
723.83	24.67
724.013	24.48
724.197	24.56
724.38	24.68
724.563	25.14
724.746	24.84
724.929	24.36
725.112	24.3
725.296	24.37
725.479	24.2
725.662	23.93
725.845	23.61
726.028	23.77
726.211	23.52
726.394	23.77
726.577	23.62
726.76	23.84
726.943	23.86
727.126	23.78
727.309	23.79
727.492	23.46
727.675	23.33
727.858	23.55
728.041	23.53
728.224	23.93
728.407	23.05
728.589	23.33
728.772	22.51
728.955	22.35
729.138	21.95
729.321	21.66
729.503	21.64
729.686	21.38
729.869	21.62
730.052	21.39
730.234	20.76
730.417	21.15
730.6	20.96
730.782	21.39
730.965	21.84
731.148	21.85
731.33	21.55
731.513	21.95
731.695	22.17
731.878	21.74
732.061	22.12
732.243	22.02
732.426	22.3
732.608	22.06
732.791	22.1
732.973	21.82
733.156	21.75
733.338	22.44
733.52	22.18
733.703	22.35
733.885	23.06
734.068	22.98
734.25	23.39
734.432	23.18
734.615	23.51
734.797	23.87
734.979	23.61
735.162	23.73
735.344	23.15
735.526	23.74
735.708	23.65
735.891	23.39
736.073	23.1
736.255	23.11
736.437	22.9
736.619	22.92
736.802	22.07
736.984	22.06
737.166	22
737.348	22.9
737.53	23.08
737.712	22.92
737.894	23.16
738.076	23.24
738.258	22.87
738.44	22.78
738.622	23.18
738.804	23.99
738.986	24.19
739.168	24.47
739.35	23.84
739.532	23.29
739.714	24.17
739.896	24.05
740.078	24.05
740.259	24.98
740.441	25.07
740.623	24.79
740.805	24.71
740.987	25.06
741.168	25.49
741.35	25.97
741.532	26.49
741.714	25.94
741.895	26
742.077	26.87
742.259	26.31
742.44	26.74
742.622	27.05
742.804	26.72
742.985	27.1
743.167	26.35
743.348	26.27
743.53	25.89
743.711	25.81
743.893	26.01
744.075	25.36
744.256	25.43
744.438	25.68
744.619	25.67
744.8	25.69
744.982	24.36
745.163	25.15
745.345	24.5
745.526	25.46
745.707	25.89
745.889	25.24
746.07	25.5
746.252	25.49
746.433	25.1
746.614	25.04
746.795	25.35
746.977	26.41
747.158	26.47
747.339	27.06
747.52	26.26
747.702	26.1
747.883	26.82
748.064	27.14
748.245	27.26
748.426	27.01
748.607	26.97
748.788	26.75
748.97	26.79
749.151	26.04
749.332	26.24
749.513	26.23
749.694	26.28
749.875	26.29
750.056	25.53
750.237	25.48
750.418	25.94
750.599	26.46
750.78	26.24
750.96	26.27
751.141	26.44
751.322	26.38
751.503	26.18
751.684	26.18
751.865	26.04
752.046	26.52
752.226	25.99
752.407	25.72
752.588	24.58
752.769	24.97
752.949	24.98
753.13	25.69
753.311	25.13
753.492	25.21
753.672	25.46
753.853	25.68
754.034	25.56
754.214	26.06
754.395	25.97
754.575	26.99
754.756	27.26
754.937	27.38
755.117	27.17
755.298	27.37
755.478	26.62
755.659	26.69
755.839	26.21
756.02	25.89
756.2	25.84
756.381	26.06
756.561	25.06
756.741	24.62
756.922	24.47
757.102	24.23
757.283	25.23
757.463	26.21
757.643	26.06
757.823	26.7
758.004	26.62
758.184	26.58
758.364	26.36
758.545	27.43
758.725	27.42
758.905	26.74
759.085	26.1
759.265	25.5
759.446	25.49
759.626	24.92
759.806	24.55
759.986	24.73
760.166	24.98
760.346	25.22
760.526	24.74
760.706	24.68
760.886	24.84
761.066	25.02
761.246	24.75
761.426	23.94
761.606	24.09
761.786	23.69
761.966	23.04
762.146	23.32
762.326	23.37
762.506	23.4
762.686	22.79
762.866	22.49
763.046	22.63
763.225	22.64
763.405	22.51
763.585	22.7
763.765	22.89
763.945	22.91
764.124	22.58
764.304	22.67
764.484	22.43
764.664	22.57
764.843	22.71
765.023	22.39
765.203	22.27
765.382	23.05
765.562	22.91
765.741	22.67
765.921	23.33
766.101	23.05
766.28	22.84
766.46	22.94
766.639	24.49
766.819	24.96
766.998	25.61
767.178	25.89
767.357	26.39
767.537	26.28
767.716	27.08
767.896	28.13
768.075	28.63
768.254	29.07
768.434	29.52
768.613	29.1
768.792	28.96
768.972	28.85
769.151	29.58
769.33	29.35
769.51	29.66
769.689	30.03
769.868	29.15
770.047	29.9
770.226	29.25
770.406	29.6
770.585	29.2
770.764	29.55
770.943	30.32
771.122	29.76
771.301	30.14
771.48	30.17
771.66	29.68
771.839	29.85
772.018	29.58
772.197	29.11
772.376	29.09
772.555	29.13
772.734	29.35
772.913	28.79
773.092	28.56
773.271	28.35
773.449	28.45
773.628	29.15
773.807	28.21
773.986	28.02
774.165	28.43
774.344	29.18
774.523	30.53
774.701	30.93
774.88	31.87
775.059	32.7
775.238	31.9
775.417	31.19
775.595	31.93
775.774	32.4
775.953	32.68
776.131	33.14
776.31	31.74
776.489	30.87
776.667	30
776.846	29.38
777.025	28.33
777.203	28.96
777.382	29.68
777.56	27.91
777.739	28.74
777.917	29.17
778.096	28
778.274	28.43
778.453	28.7
778.631	29.16
778.81	29.28
778.988	30.24
779.166	30.28
779.345	29.33
779.523	29.8
779.702	29.13
779.88	28.11
780.058	29.13
780.237	28.4
780.415	28.22
780.593	27.49
780.771	27.41
780.95	27.24
781.128	27.09
781.306	28.35
781.484	28.3
781.662	29.09
781.841	29.81
782.019	30.19
782.197	30.57
782.375	31.57
782.553	32.58
782.731	32.81
782.909	32.84
783.087	33.96
783.265	33.1
783.443	33.1
783.621	32.87
783.799	32.91
783.977	31.86
784.155	33.14
784.333	31.44
784.511	31.61
784.689	31.56
784.867	31.67
785.045	30.44
785.223	29.81
785.4	29.34
785.578	29.84
785.756	29.39
785.934	30.77
786.112	29.9
786.289	29.05
786.467	28.07
786.645	27.75
786.823	26.36
787	26.03
787.178	27.41
787.356	26.68
787.533	25.98
787.711	25.45
787.889	25.13
788.066	24.17
788.244	25.56
788.421	25.64
788.599	25.68
788.776	25.87
788.954	27
789.131	27.29
789.309	28.68
789.486	29.87
789.664	30.56
789.841	30.19
790.019	31.14
790.196	30.68
790.373	30.97
790.551	31.69
790.728	32.73
790.906	32.06
791.083	32.41
791.26	32.88
791.437	30.85
791.615	30.89
791.792	31.61
791.969	31.36
792.146	31.85
792.324	31.92
792.501	31.62
792.678	31.15
792.855	30.71
793.032	32.01
793.209	32.32
793.387	32.73
793.564	32.32
793.741	32.86
793.918	31.84
794.095	31.22
794.272	31.44
794.449	30.12
794.626	31.08
794.803	32.25
794.98	29.88
795.157	28.28
795.334	28.42
795.511	28.33
795.688	28.97
795.864	29.67
796.041	30.19
796.218	29.96
796.395	30.57
796.572	30.68
796.749	29.5
796.925	30.02
797.102	30.82
797.279	30.7
797.456	31.31
797.632	30.87
797.809	31.28
797.986	30.71
798.162	31.52
798.339	31.91
798.516	32.44
798.692	32.42
798.869	31.73
799.046	31.9
799.222	33.04
799.399	34.18
799.575	33.82
799.752	33.05
799.928	33.11
800.105	32.21
800.281	32.66
800.458	31.18
800.634	32.97
800.811	34.77
800.987	32.86
801.163	32.16
801.34	30.78
801.516	31.19
801.692	32.94
801.869	34.54
802.045	35.29
802.221	35.09
802.398	34.43
802.574	32.73
802.75	31.74
802.926	33.84
803.103	33.66
803.279	33.81
803.455	31.6
803.631	31.23
803.807	31.49
803.983	30.86
804.16	31.41
804.336	32.71
804.512	33.98
804.688	35.11
804.864	34.08
805.04	34.72
805.216	34.17
805.392	36.16
805.568	35.99
805.744	35.41
805.92	35.12
806.096	33.9
806.272	33.25
806.448	33.35
806.623	31.43
806.799	34.63
806.975	34.04
807.151	36.53
807.327	35.83
807.503	34.59
807.678	34.1
807.854	35.45
808.03	33.51
808.206	33.37
808.381	32.43
808.557	32.84
808.733	30.13
808.908	32.08
809.084	30.61
809.26	32.37
809.435	33.69
809.611	33.58
809.787	33.5
809.962	36.25
810.138	37.78
810.313	39
810.489	39.34
810.664	39.2
810.84	37.95
811.015	37.23
811.191	35.67
811.366	34.62
811.542	35.82
811.717	34.68
811.892	35.26
812.068	35.13
812.243	33.36
812.419	33.51
812.594	34.4
812.769	32.87
812.944	32.71
813.12	32.35
813.295	33.11
813.47	31.32
813.645	32.21
813.821	32.54
813.996	31.9
814.171	32.79
814.346	32.51
814.521	34.72
814.697	36.28
814.872	37.27
815.047	37.69
815.222	36.9
815.397	36.73
815.572	36.42
815.747	35.39
815.922	34.7
816.097	35.07
816.272	35.84
816.447	33.53
816.622	33.05
816.797	34.06
816.972	34.92
817.147	37.54
817.322	37.72
817.496	38.36
817.671	36.78
817.846	37.55
818.021	36.14
818.196	34.64
818.371	32.88
818.545	32.68
818.72	31.82
818.895	30.48
819.069	29.66
819.244	28.95
819.419	27.58
819.594	26.91
819.768	26.18
819.943	25.42
820.117	25.17
820.292	25.83
820.467	24.34
820.641	23.74
820.816	22.34
820.99	20.67
821.165	20.27
821.339	19.91
821.514	20.15
821.688	19.41
821.863	19.18
822.037	18.64
822.212	18.22
822.386	18.44
822.56	18.03
822.735	18.2
822.909	18.47
823.084	18.53
823.258	18.52
823.432	18.33
823.606	18.59
823.781	19.01
823.955	19.35
824.129	19.71
824.303	19.76
824.478	19.99
824.652	20.53
824.826	20.29
825	20.45
825.174	20.54
825.348	21.63
825.523	22.11
825.697	21.64
825.871	21.76
826.045	21.72
826.219	21.99
826.393	22.08
826.567	21.96
826.741	22.26
826.915	22.53
827.089	22.53
827.263	21.99
827.437	21.79
827.611	22.84
827.784	23.41
827.958	23.1
828.132	23.16
828.306	22.93
828.48	22.74
828.654	23.31
828.827	23.85
829.001	24.85
829.175	25.49
829.349	26.49
829.522	25.94
829.696	25.78
829.87	28.25
830.044	29.12
830.217	31.49
830.391	33.15
830.565	33.93
830.738	34.26
830.912	34.48
831.085	35.4
831.259	35.65
831.432	34.82
831.606	35.6
831.779	34.1
831.953	32.79
832.126	31.31
832.3	30.01
832.473	28.95
832.647	28.79
832.82	28.77
832.994	27.71
833.167	26.26
833.34	25.75
833.514	24.86
833.687	24.55
833.86	24.86
834.034	24.21
834.207	24.51
834.38	24.2
834.553	24.41
834.727	24.63
834.9	23.99
835.073	24.64
835.246	25.53
835.419	26.04
835.593	26
835.766	26.37
835.939	27.36
836.112	28.15
836.285	30.16
836.458	29.18
836.631	28.82
836.804	31.23
836.977	31.42
837.15	33.12
837.323	34.33
837.496	35.35
837.669	35.22
837.842	39.41
838.015	41.03
838.188	41.06
838.361	42.51
838.533	43.09
838.706	45.01
838.879	46.51
839.052	44.89
839.225	45.74
839.398	47.31
839.57	46.53
839.743	43.04
839.916	41.47
840.088	41.93
840.261	42.34
840.434	42.34
840.607	39.24
840.779	40.26
840.952	41.42
841.124	41.29
841.297	41.11
841.47	42.74
841.642	44.46
841.815	48.54
841.987	48.95
842.16	49.89
842.332	50.22
842.505	51.67
842.677	49
842.85	47.94
843.022	48.4
843.194	47.8
843.367	48.77
843.539	44.04
843.712	38.76
843.884	38.99
844.056	36.19
844.229	37.79
844.401	40.75
844.573	40.83
844.745	46.02
844.918	48.13
845.09	50.2
845.262	52.09
845.434	58.02
845.606	59.93
845.779	60.79
845.951	63.71
846.123	65.21
846.295	61.94
846.467	73.08
846.639	71.21
846.811	70.04
846.983	67.76
847.155	65.76
847.327	65.54
847.499	65.4
847.671	64
847.843	68.18
848.015	68.26
848.187	67.86
848.359	58.88
848.531	60.98
848.703	64.3
848.875	64.17
849.047	63.16
849.218	58.8
849.39	57.9
849.562	61.23
849.734	61.01
849.905	58.78
850.077	61.43
850.249	63.76
850.421	60.77
850.592	61.54
850.764	65.5
850.936	64.12
851.107	71.5
851.279	75.9
851.451	75.46
851.622	71.53
851.794	73.67
851.965	74.53
852.137	75.31
852.308	79.24
852.48	72.42
852.651	73.09
852.823	79.2
852.994	76.86
853.166	77.73
853.337	81.2
853.509	77.47
853.68	79.53
853.851	76.62
854.023	73.69
854.194	72.6
854.365	73.66
854.537	70.77
854.708	69.17
854.879	71.71
855.05	74.07
855.222	69.35
855.393	73.09
855.564	73.2
855.735	72.16
855.906	76.85
856.078	77.51
856.249	80.33
856.42	82.46
856.591	83.32
856.762	80.23
856.933	75.29
857.104	77.82
857.275	79.15
857.446	77.21
857.617	81.17
857.788	82.92
857.959	83.98
858.13	84.06
858.301	80.25
858.472	78.89
858.643	74.48
858.814	75.04
858.985	71.1
859.155	70.97
859.326	72.35
859.497	73.16
859.668	70.21
859.839	72.01
860.009	69.27
860.18	71.46
860.351	71.43
860.522	75.82
860.692	79.83
860.863	83.4
861.034	90.14
861.204	82.02
861.375	78.18
861.546	78.87
861.716	74.77
861.887	77.01
862.057	83.75
862.228	79.19
862.398	82.21
862.569	81.62
862.739	83.13
862.91	80.17
863.08	86.01
863.251	87.18
863.421	89.64
863.592	85.33
863.762	85.13
863.932	78.83
864.103	88.93
864.273	84.28
864.443	81.82
864.614	78.82
864.784	78.69
864.954	81.14
865.125	88.82
865.295	84.68
865.465	88.32
865.635	88.13
865.805	88.72
865.976	84.67
866.146	94.27
866.316	90.55
866.486	91.65
866.656	88.86
866.826	87.55
866.996	80.44
867.166	76.13
867.336	79.46
867.506	79.22
867.676	85.42
867.846	84.23
868.016	79.09
868.186	85.86
868.356	87.62
868.526	85.33
868.696	78.87
868.866	84.72
869.036	82.38
869.206	79.15
869.376	80.75
869.545	74.54
869.715	79.2
869.885	79.09
870.055	74.85
870.224	72.55
870.394	72.78
870.564	76.66
870.734	76.13
870.903	84.52
871.073	88.75
871.243	87.7
871.412	92.65
871.582	87.84
871.751	87.79
871.921	85.58
872.091	85.93
872.26	91.79
872.43	94.28
872.599	88.35
872.769	83.29
872.938	78.95
873.108	84.63
873.277	79.37
873.446	75.86
873.616	76.12
873.785	80.78
873.955	79.36
874.124	78.16
874.293	75.33
874.463	83.59
874.632	89.94
874.801	90.21
874.971	83.1
875.14	79.95
875.309	79.49
875.478	78.37
875.647	80.7
875.817	80.3
875.986	75.28
876.155	70.85
876.324	64.78
876.493	59.5
876.662	60.21
876.831	59.86
877	62.03
877.17	63.72
877.339	62.8
877.508	60.81
877.677	62.93
877.846	64.19
878.015	69.88
878.184	69.71
878.352	70.56
878.521	66.98
878.69	69.28
878.859	65.55
879.028	62.43
879.197	58.36
879.366	53.05
879.534	51.04
879.703	46.73
879.872	44.75
880.041	40.52
880.21	35.38
880.378	33.15
880.547	30.27
880.716	30.02
880.884	27.72
881.053	27.43
881.222	27.03
881.39	24.23
881.559	24.14
881.727	22.07
881.896	21.91
882.065	21.2
882.233	21.69
882.402	21.94
882.57	22.05
882.739	23.02
882.907	22.85
883.076	22.7
883.244	24.2
883.412	25.91
883.581	26.71
883.749	27.59
883.918	29.07
884.086	29.57
884.254	29.21
884.423	28.12
884.591	29.05
884.759	30.46
884.927	31.14
885.096	31.9
885.264	31.11
885.432	33.68
885.6	35.45
885.769	37.89
885.937	39.64
886.105	44.05
886.273	49.37
886.441	50.69
886.609	51.8
886.777	54.98
886.945	56.79
887.113	53.57
887.281	52.81
887.449	56.98
887.617	57.15
887.785	57.11
887.953	57.99
888.121	58.63
888.289	60.69
888.457	62.68
888.625	61.6
888.793	57.89
888.961	68.46
889.129	74.44
889.296	75.82
889.464	76.89
889.632	78.08
889.8	78.7
889.967	79.45
890.135	78.26
