Data from 2938727__Reflection_02.txt Node
Date: Sun Mar 15 19:30:55 EDT 2015
User: robert
Spectrometer: USB4E03002
Autoset integration time: false
Trigger mode: 4
Integration Time (sec): 1.000000E-1
Scans to average: 10
Electric dark correction enabled: false
Nonlinearity correction enabled: false
Boxcar width: 5
Stray light correction enabled: false
XAxis mode: Wavelengths
Stop averaging: false
Number of Pixels in Spectrum: 3648
>>>>>Begin Spectral Data<<<<<
177.575	1202.5
177.794	41800
178.014	-587.5
178.233	5862.5
178.452	908
178.672	422.5
178.891	233.33
179.11	117.28
179.33	100.65
179.549	30.52
179.768	-2
179.987	-351.79
180.207	-229.87
180.426	-182.86
180.645	-250
180.864	-1033.33
181.084	39.81
181.303	32.46
181.522	19.9
181.741	23.92
181.96	-25.73
182.179	-87.5
182.398	273.73
182.618	227.93
182.837	64.83
183.056	53.12
183.275	-53.62
183.494	12.6
183.713	63.48
183.932	80.55
184.151	105.62
184.37	55.56
184.589	55.77
184.808	44.81
185.027	139.39
185.246	122.45
185.465	88.89
185.684	57.71
185.903	54.4
186.122	-6
186.341	-2.46
186.56	-12.3
186.779	3.66
186.998	1.47
187.216	13.38
187.435	-50.95
187.654	-63.77
187.873	-280.28
188.092	408.57
188.311	-51.58
188.53	13.41
188.748	-134.62
188.967	59.55
189.186	23.85
189.405	31.38
189.623	64.42
189.842	36.22
190.061	39.8
190.28	68.32
190.498	77.36
190.717	101.81
190.936	79.45
191.154	64.52
191.373	101.8
191.592	117.61
191.81	47.31
192.029	75.93
192.248	85.33
192.466	57.37
192.685	13.81
192.904	-33.11
193.122	-57.54
193.341	-29.01
193.559	-46.23
193.778	-140.93
193.996	-7.62
194.215	-0.56
194.433	-21.9
194.652	-29.97
194.87	-61.11
195.089	-92.88
195.307	-92.79
195.526	-121.46
195.744	-199.03
195.963	-329.63
196.181	-1325
196.399	-650.6
196.618	3245
196.836	2754.17
197.055	-809.09
197.273	-605.26
197.491	-681.82
197.71	1546.15
197.928	-1040.48
198.146	313.12
198.365	-5833.33
198.583	-432.61
198.801	-2983.33
199.019	-138.91
199.238	-82.65
199.456	-173.5
199.674	-91.14
199.892	-95.26
200.111	-276.67
200.329	-41.52
200.547	-3.35
200.765	-17.02
200.983	-46.86
201.202	5.37
201.42	-4.02
201.638	-1.13
201.856	23.61
202.074	31.31
202.292	20.7
202.51	14.69
202.728	16.31
202.946	-2.21
203.165	-22.85
203.383	-10.29
203.601	-48.61
203.819	-79.71
204.037	-116.14
204.255	-135.37
204.473	-145.61
204.691	-145.77
204.909	-88.06
205.127	-80.53
205.345	-36.52
205.562	9.7
205.78	3.92
205.998	38.72
206.216	37
206.434	50.14
206.652	54.88
206.87	51.11
207.088	47.64
207.306	61.26
207.523	43.19
207.741	-20.41
207.959	-84.44
208.177	-73.14
208.395	-123.86
208.612	-171.97
208.83	-319.66
209.048	-87.85
209.266	9.29
209.483	-15.29
209.701	49.18
209.919	25.11
210.136	31.91
210.354	37.14
210.572	3.61
210.79	-1.64
211.007	-77.57
211.225	-47.2
211.442	-81.03
211.66	-84.58
211.878	-23.29
212.095	-161.63
212.313	-175.54
212.53	-195.89
212.748	-232.61
212.966	-126.59
213.183	-120.87
213.401	-73.32
213.618	-67.25
213.836	-82.03
214.053	-126.89
214.271	-172.56
214.488	-38.46
214.705	-10.41
214.923	-4.65
215.14	33.71
215.358	3.29
215.575	12.52
215.793	12.71
216.01	14.23
216.227	20.52
216.445	38.74
216.662	42.86
216.879	47.02
217.097	39.84
217.314	40.93
217.531	-4.87
217.749	7.3
217.966	-24.9
218.183	-62.1
218.4	-40.76
218.618	-36.66
218.835	-31.73
219.052	-26.53
219.269	-42.37
219.487	-41.33
219.704	-13.05
219.921	-5.14
220.138	2.11
220.355	11.06
220.572	15.38
220.79	5.71
221.007	0.72
221.224	-5.86
221.441	-18.34
221.658	-30.24
221.875	-26.58
222.092	-44.58
222.309	-37.34
222.526	-39.72
222.743	-36.03
222.96	-37.48
223.177	-47.45
223.394	-34.51
223.611	-37.37
223.828	-22.77
224.045	-20.97
224.262	-21.16
224.479	-21.08
224.696	-23.94
224.913	-9.45
225.13	-13.99
225.347	-12.09
225.564	-5.13
225.781	-6.13
225.997	-10.73
226.214	-8.3
226.431	0.69
226.648	-1.28
226.865	-1.66
227.082	0.38
227.298	0.41
227.515	2.34
227.732	2.89
227.949	1.71
228.165	1.75
228.382	3.62
228.599	2.87
228.816	2.71
229.032	2.84
229.249	3.11
229.466	2.51
229.682	0.8
229.899	0.74
230.116	0.39
230.332	0.08
230.549	-1.32
230.765	-1.89
230.982	-0.62
231.199	-0.94
231.415	-1.54
231.632	-1.12
231.848	-1.62
232.065	0.02
232.281	0.03
232.498	-0.92
232.714	1.63
232.931	4.66
233.147	5.5
233.364	2.04
233.58	2.5
233.797	2.56
234.013	2.55
234.23	4.15
234.446	3.56
234.662	3.64
234.879	5.11
235.095	5.02
235.312	4.88
235.528	3.44
235.744	3.66
235.961	2.76
236.177	2.88
236.393	2.03
236.61	1.3
236.826	0.72
237.042	1.59
237.258	4.14
237.475	4.31
237.691	2.35
237.907	3.72
238.123	3.89
238.339	2.01
238.556	3.85
238.772	4.77
238.988	4.64
239.204	5.37
239.42	3.7
239.636	2.3
239.853	1.39
240.069	1.5
240.285	0.64
240.501	0.43
240.717	3.38
240.933	3.86
241.149	3.66
241.365	4.43
241.581	3.98
241.797	4.44
242.013	3.79
242.229	4.28
242.445	4.53
242.661	4.93
242.877	5.27
243.093	4.21
243.309	3.56
243.525	4.4
243.741	3.6
243.957	3.86
244.173	4.18
244.388	4.55
244.604	3.5
244.82	3.93
245.036	4.56
245.252	4.95
245.468	5.26
245.683	5.91
245.899	4.9
246.115	4.92
246.331	5.53
246.547	5.48
246.762	5.75
246.978	5.52
247.194	5.52
247.409	5.86
247.625	6.27
247.841	6.02
248.057	5.35
248.272	5.51
248.488	5.89
248.703	5.24
248.919	4.8
249.135	4.16
249.35	4.56
249.566	4.15
249.782	3.15
249.997	1.33
250.213	1.5
250.428	2.02
250.644	2.26
250.859	1.38
251.075	1.7
251.29	1.48
251.506	1.87
251.721	3.22
251.937	2.93
252.152	2.9
252.368	3.11
252.583	3.41
252.798	3.52
253.014	3.25
253.229	3.53
253.445	1.93
253.66	2.62
253.875	2.18
254.091	1.35
254.306	1.39
254.521	0.33
254.737	0.88
254.952	-0.49
255.167	-1.23
255.383	-0.88
255.598	-0.43
255.813	2.3
256.028	1.22
256.244	1.69
256.459	0.94
256.674	0.99
256.889	1.19
257.104	0.86
257.32	1.81
257.535	1.32
257.75	0.94
257.965	1
258.18	0.82
258.395	1.06
258.61	1.69
258.826	1.89
259.041	2.07
259.256	2.72
259.471	3.23
259.686	3.43
259.901	3.53
260.116	3.75
260.331	3.63
260.546	3.78
260.761	4.04
260.976	3.88
261.191	3.61
261.406	3.82
261.621	3.39
261.836	2.62
262.05	2.08
262.265	2.41
262.48	1.81
262.695	1.59
262.91	1.68
263.125	1.37
263.34	0.75
263.555	1.68
263.769	0.7
263.984	0.92
264.199	1.86
264.414	2.27
264.629	1.82
264.843	2.19
265.058	2.34
265.273	2.36
265.488	2.09
265.702	3.1
265.917	3.05
266.132	3.56
266.346	3.38
266.561	3.38
266.776	3.12
266.99	3.48
267.205	4.07
267.42	3.87
267.634	3.15
267.849	3.21
268.063	3.08
268.278	2.31
268.492	2.24
268.707	2.07
268.922	1.59
269.136	1.45
269.351	1.2
269.565	1
269.78	1.05
269.994	1.96
270.209	2.06
270.423	1.91
270.637	2.38
270.852	2.56
271.066	2.95
271.281	3.39
271.495	3.43
271.709	3.21
271.924	3.03
272.138	2.84
272.353	2.65
272.567	2.62
272.781	2.76
272.996	2.64
273.21	2.65
273.424	2.12
273.638	1.66
273.853	1.61
274.067	2.03
274.281	1.7
274.495	1.62
274.71	1.34
274.924	1.18
275.138	0.45
275.352	0.76
275.566	0.81
275.781	0.83
275.995	1.55
276.209	1.18
276.423	1
276.637	1.14
276.851	0.99
277.065	0.88
277.279	0.73
277.493	1.09
277.707	0.23
277.921	0.02
278.135	0.54
278.349	-0.37
278.563	0.17
278.777	-0.43
278.991	-0.32
279.205	0.34
279.419	0.08
279.633	0.89
279.847	1.25
280.061	1.84
280.275	1.95
280.489	2.16
280.703	2.13
280.917	2.16
281.131	2.59
281.344	2.32
281.558	2.02
281.772	2.27
281.986	1.61
282.2	1.19
282.414	1.37
282.627	1.33
282.841	1.23
283.055	1.07
283.269	1.03
283.482	0.81
283.696	1.31
283.91	1.54
284.123	1.5
284.337	1.71
284.551	1.56
284.764	1.32
284.978	1.06
285.192	1.06
285.405	1.46
285.619	1.18
285.833	1.19
286.046	1.09
286.26	0.76
286.473	0.73
286.687	0.6
286.9	0.8
287.114	0.83
287.327	1.09
287.541	0.86
287.754	0.48
287.968	0.74
288.181	0.88
288.395	0.9
288.608	1.54
288.822	1.69
289.035	1.85
289.248	1.76
289.462	2.08
289.675	2.53
289.889	2.46
290.102	2.72
290.315	2.87
290.529	2.98
290.742	2.88
290.955	3.04
291.169	3.16
291.382	3.18
291.595	3.01
291.808	3.16
292.022	2.45
292.235	2.52
292.448	2.66
292.661	2.38
292.875	2.66
293.088	2.73
293.301	2.39
293.514	2.31
293.727	2.42
293.94	2.93
294.153	2.6
294.367	3.04
294.58	3.37
294.793	3.37
295.006	3.65
295.219	3.64
295.432	3.89
295.645	3.89
295.858	4.09
296.071	4.19
296.284	4.29
296.497	4.38
296.71	4.11
296.923	4.31
297.136	4.56
297.349	4.38
297.562	4.43
297.775	4.03
297.988	4.18
298.201	3.87
298.414	3.78
298.626	3.95
298.839	4.05
299.052	4.33
299.265	4.09
299.478	3.72
299.691	3.87
299.903	3.83
300.116	4.1
300.329	4.04
300.542	4.57
300.755	4.79
300.967	4.79
301.18	4.66
301.393	4.86
301.605	4.15
301.818	4.83
302.031	4.53
302.243	4.3
302.456	4.41
302.669	4.46
302.881	3.99
303.094	3.75
303.307	3.45
303.519	3.13
303.732	2.89
303.944	3.55
304.157	3.18
304.37	3.83
304.582	3.8
304.795	3.77
305.007	3.79
305.22	4.24
305.432	4.71
305.645	4.92
305.857	5.31
306.069	5.39
306.282	5.04
306.494	5.06
306.707	5
306.919	5.19
307.132	5.39
307.344	5.71
307.556	5.63
307.769	5.54
307.981	5.27
308.193	5.23
308.406	5.5
308.618	5.8
308.83	5.78
309.043	5.7
309.255	5.65
309.467	5.97
309.679	5.63
309.892	5.41
310.104	4.97
310.316	4.95
310.528	5.04
310.74	5.02
310.953	5.18
311.165	5.05
311.377	5.18
311.589	5.39
311.801	5.26
312.013	5.69
312.225	5.72
312.437	6.25
312.649	6.26
312.862	6.37
313.074	6.3
313.286	6.25
313.498	6.66
313.71	6.62
313.922	6.72
314.134	6.79
314.346	6.49
314.558	6.71
314.77	6.72
314.982	6.64
315.193	6.72
315.405	6.62
315.617	6.75
315.829	6.64
316.041	6.69
316.253	6.72
316.465	6.67
316.677	7.15
316.888	7.08
317.1	6.38
317.312	6.68
317.524	6.33
317.736	6.84
317.947	6.47
318.159	6.18
318.371	5.85
318.583	5.87
318.794	5.78
319.006	5.18
319.218	5.36
319.43	6.04
319.641	6.35
319.853	6.4
320.064	6.24
320.276	6.09
320.488	6.21
320.699	6.79
320.911	6.75
321.123	7.04
321.334	7.09
321.546	6.99
321.757	6.65
321.969	6.41
322.18	5.94
322.392	5.72
322.603	6.35
322.815	6.84
323.026	6.48
323.238	6.32
323.449	5.68
323.661	5.84
323.872	6.37
324.083	6.74
324.295	6.82
324.506	7.07
324.718	7.17
324.929	7.33
325.14	7.09
325.352	6.86
325.563	7.05
325.774	7.27
325.986	7.45
326.197	7.33
326.408	7.21
326.62	7.09
326.831	7.78
327.042	7.71
327.253	7.66
327.464	8.11
327.676	8.5
327.887	8.66
328.098	8.67
328.309	8.83
328.52	8.87
328.732	9.23
328.943	9.32
329.154	8.39
329.365	8.12
329.576	7.79
329.787	7.02
329.998	7.41
330.209	6.56
330.42	6.88
330.631	6.82
330.842	6.84
331.053	6.18
331.264	6.27
331.475	6.85
331.686	7.48
331.897	8.09
332.108	8.24
332.319	7.94
332.53	8.43
332.741	8.54
332.952	8.7
333.163	8.41
333.374	8.66
333.585	8.72
333.795	8.65
334.006	8.06
334.217	7.74
334.428	7.63
334.639	7.39
334.849	6.83
335.06	6.86
335.271	6.31
335.482	6.4
335.692	6.65
335.903	6.65
336.114	6.79
336.325	7.09
336.535	6.88
336.746	7
336.957	7.12
337.167	7.78
337.378	7.54
337.589	7.9
337.799	7.79
338.01	7.76
338.22	7.8
338.431	8.11
338.642	8.51
338.852	8.39
339.063	8.52
339.273	8.25
339.484	8
339.694	7.92
339.905	7.58
340.115	7.83
340.326	7.86
340.536	8.03
340.746	7.54
340.957	6.86
341.167	7.34
341.378	7.42
341.588	7.78
341.799	7.93
342.009	7.65
342.219	7.61
342.43	7.42
342.64	7.08
342.85	6.62
343.061	6.85
343.271	7.3
343.481	7.43
343.691	7.26
343.902	7.27
344.112	7.39
344.322	7.94
344.532	7.84
344.743	8.1
344.953	8.41
345.163	8.45
345.373	8.32
345.583	8.01
345.793	7.63
346.004	7.57
346.214	7.28
346.424	7.03
346.634	6.8
346.844	7
347.054	6.73
347.264	6.91
347.474	6.98
347.684	6.79
347.894	6.72
348.104	6.61
348.314	6.77
348.524	7.2
348.734	7.32
348.944	7.28
349.154	7.36
349.364	7.43
349.574	6.9
349.784	6.99
349.994	7.38
350.204	7.59
350.413	7.46
350.623	7.61
350.833	7.5
351.043	7.3
351.253	7.38
351.463	7.1
351.672	6.94
351.882	6.95
352.092	6.98
352.302	6.67
352.511	6.68
352.721	7.25
352.931	6.94
353.141	6.59
353.35	6.66
353.56	6.52
353.77	6.81
353.979	7.25
354.189	7.41
354.399	7.16
354.608	7
354.818	6.84
355.027	6.82
355.237	6.65
355.447	6.78
355.656	6.83
355.866	6.83
356.075	6.66
356.285	6.4
356.494	6.45
356.704	6.65
356.913	6.87
357.123	6.99
357.332	6.93
357.542	6.93
357.751	6.99
357.96	7.17
358.17	7.21
358.379	7.31
358.589	7.1
358.798	7.09
359.007	7.03
359.217	6.96
359.426	7.08
359.635	7.26
359.845	7.48
360.054	7.53
360.263	7.37
360.472	7.29
360.682	7.07
360.891	6.93
361.1	6.97
361.309	7.01
361.519	6.99
361.728	7.01
361.937	6.61
362.146	6.52
362.355	6.4
362.564	6.38
362.774	6.39
362.983	6.39
363.192	6.73
363.401	6.51
363.61	6.47
363.819	6.61
364.028	6.23
364.237	6.49
364.446	6.61
364.655	6.82
364.864	6.89
365.073	6.87
365.282	6.99
365.491	6.79
365.7	6.91
365.909	6.94
366.118	6.79
366.327	7.21
366.536	6.99
366.745	7.06
366.954	6.9
367.162	6.9
367.371	6.85
367.58	6.69
367.789	6.84
367.998	6.71
368.207	6.61
368.415	6.82
368.624	6.43
368.833	6.31
369.042	5.92
369.25	5.83
369.459	5.54
369.668	5.69
369.877	6.01
370.085	5.82
370.294	6.15
370.503	6.09
370.711	5.98
370.92	6.16
371.129	6.2
371.337	6.58
371.546	6.55
371.754	6.57
371.963	6.39
372.171	6.02
372.38	6.17
372.589	5.76
372.797	6.16
373.006	6.06
373.214	6.03
373.423	6.07
373.631	5.48
373.84	5.55
374.048	5.87
374.256	5.75
374.465	6.08
374.673	6.13
374.882	6.39
375.09	6.15
375.298	5.99
375.507	6.2
375.715	6.12
375.923	6.28
376.132	6.1
376.34	5.87
376.548	5.94
376.757	5.79
376.965	5.75
377.173	5.67
377.381	5.61
377.59	5.73
377.798	5.4
378.006	5.62
378.214	5.8
378.423	6.09
378.631	6.02
378.839	6.33
379.047	6.29
379.255	6.22
379.463	6.23
379.671	6.28
379.879	6.35
380.088	6.36
380.296	6.1
380.504	5.99
380.712	5.95
380.92	6
381.128	5.59
381.336	5.6
381.544	5.64
381.752	5.74
381.96	5.66
382.168	5.69
382.376	5.63
382.584	5.69
382.791	6.04
382.999	5.82
383.207	5.84
383.415	5.93
383.623	6.13
383.831	6.15
384.039	6.07
384.247	6.23
384.454	6.18
384.662	6.38
384.87	6.49
385.078	6.22
385.285	6.41
385.493	6.34
385.701	6.35
385.909	6.37
386.116	6.1
386.324	6.26
386.532	6.08
386.739	5.97
386.947	5.67
387.155	5.47
387.362	5.49
387.57	5.43
387.778	5.43
387.985	5.51
388.193	5.37
388.4	5.58
388.608	5.17
388.816	5.16
389.023	5.29
389.231	5.42
389.438	5.44
389.646	5.41
389.853	5.3
390.061	5.41
390.268	5.27
390.475	5.15
390.683	4.92
390.89	5.17
391.098	5.39
391.305	5.3
391.512	5.44
391.72	5.54
391.927	5.48
392.135	5.41
392.342	5.39
392.549	5.58
392.756	5.58
392.964	5.56
393.171	5.55
393.378	5.43
393.586	5.35
393.793	5.37
394	5.35
394.207	5.5
394.414	5.62
394.622	5.65
394.829	5.6
395.036	5.56
395.243	5.77
395.45	5.79
395.657	5.58
395.864	5.43
396.072	5.22
396.279	5.4
396.486	5.53
396.693	5.53
396.9	5.57
397.107	5.77
397.314	5.67
397.521	5.63
397.728	5.51
397.935	5.67
398.142	5.87
398.349	6.08
398.556	5.76
398.763	5.68
398.97	5.57
399.177	5.42
399.383	5.21
399.59	5.24
399.797	5.3
400.004	5.28
400.211	5.45
400.418	5.57
400.625	5.34
400.831	5.6
401.038	5.49
401.245	5.45
401.452	5.81
401.658	5.72
401.865	6
402.072	5.96
402.279	6.03
402.485	5.76
402.692	5.57
402.899	5.57
403.105	5.55
403.312	5.39
403.519	5.65
403.725	5.37
403.932	5.33
404.138	5.2
404.345	5.29
404.552	5.43
404.758	5.59
404.965	5.52
405.171	5.8
405.378	5.7
405.584	5.72
405.791	5.51
405.997	5.66
406.204	5.9
406.41	5.99
406.617	5.74
406.823	5.57
407.029	5.45
407.236	5.58
407.442	5.5
407.649	5.57
407.855	5.65
408.061	5.67
408.268	5.46
408.474	5.34
408.68	5.26
408.887	5.51
409.093	5.59
409.299	5.75
409.505	5.94
409.712	5.82
409.918	5.83
410.124	5.77
410.33	5.85
410.537	6.01
410.743	6.1
410.949	6.22
411.155	6.29
411.361	6.31
411.567	6.19
411.773	6.1
411.98	6.31
412.186	6.25
412.392	6.42
412.598	6.49
412.804	6.47
413.01	6.58
413.216	6.43
413.422	6.3
413.628	6.32
413.834	6.49
414.04	6.48
414.246	6.37
414.452	6.53
414.658	6.59
414.864	6.49
415.07	6.4
415.275	6.15
415.481	6.1
415.687	6.2
415.893	6.02
416.099	5.65
416.305	5.82
416.511	5.81
416.716	5.78
416.922	5.77
417.128	5.95
417.334	6.15
417.539	6.29
417.745	6.44
417.951	6.49
418.157	6.61
418.362	6.89
418.568	6.8
418.774	6.93
418.979	6.94
419.185	6.85
419.391	6.73
419.596	6.69
419.802	6.67
420.008	6.68
420.213	6.64
420.419	6.75
420.624	6.78
420.83	6.86
421.035	6.81
421.241	6.77
421.446	6.91
421.652	7.04
421.857	7.12
422.063	7.15
422.268	7.21
422.474	7.26
422.679	7.2
422.885	7.17
423.09	7.01
423.295	7.01
423.501	7.02
423.706	6.99
423.911	6.9
424.117	6.84
424.322	6.82
424.527	6.74
424.733	6.67
424.938	6.62
425.143	6.74
425.349	6.83
425.554	6.84
425.759	6.94
425.964	6.99
426.169	7.07
426.375	7.04
426.58	7.04
426.785	7.06
426.99	7.27
427.195	7.44
427.4	7.31
427.605	7.28
427.811	7.3
428.016	7.24
428.221	7.15
428.426	7.21
428.631	7.23
428.836	7.3
429.041	7.34
429.246	7.25
429.451	7.18
429.656	7.14
429.861	7.27
430.066	7.37
430.271	7.45
430.476	7.48
430.681	7.41
430.886	7.6
431.09	7.53
431.295	7.58
431.5	7.59
431.705	7.62
431.91	7.75
432.115	7.79
432.32	7.8
432.524	7.72
432.729	7.73
432.934	7.75
433.139	7.71
433.343	7.73
433.548	7.8
433.753	7.7
433.958	7.7
434.162	7.68
434.367	7.7
434.572	7.68
434.776	7.75
434.981	7.77
435.186	7.8
435.39	7.7
435.595	7.79
435.799	7.74
436.004	7.96
436.209	7.9
436.413	7.85
436.618	7.83
436.822	7.84
437.027	7.86
437.231	7.83
437.436	7.9
437.64	8.04
437.845	8.08
438.049	8.15
438.253	8
438.458	8.06
438.662	8.18
438.867	8.25
439.071	8.21
439.275	8.23
439.48	8.33
439.684	8.26
439.888	8.14
440.093	8.06
440.297	8.1
440.501	8.12
440.706	8.2
440.91	8.17
441.114	8.11
441.318	8.2
441.523	8.21
441.727	8.24
441.931	8.29
442.135	8.44
442.339	8.56
442.543	8.61
442.748	8.7
442.952	8.58
443.156	8.51
443.36	8.61
443.564	8.59
443.768	8.65
443.972	8.65
444.176	8.61
444.38	8.56
444.584	8.56
444.788	8.52
444.992	8.51
445.196	8.5
445.4	8.52
445.604	8.48
445.808	8.35
446.012	8.28
446.216	8.25
446.42	8.34
446.624	8.31
446.828	8.31
447.032	8.33
447.235	8.31
447.439	8.34
447.643	8.47
447.847	8.54
448.051	8.68
448.254	8.59
448.458	8.62
448.662	8.66
448.866	8.68
449.069	8.71
449.273	8.73
449.477	8.77
449.681	8.8
449.884	8.72
450.088	8.67
450.292	8.67
450.495	8.87
450.699	8.77
450.902	8.59
451.106	8.66
451.31	8.75
451.513	8.75
451.717	8.78
451.92	8.8
452.124	8.68
452.327	8.68
452.531	8.73
452.734	8.76
452.938	8.91
453.141	9.03
453.345	8.91
453.548	8.87
453.752	8.7
453.955	8.52
454.158	8.57
454.362	8.74
454.565	8.77
454.769	8.8
454.972	8.69
455.175	8.64
455.379	8.65
455.582	8.59
455.785	8.56
455.988	8.55
456.192	8.61
456.395	8.63
456.598	8.59
456.801	8.57
457.005	8.43
457.208	8.46
457.411	8.52
457.614	8.54
457.817	8.63
458.021	8.61
458.224	8.68
458.427	8.79
458.63	8.74
458.833	8.75
459.036	8.77
459.239	8.79
459.442	8.79
459.645	8.76
459.848	8.75
460.051	8.79
460.254	8.92
460.457	8.92
460.66	8.98
460.863	9.04
461.066	9.08
461.269	9.09
461.472	9.17
461.675	9.26
461.878	9.36
462.081	9.3
462.284	9.36
462.486	9.17
462.689	9.2
462.892	9.23
463.095	9.22
463.298	9.16
463.5	9.15
463.703	9.07
463.906	9
464.109	8.87
464.311	8.98
464.514	8.93
464.717	8.86
464.92	8.81
465.122	8.68
465.325	8.65
465.528	8.63
465.73	8.61
465.933	8.63
466.135	8.66
466.338	8.8
466.541	8.78
466.743	8.86
466.946	8.97
467.148	9.14
467.351	9.11
467.553	9.14
467.756	9.28
467.958	9.35
468.161	9.36
468.363	9.39
468.566	9.29
468.768	9.19
468.971	9.16
469.173	9.15
469.375	9.05
469.578	9.13
469.78	9.25
469.983	9.17
470.185	9.11
470.387	9.11
470.59	9.1
470.792	9.18
470.994	9.28
471.196	9.3
471.399	9.31
471.601	9.41
471.803	9.44
472.005	9.32
472.208	9.35
472.41	9.33
472.612	9.32
472.814	9.28
473.016	9.23
473.218	9.22
473.421	9.23
473.623	9.32
473.825	9.32
474.027	9.3
474.229	9.44
474.431	9.25
474.633	9.27
474.835	9.32
475.037	9.38
475.239	9.48
475.441	9.51
475.643	9.36
475.845	9.31
476.047	9.24
476.249	9.21
476.451	9.11
476.653	9.23
476.855	9.23
477.057	9.24
477.258	9.26
477.46	9.21
477.662	9.14
477.864	9.18
478.066	9.2
478.268	9.32
478.469	9.26
478.671	9.31
478.873	9.4
479.075	9.38
479.276	9.46
479.478	9.45
479.68	9.48
479.882	9.48
480.083	9.56
480.285	9.61
480.487	9.46
480.688	9.49
480.89	9.45
481.091	9.45
481.293	9.44
481.495	9.41
481.696	9.37
481.898	9.31
482.099	9.32
482.301	9.3
482.502	9.24
482.704	9.23
482.905	9.29
483.107	9.31
483.308	9.33
483.51	9.34
483.711	9.36
483.913	9.39
484.114	9.42
484.315	9.43
484.517	9.47
484.718	9.52
484.92	9.57
485.121	9.53
485.322	9.55
485.524	9.57
485.725	9.59
485.926	9.56
486.127	9.52
486.329	9.55
486.53	9.57
486.731	9.49
486.932	9.4
487.134	9.38
487.335	9.43
487.536	9.43
487.737	9.42
487.938	9.42
488.139	9.43
488.341	9.46
488.542	9.42
488.743	9.46
488.944	9.52
489.145	9.65
489.346	9.7
489.547	9.65
489.748	9.63
489.949	9.64
490.15	9.63
490.351	9.63
490.552	9.62
490.753	9.63
490.954	9.58
491.155	9.54
491.356	9.51
491.557	9.48
491.758	9.54
491.959	9.55
492.159	9.57
492.36	9.61
492.561	9.67
492.762	9.7
492.963	9.77
493.164	9.85
493.364	9.95
493.565	9.94
493.766	10.03
493.967	10.1
494.167	10.09
494.368	10.03
494.569	10.08
494.769	10.04
494.97	9.91
495.171	9.87
495.371	9.8
495.572	9.72
495.773	9.78
495.973	9.75
496.174	9.62
496.375	9.75
496.575	9.87
496.776	9.83
496.976	9.83
497.177	9.96
497.377	9.98
497.578	9.96
497.778	9.95
497.979	9.92
498.179	9.89
498.38	9.96
498.58	9.89
498.78	9.84
498.981	9.84
499.181	9.84
499.382	9.87
499.582	9.89
499.782	9.95
499.983	10.03
500.183	10.05
500.383	10.14
500.584	10.16
500.784	10.06
500.984	10.04
501.184	10.09
501.385	10.15
501.585	10.09
501.785	10.16
501.985	10.21
502.185	10.19
502.386	10.14
502.586	10.19
502.786	10.2
502.986	10.31
503.186	10.27
503.386	10.3
503.586	10.26
503.786	10.29
503.987	10.2
504.187	10.16
504.387	10.2
504.587	10.22
504.787	10.13
504.987	10.16
505.187	10.19
505.387	10.3
505.587	10.28
505.786	10.33
505.986	10.4
506.186	10.47
506.386	10.48
506.586	10.55
506.786	10.63
506.986	10.71
507.186	10.75
507.386	10.76
507.585	10.73
507.785	10.75
507.985	10.82
508.185	10.85
508.384	10.82
508.584	10.94
508.784	10.95
508.984	10.98
509.183	10.95
509.383	10.96
509.583	11.07
509.782	11.07
509.982	11.13
510.182	11.07
510.381	11.07
510.581	11.16
510.781	11.05
510.98	11.07
511.18	11.11
511.379	11.18
511.579	11.24
511.778	11.23
511.978	11.27
512.177	11.32
512.377	11.36
512.576	11.42
512.776	11.5
512.975	11.56
513.175	11.51
513.374	11.59
513.573	11.61
513.773	11.56
513.972	11.56
514.172	11.7
514.371	11.83
514.57	11.88
514.77	11.89
514.969	11.88
515.168	12.02
515.367	12.12
515.567	12.17
515.766	12.27
515.965	12.34
516.164	12.32
516.364	12.21
516.563	12.1
516.762	12.21
516.961	12.16
517.16	12.18
517.359	12.13
517.559	12.24
517.758	12.26
517.957	12.22
518.156	12.25
518.355	12.33
518.554	12.41
518.753	12.45
518.952	12.43
519.151	12.58
519.35	12.61
519.549	12.67
519.748	12.64
519.947	12.65
520.146	12.64
520.345	12.75
520.544	12.81
520.743	12.75
520.942	12.75
521.141	12.79
521.339	12.83
521.538	12.86
521.737	12.89
521.936	12.89
522.135	12.84
522.333	13.04
522.532	13.12
522.731	13.12
522.93	13.28
523.129	13.37
523.327	13.36
523.526	13.38
523.725	13.41
523.923	13.41
524.122	13.45
524.321	13.55
524.519	13.54
524.718	13.52
524.917	13.58
525.115	13.61
525.314	13.62
525.512	13.73
525.711	13.7
525.909	13.74
526.108	13.86
526.306	13.87
526.505	13.88
526.703	13.89
526.902	13.88
527.1	13.89
527.299	13.89
527.497	13.89
527.696	13.92
527.894	14
528.092	14.04
528.291	14.06
528.489	14.14
528.688	14.21
528.886	14.33
529.084	14.36
529.283	14.44
529.481	14.54
529.679	14.64
529.877	14.72
530.076	14.78
530.274	14.88
530.472	14.96
530.67	15.05
530.869	15.14
531.067	15.07
531.265	15.18
531.463	15.15
531.661	15.14
531.859	15.19
532.057	15.2
532.255	15.21
532.454	15.22
532.652	15.22
532.85	15.17
533.048	15.17
533.246	15.23
533.444	15.29
533.642	15.43
533.84	15.45
534.038	15.46
534.236	15.55
534.434	15.59
534.632	15.64
534.83	15.79
535.027	15.9
535.225	15.98
535.423	16.01
535.621	16.01
535.819	16
536.017	16.1
536.215	16.13
536.412	16.12
536.61	16.23
536.808	16.23
537.006	16.19
537.203	16.24
537.401	16.32
537.599	16.53
537.797	16.49
537.994	16.54
538.192	16.66
538.39	16.8
538.587	16.93
538.785	16.94
538.983	16.97
539.18	17.03
539.378	17.07
539.575	17.11
539.773	17.05
539.97	17.13
540.168	17.2
540.366	17.13
540.563	17.08
540.761	17.04
540.958	17.09
541.155	17.2
541.353	17.21
541.55	17.25
541.748	17.24
541.945	17.28
542.143	17.36
542.34	17.35
542.537	17.43
542.735	17.58
542.932	17.67
543.129	17.79
543.327	17.77
543.524	17.89
543.721	18.03
543.919	18.09
544.116	18.13
544.313	18.2
544.51	18.31
544.708	18.38
544.905	18.33
545.102	18.37
545.299	18.37
545.496	18.46
545.693	18.43
545.891	18.39
546.088	18.45
546.285	18.56
546.482	18.59
546.679	18.68
546.876	18.72
547.073	18.82
547.27	18.85
547.467	18.85
547.664	19.01
547.861	19.05
548.058	19.09
548.255	19.14
548.452	19.15
548.649	19.22
548.846	19.22
549.043	19.34
549.24	19.33
549.437	19.44
549.633	19.58
549.83	19.5
550.027	19.63
550.224	19.8
550.421	19.87
550.618	19.88
550.814	19.77
551.011	19.78
551.208	19.73
551.405	19.81
551.601	19.87
551.798	19.89
551.995	19.88
552.191	19.94
552.388	19.9
552.585	19.94
552.781	20.09
552.978	20.27
553.175	20.33
553.371	20.46
553.568	20.54
553.764	20.66
553.961	20.73
554.157	20.99
554.354	21.05
554.55	21.21
554.747	21.33
554.943	21.36
555.14	21.39
555.336	21.51
555.533	21.56
555.729	21.68
555.926	21.7
556.122	21.79
556.318	21.79
556.515	21.89
556.711	21.79
556.907	21.83
557.104	21.94
557.3	22.12
557.496	22.24
557.693	22.33
557.889	22.34
558.085	22.44
558.281	22.47
558.478	22.55
558.674	22.53
558.87	22.73
559.066	22.82
559.262	22.92
559.459	23.02
559.655	23.08
559.851	23.15
560.047	23.16
560.243	23.27
560.439	23.44
560.635	23.39
560.831	23.49
561.027	23.53
561.223	23.54
561.419	23.65
561.615	23.69
561.811	23.64
562.007	23.64
562.203	23.85
562.399	23.83
562.595	23.76
562.791	23.83
562.987	23.91
563.183	23.89
563.379	24.06
563.575	23.94
563.771	23.94
563.966	24
564.162	24.09
564.358	24.06
564.554	24.05
564.75	24.1
564.945	24.29
565.141	24.42
565.337	24.61
565.533	24.69
565.728	24.8
565.924	24.94
566.12	25.08
566.315	25.06
566.511	25.25
566.707	25.38
566.902	25.42
567.098	25.38
567.293	25.33
567.489	25.35
567.684	25.35
567.88	25.31
568.076	25.39
568.271	25.52
568.467	25.77
568.662	25.65
568.858	25.75
569.053	25.92
569.248	26.1
569.444	26.34
569.639	26.36
569.835	26.46
570.03	26.69
570.225	26.66
570.421	26.63
570.616	26.6
570.812	26.78
571.007	26.85
571.202	26.78
571.397	26.81
571.593	26.85
571.788	26.99
571.983	26.97
572.178	27.08
572.374	27.26
572.569	27.27
572.764	27.28
572.959	27.21
573.154	27.18
573.35	27.37
573.545	27.34
573.74	27.43
573.935	27.52
574.13	27.66
574.325	27.56
574.52	27.47
574.715	27.69
574.91	27.83
575.105	28.04
575.3	28.31
575.495	28.38
575.69	28.49
575.885	28.36
576.08	28.39
576.275	28.46
576.47	28.64
576.665	28.88
576.86	28.99
577.055	29.19
577.25	29.09
577.444	29.01
577.639	29
577.834	29.09
578.029	29.19
578.224	29.27
578.418	29.31
578.613	29.28
578.808	29.13
579.003	28.99
579.197	28.86
579.392	29.08
579.587	29.12
579.781	29.09
579.976	29.07
580.171	29.14
580.365	29.15
580.56	29.18
580.755	29.27
580.949	29.43
581.144	29.3
581.338	29.42
581.533	29.45
581.727	29.51
581.922	29.49
582.116	29.57
582.311	29.73
582.505	29.85
582.7	29.92
582.894	29.84
583.089	29.73
583.283	29.92
583.478	30
583.672	29.86
583.866	29.79
584.061	30.11
584.255	30.22
584.449	30.19
584.644	30.04
584.838	30.12
585.032	30.19
585.226	30.36
585.421	30.49
585.615	30.39
585.809	30.65
586.003	30.84
586.198	30.91
586.392	30.81
586.586	30.89
586.78	31.13
586.974	31.02
587.168	31.05
587.363	31.12
587.557	31.12
587.751	31.1
587.945	31.14
588.139	31.02
588.333	30.98
588.527	31.15
588.721	31.11
588.915	30.92
589.109	30.92
589.303	31
589.497	31.06
589.691	31.05
589.885	30.99
590.079	30.83
590.273	30.95
590.466	30.85
590.66	30.83
590.854	30.99
591.048	30.99
591.242	31.19
591.436	31.21
591.629	31.17
591.823	31.22
592.017	31.38
592.211	31.54
592.404	31.54
592.598	31.68
592.792	31.74
592.986	31.74
593.179	31.85
593.373	31.8
593.567	31.82
593.76	31.79
593.954	31.81
594.147	31.79
594.341	31.73
594.535	31.76
594.728	31.76
594.922	31.66
595.115	31.61
595.309	31.67
595.502	31.65
595.696	31.66
595.889	31.67
596.083	31.78
596.276	31.89
596.47	31.91
596.663	31.91
596.856	31.89
597.05	31.94
597.243	31.92
597.437	31.85
597.63	32.04
597.823	32.15
598.017	32.25
598.21	32.18
598.403	32.23
598.596	32.34
598.79	32.41
598.983	32.53
599.176	32.57
599.369	32.77
599.563	32.88
599.756	32.74
599.949	32.79
600.142	32.79
600.335	32.82
600.528	32.83
600.722	32.8
600.915	32.92
601.108	32.91
601.301	33
601.494	33.01
601.687	32.99
601.88	33.07
602.073	33.11
602.266	33.08
602.459	32.98
602.652	32.72
602.845	32.74
603.038	32.52
603.231	32.42
603.424	32.38
603.617	32.28
603.809	32.44
604.002	32.33
604.195	32.15
604.388	32.03
604.581	32.11
604.774	32.33
604.966	32.37
605.159	32.37
605.352	32.49
605.545	32.49
605.737	32.44
605.93	32.24
606.123	32.5
606.316	32.61
606.508	32.79
606.701	32.98
606.894	33
607.086	32.96
607.279	33.17
607.471	33.17
607.664	33.26
607.857	33.34
608.049	33.58
608.242	33.3
608.434	33.4
608.627	33.48
608.819	33.48
609.012	33.55
609.204	33.83
609.397	34.04
609.589	34.28
609.782	34.4
609.974	34.87
610.166	35.22
610.359	35.69
610.551	35.96
610.743	36.37
610.936	36.61
611.128	36.85
611.32	36.81
611.513	36.77
611.705	36.82
611.897	36.9
612.09	36.7
612.282	36.37
612.474	36.13
612.666	35.88
612.858	35.45
613.051	35.08
613.243	34.98
613.435	34.95
613.627	34.96
613.819	34.84
614.011	34.87
614.203	34.71
614.395	34.69
614.588	34.66
614.78	34.68
614.972	34.8
615.164	34.94
615.356	34.71
615.548	34.57
615.74	34.47
615.932	34.36
616.124	34.44
616.315	34.52
616.507	34.63
616.699	34.43
616.891	34.54
617.083	34.42
617.275	34.47
617.467	34.45
617.659	34.52
617.85	34.47
618.042	34.47
618.234	34.14
618.426	34
618.618	33.86
618.809	33.97
619.001	33.84
619.193	33.74
619.384	33.66
619.576	33.8
619.768	33.9
619.959	34.07
620.151	34.26
620.343	34.17
620.534	34.14
620.726	34.23
620.917	34.37
621.109	34.42
621.301	34.48
621.492	34.53
621.684	34.41
621.875	34.49
622.067	34.36
622.258	34.17
622.45	34.2
622.641	34.38
622.832	34.27
623.024	34.05
623.215	33.92
623.407	33.79
623.598	34.09
623.789	34.14
623.981	33.94
624.172	34.03
624.363	34
624.555	34.25
624.746	34.13
624.937	34.19
625.129	34.18
625.32	34.29
625.511	34.59
625.702	34.19
625.893	34.14
626.085	34.03
626.276	33.89
626.467	33.97
626.658	33.87
626.849	33.88
627.04	33.64
627.231	33.9
627.422	33.76
627.614	33.64
627.805	33.71
627.996	33.84
628.187	34.09
628.378	34.25
628.569	34.28
628.76	34.15
628.951	34.26
629.142	34.36
629.332	34.32
629.523	34.48
629.714	34.43
629.905	34.54
630.096	34.6
630.287	34.46
630.478	34.27
630.669	34.43
630.859	34.47
631.05	34.27
631.241	34.49
631.432	34.55
631.623	34.38
631.813	34.45
632.004	34.43
632.195	34.26
632.385	34.12
632.576	34.26
632.767	34.01
632.957	34.24
633.148	34.18
633.339	34.23
633.529	34.03
633.72	34.32
633.91	34.23
634.101	34.27
634.292	34.53
634.482	34.68
634.673	34.79
634.863	34.82
635.054	34.67
635.244	34.82
635.435	34.64
635.625	34.76
635.815	34.53
636.006	34.61
636.196	34.46
636.387	34.06
636.577	34.1
636.767	33.99
636.958	34.24
637.148	34.2
637.338	34.3
637.529	34.51
637.719	34.39
637.909	34.55
638.099	34.51
638.29	34.55
638.48	34.6
638.67	34.56
638.86	34.71
639.05	34.33
639.241	34.24
639.431	34.23
639.621	34.08
639.811	34.01
640.001	33.65
640.191	33.69
640.381	33.72
640.571	33.71
640.761	33.65
640.951	33.4
641.141	33.53
641.331	33.81
641.521	33.89
641.711	33.77
641.901	33.99
642.091	34.14
642.281	34.34
642.471	34.42
642.661	34.47
642.851	34.42
643.041	34.52
643.231	34.6
643.42	34.43
643.61	34.25
643.8	34.26
643.99	34.2
644.18	34.13
644.369	33.97
644.559	33.99
644.749	34
644.939	34.04
645.128	34.09
645.318	33.9
645.508	33.88
645.697	33.92
645.887	34.02
646.076	33.95
646.266	34.01
646.456	34.18
646.645	33.93
646.835	34.07
647.024	34.45
647.214	34.24
647.403	34.31
647.593	34.55
647.782	34.37
647.972	34.5
648.161	34.43
648.351	34.49
648.54	34.35
648.73	34.73
648.919	34.8
649.108	34.48
649.298	34.81
649.487	34.66
649.677	34.38
649.866	34.48
650.055	34.26
650.244	34.31
650.434	34.23
650.623	34.28
650.812	34.11
651.002	34.13
651.191	34.23
651.38	33.95
651.569	34.12
651.758	34.03
651.947	33.77
652.137	33.92
652.326	34.04
652.515	34.09
652.704	33.84
652.893	33.85
653.082	33.72
653.271	33.49
653.46	33.62
653.649	33.83
653.838	34.06
654.027	34.37
654.216	34.22
654.405	34.24
654.594	34.19
654.783	33.87
654.972	33.93
655.161	34.13
655.35	34.15
655.539	34.07
655.728	33.85
655.916	33.84
656.105	33.83
656.294	34.01
656.483	34.06
656.672	34.16
656.86	34.55
657.049	34.32
657.238	34.17
657.427	34.19
657.615	34.24
657.804	34.3
657.993	34.2
658.181	34.05
658.37	34
658.559	33.72
658.747	33.79
658.936	33.89
659.125	33.83
659.313	33.74
659.502	33.8
659.69	33.6
659.879	33.55
660.067	33.63
660.256	33.99
660.444	33.93
660.633	33.95
660.821	33.85
661.01	33.98
661.198	34.28
661.387	34.47
661.575	34.62
661.763	34.75
661.952	34.58
662.14	34.62
662.328	34.42
662.517	34.42
662.705	34.53
662.893	34.94
663.082	34.41
663.27	34.51
663.458	34.42
663.646	34.51
663.834	34.59
664.023	34.76
664.211	34.9
664.399	34.8
664.587	34.79
664.775	34.99
664.963	34.71
665.152	34.84
665.34	34.35
665.528	34.27
665.716	33.97
665.904	33.88
666.092	33.75
666.28	33.47
666.468	33.3
666.656	33.46
666.844	33.47
667.032	33.47
667.22	33.61
667.408	33.8
667.596	33.55
667.784	33.4
667.971	33.6
668.159	33.76
668.347	33.64
668.535	33.82
668.723	33.5
668.911	33.37
669.098	33.39
669.286	33.08
669.474	33.3
669.662	33.51
669.849	33.73
670.037	33.78
670.225	33.8
670.413	33.97
670.6	33.95
670.788	34.34
670.976	34.2
671.163	34.38
671.351	34.84
671.538	34.65
671.726	34.69
671.913	34.55
672.101	34.12
672.289	34.04
672.476	34.03
672.664	33.86
672.851	33.86
673.039	34.17
673.226	33.91
673.413	33.7
673.601	33.63
673.788	33.54
673.976	33.66
674.163	33.99
674.35	33.83
674.538	33.75
674.725	33.95
674.912	33.8
675.1	33.39
675.287	33.61
675.474	33.78
675.662	33.72
675.849	33.85
676.036	34.01
676.223	34.11
676.411	34.56
676.598	34.65
676.785	34.77
676.972	34.82
677.159	34.51
677.346	34.32
677.533	34.27
677.721	34.37
677.908	34.27
678.095	34.1
678.282	33.96
678.469	33.65
678.656	33.7
678.843	33.58
679.03	33.49
679.217	33.91
679.404	33.93
679.591	33.76
679.778	33.87
679.964	33.84
680.151	33.74
680.338	33.72
680.525	33.66
680.712	33.61
680.899	33.64
681.086	33.68
681.272	33.89
681.459	33.83
681.646	34.11
681.833	34.03
682.02	34.15
682.206	34.23
682.393	34.18
682.58	34.48
682.766	34.4
682.953	34.44
683.14	34.62
683.326	34.01
683.513	34.04
683.7	33.74
683.886	33.51
684.073	33.52
684.259	33.52
684.446	33.74
684.632	33.45
684.819	33.71
685.005	33.7
685.192	33.38
685.378	33.98
685.565	34.02
685.751	34.47
685.938	34.67
686.124	34.8
686.31	34.91
686.497	34.9
686.683	34.78
686.87	34.36
687.056	34.42
687.242	34.84
687.429	34.87
687.615	34.76
687.801	34.1
687.987	34.15
688.174	33.86
688.36	33.49
688.546	33.51
688.732	33.6
688.918	33.53
689.105	33.31
689.291	32.71
689.477	32.35
689.663	32.26
689.849	32.6
690.035	32.7
690.221	32.81
690.407	33.2
690.593	32.81
690.779	32.83
690.965	33.07
691.151	33.04
691.337	33.32
691.523	33.36
691.709	33.53
691.895	32.94
692.081	32.85
692.267	32.51
692.453	32.49
692.639	32.92
692.825	32.82
693.011	33.16
693.196	33.1
693.382	32.75
693.568	32.48
693.754	32.27
693.94	32.72
694.125	32.68
694.311	33.03
694.497	32.88
694.682	32.43
694.868	32.48
695.054	31.91
695.239	31.83
695.425	32.37
695.611	32.83
695.796	33.04
695.982	33.04
696.168	33.04
696.353	33.14
696.539	33.06
696.724	33.16
696.91	33.33
697.095	33.75
697.281	33.95
697.466	33.65
697.652	33.41
697.837	33.42
698.023	33.35
698.208	33.43
698.393	33.29
698.579	33.42
698.764	33.44
698.949	33.2
699.135	33.02
699.32	32.96
699.505	32.99
699.691	33.06
699.876	32.99
700.061	33.17
700.246	33.16
700.432	33.31
700.617	33.16
700.802	33.07
700.987	33.12
701.172	33.29
701.358	33.57
701.543	33.74
701.728	33.96
701.913	34.13
702.098	34.03
702.283	34.14
702.468	33.83
702.653	34.07
702.838	34.15
703.023	34
703.208	33.83
703.393	33.66
703.578	33.86
703.763	33.6
703.948	33.39
704.133	33.58
704.318	33.21
704.503	33.05
704.688	33.02
704.873	33.17
705.057	33.61
705.242	33.44
705.427	33.81
705.612	33.83
705.797	34.27
705.981	34.18
706.166	33.75
706.351	33.98
706.536	34.43
706.72	34.76
706.905	34.81
707.09	34.57
707.274	34.71
707.459	33.9
707.644	33.58
707.828	33.73
708.013	33.61
708.197	34.13
708.382	33.92
708.567	33.84
708.751	33.68
708.936	33.28
709.12	33.52
709.305	33.67
709.489	34.09
709.673	34.09
709.858	33.56
710.042	33.84
710.227	33.49
710.411	33.64
710.596	33.98
710.78	33.85
710.964	34.04
711.149	34.18
711.333	34.02
711.517	34.19
711.702	34.38
711.886	34.15
712.07	34.17
712.254	33.93
712.438	33.47
712.623	33.02
712.807	32.77
712.991	32.53
713.175	32.56
713.359	32.42
713.544	32.34
713.728	32.27
713.912	32.36
714.096	32.38
714.28	32.48
714.464	32.81
714.648	32.78
714.832	32.74
715.016	33.07
715.2	32.86
715.384	32.71
715.568	32.52
715.752	32.24
715.936	32.29
716.12	32.28
716.304	32.05
716.488	31.98
716.671	32.02
716.855	32.03
717.039	32
717.223	31.73
717.407	32.3
717.59	32.33
717.774	32.36
717.958	32.16
718.142	31.6
718.325	32.23
718.509	32.18
718.693	31.59
718.877	31.68
719.06	31.6
719.244	32.1
719.428	31.58
719.611	32
719.795	32.23
719.978	32.87
720.162	33.02
720.345	32.83
720.529	32.62
720.713	33.48
720.896	33.51
721.08	33.27
721.263	32.72
721.446	32.66
721.63	32.11
721.813	31.84
721.997	31.35
722.18	31.08
722.364	30.73
722.547	30.51
722.73	30.32
722.914	30.08
723.097	30.3
723.28	30.57
723.464	30.52
723.647	30.96
723.83	30.87
724.013	30.53
724.197	31.16
724.38	31.16
724.563	31.43
724.746	31.47
724.929	31.59
725.112	31.92
725.296	31.82
725.479	31.99
725.662	31.45
725.845	31.37
726.028	31.16
726.211	30.92
726.394	30.52
726.577	30.89
726.76	30.94
726.943	30.68
727.126	30.33
727.309	29.82
727.492	30.04
727.675	29.82
727.858	30.02
728.041	30.87
728.224	30.79
728.407	31.06
728.589	30.95
728.772	30.48
728.955	30.87
729.138	30.92
729.321	30.93
729.503	30.89
729.686	30.56
729.869	30.63
730.052	30.02
730.234	30.09
730.417	30.35
730.6	30.06
730.782	30.1
730.965	29.99
731.148	29.85
731.33	30.39
731.513	30
731.695	30.48
731.878	30
732.061	30.53
732.243	30.54
732.426	30.63
732.608	30.86
732.791	31.2
732.973	31.23
733.156	31.15
733.338	31.04
733.52	30.91
733.703	31.13
733.885	31.71
734.068	31.36
734.25	31.72
734.432	31.34
734.615	31.5
734.797	31.16
734.979	30.82
735.162	30.59
735.344	30.73
735.526	30.77
735.708	30.56
735.891	30.1
736.073	30.49
736.255	30.16
736.437	30.03
736.619	29.68
736.802	29.81
736.984	30.09
737.166	30.27
737.348	29.52
737.53	30.09
737.712	30
737.894	29.91
738.076	29.73
738.258	29.69
738.44	30.12
738.622	30.15
738.804	30.05
738.986	29.94
739.168	30.33
739.35	30.7
739.532	30.32
739.714	29.8
739.896	29.49
740.078	29.3
740.259	29.08
740.441	29.2
740.623	29.5
740.805	29.51
740.987	29.78
741.168	29.02
741.35	28.9
741.532	29.43
741.714	29.69
741.895	29.44
742.077	29.55
742.259	30.44
742.44	30.84
742.622	30.74
742.804	31.01
742.985	30.47
743.167	30.77
743.348	30.5
743.53	30.11
743.711	31.22
743.893	32.4
744.075	32.17
744.256	31.05
744.438	30.09
744.619	30.56
744.8	30.48
744.982	31.24
745.163	31.49
745.345	32.17
745.526	32.17
745.707	31.44
745.889	30.65
746.07	29.99
746.252	30.97
746.433	31.32
746.614	29.97
746.795	28.95
746.977	27.68
747.158	27.48
747.339	27.26
747.52	27.41
747.702	26.83
747.883	26.69
748.064	27.61
748.245	26.5
748.426	26.5
748.607	26.82
748.788	27.75
748.97	28.24
749.151	27.96
749.332	28.22
749.513	27.87
749.694	27.92
749.875	28.16
750.056	28.01
750.237	28.16
750.418	27.57
750.599	27.45
750.78	27.24
750.96	27.42
751.141	28.02
751.322	27.67
751.503	27.65
751.684	28.2
751.865	28.85
752.046	28.12
752.226	27.84
752.407	28.45
752.588	28.4
752.769	28.15
752.949	27.63
753.13	27.28
753.311	28.03
753.492	28.2
753.672	27.98
753.853	28.2
754.034	29.01
754.214	29.28
754.395	29.18
754.575	29.74
754.756	29.63
754.937	30.18
755.117	29.5
755.298	28.88
755.478	28.83
755.659	29.01
755.839	28.31
756.02	27.93
756.2	28.44
756.381	29.3
756.561	28.78
756.741	29.79
756.922	29.3
757.102	29.66
757.283	29.65
757.463	29.67
757.643	29.19
757.823	29.22
758.004	30.01
758.184	29.67
758.364	28.62
758.545	29.1
758.725	28.47
758.905	28.82
759.085	29.83
759.265	30.09
759.446	29.97
759.626	31.17
759.806	30.88
759.986	30.45
760.166	30.74
760.346	30.5
760.526	30.4
760.706	30.83
760.886	30.49
761.066	29.89
761.246	29.67
761.426	29.81
761.606	29.04
761.786	28.78
761.966	29.16
762.146	28.41
762.326	28.81
762.506	28.73
762.686	28.46
762.866	28.23
763.046	28.21
763.225	28.66
763.405	28.61
763.585	28.42
763.765	28.5
763.945	27.81
764.124	28.63
764.304	28.72
764.484	28.7
764.664	29.04
764.843	29.57
765.023	29.37
765.203	29.35
765.382	29.06
765.562	29.09
765.741	29.33
765.921	29.54
766.101	29.25
766.28	28.58
766.46	28.62
766.639	28.07
766.819	28.1
766.998	28.09
767.178	27.53
767.357	27.69
767.537	27.32
767.716	27.29
767.896	27.32
768.075	26.97
768.254	26.89
768.434	27.4
768.613	27.22
768.792	27.01
768.972	27.13
769.151	26.22
769.33	26.14
769.51	27.1
769.689	26.69
769.868	26.89
770.047	27.14
770.226	27.71
770.406	27.37
770.585	27.77
770.764	27.6
770.943	28.28
771.122	28.93
771.301	29.23
771.48	29.1
771.66	29.24
771.839	29.82
772.018	29.45
772.197	29.19
772.376	28.46
772.555	28.61
772.734	28.79
772.913	28.1
773.092	28.34
773.271	27.11
773.449	26.64
773.628	26.92
773.807	26.07
773.986	25.76
774.165	26.39
774.344	26.92
774.523	26.28
774.701	26.16
774.88	27.23
775.059	27.28
775.238	27.89
775.417	27.84
775.595	27.54
775.774	26.93
775.953	27.04
776.131	27.14
776.31	26.77
776.489	26.24
776.667	26.07
776.846	24.47
777.025	23.28
777.203	23.55
777.382	22.68
777.56	22.15
777.739	23.21
777.917	23.76
778.096	22.51
778.274	22.94
778.453	24.06
778.631	23.64
778.81	23.86
778.988	26.13
779.166	25.92
779.345	26.83
779.523	27.97
779.702	27.15
779.88	27.14
780.058	27.49
780.237	27.75
780.415	27.07
780.593	27.92
780.771	29.13
780.95	27.24
781.128	28.04
781.306	29.09
781.484	28.73
781.662	30.34
781.841	30.71
782.019	30.1
782.197	30.19
782.375	29.98
782.553	29.7
782.731	28.84
782.909	29.7
783.087	30.36
783.265	28.41
783.443	28.61
783.621	26.96
783.799	26.35
783.977	26.85
784.155	26.69
784.333	27.13
784.511	27.11
784.689	27.29
784.867	27.47
785.045	26.69
785.223	27.91
785.4	27.6
785.578	28.96
785.756	28.07
785.934	28.47
786.112	27.89
786.289	28.15
786.467	28.49
786.645	27.6
786.823	26.54
787	25.16
787.178	24.42
787.356	24.13
787.533	24.41
787.711	24.42
787.889	25.12
788.066	24.79
788.244	24.52
788.421	24.5
788.599	24.49
788.776	24.14
788.954	24.7
789.131	24.62
789.309	24.52
789.486	23.72
789.664	22.91
789.841	22.66
790.019	22.59
790.196	22.85
790.373	22.7
790.551	22.6
790.728	22.65
790.906	22.86
791.083	22.81
791.26	24.11
791.437	23.38
791.615	24.4
791.792	23.25
791.969	24.35
792.146	24.32
792.324	25.27
792.501	26.4
792.678	28.08
792.855	27.7
793.032	28.07
793.209	26.54
793.387	28.14
793.564	27.85
793.741	28.76
793.918	27.83
794.095	26.75
794.272	25.85
794.449	25.14
794.626	24.59
794.803	24.79
794.98	24.82
795.157	25.28
795.334	23.59
795.511	23.76
795.688	22.89
795.864	22.45
796.041	22.01
796.218	23.04
796.395	22.9
796.572	22.14
796.749	23.86
796.925	24.06
797.102	24.6
797.279	24.94
797.456	25.5
797.632	25.46
797.809	24.77
797.986	25.75
798.162	24.37
798.339	24.04
798.516	24.12
798.692	22.67
798.869	21.91
799.046	21.38
799.222	21.85
799.399	21.53
799.575	21.96
799.752	23.91
799.928	24.21
800.105	23.61
800.281	24.21
800.458	23.84
800.634	24.29
800.811	24.57
800.987	23.35
801.163	22.91
801.34	23.03
801.516	23.28
801.692	21.91
801.869	22.08
802.045	22.78
802.221	23.13
802.398	21.61
802.574	19.59
802.75	19.86
802.926	19.38
803.103	18.61
803.279	18.3
803.455	18.7
803.631	20.39
803.807	19.91
803.983	20.49
804.16	21.44
804.336	23.84
804.512	24.35
804.688	25.82
804.864	28.15
805.04	28.49
805.216	28.71
805.392	28
805.568	27.33
805.744	27.63
805.92	26.27
806.096	26.3
806.272	25.43
806.448	26.19
806.623	24.91
806.799	23.86
806.975	24.49
807.151	24.32
807.327	25.31
807.503	23.8
807.678	23.5
807.854	25.21
808.03	22.96
808.206	23.9
808.381	24.72
808.557	24.4
808.733	24.89
808.908	23.9
809.084	23.01
809.26	22.29
809.435	24.08
809.611	23.29
809.787	20.26
809.962	21.17
810.138	21.08
810.313	20.67
810.489	22.03
810.664	21.97
810.84	22.99
811.015	24.33
811.191	24.84
811.366	23.73
811.542	24.5
811.717	26.56
811.892	26.87
812.068	27.31
812.243	26.05
812.419	24.98
812.594	23.28
812.769	23.08
812.944	22.28
813.12	21.21
813.295	22.01
813.47	21.63
813.645	21.64
813.821	22.02
813.996	20.96
814.171	22.6
814.346	21.68
814.521	23.92
814.697	23.81
814.872	23.86
815.047	25.01
815.222	24.67
815.397	25.75
815.572	25.08
815.747	24.69
815.922	24.88
816.097	25.22
816.272	26.24
816.447	25.26
816.622	25.48
816.797	26.14
816.972	24.89
817.147	26.43
817.322	26.08
817.496	25.65
817.671	26.05
817.846	25.28
818.021	25.84
818.196	24.83
818.371	23.94
818.545	24.42
818.72	24.38
818.895	24.14
819.069	22.22
819.244	21.55
819.419	22.66
819.594	23.42
819.768	24.36
819.943	23.42
820.117	24.78
820.292	26.31
820.467	25.44
820.641	26.13
820.816	26.73
820.99	27.22
821.165	26.92
821.339	26.31
821.514	25.82
821.688	25.59
821.863	25.64
822.037	25.75
822.212	25.69
822.386	26.12
822.56	26.02
822.735	26.08
822.909	26.25
823.084	26.43
823.258	26.84
823.432	26.94
823.606	27.1
823.781	27.1
823.955	26.9
824.129	26.66
824.303	26.42
824.478	26.44
824.652	26.06
824.826	25.57
825	25.94
825.174	25.76
825.348	25.22
825.523	24.98
825.697	24.68
825.871	24.14
826.045	24.41
826.219	23.8
826.393	23.47
826.567	23.74
826.741	24.38
826.915	24.41
827.089	24.35
827.263	25.21
827.437	25.16
827.611	25.88
827.784	26.51
827.958	26.16
828.132	26.57
828.306	26.14
828.48	25.96
828.654	25.77
828.827	25.31
829.001	25.26
829.175	24.68
829.349	24.88
829.522	23.29
829.696	23.41
829.87	22.86
830.044	22.47
830.217	23.19
830.391	24.15
830.565	24.13
830.738	23.03
830.912	23.69
831.085	24.83
831.259	24.36
831.432	26.44
831.606	25.59
831.779	26.25
831.953	27.29
832.126	27.09
832.3	26.01
832.473	24.12
832.647	24.89
832.82	23.18
832.994	21.94
833.167	23.17
833.34	22.9
833.514	22.64
833.687	23.01
833.86	22.72
834.034	23.2
834.207	24.04
834.38	25.47
834.553	26.02
834.727	27.16
834.9	27.21
835.073	25.86
835.246	25.78
835.419	26.35
835.593	26.55
835.766	26.97
835.939	26.92
836.112	25.98
836.285	24.4
836.458	22.95
836.631	22.11
836.804	22.16
836.977	24.28
837.15	24.71
837.323	23.53
837.496	24.26
837.669	22.71
837.842	20.35
838.015	19.91
838.188	21.17
838.361	19.42
838.533	19.44
838.706	18.89
838.879	16.98
839.052	15.9
839.225	16.1
839.398	17.09
839.57	18.07
839.743	17.58
839.916	18.73
840.088	18.95
840.261	23.34
840.434	21.5
840.607	23.01
840.779	23.64
840.952	23.56
841.124	23.24
841.297	21.79
841.47	23.6
841.642	25.46
841.815	24.46
841.987	25.71
842.16	20.99
842.332	22.13
842.505	21.96
842.677	22.72
842.85	21.58
843.022	22.78
843.194	22.81
843.367	19.32
843.539	17.32
843.712	16.79
843.884	15.67
844.056	18.43
844.229	16.78
844.401	15.12
844.573	13.26
844.745	14.03
844.918	9.47
845.09	11.02
845.262	12.14
845.434	13.26
845.606	13.41
845.779	8.39
845.951	10.8
846.123	15.08
846.295	15.69
846.467	19.93
846.639	18.54
846.811	19.57
846.983	15.19
847.155	15.34
847.327	13.3
847.499	15.26
847.671	16.11
847.843	15.4
848.015	13.7
848.187	17.41
848.359	13.82
848.531	20.15
848.703	20.47
848.875	23.08
849.047	23.28
849.218	25.82
849.39	26.18
849.562	29.94
849.734	28.18
849.905	28.64
850.077	26.19
850.249	25.75
850.421	20.49
850.592	20.6
850.764	19.54
850.936	20.86
851.107	24.21
851.279	20.16
851.451	19.07
851.622	18.6
851.794	17.11
851.965	15.91
852.137	15.24
852.308	12.01
852.48	13.97
852.651	14.49
852.823	5.91
852.994	4.21
853.166	1.99
853.337	-5.62
853.509	-3.12
853.68	-10.42
853.851	-2.21
854.023	-3.84
854.194	1.14
854.365	-1.34
854.537	-1.4
854.708	14.28
854.879	11.66
855.05	10.96
855.222	14.92
855.393	16.24
855.564	17.35
855.735	9.69
855.906	14.37
856.078	15.9
856.249	13.84
856.42	14.1
856.591	6.16
856.762	7.78
856.933	15
857.104	20.8
857.275	19.9
857.446	24.06
857.617	30.14
857.788	28.97
857.959	28.31
858.13	33.82
858.301	37.05
858.472	41.67
858.643	37.33
858.814	34.84
858.985	33.03
859.155	35.26
859.326	38.91
859.497	35.66
859.668	33.4
859.839	38.53
860.009	33.64
860.18	32.11
860.351	30.18
860.522	34.08
860.692	37.53
860.863	36.77
861.034	38.88
861.204	33.36
861.375	30.49
861.546	33.47
861.716	23.77
861.887	29.03
862.057	29.4
862.228	28.74
862.398	25.97
862.569	21.4
862.739	21.6
862.91	12.78
863.08	10.73
863.251	9.39
863.421	10.06
863.592	11.84
863.762	9.36
863.932	2.18
864.103	0.59
864.273	-0.96
864.443	1.48
864.614	5.1
864.784	3.63
864.954	3.86
865.125	8.33
865.295	9.01
865.465	10.25
865.635	12.21
865.805	18.38
865.976	17.04
866.146	24.32
866.316	20.69
866.486	18.48
866.656	26.59
866.826	30.74
866.996	27.32
867.166	31.57
867.336	29.47
867.506	34.27
867.676	31.01
867.846	32.46
868.016	31.64
868.186	41.45
868.356	39.48
868.526	33.94
868.696	32.52
868.866	37.87
869.036	34.61
869.206	35.1
869.376	32.49
869.545	38.91
869.715	38.75
869.885	32.78
870.055	24.58
870.224	24.3
870.394	24.69
870.564	26.44
870.734	22.59
870.903	18.02
871.073	17.09
871.243	13.53
871.412	10.93
871.582	10.05
871.751	17.4
871.921	21.19
872.091	21.59
872.26	23.95
872.43	18.74
872.599	19.71
872.769	23.53
872.938	29.65
873.108	29.19
873.277	27.14
873.446	30.96
873.616	27.36
873.785	19.25
873.955	20.6
874.124	21.97
874.293	23.01
874.463	23.06
874.632	20.32
874.801	10.13
874.971	14.11
875.14	19.13
875.309	17.93
875.478	23.04
875.647	26.83
875.817	28.53
875.986	25.94
876.155	28.4
876.324	26.86
876.493	28.69
876.662	31.19
876.831	32.93
877	26.4
877.17	11.63
877.339	4
877.508	6.29
877.677	7.23
877.846	7.24
878.015	8.96
878.184	9.57
878.352	-1.63
878.521	6.47
878.69	2.89
878.859	5.7
879.028	17.87
879.197	15.41
879.366	14.52
879.534	11.38
879.703	8.67
879.872	11.23
880.041	12.77
880.21	19
880.378	17.13
880.547	16.99
880.716	17.37
880.884	16.37
881.053	18.82
881.222	20.78
881.39	22.11
881.559	23.15
881.727	23.09
881.896	22.8
882.065	22.16
882.233	22.69
882.402	23.97
882.57	23.96
882.739	24.27
882.907	24.31
883.076	24.03
883.244	23.59
883.412	24.31
883.581	24.63
883.749	25.2
883.918	25.53
884.086	24.83
884.254	25.11
884.423	24.75
884.591	25.11
884.759	24.64
884.927	24.26
885.096	24.34
885.264	22.84
885.432	20.54
885.6	19.47
885.769	19.51
885.937	18.69
886.105	14.09
886.273	13.77
886.441	11.24
886.609	12.49
886.777	11.24
886.945	10.14
887.113	8.24
887.281	9.32
887.449	10.28
887.617	10.66
887.785	14.89
887.953	16.24
888.121	17.72
888.289	17.17
888.457	17.98
888.625	21.36
888.793	22.88
888.961	26.85
889.129	32.55
889.296	27.52
889.464	26.71
889.632	27.07
889.8	30.13
889.967	30.37
890.135	36.97
