Data from 2938746__Reflection_04.txt Node
Date: Sun Mar 15 11:44:46 EDT 2015
User: robert
Spectrometer: USB4E03002
Autoset integration time: false
Trigger mode: 4
Integration Time (sec): 1.000000E-1
Scans to average: 10
Electric dark correction enabled: false
Nonlinearity correction enabled: false
Boxcar width: 5
Stray light correction enabled: false
XAxis mode: Wavelengths
Stop averaging: false
Number of Pixels in Spectrum: 3648
>>>>>Begin Spectral Data<<<<<
177.575	330
177.794	252.91
178.014	431.38
178.233	497.42
178.452	587.44
178.672	847.97
178.891	1008.27
179.11	-2944.19
179.33	-763.25
179.549	-635.38
179.768	-955.24
179.987	-1733.77
180.207	-499.64
180.426	-3053.85
180.645	-2501.49
180.864	-24642.86
181.084	1660.71
181.303	-8871.43
181.522	1048.7
181.741	920.56
181.96	1656.1
182.179	460.04
182.398	427.44
182.618	288.89
182.837	292.72
183.056	262.45
183.275	285.41
183.494	322.4
183.713	263.15
183.932	246.29
184.151	213.36
184.37	214.17
184.589	315.83
184.808	313.98
185.027	355.33
185.246	358.02
185.465	315.8
185.684	349.13
185.903	319.78
186.122	302.58
186.341	474.76
186.56	821.46
186.779	591.94
186.998	554.87
187.216	663.48
187.435	1210.83
187.654	1113.69
187.873	3718
188.092	1224.69
188.311	874.03
188.53	1222.44
188.748	1055.74
188.967	815.52
189.186	895.67
189.405	721.32
189.623	959.69
189.842	625.86
190.061	624.48
190.28	578.45
190.498	1044.81
190.717	848
190.936	1299.21
191.154	843.02
191.373	731.31
191.592	367.76
191.81	324.91
192.029	270.53
192.248	296.16
192.466	415.35
192.685	371.06
192.904	267.53
193.122	317.16
193.341	350.25
193.559	283.87
193.778	291.38
193.996	559.31
194.215	791.67
194.433	-3988.89
194.652	1314.77
194.87	927.69
195.089	1341.86
195.307	2252.83
195.526	1006.33
195.744	1905.19
195.963	-1604.21
196.181	-3746.51
196.399	-3216
196.618	-1380
196.836	-1456.03
197.055	-653.97
197.273	-803.4
197.491	-883.62
197.71	-3225
197.928	-1606.12
198.146	-1454.24
198.365	-1558.72
198.583	-3034.48
198.801	5523.53
199.019	1148.15
199.238	604.53
199.456	440.36
199.674	593.79
199.892	789.36
200.111	859.59
200.329	934.5
200.547	348.81
200.765	262.18
200.983	251.54
201.202	246.52
201.42	277.33
201.638	259.36
201.856	273.55
202.074	213.49
202.292	198.15
202.51	224.94
202.728	212.14
202.946	265.57
203.165	321.13
203.383	337.52
203.601	348.36
203.819	335.52
204.037	373.16
204.255	335.33
204.473	291.92
204.691	284.37
204.909	286.38
205.127	317.02
205.345	247.43
205.562	236.34
205.78	297.71
205.998	337.23
206.216	399.78
206.434	382.72
206.652	511.5
206.87	1167.97
207.088	4326.47
207.306	694.52
207.523	912.03
207.741	1031.94
207.959	1240.5
208.177	498.17
208.395	379.78
208.612	296.39
208.83	327.55
209.048	318.75
209.266	256.81
209.483	253.08
209.701	281.02
209.919	309.6
210.136	237.66
210.354	195.08
210.572	290.55
210.79	283.94
211.007	245.92
211.225	218.91
211.442	191.4
211.66	194.03
211.878	209.72
212.095	168.21
212.313	157.25
212.53	174.89
212.748	178.17
212.966	151.24
213.183	141.82
213.401	150.22
213.618	153.47
213.836	150.68
214.053	155.22
214.271	137.95
214.488	187.29
214.705	157.88
214.923	164.58
215.14	163.67
215.358	154.58
215.575	178.69
215.793	148.3
216.01	134.9
216.227	128.22
216.445	130.34
216.662	147.39
216.879	131.53
217.097	135.58
217.314	127.45
217.531	139.14
217.749	131.16
217.966	132.47
218.183	152.61
218.4	154.89
218.618	174.4
218.835	164.43
219.052	140.34
219.269	143.67
219.487	158.64
219.704	154.05
219.921	150
220.138	156.89
220.355	129.96
220.572	126.56
220.79	122.69
221.007	111.25
221.224	107.89
221.441	104.56
221.658	97.77
221.875	84.31
222.092	80.06
222.309	77.86
222.526	77.69
222.743	74.4
222.96	68.2
223.177	69.63
223.394	73.38
223.611	66.1
223.828	62
224.045	57.72
224.262	53.65
224.479	52.68
224.696	46.78
224.913	47.14
225.13	45.83
225.347	46.3
225.564	38.49
225.781	37.46
225.997	40.97
226.214	40.12
226.431	38.53
226.648	39.28
226.865	35.46
227.082	33.7
227.298	29.24
227.515	25.38
227.732	22.46
227.949	22.63
228.165	19.34
228.382	17.89
228.599	16.6
228.816	15.55
229.032	14.26
229.249	14.05
229.466	13.49
229.682	12.49
229.899	12.83
230.116	12.78
230.332	11.94
230.549	12.6
230.765	12.36
230.982	13.29
231.199	13.42
231.415	13.86
231.632	16.25
231.848	17.36
232.065	18.52
232.281	17.69
232.498	19.27
232.714	19.76
232.931	19.79
233.147	22.24
233.364	21.68
233.58	21.28
233.797	20.81
234.013	19.89
234.23	19.08
234.446	21.2
234.662	23.1
234.879	22.17
235.095	22.69
235.312	24.16
235.528	22.74
235.744	25.29
235.961	24.25
236.177	25
236.393	24.93
236.61	24.85
236.826	22.29
237.042	19.93
237.258	19.12
237.475	20.11
237.691	19.9
237.907	18.63
238.123	15.75
238.339	15.61
238.556	15.78
238.772	15.64
238.988	16.55
239.204	19.32
239.42	20.05
239.636	19.45
239.853	17.71
240.069	16.23
240.285	16.26
240.501	16.33
240.717	16.11
240.933	14.8
241.149	13.15
241.365	11.63
241.581	10.32
241.797	10
242.013	10.07
242.229	9.67
242.445	9.38
242.661	9.43
242.877	9.24
243.093	9.55
243.309	9.31
243.525	9.65
243.741	10.14
243.957	10.7
244.173	11.01
244.388	10.69
244.604	11.17
244.82	11.61
245.036	10.76
245.252	10.4
245.468	9.05
245.683	9.18
245.899	8.64
246.115	8.31
246.331	7.23
246.547	6.69
246.762	6.53
246.978	6.24
247.194	6.23
247.409	6.27
247.625	6.22
247.841	6.69
248.057	6.58
248.272	6.93
248.488	6.35
248.703	6.51
248.919	6.52
249.135	7.1
249.35	8.13
249.566	8.33
249.782	8.58
249.997	8.83
250.213	8.82
250.428	9.61
250.644	8.84
250.859	9.83
251.075	10.37
251.29	10.89
251.506	10.51
251.721	9.89
251.937	9.82
252.152	10.07
252.368	9.55
252.583	9.94
252.798	9.75
253.014	10.15
253.229	10.48
253.445	11.27
253.66	12.06
253.875	13.03
254.091	13.09
254.306	13.03
254.521	13.21
254.737	14.19
254.952	14.01
255.167	14.68
255.383	14.26
255.598	14.18
255.813	13.21
256.028	12.4
256.244	11.33
256.459	10.71
256.674	10.02
256.889	9.21
257.104	9.49
257.32	8.84
257.535	8.11
257.75	8.34
257.965	7.7
258.18	6.89
258.395	6.36
258.61	5.8
258.826	5.42
259.041	5.35
259.256	5.24
259.471	5.16
259.686	4.91
259.901	4.64
260.116	4.43
260.331	4.6
260.546	4.69
260.761	4.87
260.976	4.96
261.191	5.26
261.406	5.54
261.621	5.74
261.836	5.57
262.05	6.21
262.265	6.89
262.48	7.1
262.695	7.26
262.91	7.89
263.125	7.68
263.34	8.93
263.555	9.83
263.769	9.64
263.984	10.26
264.199	10.43
264.414	10.35
264.629	10.63
264.843	10.93
265.058	11.04
265.273	10.57
265.488	10.69
265.702	9.5
265.917	8.42
266.132	8.65
266.346	8.92
266.561	8.82
266.776	8.63
266.99	8.43
267.205	8.17
267.42	7.83
267.634	8.29
267.849	7.94
268.063	8.55
268.278	8.65
268.492	8.55
268.707	7.78
268.922	7.84
269.136	7.53
269.351	7.17
269.565	7.08
269.78	6.77
269.994	6.3
270.209	6.81
270.423	6.25
270.637	6.33
270.852	5.92
271.066	5.71
271.281	5.58
271.495	5.08
271.709	5.04
271.924	5.43
272.138	5.62
272.353	5.78
272.567	5.7
272.781	5.84
272.996	5.59
273.21	5.86
273.424	6.37
273.638	6.48
273.853	7.24
274.067	7.75
274.281	7.91
274.495	7.88
274.71	7.92
274.924	7.86
275.138	7.9
275.352	8.24
275.566	8.22
275.781	7.98
275.995	8
276.209	8.12
276.423	8.02
276.637	7.83
276.851	8.01
277.065	7.46
277.279	7.3
277.493	7.21
277.707	7.24
277.921	6.98
278.135	6.94
278.349	6.95
278.563	6.67
278.777	6.21
278.991	6.15
279.205	6.17
279.419	6.64
279.633	6.51
279.847	6.29
280.061	5.84
280.275	5.96
280.489	5.92
280.703	5.92
280.917	5.86
281.131	5.92
281.344	5.91
281.558	5.52
281.772	5.73
281.986	5.76
282.2	6.14
282.414	6.64
282.627	6.52
282.841	6.46
283.055	6.72
283.269	6.9
283.482	6.6
283.696	6.52
283.91	6.93
284.123	6.62
284.337	6.37
284.551	5.98
284.764	5.53
284.978	5.58
285.192	5.49
285.405	5.28
285.619	5.3
285.833	5.52
286.046	5.57
286.26	5.37
286.473	5.14
286.687	5.32
286.9	5.4
287.114	5.38
287.327	5.17
287.541	5.27
287.754	5.33
287.968	5.15
288.181	4.85
288.395	4.25
288.608	4.26
288.822	4.25
289.035	4.17
289.248	4.14
289.462	3.95
289.675	4.22
289.889	4.2
290.102	3.7
290.315	3.77
290.529	4.03
290.742	4.49
290.955	4.97
291.169	5.07
291.382	5.32
291.595	5.33
291.808	5.56
292.022	6.22
292.235	6.6
292.448	6.89
292.661	6.94
292.875	7.3
293.088	7.32
293.301	6.92
293.514	7.01
293.727	7.11
293.94	7.2
294.153	7.52
294.367	6.73
294.58	6.6
294.793	6.51
295.006	6.48
295.219	6.37
295.432	6.12
295.645	5.94
295.858	5.92
296.071	5.77
296.284	5.43
296.497	5.37
296.71	5.46
296.923	5.04
297.136	5.24
297.349	5.2
297.562	4.89
297.775	4.68
297.988	4.83
298.201	5.17
298.414	5.29
298.626	5.55
298.839	5.41
299.052	5.2
299.265	5.59
299.478	5.36
299.691	5.45
299.903	5.8
300.116	6.01
300.329	6.14
300.542	5.54
300.755	5.32
300.967	5.39
301.18	5.63
301.393	6.1
301.605	6.26
301.818	6.56
302.031	6.81
302.243	6.94
302.456	7.28
302.669	7.2
302.881	7.58
303.094	7.63
303.307	7.75
303.519	7.72
303.732	7.6
303.944	7.29
304.157	7.31
304.37	6.95
304.582	6.93
304.795	7.03
305.007	6.68
305.22	6.97
305.432	7.41
305.645	7.31
305.857	7.35
306.069	7.65
306.282	7.6
306.494	6.96
306.707	7.02
306.919	6.58
307.132	6.37
307.344	6.62
307.556	6.34
307.769	6.17
307.981	6
308.193	5.72
308.406	5.72
308.618	5.9
308.83	6.44
309.043	6.77
309.255	7.03
309.467	6.8
309.679	6.75
309.892	6.56
310.104	6.51
310.316	6.52
310.528	6.74
310.74	6.45
310.953	6.35
311.165	6.5
311.377	6.19
311.589	5.98
311.801	6.24
312.013	6.21
312.225	6.3
312.437	6.1
312.649	6.03
312.862	5.8
313.074	5.8
313.286	5.95
313.498	5.71
313.71	5.7
313.922	5.73
314.134	6.41
314.346	6.81
314.558	6.67
314.77	6.54
314.982	7.05
315.193	7.83
315.405	7.94
315.617	7.74
315.829	7.74
316.041	8.09
316.253	8.02
316.465	7.4
316.677	7.36
316.888	8.09
317.1	8.42
317.312	8.91
317.524	8.61
317.736	8.77
317.947	9.27
318.159	9.14
318.371	9.21
318.583	9.3
318.794	9.34
319.006	8.89
319.218	8.57
319.43	8.55
319.641	8.37
319.853	8.65
320.064	9.07
320.276	9.24
320.488	9.4
320.699	9.78
320.911	10.28
321.123	10.38
321.334	10.55
321.546	10.69
321.757	10.31
321.969	9.86
322.18	9.52
322.392	9.21
322.603	9.17
322.815	9.55
323.026	9.27
323.238	9.38
323.449	9.18
323.661	9.57
323.872	9.68
324.083	10.24
324.295	10.62
324.506	11.25
324.718	11.33
324.929	11.16
325.14	11.28
325.352	11.36
325.563	11.47
325.774	11.75
325.986	11.85
326.197	11.8
326.408	12.44
326.62	12.74
326.831	12.26
327.042	12.78
327.253	13.42
327.464	13.57
327.676	14.16
327.887	14.49
328.098	14.92
328.309	15.6
328.52	16.33
328.732	16.26
328.943	16.56
329.154	17.13
329.365	17.38
329.576	17.84
329.787	18.25
329.998	18.12
330.209	18.33
330.42	18.62
330.631	18.53
330.842	18.43
331.053	18.91
331.264	18.95
331.475	19.07
331.686	19.2
331.897	19.03
332.108	19.23
332.319	19.61
332.53	19.8
332.741	20.08
332.952	20.43
333.163	20.65
333.374	20.34
333.585	20.47
333.795	20.74
334.006	20.76
334.217	20.84
334.428	20.43
334.639	20.18
334.849	20.13
335.06	20.01
335.271	20
335.482	20.31
335.692	20.36
335.903	20.51
336.114	20.53
336.325	20.8
336.535	21.13
336.746	21.47
336.957	21.35
337.167	21.57
337.378	21.66
337.589	21.62
337.799	21.3
338.01	21.88
338.22	21.79
338.431	22.03
338.642	21.63
338.852	21.61
339.063	21.75
339.273	21.58
339.484	21.27
339.694	21.52
339.905	21.39
340.115	21.59
340.326	21.38
340.536	21.28
340.746	20.81
340.957	21.28
341.167	21.09
341.378	20.99
341.588	21.43
341.799	21.7
342.009	21.27
342.219	21.41
342.43	21.06
342.64	21.08
342.85	21.11
343.061	21.29
343.271	21.03
343.481	21.15
343.691	21.49
343.902	21.32
344.112	21.45
344.322	21.86
344.532	21.79
344.743	22.3
344.953	22.41
345.163	22.43
345.373	22.55
345.583	22.33
345.793	22.23
346.004	22.09
346.214	22.11
346.424	21.58
346.634	21.19
346.844	20.92
347.054	20.57
347.264	20.28
347.474	20.15
347.684	19.94
347.894	19.85
348.104	19.83
348.314	19.77
348.524	20.11
348.734	20.28
348.944	20.82
349.154	21.22
349.364	21.21
349.574	20.71
349.784	20.9
349.994	20.8
350.204	21
350.413	21.1
350.623	20.99
350.833	21.14
351.043	20.98
351.253	20.61
351.463	20.56
351.672	20.63
351.882	20.71
352.092	20.44
352.302	20.59
352.511	20.79
352.721	20.43
352.931	20.32
353.141	19.85
353.35	19.87
353.56	19.7
353.77	20.03
353.979	19.81
354.189	19.9
354.399	19.54
354.608	19.6
354.818	19.16
355.027	19.3
355.237	19.22
355.447	19.19
355.656	19.35
355.866	19.53
356.075	19.04
356.285	19.18
356.494	19.11
356.704	19.72
356.913	19.45
357.123	19.58
357.332	19.51
357.542	19.74
357.751	19.64
357.96	19.56
358.17	19.61
358.379	19.51
358.589	19.48
358.798	19.66
359.007	19.47
359.217	19.48
359.426	19.52
359.635	19.52
359.845	19.34
360.054	19.43
360.263	19.23
360.472	18.9
360.682	18.99
360.891	18.95
361.1	18.93
361.309	18.7
361.519	18.47
361.728	18.41
361.937	18.29
362.146	18.25
362.355	18.09
362.564	18.25
362.774	18.21
362.983	17.99
363.192	17.8
363.401	17.63
363.61	17.54
363.819	17.96
364.028	18.02
364.237	18.14
364.446	18.25
364.655	18.31
364.864	18.32
365.073	18.56
365.282	18.81
365.491	18.85
365.7	18.85
365.909	19.11
366.118	18.98
366.327	18.99
366.536	19.06
366.745	18.81
366.954	18.91
367.162	18.78
367.371	18.45
367.58	18.45
367.789	18.44
367.998	18.32
368.207	18.19
368.415	18.24
368.624	17.85
368.833	17.54
369.042	17.63
369.25	17.78
369.459	18.08
369.668	18.14
369.877	17.95
370.085	18.02
370.294	18.2
370.503	18.15
370.711	18.11
370.92	18.49
371.129	18.69
371.337	18.87
371.546	18.73
371.754	18.66
371.963	18.74
372.171	18.72
372.38	18.8
372.589	18.88
372.797	19
373.006	19.07
373.214	18.8
373.423	18.75
373.631	18.33
373.84	18.23
374.048	18.19
374.256	18.21
374.465	18.09
374.673	17.8
374.882	17.84
375.09	17.73
375.298	17.8
375.507	17.77
375.715	17.83
375.923	17.88
376.132	17.97
376.34	17.92
376.548	17.87
376.757	18.05
376.965	18.3
377.173	18.39
377.381	18.28
377.59	17.75
377.798	17.8
378.006	17.5
378.214	17.58
378.423	17.64
378.631	17.48
378.839	17.26
379.047	17.32
379.255	17.28
379.463	16.98
379.671	17.22
379.879	17.3
380.088	17.32
380.296	17.21
380.504	17.24
380.712	17.36
380.92	17.48
381.128	17.91
381.336	17.86
381.544	17.58
381.752	17.76
381.96	17.62
382.168	17.6
382.376	17.76
382.584	18.05
382.791	18.03
382.999	17.69
383.207	17.52
383.415	17.39
383.623	17.29
383.831	17.49
384.039	17.34
384.247	17.22
384.454	17.16
384.662	17.07
384.87	16.93
385.078	17.01
385.285	17.13
385.493	17.13
385.701	17.08
385.909	17.08
386.116	16.92
386.324	16.97
386.532	17.23
386.739	17.44
386.947	17.46
387.155	17.57
387.362	17.36
387.57	17.34
387.778	17.32
387.985	17.23
388.193	17.43
388.4	17.52
388.608	17.61
388.816	17.53
389.023	17.39
389.231	17.47
389.438	17.62
389.646	17.73
389.853	17.62
390.061	17.71
390.268	17.76
390.475	17.65
390.683	17.57
390.89	17.37
391.098	17.13
391.305	17.24
391.512	17.01
391.72	16.74
391.927	16.61
392.135	16.63
392.342	16.6
392.549	16.57
392.756	16.46
392.964	16.45
393.171	16.55
393.378	16.51
393.586	16.45
393.793	16.55
394	16.69
394.207	16.76
394.414	16.82
394.622	16.78
394.829	16.92
395.036	16.82
395.243	16.91
395.45	16.86
395.657	17.03
395.864	17.12
396.072	17.04
396.279	17.15
396.486	17.31
396.693	17.4
396.9	17.49
397.107	17.36
397.314	17.65
397.521	17.65
397.728	17.49
397.935	17.36
398.142	17.03
398.349	16.93
398.556	16.94
398.763	16.92
398.97	16.89
399.177	16.74
399.383	16.68
399.59	16.54
399.797	16.66
400.004	16.72
400.211	16.6
400.418	16.98
400.625	17.16
400.831	16.97
401.038	16.77
401.245	16.71
401.452	17.01
401.658	17.03
401.865	17.19
402.072	17.04
402.279	17.15
402.485	17.34
402.692	17.08
402.899	16.95
403.105	17.02
403.312	17
403.519	16.94
403.725	16.76
403.932	16.81
404.138	16.77
404.345	16.79
404.552	16.64
404.758	16.63
404.965	16.79
405.171	16.88
405.378	16.91
405.584	17.08
405.791	17.23
405.997	17.16
406.204	17.18
406.41	17.08
406.617	17.24
406.823	17.43
407.029	17.47
407.236	17.57
407.442	17.72
407.649	17.75
407.855	17.73
408.061	17.75
408.268	17.78
408.474	17.89
408.68	18.02
408.887	17.83
409.093	17.74
409.299	17.81
409.505	17.56
409.712	17.48
409.918	17.55
410.124	17.61
410.33	17.5
410.537	17.62
410.743	17.41
410.949	17.45
411.155	17.59
411.361	17.71
411.567	17.83
411.773	17.86
411.98	17.68
412.186	17.71
412.392	17.64
412.598	17.59
412.804	17.58
413.01	17.73
413.216	17.36
413.422	17.4
413.628	17.38
413.834	17.21
414.04	17.34
414.246	17.45
414.452	17.4
414.658	17.45
414.864	17.56
415.07	17.59
415.275	17.53
415.481	17.82
415.687	17.71
415.893	17.62
416.099	17.53
416.305	17.62
416.511	17.52
416.716	17.38
416.922	17.22
417.128	17.15
417.334	17.01
417.539	16.93
417.745	16.77
417.951	16.7
418.157	16.67
418.362	16.81
418.568	16.75
418.774	16.89
418.979	16.97
419.185	16.97
419.391	16.89
419.596	16.91
419.802	17.04
420.008	17.13
420.213	16.56
420.419	16.67
420.624	16.57
420.83	16.64
421.035	16.56
421.241	16.46
421.446	16.45
421.652	16.5
421.857	16.52
422.063	16.49
422.268	16.46
422.474	16.93
422.679	16.85
422.885	16.9
423.09	16.82
423.295	16.73
423.501	16.76
423.706	16.81
423.911	16.82
424.117	16.79
424.322	16.82
424.527	16.76
424.733	16.79
424.938	16.88
425.143	16.89
425.349	16.81
425.554	16.84
425.759	16.89
425.964	16.96
426.169	17.03
426.375	17.03
426.58	17.05
426.785	17.21
426.99	17.27
427.195	17.25
427.4	17.31
427.605	17.51
427.811	17.72
428.016	17.76
428.221	17.68
428.426	17.65
428.631	17.81
428.836	17.61
429.041	17.71
429.246	17.81
429.451	17.85
429.656	17.81
429.861	17.71
430.066	17.65
430.271	17.59
430.476	17.57
430.681	17.54
430.886	17.52
431.09	17.69
431.295	17.58
431.5	17.55
431.705	17.59
431.91	17.52
432.115	17.53
432.32	17.47
432.524	17.55
432.729	17.65
432.934	17.66
433.139	17.67
433.343	17.66
433.548	17.67
433.753	17.63
433.958	17.49
434.162	17.52
434.367	17.63
434.572	17.77
434.776	17.68
434.981	17.64
435.186	17.66
435.39	17.64
435.595	17.59
435.799	17.58
436.004	17.74
436.209	17.84
436.413	17.9
436.618	17.83
436.822	17.75
437.027	17.9
437.231	17.88
437.436	17.81
437.64	17.85
437.845	17.9
438.049	17.94
438.253	17.86
438.458	17.89
438.662	17.84
438.867	17.85
439.071	17.86
439.275	17.74
439.48	17.72
439.684	17.82
439.888	17.74
440.093	17.75
440.297	17.73
440.501	17.64
440.706	17.68
440.91	17.66
441.114	17.65
441.318	17.57
441.523	17.58
441.727	17.65
441.931	17.61
442.135	17.69
442.339	17.69
442.543	17.71
442.748	17.75
442.952	17.68
443.156	17.9
443.36	17.93
443.564	18.01
443.768	17.98
443.972	17.96
444.176	18.04
444.38	18.01
444.584	18.04
444.788	18.01
444.992	18.15
445.196	18.08
445.4	17.93
445.604	17.86
445.808	17.94
446.012	18.02
446.216	18.09
446.42	17.99
446.624	17.98
446.828	17.97
447.032	17.99
447.235	17.9
447.439	17.98
447.643	18
447.847	18.03
448.051	17.91
448.254	17.85
448.458	17.7
448.662	17.78
448.866	17.72
449.069	17.67
449.273	17.73
449.477	17.78
449.681	17.69
449.884	17.74
450.088	17.77
450.292	17.76
450.495	17.83
450.699	17.89
450.902	17.81
451.106	17.85
451.31	17.83
451.513	17.73
451.717	17.75
451.92	17.81
452.124	17.79
452.327	17.8
452.531	17.9
452.734	17.81
452.938	17.86
453.141	17.96
453.345	17.95
453.548	17.99
453.752	18.03
453.955	18.1
454.158	18.05
454.362	18.03
454.565	18.07
454.769	18.13
454.972	18.29
455.175	18.35
455.379	18.28
455.582	18.27
455.785	18.35
455.988	18.28
456.192	18.24
456.395	18.29
456.598	18.33
456.801	18.26
457.005	18.26
457.208	18.3
457.411	18.29
457.614	18.27
457.817	18.35
458.021	18.3
458.224	18.21
458.427	18.15
458.63	18.15
458.833	18.17
459.036	18.18
459.239	18.16
459.442	18.12
459.645	18.03
459.848	18.06
460.051	18.05
460.254	17.97
460.457	18.03
460.66	18
460.863	17.94
461.066	17.83
461.269	17.85
461.472	17.73
461.675	17.6
461.878	17.7
462.081	17.66
462.284	17.64
462.486	17.74
462.689	17.71
462.892	17.87
463.095	17.97
463.298	18.05
463.5	17.98
463.703	18.1
463.906	18.25
464.109	18.21
464.311	18.26
464.514	18.25
464.717	18.36
464.92	18.52
465.122	18.41
465.325	18.46
465.528	18.5
465.73	18.63
465.933	18.55
466.135	18.48
466.338	18.47
466.541	18.47
466.743	18.45
466.946	18.36
467.148	18.24
467.351	18.22
467.553	18.15
467.756	18.26
467.958	18.22
468.161	18.25
468.363	18.37
468.566	18.4
468.768	18.49
468.971	18.5
469.173	18.49
469.375	18.51
469.578	18.44
469.78	18.59
469.983	18.42
470.185	18.54
470.387	18.59
470.59	18.53
470.792	18.61
470.994	18.56
471.196	18.72
471.399	18.74
471.601	18.75
471.803	18.88
472.005	18.81
472.208	18.73
472.41	18.67
472.612	18.75
472.814	18.79
473.016	18.79
473.218	18.75
473.421	18.62
473.623	18.6
473.825	18.56
474.027	18.52
474.229	18.55
474.431	18.62
474.633	18.67
474.835	18.67
475.037	18.59
475.239	18.61
475.441	18.78
475.643	18.8
475.845	18.81
476.047	18.92
476.249	19.02
476.451	18.93
476.653	18.94
476.855	18.74
477.057	18.66
477.258	18.68
477.46	18.56
477.662	18.53
477.864	18.46
478.066	18.45
478.268	18.35
478.469	18.31
478.671	18.3
478.873	18.3
479.075	18.42
479.276	18.36
479.478	18.32
479.68	18.37
479.882	18.22
480.083	18.32
480.285	18.31
480.487	18.27
480.688	18.25
480.89	18.3
481.091	18.31
481.293	18.25
481.495	18.22
481.696	18.24
481.898	18.16
482.099	18.13
482.301	18.01
482.502	17.99
482.704	17.93
482.905	17.84
483.107	17.77
483.308	17.71
483.51	17.69
483.711	17.69
483.913	17.61
484.114	17.6
484.315	17.56
484.517	17.58
484.718	17.53
484.92	17.55
485.121	17.59
485.322	17.55
485.524	17.59
485.725	17.58
485.926	17.57
486.127	17.62
486.329	17.61
486.53	17.66
486.731	17.68
486.932	17.72
487.134	17.72
487.335	17.7
487.536	17.74
487.737	17.71
487.938	17.74
488.139	17.75
488.341	17.73
488.542	17.77
488.743	17.76
488.944	17.77
489.145	17.78
489.346	17.83
489.547	17.85
489.748	17.86
489.949	17.97
490.15	17.98
490.351	17.96
490.552	17.97
490.753	17.94
490.954	17.96
491.155	17.96
491.356	17.95
491.557	17.88
491.758	17.9
491.959	17.94
492.159	17.94
492.36	17.95
492.561	18.03
492.762	18.09
492.963	18.14
493.164	18.2
493.364	18.22
493.565	18.23
493.766	18.31
493.967	18.46
494.167	18.45
494.368	18.42
494.569	18.42
494.769	18.46
494.97	18.43
495.171	18.42
495.371	18.34
495.572	18.39
495.773	18.54
495.973	18.6
496.174	18.49
496.375	18.54
496.575	18.57
496.776	18.62
496.976	18.56
497.177	18.67
497.377	18.69
497.578	18.7
497.778	18.62
497.979	18.65
498.179	18.64
498.38	18.7
498.58	18.71
498.78	18.73
498.981	18.75
499.181	18.72
499.382	18.77
499.582	18.84
499.782	18.93
499.983	19.03
500.183	18.97
500.383	19.01
500.584	19.04
500.784	19.13
500.984	19.05
501.184	19.04
501.385	19.09
501.585	18.98
501.785	19.02
501.985	19.17
502.185	19.2
502.386	19.29
502.586	19.22
502.786	19.3
502.986	19.31
503.186	19.35
503.386	19.4
503.586	19.5
503.786	19.53
503.987	19.54
504.187	19.44
504.387	19.41
504.587	19.47
504.787	19.56
504.987	19.49
505.187	19.5
505.387	19.53
505.587	19.47
505.786	19.42
505.986	19.56
506.186	19.54
506.386	19.67
506.586	19.79
506.786	19.76
506.986	19.79
507.186	19.81
507.386	19.79
507.585	19.82
507.785	19.92
507.985	20.01
508.185	19.99
508.384	20.02
508.584	19.89
508.784	19.92
508.984	19.83
509.183	19.86
509.383	19.94
509.583	19.88
509.782	19.92
509.982	19.96
510.182	19.98
510.381	19.93
510.581	20.01
510.781	20.04
510.98	20.05
511.18	20.16
511.379	20.14
511.579	20.18
511.778	20.26
511.978	20.25
512.177	20.25
512.377	20.25
512.576	20.41
512.776	20.33
512.975	20.45
513.175	20.37
513.374	20.44
513.573	20.43
513.773	20.36
513.972	20.48
514.172	20.52
514.371	20.57
514.57	20.68
514.77	20.73
514.969	20.83
515.168	20.79
515.367	20.87
515.567	20.94
515.766	21.07
515.965	21.19
516.164	21.09
516.364	21.14
516.563	21.18
516.762	21.07
516.961	20.85
517.16	20.83
517.359	20.8
517.559	20.89
517.758	20.82
517.957	20.83
518.156	20.79
518.355	20.81
518.554	20.85
518.753	20.82
518.952	20.82
519.151	20.93
519.35	20.91
519.549	20.98
519.748	20.93
519.947	20.94
520.146	20.96
520.345	21
520.544	21.04
520.743	21.01
520.942	21.08
521.141	21.18
521.339	21.31
521.538	21.45
521.737	21.52
521.936	21.55
522.135	21.64
522.333	21.62
522.532	21.65
522.731	21.71
522.93	21.77
523.129	21.75
523.327	21.75
523.526	21.71
523.725	21.74
523.923	21.7
524.122	21.71
524.321	21.66
524.519	21.77
524.718	21.76
524.917	21.73
525.115	21.74
525.314	21.82
525.512	21.84
525.711	21.8
525.909	21.77
526.108	21.79
526.306	21.8
526.505	21.8
526.703	21.71
526.902	21.71
527.1	21.69
527.299	21.65
527.497	21.59
527.696	21.55
527.894	21.59
528.092	21.56
528.291	21.55
528.489	21.54
528.688	21.55
528.886	21.6
529.084	21.63
529.283	21.64
529.481	21.65
529.679	21.67
529.877	21.71
530.076	21.67
530.274	21.74
530.472	21.8
530.67	21.81
530.869	21.85
531.067	21.88
531.265	21.89
531.463	21.96
531.661	22
531.859	22.02
532.057	22.04
532.255	22.13
532.454	22.13
532.652	22.13
532.85	22.21
533.048	22.21
533.246	22.23
533.444	22.28
533.642	22.29
533.84	22.3
534.038	22.43
534.236	22.45
534.434	22.45
534.632	22.48
534.83	22.49
535.027	22.53
535.225	22.64
535.423	22.65
535.621	22.66
535.819	22.71
536.017	22.83
536.215	22.82
536.412	22.89
536.61	22.94
536.808	22.94
537.006	23.01
537.203	23.05
537.401	23.07
537.599	23.09
537.797	23.23
537.994	23.28
538.192	23.32
538.39	23.34
538.587	23.38
538.785	23.51
538.983	23.62
539.18	23.7
539.378	23.76
539.575	23.88
539.773	23.94
539.97	23.94
540.168	23.98
540.366	24.03
540.563	24.08
540.761	24.11
540.958	24.14
541.155	24.19
541.353	24.23
541.55	24.23
541.748	24.16
541.945	24.15
542.143	24.14
542.34	24.22
542.537	24.2
542.735	24.27
542.932	24.29
543.129	24.34
543.327	24.45
543.524	24.59
543.721	24.7
543.919	24.92
544.116	25.18
544.313	25.41
544.51	25.54
544.708	25.76
544.905	25.93
545.102	26.2
545.299	26.34
545.496	26.44
545.693	26.46
545.891	26.55
546.088	26.59
546.285	26.5
546.482	26.41
546.679	26.38
546.876	26.38
547.073	26.26
547.27	26.14
547.467	26.1
547.664	26.02
547.861	26
548.058	25.94
548.255	25.86
548.452	25.98
548.649	26.07
548.846	26.09
549.043	26.03
549.24	26.17
549.437	26.35
549.633	26.26
549.83	26.33
550.027	26.31
550.224	26.29
550.421	26.25
550.618	26.16
550.814	25.98
551.011	25.93
551.208	25.87
551.405	25.77
551.601	25.62
551.798	25.65
551.995	25.54
552.191	25.51
552.388	25.49
552.585	25.56
552.781	25.53
552.978	25.54
553.175	25.52
553.371	25.53
553.568	25.49
553.764	25.59
553.961	25.53
554.157	25.55
554.354	25.55
554.55	25.66
554.747	25.63
554.943	25.58
555.14	25.68
555.336	25.72
555.533	25.8
555.729	25.84
555.926	25.72
556.122	25.83
556.318	26.05
556.515	26.06
556.711	25.93
556.907	25.99
557.104	26.06
557.3	26.1
557.496	26.01
557.693	26.04
557.889	26.23
558.085	26.19
558.281	26.29
558.478	26.05
558.674	26.09
558.87	26.2
559.066	26.17
559.262	26.25
559.459	26.1
559.655	26.2
559.851	26.19
560.047	26.22
560.243	26.42
560.439	26.25
560.635	26.34
560.831	26.45
561.027	26.47
561.223	26.42
561.419	26.31
561.615	26.38
561.811	26.35
562.007	26.28
562.203	26.07
562.399	25.98
562.595	26.01
562.791	26.02
562.987	25.9
563.183	25.87
563.379	26
563.575	26.03
563.771	26.17
563.966	26.2
564.162	26.33
564.358	26.45
564.554	26.3
564.75	26.34
564.945	26.16
565.141	26.18
565.337	26.23
565.533	26.16
565.728	26.11
565.924	26
566.12	26.01
566.315	25.94
566.511	25.97
566.707	26.12
566.902	26.06
567.098	26.24
567.293	26.19
567.489	26.1
567.684	26.27
567.88	26.46
568.076	26.48
568.271	26.44
568.467	26.47
568.662	26.31
568.858	26.2
569.053	26.27
569.248	26.36
569.444	26.45
569.639	26.41
569.835	26.43
570.03	26.36
570.225	26.42
570.421	26.43
570.616	26.39
570.812	26.38
571.007	26.47
571.202	26.4
571.397	26.31
571.593	26.31
571.788	26.38
571.983	26.2
572.178	26.19
572.374	26.21
572.569	26.21
572.764	26.22
572.959	26.25
573.154	26.25
573.35	26.28
573.545	26.19
573.74	26.05
573.935	25.94
574.13	25.91
574.325	25.86
574.52	25.79
574.715	25.92
574.91	25.98
575.105	26.08
575.3	26.22
575.495	26.42
575.69	26.57
575.885	26.75
576.08	26.88
576.275	27.01
576.47	27.2
576.665	27.39
576.86	27.46
577.055	27.63
577.25	27.71
577.444	27.78
577.639	27.71
577.834	27.65
578.029	27.78
578.224	27.85
578.418	27.98
578.613	28.12
578.808	28.09
579.003	28.2
579.197	28.1
579.392	28.02
579.587	27.99
579.781	27.95
579.976	28.17
580.171	28.05
580.365	28.14
580.56	28.18
580.755	27.98
580.949	28.02
581.144	27.95
581.338	28.13
581.533	28.37
581.727	28.43
581.922	28.68
582.116	28.65
582.311	28.86
582.505	29
582.7	29.06
582.894	29.19
583.089	29.23
583.283	29.37
583.478	29.32
583.672	29.32
583.866	29.36
584.061	29.19
584.255	29.43
584.449	29.33
584.644	29.43
584.838	29.38
585.032	29.3
585.226	29.47
585.421	29.4
585.615	29.55
585.809	29.49
586.003	29.72
586.198	29.91
586.392	29.76
586.586	29.75
586.78	29.72
586.974	29.64
587.168	29.71
587.363	29.62
587.557	29.53
587.751	29.43
587.945	29.48
588.139	29.33
588.333	29.08
588.527	28.96
588.721	28.92
588.915	28.68
589.109	28.76
589.303	28.76
589.497	28.69
589.691	28.67
589.885	28.56
590.079	28.58
590.273	28.55
590.466	28.86
590.66	28.92
590.854	28.99
591.048	29.25
591.242	29.37
591.436	29.49
591.629	29.66
591.823	29.79
592.017	29.94
592.211	29.93
592.404	29.99
592.598	29.96
592.792	30.11
592.986	30.05
593.179	29.96
593.373	29.89
593.567	29.88
593.76	29.8
593.954	29.64
594.147	29.54
594.341	29.58
594.535	29.5
594.728	29.45
594.922	29.16
595.115	29.25
595.309	29.25
595.502	29.13
595.696	29.07
595.889	29.01
596.083	29.05
596.276	29.03
596.47	28.91
596.663	28.82
596.856	28.78
597.05	28.92
597.243	29.01
597.437	28.89
597.63	29.01
597.823	28.94
598.017	29
598.21	29.08
598.403	29.23
598.596	29.33
598.79	29.42
598.983	29.58
599.176	29.65
599.369	29.68
599.563	29.88
599.756	30.09
599.949	30.25
600.142	30.32
600.335	30.33
600.528	30.37
600.722	30.52
600.915	30.46
601.108	30.37
601.301	30.37
601.494	30.12
601.687	30.09
601.88	29.89
602.073	29.75
602.266	29.51
602.459	29.4
602.652	29.27
602.845	29.11
603.038	29.15
603.231	28.98
603.424	28.99
603.617	29.07
603.809	29.02
604.002	28.98
604.195	28.99
604.388	29.05
604.581	29.12
604.774	29.11
604.966	29.14
605.159	29.22
605.352	29.36
605.545	29.33
605.737	29.41
605.93	29.55
606.123	29.56
606.316	29.75
606.508	30
606.701	30.15
606.894	30.23
607.086	30.44
607.279	30.54
607.471	30.66
607.664	30.85
607.857	31.08
608.049	31.44
608.242	32.02
608.434	32.57
608.627	33.25
608.819	34.05
609.012	35.08
609.204	36.02
609.397	37.18
609.589	38.48
609.782	39.73
609.974	41.24
610.166	42.59
610.359	43.75
610.551	45.02
610.743	46.06
610.936	46.93
611.128	47.69
611.32	48.34
611.513	48.62
611.705	48.62
611.897	48.8
612.09	48.33
612.282	47.71
612.474	47.32
612.666	46.55
612.858	45.8
613.051	45.19
613.243	44.42
613.435	43.58
613.627	43.08
613.819	42.58
614.011	42.15
614.203	41.51
614.395	41.08
614.588	40.64
614.78	40.12
614.972	39.67
615.164	39
615.356	38.38
615.548	38
615.74	37.26
615.932	36.85
616.124	36.15
616.315	35.84
616.507	35.38
616.699	34.97
616.891	34.68
617.083	34.41
617.275	34.16
617.467	34.03
617.659	34.07
617.85	33.93
618.042	33.84
618.234	33.79
618.426	33.54
618.618	33.52
618.809	33.39
619.001	33.42
619.193	33.43
619.384	33.52
619.576	33.64
619.768	33.49
619.959	33.95
620.151	34.05
620.343	33.95
620.534	34.04
620.726	34.02
620.917	34.09
621.109	34.22
621.301	34
621.492	34.15
621.684	34.2
621.875	34.27
622.067	34.03
622.258	33.97
622.45	34.26
622.641	34.5
622.832	34.76
623.024	34.89
623.215	34.9
623.407	35.08
623.598	35
623.789	35.09
623.981	35
624.172	35
624.363	35.11
624.555	34.93
624.746	34.59
624.937	34.24
625.129	34.07
625.32	33.79
625.511	33.79
625.702	33.7
625.893	33.57
626.085	33.52
626.276	33.17
626.467	32.94
626.658	32.56
626.849	32.71
627.04	32.77
627.231	32.75
627.422	32.85
627.614	32.82
627.805	32.94
627.996	33
628.187	33.19
628.378	33.45
628.569	33.72
628.76	34.17
628.951	34.17
629.142	34.36
629.332	34.46
629.523	34.61
629.714	34.89
629.905	35.13
630.096	35.3
630.287	35.39
630.478	35.49
630.669	35.34
630.859	35.31
631.05	35.28
631.241	35.23
631.432	35.26
631.623	35.11
631.813	34.9
632.004	34.5
632.195	34.22
632.385	33.93
632.576	33.69
632.767	33.54
632.957	33.55
633.148	33.64
633.339	33.47
633.529	33.21
633.72	33.17
633.91	33.1
634.101	33.09
634.292	33.01
634.482	32.92
634.673	32.82
634.863	32.8
635.054	32.58
635.244	32.42
635.435	32.61
635.625	32.64
635.815	32.7
636.006	32.6
636.196	32.51
636.387	32.6
636.577	32.73
636.767	33.01
636.958	33.13
637.148	33.28
637.338	33.29
637.529	33.21
637.719	33.27
637.909	32.86
638.099	32.94
638.29	32.92
638.48	32.92
638.67	32.77
638.86	32.48
639.05	32.2
639.241	32.02
639.431	32.29
639.621	32.18
639.811	32.24
640.001	32.65
640.191	32.41
640.381	32.41
640.571	32.31
640.761	32.52
640.951	32.61
641.141	32.68
641.331	33.01
641.521	32.97
641.711	33.11
641.901	32.96
642.091	33.18
642.281	33.62
642.471	33.83
642.661	34.27
642.851	34.18
643.041	34.4
643.231	34.49
643.42	34.4
643.61	34.57
643.8	34.52
643.99	34.73
644.18	34.28
644.369	34.27
644.559	34.29
644.749	34.13
644.939	34.24
645.128	34.12
645.318	34.27
645.508	34.37
645.697	34.19
645.887	34.14
646.076	34.05
646.266	34.05
646.456	33.97
646.645	34.06
646.835	33.87
647.024	33.86
647.214	33.99
647.403	33.92
647.593	34.04
647.782	34.14
647.972	34.17
648.161	34.04
648.351	34.2
648.54	34.39
648.73	34.4
648.919	34.59
649.108	34.71
649.298	35.01
649.487	35.21
649.677	35.3
649.866	35.09
650.055	35.05
650.244	35.23
650.434	35.3
650.623	35.1
650.812	35.07
651.002	35.26
651.191	35.07
651.38	34.87
651.569	34.85
651.758	34.68
651.947	34.75
652.137	35.02
652.326	35
652.515	34.99
652.704	35.14
652.893	35.28
653.082	35.09
653.271	35.28
653.46	35.34
653.649	35.26
653.838	35.01
654.027	34.99
654.216	34.8
654.405	34.88
654.594	35.05
654.783	34.63
654.972	34.28
655.161	34.15
655.35	34.1
655.539	34.19
655.728	34.13
655.916	34.01
656.105	34.12
656.294	33.97
656.483	34
656.672	33.76
656.86	34.17
657.049	34.04
657.238	34.21
657.427	34.1
657.615	33.98
657.804	33.84
657.993	33.85
658.181	33.52
658.37	33.67
658.559	33.51
658.747	33.41
658.936	33.21
659.125	32.96
659.313	32.63
659.502	32.78
659.69	32.58
659.879	32.52
660.067	32.81
660.256	33.05
660.444	33.14
660.633	33.34
660.821	33.53
661.01	33.68
661.198	34.32
661.387	34.56
661.575	34.42
661.763	34.63
661.952	34.86
662.14	35.13
662.328	35.22
662.517	35.25
662.705	35.1
662.893	35.33
663.082	35.52
663.27	35.45
663.458	35.56
663.646	35.8
663.834	35.98
664.023	36.19
664.211	35.74
664.399	35.78
664.587	35.81
664.775	35.93
664.963	36.01
665.152	35.98
665.34	36.02
665.528	35.9
665.716	35.89
665.904	35.73
666.092	35.56
666.28	35.63
666.468	35.63
666.656	35.76
666.844	35.92
667.032	35.87
667.22	35.62
667.408	35.52
667.596	35.8
667.784	35.64
667.971	35.82
668.159	35.9
668.347	35.89
668.535	36.01
668.723	35.66
668.911	35.22
669.098	35.04
669.286	35.38
669.474	35.46
669.662	35.29
669.849	35.43
670.037	35.35
670.225	35.23
670.413	35.23
670.6	35.16
670.788	35.39
670.976	35.68
671.163	35.78
671.351	35.62
671.538	35.72
671.726	36.05
671.913	35.97
672.101	35.95
672.289	36.13
672.476	36.21
672.664	36.18
672.851	36.38
673.039	36.55
673.226	36.74
673.413	36.8
673.601	36.87
673.788	36.76
673.976	36.69
674.163	36.81
674.35	36.72
674.538	36.57
674.725	36.74
674.912	36.79
675.1	36.76
675.287	36.83
675.474	36.87
675.662	36.7
675.849	36.78
676.036	36.7
676.223	36.86
676.411	36.88
676.598	37.09
676.785	37.13
676.972	37.02
677.159	36.89
677.346	36.23
677.533	36.37
677.721	36.4
677.908	36.04
678.095	35.95
678.282	35.85
678.469	35.41
678.656	35.24
678.843	34.86
679.03	34.72
679.217	34.51
679.404	35
679.591	34.71
679.778	34.74
679.964	34.69
680.151	35.01
680.338	34.7
680.525	34.77
680.712	35.23
680.899	35.3
681.086	35.4
681.272	35.67
681.459	35.65
681.646	35.86
681.833	35.76
682.02	35.86
682.206	35.84
682.393	36.21
682.58	36.25
682.766	36.02
682.953	36
683.14	35.78
683.326	35.94
683.513	36.03
683.7	35.75
683.886	35.87
684.073	36.24
684.259	36.04
684.446	35.9
684.632	36.6
684.819	36.53
685.005	36.56
685.192	36.95
685.378	36.67
685.565	36.55
685.751	36.65
685.938	36.74
686.124	36.48
686.31	36.72
686.497	36.75
686.683	36.33
686.87	36.18
687.056	36.26
687.242	36.1
687.429	36.37
687.615	36.4
687.801	36.57
687.987	36.68
688.174	37.08
688.36	37.05
688.546	36.99
688.732	36.84
688.918	37.08
689.105	37.1
689.291	37.18
689.477	36.99
689.663	36.94
689.849	36.76
690.035	36.74
690.221	36.66
690.407	37.18
690.593	37.44
690.779	37.62
690.965	37.91
691.151	38.3
691.337	38.52
691.523	38.66
691.709	38.76
691.895	38.84
692.081	38.74
692.267	38.48
692.453	37.99
692.639	37.97
692.825	38.44
693.011	38.04
693.196	37.97
693.382	37.81
693.568	37.71
693.754	37.77
693.94	38.02
694.125	38.12
694.311	38.3
694.497	38.3
694.682	38.29
694.868	37.86
695.054	38.55
695.239	38.49
695.425	38.73
695.611	38.89
695.796	38.8
695.982	38.15
696.168	38.15
696.353	37.87
696.539	37.92
696.724	37.7
696.91	37.59
697.095	36.96
697.281	36.46
697.466	35.98
697.652	35.69
697.837	35.31
698.023	35.39
698.208	35.12
698.393	34.91
698.579	34.76
698.764	34.67
698.949	34.79
699.135	34.7
699.32	34.83
699.505	34.84
699.691	35
699.876	35.2
700.061	35.51
700.246	35.61
700.432	35.92
700.617	35.89
700.802	36.18
700.987	36.56
701.172	37
701.358	37.29
701.543	37.76
701.728	37.94
701.913	38.17
702.098	38.28
702.283	38.55
702.468	38.75
702.653	39.13
702.838	39.1
703.023	38.97
703.208	38.72
703.393	38.76
703.578	39.01
703.763	39.32
703.948	39.49
704.133	39.83
704.318	40.05
704.503	40.46
704.688	40.94
704.873	41.34
705.057	41.99
705.242	42.8
705.427	43.32
705.612	43.91
705.797	44.24
705.981	44.94
706.166	45.51
706.351	45.9
706.536	46.29
706.72	46.25
706.905	46.28
707.09	46.09
707.274	45.85
707.459	46.03
707.644	45.92
707.828	46.09
708.013	45.81
708.197	45.55
708.382	45.39
708.567	45.16
708.751	45.47
708.936	45.51
709.12	45.19
709.305	44.99
709.489	44.6
709.673	44.11
709.858	43.27
710.042	43.23
710.227	42.98
710.411	43.06
710.596	42.97
710.78	42.43
710.964	42.18
711.149	42.04
711.333	42.17
711.517	42.16
711.702	42.08
711.886	42.56
712.07	42.2
712.254	41.95
712.438	42.02
712.623	41.67
712.807	41.61
712.991	41.43
713.175	41.64
713.359	41.26
713.544	41.37
713.728	41.12
713.912	41.12
714.096	41.18
714.28	40.91
714.464	40.17
714.648	40.34
714.832	39.88
715.016	39.57
715.2	39.41
715.384	39.4
715.568	39.02
715.752	39.07
715.936	38.68
716.12	38.55
716.304	38.92
716.488	39.27
716.671	38.66
716.855	39.11
717.039	39.33
717.223	39.21
717.407	39.24
717.59	39.39
717.774	39.42
717.958	39.44
718.142	39.16
718.325	38.81
718.509	38.8
718.693	39.29
718.877	38.91
719.06	38.52
719.244	38.5
719.428	38.54
719.611	38.74
719.795	39.05
719.978	39.05
720.162	39.75
720.345	39.87
720.529	39.75
720.713	39.95
720.896	40.47
721.08	41.57
721.263	41.98
721.446	42.57
721.63	42.46
721.813	42.36
721.997	42.8
722.18	42.89
722.364	43.06
722.547	43.18
722.73	43.22
722.914	42.57
723.097	42.33
723.28	42.38
723.464	41.46
723.647	41.53
723.83	40.73
724.013	39.92
724.197	39.13
724.38	38.61
724.563	38.36
724.746	37.94
724.929	38.13
725.112	38.05
725.296	37.8
725.479	37.97
725.662	37.76
725.845	38.14
726.028	38.76
726.211	38.8
726.394	38.89
726.577	38.67
726.76	39.22
726.943	39.33
727.126	39.48
727.309	39.06
727.492	38.89
727.675	39.08
727.858	39.28
728.041	39.13
728.224	39.14
728.407	39.34
728.589	39.73
728.772	39.12
728.955	38.78
729.138	38.22
729.321	38.66
729.503	38.79
729.686	38.16
729.869	37.89
730.052	37.82
730.234	38.24
730.417	38.54
730.6	38.11
730.782	38.2
730.965	38.26
731.148	38.6
731.33	38.64
731.513	38.75
731.695	39.24
731.878	40.07
732.061	40.52
732.243	40.12
732.426	39.8
732.608	40.01
732.791	40.03
732.973	39.92
733.156	40.19
733.338	39.68
733.52	39.99
733.703	40.01
733.885	39.58
734.068	39.4
734.25	39.76
734.432	40.04
734.615	40.47
734.797	40.64
734.979	41.2
735.162	41.41
735.344	41.76
735.526	41.69
735.708	41.81
735.891	42.54
736.073	42.65
736.255	42.95
736.437	43.09
736.619	42.27
736.802	42.35
736.984	42.55
737.166	42.16
737.348	42.12
737.53	42.36
737.712	42.27
737.894	41.71
738.076	41.67
738.258	41.18
738.44	40.91
738.622	41.87
738.804	41.9
738.986	42.04
739.168	41.3
739.35	41.93
739.532	42.6
739.714	42.86
739.896	43.09
740.078	42.86
740.259	43.24
740.441	43.32
740.623	42.61
740.805	42.34
740.987	42.52
741.168	43.63
741.35	43.71
741.532	42.73
741.714	42.98
741.895	43.37
742.077	43.71
742.259	44.15
742.44	44.36
742.622	45.02
742.804	45.88
742.985	46.06
743.167	45.86
743.348	45.08
743.53	45.88
743.711	45.39
743.893	44.97
744.075	45.41
744.256	44.85
744.438	45.34
744.619	46.04
744.8	45.84
744.982	45.71
745.163	45.66
745.345	46.49
745.526	46.8
745.707	47.09
745.889	46.9
746.07	46.73
746.252	47.46
746.433	47.58
746.614	46.77
746.795	46.34
746.977	46.92
747.158	47.71
747.339	47.42
747.52	46.46
747.702	46.99
747.883	47.5
748.064	47.22
748.245	46.81
748.426	46.64
748.607	46.48
748.788	46.4
748.97	44.76
749.151	43.72
749.332	43.68
749.513	43.7
749.694	43.51
749.875	42.9
750.056	43.81
750.237	44.07
750.418	43.16
750.599	43.37
750.78	44.13
750.96	45.11
751.141	45.56
751.322	45.46
751.503	45.98
751.684	45.02
751.865	45.45
752.046	44.59
752.226	44.53
752.407	45.37
752.588	45.82
752.769	45.5
752.949	45.65
753.13	45.74
753.311	45.93
753.492	45.38
753.672	45.47
753.853	45.68
754.034	45.98
754.214	45.9
754.395	45.29
754.575	45.56
754.756	44.93
754.937	44.69
755.117	45.37
755.298	45.78
755.478	46.43
755.659	47.02
755.839	47.44
756.02	47.03
756.2	46.9
756.381	47.4
756.561	47.8
756.741	49.06
756.922	48.86
757.102	48.33
757.283	47.93
757.463	48.63
757.643	49.05
757.823	47.67
758.004	47.46
758.184	47.18
758.364	46.59
758.545	45.55
758.725	44.96
758.905	44.2
759.085	43.02
759.265	42.29
759.446	40.32
759.626	39.14
759.806	38.68
759.986	38.7
760.166	38.21
760.346	38
760.526	37.07
760.706	36.28
760.886	36.09
761.066	36.27
761.246	36.51
761.426	36.68
761.606	36.6
761.786	36.85
761.966	36.6
762.146	36.55
762.326	35.9
762.506	36.05
762.686	36.14
762.866	35.76
763.046	35.21
763.225	34.92
763.405	34.84
763.585	34.88
763.765	34.61
763.945	34.04
764.124	33.75
764.304	34.29
764.484	34.45
764.664	34.24
764.843	34.63
765.023	35.16
765.203	35.55
765.382	35.35
765.562	36.01
765.741	37.03
765.921	38.71
766.101	39.88
766.28	40.8
766.46	41.11
766.639	41.9
766.819	43.19
766.998	44.12
767.178	43.94
767.357	44.7
767.537	44.57
767.716	44.66
767.896	44.79
768.075	44.55
768.254	44.14
768.434	44.71
768.613	44.86
768.792	44.98
768.972	44.67
769.151	46.14
769.33	47.21
769.51	47.44
769.689	47.26
769.868	47.22
770.047	47.98
770.226	48.61
770.406	48.76
770.585	48.89
770.764	49.11
770.943	50.05
771.122	49.77
771.301	49.87
771.48	50.15
771.66	50.52
771.839	50.29
772.018	50.37
772.197	50.52
772.376	50.86
772.555	51.97
772.734	51.53
772.913	51.52
773.092	51.28
773.271	50.91
773.449	51.02
773.628	51.41
773.807	51.6
773.986	52.32
774.165	52.34
774.344	53.29
774.523	53.59
774.701	53.69
774.88	53.46
775.059	53.46
775.238	53.97
775.417	54.28
775.595	53.78
775.774	53.99
775.953	52.86
776.131	53.12
776.31	51.72
776.489	50.49
776.667	50.92
776.846	51.15
777.025	51.37
777.203	50.75
777.382	51.53
777.56	51.9
777.739	51.3
777.917	51.55
778.096	50.81
778.274	50.69
778.453	51.47
778.631	50.97
778.81	51.03
778.988	50.83
779.166	50.31
779.345	48.9
779.523	48.48
779.702	49.99
779.88	50.32
780.058	51.45
780.237	52.07
780.415	52.39
780.593	53.62
780.771	53.81
780.95	53.53
781.128	54.94
781.306	55.6
781.484	55.62
781.662	54.55
781.841	53.9
782.019	54.6
782.197	53.94
782.375	53.97
782.553	52.39
782.731	51.71
782.909	52.49
783.087	52.58
783.265	52.31
783.443	53.22
783.621	52.62
783.799	53.96
783.977	52.92
784.155	53.62
784.333	53.46
784.511	53.81
784.689	54.67
784.867	53.52
785.045	51.79
785.223	51.66
785.4	50.94
785.578	51.43
785.756	50.82
785.934	50.47
786.112	51.64
786.289	50.18
786.467	50.88
786.645	50.05
786.823	51.21
787	51.89
787.178	51.55
787.356	50.82
787.533	50.07
787.711	49.49
787.889	48.38
788.066	47.11
788.244	47.65
788.421	47.2
788.599	46.24
788.776	45.69
788.954	45.42
789.131	45.66
789.309	46.28
789.486	46.81
789.664	47.54
789.841	48.08
790.019	47.88
790.196	48.16
790.373	48.74
790.551	50.74
790.728	50.65
790.906	51.93
791.083	52.38
791.26	52.94
791.437	52.12
791.615	52.07
791.792	51.89
791.969	52.36
792.146	52.96
792.324	52.58
792.501	52.25
792.678	52.44
792.855	51.37
793.032	50.72
793.209	49.74
793.387	50.27
793.564	50.03
793.741	51.22
793.918	53.01
794.095	52.25
794.272	52.26
794.449	51.79
794.626	52
794.803	52.98
794.98	53.85
795.157	53.84
795.334	54.09
795.511	53.51
795.688	53.26
795.864	50.78
796.041	49.97
796.218	49.56
796.395	49.97
796.572	49.04
796.749	48.64
796.925	48.33
797.102	48.04
797.279	48.63
797.456	48.75
797.632	48.27
797.809	48.26
797.986	48.94
798.162	49.73
798.339	49.68
798.516	50.4
798.692	49.2
798.869	49.59
799.046	50.6
799.222	49.98
799.399	49.63
799.575	50.47
799.752	50.8
799.928	50.9
800.105	49.55
800.281	50.04
800.458	50.36
800.634	51.24
800.811	50.78
800.987	50.79
801.163	50.43
801.34	50.31
801.516	49.39
801.692	50.04
801.869	49.83
802.045	50.77
802.221	49.8
802.398	49.83
802.574	49.52
802.75	50.41
802.926	50.46
803.103	51.59
803.279	52.84
803.455	53.56
803.631	54.35
803.807	55.41
803.983	55.45
804.16	57.62
804.336	58.33
804.512	58.84
804.688	59.3
804.864	59.16
805.04	58.87
805.216	59.6
805.392	61.23
805.568	61.11
805.744	60.34
805.92	60.62
806.096	59.43
806.272	58.86
806.448	58.56
806.623	57.11
806.799	56.84
806.975	55.33
807.151	53.86
807.327	52.36
807.503	52
807.678	52.85
807.854	52.72
808.03	51.79
808.206	51.37
808.381	51.8
808.557	52.59
808.733	53.98
808.908	55.7
809.084	56.81
809.26	56.53
809.435	57.34
809.611	55.6
809.787	56.63
809.962	57.24
810.138	57.71
810.313	58.47
810.489	58.59
810.664	57.99
810.84	57.64
811.015	56.29
811.191	55.21
811.366	54.35
811.542	55.44
811.717	54.49
811.892	52.73
812.068	52.56
812.243	52.23
812.419	51.59
812.594	51.62
812.769	50.77
812.944	51.47
813.12	51.78
813.295	53.83
813.47	53.34
813.645	53.32
813.821	54.94
813.996	53.66
814.171	53.1
814.346	53.09
814.521	52.3
814.697	53.3
814.872	53.38
815.047	53.6
815.222	50.81
815.397	52.66
815.572	53.28
815.747	51.6
815.922	51.95
816.097	51.07
816.272	50.79
816.447	50.12
816.622	49.66
816.797	50.04
816.972	50.07
817.147	51.01
817.322	48.59
817.496	46.21
817.671	46.45
817.846	46.4
818.021	46.99
818.196	47.53
818.371	48.21
818.545	47.47
818.72	45.17
818.895	45.79
819.069	44.78
819.244	44.91
819.419	44.42
819.594	44.94
819.768	44.17
819.943	42.92
820.117	41.28
820.292	38.83
820.467	37.49
820.641	36.31
820.816	34.3
820.99	33.04
821.165	31.5
821.339	30.55
821.514	29.78
821.688	29.29
821.863	28.51
822.037	27.88
822.212	27.24
822.386	26.73
822.56	26.36
822.735	26.21
822.909	25.84
823.084	26.12
823.258	26.12
823.432	25.5
823.606	25.35
823.781	25.56
823.955	25.72
824.129	26.19
824.303	26.65
824.478	27.36
824.652	27.6
824.826	28.18
825	28.21
825.174	28.7
825.348	30.14
825.523	30.41
825.697	30.32
825.871	30.98
826.045	31.31
826.219	31.9
826.393	31.74
826.567	31.79
826.741	31.89
826.915	31.51
827.089	31.87
827.263	31.49
827.437	31.34
827.611	31.32
827.784	31.29
827.958	31.25
828.132	30.57
828.306	30.98
828.48	31.66
828.654	31.6
828.827	32.37
829.001	33.01
829.175	32.89
829.349	33.49
829.522	34.43
829.696	35.56
829.87	35.84
830.044	36.35
830.217	37.75
830.391	37.56
830.565	38.77
830.738	40.33
830.912	39.9
831.085	41.63
831.259	43.4
831.432	43.42
831.606	43.03
831.779	44.33
831.953	43.88
832.126	41.94
832.3	42.53
832.473	41.52
832.647	40.21
832.82	39.56
832.994	38.73
833.167	37.47
833.34	36.71
833.514	35.84
833.687	35.68
833.86	36.07
834.034	35.63
834.207	34.84
834.38	34.56
834.553	34.57
834.727	34.21
834.9	34.31
835.073	34.89
835.246	35.85
835.419	37.26
835.593	38.24
835.766	38.54
835.939	40.43
836.112	41.58
836.285	43.28
836.458	44.04
836.631	45.58
836.804	46.57
836.977	47.89
837.15	48.99
837.323	47.93
837.496	48.58
837.669	50.53
837.842	50.6
838.015	52.41
838.188	52.47
838.361	54.03
838.533	56.24
838.706	58.04
838.879	57.02
839.052	58.68
839.225	60.91
839.398	57.64
839.57	57.41
839.743	57.97
839.916	54.64
840.088	54.21
840.261	55.54
840.434	54.7
840.607	53.86
840.779	54.86
840.952	55.25
841.124	54.9
841.297	57.2
841.47	56.59
841.642	58.34
841.815	60.65
841.987	61.58
842.16	61.83
842.332	63.04
842.505	64.74
842.677	66.61
842.85	64.59
843.022	66
843.194	66.51
843.367	69.37
843.539	68.29
843.712	67.58
843.884	68.35
844.056	70.73
844.229	73.24
844.401	74.56
844.573	75.42
844.745	78.8
844.918	77.93
845.09	83.04
845.262	83.46
845.434	82.34
845.606	88.3
845.779	90.08
845.951	86.98
846.123	84.66
846.295	80.46
846.467	75.4
846.639	75.79
846.811	76.73
846.983	74.3
847.155	75.83
847.327	76.18
847.499	75.91
847.671	76.38
847.843	77.1
848.015	76.83
848.187	86.86
848.359	91.12
848.531	88.84
848.703	89.24
848.875	93.56
849.047	91.24
849.218	89.44
849.39	88.98
849.562	88.58
849.734	85.14
849.905	85.82
850.077	81.27
850.249	77.59
850.421	81.86
850.592	81.62
850.764	79.09
850.936	81.13
851.107	84.23
851.279	86.15
851.451	89.62
851.622	89.36
851.794	87.83
851.965	85.47
852.137	89.22
852.308	91.35
852.48	89.1
852.651	90.83
852.823	90.7
852.994	89.03
853.166	88.19
853.337	84.86
853.509	86.16
853.68	86.94
853.851	85.39
854.023	83.31
854.194	79.58
854.365	84.68
854.537	79.04
854.708	75.25
854.879	76.59
855.05	77.99
855.222	77.58
855.393	78.45
855.564	76.66
855.735	76.37
855.906	79.05
856.078	75.51
856.249	69.49
856.42	69.12
856.591	70.37
856.762	67.58
856.933	65.07
857.104	69.54
857.275	70.66
857.446	71.02
857.617	73.62
857.788	71.37
857.959	72.96
858.13	79.11
858.301	86.46
858.472	84.03
858.643	84.81
858.814	87.6
858.985	83.18
859.155	83.02
859.326	83.1
859.497	81
859.668	84.85
859.839	94.13
860.009	93.17
860.18	89.38
860.351	91.05
860.522	101.26
860.692	97.15
860.863	99.09
861.034	101.26
861.204	104.25
861.375	106.97
861.546	101.21
861.716	92.96
861.887	92.34
862.057	95.92
862.228	94.93
862.398	89.96
862.569	93.53
862.739	88.68
862.91	83.39
863.08	79.99
863.251	80.8
863.421	84.4
863.592	83.65
863.762	81.65
863.932	81.8
864.103	80.64
864.273	80
864.443	78.5
864.614	80.92
864.784	80.05
864.954	83.62
865.125	88.62
865.295	89.31
865.465	89.02
865.635	90.27
865.805	88.16
865.976	93.81
866.146	92.07
866.316	89.25
866.486	92.65
866.656	99.08
866.826	97.03
866.996	90.11
867.166	89.84
867.336	91.16
867.506	90.45
867.676	86.66
867.846	82.99
868.016	87.11
868.186	91
868.356	86.61
868.526	85.34
868.696	83.25
868.866	84.87
869.036	79.42
869.206	76.91
869.376	73.95
869.545	76.9
869.715	78.59
869.885	71.4
870.055	75.65
870.224	81.41
870.394	80.78
870.564	85.91
870.734	82.9
870.903	85.21
871.073	87.59
871.243	94.66
871.412	93.1
871.582	88.74
871.751	91.71
871.921	89.51
872.091	85
872.26	83.05
872.43	78
872.599	81.74
872.769	85.41
872.938	84.92
873.108	82.98
873.277	82.69
873.446	83.72
873.616	86.32
873.785	80.15
873.955	77.8
874.124	79.99
874.293	84.4
874.463	81.95
874.632	77.93
874.801	75.4
874.971	76.05
875.14	77.65
875.309	81.22
875.478	78.9
875.647	82.52
875.817	85.87
875.986	82.19
876.155	80.62
876.324	82.03
876.493	82.73
876.662	80.79
876.831	77.4
877	76
877.17	72.65
877.339	76.78
877.508	74.13
877.677	75.27
877.846	72.71
878.015	71.83
878.184	67.06
878.352	64.19
878.521	64.77
878.69	63.71
878.859	60.49
879.028	61.89
879.197	58.37
879.366	53.12
879.534	48.7
879.703	50.86
879.872	49.74
880.041	49.7
880.21	49.17
880.378	47.6
880.547	43.06
880.716	41.53
880.884	38.41
881.053	36.56
881.222	37.52
881.39	36.01
881.559	34.2
881.727	32.57
881.896	30.94
882.065	30.09
882.233	29
882.402	29.83
882.57	28.86
882.739	29.06
882.907	28.43
883.076	28.13
883.244	28.43
883.412	28.7
883.581	29.54
883.749	30.43
883.918	30.95
884.086	31.4
884.254	31.8
884.423	33.62
884.591	34.47
884.759	36.96
884.927	39.11
885.096	41.72
885.264	44.3
885.432	45.37
885.6	48.83
885.769	53.58
885.937	56.07
886.105	57.41
886.273	59.25
886.441	61.24
886.609	62.5
886.777	62.13
886.945	64.38
887.113	68.16
887.281	72.37
887.449	71.02
887.617	70.82
887.785	71.33
887.953	76.35
888.121	79.79
888.289	83.94
888.457	84.65
888.625	86.56
888.793	83.26
888.961	79.57
889.129	79.6
889.296	81.79
889.464	79.81
889.632	83.16
889.8	82.87
889.967	84.97
890.135	80.54
