Data from 2938721__Reflection_01.txt Node
Date: Tue Mar 17 10:43:32 EDT 2015
User: robert
Spectrometer: USB4E03002
Autoset integration time: false
Trigger mode: 4
Integration Time (sec): 1.000000E-1
Scans to average: 10
Electric dark correction enabled: false
Nonlinearity correction enabled: false
Boxcar width: 5
Stray light correction enabled: false
XAxis mode: Wavelengths
Stop averaging: false
Number of Pixels in Spectrum: 3648
>>>>>Begin Spectral Data<<<<<
177.575	223.08
177.794	217.51
178.014	185.25
178.233	214.57
178.452	225.65
178.672	223.9
178.891	280.63
179.11	376.8
179.33	1338.46
179.549	758.62
179.768	536.47
179.987	189.8
180.207	278.26
180.426	-50.73
180.645	-54.55
180.864	-410.87
181.084	-226.46
181.303	-588.89
181.522	-415.6
181.741	-386.15
181.96	3105.26
182.179	4857.14
182.398	652.17
182.618	784.51
182.837	186.15
183.056	199.02
183.275	203.45
183.494	175.66
183.713	144.13
183.932	212.35
184.151	207.07
184.37	-947.73
184.589	-2417.65
184.808	-316.15
185.027	29350
185.246	1964.29
185.465	1050
185.684	501.04
185.903	332.33
186.122	317.7
186.341	249.58
186.56	254.37
186.779	173.81
186.998	210.19
187.216	187.88
187.435	241.4
187.654	282.02
187.873	433.5
188.092	1189.8
188.311	2457.14
188.53	1919.05
188.748	-984.06
188.967	-840.74
189.186	-1380.39
189.405	-864.06
189.623	-207.87
189.842	-495.15
190.061	715.73
190.28	454.91
190.498	372.55
190.717	239.7
190.936	242.23
191.154	274.47
191.373	212.54
191.592	357.86
191.81	253.9
192.029	221.09
192.248	255.41
192.466	-5437.5
192.685	344.35
192.904	213.42
193.122	423.14
193.341	670.59
193.559	169.35
193.778	169.51
193.996	150
194.215	278.17
194.433	223.63
194.652	333.88
194.87	228.01
195.089	417.82
195.307	369.31
195.526	188.95
195.744	156.89
195.963	158.2
196.181	133.09
196.399	125.94
196.618	72.94
196.836	55.38
197.055	56.94
197.273	48.61
197.491	44.67
197.71	55.78
197.928	65.57
198.146	96.56
198.365	124.07
198.583	206.41
198.801	275
199.019	281.22
199.238	229.49
199.456	215.83
199.674	244.38
199.892	276.2
200.111	227.87
200.329	409.37
200.547	350.94
200.765	373.8
200.983	236.3
201.202	142.27
201.42	135.88
201.638	271.91
201.856	228.02
202.074	186.34
202.292	245.89
202.51	156.07
202.728	123.41
202.946	122.19
203.165	148.5
203.383	119.68
203.601	125.29
203.819	114.71
204.037	56.51
204.255	41.62
204.473	29.72
204.691	96.34
204.909	108.25
205.127	72.82
205.345	110.99
205.562	161.43
205.78	369.57
205.998	320
206.216	204.72
206.434	158.41
206.652	166.94
206.87	164.08
207.088	103.66
207.306	158.55
207.523	157.55
207.741	94.71
207.959	71.2
208.177	58.06
208.395	63.25
208.612	62.32
208.83	150.88
209.048	86.99
209.266	284.04
209.483	211.69
209.701	141.27
209.919	204.46
210.136	143.93
210.354	138.8
210.572	417.56
210.79	329.27
211.007	207.43
211.225	130.06
211.442	143.13
211.66	98.93
211.878	89.73
212.095	96.16
212.313	96.68
212.53	117.45
212.748	136.59
212.966	77.73
213.183	76.99
213.401	51.23
213.618	45.86
213.836	28.5
214.053	32.64
214.271	33.27
214.488	6.02
214.705	1.65
214.923	4.49
215.14	-4.42
215.358	-30.09
215.575	23.55
215.793	36.79
216.01	37.66
216.227	27.76
216.445	81.37
216.662	101.73
216.879	229.67
217.097	428.97
217.314	235.74
217.531	214.51
217.749	134.44
217.966	109.89
218.183	150.44
218.4	115.14
218.618	164.74
218.835	69.87
219.052	59.97
219.269	5.79
219.487	-6.57
219.704	28.25
219.921	25.55
220.138	24.54
220.355	20.88
220.572	20.27
220.79	22.76
221.007	21.89
221.224	19.36
221.441	12.28
221.658	26.61
221.875	25.72
222.092	9.34
222.309	14.59
222.526	17.56
222.743	18.71
222.96	19.19
223.177	15.52
223.394	19.62
223.611	23.33
223.828	32.55
224.045	27.88
224.262	26
224.479	28.23
224.696	24.64
224.913	22.71
225.13	23.1
225.347	18.15
225.564	15.91
225.781	10.95
225.997	8.65
226.214	4.3
226.431	4
226.648	3.97
226.865	6.45
227.082	6.16
227.298	6.2
227.515	5.19
227.732	7.36
227.949	7.74
228.165	7.47
228.382	6.78
228.599	6.46
228.816	6.07
229.032	6.21
229.249	5.99
229.466	5.38
229.682	5.44
229.899	5.45
230.116	3.78
230.332	3.73
230.549	3.19
230.765	4.41
230.982	3.95
231.199	3.98
231.415	3.82
231.632	3.49
231.848	3.75
232.065	5.01
232.281	5.33
232.498	6.87
232.714	6.58
232.931	8.68
233.147	8.13
233.364	8.77
233.58	8.31
233.797	10.94
234.013	12.32
234.23	13.8
234.446	12.71
234.662	11
234.879	11.95
235.095	11.94
235.312	10.11
235.528	8.95
235.744	8.3
235.961	8.43
236.177	5.57
236.393	4.77
236.61	1.27
236.826	1.13
237.042	1.24
237.258	0.69
237.475	2.03
237.691	3.63
237.907	4.05
238.123	5.87
238.339	5.62
238.556	4.86
238.772	5.16
238.988	6.74
239.204	7.51
239.42	7.71
239.636	6.19
239.853	5.81
240.069	6.05
240.285	6.55
240.501	5.76
240.717	5.4
240.933	5.16
241.149	4.26
241.365	3.8
241.581	3.86
241.797	4.19
242.013	4.5
242.229	4.45
242.445	4.41
242.661	4.44
242.877	4.65
243.093	5.06
243.309	5.3
243.525	5.89
243.741	6.49
243.957	6.06
244.173	5.62
244.388	5.64
244.604	5.67
244.82	5.3
245.036	5.04
245.252	4.32
245.468	4.43
245.683	4.65
245.899	4.08
246.115	3.72
246.331	3.5
246.547	3.43
246.762	3.62
246.978	4.03
247.194	4.12
247.409	4.08
247.625	4.33
247.841	4.36
248.057	4.13
248.272	4.14
248.488	4.45
248.703	4.55
248.919	4.74
249.135	4.56
249.35	4.14
249.566	4.59
249.782	4.35
249.997	3.93
250.213	3.99
250.428	4.45
250.644	4.99
250.859	4.94
251.075	5.14
251.29	5.19
251.506	5.58
251.721	5.32
251.937	4.27
252.152	4.32
252.368	5.07
252.583	4.95
252.798	5.18
253.014	4.88
253.229	4.5
253.445	4.66
253.66	4.36
253.875	3.76
254.091	3.07
254.306	4.07
254.521	4.03
254.737	3.53
254.952	3.45
255.167	2.89
255.383	3.53
255.598	3.68
255.813	3.41
256.028	3.81
256.244	4.53
256.459	5.09
256.674	4.4
256.889	4.44
257.104	4.02
257.32	2.95
257.535	2.89
257.75	2.67
257.965	2.17
258.18	2.19
258.395	2.7
258.61	2.29
258.826	2.58
259.041	2.86
259.256	3.15
259.471	3.36
259.686	3.77
259.901	3.95
260.116	4.02
260.331	4.4
260.546	4.65
260.761	4.42
260.976	4.71
261.191	4.59
261.406	4.7
261.621	4.49
261.836	4.09
262.05	3.94
262.265	3.83
262.48	3.54
262.695	3.11
262.91	2.51
263.125	2.67
263.34	2.47
263.555	2.4
263.769	1.92
263.984	2.05
264.199	2.72
264.414	3.42
264.629	2.92
264.843	2.8
265.058	3.11
265.273	2.97
265.488	3.49
265.702	3.97
265.917	4.26
266.132	4.67
266.346	4.95
266.561	4.81
266.776	4.34
266.99	4.7
267.205	4.62
267.42	4.53
267.634	4.9
267.849	4.42
268.063	3.8
268.278	3.52
268.492	3.01
268.707	2.94
268.922	2.9
269.136	2.99
269.351	2.64
269.565	2.62
269.78	2.51
269.994	2.15
270.209	2.21
270.423	2.69
270.637	3.02
270.852	3.08
271.066	2.59
271.281	2.73
271.495	2.59
271.709	2.83
271.924	2.9
272.138	3.12
272.353	3.18
272.567	2.71
272.781	2.57
272.996	2.75
273.21	2.78
273.424	3.14
273.638	2.98
273.853	2.55
274.067	2.28
274.281	2.54
274.495	2.35
274.71	2.42
274.924	2.56
275.138	2.39
275.352	1.76
275.566	1.93
275.781	1.92
275.995	2.09
276.209	3.01
276.423	3.22
276.637	2.97
276.851	2.97
277.065	3.31
277.279	3.38
277.493	3.58
277.707	4.03
277.921	3.94
278.135	3.78
278.349	3.33
278.563	2.85
278.777	3.23
278.991	2.78
279.205	2.44
279.419	2.12
279.633	2.21
279.847	2.32
280.061	1.79
280.275	1.93
280.489	2.34
280.703	2.96
280.917	3.35
281.131	3.05
281.344	3.38
281.558	3.7
281.772	3.68
281.986	3.8
282.2	3.73
282.414	3.89
282.627	3.5
282.841	2.89
283.055	2.81
283.269	2.59
283.482	2.58
283.696	2.75
283.91	2.56
284.123	2.29
284.337	1.9
284.551	1.75
284.764	1.7
284.978	1.95
285.192	1.87
285.405	1.72
285.619	1.69
285.833	1.62
286.046	1.57
286.26	1.61
286.473	1.66
286.687	2.18
286.9	2.15
287.114	2.27
287.327	2.2
287.541	2.5
287.754	2.44
287.968	2.68
288.181	2.91
288.395	2.94
288.608	3.28
288.822	3.29
289.035	3.2
289.248	3.46
289.462	3.48
289.675	3.57
289.889	3.76
290.102	3.74
290.315	3.74
290.529	3.76
290.742	3.57
290.955	3.64
291.169	3.99
291.382	4.04
291.595	3.67
291.808	3.59
292.022	3.37
292.235	3.33
292.448	3.39
292.661	2.98
292.875	2.8
293.088	2.97
293.301	2.69
293.514	2.73
293.727	2.67
293.94	3.03
294.153	3.19
294.367	3.67
294.58	3.47
294.793	3.52
295.006	3.46
295.219	3.8
295.432	3.55
295.645	3.62
295.858	3.68
296.071	3.7
296.284	3.73
296.497	3.65
296.71	3.46
296.923	3.55
297.136	3.4
297.349	3.66
297.562	3.6
297.775	3.82
297.988	3.71
298.201	3.54
298.414	3.41
298.626	3.45
298.839	3.48
299.052	3.42
299.265	3.71
299.478	4.14
299.691	4.11
299.903	4.05
300.116	4.03
300.329	4.08
300.542	3.99
300.755	4.01
300.967	3.94
301.18	4.17
301.393	4.16
301.605	3.97
301.818	3.76
302.031	3.74
302.243	3.49
302.456	3.5
302.669	3.6
302.881	3.69
303.094	4.1
303.307	4.03
303.519	3.83
303.732	3.49
303.944	3.2
304.157	3.4
304.37	3.49
304.582	3.53
304.795	3.28
305.007	3.33
305.22	3.5
305.432	3.2
305.645	3.28
305.857	3.17
306.069	3.38
306.282	3.51
306.494	3.39
306.707	3.32
306.919	3.55
307.132	3.77
307.344	3.69
307.556	3.65
307.769	4.17
307.981	4.1
308.193	4.36
308.406	4.46
308.618	4.53
308.83	4.73
309.043	4.52
309.255	4.15
309.467	4.43
309.679	4.28
309.892	4.38
310.104	4.02
310.316	3.99
310.528	3.98
310.74	4.23
310.953	4.23
311.165	4.11
311.377	4.47
311.589	4.94
311.801	4.72
312.013	5.29
312.225	5.61
312.437	5.92
312.649	6.28
312.862	6.36
313.074	6.39
313.286	6.54
313.498	6.62
313.71	6.73
313.922	6.71
314.134	7.13
314.346	6.41
314.558	6
314.77	5.94
314.982	6.06
315.193	5.99
315.405	5.76
315.617	5.34
315.829	5.24
316.041	4.96
316.253	4.73
316.465	4.54
316.677	4.98
316.888	5.19
317.1	4.57
317.312	4.3
317.524	4.48
317.736	4.98
317.947	5.45
318.159	5.32
318.371	5.58
318.583	5.69
318.794	5.64
319.006	5.62
319.218	5.47
319.43	5.73
319.641	5.67
319.853	5.67
320.064	6.06
320.276	6.32
320.488	6.59
320.699	6.56
320.911	6.62
321.123	6.68
321.334	6.92
321.546	7.15
321.757	7.36
321.969	6.91
322.18	6.6
322.392	5.82
322.603	6.06
322.815	6.28
323.026	6.01
323.238	5.65
323.449	5.46
323.661	5.5
323.872	5.39
324.083	5.51
324.295	5.73
324.506	6.05
324.718	6.06
324.929	5.89
325.14	5.74
325.352	5.98
325.563	6.37
325.774	6.84
325.986	6.69
326.197	6.42
326.408	6.29
326.62	6.47
326.831	6.65
327.042	6.87
327.253	6.99
327.464	7.2
327.676	7.4
327.887	7.55
328.098	7.37
328.309	7.38
328.52	7.5
328.732	7.51
328.943	7.64
329.154	7.57
329.365	7.44
329.576	7.27
329.787	7.08
329.998	7.16
330.209	6.94
330.42	6.92
330.631	7.07
330.842	7.35
331.053	7.61
331.264	7.67
331.475	7.6
331.686	7.68
331.897	7.76
332.108	7.99
332.319	7.94
332.53	8.02
332.741	8.38
332.952	8.52
333.163	8.59
333.374	8.63
333.585	8.68
333.795	8.68
334.006	8.71
334.217	8.73
334.428	8.78
334.639	8.74
334.849	8.61
335.06	8.34
335.271	8.11
335.482	8.19
335.692	8.22
335.903	8.36
336.114	8.1
336.325	8.64
336.535	8.65
336.746	8.75
336.957	8.35
337.167	8.44
337.378	8.67
337.589	8.85
337.799	8.76
338.01	8.93
338.22	8.55
338.431	8.98
338.642	8.72
338.852	8.51
339.063	8.19
339.273	8.57
339.484	8.71
339.694	8.6
339.905	8.46
340.115	8.62
340.326	8.54
340.536	8.86
340.746	8.56
340.957	8.54
341.167	8.84
341.378	8.95
341.588	8.64
341.799	8.51
342.009	8.58
342.219	8.59
342.43	8.64
342.64	8.58
342.85	8.48
343.061	8.58
343.271	8.39
343.481	8.35
343.691	8.3
343.902	8.43
344.112	8.43
344.322	8.06
344.532	7.88
344.743	7.82
344.953	7.69
345.163	7.73
345.373	7.53
345.583	7.73
345.793	7.39
346.004	7.3
346.214	7.28
346.424	7.3
346.634	7.7
346.844	8.03
347.054	7.85
347.264	7.87
347.474	8
347.684	8.45
347.894	8.15
348.104	8.38
348.314	8.46
348.524	8.46
348.734	8.56
348.944	8.05
349.154	7.93
349.364	8.06
349.574	7.91
349.784	7.68
349.994	7.28
350.204	7.5
350.413	7.42
350.623	7.31
350.833	7.41
351.043	7.61
351.253	7.77
351.463	7.86
351.672	7.89
351.882	7.98
352.092	8.15
352.302	8
352.511	7.98
352.721	7.87
352.931	8.01
353.141	8.15
353.35	7.61
353.56	7.61
353.77	7.53
353.979	7.4
354.189	7.41
354.399	7.55
354.608	7.98
354.818	7.75
355.027	7.96
355.237	7.65
355.447	7.54
355.656	7.91
355.866	7.91
356.075	7.91
356.285	7.8
356.494	7.96
356.704	7.72
356.913	7.43
357.123	7.43
357.332	7.19
357.542	7.52
357.751	7.59
357.96	7.6
358.17	7.87
358.379	7.9
358.589	7.85
358.798	7.72
359.007	7.7
359.217	7.95
359.426	8.17
359.635	8.46
359.845	8.33
360.054	8.19
360.263	8.09
360.472	7.84
360.682	7.75
360.891	7.89
361.1	7.81
361.309	7.72
361.519	7.61
361.728	7.63
361.937	7.52
362.146	7.56
362.355	7.57
362.564	7.44
362.774	7.49
362.983	7.53
363.192	7.59
363.401	7.71
363.61	7.7
363.819	7.88
364.028	7.72
364.237	7.66
364.446	7.56
364.655	7.65
364.864	7.38
365.073	7.37
365.282	7.44
365.491	7.47
365.7	7.25
365.909	7.34
366.118	7.1
366.327	6.94
366.536	6.91
366.745	6.96
366.954	6.98
367.162	7.45
367.371	7.13
367.58	7.08
367.789	6.86
367.998	7.04
368.207	7.05
368.415	7.06
368.624	7.22
368.833	7.31
369.042	7.36
369.25	7.15
369.459	6.9
369.668	7.22
369.877	7.08
370.085	7.05
370.294	7.06
370.503	6.99
370.711	6.92
370.92	7.07
371.129	6.93
371.337	6.72
371.546	6.65
371.754	6.73
371.963	6.53
372.171	6.44
372.38	6.35
372.589	6.41
372.797	6.51
373.006	6.58
373.214	6.34
373.423	6.44
373.631	6.4
373.84	6.52
374.048	6.23
374.256	6.13
374.465	6.34
374.673	6.22
374.882	5.94
375.09	5.93
375.298	5.82
375.507	5.82
375.715	5.71
375.923	5.53
376.132	5.51
376.34	5.51
376.548	5.62
376.757	5.5
376.965	5.68
377.173	5.8
377.381	5.55
377.59	5.65
377.798	5.62
378.006	5.68
378.214	5.85
378.423	5.71
378.631	5.96
378.839	5.87
379.047	5.85
379.255	5.86
379.463	5.77
379.671	5.91
379.879	5.58
380.088	5.69
380.296	5.65
380.504	5.75
380.712	5.83
380.92	5.65
381.128	5.88
381.336	5.78
381.544	5.77
381.752	5.53
381.96	5.54
382.168	5.87
382.376	5.89
382.584	5.85
382.791	5.77
382.999	5.77
383.207	5.84
383.415	5.56
383.623	5.55
383.831	5.53
384.039	5.72
384.247	5.7
384.454	5.56
384.662	5.46
384.87	5.47
385.078	5.49
385.285	5.51
385.493	5.37
385.701	5.32
385.909	5.2
386.116	5.12
386.324	5.33
386.532	5.4
386.739	5.3
386.947	5.3
387.155	5.23
387.362	5.09
387.57	5
387.778	5.16
387.985	5.32
388.193	5.49
388.4	5.4
388.608	5.25
388.816	5.05
389.023	5.14
389.231	5.07
389.438	5.07
389.646	5.08
389.853	5.23
390.061	5.23
390.268	5.27
390.475	5.29
390.683	5.35
390.89	5.21
391.098	5.24
391.305	5.3
391.512	5.23
391.72	5.3
391.927	5.44
392.135	5.2
392.342	5.08
392.549	4.91
392.756	4.9
392.964	4.85
393.171	4.9
393.378	5.03
393.586	4.97
393.793	4.94
394	4.78
394.207	4.77
394.414	4.78
394.622	4.79
394.829	5
395.036	4.8
395.243	4.8
395.45	4.75
395.657	4.64
395.864	4.55
396.072	4.54
396.279	4.58
396.486	4.5
396.693	4.51
396.9	4.41
397.107	4.26
397.314	4.42
397.521	4.48
397.728	4.56
397.935	4.38
398.142	4.47
398.349	4.64
398.556	4.79
398.763	4.63
398.97	4.65
399.177	4.68
399.383	4.6
399.59	4.46
399.797	4.53
400.004	4.37
400.211	4.42
400.418	4.42
400.625	4.36
400.831	4.3
401.038	4.41
401.245	4.43
401.452	4.61
401.658	4.58
401.865	4.78
402.072	4.66
402.279	4.74
402.485	4.85
402.692	4.65
402.899	4.57
403.105	4.62
403.312	4.66
403.519	4.64
403.725	4.44
403.932	4.59
404.138	4.44
404.345	4.46
404.552	4.44
404.758	4.41
404.965	4.47
405.171	4.49
405.378	4.44
405.584	4.39
405.791	4.26
405.997	4.39
406.204	4.36
406.41	4.26
406.617	4.12
406.823	4.19
407.029	4.13
407.236	4.04
407.442	3.83
407.649	3.7
407.855	3.68
408.061	3.67
408.268	3.53
408.474	3.53
408.68	3.6
408.887	3.72
409.093	3.75
409.299	3.88
409.505	3.94
409.712	4.14
409.918	4.17
410.124	4.15
410.33	4.29
410.537	4.32
410.743	4.31
410.949	4.42
411.155	4.39
411.361	4.25
411.567	4.11
411.773	4.01
411.98	3.85
412.186	3.79
412.392	3.85
412.598	3.76
412.804	3.78
413.01	3.81
413.216	3.69
413.422	3.82
413.628	4.01
413.834	4.11
414.04	4.27
414.246	4.4
414.452	4.38
414.658	4.29
414.864	4.35
415.07	4.39
415.275	4.36
415.481	4.27
415.687	4.33
415.893	4.33
416.099	4.34
416.305	4.34
416.511	4.24
416.716	4.24
416.922	4.29
417.128	4.24
417.334	4.16
417.539	4.17
417.745	4.25
417.951	4.18
418.157	4.05
418.362	3.91
418.568	3.92
418.774	4.02
418.979	4.08
419.185	4.03
419.391	3.99
419.596	3.98
419.802	3.96
420.008	3.98
420.213	3.97
420.419	3.98
420.624	4.17
420.83	4.19
421.035	4.17
421.241	4.15
421.446	4.17
421.652	4.22
421.857	4.23
422.063	4.19
422.268	4.2
422.474	4.13
422.679	4.14
422.885	4.03
423.09	3.98
423.295	3.94
423.501	3.92
423.706	3.93
423.911	3.96
424.117	4.01
424.322	4.03
424.527	4.02
424.733	4.03
424.938	4.04
425.143	4.04
425.349	4.1
425.554	4.14
425.759	4.22
425.964	4.18
426.169	4.2
426.375	4.13
426.58	4.14
426.785	4.14
426.99	4.19
427.195	4.18
427.4	4.12
427.605	4.03
427.811	3.94
428.016	3.79
428.221	3.85
428.426	3.81
428.631	3.87
428.836	3.75
429.041	3.68
429.246	3.61
429.451	3.58
429.656	3.66
429.861	3.62
430.066	3.69
430.271	3.63
430.476	3.59
430.681	3.58
430.886	3.5
431.09	3.61
431.295	3.62
431.5	3.73
431.705	3.66
431.91	3.66
432.115	3.7
432.32	3.62
432.524	3.8
432.729	3.84
432.934	3.86
433.139	3.93
433.343	3.96
433.548	4.01
433.753	3.94
433.958	4.03
434.162	4.02
434.367	4.07
434.572	4.16
434.776	4.12
434.981	4.07
435.186	4.15
435.39	4.14
435.595	4.06
435.799	4.05
436.004	4.06
436.209	4.09
436.413	4.12
436.618	4.09
436.822	4.07
437.027	4.12
437.231	4.14
437.436	4
437.64	3.97
437.845	3.93
438.049	3.98
438.253	4.06
438.458	4.02
438.662	3.92
438.867	4.05
439.071	3.96
439.275	3.83
439.48	3.8
439.684	3.91
439.888	3.93
440.093	4.02
440.297	3.99
440.501	3.93
440.706	3.87
440.91	3.9
441.114	3.8
441.318	3.83
441.523	3.94
441.727	3.91
441.931	3.91
442.135	3.92
442.339	3.86
442.543	3.83
442.748	3.83
442.952	3.94
443.156	3.91
443.36	3.96
443.564	4.09
443.768	4.08
443.972	4.12
444.176	4.06
444.38	4
444.584	4.08
444.788	4.12
444.992	4.13
445.196	4.14
445.4	4.16
445.604	4.15
445.808	4.07
446.012	4.02
446.216	4.03
446.42	4.01
446.624	4.04
446.828	3.97
447.032	3.92
447.235	3.87
447.439	3.87
447.643	3.96
447.847	3.96
448.051	3.97
448.254	3.98
448.458	4.06
448.662	4.07
448.866	4.03
449.069	4.03
449.273	4
449.477	3.97
449.681	3.95
449.884	3.89
450.088	3.85
450.292	3.82
450.495	3.77
450.699	3.71
450.902	3.77
451.106	3.76
451.31	3.82
451.513	3.93
451.717	4.07
451.92	4.08
452.124	3.98
452.327	4.02
452.531	3.92
452.734	4.02
452.938	4.04
453.141	3.88
453.345	4.04
453.548	4.02
453.752	3.92
453.955	3.89
454.158	3.9
454.362	3.98
454.565	3.88
454.769	4.1
454.972	4.01
455.175	3.98
455.379	4.06
455.582	3.97
455.785	3.87
455.988	3.91
456.192	3.86
456.395	3.83
456.598	3.73
456.801	3.78
457.005	3.67
457.208	3.72
457.411	3.73
457.614	3.71
457.817	3.68
458.021	3.78
458.224	3.81
458.427	3.76
458.63	3.73
458.833	3.75
459.036	3.73
459.239	3.73
459.442	3.75
459.645	3.72
459.848	3.74
460.051	3.79
460.254	3.76
460.457	3.66
460.66	3.72
460.863	3.73
461.066	3.83
461.269	3.87
461.472	3.84
461.675	3.85
461.878	3.85
462.081	3.86
462.284	3.78
462.486	3.82
462.689	3.9
462.892	3.88
463.095	3.86
463.298	3.93
463.5	3.87
463.703	3.89
463.906	4
464.109	4.01
464.311	4.12
464.514	4.15
464.717	4.18
464.92	4.26
465.122	4.29
465.325	4.26
465.528	4.09
465.73	4.09
465.933	4.13
466.135	4.07
466.338	4.15
466.541	4.08
466.743	4.12
466.946	3.99
467.148	3.97
467.351	3.9
467.553	3.95
467.756	4.01
467.958	4.03
468.161	4.03
468.363	4.01
468.566	3.98
468.768	3.96
468.971	3.95
469.173	3.98
469.375	3.98
469.578	4.07
469.78	4.01
469.983	3.98
470.185	3.89
470.387	3.84
470.59	3.8
470.792	3.74
470.994	3.73
471.196	3.72
471.399	3.75
471.601	3.74
471.803	3.75
472.005	3.93
472.208	3.94
472.41	4.08
472.612	4.1
472.814	4.14
473.016	4.24
473.218	4.24
473.421	4.35
473.623	4.43
473.825	4.38
474.027	4.31
474.229	4.18
474.431	4.23
474.633	4.28
474.835	4.24
475.037	4.22
475.239	4.11
475.441	4.06
475.643	3.97
475.845	3.98
476.047	4.03
476.249	4.02
476.451	4.01
476.653	3.98
476.855	3.86
477.057	3.95
477.258	3.97
477.46	3.98
477.662	4.04
477.864	4.04
478.066	3.94
478.268	3.94
478.469	3.98
478.671	3.98
478.873	3.91
479.075	3.83
479.276	3.81
479.478	3.83
479.68	3.79
479.882	3.77
480.083	3.75
480.285	3.79
480.487	3.79
480.688	3.78
480.89	3.8
481.091	3.81
481.293	3.89
481.495	3.9
481.696	3.9
481.898	3.9
482.099	3.94
482.301	3.96
482.502	3.97
482.704	3.94
482.905	3.92
483.107	3.94
483.308	3.91
483.51	3.89
483.711	3.87
483.913	3.88
484.114	3.88
484.315	3.84
484.517	3.86
484.718	3.84
484.92	3.86
485.121	3.87
485.322	3.88
485.524	3.89
485.725	3.92
485.926	3.91
486.127	3.9
486.329	3.9
486.53	3.94
486.731	3.86
486.932	3.87
487.134	3.9
487.335	3.92
487.536	3.92
487.737	3.93
487.938	3.92
488.139	3.96
488.341	3.93
488.542	3.94
488.743	3.92
488.944	3.96
489.145	3.99
489.346	3.93
489.547	3.88
489.748	3.91
489.949	3.92
490.15	3.95
490.351	3.89
490.552	3.95
490.753	3.97
490.954	3.96
491.155	3.99
491.356	3.98
491.557	4.01
491.758	4.01
491.959	3.97
492.159	4.02
492.36	4.01
492.561	4.04
492.762	3.99
492.963	4.01
493.164	4.02
493.364	4.03
493.565	4.05
493.766	4.05
493.967	4.1
494.167	4.09
494.368	4.03
494.569	4.04
494.769	4.07
494.97	4.09
495.171	4.09
495.371	4.04
495.572	4.06
495.773	4.03
495.973	4.08
496.174	4.1
496.375	4.09
496.575	4.08
496.776	4.1
496.976	4.14
497.177	4.14
497.377	4.15
497.578	4.22
497.778	4.19
497.979	4.25
498.179	4.25
498.38	4.23
498.58	4.21
498.78	4.23
498.981	4.2
499.181	4.2
499.382	4.21
499.582	4.2
499.782	4.16
499.983	4.26
500.183	4.23
500.383	4.28
500.584	4.31
500.784	4.41
500.984	4.44
501.184	4.52
501.385	4.46
501.585	4.56
501.785	4.55
501.985	4.66
502.185	4.58
502.386	4.65
502.586	4.6
502.786	4.68
502.986	4.65
503.186	4.7
503.386	4.67
503.586	4.7
503.786	4.65
503.987	4.75
504.187	4.77
504.387	4.82
504.587	4.8
504.787	4.86
504.987	4.85
505.187	4.86
505.387	4.99
505.587	5.07
505.786	5.08
505.986	5.14
506.186	5.08
506.386	5.12
506.586	5.19
506.786	5.15
506.986	5.15
507.186	5.12
507.386	5.14
507.585	5.1
507.785	5.04
507.985	5.16
508.185	5.17
508.384	5.22
508.584	5.18
508.784	5.13
508.984	5.16
509.183	5.25
509.383	5.28
509.583	5.31
509.782	5.33
509.982	5.37
510.182	5.35
510.381	5.4
510.581	5.45
510.781	5.47
510.98	5.53
511.18	5.65
511.379	5.59
511.579	5.64
511.778	5.65
511.978	5.71
512.177	5.82
512.377	5.9
512.576	5.96
512.776	5.92
512.975	5.94
513.175	5.89
513.374	5.87
513.573	5.95
513.773	5.97
513.972	6.02
514.172	6
514.371	6.04
514.57	6.02
514.77	6.08
514.969	6.14
515.168	6.23
515.367	6.39
515.567	6.39
515.766	6.45
515.965	6.55
516.164	6.68
516.364	6.66
516.563	6.7
516.762	6.74
516.961	6.83
517.16	6.85
517.359	6.9
517.559	6.91
517.758	7.05
517.957	7.12
518.156	7.15
518.355	7.18
518.554	7.3
518.753	7.36
518.952	7.44
519.151	7.42
519.35	7.49
519.549	7.52
519.748	7.57
519.947	7.57
520.146	7.57
520.345	7.65
520.544	7.6
520.743	7.6
520.942	7.65
521.141	7.69
521.339	7.8
521.538	7.92
521.737	8.03
521.936	8.15
522.135	8.32
522.333	8.42
522.532	8.5
522.731	8.7
522.93	8.86
523.129	8.93
523.327	8.98
523.526	9.01
523.725	9.13
523.923	9.3
524.122	9.39
524.321	9.42
524.519	9.5
524.718	9.5
524.917	9.58
525.115	9.63
525.314	9.74
525.512	9.89
525.711	9.95
525.909	10
526.108	10.04
526.306	10.11
526.505	10.21
526.703	10.37
526.902	10.51
527.1	10.54
527.299	10.62
527.497	10.67
527.696	10.67
527.894	10.75
528.092	10.81
528.291	10.85
528.489	10.87
528.688	10.88
528.886	10.84
529.084	10.85
529.283	10.92
529.481	10.96
529.679	11
529.877	11.05
530.076	11.1
530.274	11.12
530.472	11.18
530.67	11.26
530.869	11.39
531.067	11.53
531.265	11.68
531.463	11.76
531.661	11.89
531.859	11.95
532.057	12.11
532.255	12.23
532.454	12.39
532.652	12.46
532.85	12.55
533.048	12.6
533.246	12.66
533.444	12.72
533.642	12.83
533.84	12.85
534.038	12.93
534.236	12.97
534.434	12.96
534.632	12.94
534.83	13.02
535.027	13.08
535.225	13.13
535.423	13.23
535.621	13.29
535.819	13.32
536.017	13.42
536.215	13.52
536.412	13.63
536.61	13.73
536.808	13.79
537.006	13.87
537.203	14
537.401	14.13
537.599	14.2
537.797	14.32
537.994	14.35
538.192	14.44
538.39	14.47
538.587	14.53
538.785	14.67
538.983	14.8
539.18	14.91
539.378	14.96
539.575	15.04
539.773	15.12
539.97	15.15
540.168	15.27
540.366	15.32
540.563	15.39
540.761	15.43
540.958	15.48
541.155	15.51
541.353	15.54
541.55	15.57
541.748	15.58
541.945	15.59
542.143	15.59
542.34	15.56
542.537	15.64
542.735	15.69
542.932	15.71
543.129	15.75
543.327	15.82
543.524	15.9
543.721	15.98
543.919	16.09
544.116	16.13
544.313	16.28
544.51	16.47
544.708	16.5
544.905	16.6
545.102	16.75
545.299	16.78
545.496	16.83
545.693	16.87
545.891	16.9
546.088	16.91
546.285	16.99
546.482	17
546.679	16.99
546.876	17.04
547.073	17.08
547.27	17.12
547.467	17.11
547.664	17.13
547.861	17.18
548.058	17.17
548.255	17.23
548.452	17.29
548.649	17.27
548.846	17.35
549.043	17.33
549.24	17.33
549.437	17.3
549.633	17.43
549.83	17.54
550.027	17.58
550.224	17.66
550.421	17.65
550.618	17.71
550.814	17.9
551.011	17.95
551.208	18.08
551.405	18.07
551.601	18.13
551.798	18.2
551.995	18.22
552.191	18.21
552.388	18.3
552.585	18.42
552.781	18.41
552.978	18.34
553.175	18.35
553.371	18.29
553.568	18.37
553.764	18.37
553.961	18.34
554.157	18.4
554.354	18.45
554.55	18.44
554.747	18.47
554.943	18.53
555.14	18.58
555.336	18.62
555.533	18.77
555.729	18.74
555.926	18.82
556.122	18.91
556.318	18.94
556.515	18.95
556.711	19.01
556.907	18.93
557.104	18.91
557.3	18.94
557.496	18.78
557.693	18.69
557.889	18.86
558.085	18.91
558.281	18.99
558.478	18.99
558.674	19
558.87	19.01
559.066	19.08
559.262	19.19
559.459	19.24
559.655	19.48
559.851	19.53
560.047	19.54
560.243	19.48
560.439	19.42
560.635	19.41
560.831	19.45
561.027	19.51
561.223	19.54
561.419	19.56
561.615	19.59
561.811	19.61
562.007	19.65
562.203	19.64
562.399	19.76
562.595	19.9
562.791	19.94
562.987	20.06
563.183	20.05
563.379	20.09
563.575	20.12
563.771	20.18
563.966	20.14
564.162	20.19
564.358	20.11
564.554	20.16
564.75	20.05
564.945	20.04
565.141	20
565.337	19.99
565.533	20.02
565.728	20.13
565.924	20.09
566.12	20.19
566.315	20.22
566.511	20.35
566.707	20.42
566.902	20.5
567.098	20.54
567.293	20.56
567.489	20.56
567.684	20.53
567.88	20.51
568.076	20.55
568.271	20.55
568.467	20.58
568.662	20.61
568.858	20.53
569.053	20.58
569.248	20.62
569.444	20.62
569.639	20.72
569.835	20.91
570.03	20.86
570.225	20.9
570.421	20.91
570.616	20.89
570.812	20.89
571.007	20.91
571.202	20.96
571.397	20.99
571.593	21
571.788	20.98
571.983	20.97
572.178	21.1
572.374	21.15
572.569	21.18
572.764	21.13
572.959	21.11
573.154	21.1
573.35	21.02
573.545	21.03
573.74	21.13
573.935	21.24
574.13	21.17
574.325	21.11
574.52	21.1
574.715	21.1
574.91	21.31
575.105	21.35
575.3	21.37
575.495	21.45
575.69	21.51
575.885	21.46
576.08	21.4
576.275	21.46
576.47	21.46
576.665	21.55
576.86	21.61
577.055	21.53
577.25	21.56
577.444	21.62
577.639	21.56
577.834	21.64
578.029	21.74
578.224	21.69
578.418	21.64
578.613	21.68
578.808	21.62
579.003	21.48
579.197	21.43
579.392	21.46
579.587	21.48
579.781	21.56
579.976	21.44
580.171	21.35
580.365	21.43
580.56	21.44
580.755	21.49
580.949	21.45
581.144	21.52
581.338	21.63
581.533	21.65
581.727	21.7
581.922	21.79
582.116	21.88
582.311	21.95
582.505	22.09
582.7	22.17
582.894	22.21
583.089	22.27
583.283	22.38
583.478	22.41
583.672	22.53
583.866	22.6
584.061	22.58
584.255	22.45
584.449	22.48
584.644	22.43
584.838	22.47
585.032	22.45
585.226	22.4
585.421	22.35
585.615	22.33
585.809	22.23
586.003	22.09
586.198	22.09
586.392	22.26
586.586	22.29
586.78	22.28
586.974	22.32
587.168	22.3
587.363	22.46
587.557	22.42
587.751	22.41
587.945	22.39
588.139	22.52
588.333	22.41
588.527	22.37
588.721	22.45
588.915	22.45
589.109	22.36
589.303	22.42
589.497	22.37
589.691	22.51
589.885	22.54
590.079	22.53
590.273	22.52
590.466	22.8
590.66	22.8
590.854	22.75
591.048	22.8
591.242	22.7
591.436	22.7
591.629	22.7
591.823	22.72
592.017	22.91
592.211	23.05
592.404	23
592.598	22.84
592.792	22.85
592.986	22.98
593.179	22.98
593.373	23.04
593.567	23.1
593.76	23.17
593.954	23.19
594.147	23.2
594.341	23.09
594.535	23.19
594.728	23.21
594.922	23.32
595.115	23.24
595.309	23.32
595.502	23.32
595.696	23.26
595.889	23.27
596.083	23.14
596.276	22.97
596.47	23.18
596.663	23.15
596.856	23.12
597.05	23.12
597.243	23.04
597.437	23.01
597.63	23.05
597.823	23.07
598.017	23.07
598.21	23.14
598.403	23.25
598.596	23.01
598.79	23.06
598.983	23.09
599.176	23.04
599.369	23.2
599.563	23.24
599.756	23.26
599.949	23.25
600.142	23.21
600.335	23.21
600.528	23.31
600.722	23.45
600.915	23.37
601.108	23.45
601.301	23.37
601.494	23.42
601.687	23.41
601.88	23.53
602.073	23.59
602.266	23.67
602.459	23.63
602.652	23.36
602.845	23.39
603.038	23.44
603.231	23.36
603.424	23.41
603.617	23.33
603.809	23.31
604.002	23.31
604.195	23.22
604.388	23.05
604.581	23.06
604.774	23.19
604.966	23.17
605.159	23.11
605.352	23.09
605.545	23.03
605.737	22.99
605.93	23.01
606.123	22.97
606.316	23.09
606.508	23.21
606.701	23.35
606.894	23.36
607.086	23.34
607.279	23.41
607.471	23.55
607.664	23.71
607.857	23.87
608.049	23.92
608.242	24.03
608.434	24.2
608.627	24.37
608.819	24.52
609.012	24.64
609.204	24.8
609.397	25.06
609.589	25.23
609.782	25.43
609.974	25.59
610.166	26.05
610.359	26.31
610.551	26.49
610.743	26.73
610.936	26.89
611.128	27.15
611.32	27.22
611.513	27.3
611.705	27.37
611.897	27.35
612.09	27.3
612.282	27.03
612.474	26.8
612.666	26.67
612.858	26.52
613.051	26.25
613.243	26.16
613.435	26.1
613.627	26.02
613.819	26
614.011	25.91
614.203	25.75
614.395	25.56
614.588	25.83
614.78	25.56
614.972	25.35
615.164	25.37
615.356	25.25
615.548	25.28
615.74	25.03
615.932	25
616.124	25.05
616.315	24.92
616.507	24.85
616.699	24.47
616.891	24.64
617.083	24.67
617.275	24.68
617.467	24.56
617.659	24.44
617.85	24.63
618.042	24.56
618.234	24.52
618.426	24.7
618.618	24.83
618.809	24.79
619.001	24.82
619.193	24.74
619.384	24.68
619.576	24.73
619.768	24.86
619.959	24.72
620.151	24.59
620.343	24.62
620.534	24.52
620.726	24.58
620.917	24.73
621.109	24.62
621.301	24.9
621.492	24.92
621.684	24.94
621.875	24.87
622.067	24.86
622.258	24.97
622.45	24.88
622.641	25.03
622.832	25.03
623.024	25.05
623.215	25.33
623.407	25.12
623.598	25.18
623.789	25.12
623.981	25.22
624.172	25.18
624.363	25.05
624.555	25.09
624.746	25.05
624.937	24.95
625.129	24.83
625.32	24.61
625.511	24.66
625.702	24.62
625.893	24.59
626.085	24.36
626.276	24.5
626.467	24.57
626.658	24.64
626.849	24.51
627.04	24.56
627.231	24.74
627.422	24.81
627.614	24.71
627.805	24.61
627.996	24.76
628.187	24.85
628.378	24.84
628.569	24.9
628.76	24.7
628.951	24.85
629.142	24.84
629.332	24.81
629.523	24.92
629.714	25.04
629.905	25.19
630.096	25.21
630.287	25.27
630.478	25.22
630.669	25.28
630.859	25.38
631.05	25.5
631.241	25.5
631.432	25.26
631.623	25.07
631.813	25.02
632.004	24.95
632.195	24.9
632.385	24.92
632.576	24.85
632.767	24.68
632.957	24.69
633.148	24.56
633.339	24.38
633.529	24.5
633.72	24.52
633.91	24.6
634.101	24.57
634.292	24.68
634.482	24.72
634.673	24.73
634.863	24.88
635.054	24.87
635.244	24.91
635.435	24.96
635.625	25.02
635.815	24.92
636.006	24.73
636.196	24.84
636.387	24.66
636.577	24.64
636.767	24.81
636.958	24.71
637.148	24.78
637.338	24.7
637.529	24.81
637.719	24.84
637.909	24.93
638.099	25.01
638.29	24.81
638.48	24.89
638.67	24.83
638.86	24.7
639.05	24.76
639.241	24.77
639.431	24.98
639.621	25.07
639.811	24.96
640.001	24.92
640.191	25.03
640.381	25.19
640.571	25.2
640.761	25.24
640.951	25.15
641.141	25
641.331	24.95
641.521	24.83
641.711	24.88
641.901	25.02
642.091	25.33
642.281	25.14
642.471	25.18
642.661	25.16
642.851	25.11
643.041	25.29
643.231	25.4
643.42	25.66
643.61	25.66
643.8	25.6
643.99	25.48
644.18	25.25
644.369	25.35
644.559	25.3
644.749	25.29
644.939	25.32
645.128	25.17
645.318	25.1
645.508	24.97
645.697	24.75
645.887	24.56
646.076	24.67
646.266	24.87
646.456	25.21
646.645	25.42
646.835	25.52
647.024	25.39
647.214	25.8
647.403	25.97
647.593	25.91
647.782	26.23
647.972	26.43
648.161	26.43
648.351	26.29
648.54	26.04
648.73	25.96
648.919	25.77
649.108	26.03
649.298	25.72
649.487	25.66
649.677	25.6
649.866	25.54
650.055	25.66
650.244	25.55
650.434	25.66
650.623	25.55
650.812	25.56
651.002	25.57
651.191	25.42
651.38	25.67
651.569	25.73
651.758	25.85
651.947	26.04
652.137	25.91
652.326	26.1
652.515	26.07
652.704	26.21
652.893	26.08
653.082	26.13
653.271	26.19
653.46	26.04
653.649	25.66
653.838	25.62
654.027	25.48
654.216	25.54
654.405	25.53
654.594	25.44
654.783	25.39
654.972	25.61
655.161	25.52
655.35	25.7
655.539	25.73
655.728	25.89
655.916	26.03
656.105	25.99
656.294	25.84
656.483	25.89
656.672	26
656.86	26.11
657.049	25.9
657.238	26.13
657.427	26
657.615	26.02
657.804	26.44
657.993	26.42
658.181	26.42
658.37	26.43
658.559	26.17
658.747	26.22
658.936	26.29
659.125	26.35
659.313	26.16
659.502	26.08
659.69	26.01
659.879	25.67
660.067	25.57
660.256	25.52
660.444	25.53
660.633	25.85
660.821	25.7
661.01	25.53
661.198	25.55
661.387	25.82
661.575	26.06
661.763	26.09
661.952	26.46
662.14	26.36
662.328	26.38
662.517	26.36
662.705	26.12
662.893	26.26
663.082	26.2
663.27	26.11
663.458	25.95
663.646	25.82
663.834	25.78
664.023	25.55
664.211	25.88
664.399	25.93
664.587	25.92
664.775	26.09
664.963	25.92
665.152	26.05
665.34	26.35
665.528	26.52
665.716	26.4
665.904	26.53
666.092	26.48
666.28	26.28
666.468	26.38
666.656	26.52
666.844	26.17
667.032	26.32
667.22	26.36
667.408	26.16
667.596	25.97
667.784	26.15
667.971	25.96
668.159	26.18
668.347	26.15
668.535	25.88
668.723	25.88
668.911	26.02
669.098	26.11
669.286	26.12
669.474	26.14
669.662	26.21
669.849	26.18
670.037	26.38
670.225	26.25
670.413	26.3
670.6	26.46
670.788	26.51
670.976	26.48
671.163	26.31
671.351	26.39
671.538	26.42
671.726	26.42
671.913	26.29
672.101	26.1
672.289	25.91
672.476	25.96
672.664	26.05
672.851	25.92
673.039	25.93
673.226	26.1
673.413	25.83
673.601	25.64
673.788	25.55
673.976	25.69
674.163	25.79
674.35	25.88
674.538	25.67
674.725	25.86
674.912	25.96
675.1	26.13
675.287	26.25
675.474	26.32
675.662	26.65
675.849	26.82
676.036	26.73
676.223	26.74
676.411	26.85
676.598	27
676.785	26.66
676.972	26.55
677.159	26.55
677.346	26.34
677.533	26.47
677.721	26.32
677.908	26.31
678.095	26.17
678.282	26.5
678.469	26.55
678.656	26.73
678.843	26.91
679.03	26.92
679.217	26.89
679.404	26.8
679.591	26.77
679.778	26.76
679.964	26.66
680.151	26.86
680.338	26.4
680.525	26.2
680.712	26.15
680.899	26.02
681.086	26.11
681.272	26.13
681.459	26.22
681.646	26.37
681.833	26.34
682.02	26.52
682.206	26.49
682.393	26.69
682.58	26.77
682.766	26.75
682.953	27.02
683.14	26.99
683.326	26.83
683.513	27.08
683.7	27.01
683.886	26.98
684.073	26.96
684.259	27.1
684.446	27.02
684.632	27.1
684.819	27.07
685.005	27.01
685.192	27.05
685.378	27.02
685.565	26.97
685.751	27.14
685.938	27.41
686.124	27.35
686.31	26.98
686.497	27.07
686.683	26.99
686.87	27.07
687.056	26.76
687.242	26.61
687.429	26.88
687.615	26.56
687.801	26.44
687.987	26.43
688.174	26.43
688.36	26.78
688.546	27.09
688.732	26.94
688.918	26.84
689.105	27.24
689.291	27.3
689.477	27.38
689.663	27.3
689.849	27.14
690.035	27.14
690.221	27.22
690.407	27
690.593	26.81
690.779	26.84
690.965	27.01
691.151	26.81
691.337	26.89
691.523	26.78
691.709	26.97
691.895	27.47
692.081	27.17
692.267	26.99
692.453	27.18
692.639	27.18
692.825	27.28
693.011	27.07
693.196	27.25
693.382	27.29
693.568	27.28
693.754	27.44
693.94	26.91
694.125	27.4
694.311	27.43
694.497	27.24
694.682	27.19
694.868	27.2
695.054	27.39
695.239	27.22
695.425	27.01
695.611	27.07
695.796	26.91
695.982	26.83
696.168	26.63
696.353	26.55
696.539	26.76
696.724	26.96
696.91	27.18
697.095	27.22
697.281	27.23
697.466	27.4
697.652	27.35
697.837	27.51
698.023	27.75
698.208	27.68
698.393	27.75
698.579	27.72
698.764	27.68
698.949	27.63
699.135	27.61
699.32	27.31
699.505	27.29
699.691	27.18
699.876	26.91
700.061	26.71
700.246	26.51
700.432	26.65
700.617	26.5
700.802	26.28
700.987	26.34
701.172	26.26
701.358	26.86
701.543	26.8
701.728	27.18
701.913	27.57
702.098	27.76
702.283	28.08
702.468	28.16
702.653	28.57
702.838	28.71
703.023	28.9
703.208	28.96
703.393	28.35
703.578	28.38
703.763	28.3
703.948	28.33
704.133	28.27
704.318	28.42
704.503	28.02
704.688	27.83
704.873	27.99
705.057	27.73
705.242	28.04
705.427	28.4
705.612	28.44
705.797	28.01
705.981	28.1
706.166	28.62
706.351	28.89
706.536	29.47
706.72	29.24
706.905	29.31
707.09	29.59
707.274	29.54
707.459	29.78
707.644	29.72
707.828	30.06
708.013	30.01
708.197	29.67
708.382	29.4
708.567	29.52
708.751	29.48
708.936	29.46
709.12	29.47
709.305	29.32
709.489	29.44
709.673	29.61
709.858	29.52
710.042	29.4
710.227	29.2
710.411	28.94
710.596	28.39
710.78	28.59
710.964	28.57
711.149	28.25
711.333	28.16
711.517	28.15
711.702	28.14
711.886	28.41
712.07	28.23
712.254	28.59
712.438	28.73
712.623	28.99
712.807	29
712.991	28.78
713.175	28.76
713.359	28.71
713.544	28.35
713.728	28.77
713.912	28.49
714.096	28.56
714.28	27.95
714.464	27.54
714.648	27.26
714.832	27.24
715.016	27.18
715.2	27.13
715.384	27.18
715.568	27.23
715.752	26.76
715.936	26.56
716.12	26.58
716.304	26.9
716.488	27.3
716.671	27.19
716.855	27.1
717.039	27.2
717.223	27.04
717.407	26.95
717.59	26.93
717.774	26.76
717.958	27.13
718.142	27.01
718.325	26.98
718.509	26.73
718.693	26.88
718.877	26.7
719.06	26.62
719.244	27.2
719.428	27.26
719.611	27.37
719.795	27.75
719.978	27.54
720.162	27.63
720.345	27.25
720.529	27.03
720.713	26.94
720.896	26.68
721.08	26.39
721.263	26.17
721.446	25.92
721.63	25.59
721.813	25.43
721.997	25.83
722.18	25.71
722.364	26.1
722.547	26.35
722.73	26.35
722.914	26.96
723.097	27.38
723.28	27.12
723.464	27.66
723.647	28.03
723.83	27.77
724.013	27.57
724.197	28.41
724.38	28.34
724.563	28.65
724.746	29.09
724.929	28.78
725.112	29.07
725.296	29.35
725.479	29.07
725.662	28.97
725.845	29.15
726.028	28.78
726.211	27.82
726.394	28.36
726.577	28.25
726.76	28.16
726.943	28.46
727.126	28.54
727.309	28.55
727.492	28.44
727.675	28.17
727.858	28.2
728.041	28.19
728.224	28.44
728.407	28.24
728.589	28.61
728.772	28.85
728.955	28.63
729.138	28.37
729.321	27.83
729.503	28.03
729.686	28.14
729.869	28.14
730.052	28.48
730.234	28.27
730.417	28.14
730.6	27.3
730.782	26.72
730.965	26.73
731.148	27.08
731.33	27.64
731.513	27.55
731.695	27.63
731.878	27.25
732.061	27.2
732.243	27.46
732.426	27.4
732.608	27.9
732.791	28.22
732.973	28.56
733.156	28.33
733.338	28.1
733.52	28.02
733.703	28.22
733.885	28.54
734.068	28.74
734.25	29.04
734.432	29.02
734.615	28.87
734.797	29.08
734.979	28.87
735.162	28.72
735.344	28.75
735.526	29.07
735.708	28.62
735.891	28.6
736.073	28.73
736.255	28.04
736.437	27.82
736.619	27.91
736.802	27.93
736.984	28.11
737.166	28.25
737.348	28.68
737.53	28.55
737.712	29.35
737.894	29.14
738.076	28.52
738.258	29.16
738.44	29.4
738.622	29.53
738.804	29.35
738.986	29.04
739.168	28.86
739.35	28.48
739.532	28.01
739.714	27.62
739.896	28.09
740.078	28.82
740.259	28.83
740.441	29.54
740.623	29.6
740.805	29.59
740.987	29.73
741.168	29.81
741.35	30.25
741.532	30.57
741.714	30.17
741.895	29.84
742.077	29.16
742.259	28.91
742.44	28.58
742.622	27.73
742.804	27.95
742.985	27.9
743.167	27.79
743.348	27.94
743.53	27.9
743.711	28.39
743.893	28.14
744.075	28.12
744.256	28.08
744.438	27.51
744.619	28.43
744.8	28.21
744.982	28.59
745.163	29
745.345	28.75
745.526	28.65
745.707	28.32
745.889	28.55
746.07	29.02
746.252	28.65
746.433	28.94
746.614	28.82
746.795	28.5
746.977	28.16
747.158	27.62
747.339	27.66
747.52	28.29
747.702	27.98
747.883	27.67
748.064	27.76
748.245	27.72
748.426	27.4
748.607	26.96
748.788	27.24
748.97	27.19
749.151	27.5
749.332	27.55
749.513	27.41
749.694	28.02
749.875	28.65
750.056	28.24
750.237	28.87
750.418	29.14
750.599	29.65
750.78	29.56
750.96	29.38
751.141	29.98
751.322	30.06
751.503	30.11
751.684	30.08
751.865	29.6
752.046	29.89
752.226	29.5
752.407	29.55
752.588	28.95
752.769	29.52
752.949	30.11
753.13	29.3
753.311	29.12
753.492	29.26
753.672	29.39
753.853	29.55
754.034	29.19
754.214	29.83
754.395	29.77
754.575	30.51
754.756	29.81
754.937	29.68
755.117	29.97
755.298	29.24
755.478	28.66
755.659	28.58
755.839	28.58
756.02	28.65
756.2	28.39
756.381	28.66
756.561	28.61
756.741	29.39
756.922	28.99
757.102	28.98
757.283	29.72
757.463	29.95
757.643	29.81
757.823	30.11
758.004	29.32
758.184	28.76
758.364	28.43
758.545	28.3
758.725	27.45
758.905	28.41
759.085	28.1
759.265	28.19
759.446	28.31
759.626	28.09
759.806	28.18
759.986	28.77
760.166	29.01
760.346	28.87
760.526	28.78
760.706	29.22
760.886	28.57
761.066	28.42
761.246	28.26
761.426	28.34
761.606	28.67
761.786	28.69
761.966	28.49
762.146	28.84
762.326	28.67
762.506	28.35
762.686	28.3
762.866	28.17
763.046	28.22
763.225	28.05
763.405	27.72
763.585	27.57
763.765	27.32
763.945	27.77
764.124	27.55
764.304	27.46
764.484	27.42
764.664	27.39
764.843	27.32
765.023	27.48
765.203	27.34
765.382	27.73
765.562	27.77
765.741	28
765.921	28.05
766.101	28.07
766.28	28.29
766.46	28.88
766.639	28.88
766.819	29.3
766.998	29.23
767.178	29.85
767.357	29.17
767.537	29.05
767.716	29.51
767.896	28.82
768.075	28.13
768.254	28.18
768.434	28.1
768.613	28.45
768.792	28.24
768.972	28.32
769.151	28.46
769.33	29.37
769.51	29.92
769.689	29.8
769.868	29.89
770.047	31.41
770.226	32.01
770.406	31.93
770.585	31.77
770.764	31.78
770.943	32.61
771.122	32.58
771.301	32.65
771.48	32.35
771.66	31.91
771.839	32.92
772.018	32.35
772.197	32.08
772.376	32.96
772.555	33.19
772.734	33.25
772.913	32.17
773.092	32.08
773.271	31.05
773.449	30.86
773.628	31.47
773.807	30.68
773.986	29.91
774.165	31.1
774.344	30.46
774.523	30.37
774.701	29.95
774.88	30.68
775.059	30.45
775.238	30.47
775.417	31.09
775.595	30.18
775.774	30.42
775.953	31.11
776.131	30.17
776.31	29.8
776.489	29.56
776.667	29.45
776.846	29.45
777.025	29.09
777.203	29.62
777.382	29.1
777.56	29.14
777.739	28.84
777.917	29.1
778.096	29.37
778.274	29
778.453	28.88
778.631	29.43
778.81	29.34
778.988	29.59
779.166	29.77
779.345	29.52
779.523	30.03
779.702	30.1
779.88	29.97
780.058	29.49
780.237	30.19
780.415	30.74
780.593	31.58
780.771	31.21
780.95	31.87
781.128	31.88
781.306	31.41
781.484	32.23
781.662	32.85
781.841	32.53
782.019	31.53
782.197	31.86
782.375	31.82
782.553	31.39
782.731	31.84
782.909	30.97
783.087	31.83
783.265	33.34
783.443	32.01
783.621	31.5
783.799	31.69
783.977	32.56
784.155	32.08
784.333	31.01
784.511	30.75
784.689	30.11
784.867	30.35
785.045	28.12
785.223	26.99
785.4	28.16
785.578	28.45
785.756	28.79
785.934	28.83
786.112	28.75
786.289	29.01
786.467	29.56
786.645	29.98
786.823	29.08
787	29.63
787.178	29.5
787.356	28.76
787.533	28.93
787.711	29.67
787.889	30
788.066	30.42
788.244	30.16
788.421	29.12
788.599	29.35
788.776	30.19
788.954	30.34
789.131	30.73
789.309	30.57
789.486	30.18
789.664	29.02
789.841	28.69
790.019	28.27
790.196	28.79
790.373	28.3
790.551	27.6
790.728	27
790.906	27.92
791.083	28.84
791.26	28.76
791.437	27.89
791.615	28.02
791.792	28.87
791.969	28.98
792.146	28.46
792.324	30.08
792.501	30.92
792.678	31.71
792.855	30.21
793.032	28.79
793.209	29.06
793.387	30.16
793.564	31.59
793.741	30.62
793.918	31.4
794.095	32.09
794.272	31
794.449	31.31
794.626	31.65
794.803	31.75
794.98	31.99
795.157	32.25
795.334	31.8
795.511	30.57
795.688	31.98
795.864	31.25
796.041	30.79
796.218	31.28
796.395	31.51
796.572	30.59
796.749	31.85
796.925	31.87
797.102	32.03
797.279	31.99
797.456	32.21
797.632	29.97
797.809	30.15
797.986	30.82
798.162	30.93
798.339	30.37
798.516	31.14
798.692	30.92
798.869	31.44
799.046	30.68
799.222	30.48
799.399	29.78
799.575	31.55
799.752	30.62
799.928	30.5
800.105	29.92
800.281	29.01
800.458	28.65
800.634	28.46
800.811	27.23
800.987	27.4
801.163	28.12
801.34	28.53
801.516	28.31
801.692	28.82
801.869	29.14
802.045	29.92
802.221	30.17
802.398	30.25
802.574	31.2
802.75	32.79
802.926	33.24
803.103	33.6
803.279	33.51
803.455	32.75
803.631	33.39
803.807	33.21
803.983	34.03
804.16	34.66
804.336	34.43
804.512	32.69
804.688	32.4
804.864	31.91
805.04	31.3
805.216	33.06
805.392	34.13
805.568	34.13
805.744	33.4
805.92	32.47
806.096	32.25
806.272	32.97
806.448	33.98
806.623	32.88
806.799	32.29
806.975	32.3
807.151	29.75
807.327	29.16
807.503	29.78
807.678	29.88
807.854	29.27
808.03	28.67
808.206	28.6
808.381	28.85
808.557	30.37
808.733	30.95
808.908	30.39
809.084	31.02
809.26	31.22
809.435	30.47
809.611	30.75
809.787	31.18
809.962	31.54
810.138	30.88
810.313	29.19
810.489	28.86
810.664	29.27
810.84	30.39
811.015	31.34
811.191	30.81
811.366	30.34
811.542	30.16
811.717	31.05
811.892	31.87
812.068	31.74
812.243	31.57
812.419	30.85
812.594	29.98
812.769	30.6
812.944	30.61
813.12	30.42
813.295	29.77
813.47	28.68
813.645	26.97
813.821	25.43
813.996	26.12
814.171	27.64
814.346	28.48
814.521	29.38
814.697	28.27
814.872	27.35
815.047	27.25
815.222	28.45
815.397	29.23
815.572	30.72
815.747	32.24
815.922	31.33
816.097	31.99
816.272	32.42
816.447	31.96
816.622	31.78
816.797	33.67
816.972	34.12
817.147	33.84
817.322	34.27
817.496	32.16
817.671	31.36
817.846	31.05
818.021	30.39
818.196	28.78
818.371	28.19
818.545	28.34
818.72	26.78
818.895	27.3
819.069	26.76
819.244	26.11
819.419	27.59
819.594	27.38
819.768	27.29
819.943	27.33
820.117	26.86
820.292	26.71
820.467	26.73
820.641	27
820.816	26.53
820.99	26.69
821.165	26.85
821.339	26.84
821.514	26.73
821.688	26.58
821.863	26.27
822.037	26.54
822.212	26.4
822.386	26.39
822.56	26.36
822.735	26.3
822.909	26.09
823.084	25.98
823.258	25.6
823.432	25.84
823.606	25.97
823.781	26.16
823.955	26.1
824.129	26.17
824.303	26.03
824.478	25.8
824.652	25.76
824.826	26.14
825	25.93
825.174	25.99
825.348	25.52
825.523	25.31
825.697	25.22
825.871	25.04
826.045	25.1
826.219	25.04
826.393	25.39
826.567	25.71
826.741	25.69
826.915	25.85
827.089	25.99
827.263	25.87
827.437	26.24
827.611	26.8
827.784	26.58
827.958	26.37
828.132	26.58
828.306	25.86
828.48	25.96
828.654	25.23
828.827	25.23
829.001	24.87
829.175	25.58
829.349	26.13
829.522	24.7
829.696	25.22
829.87	25.88
830.044	26.34
830.217	27.96
830.391	27.18
830.565	27.98
830.738	28.74
830.912	29.94
831.085	29.03
831.259	28.96
831.432	30
831.606	29.91
831.779	30.17
831.953	28.67
832.126	28.93
832.3	29.24
832.473	28.85
832.647	28.21
832.82	28.15
832.994	28.2
833.167	27.35
833.34	26.89
833.514	26.76
833.687	26.27
833.86	26.74
834.034	25.92
834.207	26.22
834.38	26.35
834.553	26.26
834.727	26.35
834.9	26.1
835.073	26.23
835.246	26.25
835.419	26.87
835.593	27.23
835.766	27.6
835.939	27.79
836.112	27.78
836.285	29.06
836.458	30.29
836.631	30.35
836.804	30.08
836.977	29.43
837.15	29.9
837.323	28.73
837.496	28.63
837.669	29.94
837.842	30.05
838.015	30.34
838.188	29.6
838.361	29.28
838.533	28.86
838.706	30.49
838.879	31.29
839.052	29.73
839.225	29.17
839.398	29.37
839.57	27.64
839.743	28.12
839.916	27.66
840.088	28.06
840.261	29.31
840.434	29.61
840.607	29.24
840.779	29.96
840.952	31.89
841.124	32.93
841.297	32.75
841.47	30.82
841.642	31.05
841.815	31.32
841.987	29.92
842.16	28.15
842.332	27.96
842.505	27.26
842.677	27.76
842.85	27.8
843.022	29.27
843.194	29.65
843.367	31.59
843.539	31.45
843.712	31.48
843.884	34.95
844.056	35.46
844.229	36.06
844.401	37.87
844.573	36.31
844.745	34.48
844.918	30.9
845.09	30.77
845.262	28.28
845.434	31.22
845.606	30.88
845.779	28.74
845.951	28.33
846.123	30.8
846.295	29.86
846.467	34.21
846.639	37.68
846.811	42.25
846.983	45.8
847.155	49.66
847.327	47.45
847.499	47.71
847.671	49.77
847.843	47.9
848.015	42.09
848.187	43.37
848.359	38.49
848.531	40.43
848.703	38.82
848.875	32.24
849.047	32.74
849.218	31.75
849.39	32.79
849.562	29.89
849.734	32.87
849.905	37.66
850.077	37.53
850.249	38.59
850.421	34.5
850.592	35.45
850.764	41.98
850.936	41.17
851.107	39.96
851.279	39.41
851.451	38.58
851.622	40.17
851.794	39.34
851.965	40.46
852.137	38.83
852.308	38.22
852.48	35.87
852.651	32.13
852.823	34.95
852.994	38.31
853.166	37.49
853.337	39.98
853.509	38.08
853.68	34.27
853.851	33.16
854.023	38.03
854.194	38.65
854.365	41.07
854.537	41.18
854.708	38.74
854.879	35.04
855.05	32.86
855.222	29.32
855.393	31
855.564	34.36
855.735	37.52
855.906	36.79
856.078	36.44
856.249	36.32
856.42	35.54
856.591	37.14
856.762	37.7
856.933	45.26
857.104	44.48
857.275	41.81
857.446	43.13
857.617	40.72
857.788	39.54
857.959	40.92
858.13	46.43
858.301	51.07
858.472	52.36
858.643	53.53
858.814	48.86
858.985	50.15
859.155	48.46
859.326	46.53
859.497	44.8
859.668	43.44
859.839	40.5
860.009	34.67
860.18	31.27
860.351	26.78
860.522	31.5
860.692	33.87
860.863	34.64
861.034	38.8
861.204	43.75
861.375	41.25
861.546	42.39
861.716	42.9
861.887	38.46
862.057	39.82
862.228	42.49
862.398	35.65
862.569	35.8
862.739	36.49
862.91	34.17
863.08	27.76
863.251	32.14
863.421	32.52
863.592	37.37
863.762	39.38
863.932	39.79
864.103	41.12
864.273	45.96
864.443	38.35
864.614	40.47
864.784	37.72
864.954	40.59
865.125	38.04
865.295	39.22
865.465	36.65
865.635	40.11
865.805	41.97
865.976	41.51
866.146	40.09
866.316	44.8
866.486	42.28
866.656	42.83
866.826	44.09
866.996	45.94
867.166	46.04
867.336	48.03
867.506	47.42
867.676	37.69
867.846	38.45
868.016	38.99
868.186	40.93
868.356	42.89
868.526	44.22
868.696	43.54
868.866	42.63
869.036	43.92
869.206	40.39
869.376	43.67
869.545	48.84
869.715	45.73
869.885	44.88
870.055	46.66
870.224	46.82
870.394	49.39
870.564	47.89
870.734	48.11
870.903	44.58
871.073	45.52
871.243	41.35
871.412	38.05
871.582	41.09
871.751	40.12
871.921	41.41
872.091	37.85
872.26	37.57
872.43	37.15
872.599	34.89
872.769	32.13
872.938	34.6
873.108	32.92
873.277	35.71
873.446	30.38
873.616	30.41
873.785	25.81
873.955	30.18
874.124	30.43
874.293	28.57
874.463	28.13
874.632	29.64
874.801	28.35
874.971	28.87
875.14	28.22
875.309	29.46
875.478	32.98
875.647	33.19
875.817	32.86
875.986	33.75
876.155	36.77
876.324	39.08
876.493	39.73
876.662	38.88
876.831	42.33
877	45.53
877.17	51.79
877.339	47.58
877.508	47.97
877.677	50.4
877.846	46.3
878.015	47.25
878.184	50.59
878.352	50.85
878.521	48.11
878.69	46.29
878.859	42.14
879.028	39.77
879.197	40.03
879.366	38.65
879.534	39.6
879.703	40.22
879.872	37.77
880.041	33.54
880.21	30.4
880.378	30.97
880.547	29.07
880.716	28.09
880.884	26.27
881.053	26.06
881.222	25.73
881.39	23.78
881.559	23.83
881.727	23.28
881.896	23.37
882.065	24.01
882.233	24.09
882.402	24.47
882.57	24.63
882.739	24.55
882.907	24.03
883.076	23.99
883.244	24.36
883.412	24.31
883.581	25.07
883.749	25
883.918	24.67
884.086	24.49
884.254	24.32
884.423	25.5
884.591	26.53
884.759	27.19
884.927	27.33
885.096	27.04
885.264	26.7
885.432	25.75
885.6	26.79
885.769	26.09
885.937	26.35
886.105	26.56
886.273	24.58
886.441	25.97
886.609	25.07
886.777	23.79
886.945	25
887.113	27.37
887.281	30.13
887.449	31.64
887.617	35.82
887.785	35.29
887.953	34.8
888.121	34.51
888.289	35.17
888.457	40.36
888.625	41.96
888.793	39.89
888.961	38.79
889.129	34.56
889.296	34.84
889.464	33.7
889.632	35.63
889.8	36.13
889.967	38.04
890.135	33.87
