Data from 2938722__Reflection_02.txt Node
Date: Tue Mar 17 10:36:55 EDT 2015
User: robert
Spectrometer: USB4E03002
Autoset integration time: false
Trigger mode: 4
Integration Time (sec): 1.000000E-1
Scans to average: 10
Electric dark correction enabled: false
Nonlinearity correction enabled: false
Boxcar width: 5
Stray light correction enabled: false
XAxis mode: Wavelengths
Stop averaging: false
Number of Pixels in Spectrum: 3648
>>>>>Begin Spectral Data<<<<<
177.575	218.96
177.794	443.1
178.014	821.21
178.233	-328.67
178.452	-314.2
178.672	-1150.98
178.891	-433.33
179.11	-500.87
179.33	-258.33
179.549	-1575
179.768	-308.73
179.987	-1343.9
180.207	-538.24
180.426	3387.5
180.645	344.98
180.864	479.22
181.084	1323.33
181.303	-1301.82
181.522	-367.06
181.741	1778.26
181.96	-407.36
182.179	-362.84
182.398	-324.61
182.618	-4642.86
182.837	-893.85
183.056	470.48
183.275	201.49
183.494	284.93
183.713	156.62
183.932	142.43
184.151	170.75
184.37	78.29
184.589	92.25
184.808	60.04
185.027	59.56
185.246	97.64
185.465	118.86
185.684	116.67
185.903	111.93
186.122	57.31
186.341	55.95
186.56	72.67
186.779	49.32
186.998	7.72
187.216	22.12
187.435	-179.41
187.654	85.82
187.873	24.44
188.092	506.45
188.311	-691.67
188.53	-180.25
188.748	-29.44
188.967	18.07
189.186	-60.7
189.405	-537.88
189.623	357.6
189.842	159.4
190.061	223.23
190.28	290.17
190.498	273.28
190.717	225.37
190.936	169.27
191.154	161.96
191.373	133.76
191.592	126.88
191.81	139.14
192.029	136.07
192.248	135.94
192.466	104.13
192.685	119.07
192.904	102.62
193.122	145.2
193.341	124.48
193.559	109.49
193.778	129.55
193.996	98.3
194.215	53.38
194.433	90.1
194.652	85.42
194.87	124.36
195.089	58.63
195.307	54.49
195.526	20.43
195.744	18.77
195.963	-29.84
196.181	-70.56
196.399	-90.38
196.618	-122.27
196.836	-385.11
197.055	-197.99
197.273	-43.57
197.491	-122.99
197.71	-662.5
197.928	-8.24
198.146	125.4
198.365	83.63
198.583	177.46
198.801	140.65
199.019	336.07
199.238	185.98
199.456	167.69
199.674	278.26
199.892	151.03
200.111	211.17
200.329	186.26
200.547	88.22
200.765	119.15
200.983	100.51
201.202	134.25
201.42	136.12
201.638	129.93
201.856	132.83
202.074	136.71
202.292	326.67
202.51	266.85
202.728	294.33
202.946	-538.89
203.165	-3220
203.383	9500
203.601	417.24
203.819	465.38
204.037	-958.33
204.255	-31.46
204.473	27.03
204.691	17.43
204.909	0.7
205.127	72.6
205.345	72.3
205.562	74.01
205.78	-15.5
205.998	51.69
206.216	183.5
206.434	717.65
206.652	367.07
206.87	-987.8
207.088	1291.18
207.306	256.21
207.523	-1681.82
207.741	-2980
207.959	283.87
208.177	169.59
208.395	118.01
208.612	169.7
208.83	104.22
209.048	78.39
209.266	-9.41
209.483	-16.67
209.701	-7.02
209.919	54.97
210.136	49.43
210.354	47.86
210.572	29.35
210.79	97.01
211.007	38.95
211.225	125.35
211.442	144.6
211.66	173.86
211.878	181.65
212.095	121.73
212.313	112.14
212.53	70.78
212.748	50.23
212.966	57.95
213.183	46.8
213.401	54.79
213.618	51.22
213.836	37.11
214.053	-7.54
214.271	-22.64
214.488	-48.11
214.705	-72.45
214.923	-103.87
215.14	-165.41
215.358	-117.52
215.575	-77.11
215.793	-90.43
216.01	-71.66
216.227	-93.35
216.445	-24.18
216.662	-16.98
216.879	12
217.097	17.62
217.314	33.86
217.531	-5.59
217.749	9.04
217.966	15.7
218.183	16.87
218.4	13.79
218.618	5.1
218.835	6.06
219.052	-6.04
219.269	-23.79
219.487	-48.86
219.704	-38.29
219.921	12.11
220.138	12.75
220.355	-2.01
220.572	-1.83
220.79	-7.92
221.007	-0.99
221.224	-15.78
221.441	-5.25
221.658	-3.65
221.875	8.24
222.092	9.6
222.309	3.89
222.526	-2.4
222.743	-1.06
222.96	-1.86
223.177	2.99
223.394	12.04
223.611	19.49
223.828	19.05
224.045	19.96
224.262	20.39
224.479	20.24
224.696	22.49
224.913	19.49
225.13	18.49
225.347	18.74
225.564	20.43
225.781	13.86
225.997	12.8
226.214	14.12
226.431	8.71
226.648	7.02
226.865	4.91
227.082	2.75
227.298	0.31
227.515	1.46
227.732	-0.01
227.949	-1.35
228.165	0.29
228.382	-1.66
228.599	-2.15
228.816	-1.44
229.032	-2.09
229.249	-2.59
229.466	-2.47
229.682	-0.84
229.899	-0.82
230.116	0.65
230.332	1.17
230.549	1.1
230.765	2.19
230.982	1.85
231.199	1.85
231.415	2.73
231.632	3.34
231.848	2.32
232.065	2.71
232.281	1.96
232.498	0.23
232.714	0.23
232.931	-1.22
233.147	-0.77
233.364	1.16
233.58	2.62
233.797	3.97
234.013	2.99
234.23	4.1
234.446	3.71
234.662	2.91
234.879	1.5
235.095	2.05
235.312	1.65
235.528	1.39
235.744	-0.33
235.961	-0.33
236.177	-1.81
236.393	0.09
236.61	0.27
236.826	-1.19
237.042	-0.51
237.258	0.73
237.475	0.32
237.691	0.1
237.907	-1.76
238.123	-1.51
238.339	-2.6
238.556	-2.81
238.772	-3.75
238.988	-4.35
239.204	-2.43
239.42	-2.14
239.636	-2.62
239.853	-3.02
240.069	-2.17
240.285	0.09
240.501	0.81
240.717	0.72
240.933	0.99
241.149	1.06
241.365	1.03
241.581	1.62
241.797	1.5
242.013	1.44
242.229	1.63
242.445	1.56
242.661	0.56
242.877	0.27
243.093	0.84
243.309	0.45
243.525	0.73
243.741	1.19
243.957	0.79
244.173	0.57
244.388	0.87
244.604	0.43
244.82	0.65
245.036	1.39
245.252	1.32
245.468	1.04
245.683	1.59
245.899	1.32
246.115	1.44
246.331	1.71
246.547	1.83
246.762	1.99
246.978	1.86
247.194	2
247.409	2.33
247.625	2.25
247.841	2.13
248.057	2.2
248.272	2.02
248.488	1.7
248.703	0.92
248.919	0.94
249.135	0.1
249.35	-0.08
249.566	-0.82
249.782	-1.57
249.997	-1.21
250.213	-1.04
250.428	-2.14
250.644	-1.45
250.859	-1.39
251.075	-0.22
251.29	-0.33
251.506	0.73
251.721	1.06
251.937	1.66
252.152	1.97
252.368	1.46
252.583	1.4
252.798	2
253.014	1.47
253.229	2.17
253.445	0.91
253.66	1.02
253.875	0.38
254.091	0.06
254.306	-0.8
254.521	-2.46
254.737	-1.85
254.952	-2.29
255.167	-1.24
255.383	-1.38
255.598	-2.6
255.813	-1.23
256.028	-2.06
256.244	-1.06
256.459	-0.86
256.674	-0.05
256.889	1.11
257.104	0.78
257.32	0.12
257.535	-0.94
257.75	-0.94
257.965	-0.35
258.18	-0.3
258.395	1.05
258.61	1.36
258.826	1.3
259.041	1.12
259.256	1.35
259.471	1.23
259.686	1.49
259.901	1.58
260.116	2.2
260.331	2.18
260.546	2.11
260.761	1.54
260.976	1.28
261.191	1.37
261.406	1.3
261.621	0.92
261.836	0.9
262.05	1.26
262.265	0.84
262.48	0.16
262.695	0.06
262.91	0.39
263.125	0
263.34	0.48
263.555	0.74
263.769	0.76
263.984	0.6
264.199	0.87
264.414	0.89
264.629	1.17
264.843	1.1
265.058	1.31
265.273	1.29
265.488	2.35
265.702	1.7
265.917	1.54
266.132	2.33
266.346	2.17
266.561	1.99
266.776	1.42
266.99	1.43
267.205	1.03
267.42	0.81
267.634	0.52
267.849	-0.13
268.063	0.19
268.278	-0.07
268.492	-1.24
268.707	-0.85
268.922	-0.71
269.136	-0.58
269.351	-0.55
269.565	0.34
269.78	-0.21
269.994	0.15
270.209	0.38
270.423	0.13
270.637	0.09
270.852	0.92
271.066	0.82
271.281	0.77
271.495	0.81
271.709	0.88
271.924	0.76
272.138	1.08
272.353	0.92
272.567	0.85
272.781	0.94
272.996	1.18
273.21	0.85
273.424	1.07
273.638	0.99
273.853	0.73
274.067	1.15
274.281	0.75
274.495	0.77
274.71	0.66
274.924	0.79
275.138	0.45
275.352	0.67
275.566	0.51
275.781	-0.01
275.995	-0.19
276.209	0.1
276.423	-0.19
276.637	0.33
276.851	0.52
277.065	1.14
277.279	0.46
277.493	1.13
277.707	0.69
277.921	0.78
278.135	1.1
278.349	1.42
278.563	1.02
278.777	0.65
278.991	0.29
279.205	0.09
279.419	-0.52
279.633	-0.04
279.847	-0.34
280.061	0.05
280.275	0.5
280.489	0.58
280.703	0.13
280.917	0.36
281.131	0.76
281.344	1.22
281.558	1.42
281.772	1.68
281.986	1.75
282.2	1.98
282.414	1.66
282.627	1.64
282.841	1.48
283.055	1.82
283.269	1.63
283.482	1.04
283.696	0.59
283.91	0.39
284.123	0.33
284.337	0.37
284.551	0.22
284.764	0.57
284.978	0.5
285.192	0.76
285.405	0.74
285.619	0.98
285.833	1.29
286.046	1.17
286.26	1.2
286.473	1.18
286.687	1.27
286.9	0.96
287.114	0.88
287.327	0.89
287.541	0.54
287.754	0.41
287.968	0.07
288.181	-0.01
288.395	0.56
288.608	0.81
288.822	0.84
289.035	0.46
289.248	0.56
289.462	0.41
289.675	0.38
289.889	0.61
290.102	0.59
290.315	0.93
290.529	0.92
290.742	0.62
290.955	0.29
291.169	0.12
291.382	0.39
291.595	0.28
291.808	-0.11
292.022	-0.29
292.235	-0.31
292.448	-0.11
292.661	-0.31
292.875	-0.02
293.088	0.34
293.301	0.37
293.514	0.68
293.727	0.81
293.94	1.22
294.153	1.73
294.367	1.89
294.58	1.92
294.793	2.03
295.006	2.17
295.219	2.41
295.432	2.22
295.645	2.21
295.858	2.09
296.071	2
296.284	1.89
296.497	1.85
296.71	2.15
296.923	2.22
297.136	1.96
297.349	1.8
297.562	1.53
297.775	1.65
297.988	1.7
298.201	1.91
298.414	1.96
298.626	1.8
298.839	2.08
299.052	1.96
299.265	1.85
299.478	2.15
299.691	2.37
299.903	2.4
300.116	2.4
300.329	2.47
300.542	2.43
300.755	2.48
300.967	2.71
301.18	2.37
301.393	2.2
301.605	1.98
301.818	1.59
302.031	1.72
302.243	1.88
302.456	1.75
302.669	1.98
302.881	2.1
303.094	2.27
303.307	2.11
303.519	1.86
303.732	2.04
303.944	2.42
304.157	2.8
304.37	3.01
304.582	3.13
304.795	3.14
305.007	2.96
305.22	2.84
305.432	2.66
305.645	3
305.857	3.51
306.069	3.3
306.282	3.22
306.494	3.02
306.707	2.95
306.919	2.9
307.132	2.4
307.344	2.51
307.556	2.35
307.769	2.66
307.981	2.49
308.193	2.3
308.406	2.41
308.618	2.49
308.83	2.32
309.043	2.36
309.255	2.55
309.467	2.95
309.679	2.97
309.892	2.84
310.104	2.85
310.316	3.17
310.528	3.46
310.74	3.45
310.953	3.56
311.165	3.85
311.377	3.78
311.589	3.68
311.801	3.68
312.013	3.37
312.225	3.58
312.437	3.37
312.649	2.95
312.862	2.82
313.074	2.78
313.286	2.5
313.498	2.59
313.71	2.62
313.922	2.7
314.134	2.62
314.346	2.93
314.558	2.69
314.77	3.11
314.982	3.39
315.193	3.07
315.405	3.05
315.617	3.44
315.829	3.43
316.041	3.6
316.253	3.42
316.465	3.67
316.677	3.62
316.888	4.31
317.1	3.91
317.312	4.36
317.524	4.89
317.736	4.95
317.947	5.3
318.159	5.67
318.371	5.56
318.583	5.64
318.794	5.79
319.006	6.12
319.218	5.73
319.43	5.56
319.641	4.92
319.853	4.61
320.064	4.6
320.276	4.17
320.488	3.56
320.699	3.51
320.911	3.25
321.123	3.87
321.334	4.19
321.546	4.4
321.757	5.01
321.969	5.68
322.18	5.76
322.392	5.79
322.603	6.11
322.815	6.5
323.026	6.61
323.238	7.08
323.449	6.41
323.661	6.15
323.872	6.52
324.083	6.37
324.295	6.14
324.506	6.69
324.718	7.18
324.929	7.29
325.14	7.5
325.352	7.71
325.563	7.56
325.774	7.46
325.986	8.02
326.197	7.99
326.408	8.15
326.62	8.57
326.831	8.45
327.042	8.6
327.253	8.67
327.464	8.74
327.676	9.08
327.887	9.55
328.098	10.28
328.309	9.96
328.52	10.05
328.732	10.58
328.943	10.58
329.154	10.97
329.365	11.32
329.576	11.8
329.787	12.1
329.998	12.34
330.209	12.31
330.42	12.29
330.631	12.9
330.842	13.3
331.053	13.05
331.264	13.72
331.475	13.86
331.686	13.81
331.897	13.63
332.108	13.55
332.319	13.52
332.53	13.92
332.741	14.22
332.952	13.87
333.163	13.61
333.374	13.87
333.585	13.4
333.795	13.42
334.006	13.3
334.217	13.56
334.428	13.82
334.639	14.04
334.849	14.28
335.06	13.83
335.271	14.18
335.482	14.58
335.692	14.63
335.903	15.16
336.114	15.09
336.325	15.39
336.535	15.35
336.746	15.62
336.957	15.57
337.167	15.32
337.378	15.58
337.589	16.01
337.799	16.06
338.01	16.41
338.22	16.18
338.431	16.78
338.642	16.88
338.852	17.03
339.063	16.76
339.273	16.6
339.484	16.15
339.694	16.21
339.905	15.88
340.115	15.88
340.326	15.71
340.536	16
340.746	15.65
340.957	15.86
341.167	15.67
341.378	15.68
341.588	15.88
341.799	16.42
342.009	16.25
342.219	16.27
342.43	15.97
342.64	15.92
342.85	15.81
343.061	15.89
343.271	15.37
343.481	15.44
343.691	15.72
343.902	15.69
344.112	15.55
344.322	16
344.532	15.71
344.743	15.99
344.953	16
345.163	16.09
345.373	15.97
345.583	16.27
345.793	16.4
346.004	16.25
346.214	16.27
346.424	16.5
346.634	16.45
346.844	16.7
347.054	16.43
347.264	16.59
347.474	16.54
347.684	16.34
347.894	16.26
348.104	16.11
348.314	16.08
348.524	15.93
348.734	15.81
348.944	15.48
349.154	15.34
349.364	15.58
349.574	15.37
349.784	15.4
349.994	15.86
350.204	16.2
350.413	15.97
350.623	16.11
350.833	16.07
351.043	16.16
351.253	16.33
351.463	16.26
351.672	15.87
351.882	16.02
352.092	15.95
352.302	15.72
352.511	15.38
352.721	15.42
352.931	15.31
353.141	15.37
353.35	14.83
353.56	14.94
353.77	15.24
353.979	15.4
354.189	15.36
354.399	14.98
354.608	14.91
354.818	14.94
355.027	15.08
355.237	14.93
355.447	15.09
355.656	15.16
355.866	15.06
356.075	15.08
356.285	15.22
356.494	15.15
356.704	15.3
356.913	15.29
357.123	15.35
357.332	15.26
357.542	15.28
357.751	15.18
357.96	15.36
358.17	15.22
358.379	14.89
358.589	14.9
358.798	14.94
359.007	14.97
359.217	14.9
359.426	14.7
359.635	14.84
359.845	14.93
360.054	14.8
360.263	14.65
360.472	15.05
360.682	15.18
360.891	15.28
361.1	15.24
361.309	15.31
361.519	15.32
361.728	15.42
361.937	15.36
362.146	15.39
362.355	15.53
362.564	15.61
362.774	15.41
362.983	15.54
363.192	15.62
363.401	15.55
363.61	15.45
363.819	15.34
364.028	15.27
364.237	15.31
364.446	15.05
364.655	14.94
364.864	15.14
365.073	15.03
365.282	14.98
365.491	14.58
365.7	14.55
365.909	14.58
366.118	14.58
366.327	14.32
366.536	14.37
366.745	14.57
366.954	14.89
367.162	14.7
367.371	14.67
367.58	14.59
367.789	14.8
367.998	14.56
368.207	14.63
368.415	14.72
368.624	15.09
368.833	15.08
369.042	14.95
369.25	14.52
369.459	14.75
369.668	14.96
369.877	14.88
370.085	14.55
370.294	14.83
370.503	14.58
370.711	14.49
370.92	14.19
371.129	14.18
371.337	14.2
371.546	14.19
371.754	13.79
371.963	13.47
372.171	13.58
372.38	13.69
372.589	13.67
372.797	13.65
373.006	13.61
373.214	13.83
373.423	13.6
373.631	13.31
373.84	13.51
374.048	13.81
374.256	13.9
374.465	13.75
374.673	13.96
374.882	14.12
375.09	14.25
375.298	14.33
375.507	14.34
375.715	14.34
375.923	14.64
376.132	14.65
376.34	14.45
376.548	14.38
376.757	14.5
376.965	14.45
377.173	14.13
377.381	14.31
377.59	14.65
377.798	14.79
378.006	14.78
378.214	14.68
378.423	14.68
378.631	14.74
378.839	14.84
379.047	14.86
379.255	14.81
379.463	15.03
379.671	14.82
379.879	14.66
380.088	14.4
380.296	14.51
380.504	14.57
380.712	14.47
380.92	14.31
381.128	14.32
381.336	14.13
381.544	14.05
381.752	14.01
381.96	14.09
382.168	13.89
382.376	13.94
382.584	13.79
382.791	13.63
382.999	13.56
383.207	13.84
383.415	13.98
383.623	13.98
383.831	13.91
384.039	13.79
384.247	13.87
384.454	13.85
384.662	13.98
384.87	14.01
385.078	13.98
385.285	14.1
385.493	14.14
385.701	14.05
385.909	14.09
386.116	14.3
386.324	14.5
386.532	14.28
386.739	14.3
386.947	13.95
387.155	14.04
387.362	14.08
387.57	14.1
387.778	14.08
387.985	13.99
388.193	14.04
388.4	13.74
388.608	13.62
388.816	13.63
389.023	13.56
389.231	13.71
389.438	13.73
389.646	13.73
389.853	13.47
390.061	13.12
390.268	13.24
390.475	13.23
390.683	13.37
390.89	13.28
391.098	13.3
391.305	13.44
391.512	13.57
391.72	13.51
391.927	13.66
392.135	13.86
392.342	13.92
392.549	13.93
392.756	14.04
392.964	14
393.171	14.06
393.378	14.15
393.586	14.21
393.793	14.17
394	14.04
394.207	14
394.414	14.04
394.622	14.09
394.829	14
395.036	13.75
395.243	13.67
395.45	13.8
395.657	13.72
395.864	13.53
396.072	13.52
396.279	13.64
396.486	13.54
396.693	13.44
396.9	13.45
397.107	13.54
397.314	13.46
397.521	13.51
397.728	13.45
397.935	13.43
398.142	13.5
398.349	13.51
398.556	13.56
398.763	13.67
398.97	13.67
399.177	13.8
399.383	13.73
399.59	13.83
399.797	14.04
400.004	14.04
400.211	14.02
400.418	14
400.625	14.08
400.831	14.21
401.038	14.19
401.245	13.96
401.452	13.96
401.658	13.95
401.865	14.15
402.072	14.14
402.279	14.12
402.485	14.16
402.692	14.14
402.899	13.97
403.105	13.96
403.312	14
403.519	14.33
403.725	14.23
403.932	14.46
404.138	14.33
404.345	14.23
404.552	14.41
404.758	14.42
404.965	14.3
405.171	14.48
405.378	14.3
405.584	14.43
405.791	14.3
405.997	14.44
406.204	14.26
406.41	14.49
406.617	14.53
406.823	14.38
407.029	14.57
407.236	14.7
407.442	14.63
407.649	14.73
407.855	14.64
408.061	14.73
408.268	14.76
408.474	14.81
408.68	14.67
408.887	14.69
409.093	14.72
409.299	14.55
409.505	14.65
409.712	14.65
409.918	14.53
410.124	14.54
410.33	14.5
410.537	14.37
410.743	14.38
410.949	14.26
411.155	14.31
411.361	14.34
411.567	14.28
411.773	14.41
411.98	14.33
412.186	14.54
412.392	14.59
412.598	14.59
412.804	14.67
413.01	14.49
413.216	14.67
413.422	14.62
413.628	14.61
413.834	14.65
414.04	14.65
414.246	14.67
414.452	14.71
414.658	14.71
414.864	14.82
415.07	14.75
415.275	14.89
415.481	14.82
415.687	14.95
415.893	15
416.099	15.08
416.305	15.11
416.511	15.2
416.716	15.24
416.922	15.22
417.128	15.14
417.334	15.27
417.539	15.35
417.745	15.45
417.951	15.46
418.157	15.48
418.362	15.45
418.568	15.4
418.774	15.48
418.979	15.44
419.185	15.38
419.391	15.44
419.596	15.44
419.802	15.4
420.008	15.44
420.213	15.5
420.419	15.55
420.624	15.62
420.83	15.6
421.035	15.53
421.241	15.57
421.446	15.66
421.652	15.73
421.857	15.73
422.063	15.81
422.268	15.8
422.474	15.74
422.679	15.69
422.885	15.71
423.09	15.77
423.295	15.87
423.501	15.83
423.706	15.9
423.911	15.88
424.117	15.95
424.322	16
424.527	16
424.733	16
424.938	15.99
425.143	15.92
425.349	15.93
425.554	15.91
425.759	16.05
425.964	16
426.169	15.99
426.375	15.88
426.58	15.81
426.785	15.75
426.99	15.69
427.195	15.76
427.4	15.77
427.605	15.66
427.811	15.62
428.016	15.42
428.221	15.36
428.426	15.35
428.631	15.43
428.836	15.34
429.041	15.33
429.246	15.51
429.451	15.56
429.656	15.71
429.861	15.73
430.066	15.7
430.271	15.75
430.476	15.82
430.681	15.88
430.886	15.96
431.09	16.02
431.295	16.11
431.5	16.11
431.705	16.11
431.91	16.02
432.115	16.18
432.32	16.35
432.524	16.35
432.729	16.36
432.934	16.44
433.139	16.44
433.343	16.44
433.548	16.52
433.753	16.48
433.958	16.5
434.162	16.56
434.367	16.55
434.572	16.48
434.776	16.47
434.981	16.51
435.186	16.51
435.39	16.57
435.595	16.62
435.799	16.6
436.004	16.59
436.209	16.59
436.413	16.54
436.618	16.63
436.822	16.6
437.027	16.64
437.231	16.63
437.436	16.59
437.64	16.55
437.845	16.64
438.049	16.61
438.253	16.72
438.458	16.67
438.662	16.76
438.867	16.77
439.071	16.83
439.275	16.92
439.48	16.98
439.684	16.9
439.888	16.85
440.093	16.88
440.297	16.89
440.501	16.86
440.706	16.89
440.91	16.93
441.114	16.91
441.318	16.89
441.523	16.86
441.727	16.86
441.931	16.96
442.135	17.07
442.339	16.97
442.543	16.99
442.748	17.06
442.952	17
443.156	16.94
443.36	16.87
443.564	16.92
443.768	16.86
443.972	16.86
444.176	16.84
444.38	16.79
444.584	16.82
444.788	16.82
444.992	16.75
445.196	16.92
445.4	16.96
445.604	17.02
445.808	17.04
446.012	17.08
446.216	17.01
446.42	17.01
446.624	17.07
446.828	17.12
447.032	17.13
447.235	17.14
447.439	17.06
447.643	17.03
447.847	17.04
448.051	16.99
448.254	16.95
448.458	16.93
448.662	16.95
448.866	16.94
449.069	16.91
449.273	16.94
449.477	16.95
449.681	17.01
449.884	16.98
450.088	16.9
450.292	16.96
450.495	17
450.699	16.98
450.902	16.95
451.106	16.83
451.31	16.84
451.513	16.82
451.717	16.82
451.92	16.8
452.124	16.86
452.327	16.91
452.531	16.83
452.734	16.94
452.938	17.02
453.141	17.12
453.345	17.21
453.548	17.13
453.752	17.05
453.955	17.01
454.158	16.94
454.362	16.84
454.565	16.82
454.769	16.79
454.972	16.68
455.175	16.65
455.379	16.58
455.582	16.63
455.785	16.6
455.988	16.72
456.192	16.73
456.395	16.78
456.598	16.85
456.801	16.86
457.005	16.95
457.208	17.08
457.411	17.15
457.614	17.17
457.817	17.19
458.021	17.23
458.224	17.22
458.427	17.33
458.63	17.37
458.833	17.42
459.036	17.43
459.239	17.45
459.442	17.4
459.645	17.36
459.848	17.36
460.051	17.27
460.254	17.3
460.457	17.25
460.66	17.15
460.863	17.13
461.066	17.06
461.269	17.01
461.472	16.95
461.675	16.91
461.878	16.95
462.081	16.92
462.284	16.94
462.486	16.9
462.689	17.01
462.892	17.09
463.095	17.15
463.298	17.19
463.5	17.31
463.703	17.34
463.906	17.36
464.109	17.24
464.311	17.16
464.514	17.21
464.717	17.29
464.92	17.27
465.122	17.27
465.325	17.25
465.528	17.19
465.73	17.12
465.933	17.08
466.135	17.14
466.338	17.18
466.541	17.39
466.743	17.32
466.946	17.33
467.148	17.23
467.351	17.18
467.553	17.07
467.756	17.16
467.958	17.12
468.161	17.17
468.363	17.12
468.566	17.24
468.768	17.09
468.971	17.2
469.173	17.16
469.375	17.32
469.578	17.36
469.78	17.51
469.983	17.57
470.185	17.54
470.387	17.47
470.59	17.64
470.792	17.58
470.994	17.68
471.196	17.57
471.399	17.56
471.601	17.47
471.803	17.46
472.005	17.41
472.208	17.3
472.41	17.35
472.612	17.41
472.814	17.32
473.016	17.4
473.218	17.38
473.421	17.36
473.623	17.42
473.825	17.5
474.027	17.49
474.229	17.52
474.431	17.55
474.633	17.65
474.835	17.65
475.037	17.68
475.239	17.7
475.441	17.75
475.643	17.82
475.845	17.79
476.047	17.85
476.249	17.9
476.451	17.93
476.653	17.96
476.855	17.89
477.057	17.99
477.258	18.01
477.46	17.95
477.662	17.96
477.864	17.93
478.066	17.91
478.268	17.76
478.469	17.75
478.671	17.72
478.873	17.75
479.075	17.87
479.276	17.87
479.478	17.88
479.68	17.86
479.882	17.82
480.083	17.94
480.285	17.96
480.487	18.04
480.688	18.06
480.89	18.05
481.091	18.09
481.293	18.03
481.495	17.99
481.696	17.97
481.898	17.97
482.099	17.91
482.301	17.81
482.502	17.77
482.704	17.73
482.905	17.7
483.107	17.68
483.308	17.64
483.51	17.61
483.711	17.59
483.913	17.56
484.114	17.57
484.315	17.59
484.517	17.61
484.718	17.6
484.92	17.6
485.121	17.6
485.322	17.58
485.524	17.59
485.725	17.6
485.926	17.64
486.127	17.63
486.329	17.62
486.53	17.63
486.731	17.66
486.932	17.74
487.134	17.73
487.335	17.75
487.536	17.79
487.737	17.81
487.938	17.8
488.139	17.79
488.341	17.81
488.542	17.82
488.743	17.81
488.944	17.82
489.145	17.77
489.346	17.81
489.547	17.8
489.748	17.83
489.949	17.85
490.15	17.81
490.351	17.79
490.552	17.84
490.753	17.84
490.954	17.82
491.155	17.82
491.356	17.82
491.557	17.81
491.758	17.87
491.959	17.88
492.159	17.92
492.36	18.03
492.561	18.06
492.762	18.03
492.963	18.03
493.164	18.06
493.364	18.08
493.565	18.07
493.766	18.07
493.967	18.01
494.167	17.93
494.368	17.91
494.569	17.84
494.769	17.88
494.97	17.94
495.171	17.97
495.371	18.08
495.572	18.13
495.773	18.13
495.973	18.13
496.174	18.2
496.375	18.21
496.575	18.17
496.776	18.24
496.976	18.26
497.177	18.3
497.377	18.38
497.578	18.4
497.778	18.35
497.979	18.46
498.179	18.55
498.38	18.53
498.58	18.62
498.78	18.66
498.981	18.65
499.181	18.66
499.382	18.61
499.582	18.65
499.782	18.52
499.983	18.6
500.183	18.55
500.383	18.53
500.584	18.58
500.784	18.62
500.984	18.7
501.184	18.71
501.385	18.7
501.585	18.88
501.785	18.74
501.985	18.91
502.185	18.93
502.386	18.96
502.586	19.04
502.786	19.03
502.986	18.99
503.186	18.97
503.386	19.02
503.586	19.08
503.786	18.94
503.987	19.07
504.187	19.16
504.387	19.17
504.587	19.33
504.787	19.34
504.987	19.32
505.187	19.45
505.387	19.44
505.587	19.48
505.786	19.61
505.986	19.76
506.186	19.79
506.386	19.77
506.586	19.64
506.786	19.51
506.986	19.54
507.186	19.65
507.386	19.63
507.585	19.67
507.785	19.69
507.985	19.67
508.185	19.69
508.384	19.74
508.584	19.77
508.784	19.92
508.984	20.01
509.183	20.05
509.383	20.13
509.583	20.18
509.782	20.23
509.982	20.25
510.182	20.21
510.381	20.27
510.581	20.25
510.781	20.2
510.98	20.2
511.18	20.24
511.379	20.29
511.579	20.31
511.778	20.35
511.978	20.36
512.177	20.46
512.377	20.51
512.576	20.51
512.776	20.57
512.975	20.68
513.175	20.86
513.374	20.97
513.573	21.01
513.773	21.02
513.972	21.04
514.172	21.15
514.371	21.17
514.57	21.25
514.77	21.26
514.969	21.32
515.168	21.26
515.367	21.16
515.567	21.13
515.766	21.1
515.965	21.07
516.164	21.09
516.364	21.06
516.563	21.17
516.762	21.17
516.961	21.23
517.16	21.4
517.359	21.56
517.559	21.63
517.758	21.66
517.957	21.76
518.156	21.87
518.355	21.95
518.554	21.98
518.753	21.96
518.952	22.07
519.151	22.06
519.35	21.95
519.549	22
519.748	22.04
519.947	22.14
520.146	22.14
520.345	22.16
520.544	22.13
520.743	22.21
520.942	22.25
521.141	22.25
521.339	22.31
521.538	22.47
521.737	22.52
521.936	22.51
522.135	22.52
522.333	22.58
522.532	22.64
522.731	22.75
522.93	22.74
523.129	22.81
523.327	22.85
523.526	22.94
523.725	22.91
523.923	22.92
524.122	23.11
524.321	23.08
524.519	23.09
524.718	23.12
524.917	23.15
525.115	23.24
525.314	23.21
525.512	23.26
525.711	23.21
525.909	23.23
526.108	23.19
526.306	23.16
526.505	23.24
526.703	23.27
526.902	23.28
527.1	23.31
527.299	23.32
527.497	23.35
527.696	23.36
527.894	23.37
528.092	23.38
528.291	23.44
528.489	23.4
528.688	23.42
528.886	23.44
529.084	23.44
529.283	23.45
529.481	23.45
529.679	23.48
529.877	23.52
530.076	23.58
530.274	23.61
530.472	23.59
530.67	23.66
530.869	23.63
531.067	23.7
531.265	23.75
531.463	23.78
531.661	23.83
531.859	23.86
532.057	23.86
532.255	23.9
532.454	23.97
532.652	24.03
532.85	24.03
533.048	24.07
533.246	24.04
533.444	24.04
533.642	24.06
533.84	24.11
534.038	24.12
534.236	24.17
534.434	24.16
534.632	24.12
534.83	24.06
535.027	24.13
535.225	24.13
535.423	24.16
535.621	24.19
535.819	24.25
536.017	24.31
536.215	24.34
536.412	24.36
536.61	24.47
536.808	24.45
537.006	24.53
537.203	24.58
537.401	24.67
537.599	24.71
537.797	24.75
537.994	24.72
538.192	24.6
538.39	24.61
538.587	24.62
538.785	24.64
538.983	24.75
539.18	24.76
539.378	24.72
539.575	24.7
539.773	24.66
539.97	24.7
540.168	24.73
540.366	24.79
540.563	24.7
540.761	24.69
540.958	24.62
541.155	24.6
541.353	24.57
541.55	24.57
541.748	24.56
541.945	24.63
542.143	24.63
542.34	24.63
542.537	24.66
542.735	24.75
542.932	24.74
543.129	24.78
543.327	24.81
543.524	24.87
543.721	24.96
543.919	25.02
544.116	25.01
544.313	25.03
544.51	25.12
544.708	25.11
544.905	25.11
545.102	25.12
545.299	25.16
545.496	25.22
545.693	25.23
545.891	25.2
546.088	25.21
546.285	25.23
546.482	25.23
546.679	25.21
546.876	25.16
547.073	25.19
547.27	25.15
547.467	25.13
547.664	25.12
547.861	25.19
548.058	25.14
548.255	25.13
548.452	25.11
548.649	25.17
548.846	25.18
549.043	25.31
549.24	25.31
549.437	25.46
549.633	25.52
549.83	25.5
550.027	25.43
550.224	25.59
550.421	25.67
550.618	25.75
550.814	25.75
551.011	25.76
551.208	25.81
551.405	25.81
551.601	25.78
551.798	25.64
551.995	25.63
552.191	25.65
552.388	25.62
552.585	25.55
552.781	25.56
552.978	25.53
553.175	25.46
553.371	25.45
553.568	25.5
553.764	25.57
553.961	25.69
554.157	25.63
554.354	25.65
554.55	25.63
554.747	25.76
554.943	25.74
555.14	25.74
555.336	25.84
555.533	25.82
555.729	25.84
555.926	25.86
556.122	25.92
556.318	25.98
556.515	26.09
556.711	26.16
556.907	26.04
557.104	26.06
557.3	26.05
557.496	25.99
557.693	25.91
557.889	25.82
558.085	25.74
558.281	25.75
558.478	25.87
558.674	25.86
558.87	25.78
559.066	25.84
559.262	25.77
559.459	25.8
559.655	25.95
559.851	26.06
560.047	26.03
560.243	26.08
560.439	26.07
560.635	26.1
560.831	26.06
561.027	26.09
561.223	26
561.419	25.95
561.615	26.04
561.811	26.07
562.007	25.94
562.203	26.08
562.399	26.03
562.595	26.01
562.791	25.97
562.987	26.02
563.183	25.98
563.379	26
563.575	26.01
563.771	25.89
563.966	25.83
564.162	26.13
564.358	26.1
564.554	26.2
564.75	26.36
564.945	26.25
565.141	26.09
565.337	26.07
565.533	26.17
565.728	26.23
565.924	26.26
566.12	26.14
566.315	25.93
566.511	25.99
566.707	25.92
566.902	25.75
567.098	25.75
567.293	25.82
567.489	25.87
567.684	25.8
567.88	25.73
568.076	25.69
568.271	25.76
568.467	25.77
568.662	25.7
568.858	25.67
569.053	25.77
569.248	25.94
569.444	25.87
569.639	25.85
569.835	25.77
570.03	25.74
570.225	25.74
570.421	25.68
570.616	25.73
570.812	25.77
571.007	25.65
571.202	25.63
571.397	25.5
571.593	25.63
571.788	25.58
571.983	25.66
572.178	25.76
572.374	25.79
572.569	25.78
572.764	25.71
572.959	25.63
573.154	25.72
573.35	25.65
573.545	25.71
573.74	25.66
573.935	25.74
574.13	25.69
574.325	25.63
574.52	25.62
574.715	25.65
574.91	25.76
575.105	25.81
575.3	25.77
575.495	25.82
575.69	25.87
575.885	25.85
576.08	25.81
576.275	25.83
576.47	25.82
576.665	25.78
576.86	25.76
577.055	25.74
577.25	25.79
577.444	25.88
577.639	25.86
577.834	25.84
578.029	25.93
578.224	25.95
578.418	26
578.613	26.15
578.808	26.23
579.003	26.21
579.197	26.18
579.392	26.21
579.587	26.3
579.781	26.35
579.976	26.34
580.171	26.4
580.365	26.33
580.56	26.38
580.755	26.41
580.949	26.45
581.144	26.63
581.338	26.59
581.533	26.63
581.727	26.56
581.922	26.46
582.116	26.46
582.311	26.39
582.505	26.51
582.7	26.4
582.894	26.3
583.089	26.23
583.283	26.12
583.478	26.16
583.672	26.13
583.866	26.21
584.061	26.35
584.255	26.44
584.449	26.45
584.644	26.42
584.838	26.5
585.032	26.66
585.226	26.65
585.421	26.77
585.615	26.99
585.809	27.01
586.003	26.95
586.198	27
586.392	26.98
586.586	26.93
586.78	26.95
586.974	27.05
587.168	26.99
587.363	26.84
587.557	26.77
587.751	26.6
587.945	26.5
588.139	26.53
588.333	26.33
588.527	26.32
588.721	26.25
588.915	26.3
589.109	26.11
589.303	26.09
589.497	26.22
589.691	26.15
589.885	26.14
590.079	26.03
590.273	25.92
590.466	26.11
590.66	26.18
590.854	26.29
591.048	26.29
591.242	26.42
591.436	26.32
591.629	26.42
591.823	26.47
592.017	26.5
592.211	26.67
592.404	26.73
592.598	26.76
592.792	26.55
592.986	26.51
593.179	26.62
593.373	26.47
593.567	26.51
593.76	26.49
593.954	26.44
594.147	26.43
594.341	26.34
594.535	26.32
594.728	26.37
594.922	26.53
595.115	26.68
595.309	26.57
595.502	26.63
595.696	26.63
595.889	26.54
596.083	26.59
596.276	26.48
596.47	26.55
596.663	26.54
596.856	26.42
597.05	26.37
597.243	26.34
597.437	26.45
597.63	26.46
597.823	26.51
598.017	26.6
598.21	26.65
598.403	26.67
598.596	26.65
598.79	26.68
598.983	26.7
599.176	26.64
599.369	26.59
599.563	26.46
599.756	26.49
599.949	26.59
600.142	26.68
600.335	26.68
600.528	26.8
600.722	27.04
600.915	27.12
601.108	27.15
601.301	27.32
601.494	27.23
601.687	27.18
601.88	27.2
602.073	27.01
602.266	26.9
602.459	26.84
602.652	26.88
602.845	26.68
603.038	26.65
603.231	26.49
603.424	26.49
603.617	26.6
603.809	26.61
604.002	26.58
604.195	26.63
604.388	26.74
604.581	26.87
604.774	26.78
604.966	26.77
605.159	26.81
605.352	26.93
605.545	26.91
605.737	26.91
605.93	26.91
606.123	26.98
606.316	27.05
606.508	26.99
606.701	26.9
606.894	27.07
607.086	27.12
607.279	27.05
607.471	27.08
607.664	27.1
607.857	27.08
608.049	27.17
608.242	27.09
608.434	27.22
608.627	27.26
608.819	27.3
609.012	27.08
609.204	27.06
609.397	27.19
609.589	27.26
609.782	27.18
609.974	27.22
610.166	27.19
610.359	27.25
610.551	27.11
610.743	27.16
610.936	27.18
611.128	27.21
611.32	27.33
611.513	27.31
611.705	27.27
611.897	27.39
612.09	27.48
612.282	27.5
612.474	27.74
612.666	27.89
612.858	27.9
613.051	27.99
613.243	28.03
613.435	28.01
613.627	27.99
613.819	27.95
614.011	27.98
614.203	27.69
614.395	27.81
614.588	27.64
614.78	27.56
614.972	27.63
615.164	27.48
615.356	27.57
615.548	27.65
615.74	27.76
615.932	27.77
616.124	27.63
616.315	27.93
616.507	28.02
616.699	28.02
616.891	27.96
617.083	27.73
617.275	27.84
617.467	28.06
617.659	27.88
617.85	27.74
618.042	27.92
618.234	27.98
618.426	27.83
618.618	27.69
618.809	27.52
619.001	27.6
619.193	27.75
619.384	27.91
619.576	27.84
619.768	27.87
619.959	28.04
620.151	28.02
620.343	28.07
620.534	27.83
620.726	27.9
620.917	27.97
621.109	27.97
621.301	27.87
621.492	27.61
621.684	27.66
621.875	27.63
622.067	27.66
622.258	27.55
622.45	27.66
622.641	28.1
622.832	28.05
623.024	28.11
623.215	28.21
623.407	28.28
623.598	28.51
623.789	28.45
623.981	28.42
624.172	28.3
624.363	28.31
624.555	28.26
624.746	28.15
624.937	28.13
625.129	28.1
625.32	27.97
625.511	27.91
625.702	27.63
625.893	27.59
626.085	27.7
626.276	27.63
626.467	27.47
626.658	27.33
626.849	27.36
627.04	27.25
627.231	27.24
627.422	27.25
627.614	27.23
627.805	27.3
627.996	27.24
628.187	27.09
628.378	27.22
628.569	27.41
628.76	27.55
628.951	27.5
629.142	27.73
629.332	27.86
629.523	27.78
629.714	27.7
629.905	27.83
630.096	27.91
630.287	28.17
630.478	28.03
630.669	28.08
630.859	28.04
631.05	28
631.241	27.9
631.432	27.82
631.623	28.04
631.813	28.2
632.004	28.16
632.195	28.15
632.385	28.06
632.576	28.11
632.767	28.01
632.957	28.24
633.148	28.34
633.339	28.34
633.529	28.35
633.72	28.32
633.91	28.38
634.101	28.39
634.292	28.47
634.482	28.48
634.673	28.61
634.863	28.61
635.054	28.23
635.244	28.09
635.435	28.14
635.625	28.13
635.815	28.08
636.006	28.12
636.196	28.13
636.387	28.17
636.577	28.1
636.767	28.07
636.958	28.2
637.148	28.47
637.338	28.56
637.529	28.49
637.719	28.39
637.909	28.35
638.099	28.43
638.29	28.43
638.48	28.35
638.67	28.29
638.86	28.43
639.05	28.48
639.241	28.36
639.431	28.54
639.621	28.61
639.811	28.77
640.001	28.97
640.191	28.87
640.381	29.17
640.571	29.3
640.761	29.52
640.951	29.13
641.141	29.15
641.331	29.12
641.521	28.9
641.711	29.06
641.901	29.12
642.091	29.02
642.281	29.09
642.471	28.84
642.661	28.77
642.851	28.85
643.041	29.15
643.231	29.09
643.42	29.43
643.61	29.53
643.8	29.43
643.99	29.44
644.18	29.47
644.369	29.44
644.559	29.6
644.749	29.78
644.939	29.86
645.128	29.93
645.318	29.91
645.508	29.74
645.697	29.78
645.887	29.71
646.076	29.81
646.266	29.93
646.456	29.89
646.645	29.65
646.835	29.37
647.024	29.34
647.214	29.2
647.403	29.18
647.593	29.04
647.782	29.05
647.972	28.92
648.161	28.87
648.351	28.72
648.54	28.94
648.73	28.99
648.919	28.99
649.108	28.94
649.298	28.98
649.487	28.93
649.677	29.17
649.866	29.19
650.055	29.48
650.244	29.55
650.434	29.59
650.623	29.55
650.812	29.62
651.002	29.77
651.191	29.77
651.38	29.98
651.569	30.08
651.758	30.02
651.947	29.97
652.137	29.89
652.326	29.74
652.515	29.78
652.704	29.5
652.893	29.48
653.082	29.25
653.271	29.19
653.46	28.89
653.649	28.94
653.838	28.8
654.027	29.01
654.216	28.97
654.405	29.32
654.594	29.36
654.783	29.51
654.972	29.59
655.161	29.84
655.35	29.69
655.539	29.64
655.728	29.55
655.916	29.79
656.105	29.61
656.294	29.62
656.483	29.36
656.672	29.37
656.86	29.3
657.049	29.4
657.238	29.29
657.427	29.52
657.615	29.69
657.804	29.7
657.993	29.54
658.181	29.69
658.37	29.69
658.559	29.46
658.747	29.38
658.936	29.44
659.125	29.33
659.313	29.39
659.502	29.43
659.69	29.52
659.879	29.66
660.067	29.69
660.256	29.64
660.444	29.91
660.633	29.98
660.821	30.01
661.01	30.07
661.198	30.18
661.387	30.47
661.575	30.32
661.763	30.26
661.952	30.21
662.14	30.42
662.328	30.36
662.517	30.32
662.705	30.48
662.893	30.47
663.082	30.48
663.27	30.66
663.458	30.55
663.646	30.71
663.834	30.76
664.023	30.95
664.211	30.73
664.399	31
664.587	30.95
664.775	30.99
664.963	31.08
665.152	31.16
665.34	30.88
665.528	30.82
665.716	30.82
665.904	30.83
666.092	30.81
666.28	31.07
666.468	30.77
666.656	30.77
666.844	31.13
667.032	31.35
667.22	31.43
667.408	31.63
667.596	31.61
667.784	31.63
667.971	31.73
668.159	31.54
668.347	31.41
668.535	31.5
668.723	31.65
668.911	31.3
669.098	31.3
669.286	31.21
669.474	31.12
669.662	31.09
669.849	31.24
670.037	31.28
670.225	31.39
670.413	31.44
670.6	31.6
670.788	31.29
670.976	31.46
671.163	31.32
671.351	31.49
671.538	31.5
671.726	31.81
671.913	31.68
672.101	31.36
672.289	31.42
672.476	31.41
672.664	31.45
672.851	31.85
673.039	32.04
673.226	32.07
673.413	31.7
673.601	31.73
673.788	31.35
673.976	31.39
674.163	31.73
674.35	31.63
674.538	31.57
674.725	31.62
674.912	31.27
675.1	31.16
675.287	31.34
675.474	31.77
675.662	32.02
675.849	31.99
676.036	31.85
676.223	31.91
676.411	31.97
676.598	31.85
676.785	31.77
676.972	31.88
677.159	31.76
677.346	31.44
677.533	31.23
677.721	30.83
677.908	30.99
678.095	30.96
678.282	30.76
678.469	30.68
678.656	30.83
678.843	30.7
679.03	30.66
679.217	30.64
679.404	30.86
679.591	30.76
679.778	30.93
679.964	30.99
680.151	31.06
680.338	31.21
680.525	31.22
680.712	31.39
680.899	31.52
681.086	31.78
681.272	31.88
681.459	31.62
681.646	31.89
681.833	31.76
682.02	31.87
682.206	31.74
682.393	31.65
682.58	31.93
682.766	31.93
682.953	31.89
683.14	31.63
683.326	31.63
683.513	32.06
683.7	31.78
683.886	32.24
684.073	32.15
684.259	32.4
684.446	32.5
684.632	32.26
684.819	32.31
685.005	32.04
685.192	32.11
685.378	31.93
685.565	31.74
685.751	31.83
685.938	31.4
686.124	31.33
686.31	31.7
686.497	31.26
686.683	31.23
686.87	30.89
687.056	31.07
687.242	30.93
687.429	30.93
687.615	30.92
687.801	30.84
687.987	30.98
688.174	30.93
688.36	30.63
688.546	31.34
688.732	31.62
688.918	31.7
689.105	32.13
689.291	32.18
689.477	32.48
689.663	32.44
689.849	32.75
690.035	32.73
690.221	33.1
690.407	32.88
690.593	32.68
690.779	32.61
690.965	32.71
691.151	32.21
691.337	32.32
691.523	32.12
691.709	32.27
691.895	32.07
692.081	31.97
692.267	31.69
692.453	32.41
692.639	32.47
692.825	32.44
693.011	32.52
693.196	32.88
693.382	33.02
693.568	33.12
693.754	33.51
693.94	33.62
694.125	33.95
694.311	34.35
694.497	33.67
694.682	33.56
694.868	33.7
695.054	33.82
695.239	33.79
695.425	33.64
695.611	33.7
695.796	33.48
695.982	33.36
696.168	33.27
696.353	32.84
696.539	33.18
696.724	32.98
696.91	32.87
697.095	32.57
697.281	32.35
697.466	32.24
697.652	32.23
697.837	32.04
698.023	32.01
698.208	31.71
698.393	31.71
698.579	31.42
698.764	31.39
698.949	31.01
699.135	31.25
699.32	31.34
699.505	31.28
699.691	30.98
699.876	31.01
700.061	31.2
700.246	31.56
700.432	31.86
700.617	32.11
700.802	32.24
700.987	32.76
701.172	32.95
701.358	33.15
701.543	33.6
701.728	33.77
701.913	34.02
702.098	34.25
702.283	34.28
702.468	34.28
702.653	34.33
702.838	34.45
703.023	34.52
703.208	34.38
703.393	34.29
703.578	34.51
703.763	35.32
703.948	35.63
704.133	35.77
704.318	35.78
704.503	35.7
704.688	35.67
704.873	35.81
705.057	36.12
705.242	36.2
705.427	36.7
705.612	36.16
705.797	35.88
705.981	35.6
706.166	35.1
706.351	35.3
706.536	35.42
706.72	35.47
706.905	35.42
707.09	35.34
707.274	35.17
707.459	35.04
707.644	35.39
707.828	35.48
708.013	35.39
708.197	35.59
708.382	35.1
708.567	35.02
708.751	35.27
708.936	35.13
709.12	34.9
709.305	35.17
709.489	35.1
709.673	34.93
709.858	34.75
710.042	34.37
710.227	34.54
710.411	34.82
710.596	34.79
710.78	34.65
710.964	34.88
711.149	34.72
711.333	34.56
711.517	34.69
711.702	34.71
711.886	34.83
712.07	35.4
712.254	35.4
712.438	35.38
712.623	35.46
712.807	35.2
712.991	35.29
713.175	35.53
713.359	35.43
713.544	35.26
713.728	35.38
713.912	35.2
714.096	34.92
714.28	34.77
714.464	34.59
714.648	34.35
714.832	34.63
715.016	34.28
715.2	34.21
715.384	34.15
715.568	33.57
715.752	33.33
715.936	33.12
716.12	32.96
716.304	32.53
716.488	32.46
716.671	32.2
716.855	31.85
717.039	31.92
717.223	31.76
717.407	31.67
717.59	32.08
717.774	32.31
717.958	32.37
718.142	32.47
718.325	33.02
718.509	33.12
718.693	33.58
718.877	33.71
719.06	33.84
719.244	34.08
719.428	34.29
719.611	34.42
719.795	34.37
719.978	35.06
720.162	35.54
720.345	35.58
720.529	35.48
720.713	35.62
720.896	35.97
721.08	36.15
721.263	36.47
721.446	36.46
721.63	36.37
721.813	36.23
721.997	35.81
722.18	35.55
722.364	35.18
722.547	35.34
722.73	35.1
722.914	34.68
723.097	34.61
723.28	34.35
723.464	34.48
723.647	34.72
723.83	34.54
724.013	34.47
724.197	34.68
724.38	34.79
724.563	35
724.746	35.35
724.929	35.89
725.112	35.9
725.296	35.86
725.479	35.22
725.662	35
725.845	35.33
726.028	35.23
726.211	34.38
726.394	34.38
726.577	34.11
726.76	33.57
726.943	33.09
727.126	32.5
727.309	32.43
727.492	32.89
727.675	32.46
727.858	32.4
728.041	32.2
728.224	33.05
728.407	33.16
728.589	33.63
728.772	33.76
728.955	33.83
729.138	33.72
729.321	33.22
729.503	33.32
729.686	33.26
729.869	33.14
730.052	33.29
730.234	32.53
730.417	32.49
730.6	31.96
730.782	31.54
730.965	31.49
731.148	32.36
731.33	32.63
731.513	32.23
731.695	33.03
731.878	32.75
732.061	32.91
732.243	33.17
732.426	32.71
732.608	32.91
732.791	33.79
732.973	33.76
733.156	33.49
733.338	33.69
733.52	34.17
733.703	33.6
733.885	34.29
734.068	34.28
734.25	34.39
734.432	34.98
734.615	34.88
734.797	34.65
734.979	35.02
735.162	34.68
735.344	34.54
735.526	34.54
735.708	34.94
735.891	34.62
736.073	34.67
736.255	35.62
736.437	35.76
736.619	36.58
736.802	37.09
736.984	36.87
737.166	37.57
737.348	37.88
737.53	37.58
737.712	37.9
737.894	37.96
738.076	38.07
738.258	37.76
738.44	37.58
738.622	37.38
738.804	37.26
738.986	37.9
739.168	37.98
739.35	37.56
739.532	37.37
739.714	36.63
739.896	36.99
740.078	37.5
740.259	37.35
740.441	37.27
740.623	37.24
740.805	36.88
740.987	36.36
741.168	35.89
741.35	36.7
741.532	37.39
741.714	38.24
741.895	38.2
742.077	37.82
742.259	37.99
742.44	38.48
742.622	38.38
742.804	38.26
742.985	38.59
743.167	38.71
743.348	38.75
743.53	39.01
743.711	38.24
743.893	38.44
744.075	38.28
744.256	38.5
744.438	38.77
744.619	39.22
744.8	39.21
744.982	38.82
745.163	39.24
745.345	38.86
745.526	38.21
745.707	38.99
745.889	38.77
746.07	39.18
746.252	38.86
746.433	38.21
746.614	37.78
746.795	38.07
746.977	38.37
747.158	38.68
747.339	39.12
747.52	39.54
747.702	39.05
747.883	39.62
748.064	39.23
748.245	39.11
748.426	39.23
748.607	39.61
748.788	39.71
748.97	39.77
749.151	39.94
749.332	40.26
749.513	40.92
749.694	40.92
749.875	40.51
750.056	40.39
750.237	40.68
750.418	40.93
750.599	40.73
750.78	40.47
750.96	40
751.141	39.41
751.322	38.46
751.503	37.37
751.684	37.37
751.865	37.33
752.046	37.9
752.226	37.51
752.407	37.28
752.588	36.98
752.769	36.82
752.949	37.33
753.13	37.64
753.311	37.51
753.492	38.09
753.672	38.05
753.853	37.67
754.034	37.01
754.214	36.94
754.395	37.08
754.575	38.07
754.756	38.84
754.937	37.88
755.117	37.74
755.298	37.82
755.478	36.82
755.659	37.05
755.839	37.06
756.02	37.42
756.2	37.52
756.381	37.36
756.561	36.9
756.741	36.15
756.922	37.23
757.102	36.72
757.283	37.24
757.463	37.59
757.643	37.31
757.823	37.24
758.004	36.74
758.184	35.81
758.364	36.22
758.545	34.76
758.725	34.14
758.905	32.46
759.085	31.97
759.265	31.15
759.446	30.38
759.626	30.07
759.806	29.92
759.986	29.76
760.166	29.4
760.346	28.31
760.526	28.76
760.706	28.86
760.886	29.28
761.066	29.63
761.246	29.91
761.426	30.19
761.606	30.18
761.786	29.56
761.966	29.6
762.146	30.18
762.326	30.8
762.506	30.48
762.686	30.71
762.866	30.63
763.046	30.13
763.225	29.88
763.405	29.78
763.585	29.8
763.765	29.88
763.945	29.65
764.124	29.77
764.304	29.26
764.484	29.3
764.664	29.13
764.843	29.83
765.023	30.8
765.203	31.15
765.382	31.84
765.562	32.14
765.741	33.08
765.921	34.16
766.101	34
766.28	34.93
766.46	35.68
766.639	36.56
766.819	36.57
766.998	35.74
767.178	36.16
767.357	36.54
767.537	37.37
767.716	37.13
767.896	36.84
768.075	37.86
768.254	37.95
768.434	38.14
768.613	38.72
768.792	38.99
768.972	40.5
769.151	40.75
769.33	40.61
769.51	40.61
769.689	41.5
769.868	41.76
770.047	41.27
770.226	41.53
770.406	42.02
770.585	41.41
770.764	41.87
770.943	41.74
771.122	41.72
771.301	41.79
771.48	41.88
771.66	41.35
771.839	41.68
772.018	42.22
772.197	42.78
772.376	42.24
772.555	42.31
772.734	41.85
772.913	42.51
773.092	42.82
773.271	43.16
773.449	42.44
773.628	42.42
773.807	41.97
773.986	42.17
774.165	41.94
774.344	42.53
774.523	42.75
774.701	42.53
774.88	41.46
775.059	41.61
775.238	41.36
775.417	41.82
775.595	40.94
775.774	40.89
775.953	40.95
776.131	39.97
776.31	39.89
776.489	40.1
776.667	40.65
776.846	40.08
777.025	39.73
777.203	39.94
777.382	40.17
777.56	41.45
777.739	42.4
777.917	41.51
778.096	42.38
778.274	42.42
778.453	41.67
778.631	41.74
778.81	42.2
778.988	42.23
779.166	42.73
779.345	42.21
779.523	40.77
779.702	41.1
779.88	42.15
780.058	41.3
780.237	41.76
780.415	42.26
780.593	41.55
780.771	42.04
780.95	42.08
781.128	40.79
781.306	41.62
781.484	43.84
781.662	43.22
781.841	43.09
782.019	44.07
782.197	42.14
782.375	42.55
782.553	43.41
782.731	42.47
782.909	42.43
783.087	42.37
783.265	42.03
783.443	40.25
783.621	39.86
783.799	40.13
783.977	38.91
784.155	39.62
784.333	39.48
784.511	39.04
784.689	39.79
784.867	40
785.045	41.25
785.223	41.18
785.4	41.47
785.578	41.9
785.756	41.43
785.934	42.62
786.112	42.83
786.289	42.45
786.467	42.44
786.645	41.94
786.823	41.06
787	40.84
787.178	41.13
787.356	41.02
787.533	40.1
787.711	39.73
787.889	39.63
788.066	39.52
788.244	39.3
788.421	39.16
788.599	39.26
788.776	39.39
788.954	39.22
789.131	38.92
789.309	39.67
789.486	39.99
789.664	40.91
789.841	40.59
790.019	40.71
790.196	40.72
790.373	40.57
790.551	40.17
790.728	40.15
790.906	39.59
791.083	38.96
791.26	37.72
791.437	37.59
791.615	36.52
791.792	35.53
791.969	36.11
792.146	36.16
792.324	35.26
792.501	35.96
792.678	37.55
792.855	37.5
793.032	36.23
793.209	37.36
793.387	37.46
793.564	37.18
793.741	38.41
793.918	37.4
794.095	37.37
794.272	38.25
794.449	37.02
794.626	35.82
794.803	37.16
794.98	38.39
795.157	37.35
795.334	37.44
795.511	37.92
795.688	37.84
795.864	38.18
796.041	38.07
796.218	38.72
796.395	39.59
796.572	38.94
796.749	37.77
796.925	38.77
797.102	38.8
797.279	37.97
797.456	36.94
797.632	36.83
797.809	36.71
797.986	37.29
798.162	36.79
798.339	36.32
798.516	36.24
798.692	35.73
798.869	35.39
799.046	35.88
799.222	35.43
799.399	36.73
799.575	36.11
799.752	35.1
799.928	34.33
800.105	35.14
800.281	36.24
800.458	37.99
800.634	38.4
800.811	37.97
800.987	37.57
801.163	38.46
801.34	38.99
801.516	40.9
801.692	42.15
801.869	42
802.045	41.63
802.221	41.24
802.398	39.68
802.574	39.63
802.75	39.78
802.926	41.16
803.103	41.07
803.279	40.16
803.455	39.45
803.631	39.07
803.807	39.25
803.983	40.49
804.16	39.99
804.336	39.9
804.512	40.73
804.688	40.42
804.864	39.72
805.04	39.32
805.216	39.54
805.392	39.29
805.568	39.43
805.744	39.88
805.92	36.93
806.096	37.47
806.272	37.88
806.448	38.34
806.623	37.81
806.799	36.8
806.975	38.32
807.151	38.18
807.327	35.5
807.503	35.09
807.678	34.51
807.854	35.64
808.03	35.67
808.206	35.69
808.381	35.37
808.557	36.12
808.733	36.82
808.908	36.16
809.084	37.08
809.26	39.21
809.435	38.99
809.611	39.08
809.787	39.42
809.962	39.81
810.138	39.58
810.313	38.4
810.489	38.64
810.664	39.04
810.84	40.11
811.015	37.78
811.191	37.78
811.366	38.96
811.542	38.36
811.717	38.03
811.892	37.65
812.068	38.34
812.243	37.14
812.419	36.25
812.594	35.63
812.769	33.68
812.944	36.06
813.12	35.07
813.295	33.73
813.47	33.98
813.645	32.83
813.821	32.4
813.996	31.96
814.171	34.51
814.346	34.42
814.521	34.7
814.697	35.71
814.872	34.5
815.047	35.29
815.222	36.49
815.397	36.46
815.572	37.23
815.747	36.35
815.922	35.76
816.097	34.68
816.272	35.4
816.447	34.87
816.622	35.23
816.797	34.85
816.972	34.08
817.147	32.29
817.322	32.21
817.496	31.81
817.671	31.52
817.846	31.71
818.021	31.29
818.196	30.41
818.371	28.64
818.545	29.06
818.72	28.81
818.895	29.28
819.069	30.51
819.244	29.73
819.419	30.31
819.594	31.86
819.768	31.87
819.943	31.72
820.117	31.4
820.292	30.96
820.467	30
820.641	28.89
820.816	28.62
820.99	27.47
821.165	27.64
821.339	26.62
821.514	25.54
821.688	25.24
821.863	24.89
822.037	24.5
822.212	24.95
822.386	24.58
822.56	24.69
822.735	24.66
822.909	24.77
823.084	24.54
823.258	24.61
823.432	24.78
823.606	24.82
823.781	24.93
823.955	25.15
824.129	24.66
824.303	24.79
824.478	24.75
824.652	24.56
824.826	24.84
825	25.24
825.174	25.78
825.348	26.03
825.523	26.39
825.697	26.76
825.871	27.02
826.045	27.39
826.219	27.79
826.393	28.01
826.567	28.07
826.741	27.32
826.915	27.31
827.089	26.59
827.263	26.1
827.437	26.03
827.611	26.5
827.784	26
827.958	26.27
828.132	26.01
828.306	25.84
828.48	25.54
828.654	25.73
828.827	25.42
829.001	25.53
829.175	26.29
829.349	25.98
829.522	25.42
829.696	26.37
829.87	25.55
830.044	25.71
830.217	26
830.391	26.35
830.565	26.71
830.738	26.95
830.912	28.37
831.085	27.45
831.259	25.96
831.432	24.67
831.606	25.57
831.779	26.72
831.953	26.78
832.126	27.12
832.3	26.63
832.473	25.94
832.647	25.31
832.82	25.68
832.994	25.64
833.167	27.08
833.34	27.73
833.514	26.63
833.687	26.89
833.86	26.8
834.034	25.9
834.207	26.05
834.38	26.37
834.553	26.51
834.727	26.23
834.9	26.71
835.073	26.93
835.246	27.28
835.419	27.09
835.593	26.35
835.766	26.39
835.939	27.69
836.112	27.91
836.285	28.33
836.458	28.83
836.631	29.49
836.804	29.85
836.977	29.11
837.15	27.91
837.323	28.92
837.496	30.23
837.669	30.08
837.842	30.32
838.015	31.38
838.188	31.69
838.361	31.66
838.533	30.38
838.706	31.42
838.879	30.93
839.052	34.24
839.225	34.47
839.398	34.37
839.57	35.98
839.743	35.44
839.916	35.53
840.088	35.15
840.261	36.52
840.434	36.5
840.607	35.5
840.779	35.71
840.952	33.47
841.124	34.12
841.297	33.38
841.47	31.87
841.642	32.14
841.815	31.29
841.987	32.03
842.16	31.11
842.332	31.88
842.505	32.04
842.677	32
842.85	32.27
843.022	31.19
843.194	32.46
843.367	33.54
843.539	33.6
843.712	34.98
843.884	35.45
844.056	38.14
844.229	38.66
844.401	40.42
844.573	43.9
844.745	43.79
844.918	44.82
845.09	47.51
845.262	50.25
845.434	49.28
845.606	45.61
845.779	45.42
845.951	44.96
846.123	43.04
846.295	40.36
846.467	40.69
846.639	39.22
846.811	40.78
846.983	37.12
847.155	36.49
847.327	35.77
847.499	37.72
847.671	36.91
847.843	34.27
848.015	35.87
848.187	36.81
848.359	34.21
848.531	36.84
848.703	36.49
848.875	40.81
849.047	37.47
849.218	38.23
849.39	39.88
849.562	42.47
849.734	45.57
849.905	45.33
850.077	44.44
850.249	46.09
850.421	45
850.592	47.67
850.764	41.87
850.936	43.36
851.107	42.92
851.279	42.62
851.451	43.64
851.622	38.71
851.794	38.88
851.965	42.67
852.137	39.44
852.308	41.81
852.48	36.88
852.651	41.27
852.823	42.77
852.994	42.48
853.166	41.44
853.337	36.94
853.509	40.41
853.68	38.12
853.851	34.61
854.023	38.53
854.194	36.29
854.365	40
854.537	38.75
854.708	36.8
854.879	36.26
855.05	36.05
855.222	33.27
855.393	32.6
855.564	33.17
855.735	34.8
855.906	30.53
856.078	30.99
856.249	30.05
856.42	27.24
856.591	30.36
856.762	31.44
856.933	30.17
857.104	32.15
857.275	33.27
857.446	33.96
857.617	32.78
857.788	36.22
857.959	34.96
858.13	37.75
858.301	41.85
858.472	40.32
858.643	40.76
858.814	46.69
858.985	49.29
859.155	52.2
859.326	55.65
859.497	58.35
859.668	57.12
859.839	59.31
860.009	56.57
860.18	56.99
860.351	59.42
860.522	55.76
860.692	55.92
860.863	57.89
861.034	54.42
861.204	52.02
861.375	48.69
861.546	46.75
861.716	49.06
861.887	46.89
862.057	46.68
862.228	42.51
862.398	45.02
862.569	47.23
862.739	43.14
862.91	39.69
863.08	39.76
863.251	43.1
863.421	46.05
863.592	46.74
863.762	48.11
863.932	44.5
864.103	44.5
864.273	52.55
864.443	47.72
864.614	48.1
864.784	45.97
864.954	48.63
865.125	44.1
865.295	47.9
865.465	43.97
865.635	43.73
865.805	42.67
865.976	43.33
866.146	39.95
866.316	39.13
866.486	39.34
866.656	44.54
866.826	43.57
866.996	48.99
867.166	49.1
867.336	45.33
867.506	46.17
867.676	44.86
867.846	47.48
868.016	45.99
868.186	46.49
868.356	45.78
868.526	38.72
868.696	42.09
868.866	37.85
869.036	34.36
869.206	36.48
869.376	38.39
869.545	39.93
869.715	35.61
869.885	36.8
870.055	34.19
870.224	38.33
870.394	44.58
870.564	46.91
870.734	47.57
870.903	48.16
871.073	48.52
871.243	44.04
871.412	44.87
871.582	42.78
871.751	42.04
871.921	41.97
872.091	37.42
872.26	40.08
872.43	27.26
872.599	27.46
872.769	29.85
872.938	33.06
873.108	33.7
873.277	33.9
873.446	39.12
873.616	32.46
873.785	34.96
873.955	37.74
874.124	37.52
874.293	39.47
874.463	35.42
874.632	34.32
874.801	29.03
874.971	29.76
875.14	26.19
875.309	24.63
875.478	30.56
875.647	28.55
875.817	23.46
875.986	21.74
876.155	31.78
876.324	32.43
876.493	29.37
876.662	31.98
876.831	29.2
877	32.34
877.17	36.99
877.339	39.26
877.508	38.17
877.677	37.54
877.846	38.48
878.015	31.93
878.184	31.65
878.352	30.33
878.521	27.37
878.69	29.88
878.859	28.13
879.028	23.56
879.197	24.17
879.366	22.23
879.534	20.67
879.703	15.71
879.872	14.5
880.041	16.99
880.21	19.08
880.378	18.48
880.547	18.39
880.716	19.03
880.884	18.53
881.053	16.12
881.222	17.59
881.39	19.24
881.559	20.45
881.727	21.64
881.896	21.08
882.065	20.31
882.233	21.28
882.402	21.27
882.57	21.27
882.739	22.03
882.907	22.96
883.076	22.75
883.244	22.23
883.412	21.72
883.581	20.96
883.749	21.45
883.918	21.48
884.086	20.39
884.254	20.26
884.423	20.38
884.591	19.79
884.759	18.44
884.927	17.98
885.096	18.24
885.264	18.33
885.432	19.82
885.6	19.5
885.769	20.75
885.937	21.84
886.105	21.19
886.273	20.85
886.441	20.99
886.609	23.07
886.777	23.51
886.945	26.34
887.113	28.79
887.281	29.31
887.449	27.62
887.617	30.68
887.785	34.7
887.953	38.81
888.121	37.11
888.289	34.68
888.457	37.07
888.625	40.33
888.793	39.32
888.961	37.24
889.129	32.88
889.296	36.81
889.464	33.94
889.632	29.84
889.8	24.78
889.967	28.07
890.135	35.07
