Data from 2938783__Reflection_02.txt Node
Date: Fri Mar 13 12:23:03 EDT 2015
User: robert
Spectrometer: USB4E03002
Autoset integration time: false
Trigger mode: 4
Integration Time (sec): 1.000000E-1
Scans to average: 10
Electric dark correction enabled: false
Nonlinearity correction enabled: false
Boxcar width: 5
Stray light correction enabled: false
XAxis mode: Wavelengths
Stop averaging: false
Number of Pixels in Spectrum: 3648
>>>>>Begin Spectral Data<<<<<
177.575	98.56
177.794	93.33
178.014	94.77
178.233	90.68
178.452	92.23
178.672	87.14
178.891	84.78
179.11	78.67
179.33	79.7
179.549	83.11
179.768	86.3
179.987	91.06
180.207	92.71
180.426	86.75
180.645	90.88
180.864	89.27
181.084	91.08
181.303	88.27
181.522	90.76
181.741	86.68
181.96	88.16
182.179	83.41
182.398	79.81
182.618	80.64
182.837	81.78
183.056	79.52
183.275	77.17
183.494	77.19
183.713	78.74
183.932	80.03
184.151	81.31
184.37	81.28
184.589	82.21
184.808	86.43
185.027	82.05
185.246	87.08
185.465	86.62
185.684	92.93
185.903	92.41
186.122	92.25
186.341	89.06
186.56	83.69
186.779	85.88
186.998	88.74
187.216	86.9
187.435	87.23
187.654	80.52
187.873	82.35
188.092	78.98
188.311	78.18
188.53	75.88
188.748	75.26
188.967	79.47
189.186	76.06
189.405	77.11
189.623	76.75
189.842	79.57
190.061	82.14
190.28	81.51
190.498	81.77
190.717	84.82
190.936	83.14
191.154	87.46
191.373	86.13
191.592	81.56
191.81	79.41
192.029	79.74
192.248	77.78
192.466	81.85
192.685	79.78
192.904	78.83
193.122	76.18
193.341	80.56
193.559	78.88
193.778	75.64
193.996	84.65
194.215	82.93
194.433	82.02
194.652	83.25
194.87	78.94
195.089	80.12
195.307	79.91
195.526	81.12
195.744	78.45
195.963	78.31
196.181	80.85
196.399	74.13
196.618	73.54
196.836	75.33
197.055	75.12
197.273	76.14
197.491	77.58
197.71	81.86
197.928	80.7
198.146	79.11
198.365	77.67
198.583	78.03
198.801	80.14
199.019	84.29
199.238	85.96
199.456	86.59
199.674	86.59
199.892	86.86
200.111	83.86
200.329	88.36
200.547	87.28
200.765	88.81
200.983	89.67
201.202	92.39
201.42	92.41
201.638	87.16
201.856	85.42
202.074	86.35
202.292	81.39
202.51	83.29
202.728	79.2
202.946	79.69
203.165	78.76
203.383	77.82
203.601	72.32
203.819	70.09
204.037	70.39
204.255	68.23
204.473	71.31
204.691	75.51
204.909	77.6
205.127	77.15
205.345	78.59
205.562	74.53
205.78	71.58
205.998	74.71
206.216	80.46
206.434	85.74
206.652	89.48
206.87	84.13
207.088	83.26
207.306	77.64
207.523	76.95
207.741	77.15
207.959	79.3
208.177	78.28
208.395	78.89
208.612	74.74
208.83	70.13
209.048	67.32
209.266	69.89
209.483	69.49
209.701	69.23
209.919	68.92
210.136	70.86
210.354	72.67
210.572	79.6
210.79	78.65
211.007	78.62
211.225	81.67
211.442	80.19
211.66	78.99
211.878	82.77
212.095	86.88
212.313	87.48
212.53	86.13
212.748	83.88
212.966	83.34
213.183	81.25
213.401	80.53
213.618	79.11
213.836	82.11
214.053	81.33
214.271	74.96
214.488	70.54
214.705	70.38
214.923	69.41
215.14	65.9
215.358	63.09
215.575	62.02
215.793	62.78
216.01	60.49
216.227	61.91
216.445	61.4
216.662	65.1
216.879	68.6
217.097	68.32
217.314	68.86
217.531	70.07
217.749	71.59
217.966	77.96
218.183	78.75
218.4	75.9
218.618	74.43
218.835	76.22
219.052	71.39
219.269	65.31
219.487	67.93
219.704	69.52
219.921	70.79
220.138	69.4
220.355	62.81
220.572	61.89
220.79	65.87
221.007	65.58
221.224	64.42
221.441	64.37
221.658	67.48
221.875	64
222.092	59.07
222.309	60.4
222.526	57.87
222.743	55.84
222.96	52.69
223.177	51.57
223.394	47.48
223.611	45.36
223.828	44.98
224.045	42.93
224.262	40.43
224.479	41.62
224.696	39.37
224.913	38.78
225.13	40.34
225.347	40.74
225.564	40.43
225.781	41.71
225.997	41.21
226.214	38.69
226.431	36.52
226.648	35.27
226.865	33.88
227.082	31.31
227.298	27.34
227.515	23.6
227.732	21.08
227.949	18.67
228.165	16.28
228.382	14.96
228.599	14.54
228.816	13.96
229.032	12.8
229.249	12.39
229.466	11.9
229.682	12.62
229.899	13.74
230.116	13.66
230.332	14.41
230.549	15.02
230.765	15.43
230.982	15.66
231.199	16.41
231.415	18.55
231.632	18.8
231.848	19.24
232.065	19.92
232.281	19.79
232.498	19.1
232.714	18.1
232.931	18.35
233.147	19.19
233.364	19.74
233.58	19.61
233.797	20.09
234.013	19.56
234.23	20.27
234.446	19.62
234.662	19.53
234.879	20.89
235.095	20.79
235.312	20.57
235.528	21.43
235.744	20.93
235.961	19.75
236.177	18.6
236.393	19.26
236.61	19.48
236.826	20.21
237.042	20.26
237.258	19.87
237.475	20.97
237.691	21.2
237.907	20.53
238.123	20.97
238.339	21.75
238.556	22.36
238.772	21.4
238.988	20.78
239.204	19.65
239.42	19.57
239.636	19.91
239.853	18.13
240.069	16.87
240.285	16.48
240.501	14.93
240.717	14.77
240.933	13.52
241.149	12.82
241.365	11.9
241.581	11.49
241.797	10.81
242.013	10.09
242.229	10.06
242.445	9.88
242.661	9.53
242.877	9.78
243.093	9.93
243.309	10.43
243.525	11.01
243.741	11.39
243.957	11.44
244.173	12.3
244.388	12.94
244.604	13.34
244.82	13.7
245.036	13.52
245.252	12.44
245.468	11.73
245.683	11.16
245.899	10.18
246.115	9.69
246.331	9.04
246.547	8.62
246.762	7.72
246.978	7.31
247.194	7.18
247.409	7.06
247.625	7.24
247.841	6.86
248.057	6.85
248.272	6.8
248.488	6.63
248.703	6.87
248.919	6.72
249.135	7.26
249.35	8.39
249.566	8.75
249.782	8.71
249.997	9.04
250.213	9.21
250.428	9.26
250.644	10.47
250.859	11.18
251.075	11.2
251.29	11.8
251.506	11.51
251.721	10.24
251.937	10.04
252.152	10.44
252.368	10.34
252.583	10.17
252.798	10.14
253.014	10.2
253.229	9.84
253.445	10.68
253.66	10.29
253.875	10.88
254.091	11.66
254.306	12.11
254.521	13.05
254.737	13.98
254.952	14.74
255.167	15.52
255.383	15.19
255.598	15.29
255.813	14.92
256.028	14.97
256.244	14.45
256.459	14.61
256.674	14.01
256.889	12.66
257.104	11.9
257.32	11.81
257.535	10.3
257.75	9.55
257.965	9.5
258.18	8.86
258.395	8.36
258.61	8.06
258.826	7.15
259.041	7.1
259.256	6.9
259.471	6.39
259.686	6.23
259.901	6.11
260.116	5.89
260.331	5.41
260.546	5.43
260.761	5.4
260.976	5.39
261.191	5.4
261.406	5.13
261.621	5.44
261.836	5.69
262.05	5.92
262.265	6.44
262.48	7.02
262.695	8.43
262.91	8.83
263.125	9.33
263.34	9.59
263.555	10.28
263.769	11.06
263.984	10.82
264.199	11.4
264.414	11.34
264.629	11.21
264.843	11.51
265.058	10.74
265.273	10.49
265.488	9.87
265.702	9.86
265.917	9.28
266.132	8.82
266.346	8.5
266.561	8.14
266.776	7.55
266.99	7.94
267.205	7.86
267.42	8.11
267.634	7.58
267.849	7.84
268.063	7.82
268.278	8.07
268.492	8.14
268.707	8.14
268.922	8.11
269.136	8.64
269.351	7.66
269.565	7.06
269.78	6.46
269.994	6.17
270.209	6.08
270.423	5.76
270.637	5.67
270.852	5.51
271.066	5.38
271.281	5.4
271.495	5.08
271.709	5.09
271.924	5.33
272.138	5.28
272.353	5.34
272.567	5.32
272.781	5.76
272.996	5.39
273.21	5.55
273.424	5.73
273.638	5.59
273.853	5.89
274.067	6.28
274.281	6.14
274.495	6.49
274.71	7.07
274.924	7.1
275.138	6.77
275.352	7.1
275.566	7.07
275.781	6.83
275.995	7.37
276.209	7.32
276.423	7.74
276.637	7.86
276.851	8.06
277.065	8.01
277.279	7.92
277.493	7.87
277.707	8.15
277.921	7.85
278.135	7.99
278.349	7.64
278.563	7.63
278.777	7.47
278.991	7
279.205	6.74
279.419	6.57
279.633	6.58
279.847	6.91
280.061	7.18
280.275	6.81
280.489	7.08
280.703	6.8
280.917	6.79
281.131	6.63
281.344	6.8
281.558	6.68
281.772	6.96
281.986	6.95
282.2	6.84
282.414	6.47
282.627	6.94
282.841	6.52
283.055	6.73
283.269	6.58
283.482	6.19
283.696	6.14
283.91	6.19
284.123	5.31
284.337	5.03
284.551	4.81
284.764	4.83
284.978	4.69
285.192	4.73
285.405	4.95
285.619	4.68
285.833	5.01
286.046	5
286.26	4.85
286.473	5.32
286.687	5.5
286.9	5.4
287.114	5.2
287.327	5.14
287.541	5.42
287.754	5.06
287.968	5.76
288.181	5.79
288.395	5.78
288.608	5.84
288.822	5.93
289.035	5.72
289.248	5.51
289.462	5.61
289.675	5.5
289.889	5.35
290.102	5.12
290.315	4.65
290.529	4.57
290.742	4.61
290.955	5.02
291.169	5.31
291.382	5.6
291.595	5.86
291.808	6.05
292.022	6.53
292.235	6.7
292.448	7.16
292.661	7.32
292.875	7.35
293.088	7.46
293.301	6.99
293.514	6.74
293.727	6.58
293.94	6.82
294.153	6.63
294.367	6.24
294.58	6.04
294.793	5.89
295.006	5.79
295.219	5.52
295.432	5.51
295.645	5.32
295.858	5.03
296.071	4.73
296.284	4.61
296.497	4.37
296.71	4.36
296.923	4.54
297.136	4.44
297.349	4.45
297.562	4.53
297.775	4.3
297.988	4.62
298.201	4.82
298.414	5.22
298.626	5.05
298.839	5.11
299.052	5.29
299.265	5.35
299.478	5.62
299.691	5.89
299.903	6.19
300.116	6.77
300.329	6.87
300.542	6.82
300.755	6.79
300.967	7.32
301.18	7.76
301.393	7.74
301.605	7.64
301.818	7.47
302.031	7.31
302.243	7.21
302.456	7.02
302.669	7.15
302.881	6.97
303.094	7.07
303.307	6.73
303.519	6.61
303.732	6.89
303.944	6.84
304.157	6.89
304.37	6.86
304.582	6.87
304.795	7.1
305.007	6.73
305.22	7.2
305.432	7.32
305.645	7.43
305.857	7.75
306.069	7.81
306.282	7.81
306.494	8.07
306.707	8.03
306.919	8.12
307.132	7.87
307.344	8.14
307.556	7.99
307.769	7.94
307.981	7.75
308.193	7.43
308.406	7.14
308.618	7.14
308.83	7.11
309.043	6.81
309.255	6.65
309.467	6.53
309.679	6.23
309.892	6.21
310.104	6
310.316	6.06
310.528	6.05
310.74	6.01
310.953	5.83
311.165	5.9
311.377	6.32
311.589	6.55
311.801	6.65
312.013	6.6
312.225	6.5
312.437	6.7
312.649	6.78
312.862	6.95
313.074	7.23
313.286	7.59
313.498	7.71
313.71	7.48
313.922	7.5
314.134	7.57
314.346	7.93
314.558	8.26
314.77	8.33
314.982	8.55
315.193	8.65
315.405	8.67
315.617	8.54
315.829	8.35
316.041	8.87
316.253	8.47
316.465	8.66
316.677	8.72
316.888	8.56
317.1	8.8
317.312	8.77
317.524	8.81
317.736	8.79
317.947	9.36
318.159	9.59
318.371	9.19
318.583	9.67
318.794	9.66
319.006	9.59
319.218	9.45
319.43	9.32
319.641	9.38
319.853	9.18
320.064	9.71
320.276	9.26
320.488	9.36
320.699	9.57
320.911	10.12
321.123	10
321.334	10.01
321.546	10.54
321.757	10.48
321.969	10.8
322.18	10.88
322.392	10.31
322.603	10.66
322.815	10.46
323.026	10.39
323.238	9.71
323.449	9.3
323.661	9.37
323.872	9.21
324.083	9.35
324.295	9.05
324.506	8.8
324.718	8.7
324.929	8.7
325.14	8.96
325.352	8.85
325.563	9.42
325.774	9.97
325.986	10.09
326.197	10.28
326.408	10.48
326.62	10.58
326.831	10.91
327.042	11.29
327.253	11.77
327.464	11.56
327.676	11.75
327.887	11.55
328.098	11.9
328.309	11.87
328.52	11.73
328.732	11.59
328.943	11.8
329.154	12.29
329.365	12.65
329.576	12.3
329.787	12.94
329.998	13.72
330.209	13.84
330.42	13.67
330.631	13.83
330.842	14.32
331.053	14.59
331.264	14.51
331.475	14.67
331.686	14.35
331.897	14.23
332.108	14.16
332.319	13.91
332.53	13.74
332.741	13.54
332.952	13.81
333.163	13.69
333.374	13.6
333.585	13.73
333.795	13.5
334.006	13.28
334.217	12.96
334.428	12.8
334.639	12.66
334.849	13
335.06	13.21
335.271	13.03
335.482	13.17
335.692	12.75
335.903	12.76
336.114	12.27
336.325	12.57
336.535	13.08
336.746	12.9
336.957	12.84
337.167	12.72
337.378	12.87
337.589	12.95
337.799	12.59
338.01	12.93
338.22	12.69
338.431	13.22
338.642	12.94
338.852	12.76
339.063	13.1
339.273	13.17
339.484	12.93
339.694	12.73
339.905	12.57
340.115	12.69
340.326	12.55
340.536	12.79
340.746	12.58
340.957	12.87
341.167	13.03
341.378	12.96
341.588	12.64
341.799	12.99
342.009	12.76
342.219	12.52
342.43	12.36
342.64	12.62
342.85	12.64
343.061	12.46
343.271	12.49
343.481	12.3
343.691	12.19
343.902	12.53
344.112	12.5
344.322	12.47
344.532	12.78
344.743	12.67
344.953	12.36
345.163	12.18
345.373	11.95
345.583	11.73
345.793	11.88
346.004	11.85
346.214	11.71
346.424	11.53
346.634	11.83
346.844	11.87
347.054	12.1
347.264	12.23
347.474	12.19
347.684	12.54
347.894	12.64
348.104	12.29
348.314	11.97
348.524	11.71
348.734	11.79
348.944	11.82
349.154	11.68
349.364	11.71
349.574	11.65
349.784	11.92
349.994	12.17
350.204	12.29
350.413	12.44
350.623	12.52
350.833	12.78
351.043	12.41
351.253	12.16
351.463	12.05
351.672	12.09
351.882	12.05
352.092	11.67
352.302	11.36
352.511	11.12
352.721	11.09
352.931	11.33
353.141	11.27
353.35	11.36
353.56	11.27
353.77	11.16
353.979	11.12
354.189	11.26
354.399	11.5
354.608	11.41
354.818	11.2
355.027	11.25
355.237	11.04
355.447	11.07
355.656	11.05
355.866	11.13
356.075	11.3
356.285	11.37
356.494	11.33
356.704	11.16
356.913	11.21
357.123	11.43
357.332	11.3
357.542	11.18
357.751	10.89
357.96	11.08
358.17	10.92
358.379	10.86
358.589	10.71
358.798	10.6
359.007	10.56
359.217	10.55
359.426	10.31
359.635	10.23
359.845	10.37
360.054	10.41
360.263	10.12
360.472	10.18
360.682	10.1
360.891	10.05
361.1	9.96
361.309	9.88
361.519	9.9
361.728	9.87
361.937	9.99
362.146	9.89
362.355	10.13
362.564	10.48
362.774	10.48
362.983	10.36
363.192	10.39
363.401	10.27
363.61	10.4
363.819	10.53
364.028	10.79
364.237	10.84
364.446	10.95
364.655	10.93
364.864	10.53
365.073	10.52
365.282	10.56
365.491	10.5
365.7	10.75
365.909	10.75
366.118	10.71
366.327	10.75
366.536	10.7
366.745	10.69
366.954	10.49
367.162	10.66
367.371	10.51
367.58	10.76
367.789	10.69
367.998	10.66
368.207	10.56
368.415	10.4
368.624	10.29
368.833	10.24
369.042	10.07
369.25	10.05
369.459	10.26
369.668	10.48
369.877	10.34
370.085	10.14
370.294	10.27
370.503	10.33
370.711	10.27
370.92	10.08
371.129	10.16
371.337	10.04
371.546	10.11
371.754	9.83
371.963	9.56
372.171	9.48
372.38	9.89
372.589	9.61
372.797	9.63
373.006	9.77
373.214	9.79
373.423	9.53
373.631	9.65
373.84	9.39
374.048	9.32
374.256	9.43
374.465	9.6
374.673	9.41
374.882	9.53
375.09	9.63
375.298	9.31
375.507	9.17
375.715	9.27
375.923	9.45
376.132	9.41
376.34	9.4
376.548	9.36
376.757	9.25
376.965	9.4
377.173	9.33
377.381	9.18
377.59	9.32
377.798	9.59
378.006	9.53
378.214	9.26
378.423	9.55
378.631	9.59
378.839	9.79
379.047	9.72
379.255	9.53
379.463	9.65
379.671	9.5
379.879	9.38
380.088	9.09
380.296	8.9
380.504	8.95
380.712	8.64
380.92	8.5
381.128	8.45
381.336	8.43
381.544	8.19
381.752	7.91
381.96	7.85
382.168	7.84
382.376	7.87
382.584	7.95
382.791	8.12
382.999	8.11
383.207	8.19
383.415	8.23
383.623	8.14
383.831	8.2
384.039	8.27
384.247	8.41
384.454	8.36
384.662	8.35
384.87	8.4
385.078	8.11
385.285	8.08
385.493	7.91
385.701	7.63
385.909	7.8
386.116	7.87
386.324	7.88
386.532	8.02
386.739	7.99
386.947	8.03
387.155	8.12
387.362	8.29
387.57	8.28
387.778	8.4
387.985	8.54
388.193	8.43
388.4	8.3
388.608	8.38
388.816	8.24
389.023	8.4
389.231	8.41
389.438	8.2
389.646	8.12
389.853	8.05
390.061	7.93
390.268	8.02
390.475	7.81
390.683	7.84
390.89	7.55
391.098	7.51
391.305	7.43
391.512	7.27
391.72	7.32
391.927	7.33
392.135	7.4
392.342	7.5
392.549	7.36
392.756	7.31
392.964	7.21
393.171	7.41
393.378	7.32
393.586	7.08
393.793	6.95
394	7
394.207	7
394.414	7.05
394.622	6.93
394.829	6.88
395.036	7
395.243	7.12
395.45	6.92
395.657	6.97
395.864	7.11
396.072	7.38
396.279	7.46
396.486	7.3
396.693	7.34
396.9	7.39
397.107	7.39
397.314	7.41
397.521	7.33
397.728	7.4
397.935	7.4
398.142	7.5
398.349	7.49
398.556	7.16
398.763	7.25
398.97	6.94
399.177	6.87
399.383	6.88
399.59	6.86
399.797	6.91
400.004	7.04
400.211	7.13
400.418	7.08
400.625	6.9
400.831	7.1
401.038	7.13
401.245	7.29
401.452	7.32
401.658	7.33
401.865	7.48
402.072	7.41
402.279	7.31
402.485	7.08
402.692	7.15
402.899	7.19
403.105	7.12
403.312	6.97
403.519	6.87
403.725	6.91
403.932	6.85
404.138	6.72
404.345	6.8
404.552	6.71
404.758	6.74
404.965	6.54
405.171	6.61
405.378	6.49
405.584	6.55
405.791	6.63
405.997	6.6
406.204	6.65
406.41	6.6
406.617	6.52
406.823	6.6
407.029	6.66
407.236	6.78
407.442	6.76
407.649	7.03
407.855	7.22
408.061	7.26
408.268	7.41
408.474	7.32
408.68	7.42
408.887	7.49
409.093	7.53
409.299	7.58
409.505	7.59
409.712	7.44
409.918	7.32
410.124	7.22
410.33	7.22
410.537	6.87
410.743	7
410.949	6.97
411.155	6.94
411.361	6.89
411.567	6.81
411.773	6.8
411.98	6.9
412.186	6.95
412.392	6.93
412.598	6.92
412.804	7.19
413.01	7.17
413.216	7.26
413.422	7.25
413.628	7.21
413.834	7.25
414.04	7.23
414.246	7.31
414.452	7.17
414.658	7.09
414.864	6.98
415.07	7.02
415.275	6.93
415.481	6.88
415.687	6.84
415.893	6.79
416.099	6.76
416.305	6.8
416.511	6.74
416.716	6.68
416.922	6.62
417.128	6.72
417.334	6.59
417.539	6.61
417.745	6.44
417.951	6.48
418.157	6.46
418.362	6.38
418.568	6.26
418.774	6.17
418.979	6.3
419.185	6.36
419.391	6.29
419.596	6.22
419.802	6.22
420.008	6.3
420.213	6.29
420.419	6.31
420.624	6.33
420.83	6.4
421.035	6.43
421.241	6.34
421.446	6.3
421.652	6.3
421.857	6.29
422.063	6.26
422.268	6.21
422.474	6.16
422.679	6.18
422.885	6.19
423.09	6.12
423.295	6.11
423.501	6.15
423.706	6.22
423.911	6.21
424.117	6.3
424.322	6.32
424.527	6.34
424.733	6.35
424.938	6.41
425.143	6.36
425.349	6.43
425.554	6.45
425.759	6.48
425.964	6.45
426.169	6.52
426.375	6.44
426.58	6.46
426.785	6.53
426.99	6.63
427.195	6.66
427.4	6.76
427.605	6.72
427.811	6.83
428.016	6.83
428.221	6.96
428.426	6.93
428.631	6.88
428.836	6.87
429.041	6.98
429.246	6.94
429.451	6.8
429.656	6.8
429.861	6.93
430.066	6.86
430.271	6.84
430.476	6.81
430.681	6.92
430.886	7.06
431.09	7.09
431.295	6.99
431.5	7.1
431.705	7.16
431.91	7.22
432.115	7.18
432.32	7.25
432.524	7.22
432.729	7.42
432.934	7.43
433.139	7.41
433.343	7.49
433.548	7.44
433.753	7.39
433.958	7.44
434.162	7.47
434.367	7.57
434.572	7.57
434.776	7.67
434.981	7.46
435.186	7.4
435.39	7.48
435.595	7.36
435.799	7.4
436.004	7.41
436.209	7.44
436.413	7.48
436.618	7.38
436.822	7.34
437.027	7.3
437.231	7.33
437.436	7.4
437.64	7.41
437.845	7.45
438.049	7.55
438.253	7.55
438.458	7.51
438.662	7.45
438.867	7.52
439.071	7.51
439.275	7.53
439.48	7.53
439.684	7.44
439.888	7.42
440.093	7.42
440.297	7.28
440.501	7.21
440.706	7.18
440.91	7.14
441.114	7.08
441.318	7.05
441.523	7.07
441.727	7
441.931	7.11
442.135	7.16
442.339	7.21
442.543	7.37
442.748	7.42
442.952	7.51
443.156	7.57
443.36	7.56
443.564	7.61
443.768	7.66
443.972	7.65
444.176	7.54
444.38	7.49
444.584	7.44
444.788	7.44
444.992	7.49
445.196	7.47
445.4	7.5
445.604	7.57
445.808	7.68
446.012	7.62
446.216	7.65
446.42	7.69
446.624	7.67
446.828	7.64
447.032	7.53
447.235	7.49
447.439	7.45
447.643	7.42
447.847	7.41
448.051	7.38
448.254	7.33
448.458	7.39
448.662	7.4
448.866	7.4
449.069	7.58
449.273	7.67
449.477	7.74
449.681	7.8
449.884	7.95
450.088	8.04
450.292	7.97
450.495	8.11
450.699	8.06
450.902	8.01
451.106	8.15
451.31	8.09
451.513	8.17
451.717	8.16
451.92	8.13
452.124	8.03
452.327	7.91
452.531	7.84
452.734	7.81
452.938	7.86
453.141	7.95
453.345	7.95
453.548	7.86
453.752	7.76
453.955	7.85
454.158	7.91
454.362	7.88
454.565	7.93
454.769	8.06
454.972	8
455.175	7.97
455.379	7.97
455.582	7.86
455.785	7.93
455.988	8.01
456.192	7.98
456.395	7.86
456.598	7.94
456.801	7.95
457.005	7.9
457.208	8.12
457.411	8.16
457.614	8.04
457.817	8
458.021	8
458.224	8
458.427	7.87
458.63	7.94
458.833	7.85
459.036	7.84
459.239	7.79
459.442	7.64
459.645	7.62
459.848	7.7
460.051	7.75
460.254	7.73
460.457	7.72
460.66	7.77
460.863	7.78
461.066	7.77
461.269	7.73
461.472	7.84
461.675	7.84
461.878	7.84
462.081	7.88
462.284	7.91
462.486	7.92
462.689	7.87
462.892	7.92
463.095	7.95
463.298	8.04
463.5	8.26
463.703	8.2
463.906	8.32
464.109	8.38
464.311	8.29
464.514	8.26
464.717	8.28
464.92	8.39
465.122	8.42
465.325	8.42
465.528	8.36
465.73	8.31
465.933	8.3
466.135	8.28
466.338	8.16
466.541	8.19
466.743	8.12
466.946	8.17
467.148	8.12
467.351	8.09
467.553	8.11
467.756	8.14
467.958	8.03
468.161	8.11
468.363	8.12
468.566	8.16
468.768	8.15
468.971	8.23
469.173	8.21
469.375	8.26
469.578	8.33
469.78	8.26
469.983	8.31
470.185	8.35
470.387	8.36
470.59	8.27
470.792	8.32
470.994	8.39
471.196	8.34
471.399	8.31
471.601	8.26
471.803	8.2
472.005	8.21
472.208	8.2
472.41	8.25
472.612	8.32
472.814	8.48
473.016	8.45
473.218	8.54
473.421	8.55
473.623	8.58
473.825	8.68
474.027	8.63
474.229	8.74
474.431	8.74
474.633	8.7
474.835	8.63
475.037	8.64
475.239	8.62
475.441	8.56
475.643	8.55
475.845	8.49
476.047	8.38
476.249	8.42
476.451	8.39
476.653	8.38
476.855	8.45
477.057	8.31
477.258	8.21
477.46	8.24
477.662	8.28
477.864	8.3
478.066	8.41
478.268	8.46
478.469	8.41
478.671	8.38
478.873	8.37
479.075	8.27
479.276	8.32
479.478	8.4
479.68	8.41
479.882	8.33
480.083	8.31
480.285	8.24
480.487	8.22
480.688	8.15
480.89	8.12
481.091	8.14
481.293	8.19
481.495	8.1
481.696	8.04
481.898	7.98
482.099	7.98
482.301	7.96
482.502	7.96
482.704	7.94
482.905	7.96
483.107	7.93
483.308	7.89
483.51	7.83
483.711	7.87
483.913	7.85
484.114	7.86
484.315	7.85
484.517	7.84
484.718	7.82
484.92	7.81
485.121	7.8
485.322	7.8
485.524	7.82
485.725	7.87
485.926	7.86
486.127	7.87
486.329	7.9
486.53	7.91
486.731	7.94
486.932	7.94
487.134	7.94
487.335	7.97
487.536	8
487.737	8.01
487.938	7.98
488.139	8
488.341	8.06
488.542	8.04
488.743	8.06
488.944	8.03
489.145	8.09
489.346	8.13
489.547	8.13
489.748	8.14
489.949	8.15
490.15	8.16
490.351	8.13
490.552	8.09
490.753	8.09
490.954	8.09
491.155	8.13
491.356	8.14
491.557	8.16
491.758	8.22
491.959	8.23
492.159	8.24
492.36	8.29
492.561	8.29
492.762	8.29
492.963	8.34
493.164	8.36
493.364	8.35
493.565	8.3
493.766	8.26
493.967	8.19
494.167	8.2
494.368	8.16
494.569	8.17
494.769	8.29
494.97	8.37
495.171	8.41
495.371	8.53
495.572	8.61
495.773	8.58
495.973	8.69
496.174	8.74
496.375	8.73
496.575	8.77
496.776	8.89
496.976	8.85
497.177	8.88
497.377	8.82
497.578	8.75
497.778	8.75
497.979	8.86
498.179	8.83
498.38	8.88
498.58	9.01
498.78	9.01
498.981	8.96
499.181	8.95
499.382	9.01
499.582	9.07
499.782	9.1
499.983	9.13
500.183	9.16
500.383	9.07
500.584	9.01
500.784	8.91
500.984	8.89
501.184	8.87
501.385	8.95
501.585	8.95
501.785	8.97
501.985	9.05
502.185	9.05
502.386	9.02
502.586	9.14
502.786	9.19
502.986	9.24
503.186	9.34
503.386	9.33
503.586	9.37
503.786	9.33
503.987	9.37
504.187	9.31
504.387	9.39
504.587	9.48
504.787	9.54
504.987	9.59
505.187	9.58
505.387	9.54
505.587	9.6
505.786	9.61
505.986	9.66
506.186	9.69
506.386	9.81
506.586	9.88
506.786	9.84
506.986	9.89
507.186	9.87
507.386	9.95
507.585	10.07
507.785	10.06
507.985	10.11
508.185	10.16
508.384	10.15
508.584	10.05
508.784	9.94
508.984	10.02
509.183	10.08
509.383	10.09
509.583	10.17
509.782	10.17
509.982	10.23
510.182	10.24
510.381	10.28
510.581	10.38
510.781	10.46
510.98	10.45
511.18	10.48
511.379	10.47
511.579	10.57
511.778	10.55
511.978	10.58
512.177	10.64
512.377	10.67
512.576	10.67
512.776	10.71
512.975	10.82
513.175	11
513.374	11.09
513.573	11.14
513.773	11.24
513.972	11.33
514.172	11.41
514.371	11.52
514.57	11.51
514.77	11.56
514.969	11.55
515.168	11.59
515.367	11.59
515.567	11.64
515.766	11.71
515.965	11.77
516.164	11.71
516.364	11.76
516.563	11.72
516.762	11.85
516.961	11.82
517.16	11.87
517.359	11.95
517.559	12.01
517.758	12
517.957	12.03
518.156	12.07
518.355	12.14
518.554	12.11
518.753	12.2
518.952	12.21
519.151	12.29
519.35	12.37
519.549	12.37
519.748	12.47
519.947	12.5
520.146	12.56
520.345	12.61
520.544	12.67
520.743	12.81
520.942	12.83
521.141	12.87
521.339	12.91
521.538	12.96
521.737	13.04
521.936	13.05
522.135	13.18
522.333	13.31
522.532	13.38
522.731	13.49
522.93	13.51
523.129	13.6
523.327	13.78
523.526	13.9
523.725	14
523.923	13.9
524.122	13.93
524.321	13.96
524.519	13.94
524.718	13.93
524.917	13.91
525.115	13.96
525.314	13.97
525.512	13.97
525.711	14.01
525.909	14.02
526.108	14.17
526.306	14.24
526.505	14.3
526.703	14.32
526.902	14.35
527.1	14.4
527.299	14.44
527.497	14.51
527.696	14.55
527.894	14.58
528.092	14.59
528.291	14.61
528.489	14.65
528.688	14.59
528.886	14.63
529.084	14.69
529.283	14.72
529.481	14.77
529.679	14.79
529.877	14.83
530.076	14.88
530.274	14.99
530.472	15.05
530.67	15.12
530.869	15.28
531.067	15.35
531.265	15.42
531.463	15.49
531.661	15.53
531.859	15.59
532.057	15.62
532.255	15.62
532.454	15.65
532.652	15.66
532.85	15.69
533.048	15.72
533.246	15.73
533.444	15.76
533.642	15.83
533.84	15.87
534.038	15.91
534.236	15.98
534.434	16.04
534.632	16.05
534.83	16.15
535.027	16.18
535.225	16.21
535.423	16.29
535.621	16.36
535.819	16.34
536.017	16.41
536.215	16.38
536.412	16.39
536.61	16.42
536.808	16.49
537.006	16.52
537.203	16.59
537.401	16.7
537.599	16.73
537.797	16.77
537.994	16.93
538.192	17.03
538.39	17.2
538.587	17.33
538.785	17.41
538.983	17.48
539.18	17.53
539.378	17.59
539.575	17.67
539.773	17.73
539.97	17.76
540.168	17.8
540.366	17.77
540.563	17.8
540.761	17.77
540.958	17.81
541.155	17.83
541.353	17.9
541.55	17.89
541.748	17.86
541.945	17.86
542.143	17.9
542.34	17.91
542.537	18
542.735	18.03
542.932	18.07
543.129	18.15
543.327	18.22
543.524	18.3
543.721	18.48
543.919	18.66
544.116	18.88
544.313	18.99
544.51	19.15
544.708	19.29
544.905	19.53
545.102	19.74
545.299	19.85
545.496	19.97
545.693	20.04
545.891	20.1
546.088	20.13
546.285	20.09
546.482	20.12
546.679	20.15
546.876	20.12
547.073	19.99
547.27	19.88
547.467	19.82
547.664	19.75
547.861	19.66
548.058	19.63
548.255	19.59
548.452	19.59
548.649	19.56
548.846	19.51
549.043	19.53
549.24	19.53
549.437	19.54
549.633	19.63
549.83	19.67
550.027	19.81
550.224	19.71
550.421	19.65
550.618	19.54
550.814	19.53
551.011	19.55
551.208	19.48
551.405	19.49
551.601	19.58
551.798	19.5
551.995	19.46
552.191	19.43
552.388	19.55
552.585	19.62
552.781	19.61
552.978	19.65
553.175	19.66
553.371	19.71
553.568	19.76
553.764	19.78
553.961	19.77
554.157	19.75
554.354	19.81
554.55	19.72
554.747	19.7
554.943	19.8
555.14	19.82
555.336	19.79
555.533	19.71
555.729	19.63
555.926	19.58
556.122	19.68
556.318	19.81
556.515	19.74
556.711	19.78
556.907	19.8
557.104	19.86
557.3	19.91
557.496	19.93
557.693	19.93
557.889	20.06
558.085	20.19
558.281	20.24
558.478	20.32
558.674	20.27
558.87	20.3
559.066	20.41
559.262	20.46
559.459	20.39
559.655	20.57
559.851	20.7
560.047	20.52
560.243	20.48
560.439	20.35
560.635	20.3
560.831	20.34
561.027	20.41
561.223	20.34
561.419	20.23
561.615	20.19
561.811	20.12
562.007	20.02
562.203	20.26
562.399	20.25
562.595	20.29
562.791	20.36
562.987	20.43
563.183	20.41
563.379	20.42
563.575	20.45
563.771	20.7
563.966	20.73
564.162	20.79
564.358	20.67
564.554	20.7
564.75	20.78
564.945	20.71
565.141	20.65
565.337	20.68
565.533	20.64
565.728	20.67
565.924	20.59
566.12	20.55
566.315	20.46
566.511	20.56
566.707	20.52
566.902	20.39
567.098	20.38
567.293	20.38
567.489	20.31
567.684	20.34
567.88	20.23
568.076	20.23
568.271	20.27
568.467	20.3
568.662	20.21
568.858	20.32
569.053	20.42
569.248	20.57
569.444	20.63
569.639	20.64
569.835	20.69
570.03	20.75
570.225	20.68
570.421	20.63
570.616	20.77
570.812	20.85
571.007	20.72
571.202	20.71
571.397	20.59
571.593	20.58
571.788	20.66
571.983	20.73
572.178	20.78
572.374	20.88
572.569	20.95
572.764	20.9
572.959	20.89
573.154	20.93
573.35	20.98
573.545	21.08
573.74	21.13
573.935	21.12
574.13	21.06
574.325	21.12
574.52	21.2
574.715	21.25
574.91	21.27
575.105	21.32
575.3	21.42
575.495	21.6
575.69	21.6
575.885	21.68
576.08	21.69
576.275	21.88
576.47	21.9
576.665	21.93
576.86	21.93
577.055	22.01
577.25	22.13
577.444	22.18
577.639	22.26
577.834	22.34
578.029	22.49
578.224	22.59
578.418	22.49
578.613	22.72
578.808	22.7
579.003	22.82
579.197	22.91
579.392	22.79
579.587	22.84
579.781	22.82
579.976	22.86
580.171	22.76
580.365	22.91
580.56	23.05
580.755	22.97
580.949	23.01
581.144	23.03
581.338	23.05
581.533	23.31
581.727	23.43
581.922	23.38
582.116	23.49
582.311	23.63
582.505	23.45
582.7	23.48
582.894	23.54
583.089	23.63
583.283	23.58
583.478	23.5
583.672	23.59
583.866	23.59
584.061	23.68
584.255	23.62
584.449	23.63
584.644	23.8
584.838	23.98
585.032	24.04
585.226	24.19
585.421	24.4
585.615	24.58
585.809	24.42
586.003	24.41
586.198	24.39
586.392	24.37
586.586	24.39
586.78	24.29
586.974	24.08
587.168	23.88
587.363	23.77
587.557	23.52
587.751	23.48
587.945	23.48
588.139	23.46
588.333	23.41
588.527	23.55
588.721	23.45
588.915	23.5
589.109	23.48
589.303	23.44
589.497	23.43
589.691	23.44
589.885	23.36
590.079	23.4
590.273	23.27
590.466	23.27
590.66	23.24
590.854	23.3
591.048	23.3
591.242	23.38
591.436	23.59
591.629	23.64
591.823	23.86
592.017	24.06
592.211	24.1
592.404	24.25
592.598	24.41
592.792	24.46
592.986	24.5
593.179	24.48
593.373	24.44
593.567	24.48
593.76	24.35
593.954	24.18
594.147	24.07
594.341	24.04
594.535	23.99
594.728	23.79
594.922	23.63
595.115	23.76
595.309	23.66
595.502	23.64
595.696	23.56
595.889	23.49
596.083	23.52
596.276	23.37
596.47	23.4
596.663	23.44
596.856	23.54
597.05	23.53
597.243	23.43
597.437	23.56
597.63	23.7
597.823	23.8
598.017	23.93
598.21	24.03
598.403	24.31
598.596	24.39
598.79	24.44
598.983	24.47
599.176	24.58
599.369	24.54
599.563	24.67
599.756	24.72
599.949	24.59
600.142	24.66
600.335	24.78
600.528	24.65
600.722	24.61
600.915	24.48
601.108	24.47
601.301	24.41
601.494	24.39
601.687	24.31
601.88	24.13
602.073	24.07
602.266	23.92
602.459	23.68
602.652	23.63
602.845	23.52
603.038	23.55
603.231	23.56
603.424	23.52
603.617	23.47
603.809	23.43
604.002	23.38
604.195	23.35
604.388	23.32
604.581	23.42
604.774	23.44
604.966	23.49
605.159	23.59
605.352	23.5
605.545	23.72
605.737	23.85
605.93	23.96
606.123	24.15
606.316	24.48
606.508	24.86
606.701	24.98
606.894	25.12
607.086	25.34
607.279	25.47
607.471	25.65
607.664	25.66
607.857	25.93
608.049	26.25
608.242	26.48
608.434	26.79
608.627	27.14
608.819	27.73
609.012	28.47
609.204	29.37
609.397	30.28
609.589	31.41
609.782	32.45
609.974	33.52
610.166	34.58
610.359	35.72
610.551	36.71
610.743	37.69
610.936	38.5
611.128	39.06
611.32	39.33
611.513	39.51
611.705	39.62
611.897	39.58
612.09	39.28
612.282	38.91
612.474	38.52
612.666	38.09
612.858	37.59
613.051	37.15
613.243	36.64
613.435	36.18
613.627	35.65
613.819	35.14
614.011	34.9
614.203	34.6
614.395	33.96
614.588	33.42
614.78	33.04
614.972	32.53
615.164	31.99
615.356	31.59
615.548	31.16
615.74	30.99
615.932	30.55
616.124	29.96
616.315	29.7
616.507	29.63
616.699	29.36
616.891	29.03
617.083	29.08
617.275	28.96
617.467	28.85
617.659	28.75
617.85	28.6
618.042	28.46
618.234	28.48
618.426	28.26
618.618	28.04
618.809	27.88
619.001	27.81
619.193	27.57
619.384	27.53
619.576	27.7
619.768	27.67
619.959	27.64
620.151	27.54
620.343	27.58
620.534	27.54
620.726	27.62
620.917	27.64
621.109	27.65
621.301	27.7
621.492	27.65
621.684	27.61
621.875	27.54
622.067	27.55
622.258	27.81
622.45	27.94
622.641	27.99
622.832	28.01
623.024	28.2
623.215	28.25
623.407	28.1
623.598	28.1
623.789	28
623.981	28.08
624.172	27.97
624.363	27.78
624.555	27.59
624.746	27.55
624.937	27.64
625.129	27.53
625.32	27.37
625.511	27.38
625.702	27.28
625.893	27.28
626.085	27.25
626.276	27.26
626.467	27.29
626.658	27.32
626.849	27.36
627.04	27.15
627.231	27.13
627.422	27.33
627.614	27.24
627.805	27.28
627.996	27.27
628.187	27.39
628.378	27.37
628.569	27.51
628.76	27.7
628.951	27.76
629.142	28.06
629.332	28.18
629.523	28.34
629.714	28.58
629.905	28.84
630.096	29.04
630.287	29.22
630.478	29.42
630.669	29.41
630.859	29.22
631.05	29.31
631.241	29.23
631.432	29.22
631.623	28.87
631.813	28.76
632.004	28.48
632.195	28.14
632.385	27.68
632.576	27.43
632.767	27.21
632.957	27.15
633.148	26.76
633.339	26.53
633.529	26.3
633.72	26.42
633.91	26.26
634.101	26.1
634.292	26.21
634.482	26.43
634.673	26.5
634.863	26.48
635.054	26.46
635.244	26.47
635.435	26.55
635.625	26.58
635.815	26.55
636.006	26.63
636.196	26.91
636.387	26.73
636.577	26.62
636.767	26.63
636.958	26.65
637.148	26.77
637.338	26.87
637.529	26.83
637.719	26.93
637.909	26.82
638.099	26.8
638.29	26.51
638.48	26.83
638.67	26.88
638.86	26.83
639.05	26.99
639.241	26.92
639.431	26.96
639.621	26.97
639.811	26.98
640.001	27.09
640.191	27.07
640.381	27.21
640.571	27.08
640.761	26.85
640.951	26.78
641.141	26.63
641.331	26.6
641.521	26.52
641.711	26.59
641.901	26.77
642.091	26.86
642.281	26.87
642.471	26.93
642.661	27.03
642.851	27.15
643.041	27.4
643.231	27.55
643.42	27.44
643.61	27.62
643.8	27.57
643.99	27.34
644.18	27.15
644.369	27.27
644.559	27.35
644.749	27.46
644.939	27.44
645.128	27.42
645.318	27.33
645.508	27.49
645.697	27.33
645.887	27.43
646.076	27.45
646.266	27.67
646.456	27.68
646.645	27.51
646.835	27.36
647.024	27.43
647.214	27.28
647.403	27.45
647.593	27.46
647.782	27.58
647.972	27.49
648.161	27.63
648.351	27.61
648.54	27.67
648.73	27.77
648.919	27.81
649.108	27.87
649.298	27.94
649.487	27.92
649.677	27.87
649.866	27.85
650.055	27.9
650.244	27.83
650.434	27.9
650.623	27.85
650.812	27.87
651.002	27.71
651.191	28
651.38	28.05
651.569	28.12
651.758	28.16
651.947	28.48
652.137	28.68
652.326	28.59
652.515	28.35
652.704	28.31
652.893	28.42
653.082	28.63
653.271	28.28
653.46	28.26
653.649	28.19
653.838	28.21
654.027	28.02
654.216	27.75
654.405	27.74
654.594	27.96
654.783	27.79
654.972	27.53
655.161	27.56
655.35	27.54
655.539	27.34
655.728	27.3
655.916	27.2
656.105	27.12
656.294	27.19
656.483	27.4
656.672	27.23
656.86	27.2
657.049	27.27
657.238	27.07
657.427	27.05
657.615	27.13
657.804	26.94
657.993	26.96
658.181	26.94
658.37	26.86
658.559	26.76
658.747	26.73
658.936	26.88
659.125	26.65
659.313	26.75
659.502	26.87
659.69	26.98
659.879	27.16
660.067	27.26
660.256	27.26
660.444	27.4
660.633	27.48
660.821	27.65
661.01	27.76
661.198	28.1
661.387	28.15
661.575	27.98
661.763	28.02
661.952	28.06
662.14	28.06
662.328	27.91
662.517	27.98
662.705	28.09
662.893	28.34
663.082	28.31
663.27	28.25
663.458	28.22
663.646	28.75
663.834	28.74
664.023	28.79
664.211	28.93
664.399	29.3
664.587	29.29
664.775	29.23
664.963	29.02
665.152	29.04
665.34	29.31
665.528	29.44
665.716	29.37
665.904	29.32
666.092	29.32
666.28	29.45
666.468	29.4
666.656	29.51
666.844	29.67
667.032	29.64
667.22	29.79
667.408	29.85
667.596	30
667.784	29.82
667.971	29.69
668.159	29.5
668.347	29.45
668.535	29.33
668.723	29.07
668.911	28.85
669.098	28.94
669.286	29.15
669.474	29.06
669.662	28.89
669.849	28.82
670.037	29.01
670.225	29.17
670.413	29.2
670.6	29.38
670.788	29.52
670.976	29.51
671.163	29.4
671.351	29.01
671.538	29.01
671.726	28.85
671.913	28.92
672.101	28.78
672.289	28.91
672.476	28.61
672.664	28.53
672.851	28.6
673.039	28.75
673.226	28.68
673.413	28.69
673.601	28.48
673.788	28.83
673.976	29
674.163	29.27
674.35	29.19
674.538	29.52
674.725	29.87
674.912	29.82
675.1	29.85
675.287	29.94
675.474	29.99
675.662	30.31
675.849	30.42
676.036	30.48
676.223	30.44
676.411	30.55
676.598	30.38
676.785	30.03
676.972	30.17
677.159	30.11
677.346	30.04
677.533	29.95
677.721	30.07
677.908	29.72
678.095	29.49
678.282	29.3
678.469	29.26
678.656	28.99
678.843	29.02
679.03	28.91
679.217	28.9
679.404	29.12
679.591	29.12
679.778	28.63
679.964	28.59
680.151	28.45
680.338	28.45
680.525	28.36
680.712	28.41
680.899	28.59
681.086	28.73
681.272	28.85
681.459	28.75
681.646	28.73
681.833	29.03
682.02	29.3
682.206	29.59
682.393	29.82
682.58	29.81
682.766	30.07
682.953	29.99
683.14	29.84
683.326	29.99
683.513	30.31
683.7	30.38
683.886	30.36
684.073	30.06
684.259	30.07
684.446	30.07
684.632	30.23
684.819	30.15
685.005	30.12
685.192	30.17
685.378	29.91
685.565	29.69
685.751	29.84
685.938	29.83
686.124	29.97
686.31	30.09
686.497	29.99
686.683	29.92
686.87	29.95
687.056	29.92
687.242	29.8
687.429	29.86
687.615	29.93
687.801	30.05
687.987	30.32
688.174	30.47
688.36	30.3
688.546	30.59
688.732	30.63
688.918	30.67
689.105	30.7
689.291	30.97
689.477	31.07
689.663	31.12
689.849	30.84
690.035	30.95
690.221	30.84
690.407	30.98
690.593	30.71
690.779	30.65
690.965	30.59
691.151	30.51
691.337	30.55
691.523	30.5
691.709	30.52
691.895	30.77
692.081	30.74
692.267	31.06
692.453	31.1
692.639	31.31
692.825	31.56
693.011	31.82
693.196	31.78
693.382	31.47
693.568	31.62
693.754	31.72
693.94	31.64
694.125	31.36
694.311	31.04
694.497	30.98
694.682	30.71
694.868	30.71
695.054	30.67
695.239	30.9
695.425	31.18
695.611	30.94
695.796	30.69
695.982	30.59
696.168	30.5
696.353	30.47
696.539	30.27
696.724	30.05
696.91	29.82
697.095	29.7
697.281	29.58
697.466	29.35
697.652	29.24
697.837	28.88
698.023	28.85
698.208	28.81
698.393	28.67
698.579	28.71
698.764	28.85
698.949	28.75
699.135	28.51
699.32	28.48
699.505	28.27
699.691	28.43
699.876	28.62
700.061	28.51
700.246	28.47
700.432	28.63
700.617	28.64
700.802	28.72
700.987	29.03
701.172	29.28
701.358	29.7
701.543	30.3
701.728	30.4
701.913	30.79
702.098	31.03
702.283	31.3
702.468	31.37
702.653	31.55
702.838	31.97
703.023	31.61
703.208	32.16
703.393	31.94
703.578	32.18
703.763	32.42
703.948	32.62
704.133	32.67
704.318	32.9
704.503	33.57
704.688	34.08
704.873	34.21
705.057	35.13
705.242	34.86
705.427	35.27
705.612	35.26
705.797	35.33
705.981	35.26
706.166	35.67
706.351	35.97
706.536	35.81
706.72	35.72
706.905	35.77
707.09	35.58
707.274	36.11
707.459	35.96
707.644	36.04
707.828	36.04
708.013	36.27
708.197	36.39
708.382	36.23
708.567	36.4
708.751	36.35
708.936	36.07
709.12	35.96
709.305	35.71
709.489	35.6
709.673	35.54
709.858	35.43
710.042	35.58
710.227	35.92
710.411	35.54
710.596	35.48
710.78	35.71
710.964	35.92
711.149	35.88
711.333	35.89
711.517	36.09
711.702	36.11
711.886	36.09
712.07	35.57
712.254	35.38
712.438	35.61
712.623	35.65
712.807	34.93
712.991	35.06
713.175	34.8
713.359	34.41
713.544	34.19
713.728	33.87
713.912	33.47
714.096	33.42
714.28	32.38
714.464	32.3
714.648	31.63
714.832	31.92
715.016	31.37
715.2	31.3
715.384	31.43
715.568	31.34
715.752	31.03
715.936	31.1
716.12	30.84
716.304	31.29
716.488	31.14
716.671	31.2
716.855	31.09
717.039	30.87
717.223	30.95
717.407	30.47
717.59	30.26
717.774	30.15
717.958	30.03
718.142	30.23
718.325	29.87
718.509	30.07
718.693	29.93
718.877	29.49
719.06	29.91
719.244	29.91
719.428	30.27
719.611	30.31
719.795	30.57
719.978	31.27
720.162	31.48
720.345	31.72
720.529	32.01
720.713	32.34
720.896	32.62
721.08	32.77
721.263	33.2
721.446	33.59
721.63	33.6
721.813	33.54
721.997	33.37
722.18	33.58
722.364	34.03
722.547	33.49
722.73	33.36
722.914	33.54
723.097	33.18
723.28	33.06
723.464	32.74
723.647	33.17
723.83	33.29
724.013	32.98
724.197	32.97
724.38	32.77
724.563	32.87
724.746	32.89
724.929	32.56
725.112	32.66
725.296	32.46
725.479	32.66
725.662	32.38
725.845	32.51
726.028	32.83
726.211	32.64
726.394	32.21
726.577	32.26
726.76	32.71
726.943	32.69
727.126	32.07
727.309	32.31
727.492	32.33
727.675	32.03
727.858	31.81
728.041	31.16
728.224	30.88
728.407	31.29
728.589	31.23
728.772	30.97
728.955	31.16
729.138	31.4
729.321	30.96
729.503	30.65
729.686	31.02
729.869	31.24
730.052	31.41
730.234	31.8
730.417	31.8
730.6	31.65
730.782	31.67
730.965	31.74
731.148	32.11
731.33	32.35
731.513	32.36
731.695	32.41
731.878	32.21
732.061	32.48
732.243	32.09
732.426	31.77
732.608	32.28
732.791	31.91
732.973	31.99
733.156	31.97
733.338	31.73
733.52	31.83
733.703	31.43
733.885	31.74
734.068	31.83
734.25	32.47
734.432	32.89
734.615	32.54
734.797	32.89
734.979	32.96
735.162	33.07
735.344	32.86
735.526	33
735.708	33.83
735.891	33.85
736.073	33.68
736.255	33.56
736.437	33.57
736.619	33.78
736.802	34.06
736.984	34.01
737.166	34.88
737.348	35.3
737.53	35.57
737.712	35.4
737.894	35.45
738.076	35.74
738.258	35.46
738.44	35.47
738.622	35.94
738.804	35.82
738.986	36.05
739.168	35.16
739.35	35.35
739.532	35.49
739.714	35.49
739.896	35.46
740.078	35.79
740.259	35.71
740.441	36.13
740.623	35.96
740.805	35.9
740.987	35.53
741.168	35.68
741.35	36.1
741.532	35.81
741.714	35.7
741.895	36.02
742.077	35.35
742.259	36.06
742.44	35.98
742.622	35.65
742.804	35.73
742.985	36.15
743.167	36.17
743.348	35.73
743.53	35.76
743.711	36.25
743.893	36.69
744.075	37.4
744.256	37.32
744.438	36.93
744.619	37.48
744.8	37.47
744.982	37.55
745.163	38.21
745.345	38.53
745.526	38.24
745.707	37.91
745.889	37.26
746.07	37.37
746.252	36.84
746.433	37.23
746.614	36.89
746.795	36.78
746.977	37.01
747.158	36.78
747.339	37.28
747.52	37.52
747.702	37.71
747.883	37.44
748.064	37.23
748.245	37.57
748.426	37.36
748.607	37.83
748.788	38.08
748.97	37.9
749.151	37.63
749.332	37.2
749.513	37.51
749.694	37.76
749.875	38.36
750.056	38.45
750.237	38.21
750.418	38.23
750.599	37.84
750.78	38.47
750.96	38.68
751.141	39.15
751.322	39.67
751.503	39.18
751.684	38.81
751.865	38.84
752.046	38.89
752.226	38.98
752.407	38.88
752.588	38.97
752.769	38.48
752.949	38.19
753.13	37.72
753.311	36.98
753.492	37.09
753.672	37.13
753.853	36.92
754.034	36.93
754.214	36.8
754.395	37.09
754.575	37.07
754.756	36.75
754.937	36.62
755.117	36.48
755.298	37.03
755.478	37.33
755.659	37.43
755.839	37.74
756.02	37.87
756.2	38.03
756.381	37.71
756.561	37.6
756.741	38.14
756.922	38.03
757.102	38.26
757.283	37
757.463	36.58
757.643	36.3
757.823	35.54
758.004	35
758.184	34.94
758.364	35.15
758.545	34.77
758.725	34.04
758.905	33.42
759.085	32.93
759.265	33.34
759.446	33.4
759.626	33.03
759.806	33.46
759.986	33.48
760.166	32.89
760.346	32.58
760.526	32.62
760.706	32.88
760.886	33.08
761.066	32.94
761.246	32.96
761.426	33.04
761.606	32.98
761.786	32.43
761.966	31.69
762.146	31.51
762.326	31
762.506	30.87
762.686	30.72
762.866	30.55
763.046	30.56
763.225	30.01
763.405	29.6
763.585	29.56
763.765	29.69
763.945	29.6
764.124	29.84
764.304	30.05
764.484	30.32
764.664	30.23
764.843	30.5
765.023	30.93
765.203	31.45
765.382	31.86
765.562	32.16
765.741	32.49
765.921	33.63
766.101	34.03
766.28	34.23
766.46	34.08
766.639	34.93
766.819	35.82
766.998	35.79
767.178	36.04
767.357	36.65
767.537	36.63
767.716	37.38
767.896	37.25
768.075	37.82
768.254	38.61
768.434	39.04
768.613	38.62
768.792	38.03
768.972	38.05
769.151	38.81
769.33	38.13
769.51	37.9
769.689	37.36
769.868	37.91
770.047	37.76
770.226	37.26
770.406	37.08
770.585	37.61
770.764	37.99
770.943	38.36
771.122	38.2
771.301	39
771.48	40.19
771.66	40.06
771.839	39.16
772.018	39.36
772.197	39.48
772.376	39.57
772.555	39.57
772.734	38.68
772.913	39.03
773.092	38.97
773.271	38.75
773.449	38.85
773.628	39.14
773.807	39.86
773.986	40.39
774.165	40.96
774.344	41.38
774.523	42.05
774.701	43
774.88	43.13
775.059	43.12
775.238	43.32
775.417	42.43
775.595	42.82
775.774	42.6
775.953	41.28
776.131	41.06
776.31	40.69
776.489	40.22
776.667	40.33
776.846	39.73
777.025	38.61
777.203	38.75
777.382	39.49
777.56	38.47
777.739	38.48
777.917	38.28
778.096	38.73
778.274	39.25
778.453	39.06
778.631	39.08
778.81	39.19
778.988	39.82
779.166	39.33
779.345	39.24
779.523	39.35
779.702	39.49
779.88	40.46
780.058	40.61
780.237	41.28
780.415	41.77
780.593	41.04
780.771	41.91
780.95	41.79
781.128	42.32
781.306	42.11
781.484	42.48
781.662	42.31
781.841	42.13
782.019	41.47
782.197	39.95
782.375	40.34
782.553	41.02
782.731	40.39
782.909	41
783.087	40.78
783.265	40.72
783.443	40.89
783.621	41.88
783.799	41.82
783.977	42.11
784.155	43.41
784.333	42.15
784.511	41.81
784.689	41.26
784.867	41.17
785.045	41.67
785.223	41.3
785.4	42.14
785.578	41.45
785.756	41.74
785.934	41.02
786.112	40.11
786.289	40.78
786.467	41.01
786.645	41.03
786.823	40.13
787	38.95
787.178	38.74
787.356	37.8
787.533	37.39
787.711	37.27
787.889	37.55
788.066	37.19
788.244	35.98
788.421	35.4
788.599	35.99
788.776	36.78
788.954	37.36
789.131	37.29
789.309	37.28
789.486	37.53
789.664	37.71
789.841	37.83
790.019	38.67
790.196	39.12
790.373	39.46
790.551	39.61
790.728	39.15
790.906	38.96
791.083	40
791.26	39.96
791.437	40.04
791.615	39.67
791.792	40.33
791.969	40.21
792.146	40.85
792.324	40.9
792.501	40.89
792.678	41.69
792.855	42.48
793.032	41.89
793.209	42.24
793.387	43.31
793.564	42.95
793.741	42.45
793.918	42.16
794.095	41.97
794.272	42.65
794.449	41.97
794.626	42.15
794.803	41.33
794.98	42.07
795.157	42.05
795.334	40.39
795.511	40.76
795.688	39.76
795.864	39.31
796.041	39.56
796.218	38.75
796.395	39.14
796.572	37.59
796.749	37.74
796.925	36.65
797.102	36.57
797.279	36.74
797.456	36.76
797.632	37.47
797.809	37.82
797.986	37.93
798.162	37.89
798.339	36.84
798.516	38.21
798.692	38.77
798.869	39.32
799.046	39.51
799.222	39.84
799.399	40.46
799.575	40.33
799.752	41.1
799.928	40.73
800.105	41.44
800.281	42.35
800.458	42.51
800.634	42.28
800.811	42.13
800.987	41.44
801.163	40.65
801.34	40.96
801.516	41.34
801.692	40.38
801.869	40.37
802.045	40.92
802.221	40.7
802.398	40.6
802.574	40.22
802.75	40.81
802.926	41.93
803.103	43.21
803.279	42.06
803.455	41.53
803.631	42.73
803.807	43.08
803.983	42.27
804.16	42.86
804.336	42.81
804.512	43.35
804.688	43.33
804.864	42.23
805.04	42.4
805.216	42.2
805.392	42.9
805.568	43.18
805.744	42.88
805.92	43.03
806.096	43.11
806.272	43.36
806.448	43.22
806.623	42.43
806.799	43.04
806.975	42.88
807.151	42.91
807.327	43.22
807.503	42.46
807.678	41.97
807.854	42.24
808.03	43.04
808.206	41.87
808.381	41.18
808.557	41.98
808.733	41.97
808.908	41.52
809.084	41.3
809.26	41.36
809.435	42.39
809.611	43.47
809.787	42.97
809.962	41.9
810.138	42.56
810.313	43.86
810.489	44.28
810.664	44.86
810.84	44.96
811.015	46.26
811.191	46.47
811.366	45.18
811.542	44.7
811.717	44.16
811.892	44.2
812.068	44.2
812.243	42.7
812.419	41.65
812.594	40.75
812.769	40.8
812.944	39.91
813.12	38.96
813.295	38.41
813.47	38.7
813.645	38.64
813.821	38.59
813.996	38.77
814.171	39.75
814.346	40.26
814.521	41.22
814.697	41.03
814.872	41.28
815.047	41.89
815.222	41.56
815.397	41.22
815.572	42.42
815.747	42.13
815.922	41.97
816.097	42.74
816.272	42.31
816.447	42.21
816.622	42.44
816.797	41.28
816.972	40.29
817.147	40.68
817.322	39.98
817.496	39
817.671	38.56
817.846	38.65
818.021	37.32
818.196	37.46
818.371	35.8
818.545	35.57
818.72	36.31
818.895	36.91
819.069	36.13
819.244	35.79
819.419	34.72
819.594	34.43
819.768	33.45
819.943	32.42
820.117	31.55
820.292	31.36
820.467	30.34
820.641	29.99
820.816	28.08
820.99	27.41
821.165	26.74
821.339	26.32
821.514	25.78
821.688	25.45
821.863	24.88
822.037	24.56
822.212	23.96
822.386	23.74
822.56	23.36
822.735	23.57
822.909	23.77
823.084	23.63
823.258	23.53
823.432	23.52
823.606	23.51
823.781	24.09
823.955	24.07
824.129	24.45
824.303	24.6
824.478	24.78
824.652	24.96
824.826	25.1
825	25.68
825.174	26.36
825.348	26.59
825.523	26.77
825.697	26.47
825.871	27.14
826.045	27.3
826.219	27.54
826.393	27.75
826.567	28.06
826.741	28.14
826.915	27.54
827.089	27.17
827.263	27.26
827.437	27.05
827.611	27.38
827.784	27.25
827.958	27.54
828.132	27.52
828.306	27.25
828.48	27.33
828.654	27.31
828.827	28.54
829.001	29.01
829.175	29.85
829.349	31.18
829.522	31.53
829.696	32.11
829.87	32.46
830.044	33.54
830.217	34.54
830.391	34.11
830.565	34.4
830.738	34.37
830.912	35.32
831.085	35.13
831.259	35.47
831.432	35.53
831.606	35.7
831.779	34.58
831.953	34.54
832.126	34.64
832.3	34.67
832.473	34.34
832.647	33.43
832.82	33.04
832.994	32.57
833.167	31.7
833.34	31.28
833.514	30.56
833.687	31.06
833.86	30.22
834.034	30.08
834.207	30.35
834.38	29.99
834.553	30.35
834.727	30.72
834.9	30.73
835.073	30.82
835.246	30.93
835.419	31.59
835.593	31.97
835.766	32.72
835.939	32.96
836.112	32.87
836.285	34.27
836.458	34.83
836.631	34.92
836.804	35.35
836.977	36.45
837.15	38.33
837.323	39.03
837.496	40.43
837.669	40.95
837.842	42.04
838.015	44.19
838.188	45.04
838.361	45.54
838.533	44.16
838.706	43.9
838.879	43.5
839.052	41.55
839.225	40.62
839.398	38.33
839.57	37.88
839.743	36.25
839.916	35.69
840.088	35.6
840.261	36.23
840.434	39.06
840.607	40.35
840.779	41.07
840.952	41.36
841.124	42.73
841.297	43.37
841.47	43.27
841.642	44.35
841.815	45.24
841.987	45.24
842.16	44.83
842.332	43.66
842.505	45.13
842.677	44
842.85	46.64
843.022	45.85
843.194	48.6
843.367	50.76
843.539	51.31
843.712	49.47
843.884	49.75
844.056	49.01
844.229	49.31
844.401	47.83
844.573	49.55
844.745	48.51
844.918	48.97
845.09	47.2
845.262	45.99
845.434	49.45
845.606	51.56
845.779	52.63
845.951	53.65
846.123	52.25
846.295	52.8
846.467	52.84
846.639	53.92
846.811	54.46
846.983	55.32
847.155	56.72
847.327	54.3
847.499	53.47
847.671	54.55
847.843	55.82
848.015	56.59
848.187	56.08
848.359	57.18
848.531	56.08
848.703	56.27
848.875	59.38
849.047	59.37
849.218	60.35
849.39	59.75
849.562	56.8
849.734	55.35
849.905	57.47
850.077	57.05
850.249	56.35
850.421	56.59
850.592	57.64
850.764	54.85
850.936	52.99
851.107	53.64
851.279	55.09
851.451	55.19
851.622	56.35
851.794	55.5
851.965	58.19
852.137	57.52
852.308	56.61
852.48	57.38
852.651	59.14
852.823	60.6
852.994	58.64
853.166	59.53
853.337	61.08
853.509	58.76
853.68	58.02
853.851	55.02
854.023	54.54
854.194	54.22
854.365	52.7
854.537	51.19
854.708	50.42
854.879	53.16
855.05	54.75
855.222	54.61
855.393	57.59
855.564	60.98
855.735	60.1
855.906	61.25
856.078	61.99
856.249	60.06
856.42	60.8
856.591	59.58
856.762	58.35
856.933	55.72
857.104	55.05
857.275	52.99
857.446	50.36
857.617	52.95
857.788	54.04
857.959	54.11
858.13	54.32
858.301	54.42
858.472	55.41
858.643	51.99
858.814	51.57
858.985	51.69
859.155	50.94
859.326	51.02
859.497	48.67
859.668	46.83
859.839	47.65
860.009	48.63
860.18	46.43
860.351	47.32
860.522	50.52
860.692	51.67
860.863	50.65
861.034	52.15
861.204	53.07
861.375	57.03
861.546	56.18
861.716	56.32
861.887	56.32
862.057	55.68
862.228	57.41
862.398	53.83
862.569	55.27
862.739	56.21
862.91	57.39
863.08	55.72
863.251	52.94
863.421	53.97
863.592	53.83
863.762	53.91
863.932	56.35
864.103	54.64
864.273	58.62
864.443	58.33
864.614	58.25
864.784	57.35
864.954	59.29
865.125	59.59
865.295	60.86
865.465	61.08
865.635	60.16
865.805	61.41
865.976	62.58
866.146	58.89
866.316	57.53
866.486	59.62
866.656	60.53
866.826	60.8
866.996	62.19
867.166	60.52
867.336	61.93
867.506	60.25
867.676	57.99
867.846	57.33
868.016	60.31
868.186	58.95
868.356	58.17
868.526	57.37
868.696	54.24
868.866	53.84
869.036	54.97
869.206	51.6
869.376	54.36
869.545	53.88
869.715	54.06
869.885	52.98
870.055	53.7
870.224	51.18
870.394	51.49
870.564	54.22
870.734	54
870.903	54.39
871.073	56.55
871.243	55.84
871.412	56.46
871.582	56.3
871.751	57.61
871.921	59.89
872.091	61.75
872.26	59.88
872.43	58.87
872.599	57.53
872.769	58.39
872.938	57.61
873.108	59.38
873.277	59.32
873.446	58.72
873.616	59.07
873.785	59.76
873.955	58.74
874.124	59.43
874.293	58.52
874.463	58.53
874.632	56.18
874.801	56.08
874.971	53.98
875.14	54.29
875.309	54.61
875.478	52.25
875.647	48.4
875.817	48.98
875.986	51.03
876.155	51.9
876.324	51.4
876.493	53.81
876.662	54.27
876.831	53.76
877	54.11
877.17	54.51
877.339	54.94
877.508	56.85
877.677	56.4
877.846	56.14
878.015	56.25
878.184	56.49
878.352	54.36
878.521	53.31
878.69	54.16
878.859	53.12
879.028	51.82
879.197	51.2
879.366	49.04
879.534	47.87
879.703	45.32
879.872	43.67
880.041	42.38
880.21	40.21
880.378	38.6
880.547	36.67
880.716	35.27
880.884	34.08
881.053	32.48
881.222	31.43
881.39	29.78
881.559	27.89
881.727	26.63
881.896	26.27
882.065	26.34
882.233	25.7
882.402	25.07
882.57	24.93
882.739	24.3
882.907	23.97
883.076	24.14
883.244	24.83
883.412	25.39
883.581	26.25
883.749	26.21
883.918	26.19
884.086	27.15
884.254	28.18
884.423	28.02
884.591	29.11
884.759	30.55
884.927	31.21
885.096	31.89
885.264	33.22
885.432	34.19
885.6	35.47
885.769	36.88
885.937	36.53
886.105	36.65
886.273	38.28
886.441	40.07
886.609	40.47
886.777	41.58
886.945	42.64
887.113	43.97
887.281	44.55
887.449	43.51
887.617	42.68
887.785	43.8
887.953	46.22
888.121	48.55
888.289	48.17
888.457	50.73
888.625	51.87
888.793	52.79
888.961	52.82
889.129	53.57
889.296	54.16
889.464	55.78
889.632	57.28
889.8	56.94
889.967	56
890.135	56.15
