Data from 2938826__Reflection_04.txt Node
Date: Thu Mar 12 13:43:30 EDT 2015
User: robert
Spectrometer: USB4E03002
Autoset integration time: false
Trigger mode: 4
Integration Time (sec): 1.000000E-1
Scans to average: 10
Electric dark correction enabled: false
Nonlinearity correction enabled: false
Boxcar width: 5
Stray light correction enabled: false
XAxis mode: Wavelengths
Stop averaging: false
Number of Pixels in Spectrum: 3648
>>>>>Begin Spectral Data<<<<<
177.575	38.49
177.794	28.09
178.014	21.44
178.233	29.58
178.452	50.28
178.672	48.92
178.891	25.36
179.11	24.04
179.33	8.55
179.549	22.95
179.768	40.81
179.987	20.53
180.207	-25.44
180.426	10.98
180.645	2.87
180.864	-120.97
181.084	-39.54
181.303	30.29
181.522	-10.21
181.741	26.92
181.96	1.1
182.179	50.69
182.398	41.29
182.618	80.55
182.837	98.79
183.056	113.83
183.275	147.84
183.494	97.48
183.713	41.84
183.932	43.1
184.151	8.73
184.37	4.35
184.589	-3.38
184.808	-14.67
185.027	-85.02
185.246	-68.37
185.465	-171.66
185.684	-135.58
185.903	-215.81
186.122	-363.24
186.341	-166.67
186.56	-57.36
186.779	-116.67
186.998	-158.62
187.216	-92.1
187.435	-11.01
187.654	-113.01
187.873	-145.51
188.092	-223.86
188.311	-2378.95
188.53	2564.29
188.748	974.19
188.967	7825
189.186	-137.19
189.405	-59.2
189.623	-67.01
189.842	67.97
190.061	-21.01
190.28	-61.76
190.498	4100
190.717	146.85
190.936	4360
191.154	319.35
191.373	92.23
191.592	87.5
191.81	85.03
192.029	132
192.248	-33.08
192.466	-7.46
192.685	-24.18
192.904	3.97
193.122	-32.29
193.341	-6.11
193.559	-8.03
193.778	-13.96
193.996	-5.05
194.215	-53.3
194.433	-44.59
194.652	-33.88
194.87	-16.02
195.089	-10.9
195.307	-16.86
195.526	-20
195.744	-13.66
195.963	-29.61
196.181	1320
196.399	-55.49
196.618	-35.05
196.836	-51.7
197.055	-2025
197.273	-56.49
197.491	-29.4
197.71	-51.83
197.928	-18.54
198.146	-12.33
198.365	-43.14
198.583	-4.41
198.801	5.54
199.019	29.09
199.238	33.01
199.456	64.75
199.674	60.98
199.892	46.25
200.111	47.43
200.329	34.08
200.547	36.99
200.765	66.67
200.983	32.02
201.202	19.77
201.42	21.7
201.638	21.32
201.856	1.96
202.074	-0.99
202.292	-0.25
202.51	-21.11
202.728	-25.77
202.946	-53.02
203.165	-40.85
203.383	-38.36
203.601	-29.34
203.819	-51.47
204.037	-121.69
204.255	-107.49
204.473	-74.93
204.691	-53.9
204.909	-19.7
205.127	-6.28
205.345	-32.55
205.562	-43.16
205.78	-26.76
205.998	-24.23
206.216	-1.84
206.434	22.66
206.652	35.57
206.87	31.2
207.088	43.54
207.306	37.58
207.523	27.12
207.741	41.74
207.959	28.95
208.177	17.04
208.395	21.03
208.612	9.71
208.83	-52.13
209.048	-54.16
209.266	-49.48
209.483	-63.06
209.701	-36.24
209.919	-42.5
210.136	-51.51
210.354	-23.01
210.572	13.23
210.79	7.43
211.007	-16.25
211.225	15.84
211.442	-11.03
211.66	-30.63
211.878	-26.88
212.095	-1.88
212.313	9.22
212.53	-1.87
212.748	11.15
212.966	-11.56
213.183	-7.38
213.401	27.12
213.618	16.7
213.836	23.16
214.053	49.73
214.271	35.5
214.488	25.28
214.705	38.01
214.923	38.13
215.14	27.15
215.358	28.34
215.575	35.18
215.793	15.39
216.01	22.71
216.227	13.24
216.445	5.83
216.662	-0.75
216.879	5.81
217.097	-22.5
217.314	-29.25
217.531	-22.95
217.749	-24.33
217.966	-46.76
218.183	-20.71
218.4	-16.75
218.618	-18.17
218.835	-12.61
219.052	2.07
219.269	3.97
219.487	15.27
219.704	18.4
219.921	9.56
220.138	19.57
220.355	26.57
220.572	15.27
220.79	11.87
221.007	21.23
221.224	11.62
221.441	7
221.658	2.18
221.875	-1.91
222.092	-2.92
222.309	-0.23
222.526	-1.92
222.743	-0.78
222.96	9.18
223.177	10.93
223.394	9.56
223.611	12.39
223.828	9.31
224.045	11.23
224.262	18.2
224.479	17.82
224.696	17.61
224.913	17.41
225.13	17.3
225.347	11.01
225.564	6.51
225.781	10.44
225.997	8.1
226.214	8.89
226.431	7.8
226.648	5.26
226.865	5.36
227.082	3.14
227.298	1.17
227.515	2.93
227.732	2.35
227.949	4.08
228.165	2.63
228.382	3.45
228.599	3.46
228.816	4.01
229.032	5.18
229.249	5.17
229.466	5.6
229.682	6.12
229.899	5.63
230.116	7.22
230.332	7.26
230.549	6.93
230.765	7.11
230.982	5.82
231.199	5.67
231.415	4.58
231.632	4.01
231.848	4.64
232.065	5.45
232.281	5.68
232.498	4.48
232.714	3.01
232.931	3.73
233.147	4.5
233.364	6.64
233.58	5.73
233.797	3.82
234.013	5.2
234.23	4.4
234.446	2.77
234.662	1.39
234.879	0.62
235.095	1.92
235.312	3.22
235.528	3.66
235.744	2.87
235.961	3.83
236.177	4.84
236.393	4.18
236.61	4.32
236.826	3.69
237.042	4.05
237.258	4.5
237.475	5.17
237.691	2.98
237.907	2.3
238.123	3.25
238.339	2.33
238.556	3.03
238.772	3.79
238.988	4.85
239.204	7.27
239.42	6.53
239.636	7.01
239.853	5.5
240.069	6.56
240.285	6.4
240.501	6.6
240.717	7.93
240.933	7.74
241.149	7.22
241.365	6.93
241.581	6.95
241.797	7.18
242.013	6.95
242.229	7.2
242.445	7.48
242.661	7.49
242.877	7.59
243.093	7.01
243.309	7.08
243.525	6.61
243.741	6.55
243.957	6.39
244.173	6.26
244.388	6.83
244.604	6.73
244.82	6.25
245.036	6.54
245.252	6.11
245.468	6.26
245.683	6.09
245.899	6.32
246.115	6.7
246.331	6.82
246.547	6.97
246.762	6.54
246.978	6.59
247.194	6.41
247.409	6.22
247.625	6.43
247.841	6.76
248.057	6.81
248.272	7.17
248.488	6.73
248.703	6.4
248.919	6.49
249.135	6.51
249.35	6.72
249.566	7.1
249.782	6.81
249.997	6.18
250.213	5.13
250.428	5.37
250.644	5.06
250.859	5.44
251.075	5.39
251.29	5.45
251.506	5.5
251.721	5.52
251.937	5.04
252.152	5.45
252.368	6.3
252.583	5.85
252.798	5.65
253.014	5.83
253.229	5.66
253.445	5.65
253.66	5.79
253.875	6.61
254.091	6.42
254.306	6.81
254.521	6.73
254.737	5.53
254.952	6.21
255.167	5.79
255.383	5.24
255.598	6.27
255.813	6.39
256.028	5.26
256.244	4.46
256.459	4.01
256.674	4.42
256.889	5.22
257.104	5.63
257.32	5.54
257.535	5.25
257.75	5.42
257.965	5.13
258.18	4.95
258.395	5.25
258.61	5.24
258.826	5.29
259.041	4.69
259.256	4.77
259.471	4.68
259.686	4.41
259.901	4.75
260.116	4.46
260.331	4.38
260.546	4.25
260.761	4.22
260.976	3.96
261.191	3.62
261.406	4.23
261.621	3.69
261.836	3.73
262.05	3.63
262.265	3.35
262.48	3.58
262.695	3.3
262.91	4.09
263.125	4.07
263.34	4.17
263.555	4.9
263.769	4.26
263.984	4.58
264.199	5.14
264.414	6.55
264.629	6.4
264.843	6.03
265.058	6.24
265.273	5.49
265.488	5
265.702	5.43
265.917	5.3
266.132	5.1
266.346	5.4
266.561	5.15
266.776	4.61
266.99	4.71
267.205	5.25
267.42	5.02
267.634	5.05
267.849	5.26
268.063	4.99
268.278	4.86
268.492	5.24
268.707	5.1
268.922	5.1
269.136	4.79
269.351	4.47
269.565	3.9
269.78	4.11
269.994	4.04
270.209	3.81
270.423	3.71
270.637	3.53
270.852	3.31
271.066	3.13
271.281	2.79
271.495	2.84
271.709	3.17
271.924	3.45
272.138	3.45
272.353	3.32
272.567	3.42
272.781	3.48
272.996	3.79
273.21	3.94
273.424	4.02
273.638	3.87
273.853	4.01
274.067	3.48
274.281	3.76
274.495	3.4
274.71	3.71
274.924	3.98
275.138	4.02
275.352	3.86
275.566	3.98
275.781	4.4
275.995	4.92
276.209	4.85
276.423	5.02
276.637	4.6
276.851	4.84
277.065	5.19
277.279	4.95
277.493	4.64
277.707	4.64
277.921	4.71
278.135	4.03
278.349	3.84
278.563	3.66
278.777	3.84
278.991	3.68
279.205	3.82
279.419	3.25
279.633	3.53
279.847	3.52
280.061	3.69
280.275	3.83
280.489	3.95
280.703	3.89
280.917	4.4
281.131	4.3
281.344	4.75
281.558	4.84
281.772	5.07
281.986	4.92
282.2	5.33
282.414	5.11
282.627	4.99
282.841	5.24
283.055	5.18
283.269	5.07
283.482	5.27
283.696	5
283.91	4.97
284.123	4.76
284.337	4.71
284.551	4.53
284.764	4.5
284.978	4.51
285.192	4.05
285.405	3.98
285.619	4.22
285.833	4.13
286.046	4.21
286.26	4.04
286.473	4.18
286.687	4.36
286.9	4.47
287.114	4.7
287.327	4.54
287.541	5.26
287.754	5.24
287.968	5.07
288.181	5.09
288.395	5.02
288.608	4.98
288.822	4.84
289.035	4.71
289.248	4.77
289.462	4.99
289.675	4.74
289.889	4.36
290.102	4.53
290.315	4.54
290.529	4.59
290.742	4.6
290.955	4.58
291.169	4.75
291.382	4.68
291.595	4.98
291.808	4.54
292.022	4.33
292.235	4.39
292.448	4.39
292.661	4.39
292.875	4.28
293.088	4.33
293.301	4.66
293.514	4.76
293.727	5.03
293.94	4.61
294.153	4.56
294.367	5.19
294.58	5.14
294.793	5.43
295.006	5.39
295.219	5.54
295.432	5.63
295.645	5.87
295.858	5.83
296.071	5.94
296.284	6.18
296.497	6.52
296.71	6.4
296.923	6.47
297.136	6.36
297.349	6.57
297.562	6.63
297.775	6.75
297.988	6.71
298.201	6.75
298.414	6.66
298.626	6.62
298.839	6.32
299.052	6.55
299.265	6.4
299.478	6.35
299.691	6.16
299.903	6.2
300.116	6.15
300.329	6.12
300.542	6.03
300.755	6.07
300.967	5.81
301.18	5.95
301.393	5.93
301.605	6.26
301.818	6.23
302.031	6.27
302.243	6.27
302.456	6.27
302.669	6.45
302.881	6.58
303.094	6.72
303.307	7.32
303.519	7.53
303.732	7.61
303.944	7.79
304.157	8.15
304.37	8.35
304.582	8.28
304.795	8.17
305.007	8.16
305.22	8.33
305.432	8.35
305.645	8
305.857	8.07
306.069	8.21
306.282	7.94
306.494	7.66
306.707	7.53
306.919	7.84
307.132	7.97
307.344	7.84
307.556	8.19
307.769	7.85
307.981	7.8
308.193	7.68
308.406	7.64
308.618	7.59
308.83	7.83
309.043	7.54
309.255	7.33
309.467	7.18
309.679	7.44
309.892	6.81
310.104	7.22
310.316	7.19
310.528	7.04
310.74	6.96
310.953	7.01
311.165	6.93
311.377	7.1
311.589	7.29
311.801	7.44
312.013	7.12
312.225	7.31
312.437	7.26
312.649	7.12
312.862	7.39
313.074	7.61
313.286	7.86
313.498	8.11
313.71	8.13
313.922	8.18
314.134	8.24
314.346	8.32
314.558	8.8
314.77	8.73
314.982	9.15
315.193	9.3
315.405	8.72
315.617	8.85
315.829	8.36
316.041	8.75
316.253	8.6
316.465	8.49
316.677	8.54
316.888	7.85
317.1	7.89
317.312	7.7
317.524	7.79
317.736	7.88
317.947	7.79
318.159	7.65
318.371	7.47
318.583	7.2
318.794	7.24
319.006	7.83
319.218	8.22
319.43	8.48
319.641	8.69
319.853	8.63
320.064	8.74
320.276	8.9
320.488	9.45
320.699	9.32
320.911	9.7
321.123	9.65
321.334	8.57
321.546	8.46
321.757	8.43
321.969	8.65
322.18	8.37
322.392	8.67
322.603	8.14
322.815	8.38
323.026	8.45
323.238	8.19
323.449	8.32
323.661	8.62
323.872	8.71
324.083	8.38
324.295	7.92
324.506	8.07
324.718	8.21
324.929	8.21
325.14	8.03
325.352	8.16
325.563	8.4
325.774	8.39
325.986	8.59
326.197	8.47
326.408	8.7
326.62	8.71
326.831	8.91
327.042	8.76
327.253	8.85
327.464	9
327.676	8.72
327.887	8.51
328.098	8.79
328.309	8.67
328.52	9.03
328.732	8.9
328.943	9.6
329.154	9.56
329.365	9.24
329.576	9.48
329.787	9.27
329.998	9.68
330.209	9.8
330.42	9.52
330.631	9.66
330.842	9.37
331.053	9.18
331.264	9.24
331.475	9.55
331.686	9.94
331.897	9.89
332.108	9.93
332.319	10.28
332.53	10.53
332.741	10.81
332.952	10.82
333.163	10.95
333.374	11.34
333.585	10.79
333.795	10.75
334.006	10.62
334.217	11
334.428	11.19
334.639	10.91
334.849	10.65
335.06	10.55
335.271	10.52
335.482	10.88
335.692	10.46
335.903	10.63
336.114	10.32
336.325	10.44
336.535	10.03
336.746	10.09
336.957	10.14
337.167	10.07
337.378	9.95
337.589	9.84
337.799	9.43
338.01	9.66
338.22	9.58
338.431	9.76
338.642	9.75
338.852	9.84
339.063	9.9
339.273	9.67
339.484	10.03
339.694	10.09
339.905	10
340.115	10.01
340.326	9.8
340.536	9.73
340.746	9.47
340.957	9.34
341.167	9.51
341.378	9.19
341.588	9.41
341.799	9.28
342.009	9.38
342.219	9.45
342.43	9.66
342.64	9.97
342.85	10.08
343.061	10.15
343.271	10.21
343.481	9.92
343.691	9.88
343.902	9.68
344.112	9.76
344.322	9.46
344.532	9.13
344.743	8.73
344.953	8.57
345.163	8.79
345.373	8.99
345.583	9.02
345.793	8.93
346.004	8.95
346.214	9.12
346.424	9.15
346.634	9.08
346.844	9.26
347.054	9.44
347.264	9.37
347.474	8.95
347.684	8.78
347.894	8.62
348.104	8.65
348.314	8.72
348.524	8.59
348.734	8.44
348.944	8.39
349.154	8.32
349.364	8.13
349.574	8.11
349.784	8.14
349.994	8.1
350.204	8.17
350.413	8.35
350.623	8.29
350.833	8.44
351.043	8.65
351.253	9.21
351.463	9.82
351.672	10.13
351.882	10.41
352.092	10.5
352.302	10.39
352.511	10.62
352.721	10.37
352.931	10.56
353.141	10.64
353.35	10.46
353.56	10.06
353.77	9.78
353.979	9.71
354.189	9.4
354.399	9.37
354.608	9.46
354.818	9.47
355.027	9.52
355.237	9.58
355.447	9.11
355.656	8.87
355.866	8.9
356.075	8.89
356.285	9.16
356.494	9.23
356.704	9.08
356.913	9.15
357.123	8.85
357.332	8.99
357.542	8.8
357.751	8.98
357.96	9.21
358.17	9.15
358.379	8.99
358.589	8.72
358.798	9.04
359.007	9.26
359.217	9.26
359.426	9.34
359.635	9.34
359.845	9.38
360.054	9.2
360.263	8.9
360.472	8.88
360.682	9.11
360.891	9.08
361.1	8.77
361.309	8.73
361.519	8.67
361.728	8.59
361.937	8.49
362.146	8.4
362.355	8.35
362.564	8.51
362.774	8.6
362.983	8.41
363.192	8.16
363.401	8.1
363.61	8.18
363.819	8.12
364.028	7.99
364.237	7.96
364.446	7.77
364.655	7.93
364.864	7.8
365.073	7.74
365.282	7.78
365.491	7.95
365.7	7.96
365.909	7.66
366.118	7.69
366.327	7.76
366.536	7.88
366.745	7.95
366.954	7.94
367.162	7.82
367.371	7.49
367.58	7.28
367.789	7.33
367.998	7.52
368.207	7.64
368.415	7.5
368.624	7.5
368.833	7.43
369.042	7.47
369.25	7.42
369.459	7.58
369.668	7.95
369.877	7.99
370.085	7.93
370.294	7.54
370.503	7.6
370.711	7.62
370.92	7.76
371.129	7.51
371.337	7.52
371.546	7.48
371.754	7.2
371.963	7.28
372.171	7.24
372.38	7.27
372.589	7.43
372.797	7.2
373.006	7.16
373.214	7.12
373.423	7.16
373.631	7.01
373.84	7.06
374.048	7.09
374.256	6.64
374.465	6.67
374.673	6.47
374.882	6.52
375.09	6.57
375.298	6.45
375.507	6.37
375.715	6.28
375.923	6.37
376.132	6.19
376.34	6.34
376.548	6.48
376.757	6.48
376.965	6.69
377.173	6.57
377.381	6.6
377.59	6.7
377.798	6.67
378.006	6.71
378.214	6.72
378.423	6.81
378.631	6.91
378.839	6.86
379.047	6.82
379.255	6.52
379.463	6.45
379.671	6.36
379.879	6.24
380.088	6.19
380.296	6.05
380.504	5.83
380.712	5.81
380.92	5.57
381.128	5.69
381.336	5.61
381.544	5.82
381.752	5.93
381.96	5.93
382.168	5.83
382.376	5.73
382.584	5.84
382.791	5.94
382.999	5.98
383.207	6.07
383.415	5.96
383.623	5.93
383.831	5.87
384.039	5.72
384.247	5.74
384.454	5.73
384.662	5.71
384.87	5.68
385.078	5.84
385.285	5.56
385.493	5.52
385.701	5.62
385.909	5.46
386.116	5.44
386.324	5.59
386.532	5.59
386.739	5.6
386.947	5.63
387.155	5.76
387.362	5.6
387.57	5.76
387.778	5.72
387.985	5.58
388.193	5.89
388.4	5.86
388.608	5.79
388.816	5.91
389.023	5.94
389.231	5.99
389.438	6
389.646	6.12
389.853	6.25
390.061	6.16
390.268	6.27
390.475	6.13
390.683	6.24
390.89	6.1
391.098	5.92
391.305	6.03
391.512	5.92
391.72	5.79
391.927	5.76
392.135	5.83
392.342	5.98
392.549	5.92
392.756	5.84
392.964	5.72
393.171	5.8
393.378	5.79
393.586	5.79
393.793	5.83
394	5.96
394.207	5.85
394.414	5.7
394.622	5.63
394.829	5.6
395.036	5.6
395.243	5.49
395.45	5.41
395.657	5.46
395.864	5.31
396.072	5.37
396.279	5.3
396.486	5.27
396.693	5.33
396.9	5.41
397.107	5.33
397.314	5.25
397.521	5.37
397.728	5.5
397.935	5.36
398.142	5.16
398.349	4.99
398.556	5
398.763	5.05
398.97	4.91
399.177	4.82
399.383	4.89
399.59	5.21
399.797	5.1
400.004	4.94
400.211	4.94
400.418	5.19
400.625	5.28
400.831	5.15
401.038	4.97
401.245	4.87
401.452	5.06
401.658	4.97
401.865	4.77
402.072	4.68
402.279	4.59
402.485	4.7
402.692	4.66
402.899	4.62
403.105	4.63
403.312	4.75
403.519	4.86
403.725	4.75
403.932	4.88
404.138	4.73
404.345	4.77
404.552	4.94
404.758	4.91
404.965	5.03
405.171	5.09
405.378	5.17
405.584	5.04
405.791	5.05
405.997	5.02
406.204	5.1
406.41	5.35
406.617	5.44
406.823	5.3
407.029	5.45
407.236	5.35
407.442	5.35
407.649	5.42
407.855	5.46
408.061	5.19
408.268	5.12
408.474	4.9
408.68	4.65
408.887	4.68
409.093	4.82
409.299	4.81
409.505	4.84
409.712	4.74
409.918	4.74
410.124	4.9
410.33	5.17
410.537	5.26
410.743	5.48
410.949	5.57
411.155	5.54
411.361	5.53
411.567	5.4
411.773	5.33
411.98	5.46
412.186	5.27
412.392	5.12
412.598	4.99
412.804	4.88
413.01	4.57
413.216	4.53
413.422	4.41
413.628	4.45
413.834	4.45
414.04	4.39
414.246	4.3
414.452	4.33
414.658	4.26
414.864	4.36
415.07	4.37
415.275	4.63
415.481	4.53
415.687	4.73
415.893	4.74
416.099	4.78
416.305	4.71
416.511	4.81
416.716	4.84
416.922	5
417.128	5
417.334	5.02
417.539	4.99
417.745	5
417.951	4.88
418.157	4.74
418.362	4.75
418.568	4.84
418.774	4.8
418.979	4.74
419.185	4.69
419.391	4.64
419.596	4.64
419.802	4.62
420.008	4.75
420.213	5.09
420.419	5.13
420.624	5.07
420.83	5.06
421.035	5.02
421.241	5.03
421.446	5
421.652	4.96
421.857	4.95
422.063	4.89
422.268	4.82
422.474	4.51
422.679	4.51
422.885	4.53
423.09	4.56
423.295	4.58
423.501	4.55
423.706	4.58
423.911	4.63
424.117	4.55
424.322	4.63
424.527	4.65
424.733	4.68
424.938	4.68
425.143	4.69
425.349	4.63
425.554	4.61
425.759	4.67
425.964	4.73
426.169	4.75
426.375	4.8
426.58	4.74
426.785	4.69
426.99	4.63
427.195	4.65
427.4	4.61
427.605	4.62
427.811	4.5
428.016	4.54
428.221	4.5
428.426	4.39
428.631	4.42
428.836	4.51
429.041	4.5
429.246	4.55
429.451	4.47
429.656	4.53
429.861	4.57
430.066	4.71
430.271	4.66
430.476	4.6
430.681	4.56
430.886	4.6
431.09	4.45
431.295	4.65
431.5	4.64
431.705	4.71
431.91	4.75
432.115	4.66
432.32	4.67
432.524	4.69
432.729	4.76
432.934	4.83
433.139	4.76
433.343	4.76
433.548	4.53
433.753	4.41
433.958	4.34
434.162	4.26
434.367	4.24
434.572	4.26
434.776	4.19
434.981	4.09
435.186	4.07
435.39	4.13
435.595	4.18
435.799	4.28
436.004	4.43
436.209	4.4
436.413	4.32
436.618	4.33
436.822	4.24
437.027	4.32
437.231	4.43
437.436	4.51
437.64	4.51
437.845	4.44
438.049	4.46
438.253	4.38
438.458	4.49
438.662	4.59
438.867	4.6
439.071	4.61
439.275	4.52
439.48	4.4
439.684	4.36
439.888	4.29
440.093	4.37
440.297	4.36
440.501	4.4
440.706	4.35
440.91	4.29
441.114	4.29
441.318	4.29
441.523	4.31
441.727	4.35
441.931	4.34
442.135	4.31
442.339	4.24
442.543	4.14
442.748	4.16
442.952	4.17
443.156	4.12
443.36	4.02
443.564	4.13
443.768	4.24
443.972	4.2
444.176	4.24
444.38	4.35
444.584	4.38
444.788	4.47
444.992	4.43
445.196	4.49
445.4	4.5
445.604	4.57
445.808	4.5
446.012	4.43
446.216	4.51
446.42	4.48
446.624	4.38
446.828	4.42
447.032	4.39
447.235	4.35
447.439	4.34
447.643	4.42
447.847	4.41
448.051	4.5
448.254	4.56
448.458	4.53
448.662	4.5
448.866	4.58
449.069	4.47
449.273	4.47
449.477	4.41
449.681	4.31
449.884	4.26
450.088	4.32
450.292	4.26
450.495	4.14
450.699	4.09
450.902	4.09
451.106	3.99
451.31	4.14
451.513	4.15
451.717	4.2
451.92	4.23
452.124	4.22
452.327	4.12
452.531	4.1
452.734	4.08
452.938	4.02
453.141	3.95
453.345	4.07
453.548	3.93
453.752	3.97
453.955	4.05
454.158	4.11
454.362	4.14
454.565	4.13
454.769	4.15
454.972	4.29
455.175	4.37
455.379	4.48
455.582	4.51
455.785	4.57
455.988	4.52
456.192	4.54
456.395	4.48
456.598	4.47
456.801	4.52
457.005	4.45
457.208	4.29
457.411	4.25
457.614	4.29
457.817	4.11
458.021	4.02
458.224	3.98
458.427	3.89
458.63	3.93
458.833	3.88
459.036	3.92
459.239	3.93
459.442	4.01
459.645	3.99
459.848	3.91
460.051	3.97
460.254	4.05
460.457	4.07
460.66	4.08
460.863	3.98
461.066	4.04
461.269	4.06
461.472	4.07
461.675	4.06
461.878	4.09
462.081	4.11
462.284	4.12
462.486	4.01
462.689	3.99
462.892	3.92
463.095	4.03
463.298	4
463.5	3.91
463.703	3.96
463.906	3.92
464.109	3.93
464.311	3.99
464.514	3.96
464.717	4
464.92	4.15
465.122	4.29
465.325	4.23
465.528	4.25
465.73	4.29
465.933	4.23
466.135	4.18
466.338	4.13
466.541	4.1
466.743	4.06
466.946	4.17
467.148	4.12
467.351	4.07
467.553	4.04
467.756	4.07
467.958	4.08
468.161	4.1
468.363	4.14
468.566	4.18
468.768	4.08
468.971	4.05
469.173	3.96
469.375	3.88
469.578	3.99
469.78	3.99
469.983	3.98
470.185	3.85
470.387	3.75
470.59	3.75
470.792	3.81
470.994	3.97
471.196	3.98
471.399	4.13
471.601	4.16
471.803	4.11
472.005	4.15
472.208	4.13
472.41	4.2
472.612	4.15
472.814	4.16
473.016	4.14
473.218	4
473.421	4.03
473.623	3.92
473.825	3.92
474.027	3.92
474.229	3.95
474.431	3.95
474.633	3.98
474.835	4.08
475.037	4.07
475.239	4.13
475.441	4.26
475.643	4.26
475.845	4.28
476.047	4.29
476.249	4.26
476.451	4.32
476.653	4.35
476.855	4.27
477.057	4.27
477.258	4.19
477.46	4.08
477.662	4.04
477.864	4.14
478.066	4.11
478.268	4.04
478.469	4.12
478.671	4.06
478.873	4.03
479.075	4.04
479.276	4.07
479.478	4.09
479.68	4.08
479.882	4.06
480.083	4
480.285	4.06
480.487	4.09
480.688	4.03
480.89	4.05
481.091	4.1
481.293	4.09
481.495	4.09
481.696	4.11
481.898	4.11
482.099	4.12
482.301	4.09
482.502	4.07
482.704	4.08
482.905	4.07
483.107	4.04
483.308	3.99
483.51	4
483.711	3.99
483.913	3.97
484.114	3.96
484.315	3.95
484.517	3.97
484.718	3.96
484.92	3.94
485.121	3.93
485.322	3.96
485.524	3.96
485.725	3.99
485.926	3.98
486.127	3.98
486.329	4.03
486.53	4.03
486.731	4.03
486.932	4.01
487.134	4.04
487.335	4.05
487.536	4.04
487.737	4.06
487.938	4.01
488.139	4
488.341	4.01
488.542	3.99
488.743	4
488.944	3.96
489.145	3.98
489.346	4.02
489.547	4.02
489.748	3.98
489.949	4
490.15	4.01
490.351	4.06
490.552	4.07
490.753	4.06
490.954	4.07
491.155	4.03
491.356	4.03
491.557	3.97
491.758	3.93
491.959	3.94
492.159	3.92
492.36	3.94
492.561	3.93
492.762	3.89
492.963	3.91
493.164	3.91
493.364	3.97
493.565	3.91
493.766	3.95
493.967	3.98
494.167	4.07
494.368	4.14
494.569	4.17
494.769	4.1
494.97	4.2
495.171	4.12
495.371	4.16
495.572	4.17
495.773	4.25
495.973	4.18
496.174	4.26
496.375	4.21
496.575	4.12
496.776	4.12
496.976	4.17
497.177	4.12
497.377	4.1
497.578	4.05
497.778	4.02
497.979	3.96
498.179	3.94
498.38	3.88
498.58	3.88
498.78	3.92
498.981	3.81
499.181	3.81
499.382	3.75
499.582	3.84
499.782	3.79
499.983	3.86
500.183	3.92
500.383	3.92
500.584	3.93
500.784	3.83
500.984	3.84
501.184	3.91
501.385	3.94
501.585	4.17
501.785	4.15
501.985	4.29
502.185	4.33
502.386	4.35
502.586	4.37
502.786	4.36
502.986	4.43
503.186	4.43
503.386	4.53
503.586	4.56
503.786	4.45
503.987	4.47
504.187	4.53
504.387	4.47
504.587	4.46
504.787	4.54
504.987	4.61
505.187	4.61
505.387	4.57
505.587	4.5
505.786	4.59
505.986	4.55
506.186	4.58
506.386	4.51
506.586	4.5
506.786	4.51
506.986	4.51
507.186	4.45
507.386	4.42
507.585	4.42
507.785	4.47
507.985	4.39
508.185	4.4
508.384	4.4
508.584	4.37
508.784	4.48
508.984	4.51
509.183	4.56
509.383	4.6
509.583	4.71
509.782	4.79
509.982	4.81
510.182	4.88
510.381	4.93
510.581	4.98
510.781	4.99
510.98	4.95
511.18	5.01
511.379	5.03
511.579	5.07
511.778	5.07
511.978	5.02
512.177	5.03
512.377	4.99
512.576	5.03
512.776	5.08
512.975	5.13
513.175	5.18
513.374	5.2
513.573	5.24
513.773	5.18
513.972	5.26
514.172	5.35
514.371	5.4
514.57	5.47
514.77	5.51
514.969	5.44
515.168	5.44
515.367	5.47
515.567	5.45
515.766	5.45
515.965	5.53
516.164	5.65
516.364	5.75
516.563	5.76
516.762	5.81
516.961	5.86
517.16	5.95
517.359	6.06
517.559	6.1
517.758	6.21
517.957	6.26
518.156	6.26
518.355	6.24
518.554	6.3
518.753	6.31
518.952	6.32
519.151	6.35
519.35	6.3
519.549	6.31
519.748	6.34
519.947	6.36
520.146	6.4
520.345	6.58
520.544	6.54
520.743	6.45
520.942	6.5
521.141	6.58
521.339	6.68
521.538	6.76
521.737	6.83
521.936	6.92
522.135	6.88
522.333	6.92
522.532	6.81
522.731	6.94
522.93	7.07
523.129	7.13
523.327	7.12
523.526	7.02
523.725	7.1
523.923	7.12
524.122	7.17
524.321	7.24
524.519	7.24
524.718	7.41
524.917	7.48
525.115	7.51
525.314	7.57
525.512	7.63
525.711	7.73
525.909	7.79
526.108	7.88
526.306	7.88
526.505	7.91
526.703	7.99
526.902	8.02
527.1	8.03
527.299	8.05
527.497	8.07
527.696	8.12
527.894	8.17
528.092	8.17
528.291	8.15
528.489	8.18
528.688	8.21
528.886	8.22
529.084	8.22
529.283	8.25
529.481	8.28
529.679	8.3
529.877	8.36
530.076	8.4
530.274	8.46
530.472	8.51
530.67	8.56
530.869	8.62
531.067	8.68
531.265	8.7
531.463	8.8
531.661	8.83
531.859	8.82
532.057	8.82
532.255	8.87
532.454	8.92
532.652	9
532.85	9.01
533.048	9.09
533.246	9.14
533.444	9.2
533.642	9.2
533.84	9.27
534.038	9.39
534.236	9.44
534.434	9.46
534.632	9.51
534.83	9.55
535.027	9.62
535.225	9.6
535.423	9.68
535.621	9.72
535.819	9.8
536.017	9.82
536.215	9.86
536.412	9.95
536.61	9.96
536.808	10.03
537.006	9.99
537.203	10.09
537.401	10.18
537.599	10.22
537.797	10.29
537.994	10.31
538.192	10.4
538.39	10.45
538.587	10.42
538.785	10.52
538.983	10.58
539.18	10.67
539.378	10.71
539.575	10.81
539.773	10.86
539.97	10.89
540.168	10.98
540.366	11.02
540.563	11.01
540.761	11.02
540.958	11.09
541.155	11.1
541.353	11.12
541.55	11.18
541.748	11.17
541.945	11.21
542.143	11.27
542.34	11.26
542.537	11.3
542.735	11.37
542.932	11.43
543.129	11.46
543.327	11.55
543.524	11.69
543.721	11.73
543.919	11.88
544.116	12.01
544.313	12.1
544.51	12.24
544.708	12.4
544.905	12.56
545.102	12.67
545.299	12.73
545.496	12.81
545.693	12.89
545.891	12.97
546.088	12.93
546.285	12.92
546.482	12.92
546.679	12.89
546.876	12.86
547.073	12.78
547.27	12.81
547.467	12.81
547.664	12.73
547.861	12.62
548.058	12.51
548.255	12.46
548.452	12.41
548.649	12.42
548.846	12.39
549.043	12.29
549.24	12.29
549.437	12.24
549.633	12.34
549.83	12.32
550.027	12.31
550.224	12.38
550.421	12.37
550.618	12.29
550.814	12.29
551.011	12.34
551.208	12.24
551.405	12.26
551.601	12.2
551.798	12.11
551.995	12.1
552.191	12.19
552.388	12.13
552.585	12.24
552.781	12.3
552.978	12.24
553.175	12.27
553.371	12.35
553.568	12.3
553.764	12.34
553.961	12.39
554.157	12.4
554.354	12.36
554.55	12.4
554.747	12.21
554.943	12.22
555.14	12.21
555.336	12.22
555.533	12.18
555.729	12.22
555.926	12.25
556.122	12.17
556.318	12.27
556.515	12.23
556.711	12.23
556.907	12.24
557.104	12.31
557.3	12.41
557.496	12.37
557.693	12.42
557.889	12.43
558.085	12.45
558.281	12.4
558.478	12.39
558.674	12.48
558.87	12.61
559.066	12.76
559.262	12.7
559.459	12.59
559.655	12.6
559.851	12.66
560.047	12.67
560.243	12.8
560.439	12.9
560.635	12.9
560.831	12.83
561.027	12.72
561.223	12.73
561.419	12.78
561.615	13
561.811	12.96
562.007	12.95
562.203	12.92
562.399	12.81
562.595	12.86
562.791	12.74
562.987	12.74
563.183	12.78
563.379	12.7
563.575	12.64
563.771	12.48
563.966	12.56
564.162	12.6
564.358	12.59
564.554	12.45
564.75	12.47
564.945	12.66
565.141	12.66
565.337	12.74
565.533	12.83
565.728	12.82
565.924	12.85
566.12	12.8
566.315	12.74
566.511	12.89
566.707	12.99
566.902	12.93
567.098	12.82
567.293	12.9
567.489	12.84
567.684	12.73
567.88	12.8
568.076	12.9
568.271	12.96
568.467	12.96
568.662	12.83
568.858	12.76
569.053	12.8
569.248	12.85
569.444	12.9
569.639	12.86
569.835	12.93
570.03	12.89
570.225	12.83
570.421	12.84
570.616	12.87
570.812	12.95
571.007	13.03
571.202	13.03
571.397	13.06
571.593	12.95
571.788	12.94
571.983	12.81
572.178	12.85
572.374	12.83
572.569	12.81
572.764	12.77
572.959	12.74
573.154	12.8
573.35	12.73
573.545	12.74
573.74	12.78
573.935	12.87
574.13	12.99
574.325	12.99
574.52	13.1
574.715	13.07
574.91	13.1
575.105	13.19
575.3	13.16
575.495	13.14
575.69	13.09
575.885	13.15
576.08	13.13
576.275	13.2
576.47	13.25
576.665	13.15
576.86	13.3
577.055	13.35
577.25	13.42
577.444	13.47
577.639	13.75
577.834	13.79
578.029	13.88
578.224	13.91
578.418	14.07
578.613	13.99
578.808	14
579.003	14.01
579.197	14.13
579.392	13.78
579.587	13.76
579.781	13.58
579.976	13.59
580.171	13.62
580.365	13.58
580.56	13.44
580.755	13.48
580.949	13.56
581.144	13.59
581.338	13.48
581.533	13.73
581.727	13.81
581.922	13.83
582.116	13.95
582.311	13.93
582.505	13.99
582.7	14.03
582.894	14.18
583.089	14.22
583.283	14.14
583.478	14.13
583.672	14.18
583.866	14.26
584.061	14.4
584.255	14.29
584.449	14.29
584.644	14.2
584.838	14.13
585.032	14.26
585.226	14.3
585.421	14.4
585.615	14.47
585.809	14.55
586.003	14.62
586.198	14.69
586.392	14.81
586.586	14.79
586.78	14.87
586.974	14.96
587.168	14.78
587.363	14.68
587.557	14.72
587.751	14.82
587.945	14.74
588.139	14.77
588.333	14.68
588.527	14.62
588.721	14.57
588.915	14.55
589.109	14.59
589.303	14.58
589.497	14.54
589.691	14.5
589.885	14.42
590.079	14.39
590.273	14.19
590.466	14.24
590.66	14.33
590.854	14.43
591.048	14.45
591.242	14.51
591.436	14.49
591.629	14.62
591.823	14.65
592.017	14.64
592.211	14.64
592.404	14.66
592.598	14.64
592.792	14.75
592.986	14.77
593.179	14.78
593.373	14.59
593.567	14.62
593.76	14.68
593.954	14.49
594.147	14.52
594.341	14.63
594.535	14.59
594.728	14.56
594.922	14.32
595.115	14.22
595.309	14.28
595.502	14.27
595.696	14.22
595.889	14.08
596.083	14.17
596.276	14.18
596.47	14.1
596.663	14.16
596.856	14.18
597.05	14.34
597.243	14.46
597.437	14.43
597.63	14.55
597.823	14.73
598.017	14.82
598.21	14.85
598.403	14.83
598.596	14.86
598.79	14.84
598.983	14.87
599.176	14.76
599.369	14.69
599.563	14.77
599.756	14.86
599.949	14.76
600.142	14.81
600.335	14.75
600.528	14.85
600.722	15.04
600.915	15.1
601.108	15.12
601.301	15.31
601.494	15.34
601.687	15.22
601.88	14.98
602.073	15.03
602.266	14.83
602.459	14.91
602.652	14.92
602.845	14.64
603.038	14.72
603.231	14.63
603.424	14.51
603.617	14.51
603.809	14.54
604.002	14.48
604.195	14.47
604.388	14.55
604.581	14.5
604.774	14.51
604.966	14.68
605.159	14.61
605.352	14.68
605.545	14.73
605.737	14.78
605.93	14.9
606.123	15.17
606.316	15.18
606.508	15.24
606.701	15.35
606.894	15.51
607.086	15.43
607.279	15.62
607.471	15.73
607.664	15.95
607.857	15.88
608.049	15.98
608.242	16.06
608.434	16.34
608.627	16.68
608.819	17.1
609.012	17.48
609.204	18.02
609.397	18.47
609.589	19.05
609.782	19.67
609.974	20.54
610.166	21.13
610.359	21.84
610.551	22.32
610.743	22.86
610.936	23.36
611.128	23.55
611.32	23.75
611.513	23.77
611.705	23.61
611.897	23.52
612.09	23.2
612.282	22.82
612.474	22.63
612.666	22.4
612.858	22.05
613.051	21.49
613.243	21.4
613.435	21.08
613.627	20.94
613.819	20.73
614.011	20.6
614.203	20.34
614.395	20.1
614.588	19.68
614.78	19.56
614.972	19.17
615.164	18.85
615.356	18.42
615.548	18.17
615.74	17.93
615.932	17.73
616.124	17.07
616.315	16.96
616.507	17.03
616.699	16.87
616.891	16.66
617.083	16.68
617.275	16.64
617.467	16.54
617.659	16.54
617.85	16.31
618.042	16.35
618.234	16.29
618.426	16.09
618.618	15.97
618.809	15.99
619.001	15.94
619.193	15.95
619.384	15.93
619.576	16.12
619.768	16
619.959	16.34
620.151	16.31
620.343	16.37
620.534	16.49
620.726	16.5
620.917	16.24
621.109	16.3
621.301	16.31
621.492	16.38
621.684	16.31
621.875	16.57
622.067	16.15
622.258	16.21
622.45	16.35
622.641	16.42
622.832	16.46
623.024	16.7
623.215	16.57
623.407	16.41
623.598	16.48
623.789	16.35
623.981	16.24
624.172	16.4
624.363	16.32
624.555	16.33
624.746	16.09
624.937	15.96
625.129	15.89
625.32	15.88
625.511	16.03
625.702	15.95
625.893	15.83
626.085	15.84
626.276	15.82
626.467	15.77
626.658	15.71
626.849	15.69
627.04	15.9
627.231	15.97
627.422	16.12
627.614	16.03
627.805	16.07
627.996	16.23
628.187	16.23
628.378	16.31
628.569	16.41
628.76	16.48
628.951	16.73
629.142	16.7
629.332	16.82
629.523	16.86
629.714	16.96
629.905	17.16
630.096	17.3
630.287	17.4
630.478	17.51
630.669	17.26
630.859	17.38
631.05	17.34
631.241	17.18
631.432	17.19
631.623	16.99
631.813	16.87
632.004	16.52
632.195	16.49
632.385	16.2
632.576	16.07
632.767	16.27
632.957	16.01
633.148	15.94
633.339	15.78
633.529	15.45
633.72	15.49
633.91	15.33
634.101	15.16
634.292	15.04
634.482	15.18
634.673	15.32
634.863	15.28
635.054	15.24
635.244	14.93
635.435	15.07
635.625	15.14
635.815	15.09
636.006	15.16
636.196	15.47
636.387	15.35
636.577	15.37
636.767	15.18
636.958	15.05
637.148	15.25
637.338	15.52
637.529	15.56
637.719	15.6
637.909	15.58
638.099	15.81
638.29	15.68
638.48	15.71
638.67	15.45
638.86	15.42
639.05	15.4
639.241	15.12
639.431	15.07
639.621	15.03
639.811	15.06
640.001	15
640.191	14.97
640.381	15.09
640.571	15.03
640.761	15.01
640.951	14.94
641.141	15.17
641.331	15.52
641.521	15.59
641.711	15.62
641.901	15.55
642.091	15.68
642.281	15.73
642.471	15.6
642.661	15.6
642.851	15.96
643.041	16.04
643.231	15.95
643.42	15.81
643.61	15.82
643.8	15.78
643.99	15.74
644.18	15.82
644.369	15.83
644.559	15.95
644.749	16.12
644.939	15.91
645.128	16.09
645.318	15.93
645.508	15.94
645.697	15.86
645.887	15.83
646.076	15.82
646.266	15.72
646.456	15.54
646.645	15.41
646.835	15.44
647.024	15.55
647.214	15.34
647.403	15.41
647.593	15.37
647.782	15.35
647.972	15.35
648.161	15.37
648.351	15.33
648.54	15.44
648.73	15.63
648.919	15.64
649.108	15.66
649.298	15.73
649.487	15.94
649.677	15.98
649.866	16.17
650.055	16.16
650.244	16.33
650.434	16.47
650.623	16.33
650.812	16.19
651.002	16.32
651.191	16.17
651.38	16.13
651.569	16.08
651.758	15.98
651.947	15.87
652.137	15.87
652.326	15.72
652.515	15.82
652.704	16
652.893	15.97
653.082	15.93
653.271	16.19
653.46	16.34
653.649	16.42
653.838	16.61
654.027	16.55
654.216	16.66
654.405	16.84
654.594	16.44
654.783	16.36
654.972	16.77
655.161	16.52
655.35	16.26
655.539	16.34
655.728	16.31
655.916	16.33
656.105	16.44
656.294	16.18
656.483	16.09
656.672	16.21
656.86	16.01
657.049	15.79
657.238	15.91
657.427	15.87
657.615	15.6
657.804	15.46
657.993	15.62
658.181	15.63
658.37	16
658.559	16.03
658.747	15.9
658.936	16.01
659.125	15.88
659.313	15.94
659.502	15.98
659.69	16.23
659.879	16.38
660.067	16.12
660.256	16.12
660.444	15.75
660.633	15.68
660.821	16.07
661.01	16.28
661.198	16.27
661.387	16.41
661.575	16.61
661.763	16.61
661.952	16.28
662.14	16.51
662.328	16.48
662.517	16.84
662.705	16.93
662.893	16.71
663.082	16.59
663.27	16.61
663.458	16.19
663.646	16.05
663.834	15.86
664.023	16.06
664.211	15.67
664.399	15.66
664.587	15.5
664.775	15.56
664.963	15.36
665.152	15.46
665.34	15.57
665.528	15.81
665.716	15.62
665.904	15.82
666.092	16.05
666.28	16.21
666.468	16.17
666.656	16.23
666.844	16.17
667.032	16.42
667.22	16.33
667.408	16.44
667.596	16.16
667.784	16.71
667.971	16.63
668.159	16.5
668.347	16.68
668.535	16.73
668.723	16.77
668.911	16.75
669.098	16.84
669.286	16.59
669.474	16.36
669.662	16.37
669.849	16.02
670.037	16
670.225	15.78
670.413	15.48
670.6	15.49
670.788	15.25
670.976	14.92
671.163	14.64
671.351	14.86
671.538	14.81
671.726	15.08
671.913	15.06
672.101	14.81
672.289	15.16
672.476	15.27
672.664	15.45
672.851	15.68
673.039	15.72
673.226	15.89
673.413	15.83
673.601	16.27
673.788	16.31
673.976	16.19
674.163	16.33
674.35	16.5
674.538	16.38
674.725	16.11
674.912	16.04
675.1	16.31
675.287	16.55
675.474	16.55
675.662	16.33
675.849	16.3
676.036	16.51
676.223	16.49
676.411	16.2
676.598	16.47
676.785	16.81
676.972	16.69
677.159	16.7
677.346	16.35
677.533	16.48
677.721	16.28
677.908	16.13
678.095	16.11
678.282	16.3
678.469	16.22
678.656	16.25
678.843	16.28
679.03	16.55
679.217	16.46
679.404	16.4
679.591	16.37
679.778	16.37
679.964	16.48
680.151	16.65
680.338	16.49
680.525	16.49
680.712	16.53
680.899	16.43
681.086	16.28
681.272	16.42
681.459	16.69
681.646	16.68
681.833	16.87
682.02	16.75
682.206	16.52
682.393	16.64
682.58	16.95
682.766	16.8
682.953	16.65
683.14	16.7
683.326	16.57
683.513	16.31
683.7	16.39
683.886	16.37
684.073	16.38
684.259	16.53
684.446	16.51
684.632	16.56
684.819	16.45
685.005	16.46
685.192	16.49
685.378	16.63
685.565	16.56
685.751	16.27
685.938	16.44
686.124	16.72
686.31	16.66
686.497	16.45
686.683	15.89
686.87	16.21
687.056	16.42
687.242	16.45
687.429	16.32
687.615	16.49
687.801	16.62
687.987	16.37
688.174	16.53
688.36	16.51
688.546	16.74
688.732	17.35
688.918	17.22
689.105	16.97
689.291	16.91
689.477	17.15
689.663	17.55
689.849	17.66
690.035	17.48
690.221	17.55
690.407	17.27
690.593	17.43
690.779	17.18
690.965	17.02
691.151	17.15
691.337	17.15
691.523	17.08
691.709	16.64
691.895	16.71
692.081	17.31
692.267	16.8
692.453	17.24
692.639	17.14
692.825	17.04
693.011	17.4
693.196	17.19
693.382	16.94
693.568	16.92
693.754	17.02
693.94	17.12
694.125	16.87
694.311	17.2
694.497	17.04
694.682	16.79
694.868	16.42
695.054	16.12
695.239	16.23
695.425	16.42
695.611	16.17
695.796	16.08
695.982	16.05
696.168	15.87
696.353	15.8
696.539	15.84
696.724	15.89
696.91	16.26
697.095	16.5
697.281	16.51
697.466	16.25
697.652	16.44
697.837	16.52
698.023	16.28
698.208	16.35
698.393	16.13
698.579	15.98
698.764	15.95
698.949	15.82
699.135	15.59
699.32	15.88
699.505	16.3
699.691	16.24
699.876	16.2
700.061	16.39
700.246	16.33
700.432	16.67
700.617	16.94
700.802	17
700.987	17.23
701.172	17.15
701.358	16.94
701.543	16.55
701.728	16.73
701.913	16.93
702.098	16.97
702.283	17.1
702.468	16.86
702.653	16.88
702.838	17.06
703.023	17.11
703.208	17.52
703.393	17.27
703.578	17.51
703.763	17.23
703.948	17.21
704.133	17.23
704.318	17.31
704.503	17.62
704.688	18.06
704.873	18.1
705.057	18.27
705.242	18.7
705.427	18.96
705.612	19.33
705.797	19.66
705.981	19.66
706.166	19.7
706.351	19.83
706.536	19.99
706.72	19.7
706.905	19.81
707.09	19.68
707.274	19.89
707.459	19.92
707.644	19.68
707.828	19.99
708.013	20.48
708.197	20.47
708.382	20.81
708.567	20.55
708.751	20.53
708.936	20.27
709.12	20.41
709.305	19.85
709.489	20
709.673	20.16
709.858	19.57
710.042	19.36
710.227	19.43
710.411	19.32
710.596	19.54
710.78	19.69
710.964	19.94
711.149	19.63
711.333	19.73
711.517	19.88
711.702	19.77
711.886	19.87
712.07	19.81
712.254	19.69
712.438	19.35
712.623	19.11
712.807	18.7
712.991	18.4
713.175	18.54
713.359	18.61
713.544	18.03
713.728	17.7
713.912	18
714.096	17.54
714.28	17.51
714.464	17.56
714.648	17.31
714.832	17.39
715.016	17.78
715.2	17.8
715.384	17.74
715.568	17.5
715.752	17.65
715.936	17.52
716.12	17.87
716.304	18.01
716.488	17.83
716.671	17.58
716.855	17.58
717.039	17.02
717.223	16.89
717.407	16.69
717.59	17.13
717.774	17.36
717.958	17.33
718.142	17.03
718.325	16.54
718.509	16.85
718.693	17.38
718.877	17.33
719.06	17.84
719.244	18.13
719.428	18.04
719.611	18.13
719.795	17.71
719.978	17.76
720.162	17.81
720.345	18.13
720.529	18.21
720.713	18.18
720.896	18.28
721.08	18.35
721.263	18.23
721.446	18.2
721.63	18.22
721.813	18.57
721.997	17.58
722.18	17.12
722.364	16.7
722.547	15.97
722.73	15.45
722.914	14.99
723.097	14.52
723.28	14.37
723.464	14.83
723.647	15.09
723.83	15.17
724.013	16.1
724.197	16.48
724.38	16.9
724.563	17.19
724.746	17.89
724.929	17.73
725.112	17.44
725.296	17.27
725.479	17.11
725.662	17.11
725.845	16.62
726.028	16.48
726.211	16.69
726.394	16.78
726.577	17.22
726.76	17.14
726.943	17.49
727.126	18.01
727.309	18.27
727.492	18.26
727.675	17.81
727.858	18.31
728.041	18.23
728.224	18.08
728.407	17.97
728.589	17.55
728.772	17.25
728.955	17.39
729.138	17.06
729.321	16.9
729.503	16.86
729.686	17.46
729.869	17.42
730.052	17.05
730.234	17.49
730.417	17.82
730.6	18.2
730.782	18.56
730.965	18.82
731.148	18.93
731.33	19.04
731.513	18.84
731.695	18.29
731.878	18.28
732.061	18.9
732.243	18.77
732.426	18.56
732.608	18.06
732.791	17.95
732.973	18.09
733.156	18.29
733.338	18.08
733.52	18.31
733.703	18.06
733.885	17.82
734.068	17.74
734.25	17.81
734.432	17.43
734.615	17.75
734.797	17.99
734.979	17.51
735.162	17.59
735.344	18.11
735.526	18.2
735.708	18.76
735.891	18.61
736.073	18.82
736.255	18.79
736.437	19.28
736.619	19.19
736.802	19.23
736.984	19.13
737.166	18.76
737.348	18.38
737.53	18.21
737.712	18.32
737.894	18.54
738.076	18.14
738.258	17.57
738.44	17.25
738.622	17.52
738.804	16.72
738.986	17.31
739.168	17.7
739.35	18.31
739.532	18.51
739.714	18.45
739.896	18.2
740.078	18.46
740.259	19.21
740.441	19.16
740.623	19.18
740.805	19.86
740.987	19.08
741.168	19.28
741.35	18.59
741.532	18.36
741.714	18.31
741.895	18.78
742.077	19.04
742.259	18.27
742.44	18.49
742.622	18.74
742.804	18.66
742.985	19.16
743.167	18.99
743.348	18.81
743.53	18.84
743.711	18.65
743.893	18.74
744.075	18.05
744.256	18.56
744.438	18.87
744.619	18.2
744.8	18.56
744.982	18.76
745.163	18.72
745.345	18.58
745.526	19.07
745.707	19.11
745.889	18.93
746.07	19.56
746.252	19.3
746.433	19.6
746.614	19.85
746.795	19.01
746.977	19.06
747.158	18.88
747.339	18.93
747.52	18.19
747.702	18.75
747.883	19.07
748.064	19.24
748.245	19.17
748.426	18.95
748.607	18.71
748.788	18.81
748.97	18.48
749.151	18.3
749.332	18.48
749.513	18.47
749.694	17.98
749.875	17.84
750.056	17.33
750.237	17.87
750.418	17.56
750.599	17.41
750.78	17.53
750.96	18.15
751.141	18.13
751.322	18
751.503	18.42
751.684	18.73
751.865	18.16
752.046	17.94
752.226	17.76
752.407	17.75
752.588	18.08
752.769	18.5
752.949	17.74
753.13	18.66
753.311	18.67
753.492	18.41
753.672	17.96
753.853	17.91
754.034	17.77
754.214	17.52
754.395	17.34
754.575	17.73
754.756	17.39
754.937	17.34
755.117	16.71
755.298	17.32
755.478	17.14
755.659	17.73
755.839	17.53
756.02	17.53
756.2	17.74
756.381	17.88
756.561	17.63
756.741	18.28
756.922	18.18
757.102	18.54
757.283	19.13
757.463	19.2
757.643	19.02
757.823	19.66
758.004	20.01
758.184	20.23
758.364	20.04
758.545	19.75
758.725	19.25
758.905	19.66
759.085	19.57
759.265	18.15
759.446	18.77
759.626	18.64
759.806	19.14
759.986	19.2
760.166	19.03
760.346	18.68
760.526	18.92
760.706	18.62
760.886	18.74
761.066	18.06
761.246	18.22
761.426	17.45
761.606	17.55
761.786	16.52
761.966	16.15
762.146	16.09
762.326	16.58
762.506	16.14
762.686	16.5
762.866	16.05
763.046	16.39
763.225	16.95
763.405	17.78
763.585	17.69
763.765	18.37
763.945	18.19
764.124	17.69
764.304	17.68
764.484	17.41
764.664	17.07
764.843	17
765.023	16.88
765.203	16.45
765.382	15.39
765.562	15.47
765.741	15.18
765.921	15.75
766.101	16.89
766.28	17.24
766.46	18.16
766.639	18.68
766.819	19.06
766.998	19.22
767.178	19.73
767.357	20.34
767.537	20.29
767.716	19.89
767.896	20.43
768.075	20
768.254	19.73
768.434	20.19
768.613	19.76
768.792	20.04
768.972	20.04
769.151	19.81
769.33	20.23
769.51	20.05
769.689	20.02
769.868	19.17
770.047	19.66
770.226	19.96
770.406	18.95
770.585	19.96
770.764	19.68
770.943	19.86
771.122	20.49
771.301	19.61
771.48	20.1
771.66	20.35
771.839	20.72
772.018	20.46
772.197	19.57
772.376	20.51
772.555	19.93
772.734	20.22
772.913	19.7
773.092	19.14
773.271	19.71
773.449	20.08
773.628	20.42
773.807	20.35
773.986	19.9
774.165	20.7
774.344	20.57
774.523	21.01
774.701	21.08
774.88	21.52
775.059	21.87
775.238	21.72
775.417	20.93
775.595	21.61
775.774	21.05
775.953	20.96
776.131	20.51
776.31	19.77
776.489	19.87
776.667	19.71
776.846	20.32
777.025	20.34
777.203	20.2
777.382	20
777.56	19.3
777.739	20.11
777.917	20.42
778.096	20.51
778.274	21.08
778.453	20.67
778.631	21.06
778.81	20.22
778.988	20.17
779.166	20.47
779.345	20.46
779.523	20.3
779.702	20.46
779.88	20.2
780.058	20.06
780.237	18.75
780.415	18.4
780.593	18.29
780.771	18.95
780.95	18.96
781.128	19.11
781.306	19.05
781.484	19.76
781.662	19.09
781.841	19.52
782.019	19.06
782.197	19.64
782.375	19.64
782.553	19.39
782.731	19
782.909	18.76
783.087	18.98
783.265	19.78
783.443	18.8
783.621	18.78
783.799	18.7
783.977	18.51
784.155	18.85
784.333	20.01
784.511	20.01
784.689	19.81
784.867	19.88
785.045	20.21
785.223	19.4
785.4	19.25
785.578	19.02
785.756	19.71
785.934	20.72
786.112	21.48
786.289	20.55
786.467	21.12
786.645	21.6
786.823	21.57
787	21.11
787.178	22.33
787.356	22.74
787.533	21.91
787.711	21.3
787.889	21.08
788.066	20.34
788.244	20.18
788.421	19.8
788.599	20.17
788.776	19.56
788.954	19.42
789.131	18.09
789.309	18.06
789.486	20
789.664	19.56
789.841	18.91
790.019	19.13
790.196	19.7
790.373	19.5
790.551	19.14
790.728	18.79
790.906	18.86
791.083	19.29
791.26	20.01
791.437	19.61
791.615	19.71
791.792	20.78
791.969	21.5
792.146	20.48
792.324	20.96
792.501	20.45
792.678	21.42
792.855	21.3
793.032	21.22
793.209	20.12
793.387	19.43
793.564	20.35
793.741	20.34
793.918	19.65
794.095	20.46
794.272	20.02
794.449	20.7
794.626	21.05
794.803	21.45
794.98	22.11
795.157	22.49
795.334	22.7
795.511	21.75
795.688	21.41
795.864	20.64
796.041	19.83
796.218	19.37
796.395	19.4
796.572	19.35
796.749	18.89
796.925	18.04
797.102	17.63
797.279	17.29
797.456	17.62
797.632	18.31
797.809	19.03
797.986	18.91
798.162	19.02
798.339	19.14
798.516	18.77
798.692	19.05
798.869	18.92
799.046	19.88
799.222	21.17
799.399	20.57
799.575	19.65
799.752	19.11
799.928	19.24
800.105	20.04
800.281	19.49
800.458	20.36
800.634	20.06
800.811	21.28
800.987	21.25
801.163	20.45
801.34	20.7
801.516	21.89
801.692	22.63
801.869	23.03
802.045	23.09
802.221	23.21
802.398	21.85
802.574	22.17
802.75	21.14
802.926	21.43
803.103	20.3
803.279	20.3
803.455	18.77
803.631	19.45
803.807	18.73
803.983	18.21
804.16	17.87
804.336	19.06
804.512	18.07
804.688	18.57
804.864	17.35
805.04	18.03
805.216	19.13
805.392	19.53
805.568	18.97
805.744	20.24
805.92	19.94
806.096	21.24
806.272	22.01
806.448	22.92
806.623	22.93
806.799	22.78
806.975	22.89
807.151	22.83
807.327	23.41
807.503	24.04
807.678	24.39
807.854	24.03
808.03	23.87
808.206	22.37
808.381	22.77
808.557	23.48
808.733	23.44
808.908	24.86
809.084	24.93
809.26	24.6
809.435	23.94
809.611	25.04
809.787	25.52
809.962	24.83
810.138	25.27
810.313	25.99
810.489	24.73
810.664	24.73
810.84	24.66
811.015	23.91
811.191	24.44
811.366	23.9
811.542	22.56
811.717	22.41
811.892	23.04
812.068	24.04
812.243	21.91
812.419	23.4
812.594	23.69
812.769	21.87
812.944	20.53
813.12	18.65
813.295	18.35
813.47	18.39
813.645	17.57
813.821	16.09
813.996	15.13
814.171	16.09
814.346	14.57
814.521	14.5
814.697	14.65
814.872	14.32
815.047	14.34
815.222	14.75
815.397	13.38
815.572	13.65
815.747	13.73
815.922	13.46
816.097	13.44
816.272	14.97
816.447	15.05
816.622	16.23
816.797	18.45
816.972	19.85
817.147	19.09
817.322	21.03
817.496	20.69
817.671	20.36
817.846	19.92
818.021	19.56
818.196	18.82
818.371	18.07
818.545	17.6
818.72	17.89
818.895	17.42
819.069	17.2
819.244	16.34
819.419	17.26
819.594	18.11
819.768	18.84
819.943	18.56
820.117	18.14
820.292	18.52
820.467	17.96
820.641	17.51
820.816	17.38
820.99	17.62
821.165	17.06
821.339	16.88
821.514	16.74
821.688	16.27
821.863	16.43
822.037	16.54
822.212	16.93
822.386	17
822.56	16.98
822.735	17.14
822.909	17.21
823.084	17.42
823.258	17.54
823.432	17.57
823.606	17.94
823.781	17.71
823.955	17.91
824.129	17.74
824.303	17.73
824.478	17.45
824.652	17.53
824.826	17.33
825	17.6
825.174	17.19
825.348	17.07
825.523	16.71
825.697	17.37
825.871	17.31
826.045	17.23
826.219	17.44
826.393	17.58
826.567	17.29
826.741	17.03
826.915	17.25
827.089	17.75
827.263	17.91
827.437	17.8
827.611	17.58
827.784	17.14
827.958	16.94
828.132	16.81
828.306	16.92
828.48	17.09
828.654	17.82
828.827	17.07
829.001	16.73
829.175	16.66
829.349	17
829.522	17.37
829.696	17.17
829.87	17.63
830.044	17.49
830.217	17.87
830.391	17.59
830.565	18.06
830.738	17.7
830.912	18.56
831.085	18.85
831.259	18.48
831.432	18.4
831.606	19.64
831.779	19.98
831.953	19.62
832.126	19.45
832.3	19.11
832.473	18.62
832.647	18.97
832.82	17.8
832.994	18.06
833.167	18.15
833.34	17.36
833.514	17.73
833.687	17.55
833.86	18.14
834.034	18.16
834.207	19.1
834.38	19.19
834.553	20.11
834.727	20.19
834.9	19.87
835.073	20.25
835.246	21.03
835.419	20.38
835.593	19.83
835.766	20.03
835.939	20.1
836.112	19.34
836.285	19.62
836.458	17.92
836.631	18.86
836.804	19.7
836.977	19.24
837.15	19.01
837.323	19.22
837.496	19.4
837.669	18.56
837.842	20.33
838.015	20.88
838.188	20.42
838.361	21.74
838.533	21.97
838.706	22.08
838.879	23.11
839.052	20.67
839.225	21.35
839.398	22.43
839.57	23.14
839.743	21.55
839.916	21.84
840.088	22.62
840.261	22.05
840.434	21.43
840.607	21.63
840.779	22.56
840.952	24.05
841.124	24.13
841.297	24.49
841.47	23.96
841.642	25.93
841.815	25.08
841.987	23.77
842.16	24.7
842.332	26.69
842.505	27.15
842.677	26.84
842.85	26.91
843.022	27.8
843.194	29.04
843.367	30.3
843.539	31.29
843.712	31.05
843.884	32.75
844.056	33.7
844.229	31.6
844.401	31.96
844.573	29.77
844.745	31.53
844.918	29.01
845.09	29.14
845.262	28.73
845.434	24.2
845.606	24.04
845.779	22.98
845.951	21.56
846.123	19.71
846.295	17.12
846.467	18.93
846.639	18.73
846.811	19.7
846.983	17.86
847.155	17.36
847.327	18.03
847.499	21.6
847.671	23.71
847.843	20.41
848.015	22.6
848.187	22.89
848.359	20.83
848.531	20.05
848.703	21.62
848.875	22.21
849.047	20.36
849.218	21.87
849.39	21.01
849.562	19.86
849.734	24.8
849.905	24.8
850.077	25
850.249	24.97
850.421	26.21
850.592	25.24
850.764	23.52
850.936	24.32
851.107	22.37
851.279	20.73
851.451	16.57
851.622	16.45
851.794	17.65
851.965	14.59
852.137	20.2
852.308	19.71
852.48	21.29
852.651	21.09
852.823	24.5
852.994	24.63
853.166	23.49
853.337	26.37
853.509	26.61
853.68	27.59
853.851	27.63
854.023	23.7
854.194	24.41
854.365	26.71
854.537	27.14
854.708	25.67
854.879	26.4
855.05	25.89
855.222	28.4
855.393	29.52
855.564	27.45
855.735	32.59
855.906	36.45
856.078	35.19
856.249	29.95
856.42	33.06
856.591	30.27
856.762	32.65
856.933	32.68
857.104	29.46
857.275	27.96
857.446	27.74
857.617	28.45
857.788	25.49
857.959	26.45
858.13	28.32
858.301	27.62
858.472	31.09
858.643	31.5
858.814	35.64
858.985	35.1
859.155	34.56
859.326	36.16
859.497	30
859.668	30.3
859.839	25.91
860.009	25.67
860.18	25.57
860.351	23.62
860.522	19.03
860.692	17.68
860.863	18.17
861.034	19.61
861.204	18.06
861.375	23.98
861.546	22.33
861.716	24.19
861.887	24.72
862.057	23.11
862.228	24.85
862.398	24.23
862.569	28.07
862.739	29.96
862.91	25.86
863.08	26.11
863.251	27.38
863.421	27.32
863.592	29.01
863.762	27.8
863.932	26.13
864.103	23.46
864.273	24.92
864.443	18.34
864.614	16.51
864.784	24.08
864.954	21.81
865.125	22.02
865.295	25.95
865.465	25.56
865.635	26.36
865.805	26.93
865.976	26.82
866.146	28.02
866.316	26.95
866.486	30.47
866.656	22.71
866.826	22.93
866.996	21.17
867.166	23.05
867.336	22.26
867.506	21.23
867.676	18.58
867.846	16.66
868.016	15.12
868.186	17.51
868.356	13.49
868.526	18.98
868.696	17.78
868.866	18.04
869.036	9.92
869.206	7.65
869.376	7.91
869.545	13.2
869.715	18.58
869.885	23
870.055	21.01
870.224	19.67
870.394	19.73
870.564	20.16
870.734	21.06
870.903	21.38
871.073	21.47
871.243	25.35
871.412	24.35
871.582	22.01
871.751	19.3
871.921	19.88
872.091	24.78
872.26	21.22
872.43	24.06
872.599	17.96
872.769	17.9
872.938	18.87
873.108	15.95
873.277	14.45
873.446	15.75
873.616	17.64
873.785	17.86
873.955	14.65
874.124	14.31
874.293	16.58
874.463	20.92
874.632	23.91
874.801	23.79
874.971	24.8
875.14	25.18
875.309	28.35
875.478	28.62
875.647	28.04
875.817	27.97
875.986	32.86
876.155	29.73
876.324	33.17
876.493	36.08
876.662	35.36
876.831	34.74
877	34.24
877.17	28.79
877.339	27.82
877.508	28.24
877.677	30.11
877.846	28.06
878.015	27.22
878.184	24.72
878.352	22.77
878.521	22.83
878.69	23.09
878.859	24.31
879.028	25.31
879.197	27.93
879.366	28.05
879.534	26.5
879.703	23.96
879.872	24.9
880.041	24.12
880.21	21.79
880.378	21.65
880.547	20.31
880.716	19.65
880.884	20.04
881.053	18.35
881.222	19.41
881.39	19.49
881.559	20.62
881.727	19.93
881.896	19.71
882.065	19.38
882.233	19.45
882.402	19.34
882.57	19.63
882.739	19.22
882.907	19.65
883.076	18.94
883.244	18.96
883.412	18.06
883.581	17.95
883.749	18.5
883.918	18.28
884.086	17.78
884.254	18.51
884.423	18.2
884.591	18.42
884.759	17.08
884.927	16.92
885.096	15.42
885.264	15.66
885.432	16.72
885.6	16.17
885.769	17.65
885.937	17.96
886.105	16.16
886.273	17.55
886.441	16.7
886.609	14.88
886.777	16.82
886.945	17
887.113	17.89
887.281	15.96
887.449	14.47
887.617	13.6
887.785	14.23
887.953	17.37
888.121	15.47
888.289	18.19
888.457	22.2
888.625	20.18
888.793	19.24
888.961	18.78
889.129	20.2
889.296	19.6
889.464	20.17
889.632	21.12
889.8	18.12
889.967	17.17
890.135	14.74
