Data from 2938815__Reflection_03.txt Node
Date: Thu Mar 12 15:43:20 EDT 2015
User: robert
Spectrometer: USB4E03002
Autoset integration time: false
Trigger mode: 4
Integration Time (sec): 1.000000E-1
Scans to average: 10
Electric dark correction enabled: false
Nonlinearity correction enabled: false
Boxcar width: 5
Stray light correction enabled: false
XAxis mode: Wavelengths
Stop averaging: false
Number of Pixels in Spectrum: 3648
>>>>>Begin Spectral Data<<<<<
177.575	-1285.71
177.794	-1009.23
178.014	-694.35
178.233	-3103.23
178.452	1583.33
178.672	-4525.81
178.891	-840.31
179.11	-902.59
179.33	-1089.16
179.549	-1245.27
179.768	-8713.64
179.987	-6682.14
180.207	-1168.48
180.426	2931.25
180.645	-1868.04
180.864	-1526.27
181.084	2992.19
181.303	1111.43
181.522	6115.62
181.741	0
181.96	45625
182.179	-7266.67
182.398	-3820
182.618	1908.42
182.837	-2295.95
183.056	-3040.68
183.275	-2781.97
183.494	-5009.09
183.713	2800
183.932	1066.21
184.151	1025.5
184.37	432.72
184.589	371.98
184.808	314.81
185.027	242.25
185.246	282.55
185.465	221.95
185.684	249.16
185.903	295.99
186.122	360.59
186.341	389.24
186.56	383.13
186.779	410.02
186.998	581.79
187.216	517.68
187.435	818.06
187.654	660.75
187.873	1011.11
188.092	854.85
188.311	561.08
188.53	442.82
188.748	393.15
188.967	426.42
189.186	876
189.405	455.17
189.623	489.74
189.842	580.43
190.061	555.97
190.28	588.17
190.498	582.13
190.717	1202.41
190.936	1641.67
191.154	1149.72
191.373	972
191.592	1600.85
191.81	-59933.33
192.029	-1254.41
192.248	-593.36
192.466	-400.62
192.685	-515.88
192.904	-443.75
193.122	-357.55
193.341	-397.92
193.559	-404.23
193.778	-316.87
193.996	-1926.15
194.215	3892.11
194.433	521.07
194.652	362.34
194.87	327.78
195.089	401.46
195.307	469.61
195.526	362.5
195.744	326.58
195.963	284.64
196.181	336.87
196.399	347.81
196.618	333.71
196.836	419.41
197.055	693.1
197.273	544.76
197.491	436.18
197.71	279.42
197.928	281.2
198.146	304.84
198.365	517.81
198.583	543.57
198.801	606.51
199.019	754.26
199.238	561.18
199.456	393.43
199.674	495.47
199.892	591.04
200.111	684.07
200.329	512.19
200.547	410.22
200.765	363.77
200.983	379.58
201.202	363.65
201.42	321.21
201.638	392.05
201.856	447.36
202.074	355.16
202.292	318.55
202.51	623.21
202.728	715.56
202.946	946.02
203.165	595.09
203.383	597.89
203.601	621.54
203.819	919.53
204.037	734.78
204.255	571.75
204.473	692.48
204.691	2718.18
204.909	590.24
205.127	698.23
205.345	486.42
205.562	310.16
205.78	294.65
205.998	260.03
206.216	227.94
206.434	212.6
206.652	203.21
206.87	209.95
207.088	197.41
207.306	178.64
207.523	168.16
207.741	161.89
207.959	251.37
208.177	254.94
208.395	261.48
208.612	260.75
208.83	311.1
209.048	400.85
209.266	391.9
209.483	267.7
209.701	283.04
209.919	309.26
210.136	426.35
210.354	326.39
210.572	301.18
210.79	270.07
211.007	286.97
211.225	244.07
211.442	189.95
211.66	176.53
211.878	184.35
212.095	163.13
212.313	153.98
212.53	158.84
212.748	157.03
212.966	150.42
213.183	162.87
213.401	171.48
213.618	182.31
213.836	203.87
214.053	204.54
214.271	233.54
214.488	264.15
214.705	256.65
214.923	213.84
215.14	218.25
215.358	219.25
215.575	239.65
215.793	202.93
216.01	196.77
216.227	190.33
216.445	205.05
216.662	192.86
216.879	197.2
217.097	202.03
217.314	206.83
217.531	208.16
217.749	212.98
217.966	185.04
218.183	198.35
218.4	188.4
218.618	189.92
218.835	181.62
219.052	172.65
219.269	158.43
219.487	146.39
219.704	145.82
219.921	151.79
220.138	141.15
220.355	142.54
220.572	130.13
220.79	123.8
221.007	117.91
221.224	110.78
221.441	105.96
221.658	100.72
221.875	95.75
222.092	86.24
222.309	78.08
222.526	80.99
222.743	77.79
222.96	70.15
223.177	71.56
223.394	64.37
223.611	67.44
223.828	68.36
224.045	68.54
224.262	73.4
224.479	71.58
224.696	68.02
224.913	63.49
225.13	61.58
225.347	59.18
225.564	56.43
225.781	55.2
225.997	52.5
226.214	45.9
226.431	44.93
226.648	38.48
226.865	36.92
227.082	33
227.298	29
227.515	26.71
227.732	24.62
227.949	22.99
228.165	21.29
228.382	20.27
228.599	19.74
228.816	18.27
229.032	17.19
229.249	16.89
229.466	16.87
229.682	17.49
229.899	17.29
230.116	17.49
230.332	18
230.549	18.26
230.765	18.63
230.982	19.21
231.199	20.31
231.415	22.48
231.632	22.21
231.848	23.52
232.065	23.9
232.281	25.15
232.498	25.72
232.714	25.68
232.931	26.31
233.147	26.89
233.364	27.3
233.58	25.81
233.797	25.7
234.013	26.83
234.23	26.1
234.446	25.56
234.662	24.55
234.879	24.66
235.095	23.96
235.312	23.93
235.528	24.16
235.744	24.13
235.961	25.93
236.177	25.38
236.393	23.97
236.61	24.4
236.826	24.15
237.042	24.98
237.258	24.82
237.475	26.89
237.691	27.59
237.907	24.44
238.123	25.62
238.339	24.81
238.556	24.9
238.772	24.83
238.988	24.07
239.204	23.69
239.42	23.09
239.636	23.58
239.853	21.56
240.069	20
240.285	20.37
240.501	17.94
240.717	18.43
240.933	17.59
241.149	16.55
241.365	15.86
241.581	16.03
241.797	15.82
242.013	14.98
242.229	14.14
242.445	13.75
242.661	13.74
242.877	13.72
243.093	12.85
243.309	12.84
243.525	12.45
243.741	12.78
243.957	11.92
244.173	11.07
244.388	11.15
244.604	11.99
244.82	12.44
245.036	12.44
245.252	12.43
245.468	12.34
245.683	12.13
245.899	12.33
246.115	12.36
246.331	11.82
246.547	11.72
246.762	11.75
246.978	11.33
247.194	11.1
247.409	10.79
247.625	11.11
247.841	10.95
248.057	10.86
248.272	10.83
248.488	10.51
248.703	10.8
248.919	11.27
249.135	11.27
249.35	11.57
249.566	12.44
249.782	13.13
249.997	13.19
250.213	13.6
250.428	13.27
250.644	12.8
250.859	12.18
251.075	13.15
251.29	13.12
251.506	12.76
251.721	12.88
251.937	12.67
252.152	11.84
252.368	11.45
252.583	11.84
252.798	12.71
253.014	13.35
253.229	13.76
253.445	13.78
253.66	13.49
253.875	14.44
254.091	14.09
254.306	14.1
254.521	15.32
254.737	16.16
254.952	15.25
255.167	14.85
255.383	14.34
255.598	14.75
255.813	14.62
256.028	14.75
256.244	14.19
256.459	14.89
256.674	13.75
256.889	13.19
257.104	12.67
257.32	13.16
257.535	12.75
257.75	12.93
257.965	12.34
258.18	11.42
258.395	10.88
258.61	10.06
258.826	9.3
259.041	8.94
259.256	9.03
259.471	8.78
259.686	8.61
259.901	8.47
260.116	8.1
260.331	7.84
260.546	7.79
260.761	7.95
260.976	8.29
261.191	8.75
261.406	9.11
261.621	8.6
261.836	8.6
262.05	8.51
262.265	9.46
262.48	10.01
262.695	10.48
262.91	10.71
263.125	10.49
263.34	10.7
263.555	10.59
263.769	10.89
263.984	11.27
264.199	11.96
264.414	12.36
264.629	11.54
264.843	11.58
265.058	11.93
265.273	11.83
265.488	12.21
265.702	11.61
265.917	11.31
266.132	11.28
266.346	11.15
266.561	10.3
266.776	9.94
266.99	9.65
267.205	9.87
267.42	9.8
267.634	10.13
267.849	9.83
268.063	9.55
268.278	9.55
268.492	9.4
268.707	9.54
268.922	9.36
269.136	8.96
269.351	9.11
269.565	8.37
269.78	8.37
269.994	7.84
270.209	7.9
270.423	7.69
270.637	7.83
270.852	7.54
271.066	7.72
271.281	7.82
271.495	7.94
271.709	7.86
271.924	7.78
272.138	7.44
272.353	7.58
272.567	7.43
272.781	8.08
272.996	8.13
273.21	7.95
273.424	7.81
273.638	7.87
273.853	8.09
274.067	8.1
274.281	8.88
274.495	9.23
274.71	8.81
274.924	9.25
275.138	8.78
275.352	8.89
275.566	9.5
275.781	9.83
275.995	9.97
276.209	10.09
276.423	9.83
276.637	9.09
276.851	8.6
277.065	9.17
277.279	8.91
277.493	9.25
277.707	8.79
277.921	8.14
278.135	7.74
278.349	7.87
278.563	7.93
278.777	8.67
278.991	9.29
279.205	9.97
279.419	9.58
279.633	9.8
279.847	9.48
280.061	9.67
280.275	10.16
280.489	9.55
280.703	9.6
280.917	9.75
281.131	9.43
281.344	9.41
281.558	9.04
281.772	9.26
281.986	8.78
282.2	8.68
282.414	8.42
282.627	8.28
282.841	8.54
283.055	8.47
283.269	8.33
283.482	8.14
283.696	7.75
283.91	7.85
284.123	7.57
284.337	7.67
284.551	7.45
284.764	7.3
284.978	7.27
285.192	7.05
285.405	6.65
285.619	6.35
285.833	6.4
286.046	6.3
286.26	6.18
286.473	6.35
286.687	6.34
286.9	6.68
287.114	7.29
287.327	7.49
287.541	7.7
287.754	8.09
287.968	8.46
288.181	8.13
288.395	8.24
288.608	8.08
288.822	8.1
289.035	8.04
289.248	7.83
289.462	7.37
289.675	7.26
289.889	7.74
290.102	7.8
290.315	7.7
290.529	8.15
290.742	7.98
290.955	8.2
291.169	8.07
291.382	8.37
291.595	8.6
291.808	8.59
292.022	8.56
292.235	8.14
292.448	8.41
292.661	8.31
292.875	8.19
293.088	8.65
293.301	8.82
293.514	8.67
293.727	8.47
293.94	8.22
294.153	8.48
294.367	8.48
294.58	8.75
294.793	8.34
295.006	8.46
295.219	8.46
295.432	8.06
295.645	7.94
295.858	8.1
296.071	7.92
296.284	8.01
296.497	8.16
296.71	8.01
296.923	7.94
297.136	7.95
297.349	7.99
297.562	7.8
297.775	8.02
297.988	7.88
298.201	8.2
298.414	8.39
298.626	8.32
298.839	8.05
299.052	8.43
299.265	8.49
299.478	8.85
299.691	8.77
299.903	9.03
300.116	9.19
300.329	9.53
300.542	9.22
300.755	9.7
300.967	10.02
301.18	10.42
301.393	10.06
301.605	10.1
301.818	9.94
302.031	9.94
302.243	10.08
302.456	10.43
302.669	10.59
302.881	10.84
303.094	10.6
303.307	10.42
303.519	10.11
303.732	10.41
303.944	10.46
304.157	10.12
304.37	10.04
304.582	10.32
304.795	9.84
305.007	9.65
305.22	9.62
305.432	9.53
305.645	9.75
305.857	10.21
306.069	10.16
306.282	10.14
306.494	10.75
306.707	10.9
306.919	10.6
307.132	10.94
307.344	10.91
307.556	10.98
307.769	11.15
307.981	11.01
308.193	10.88
308.406	10.9
308.618	10.71
308.83	10.63
309.043	10.83
309.255	10.74
309.467	10.52
309.679	10.57
309.892	10.35
310.104	10.16
310.316	10.38
310.528	10.28
310.74	10.26
310.953	10.49
311.165	10.36
311.377	10.16
311.589	10.17
311.801	10.23
312.013	10.16
312.225	10.38
312.437	10.71
312.649	10.74
312.862	10.87
313.074	11.27
313.286	11.5
313.498	11.79
313.71	12.07
313.922	12.16
314.134	12.27
314.346	12.52
314.558	12.66
314.77	12.42
314.982	12.47
315.193	12.59
315.405	12.36
315.617	12.07
315.829	12.16
316.041	11.82
316.253	11.99
316.465	11.83
316.677	12
316.888	11.77
317.1	12.19
317.312	11.88
317.524	11.92
317.736	12.58
317.947	13.17
318.159	12.68
318.371	13.49
318.583	13.81
318.794	14.45
319.006	14.58
319.218	14.73
319.43	14.78
319.641	15.04
319.853	14.65
320.064	14.39
320.276	14.07
320.488	14.7
320.699	14.8
320.911	14.7
321.123	14.36
321.334	14.43
321.546	14.39
321.757	14.35
321.969	14.33
322.18	14.86
322.392	14.82
322.603	14.91
322.815	15.14
323.026	14.87
323.238	15.09
323.449	15.12
323.661	15.02
323.872	15.2
324.083	15.28
324.295	15.26
324.506	14.77
324.718	14.27
324.929	14.28
325.14	13.93
325.352	13.51
325.563	13.19
325.774	13.43
325.986	13.12
326.197	12.87
326.408	12.67
326.62	12.69
326.831	13
327.042	13.14
327.253	13.07
327.464	13.21
327.676	13.55
327.887	13.93
328.098	13.92
328.309	14.19
328.52	14.43
328.732	14.7
328.943	15.07
329.154	15.27
329.365	15.31
329.576	15.42
329.787	15.72
329.998	15.69
330.209	15.68
330.42	15.9
330.631	15.72
330.842	15.97
331.053	15.6
331.264	15.54
331.475	15.54
331.686	15.72
331.897	15.79
332.108	15.19
332.319	15.1
332.53	14.94
332.741	14.36
332.952	14.78
333.163	14.28
333.374	14.45
333.585	14.31
333.795	14.18
334.006	13.95
334.217	14.07
334.428	14.43
334.639	14.35
334.849	14.43
335.06	14.6
335.271	14.7
335.482	15.04
335.692	15.12
335.903	15.21
336.114	15.23
336.325	15.35
336.535	15.37
336.746	15.58
336.957	15.58
337.167	15.7
337.378	15.89
337.589	15.69
337.799	15.68
338.01	15.49
338.22	15.45
338.431	15.91
338.642	15.88
338.852	15.4
339.063	14.98
339.273	15.08
339.484	14.96
339.694	15.09
339.905	15
340.115	14.84
340.326	15.1
340.536	15.11
340.746	14.61
340.957	14.67
341.167	15.22
341.378	15.65
341.588	15.48
341.799	15.39
342.009	15.46
342.219	15.53
342.43	15.78
342.64	15.08
342.85	14.7
343.061	14.32
343.271	14.33
343.481	13.8
343.691	13.51
343.902	13.42
344.112	13.48
344.322	13.21
344.532	13.12
344.743	12.85
344.953	13.44
345.163	13.91
345.373	14.14
345.583	13.93
345.793	14.36
346.004	14.3
346.214	14.52
346.424	14.75
346.634	14.89
346.844	15.04
347.054	15.06
347.264	14.93
347.474	14.58
347.684	14.9
347.894	15.24
348.104	14.77
348.314	14.56
348.524	14.48
348.734	14.11
348.944	13.86
349.154	13.72
349.364	14.01
349.574	13.93
349.784	13.97
349.994	13.9
350.204	13.94
350.413	14.24
350.623	14.52
350.833	14.67
351.043	14.46
351.253	14.35
351.463	14.57
351.672	14.36
351.882	14.32
352.092	14.44
352.302	14.39
352.511	14.38
352.721	14.33
352.931	14.23
353.141	14.32
353.35	14.65
353.56	14.95
353.77	14.6
353.979	14.34
354.189	14.43
354.399	14.66
354.608	14.6
354.818	14.45
355.027	14.18
355.237	14.21
355.447	14.15
355.656	13.84
355.866	13.64
356.075	13.68
356.285	13.79
356.494	13.51
356.704	13.02
356.913	12.97
357.123	12.79
357.332	12.69
357.542	12.66
357.751	12.76
357.96	12.79
358.17	12.92
358.379	12.86
358.589	12.95
358.798	13.08
359.007	13.32
359.217	13.25
359.426	13.14
359.635	13.52
359.845	13.36
360.054	13.12
360.263	13.14
360.472	12.77
360.682	12.63
360.891	12.44
361.1	12.39
361.309	12.12
361.519	12.01
361.728	12.16
361.937	11.99
362.146	11.98
362.355	11.87
362.564	11.88
362.774	12
362.983	11.96
363.192	12.01
363.401	11.99
363.61	12.02
363.819	12.18
364.028	12.12
364.237	12.07
364.446	12.22
364.655	12.27
364.864	12.26
365.073	12.44
365.282	12.62
365.491	12.43
365.7	12.43
365.909	12.65
366.118	12.55
366.327	12.72
366.536	12.44
366.745	12.2
366.954	12.16
367.162	11.99
367.371	11.92
367.58	11.79
367.789	11.7
367.998	11.65
368.207	11.55
368.415	11.28
368.624	11.31
368.833	11.44
369.042	11.7
369.25	11.87
369.459	12.14
369.668	12.01
369.877	11.97
370.085	12.18
370.294	12.11
370.503	11.94
370.711	12.02
370.92	11.66
371.129	11.86
371.337	11.58
371.546	11.44
371.754	11.43
371.963	11.5
372.171	11.43
372.38	11.48
372.589	11.42
372.797	11.71
373.006	11.73
373.214	11.74
373.423	11.76
373.631	11.82
373.84	11.76
374.048	11.64
374.256	11.28
374.465	11.19
374.673	11.05
374.882	11.37
375.09	11.3
375.298	11.13
375.507	11.09
375.715	10.85
375.923	10.72
376.132	10.66
376.34	10.44
376.548	10.26
376.757	10.53
376.965	10.72
377.173	10.32
377.381	10.2
377.59	10.41
377.798	10.45
378.006	10.38
378.214	10.4
378.423	10.45
378.631	10.47
378.839	10.48
379.047	10.35
379.255	10
379.463	10.2
379.671	10.14
379.879	10.09
380.088	10.04
380.296	10.04
380.504	10.09
380.712	9.95
380.92	9.81
381.128	10.03
381.336	9.94
381.544	10.02
381.752	10.05
381.96	10.21
382.168	10.24
382.376	10.13
382.584	10.13
382.791	10
382.999	9.85
383.207	10.2
383.415	10.42
383.623	10.43
383.831	10.22
384.039	10.2
384.247	9.85
384.454	9.87
384.662	9.91
384.87	9.78
385.078	9.74
385.285	9.93
385.493	9.4
385.701	9.48
385.909	9.67
386.116	9.96
386.324	9.86
386.532	10.04
386.739	9.76
386.947	9.88
387.155	10.18
387.362	10.18
387.57	10.03
387.778	9.99
387.985	9.65
388.193	9.56
388.4	9.3
388.608	9.22
388.816	9.25
389.023	9.27
389.231	9
389.438	8.7
389.646	8.82
389.853	8.87
390.061	8.91
390.268	8.88
390.475	8.73
390.683	8.66
390.89	8.59
391.098	8.63
391.305	8.71
391.512	8.77
391.72	8.71
391.927	8.5
392.135	8.3
392.342	8.53
392.549	8.75
392.756	8.62
392.964	8.56
393.171	8.64
393.378	8.37
393.586	8.31
393.793	8.24
394	8.35
394.207	8.51
394.414	8.72
394.622	8.67
394.829	8.58
395.036	8.75
395.243	8.89
395.45	8.81
395.657	8.86
395.864	8.79
396.072	8.6
396.279	8.63
396.486	8.56
396.693	8.54
396.9	8.39
397.107	8.17
397.314	8.14
397.521	8.22
397.728	8.32
397.935	8.29
398.142	8.47
398.349	8.65
398.556	8.55
398.763	8.54
398.97	8.38
399.177	8.31
399.383	8.36
399.59	8.4
399.797	8.42
400.004	8.35
400.211	8.34
400.418	8.29
400.625	8.47
400.831	8.55
401.038	8.43
401.245	8.45
401.452	8.59
401.658	8.63
401.865	8.43
402.072	8.41
402.279	8.46
402.485	8.64
402.692	8.53
402.899	8.4
403.105	8.23
403.312	8.24
403.519	8.28
403.725	8.28
403.932	8.27
404.138	8.37
404.345	8.37
404.552	8.13
404.758	8.04
404.965	8.04
405.171	8.03
405.378	8.26
405.584	8.33
405.791	8.35
405.997	8.34
406.204	8.34
406.41	8.24
406.617	8.16
406.823	8.4
407.029	8.33
407.236	8.39
407.442	8.44
407.649	8.26
407.855	8.27
408.061	8.16
408.268	8.13
408.474	8.14
408.68	8.29
408.887	8.24
409.093	8.11
409.299	8.05
409.505	7.94
409.712	8
409.918	8.02
410.124	7.95
410.33	7.97
410.537	7.98
410.743	8.04
410.949	7.87
411.155	7.89
411.361	7.89
411.567	8.06
411.773	8.08
411.98	7.85
412.186	7.85
412.392	7.82
412.598	7.82
412.804	7.74
413.01	7.63
413.216	7.66
413.422	7.63
413.628	7.78
413.834	7.67
414.04	7.65
414.246	7.59
414.452	7.61
414.658	7.66
414.864	7.7
415.07	7.86
415.275	7.81
415.481	7.88
415.687	8.03
415.893	7.79
416.099	7.72
416.305	7.73
416.511	7.78
416.716	7.88
416.922	7.82
417.128	7.82
417.334	7.71
417.539	7.7
417.745	7.75
417.951	7.63
418.157	7.71
418.362	7.67
418.568	7.65
418.774	7.64
418.979	7.56
419.185	7.58
419.391	7.51
419.596	7.44
419.802	7.33
420.008	7.24
420.213	7.33
420.419	7.28
420.624	7.28
420.83	7.32
421.035	7.36
421.241	7.28
421.446	7.19
421.652	7.18
421.857	7.12
422.063	7.29
422.268	7.22
422.474	7.04
422.679	7.05
422.885	7.06
423.09	6.99
423.295	7.01
423.501	7.08
423.706	7.11
423.911	7.06
424.117	7.23
424.322	7.1
424.527	7.16
424.733	7.16
424.938	7.19
425.143	7.16
425.349	7.22
425.554	7.08
425.759	7.09
425.964	7.16
426.169	7.22
426.375	7.17
426.58	7.19
426.785	7.26
426.99	7.39
427.195	7.36
427.4	7.47
427.605	7.41
427.811	7.61
428.016	7.54
428.221	7.53
428.426	7.49
428.631	7.56
428.836	7.56
429.041	7.61
429.246	7.64
429.451	7.74
429.656	7.65
429.861	7.66
430.066	7.69
430.271	7.69
430.476	7.58
430.681	7.78
430.886	7.67
431.09	7.85
431.295	7.75
431.5	7.71
431.705	7.7
431.91	7.76
432.115	7.82
432.32	7.79
432.524	7.83
432.729	7.88
432.934	7.84
433.139	7.8
433.343	7.6
433.548	7.53
433.753	7.55
433.958	7.63
434.162	7.6
434.367	7.58
434.572	7.5
434.776	7.34
434.981	7.3
435.186	7.33
435.39	7.36
435.595	7.62
435.799	7.71
436.004	7.77
436.209	7.69
436.413	7.81
436.618	7.75
436.822	7.79
437.027	7.87
437.231	7.94
437.436	7.81
437.64	7.84
437.845	7.76
438.049	7.78
438.253	7.72
438.458	7.66
438.662	7.6
438.867	7.67
439.071	7.68
439.275	7.69
439.48	7.62
439.684	7.72
439.888	7.71
440.093	7.66
440.297	7.63
440.501	7.62
440.706	7.6
440.91	7.57
441.114	7.47
441.318	7.48
441.523	7.51
441.727	7.6
441.931	7.58
442.135	7.57
442.339	7.58
442.543	7.57
442.748	7.49
442.952	7.54
443.156	7.51
443.36	7.57
443.564	7.63
443.768	7.56
443.972	7.6
444.176	7.65
444.38	7.7
444.584	7.74
444.788	7.76
444.992	7.84
445.196	7.84
445.4	7.84
445.604	7.86
445.808	7.74
446.012	7.8
446.216	7.72
446.42	7.63
446.624	7.61
446.828	7.56
447.032	7.53
447.235	7.45
447.439	7.38
447.643	7.34
447.847	7.34
448.051	7.45
448.254	7.41
448.458	7.4
448.662	7.42
448.866	7.39
449.069	7.34
449.273	7.36
449.477	7.51
449.681	7.51
449.884	7.52
450.088	7.53
450.292	7.51
450.495	7.58
450.699	7.65
450.902	7.63
451.106	7.67
451.31	7.78
451.513	7.72
451.717	7.6
451.92	7.66
452.124	7.8
452.327	7.79
452.531	7.7
452.734	7.69
452.938	7.67
453.141	7.66
453.345	7.56
453.548	7.48
453.752	7.49
453.955	7.63
454.158	7.67
454.362	7.7
454.565	7.6
454.769	7.76
454.972	7.66
455.175	7.63
455.379	7.69
455.582	7.85
455.785	7.82
455.988	7.83
456.192	7.71
456.395	7.69
456.598	7.55
456.801	7.66
457.005	7.58
457.208	7.74
457.411	7.73
457.614	7.71
457.817	7.74
458.021	7.72
458.224	7.84
458.427	7.85
458.63	7.82
458.833	7.87
459.036	7.87
459.239	7.79
459.442	7.68
459.645	7.67
459.848	7.65
460.051	7.57
460.254	7.62
460.457	7.57
460.66	7.48
460.863	7.53
461.066	7.5
461.269	7.37
461.472	7.44
461.675	7.45
461.878	7.47
462.081	7.43
462.284	7.38
462.486	7.39
462.689	7.31
462.892	7.45
463.095	7.53
463.298	7.6
463.5	7.63
463.703	7.67
463.906	7.77
464.109	7.69
464.311	7.89
464.514	7.85
464.717	7.9
464.92	7.97
465.122	8.05
465.325	7.95
465.528	7.95
465.73	8.07
465.933	7.92
466.135	7.86
466.338	8.01
466.541	7.98
466.743	7.97
466.946	7.86
467.148	7.72
467.351	7.63
467.553	7.59
467.756	7.63
467.958	7.5
468.161	7.59
468.363	7.61
468.566	7.55
468.768	7.62
468.971	7.58
469.173	7.73
469.375	7.9
469.578	8.14
469.78	8.11
469.983	8.1
470.185	8.16
470.387	8.22
470.59	8.13
470.792	8.24
470.994	8.22
471.196	8.37
471.399	8.36
471.601	8.22
471.803	8.01
472.005	8.14
472.208	8.1
472.41	8.19
472.612	8.11
472.814	8.17
473.016	8.13
473.218	8.1
473.421	8.07
473.623	7.94
473.825	8.01
474.027	7.94
474.229	7.89
474.431	7.85
474.633	7.88
474.835	7.84
475.037	7.96
475.239	7.87
475.441	7.8
475.643	7.85
475.845	7.9
476.047	7.91
476.249	7.98
476.451	7.96
476.653	7.95
476.855	7.88
477.057	7.92
477.258	7.87
477.46	7.84
477.662	7.77
477.864	7.82
478.066	7.74
478.268	7.76
478.469	7.69
478.671	7.69
478.873	7.69
479.075	7.67
479.276	7.68
479.478	7.65
479.68	7.72
479.882	7.71
480.083	7.54
480.285	7.62
480.487	7.63
480.688	7.62
480.89	7.62
481.091	7.6
481.293	7.61
481.495	7.58
481.696	7.62
481.898	7.59
482.099	7.57
482.301	7.58
482.502	7.53
482.704	7.44
482.905	7.43
483.107	7.38
483.308	7.34
483.51	7.32
483.711	7.28
483.913	7.22
484.114	7.17
484.315	7.13
484.517	7.1
484.718	7.06
484.92	7.06
485.121	7.03
485.322	7.01
485.524	7.02
485.725	6.99
485.926	7.01
486.127	7.04
486.329	7.06
486.53	7.12
486.731	7.12
486.932	7.15
487.134	7.17
487.335	7.16
487.536	7.16
487.737	7.15
487.938	7.14
488.139	7.08
488.341	7.04
488.542	7.08
488.743	7.02
488.944	7.02
489.145	7
489.346	6.97
489.547	6.99
489.748	7.03
489.949	7.06
490.15	7.14
490.351	7.2
490.552	7.27
490.753	7.29
490.954	7.29
491.155	7.32
491.356	7.39
491.557	7.42
491.758	7.44
491.959	7.42
492.159	7.38
492.36	7.39
492.561	7.35
492.762	7.33
492.963	7.3
493.164	7.37
493.364	7.36
493.565	7.3
493.766	7.28
493.967	7.33
494.167	7.42
494.368	7.46
494.569	7.45
494.769	7.52
494.97	7.55
495.171	7.59
495.371	7.71
495.572	7.85
495.773	7.84
495.973	7.91
496.174	7.9
496.375	7.93
496.575	7.95
496.776	7.97
496.976	8.02
497.177	8
497.377	7.99
497.578	7.96
497.778	7.84
497.979	7.85
498.179	7.88
498.38	7.85
498.58	7.85
498.78	7.96
498.981	7.99
499.181	8.02
499.382	8.13
499.582	8.16
499.782	8.13
499.983	8.21
500.183	8.25
500.383	8.27
500.584	8.32
500.784	8.38
500.984	8.33
501.184	8.33
501.385	8.45
501.585	8.46
501.785	8.48
501.985	8.63
502.185	8.71
502.386	8.7
502.586	8.69
502.786	8.75
502.986	8.77
503.186	8.94
503.386	8.98
503.586	8.95
503.786	8.93
503.987	8.91
504.187	8.9
504.387	8.9
504.587	9.06
504.787	9.01
504.987	9.04
505.187	8.93
505.387	8.81
505.587	8.83
505.786	8.88
505.986	9
506.186	9.12
506.386	9.14
506.586	9.23
506.786	9.17
506.986	9.33
507.186	9.36
507.386	9.54
507.585	9.67
507.785	9.69
507.985	9.62
508.185	9.63
508.384	9.65
508.584	9.7
508.784	9.7
508.984	9.78
509.183	9.79
509.383	9.93
509.583	9.98
509.782	9.91
509.982	10.09
510.182	10.18
510.381	10.14
510.581	10.23
510.781	10.3
510.98	10.39
511.18	10.46
511.379	10.49
511.579	10.41
511.778	10.41
511.978	10.54
512.177	10.51
512.377	10.63
512.576	10.7
512.776	10.67
512.975	10.67
513.175	10.74
513.374	10.77
513.573	10.93
513.773	11.12
513.972	11.24
514.172	11.34
514.371	11.44
514.57	11.47
514.77	11.65
514.969	11.8
515.168	11.97
515.367	12.11
515.567	12.24
515.766	12.24
515.965	12.3
516.164	12.34
516.364	12.39
516.563	12.45
516.762	12.53
516.961	12.61
517.16	12.64
517.359	12.61
517.559	12.6
517.758	12.66
517.957	12.73
518.156	12.74
518.355	12.77
518.554	12.84
518.753	12.88
518.952	12.95
519.151	13.04
519.35	13.12
519.549	13.18
519.748	13.2
519.947	13.29
520.146	13.31
520.345	13.38
520.544	13.45
520.743	13.53
520.942	13.74
521.141	13.82
521.339	13.9
521.538	13.98
521.737	14.15
521.936	14.23
522.135	14.32
522.333	14.45
522.532	14.55
522.731	14.69
522.93	14.75
523.129	14.83
523.327	14.93
523.526	14.96
523.725	15.06
523.923	15.14
524.122	15.34
524.321	15.43
524.519	15.55
524.718	15.67
524.917	15.75
525.115	15.9
525.314	15.9
525.512	15.92
525.711	16.01
525.909	16.12
526.108	16.25
526.306	16.31
526.505	16.38
526.703	16.42
526.902	16.53
527.1	16.63
527.299	16.64
527.497	16.78
527.696	16.82
527.894	16.85
528.092	16.87
528.291	16.84
528.489	16.83
528.688	16.84
528.886	16.84
529.084	16.85
529.283	16.82
529.481	16.84
529.679	16.76
529.877	16.82
530.076	16.85
530.274	16.89
530.472	16.95
530.67	17.08
530.869	17.2
531.067	17.34
531.265	17.41
531.463	17.54
531.661	17.68
531.859	17.87
532.057	17.98
532.255	18.03
532.454	18.1
532.652	18.26
532.85	18.32
533.048	18.34
533.246	18.39
533.444	18.42
533.642	18.48
533.84	18.49
534.038	18.5
534.236	18.53
534.434	18.62
534.632	18.67
534.83	18.74
535.027	18.81
535.225	18.93
535.423	18.96
535.621	19.04
535.819	19.13
536.017	19.24
536.215	19.28
536.412	19.32
536.61	19.46
536.808	19.53
537.006	19.54
537.203	19.57
537.401	19.61
537.599	19.76
537.797	19.91
537.994	19.95
538.192	20.06
538.39	20.2
538.587	20.31
538.785	20.35
538.983	20.49
539.18	20.58
539.378	20.65
539.575	20.76
539.773	20.78
539.97	20.8
540.168	20.85
540.366	20.92
540.563	20.96
540.761	21.01
540.958	21.05
541.155	21.07
541.353	21.1
541.55	21.14
541.748	21.13
541.945	21.21
542.143	21.22
542.34	21.24
542.537	21.24
542.735	21.2
542.932	21.27
543.129	21.32
543.327	21.4
543.524	21.45
543.721	21.55
543.919	21.74
544.116	21.85
544.313	22.06
544.51	22.29
544.708	22.45
544.905	22.66
545.102	22.75
545.299	22.89
545.496	22.95
545.693	23.08
545.891	23.12
546.088	23.09
546.285	23.07
546.482	22.94
546.679	22.85
546.876	22.87
547.073	22.89
547.27	22.9
547.467	22.78
547.664	22.78
547.861	22.71
548.058	22.68
548.255	22.66
548.452	22.73
548.649	22.97
548.846	23.02
549.043	23.13
549.24	23.11
549.437	23.15
549.633	23.22
549.83	23.39
550.027	23.46
550.224	23.5
550.421	23.47
550.618	23.49
550.814	23.34
551.011	23.48
551.208	23.42
551.405	23.45
551.601	23.56
551.798	23.63
551.995	23.52
552.191	23.52
552.388	23.6
552.585	23.61
552.781	23.66
552.978	23.73
553.175	23.69
553.371	23.72
553.568	23.78
553.764	23.66
553.961	23.83
554.157	23.88
554.354	23.96
554.55	23.95
554.747	24.12
554.943	24.09
555.14	24.2
555.336	24.21
555.533	24.19
555.729	24.29
555.926	24.43
556.122	24.47
556.318	24.43
556.515	24.48
556.711	24.49
556.907	24.49
557.104	24.49
557.3	24.38
557.496	24.35
557.693	24.48
557.889	24.48
558.085	24.44
558.281	24.32
558.478	24.41
558.674	24.42
558.87	24.48
559.066	24.55
559.262	24.69
559.459	24.84
559.655	24.9
559.851	24.85
560.047	24.84
560.243	24.95
560.439	25.01
560.635	25.05
560.831	25
561.027	24.98
561.223	24.98
561.419	25
561.615	24.96
561.811	25.02
562.007	25.07
562.203	25.04
562.399	25.07
562.595	25.08
562.791	25.15
562.987	25.29
563.183	25.4
563.379	25.47
563.575	25.45
563.771	25.54
563.966	25.46
564.162	25.44
564.358	25.54
564.554	25.44
564.75	25.46
564.945	25.49
565.141	25.63
565.337	25.68
565.533	25.64
565.728	25.61
565.924	25.6
566.12	25.7
566.315	25.9
566.511	25.88
566.707	25.94
566.902	26.03
567.098	25.94
567.293	25.92
567.489	25.94
567.684	25.91
567.88	25.97
568.076	25.99
568.271	26.04
568.467	25.92
568.662	25.92
568.858	26.04
569.053	25.92
569.248	26
569.444	25.98
569.639	25.97
569.835	26.11
570.03	26.12
570.225	26.06
570.421	26
570.616	26.09
570.812	26.22
571.007	26.1
571.202	26.23
571.397	26.13
571.593	26.16
571.788	26.16
571.983	26.06
572.178	26.03
572.374	26.16
572.569	26.13
572.764	26.09
572.959	25.92
573.154	26.03
573.35	25.92
573.545	26.09
573.74	26
573.935	26
574.13	26.06
574.325	26.09
574.52	26.05
574.715	26.14
574.91	26.03
575.105	26.17
575.3	26.09
575.495	26.19
575.69	26.25
575.885	26.32
576.08	26.48
576.275	26.6
576.47	26.67
576.665	26.75
576.86	27.02
577.055	27.2
577.25	27.32
577.444	27.38
577.639	27.51
577.834	27.56
578.029	27.6
578.224	27.55
578.418	27.59
578.613	27.67
578.808	27.78
579.003	27.66
579.197	27.74
579.392	27.88
579.587	27.97
579.781	27.93
579.976	27.9
580.171	27.89
580.365	27.9
580.56	27.98
580.755	28.14
580.949	28.18
581.144	28.02
581.338	27.94
581.533	27.72
581.727	27.9
581.922	27.96
582.116	28.07
582.311	28.25
582.505	28.39
582.7	28.34
582.894	28.24
583.089	28.17
583.283	28.3
583.478	28.52
583.672	28.74
583.866	28.64
584.061	28.62
584.255	28.68
584.449	28.62
584.644	28.59
584.838	28.65
585.032	28.66
585.226	28.62
585.421	28.75
585.615	28.68
585.809	28.6
586.003	28.61
586.198	28.68
586.392	28.57
586.586	28.64
586.78	28.57
586.974	28.62
587.168	28.52
587.363	28.59
587.557	28.49
587.751	28.45
587.945	28.56
588.139	28.61
588.333	28.54
588.527	28.6
588.721	28.57
588.915	28.52
589.109	28.4
589.303	28.45
589.497	28.47
589.691	28.43
589.885	28.29
590.079	28.19
590.273	28.32
590.466	28.49
590.66	28.48
590.854	28.44
591.048	28.62
591.242	28.7
591.436	28.69
591.629	28.78
591.823	28.98
592.017	29.31
592.211	29.33
592.404	29.09
592.598	28.99
592.792	28.91
592.986	28.96
593.179	28.9
593.373	28.82
593.567	28.99
593.76	28.9
593.954	29
594.147	28.85
594.341	28.76
594.535	28.83
594.728	28.83
594.922	28.84
595.115	28.89
595.309	28.9
595.502	29.07
595.696	29.07
595.889	29.02
596.083	28.82
596.276	28.89
596.47	29.02
596.663	29.05
596.856	29.03
597.05	29.07
597.243	28.97
597.437	28.96
597.63	28.87
597.823	28.82
598.017	28.86
598.21	28.92
598.403	28.87
598.596	28.82
598.79	28.83
598.983	28.93
599.176	28.83
599.369	28.9
599.563	28.98
599.756	28.99
599.949	28.91
600.142	28.94
600.335	28.93
600.528	28.92
600.722	28.95
600.915	29.1
601.108	29.02
601.301	29.34
601.494	29.46
601.687	29.33
601.88	29.4
602.073	29.51
602.266	29.51
602.459	29.55
602.652	29.43
602.845	29.36
603.038	29.25
603.231	29.26
603.424	29.15
603.617	29
603.809	28.98
604.002	28.85
604.195	28.89
604.388	28.89
604.581	28.87
604.774	28.98
604.966	28.97
605.159	28.85
605.352	28.96
605.545	28.89
605.737	29.04
605.93	29.17
606.123	29.18
606.316	29.05
606.508	29.01
606.701	29.03
606.894	29.1
607.086	29.38
607.279	29.61
607.471	29.65
607.664	29.91
607.857	30
608.049	30.02
608.242	30.26
608.434	30.59
608.627	30.93
608.819	31.27
609.012	31.65
609.204	31.91
609.397	32.38
609.589	32.91
609.782	33.25
609.974	33.72
610.166	34.42
610.359	35.07
610.551	35.56
610.743	35.94
610.936	36.29
611.128	36.46
611.32	36.62
611.513	36.54
611.705	36.35
611.897	36.49
612.09	36.34
612.282	35.94
612.474	35.57
612.666	35.35
612.858	35.21
613.051	35.09
613.243	34.85
613.435	34.83
613.627	34.78
613.819	34.73
614.011	34.54
614.203	34.42
614.395	34.21
614.588	33.79
614.78	33.57
614.972	33.43
615.164	33.16
615.356	32.93
615.548	32.71
615.74	32.76
615.932	32.55
616.124	32.56
616.315	32.43
616.507	32.4
616.699	32.32
616.891	32.19
617.083	32.12
617.275	32.03
617.467	32
617.659	31.97
617.85	31.69
618.042	31.57
618.234	31.3
618.426	31.33
618.618	31.31
618.809	31.32
619.001	31.25
619.193	31.14
619.384	31.15
619.576	31.19
619.768	30.94
619.959	30.88
620.151	31.05
620.343	30.99
620.534	30.89
620.726	30.97
620.917	31.1
621.109	31.2
621.301	31.39
621.492	31.29
621.684	31.31
621.875	31.47
622.067	31.53
622.258	31.49
622.45	31.47
622.641	31.55
622.832	31.39
623.024	31.48
623.215	31.51
623.407	31.27
623.598	31.35
623.789	31.45
623.981	31.5
624.172	31.51
624.363	31.5
624.555	31.42
624.746	31.51
624.937	31.57
625.129	31.57
625.32	31.41
625.511	31.36
625.702	31.41
625.893	31.47
626.085	31.52
626.276	31.53
626.467	31.53
626.658	31.76
626.849	31.73
627.04	31.79
627.231	31.68
627.422	31.93
627.614	32.03
627.805	32.13
627.996	32.13
628.187	32.19
628.378	32.22
628.569	32.32
628.76	32.29
628.951	32.22
629.142	32.32
629.332	32.58
629.523	32.59
629.714	32.57
629.905	32.65
630.096	32.73
630.287	32.68
630.478	32.76
630.669	32.82
630.859	32.87
631.05	32.91
631.241	33.06
631.432	32.87
631.623	32.8
631.813	32.87
632.004	32.76
632.195	32.64
632.385	32.43
632.576	32.36
632.767	32.27
632.957	32.05
633.148	31.99
633.339	31.74
633.529	31.8
633.72	31.56
633.91	31.35
634.101	31.16
634.292	30.99
634.482	31.07
634.673	31.26
634.863	31.18
635.054	31.17
635.244	31.39
635.435	31.44
635.625	31.42
635.815	31.66
636.006	31.88
636.196	31.95
636.387	32.14
636.577	32.2
636.767	32.06
636.958	32.11
637.148	32.34
637.338	32.21
637.529	32.23
637.719	32.2
637.909	32.05
638.099	31.98
638.29	32.04
638.48	32.06
638.67	32.08
638.86	32.18
639.05	32
639.241	31.8
639.431	31.82
639.621	31.69
639.811	31.61
640.001	31.84
640.191	31.99
640.381	32.09
640.571	31.99
640.761	32.03
640.951	31.99
641.141	32.19
641.331	32.16
641.521	32.2
641.711	32.25
641.901	32.31
642.091	32.16
642.281	31.88
642.471	31.82
642.661	32
642.851	32.31
643.041	32.19
643.231	32.24
643.42	32.36
643.61	32.21
643.8	32.13
643.99	32.26
644.18	32.26
644.369	32.63
644.559	32.71
644.749	32.6
644.939	32.27
645.128	32.39
645.318	32.36
645.508	32.62
645.697	32.7
645.887	32.65
646.076	32.59
646.266	32.63
646.456	32.62
646.645	32.73
646.835	32.66
647.024	32.59
647.214	32.42
647.403	32.44
647.593	32.25
647.782	32.36
647.972	32.56
648.161	32.83
648.351	32.8
648.54	32.75
648.73	32.51
648.919	32.6
649.108	32.57
649.298	32.68
649.487	32.73
649.677	32.82
649.866	32.78
650.055	32.96
650.244	32.99
650.434	32.87
650.623	32.86
650.812	32.87
651.002	32.92
651.191	33.07
651.38	32.94
651.569	32.99
651.758	32.68
651.947	32.59
652.137	32.51
652.326	32.36
652.515	32.72
652.704	32.54
652.893	32.6
653.082	32.56
653.271	32.34
653.46	32.52
653.649	32.63
653.838	32.95
654.027	33.24
654.216	33.29
654.405	33.25
654.594	33.08
654.783	33.11
654.972	33.43
655.161	33.56
655.35	33.69
655.539	33.65
655.728	33.43
655.916	33.29
656.105	33.38
656.294	33.27
656.483	33.04
656.672	33.02
656.86	33.19
657.049	32.98
657.238	32.92
657.427	32.79
657.615	32.83
657.804	32.86
657.993	33.03
658.181	32.93
658.37	32.76
658.559	32.97
658.747	33
658.936	33.14
659.125	33.03
659.313	32.95
659.502	33.06
659.69	33.1
659.879	33.05
660.067	32.92
660.256	32.69
660.444	32.65
660.633	32.68
660.821	32.56
661.01	32.4
661.198	32.37
661.387	32.49
661.575	32.79
661.763	32.87
661.952	33.22
662.14	33.4
662.328	33.68
662.517	34.2
662.705	34.17
662.893	34.1
663.082	34.08
663.27	34.33
663.458	34.47
663.646	34.32
663.834	34.52
664.023	34.46
664.211	34.3
664.399	34.11
664.587	33.77
664.775	33.77
664.963	34.36
665.152	34.39
665.34	34.61
665.528	34.29
665.716	34.17
665.904	34.01
666.092	33.86
666.28	33.81
666.468	34.05
666.656	34.13
666.844	34.32
667.032	33.81
667.22	33.94
667.408	33.86
667.596	33.98
667.784	33.98
667.971	33.68
668.159	33.73
668.347	33.72
668.535	33.55
668.723	33.61
668.911	33.45
669.098	33.62
669.286	33.61
669.474	33.33
669.662	33.28
669.849	33.47
670.037	33.72
670.225	33.72
670.413	34.14
670.6	34.29
670.788	34.33
670.976	34.34
671.163	34.38
671.351	34.18
671.538	34.17
671.726	34.5
671.913	34.24
672.101	34.45
672.289	34.39
672.476	34.04
672.664	34.11
672.851	34.2
673.039	34.29
673.226	34.44
673.413	34.49
673.601	34.94
673.788	34.59
673.976	34.57
674.163	34.49
674.35	34.55
674.538	34.62
674.725	34.45
674.912	34.46
675.1	34.3
675.287	34.03
675.474	34.16
675.662	33.99
675.849	34.23
676.036	34.66
676.223	34.71
676.411	34.55
676.598	34.59
676.785	34.84
676.972	34.85
677.159	34.74
677.346	34.95
677.533	34.89
677.721	34.97
677.908	34.84
678.095	34.42
678.282	34.37
678.469	34.29
678.656	34.25
678.843	34.15
679.03	34.09
679.217	34.23
679.404	34.26
679.591	34.37
679.778	34.23
679.964	34.27
680.151	34.26
680.338	34.1
680.525	34.21
680.712	34.18
680.899	34.23
681.086	34.2
681.272	33.98
681.459	33.85
681.646	33.77
681.833	33.91
682.02	33.84
682.206	34.04
682.393	34.01
682.58	34.13
682.766	34.23
682.953	34.04
683.14	34.19
683.326	34.51
683.513	34.85
683.7	34.92
683.886	34.73
684.073	34.7
684.259	34.76
684.446	35
684.632	35.08
684.819	35.33
685.005	35.13
685.192	35.39
685.378	35.57
685.565	35.25
685.751	35.21
685.938	35.28
686.124	35.59
686.31	35.87
686.497	35.97
686.683	36
686.87	35.58
687.056	35.65
687.242	35.51
687.429	35.46
687.615	35.48
687.801	35.6
687.987	35.59
688.174	35.35
688.36	35.34
688.546	35.32
688.732	35.16
688.918	35.68
689.105	36.09
689.291	35.79
689.477	35.71
689.663	35.88
689.849	35.73
690.035	35.83
690.221	36.11
690.407	36.02
690.593	35.87
690.779	36.06
690.965	35.78
691.151	35.79
691.337	35.69
691.523	35.67
691.709	35.59
691.895	35.74
692.081	35.64
692.267	35.92
692.453	36.1
692.639	36.08
692.825	35.96
693.011	35.94
693.196	36.06
693.382	36.65
693.568	36.55
693.754	36.57
693.94	36.26
694.125	36.23
694.311	35.85
694.497	35.36
694.682	35.4
694.868	35.8
695.054	35.82
695.239	35.66
695.425	35.27
695.611	35.4
695.796	35.55
695.982	35.77
696.168	35.6
696.353	35.43
696.539	35.51
696.724	35.37
696.91	35.3
697.095	35.31
697.281	35.43
697.466	35.11
697.652	35.17
697.837	34.94
698.023	35.07
698.208	35.15
698.393	35.32
698.579	35.39
698.764	35.31
698.949	35.05
699.135	35.03
699.32	34.59
699.505	34.62
699.691	34.51
699.876	34.55
700.061	34.29
700.246	34.33
700.432	34.32
700.617	34.31
700.802	34.36
700.987	34.68
701.172	34.95
701.358	35.29
701.543	35.76
701.728	35.9
701.913	36.19
702.098	36.59
702.283	36.72
702.468	36.84
702.653	37.3
702.838	37.61
703.023	37.75
703.208	37.62
703.393	37.75
703.578	38.02
703.763	38.39
703.948	38.55
704.133	38.48
704.318	39.29
704.503	39.31
704.688	39.29
704.873	39.23
705.057	39.09
705.242	38.94
705.427	39.12
705.612	39.34
705.797	39.38
705.981	39.33
706.166	39.62
706.351	38.8
706.536	38.82
706.72	38.6
706.905	38.93
707.09	38.97
707.274	39.03
707.459	39.19
707.644	39.36
707.828	38.95
708.013	38.68
708.197	38.35
708.382	38.35
708.567	38.64
708.751	38.72
708.936	38.6
709.12	38.65
709.305	38.62
709.489	38.46
709.673	37.96
709.858	38.08
710.042	38.14
710.227	38.3
710.411	38.13
710.596	37.78
710.78	37.84
710.964	37.64
711.149	37.62
711.333	37.62
711.517	37.28
711.702	37.23
711.886	37.35
712.07	37.72
712.254	37.5
712.438	37.91
712.623	38.06
712.807	37.65
712.991	37.7
713.175	37.62
713.359	37.39
713.544	37.99
713.728	38.17
713.912	37.99
714.096	37.69
714.28	37.61
714.464	37.61
714.648	37.14
714.832	37.3
715.016	37.3
715.2	37.23
715.384	37.5
715.568	37.21
715.752	36.77
715.936	36.89
716.12	36.95
716.304	37.14
716.488	36.79
716.671	37.02
716.855	36.8
717.039	36.74
717.223	36.59
717.407	36.11
717.59	36.52
717.774	36.4
717.958	36.19
718.142	36.19
718.325	36.01
718.509	36.53
718.693	36.77
718.877	36.55
719.06	36.56
719.244	36.83
719.428	37.44
719.611	36.86
719.795	37.45
719.978	37.63
720.162	37.44
720.345	37.82
720.529	37.47
720.713	37.36
720.896	37.87
721.08	37.9
721.263	37.94
721.446	37.57
721.63	37.5
721.813	36.62
721.997	36.42
722.18	36.52
722.364	36.03
722.547	35.99
722.73	36.39
722.914	36.42
723.097	37.11
723.28	37.37
723.464	37.84
723.647	37.9
723.83	38.92
724.013	39.34
724.197	39.64
724.38	40.08
724.563	40.32
724.746	39.66
724.929	39.81
725.112	39.37
725.296	38.92
725.479	39.02
725.662	38.92
725.845	38.53
726.028	38.74
726.211	38.16
726.394	38.16
726.577	37.98
726.76	38.24
726.943	37.97
727.126	37.35
727.309	37.74
727.492	37.74
727.675	37.8
727.858	37.88
728.041	37.53
728.224	37.77
728.407	37.9
728.589	38.02
728.772	37.92
728.955	37.77
729.138	38.54
729.321	37.57
729.503	37.31
729.686	37.74
729.869	37.49
730.052	37.38
730.234	37.51
730.417	37.02
730.6	36.99
730.782	37.01
730.965	37.25
731.148	37.05
731.33	38.05
731.513	38.11
731.695	37.65
731.878	37.72
732.061	38.13
732.243	37.7
732.426	37.91
732.608	37.57
732.791	37.95
732.973	38.22
733.156	38.16
733.338	37.59
733.52	37.59
733.703	37.69
733.885	37.59
734.068	37.36
734.25	37.87
734.432	37.79
734.615	38.1
734.797	37.97
734.979	38.06
735.162	38.33
735.344	38.6
735.526	38.25
735.708	38.45
735.891	39.39
736.073	39.03
736.255	39.5
736.437	39.61
736.619	39.74
736.802	39.34
736.984	39.34
737.166	39.29
737.348	39.73
737.53	40.54
737.712	40.52
737.894	40.21
738.076	40.44
738.258	39.88
738.44	39.53
738.622	39.61
738.804	40
738.986	40.14
739.168	39.86
739.35	39.48
739.532	39.29
739.714	39.22
739.896	38.84
740.078	38.94
740.259	38.55
740.441	39.39
740.623	39.12
740.805	38.92
740.987	38.67
741.168	38.74
741.35	38.89
741.532	38.74
741.714	38.65
741.895	38.4
742.077	38.63
742.259	39.5
742.44	39.43
742.622	39.88
742.804	40.14
742.985	40.39
743.167	40.81
743.348	40.79
743.53	40.56
743.711	40.94
743.893	41.99
744.075	42.04
744.256	41.12
744.438	41
744.619	41.29
744.8	41.52
744.982	40.41
745.163	39.47
745.345	39.07
745.526	39.8
745.707	39.39
745.889	39.24
746.07	38.92
746.252	39.69
746.433	39.84
746.614	40.02
746.795	40.17
746.977	41.49
747.158	42.19
747.339	42.11
747.52	41.38
747.702	42.15
747.883	41.66
748.064	41.86
748.245	42.41
748.426	42.16
748.607	41.69
748.788	40.84
748.97	40.18
749.151	40.77
749.332	41.27
749.513	41.8
749.694	42.02
749.875	41.53
750.056	41.68
750.237	40.55
750.418	40.95
750.599	40.85
750.78	41.23
750.96	41.67
751.141	41.25
751.322	41.01
751.503	40.96
751.684	40.16
751.865	39.79
752.046	39.39
752.226	39.53
752.407	39.03
752.588	39.75
752.769	40.32
752.949	39.9
753.13	40.1
753.311	40.37
753.492	39.84
753.672	40.51
753.853	40.92
754.034	40.34
754.214	41.06
754.395	41.06
754.575	40.06
754.756	39.33
754.937	39.84
755.117	39.73
755.298	39.98
755.478	40.83
755.659	40.33
755.839	41.89
756.02	42.19
756.2	41.6
756.381	41.73
756.561	42.05
756.741	42.19
756.922	42
757.102	41.99
757.283	41.98
757.463	41.4
757.643	41.62
757.823	40.44
758.004	40.42
758.184	40.43
758.364	40.07
758.545	39.93
758.725	39.76
758.905	39.73
759.085	39.3
759.265	38.68
759.446	38.1
759.626	38.21
759.806	38.51
759.986	38.6
760.166	38.68
760.346	38.82
760.526	38.86
760.706	39.34
760.886	38.63
761.066	39.16
761.246	39.19
761.426	39.89
761.606	38.76
761.786	38.64
761.966	38.46
762.146	38.84
762.326	38.84
762.506	38.59
762.686	37.7
762.866	38.04
763.046	37.22
763.225	36.98
763.405	36.32
763.585	36.46
763.765	36.28
763.945	36
764.124	35.63
764.304	35.53
764.484	35.42
764.664	35.83
764.843	35.85
765.023	35.95
765.203	36.15
765.382	36.47
765.562	37.34
765.741	37.32
765.921	37.23
766.101	37.36
766.28	37.6
766.46	37.53
766.639	37.83
766.819	38.52
766.998	39.48
767.178	39.49
767.357	39.67
767.537	39.07
767.716	40.5
767.896	41.9
768.075	41.76
768.254	42.2
768.434	43.53
768.613	43.38
768.792	42.67
768.972	42.07
769.151	42.48
769.33	42.79
769.51	43.87
769.689	42.6
769.868	42.53
770.047	43.12
770.226	42.98
770.406	42.26
770.585	42.85
770.764	42.98
770.943	43.74
771.122	43.57
771.301	43.17
771.48	42.26
771.66	43.53
771.839	42.77
772.018	42.8
772.197	42.89
772.376	42.87
772.555	42.89
772.734	43.63
772.913	43.09
773.092	43.5
773.271	44.76
773.449	44.76
773.628	44.11
773.807	44.1
773.986	44.67
774.165	44.61
774.344	44.92
774.523	44.41
774.701	43.52
774.88	44.66
775.059	44.31
775.238	43.84
775.417	44.25
775.595	44.64
775.774	45.04
775.953	44.54
776.131	45.17
776.31	45.1
776.489	45.37
776.667	45.73
776.846	45.2
777.025	45.25
777.203	45.27
777.382	45.01
777.56	43.73
777.739	44.44
777.917	44.12
778.096	44.29
778.274	44.07
778.453	44.58
778.631	44.98
778.81	44.92
778.988	45.62
779.166	45.55
779.345	45.43
779.523	46.3
779.702	45.77
779.88	45.7
780.058	44.7
780.237	45.11
780.415	45.42
780.593	44.92
780.771	44.48
780.95	43.63
781.128	43.91
781.306	44.38
781.484	44.95
781.662	45.2
781.841	45.61
782.019	46.18
782.197	45.87
782.375	44.1
782.553	44.32
782.731	45.52
782.909	46.15
783.087	45.84
783.265	44.64
783.443	44.01
783.621	44.27
783.799	44.11
783.977	43.73
784.155	44.13
784.333	44.91
784.511	44.64
784.689	43.8
784.867	44.26
785.045	44.47
785.223	45.28
785.4	45.96
785.578	45.54
785.756	46.16
785.934	46.18
786.112	45.87
786.289	45.85
786.467	46.45
786.645	45.52
786.823	44.69
787	45.19
787.178	45.6
787.356	45.06
787.533	44.89
787.711	44.41
787.889	45.1
788.066	44.42
788.244	44.21
788.421	44.22
788.599	44.5
788.776	45.14
788.954	44.9
789.131	44.72
789.309	44.83
789.486	45.71
789.664	45.26
789.841	44.45
790.019	45.67
790.196	46.19
790.373	46.41
790.551	46.95
790.728	45.93
790.906	45.55
791.083	45.95
791.26	45.84
791.437	45.91
791.615	47.26
791.792	48.18
791.969	48.6
792.146	48.23
792.324	47.85
792.501	48.61
792.678	48.93
792.855	48.94
793.032	48.5
793.209	49.26
793.387	48.38
793.564	47.55
793.741	47.03
793.918	45.55
794.095	46.63
794.272	46.14
794.449	45.15
794.626	45.49
794.803	45.83
794.98	45.59
795.157	44.42
795.334	43.72
795.511	43.83
795.688	43.85
795.864	44.14
796.041	44.18
796.218	44.74
796.395	45.89
796.572	45.9
796.749	45.28
796.925	45.03
797.102	45.17
797.279	46.06
797.456	46.99
797.632	46.67
797.809	47.41
797.986	47.58
798.162	46.93
798.339	45.79
798.516	46.99
798.692	47.45
798.869	47.96
799.046	48.06
799.222	48.47
799.399	47.54
799.575	47.74
799.752	47.41
799.928	47.02
800.105	48.02
800.281	48.13
800.458	47.67
800.634	47.19
800.811	46.74
800.987	47.59
801.163	47.27
801.34	47.45
801.516	47.91
801.692	47.61
801.869	46.96
802.045	46.5
802.221	45.76
802.398	45.53
802.574	45.42
802.75	46.73
802.926	47.39
803.103	47.62
803.279	47.08
803.455	46.45
803.631	46.44
803.807	47.08
803.983	47.68
804.16	48.93
804.336	48.47
804.512	49.2
804.688	50.67
804.864	49.5
805.04	49.95
805.216	51.15
805.392	51.14
805.568	51.78
805.744	50.95
805.92	50.11
806.096	49.59
806.272	51.19
806.448	51.27
806.623	48.86
806.799	48.67
806.975	47.19
807.151	47.76
807.327	47.03
807.503	46.89
807.678	47.4
807.854	47.53
808.03	47.1
808.206	46.56
808.381	47.49
808.557	46.8
808.733	45.12
808.908	44.61
809.084	44.64
809.26	45.51
809.435	46.94
809.611	47.54
809.787	47.43
809.962	48.65
810.138	48.29
810.313	47.18
810.489	48.04
810.664	49.47
810.84	51.5
811.015	51.11
811.191	52.03
811.366	50.25
811.542	50.09
811.717	50.8
811.892	51.41
812.068	51.3
812.243	50.79
812.419	51.76
812.594	50.29
812.769	49.62
812.944	49.18
813.12	48.17
813.295	47.73
813.47	46.46
813.645	45.17
813.821	44.13
813.996	44.4
814.171	45.64
814.346	45.37
814.521	49.21
814.697	49.81
814.872	48.91
815.047	49.22
815.222	50.16
815.397	50.43
815.572	52.59
815.747	50.65
815.922	50.58
816.097	50.23
816.272	50.2
816.447	47.77
816.622	47.8
816.797	48.06
816.972	47.56
817.147	48.71
817.322	49.32
817.496	47.62
817.671	50.43
817.846	50.21
818.021	49.49
818.196	49.1
818.371	49.63
818.545	48.33
818.72	48.23
818.895	48.38
819.069	46.96
819.244	45.9
819.419	46.16
819.594	44.38
819.768	43.78
819.943	43.7
820.117	42.51
820.292	41.37
820.467	40.52
820.641	39.12
820.816	38.29
820.99	36.9
821.165	36.53
821.339	35.69
821.514	35.27
821.688	34.67
821.863	33.93
822.037	33.33
822.212	33.14
822.386	32.91
822.56	32.63
822.735	32.31
822.909	32.23
823.084	32.11
823.258	32.02
823.432	31.82
823.606	31.79
823.781	31.76
823.955	32.05
824.129	31.89
824.303	32.21
824.478	32.51
824.652	32.63
824.826	32.74
825	33.13
825.174	33.52
825.348	33.64
825.523	33.56
825.697	34.23
825.871	34.42
826.045	34.5
826.219	34.43
826.393	34.19
826.567	34.68
826.741	34.69
826.915	33.84
827.089	33.56
827.263	34.1
827.437	34.57
827.611	34.26
827.784	34.57
827.958	35.06
828.132	35.3
828.306	36.19
828.48	36.62
828.654	37.1
828.827	37.73
829.001	38.37
829.175	38.89
829.349	39.62
829.522	40.12
829.696	41.19
829.87	42.44
830.044	43.64
830.217	44.26
830.391	44.03
830.565	44.81
830.738	46.2
830.912	46.85
831.085	47.46
831.259	46.84
831.432	47.13
831.606	44.89
831.779	43.01
831.953	41.74
832.126	40.87
832.3	39.97
832.473	40.82
832.647	39.75
832.82	39.66
832.994	38.49
833.167	38.88
833.34	39.36
833.514	39.17
833.687	39.12
833.86	38.84
834.034	39.65
834.207	39.99
834.38	39.28
834.553	39.18
834.727	38.82
834.9	39.01
835.073	37.77
835.246	36.88
835.419	37.56
835.593	37.91
835.766	38.41
835.939	38.03
836.112	37.74
836.285	38.13
836.458	39.49
836.631	40.42
836.804	40.89
836.977	40.92
837.15	41.98
837.323	42.33
837.496	42.55
837.669	42.34
837.842	42.83
838.015	45.2
838.188	46.45
838.361	45.25
838.533	45.71
838.706	46.25
838.879	49.63
839.052	52.17
839.225	52.03
839.398	52.81
839.57	53.79
839.743	52.42
839.916	50.93
840.088	51.79
840.261	53.78
840.434	54.46
840.607	52.07
840.779	50.83
840.952	48.68
841.124	49.63
841.297	48.53
841.47	48.04
841.642	50.03
841.815	51.46
841.987	50.31
842.16	49.02
842.332	48.77
842.505	53.6
842.677	55.85
842.85	57.82
843.022	60.06
843.194	59.58
843.367	62.7
843.539	58.58
843.712	57.86
843.884	58.74
844.056	60.13
844.229	60.78
844.401	59.56
844.573	59.9
844.745	60.01
844.918	58.43
845.09	61.16
845.262	58.49
845.434	62.81
845.606	60.52
845.779	61.98
845.951	63.38
846.123	63.28
846.295	63.07
846.467	65.29
846.639	67.26
846.811	69.74
846.983	73.74
847.155	71.42
847.327	74.86
847.499	79.7
847.671	79.64
847.843	81.11
848.015	81.11
848.187	82.43
848.359	81.01
848.531	81.82
848.703	81.39
848.875	78.81
849.047	86.01
849.218	80.98
849.39	81.07
849.562	79.08
849.734	79.74
849.905	81.72
850.077	80.05
850.249	81
850.421	81.2
850.592	79.58
850.764	78.26
850.936	75.59
851.107	80
851.279	77.17
851.451	77.05
851.622	76.15
851.794	74.86
851.965	75.44
852.137	77.8
852.308	79.48
852.48	78.43
852.651	81.76
852.823	81.28
852.994	79.62
853.166	86.35
853.337	88.58
853.509	87.52
853.68	85.35
853.851	84.59
854.023	83.64
854.194	77.78
854.365	79.85
854.537	79.53
854.708	79.58
854.879	77.89
855.05	74.13
855.222	75.45
855.393	73.88
855.564	76.05
855.735	78.23
855.906	73.46
856.078	73.53
856.249	69.81
856.42	67.47
856.591	71.1
856.762	69.56
856.933	69.32
857.104	65.34
857.275	65.96
857.446	63.49
857.617	63.92
857.788	68.45
857.959	68.64
858.13	76.73
858.301	77.96
858.472	73.52
858.643	78.37
858.814	78.42
858.985	78.2
859.155	77.38
859.326	79.72
859.497	79.45
859.668	78.65
859.839	79.76
860.009	71.29
860.18	69.29
860.351	70.16
860.522	69.94
860.692	68.82
860.863	77.73
861.034	83.15
861.204	79.6
861.375	78.56
861.546	75.66
861.716	77.4
861.887	82.12
862.057	88.04
862.228	90.26
862.398	84.56
862.569	85.02
862.739	80.47
862.91	76.98
863.08	78.23
863.251	79.48
863.421	82.47
863.592	80.53
863.762	74.69
863.932	74.76
864.103	74.81
864.273	76.95
864.443	81.05
864.614	78.74
864.784	80.46
864.954	82.95
865.125	83.55
865.295	80.96
865.465	79.89
865.635	83.15
865.805	79.41
865.976	78.11
866.146	80.48
866.316	76.48
866.486	79.07
866.656	75.34
866.826	75.26
866.996	74.63
867.166	76.41
867.336	76.91
867.506	79.07
867.676	76.99
867.846	79
868.016	78.42
868.186	79.8
868.356	80.4
868.526	83.98
868.696	83.87
868.866	85.19
869.036	88.66
869.206	90.99
869.376	91.93
869.545	90.6
869.715	89.48
869.885	88.81
870.055	82.76
870.224	85.93
870.394	82.94
870.564	81.92
870.734	80.62
870.903	78.67
871.073	74.49
871.243	68.34
871.412	64.79
871.582	63.84
871.751	65.63
871.921	69.33
872.091	66.15
872.26	66.69
872.43	64.55
872.599	63.7
872.769	64.05
872.938	69.64
873.108	73.91
873.277	77.41
873.446	76.97
873.616	74.57
873.785	74.24
873.955	74.5
874.124	75.35
874.293	75.28
874.463	74.52
874.632	75.84
874.801	70.21
874.971	71.55
875.14	74.84
875.309	72.64
875.478	75.25
875.647	74.46
875.817	73.45
875.986	75.81
876.155	78.62
876.324	83.85
876.493	78.99
876.662	81.27
876.831	73.79
877	71.46
877.17	71.59
877.339	71.38
877.508	72.49
877.677	72.52
877.846	69.61
878.015	70.81
878.184	64.19
878.352	66.96
878.521	66.82
878.69	72.98
878.859	76.11
879.028	77.97
879.197	72.87
879.366	70.14
879.534	68.98
879.703	66.53
879.872	60.7
880.041	60.04
880.21	54.87
880.378	52.25
880.547	48.74
880.716	44.56
880.884	42.45
881.053	41.17
881.222	39.76
881.39	37.95
881.559	36.67
881.727	36.6
881.896	35.05
882.065	34.67
882.233	33.58
882.402	33.3
882.57	32.93
882.739	32.45
882.907	32.45
883.076	32.19
883.244	32.1
883.412	32.28
883.581	32.05
883.749	32.74
883.918	33.71
884.086	34.5
884.254	34.75
884.423	35.54
884.591	36.31
884.759	38.63
884.927	39.62
885.096	40.61
885.264	41.31
885.432	43.23
885.6	44.09
885.769	45.25
885.937	46.99
886.105	49.03
886.273	50.54
886.441	52.83
886.609	52.21
886.777	55.62
886.945	58.9
887.113	61.52
887.281	61.07
887.449	63.6
887.617	65.19
887.785	66.49
887.953	67.76
888.121	68.66
888.289	70.84
888.457	72.83
888.625	71.96
888.793	70.86
888.961	73.04
889.129	76.23
889.296	79.28
889.464	80.17
889.632	80.9
889.8	79.33
889.967	81.19
890.135	79.47
