Data from 2938775__Reflection_03.txt Node
Date: Fri Mar 13 14:10:39 EDT 2015
User: robert
Spectrometer: USB4E03002
Autoset integration time: false
Trigger mode: 4
Integration Time (sec): 1.000000E-1
Scans to average: 10
Electric dark correction enabled: false
Nonlinearity correction enabled: false
Boxcar width: 5
Stray light correction enabled: false
XAxis mode: Wavelengths
Stop averaging: false
Number of Pixels in Spectrum: 3648
>>>>>Begin Spectral Data<<<<<
177.575	-142.36
177.794	-332.88
178.014	-1096.3
178.233	665.67
178.452	1151.35
178.672	307.95
178.891	256.1
179.11	1508.7
179.33	-398.51
179.549	-171.43
179.768	-923.33
179.987	404.48
180.207	1000
180.426	340
180.645	-300
180.864	-162.9
181.084	-12.6
181.303	-65.89
181.522	-129.79
181.741	1233.33
181.96	104.13
182.179	114.85
182.398	83.86
182.618	85.31
182.837	147.6
183.056	148.28
183.275	125
183.494	82.01
183.713	77.75
183.932	95.67
184.151	72.12
184.37	47.89
184.589	69.1
184.808	212.22
185.027	154.39
185.246	98.09
185.465	63.19
185.684	78.39
185.903	80.41
186.122	84.15
186.341	93.88
186.56	104.86
186.779	173.14
186.998	113.94
187.216	116.51
187.435	168.64
187.654	115.99
187.873	106.91
188.092	95.07
188.311	218.5
188.53	230.77
188.748	651.56
188.967	-1329.17
189.186	291.3
189.405	417.27
189.623	213.04
189.842	157.49
190.061	168.99
190.28	217.92
190.498	155.74
190.717	124.13
190.936	100.16
191.154	100.28
191.373	90.15
191.592	91.65
191.81	84.03
192.029	90.83
192.248	86.6
192.466	87.46
192.685	86.3
192.904	102.05
193.122	79.27
193.341	100.36
193.559	41.88
193.778	38.71
193.996	26.37
194.215	232
194.433	138.32
194.652	184.46
194.87	251.06
195.089	5140
195.307	830.77
195.526	-153.27
195.744	759.57
195.963	267.21
196.181	213.64
196.399	113.6
196.618	64.07
196.836	90.3
197.055	27.27
197.273	34.07
197.491	-194.12
197.71	-48.15
197.928	102.79
198.146	172.88
198.365	213.33
198.583	421.21
198.801	-83.84
199.019	-71.72
199.238	-18.9
199.456	-12.68
199.674	-12.25
199.892	-18.29
200.111	-19.78
200.329	15.66
200.547	31.44
200.765	-27.01
200.983	-4.94
201.202	-114.95
201.42	-445.83
201.638	1026.09
201.856	273.2
202.074	465.85
202.292	213.68
202.51	233.33
202.728	123.4
202.946	151.68
203.165	179.37
203.383	4300
203.601	22.54
203.819	13.86
204.037	13.9
204.255	88.94
204.473	97.8
204.691	60.77
204.909	14.82
205.127	17.99
205.345	29.59
205.562	37.79
205.78	43.3
205.998	32.06
206.216	15.88
206.434	5.73
206.652	22.92
206.87	9.8
207.088	38.13
207.306	43.96
207.523	65.36
207.741	40.67
207.959	34.44
208.177	38.26
208.395	24.77
208.612	21.07
208.83	69.62
209.048	37.04
209.266	-243.33
209.483	755.88
209.701	-48
209.919	50
210.136	1720
210.354	-255.56
210.572	-22.4
210.79	242.06
211.007	118.87
211.225	244.07
211.442	42.8
211.66	28.52
211.878	39.75
212.095	167.18
212.313	159.04
212.53	135.54
212.748	92.29
212.966	75.93
213.183	86.12
213.401	98
213.618	92.42
213.836	87.74
214.053	127.61
214.271	145.28
214.488	29.04
214.705	26.27
214.923	37.8
215.14	69.22
215.358	66.99
215.575	73.66
215.793	84.17
216.01	86.84
216.227	93.25
216.445	90.23
216.662	80.63
216.879	80.92
217.097	89.78
217.314	98.64
217.531	91.34
217.749	88.03
217.966	92.75
218.183	82.72
218.4	53.6
218.618	54.2
218.835	36.42
219.052	19.54
219.269	18.73
219.487	8.95
219.704	-2.74
219.921	-12.95
220.138	-4.64
220.355	-6.32
220.572	-17.1
220.79	-13.69
221.007	-26.49
221.224	-28.89
221.441	-25.67
221.658	-14.89
221.875	-18.11
222.092	-5.94
222.309	-8.69
222.526	-10.84
222.743	-9.36
222.96	0.83
223.177	12.48
223.394	13.9
223.611	13.57
223.828	22.58
224.045	20.77
224.262	29.5
224.479	22.81
224.696	26.24
224.913	21.73
225.13	19.02
225.347	20.96
225.564	16.16
225.781	19.56
225.997	18.61
226.214	16.31
226.431	16.72
226.648	10.65
226.865	11.4
227.082	9.98
227.298	8.91
227.515	9.5
227.732	7.33
227.949	6.52
228.165	5.99
228.382	6.43
228.599	5.84
228.816	5.32
229.032	5.37
229.249	5.5
229.466	5.19
229.682	5.95
229.899	5.11
230.116	4.96
230.332	4.98
230.549	4.92
230.765	4.26
230.982	3.96
231.199	4.01
231.415	4.89
231.632	4.48
231.848	5.66
232.065	2.46
232.281	2.78
232.498	2.97
232.714	3.75
232.931	4.57
233.147	5.43
233.364	6.52
233.58	5.88
233.797	3.17
234.013	3.63
234.23	2.41
234.446	4.18
234.662	3.63
234.879	5.67
235.095	5.24
235.312	4.73
235.528	3.5
235.744	1.89
235.961	4.68
236.177	5.69
236.393	5
236.61	3.46
236.826	4.38
237.042	5
237.258	2.31
237.475	2.03
237.691	1.02
237.907	0.32
238.123	2.32
238.339	1.19
238.556	2.22
238.772	1.61
238.988	3.76
239.204	3.86
239.42	4.17
239.636	5.11
239.853	5.2
240.069	5.52
240.285	5.98
240.501	5.92
240.717	6.37
240.933	5.83
241.149	6.32
241.365	5.73
241.581	5.51
241.797	5.63
242.013	5.95
242.229	6.5
242.445	6.3
242.661	6.87
242.877	6.88
243.093	6.58
243.309	6.83
243.525	6.71
243.741	7.04
243.957	7.51
244.173	7.64
244.388	7.73
244.604	7.29
244.82	7.35
245.036	6.33
245.252	5.78
245.468	5.89
245.683	6.38
245.899	5.8
246.115	5.55
246.331	5.28
246.547	5.23
246.762	4.96
246.978	4.96
247.194	5.14
247.409	5.37
247.625	5.46
247.841	5.18
248.057	4.77
248.272	5
248.488	5.19
248.703	5.45
248.919	5.24
249.135	5.02
249.35	5.15
249.566	5.04
249.782	5.38
249.997	4.83
250.213	4.95
250.428	4.75
250.644	4.11
250.859	3.49
251.075	3.41
251.29	3.33
251.506	4.85
251.721	5.05
251.937	4.62
252.152	4.34
252.368	4.9
252.583	4.78
252.798	4.92
253.014	5.54
253.229	6.46
253.445	6.1
253.66	6.46
253.875	5.3
254.091	4.04
254.306	4.71
254.521	3.99
254.737	4.26
254.952	4.01
255.167	3.97
255.383	4.6
255.598	3.5
255.813	2.91
256.028	2.64
256.244	2.06
256.459	2.81
256.674	1.96
256.889	2.39
257.104	2.09
257.32	3.35
257.535	3.25
257.75	3.08
257.965	3.28
258.18	3.81
258.395	3.6
258.61	4.41
258.826	4.33
259.041	4.45
259.256	4.48
259.471	4.45
259.686	3.96
259.901	4.04
260.116	3.77
260.331	3.79
260.546	3.5
260.761	3.52
260.976	3.35
261.191	3.36
261.406	3.33
261.621	3.31
261.836	2.97
262.05	2.42
262.265	2.23
262.48	2.18
262.695	2.22
262.91	2.54
263.125	2.49
263.34	2.19
263.555	2.27
263.769	2.49
263.984	2.11
264.199	2.05
264.414	2.82
264.629	3.22
264.843	3.69
265.058	3.71
265.273	3.56
265.488	4.15
265.702	4.37
265.917	4.23
266.132	3.99
266.346	3.8
266.561	4.25
266.776	4.61
266.99	4.39
267.205	4.03
267.42	3.83
267.634	4.02
267.849	3.85
268.063	3.98
268.278	3.73
268.492	3.57
268.707	3.7
268.922	3.59
269.136	3.9
269.351	3.55
269.565	3.76
269.78	4.03
269.994	4.2
270.209	3.88
270.423	3.77
270.637	3.67
270.852	3.53
271.066	3.79
271.281	3.65
271.495	3.42
271.709	3.57
271.924	3.72
272.138	3.56
272.353	3.49
272.567	3.71
272.781	3.63
272.996	3.91
273.21	4.29
273.424	4.44
273.638	4.43
273.853	4.22
274.067	4.69
274.281	4.52
274.495	4.46
274.71	4.57
274.924	4.68
275.138	4.44
275.352	4.74
275.566	4.44
275.781	3.52
275.995	3.92
276.209	3.82
276.423	3.26
276.637	2.86
276.851	3.1
277.065	2.93
277.279	3.09
277.493	3.3
277.707	3.08
277.921	2.83
278.135	3.48
278.349	3.11
278.563	3.31
278.777	3.75
278.991	4.3
279.205	4.34
279.419	4.03
279.633	3.77
279.847	3.58
280.061	3.31
280.275	3.09
280.489	3.2
280.703	3.31
280.917	3.26
281.131	2.69
281.344	2.59
281.558	2.23
281.772	2.72
281.986	2.74
282.2	2.56
282.414	2.55
282.627	2.95
282.841	2.59
283.055	2.81
283.269	2.51
283.482	2.68
283.696	2.63
283.91	2.55
284.123	2.33
284.337	2.58
284.551	3.07
284.764	3.26
284.978	3.17
285.192	3.42
285.405	3.13
285.619	3.24
285.833	3.25
286.046	3.19
286.26	3.5
286.473	3.56
286.687	3.26
286.9	2.93
287.114	2.88
287.327	2.84
287.541	2.66
287.754	2.73
287.968	2.77
288.181	2.72
288.395	3.05
288.608	3.16
288.822	2.73
289.035	2.9
289.248	2.98
289.462	3.06
289.675	3.28
289.889	3.62
290.102	3.47
290.315	3.7
290.529	3.93
290.742	3.61
290.955	3.28
291.169	3.87
291.382	3.8
291.595	3.8
291.808	3.88
292.022	3.79
292.235	3.38
292.448	3.75
292.661	3.78
292.875	3.62
293.088	4.02
293.301	4.18
293.514	3.89
293.727	4.31
293.94	4.36
294.153	4.22
294.367	4.23
294.58	4.23
294.793	4.17
295.006	4.09
295.219	4.15
295.432	3.7
295.645	3.74
295.858	3.55
296.071	3.21
296.284	3.05
296.497	3.27
296.71	3.36
296.923	3.7
297.136	3.59
297.349	3.62
297.562	3.71
297.775	3.97
297.988	4.16
298.201	4.52
298.414	4.62
298.626	4.95
298.839	4.65
299.052	4.66
299.265	4.48
299.478	4.6
299.691	4.41
299.903	4.26
300.116	4.21
300.329	4.1
300.542	3.99
300.755	3.99
300.967	3.89
301.18	4.2
301.393	4.43
301.605	4.5
301.818	4.58
302.031	4.82
302.243	4.77
302.456	4.59
302.669	4.44
302.881	4.47
303.094	4.33
303.307	4.2
303.519	3.86
303.732	3.68
303.944	3.47
304.157	3.62
304.37	3.71
304.582	3.77
304.795	4.02
305.007	4.22
305.22	4.32
305.432	4.33
305.645	4.32
305.857	4.84
306.069	5.14
306.282	5.41
306.494	4.97
306.707	4.42
306.919	4.21
307.132	4.32
307.344	4.32
307.556	4.71
307.769	4.93
307.981	5.15
308.193	4.78
308.406	4.57
308.618	4.54
308.83	4.71
309.043	4.96
309.255	5.28
309.467	5.16
309.679	4.92
309.892	4.37
310.104	4.4
310.316	4.29
310.528	4.26
310.74	4.42
310.953	4.5
311.165	4.51
311.377	4.6
311.589	4.82
311.801	4.83
312.013	4.67
312.225	4.74
312.437	4.49
312.649	4.73
312.862	4.79
313.074	4.51
313.286	4.73
313.498	4.47
313.71	4.84
313.922	4.5
314.134	4.73
314.346	5.1
314.558	5.13
314.77	5.6
314.982	5.16
315.193	5.54
315.405	5.75
315.617	5.04
315.829	5.54
316.041	5.18
316.253	4.8
316.465	4.99
316.677	5.11
316.888	5.15
317.1	5.09
317.312	5.58
317.524	5.39
317.736	5.35
317.947	5.65
318.159	5.94
318.371	6.04
318.583	6.8
318.794	6.2
319.006	6.22
319.218	6.29
319.43	6.27
319.641	6.3
319.853	6.42
320.064	6.64
320.276	6.95
320.488	6.91
320.699	6.96
320.911	6.87
321.123	7.07
321.334	6.73
321.546	7.13
321.757	6.58
321.969	6.14
322.18	6.28
322.392	6.49
322.603	6.23
322.815	6.1
323.026	6.62
323.238	6.4
323.449	6.38
323.661	6.52
323.872	6.35
324.083	6.84
324.295	7.58
324.506	7.54
324.718	7.41
324.929	7.51
325.14	7.66
325.352	7.54
325.563	7.77
325.774	7.92
325.986	8.41
326.197	8.58
326.408	8.92
326.62	8.81
326.831	8.87
327.042	9.05
327.253	9.28
327.464	9.59
327.676	9.5
327.887	9.61
328.098	9.76
328.309	9.53
328.52	9.99
328.732	10.17
328.943	10.52
329.154	10.66
329.365	10.78
329.576	10.95
329.787	10.63
329.998	10.68
330.209	10.73
330.42	11.13
330.631	11.57
330.842	11.11
331.053	11.17
331.264	10.82
331.475	10.52
331.686	10.52
331.897	10.73
332.108	11.3
332.319	11.65
332.53	11.8
332.741	12.2
332.952	11.97
333.163	11.83
333.374	11.37
333.585	11.57
333.795	11.95
334.006	11.93
334.217	11.87
334.428	11.69
334.639	11.46
334.849	10.93
335.06	10.53
335.271	10.66
335.482	11
335.692	11.1
335.903	10.97
336.114	11.09
336.325	10.88
336.535	10.91
336.746	10.42
336.957	10.32
337.167	10.73
337.378	10.72
337.589	10.84
337.799	10.54
338.01	10.77
338.22	10.96
338.431	10.58
338.642	10.67
338.852	10.58
339.063	11.01
339.273	10.9
339.484	11.08
339.694	10.62
339.905	10.43
340.115	10.95
340.326	10.78
340.536	10.76
340.746	11.1
340.957	11.41
341.167	11.16
341.378	11.02
341.588	11.18
341.799	11.38
342.009	11.75
342.219	11.84
342.43	11.18
342.64	11.49
342.85	11.31
343.061	11.1
343.271	10.7
343.481	10.83
343.691	10.91
343.902	11.01
344.112	10.91
344.322	10.58
344.532	10.43
344.743	10.94
344.953	10.8
345.163	10.92
345.373	11.02
345.583	11.21
345.793	11.42
346.004	11.19
346.214	10.88
346.424	10.76
346.634	11.05
346.844	11.18
347.054	10.72
347.264	10.64
347.474	10.45
347.684	10.16
347.894	10.12
348.104	9.77
348.314	9.9
348.524	9.82
348.734	9.65
348.944	9.72
349.154	9.69
349.364	9.67
349.574	9.53
349.784	9.86
349.994	10.16
350.204	10.24
350.413	10.4
350.623	10.36
350.833	10.57
351.043	10.47
351.253	10.56
351.463	10.9
351.672	10.73
351.882	11.04
352.092	10.69
352.302	10.56
352.511	10.82
352.721	10.58
352.931	10.68
353.141	10.38
353.35	10.49
353.56	10.26
353.77	10.06
353.979	10.26
354.189	10.13
354.399	10.18
354.608	10.19
354.818	9.85
355.027	9.99
355.237	10.01
355.447	10.3
355.656	10.31
355.866	10.45
356.075	10.3
356.285	10.33
356.494	10.1
356.704	10.1
356.913	10.12
357.123	9.96
357.332	10.04
357.542	10.07
357.751	10.21
357.96	10.16
358.17	9.96
358.379	9.75
358.589	9.7
358.798	10.05
359.007	10
359.217	10.08
359.426	10.45
359.635	10.51
359.845	10.22
360.054	10.13
360.263	10.23
360.472	10.23
360.682	10.4
360.891	10.56
361.1	10.33
361.309	10.29
361.519	10.09
361.728	9.94
361.937	9.93
362.146	9.93
362.355	10.03
362.564	9.93
362.774	9.97
362.983	9.98
363.192	9.91
363.401	9.86
363.61	9.88
363.819	10.01
364.028	9.7
364.237	9.64
364.446	9.76
364.655	9.58
364.864	9.62
365.073	9.42
365.282	9.47
365.491	9.25
365.7	9.42
365.909	9.61
366.118	9.64
366.327	9.83
366.536	9.79
366.745	9.59
366.954	9.33
367.162	9.42
367.371	9.62
367.58	9.53
367.789	9.73
367.998	9.64
368.207	9.4
368.415	9.12
368.624	9.09
368.833	8.83
369.042	9.02
369.25	9.4
369.459	9.04
369.668	8.75
369.877	8.65
370.085	8.63
370.294	8.93
370.503	9.06
370.711	9.05
370.92	9.14
371.129	9.16
371.337	8.99
371.546	8.8
371.754	9.1
371.963	9.12
372.171	9.23
372.38	9.18
372.589	8.95
372.797	8.65
373.006	8.78
373.214	8.67
373.423	8.66
373.631	8.59
373.84	8.5
374.048	8.34
374.256	8.57
374.465	8.66
374.673	8.7
374.882	8.57
375.09	8.8
375.298	9.05
375.507	9.02
375.715	9.01
375.923	9.15
376.132	9.23
376.34	9.07
376.548	9.13
376.757	8.98
376.965	9.13
377.173	9.1
377.381	9.03
377.59	8.75
377.798	8.74
378.006	8.63
378.214	8.55
378.423	8.45
378.631	8.54
378.839	8.25
379.047	8.01
379.255	7.79
379.463	7.61
379.671	7.37
379.879	7.43
380.088	7.43
380.296	7.5
380.504	7.45
380.712	7.28
380.92	7.21
381.128	7.46
381.336	7.38
381.544	7.39
381.752	7.22
381.96	7.22
382.168	7.21
382.376	7.13
382.584	7.22
382.791	7.16
382.999	7.39
383.207	7.35
383.415	7.09
383.623	7.13
383.831	7.01
384.039	7.45
384.247	7.65
384.454	7.56
384.662	7.64
384.87	7.4
385.078	7.61
385.285	7.38
385.493	7.4
385.701	7.38
385.909	7.56
386.116	7.7
386.324	7.48
386.532	7.3
386.739	7.18
386.947	7.03
387.155	7.23
387.362	7.26
387.57	7.25
387.778	7.59
387.985	7.65
388.193	7.5
388.4	7.34
388.608	7.52
388.816	7.56
389.023	7.5
389.231	7.6
389.438	7.42
389.646	7.35
389.853	7.51
390.061	7.14
390.268	6.91
390.475	6.92
390.683	6.8
390.89	6.59
391.098	6.59
391.305	6.63
391.512	6.5
391.72	6.63
391.927	6.51
392.135	6.41
392.342	6.34
392.549	6.53
392.756	6.33
392.964	6.35
393.171	6.25
393.378	5.98
393.586	5.9
393.793	5.83
394	5.78
394.207	5.76
394.414	5.66
394.622	5.67
394.829	5.59
395.036	5.65
395.243	5.61
395.45	5.57
395.657	5.71
395.864	5.68
396.072	5.73
396.279	5.69
396.486	5.45
396.693	5.62
396.9	5.65
397.107	5.6
397.314	5.59
397.521	5.58
397.728	5.68
397.935	5.69
398.142	5.74
398.349	5.72
398.556	5.61
398.763	5.72
398.97	5.66
399.177	5.48
399.383	5.48
399.59	5.45
399.797	5.43
400.004	5.28
400.211	5.15
400.418	5.02
400.625	5.1
400.831	5.17
401.038	5.2
401.245	5.19
401.452	5.37
401.658	5.26
401.865	5.19
402.072	5.25
402.279	5.25
402.485	5.31
402.692	5.35
402.899	5.19
403.105	5.1
403.312	4.97
403.519	4.81
403.725	4.78
403.932	4.84
404.138	5.05
404.345	5.02
404.552	5.02
404.758	4.98
404.965	4.93
405.171	4.87
405.378	4.83
405.584	4.78
405.791	4.87
405.997	4.77
406.204	4.65
406.41	4.54
406.617	4.68
406.823	4.79
407.029	4.8
407.236	4.73
407.442	4.79
407.649	4.83
407.855	5
408.061	4.93
408.268	4.81
408.474	4.92
408.68	4.73
408.887	4.57
409.093	4.5
409.299	4.45
409.505	4.43
409.712	4.49
409.918	4.46
410.124	4.38
410.33	4.56
410.537	4.74
410.743	4.68
410.949	4.84
411.155	4.71
411.361	4.82
411.567	4.95
411.773	5.08
411.98	4.83
412.186	4.91
412.392	4.97
412.598	4.73
412.804	4.66
413.01	4.36
413.216	4.39
413.422	4.25
413.628	4.21
413.834	4.18
414.04	4.03
414.246	4.08
414.452	3.86
414.658	3.75
414.864	3.86
415.07	3.85
415.275	4.08
415.481	4.01
415.687	4.2
415.893	4.11
416.099	4.04
416.305	4.11
416.511	4.18
416.716	4.19
416.922	4.22
417.128	4.18
417.334	4.17
417.539	4.15
417.745	4.18
417.951	4.13
418.157	4.09
418.362	4.05
418.568	4.02
418.774	4.1
418.979	4.17
419.185	4.25
419.391	4.25
419.596	4.23
419.802	4.14
420.008	4.11
420.213	4.18
420.419	4.21
420.624	4.25
420.83	4.23
421.035	4.15
421.241	4.09
421.446	4.02
421.652	3.99
421.857	3.98
422.063	4.01
422.268	4.02
422.474	3.98
422.679	3.97
422.885	3.92
423.09	3.94
423.295	3.94
423.501	3.99
423.706	3.98
423.911	3.94
424.117	3.97
424.322	3.96
424.527	3.82
424.733	3.79
424.938	3.78
425.143	3.83
425.349	3.8
425.554	3.82
425.759	3.78
425.964	3.82
426.169	3.87
426.375	3.79
426.58	3.78
426.785	3.83
426.99	3.82
427.195	3.86
427.4	3.8
427.605	3.9
427.811	3.96
428.016	3.86
428.221	3.86
428.426	3.8
428.631	3.87
428.836	3.9
429.041	3.94
429.246	3.82
429.451	3.76
429.656	3.76
429.861	3.71
430.066	3.71
430.271	3.77
430.476	3.63
430.681	3.64
430.886	3.6
431.09	3.67
431.295	3.81
431.5	3.94
431.705	3.93
431.91	3.89
432.115	3.83
432.32	3.82
432.524	3.86
432.729	3.98
432.934	3.97
433.139	3.95
433.343	3.81
433.548	3.78
433.753	3.85
433.958	3.84
434.162	3.87
434.367	3.96
434.572	3.95
434.776	3.89
434.981	3.82
435.186	3.84
435.39	3.9
435.595	4.02
435.799	3.95
436.004	3.91
436.209	3.9
436.413	3.96
436.618	3.9
436.822	3.85
437.027	3.83
437.231	3.83
437.436	3.85
437.64	3.88
437.845	3.94
438.049	3.98
438.253	3.87
438.458	3.83
438.662	3.74
438.867	3.75
439.071	3.75
439.275	3.82
439.48	3.79
439.684	3.79
439.888	3.75
440.093	3.66
440.297	3.65
440.501	3.73
440.706	3.82
440.91	3.9
441.114	3.9
441.318	3.9
441.523	3.84
441.727	3.89
441.931	3.91
442.135	3.96
442.339	3.99
442.543	4.04
442.748	3.99
442.952	3.88
443.156	3.84
443.36	3.84
443.564	3.82
443.768	3.89
443.972	3.85
444.176	3.77
444.38	3.68
444.584	3.73
444.788	3.73
444.992	3.69
445.196	3.7
445.4	3.73
445.604	3.73
445.808	3.75
446.012	3.66
446.216	3.72
446.42	3.79
446.624	3.74
446.828	3.68
447.032	3.56
447.235	3.56
447.439	3.52
447.643	3.46
447.847	3.45
448.051	3.49
448.254	3.53
448.458	3.47
448.662	3.45
448.866	3.48
449.069	3.48
449.273	3.53
449.477	3.59
449.681	3.58
449.884	3.67
450.088	3.69
450.292	3.72
450.495	3.73
450.699	3.63
450.902	3.61
451.106	3.55
451.31	3.62
451.513	3.65
451.717	3.58
451.92	3.57
452.124	3.4
452.327	3.37
452.531	3.28
452.734	3.33
452.938	3.4
453.141	3.4
453.345	3.52
453.548	3.45
453.752	3.47
453.955	3.47
454.158	3.64
454.362	3.78
454.565	3.85
454.769	3.77
454.972	3.71
455.175	3.79
455.379	3.86
455.582	3.86
455.785	3.86
455.988	3.81
456.192	3.89
456.395	3.79
456.598	3.69
456.801	3.6
457.005	3.8
457.208	3.83
457.411	3.74
457.614	3.63
457.817	3.49
458.021	3.46
458.224	3.5
458.427	3.5
458.63	3.49
458.833	3.52
459.036	3.44
459.239	3.37
459.442	3.34
459.645	3.32
459.848	3.28
460.051	3.36
460.254	3.41
460.457	3.41
460.66	3.36
460.863	3.45
461.066	3.48
461.269	3.59
461.472	3.61
461.675	3.7
461.878	3.82
462.081	3.9
462.284	3.97
462.486	3.95
462.689	3.95
462.892	3.99
463.095	3.87
463.298	3.85
463.5	3.77
463.703	3.71
463.906	3.65
464.109	3.54
464.311	3.55
464.514	3.51
464.717	3.55
464.92	3.51
465.122	3.57
465.325	3.6
465.528	3.56
465.73	3.5
465.933	3.56
466.135	3.54
466.338	3.61
466.541	3.67
466.743	3.61
466.946	3.67
467.148	3.76
467.351	3.73
467.553	3.77
467.756	3.81
467.958	3.87
468.161	3.85
468.363	3.93
468.566	3.82
468.768	3.72
468.971	3.69
469.173	3.63
469.375	3.65
469.578	3.78
469.78	3.78
469.983	3.79
470.185	3.77
470.387	3.76
470.59	3.72
470.792	3.81
470.994	3.91
471.196	3.99
471.399	4.11
471.601	4.05
471.803	3.99
472.005	4.01
472.208	4.01
472.41	4.15
472.612	4.16
472.814	4.15
473.016	4.15
473.218	4.15
473.421	4.04
473.623	3.97
473.825	3.92
474.027	3.96
474.229	3.91
474.431	4.02
474.633	4.01
474.835	4.03
475.037	4.1
475.239	4.17
475.441	4.18
475.643	4.32
475.845	4.25
476.047	4.31
476.249	4.26
476.451	4.29
476.653	4.24
476.855	4.17
477.057	4.16
477.258	4.16
477.46	4.08
477.662	4.12
477.864	4.05
478.066	4.01
478.268	4.05
478.469	4.03
478.671	3.88
478.873	3.86
479.075	3.83
479.276	3.92
479.478	3.89
479.68	3.96
479.882	3.94
480.083	3.96
480.285	4.02
480.487	4.04
480.688	3.98
480.89	4.13
481.091	4.03
481.293	4.04
481.495	3.95
481.696	3.91
481.898	3.84
482.099	3.81
482.301	3.8
482.502	3.81
482.704	3.77
482.905	3.76
483.107	3.72
483.308	3.72
483.51	3.7
483.711	3.71
483.913	3.72
484.114	3.71
484.315	3.7
484.517	3.71
484.718	3.68
484.92	3.67
485.121	3.66
485.322	3.72
485.524	3.73
485.725	3.75
485.926	3.74
486.127	3.75
486.329	3.77
486.53	3.76
486.731	3.77
486.932	3.79
487.134	3.81
487.335	3.82
487.536	3.78
487.737	3.76
487.938	3.77
488.139	3.81
488.341	3.82
488.542	3.81
488.743	3.83
488.944	3.85
489.145	3.84
489.346	3.86
489.547	3.87
489.748	3.88
489.949	3.92
490.15	3.88
490.351	3.84
490.552	3.86
490.753	3.87
490.954	3.87
491.155	3.83
491.356	3.82
491.557	3.82
491.758	3.83
491.959	3.82
492.159	3.89
492.36	3.91
492.561	3.98
492.762	3.98
492.963	3.98
493.164	4.03
493.364	4.02
493.565	4.08
493.766	4.12
493.967	4.12
494.167	4.13
494.368	4.08
494.569	4.16
494.769	4.12
494.97	4.11
495.171	4.11
495.371	4.06
495.572	4.15
495.773	4.19
495.973	4.14
496.174	4.14
496.375	4.22
496.575	4.2
496.776	4.14
496.976	4.14
497.177	4.17
497.377	4.25
497.578	4.4
497.778	4.48
497.979	4.46
498.179	4.51
498.38	4.57
498.58	4.58
498.78	4.66
498.981	4.73
499.181	4.74
499.382	4.73
499.582	4.72
499.782	4.61
499.983	4.56
500.183	4.6
500.383	4.5
500.584	4.45
500.784	4.35
500.984	4.41
501.184	4.48
501.385	4.56
501.585	4.67
501.785	4.69
501.985	4.74
502.185	4.74
502.386	4.86
502.586	5.01
502.786	4.99
502.986	5.08
503.186	5.07
503.386	4.97
503.586	4.95
503.786	4.95
503.987	5.02
504.187	5.04
504.387	5.1
504.587	5.02
504.787	5.09
504.987	5.22
505.187	5.33
505.387	5.34
505.587	5.47
505.786	5.51
505.986	5.58
506.186	5.61
506.386	5.68
506.586	5.72
506.786	5.77
506.986	5.82
507.186	5.82
507.386	5.78
507.585	5.83
507.785	5.79
507.985	5.87
508.185	5.81
508.384	5.8
508.584	5.75
508.784	5.73
508.984	5.78
509.183	5.75
509.383	5.88
509.583	5.99
509.782	6.01
509.982	6.08
510.182	6.09
510.381	6.22
510.581	6.22
510.781	6.31
510.98	6.32
511.18	6.38
511.379	6.46
511.579	6.49
511.778	6.56
511.978	6.65
512.177	6.63
512.377	6.67
512.576	6.75
512.776	6.87
512.975	6.92
513.175	7.01
513.374	7.03
513.573	7.08
513.773	7.09
513.972	7.08
514.172	7.09
514.371	7.29
514.57	7.38
514.77	7.31
514.969	7.27
515.168	7.37
515.367	7.48
515.567	7.69
515.766	7.69
515.965	7.81
516.164	7.9
516.364	7.99
516.563	7.98
516.762	8
516.961	8.09
517.16	8.27
517.359	8.27
517.559	8.33
517.758	8.26
517.957	8.39
518.156	8.42
518.355	8.49
518.554	8.55
518.753	8.66
518.952	8.77
519.151	8.81
519.35	8.84
519.549	8.95
519.748	9.01
519.947	9.1
520.146	9.21
520.345	9.25
520.544	9.24
520.743	9.33
520.942	9.43
521.141	9.51
521.339	9.65
521.538	9.8
521.737	9.91
521.936	10.01
522.135	10.08
522.333	10.11
522.532	10.26
522.731	10.36
522.93	10.41
523.129	10.48
523.327	10.61
523.526	10.56
523.725	10.6
523.923	10.74
524.122	10.79
524.321	10.9
524.519	10.89
524.718	10.96
524.917	11.06
525.115	11.11
525.314	11.13
525.512	11.15
525.711	11.32
525.909	11.38
526.108	11.41
526.306	11.39
526.505	11.48
526.703	11.61
526.902	11.66
527.1	11.7
527.299	11.82
527.497	11.91
527.696	11.96
527.894	11.99
528.092	12.02
528.291	12.06
528.489	12.13
528.688	12.14
528.886	12.22
529.084	12.26
529.283	12.34
529.481	12.36
529.679	12.41
529.877	12.46
530.076	12.56
530.274	12.67
530.472	12.72
530.67	12.89
530.869	13.01
531.067	13.06
531.265	13.2
531.463	13.29
531.661	13.4
531.859	13.47
532.057	13.53
532.255	13.57
532.454	13.62
532.652	13.68
532.85	13.63
533.048	13.67
533.246	13.69
533.444	13.68
533.642	13.74
533.84	13.78
534.038	13.84
534.236	13.91
534.434	13.92
534.632	13.97
534.83	14.03
535.027	14.18
535.225	14.25
535.423	14.37
535.621	14.51
535.819	14.54
536.017	14.53
536.215	14.57
536.412	14.65
536.61	14.76
536.808	14.82
537.006	14.9
537.203	14.96
537.401	15.04
537.599	15.12
537.797	15.18
537.994	15.28
538.192	15.54
538.39	15.69
538.587	15.81
538.785	15.95
538.983	16.11
539.18	16.16
539.378	16.26
539.575	16.36
539.773	16.44
539.97	16.54
540.168	16.63
540.366	16.68
540.563	16.74
540.761	16.81
540.958	16.85
541.155	16.87
541.353	16.99
541.55	17.05
541.748	17.12
541.945	17.17
542.143	17.2
542.34	17.26
542.537	17.32
542.735	17.36
542.932	17.41
543.129	17.49
543.327	17.63
543.524	17.7
543.721	17.87
543.919	18.04
544.116	18.28
544.313	18.59
544.51	18.85
544.708	19.11
544.905	19.41
545.102	19.68
545.299	19.91
545.496	20.13
545.693	20.36
545.891	20.46
546.088	20.52
546.285	20.43
546.482	20.27
546.679	20.12
546.876	19.99
547.073	19.81
547.27	19.63
547.467	19.51
547.664	19.37
547.861	19.25
548.058	19.1
548.255	19.07
548.452	19.06
548.649	19.06
548.846	19.13
549.043	19.1
549.24	19.05
549.437	19.12
549.633	19.16
549.83	19.13
550.027	19.11
550.224	19.19
550.421	19.09
550.618	18.98
550.814	19
551.011	18.99
551.208	18.9
551.405	18.95
551.601	18.96
551.798	18.91
551.995	18.91
552.191	18.89
552.388	18.84
552.585	18.87
552.781	18.95
552.978	18.92
553.175	18.85
553.371	18.83
553.568	18.89
553.764	18.89
553.961	18.82
554.157	18.77
554.354	18.82
554.55	18.79
554.747	18.74
554.943	18.78
555.14	18.7
555.336	18.62
555.533	18.81
555.729	18.84
555.926	18.89
556.122	19.02
556.318	19.03
556.515	18.97
556.711	18.93
556.907	18.94
557.104	19
557.3	19.12
557.496	19.19
557.693	19.11
557.889	19.04
558.085	18.94
558.281	18.87
558.478	18.95
558.674	19.03
558.87	19.03
559.066	19.19
559.262	19.23
559.459	19.26
559.655	19.3
559.851	19.37
560.047	19.51
560.243	19.59
560.439	19.63
560.635	19.71
560.831	19.66
561.027	19.9
561.223	19.73
561.419	19.64
561.615	19.65
561.811	19.68
562.007	19.62
562.203	19.59
562.399	19.64
562.595	19.75
562.791	19.77
562.987	19.84
563.183	19.78
563.379	20.02
563.575	20.09
563.771	20.14
563.966	20.12
564.162	20.21
564.358	20.19
564.554	20.08
564.75	20.02
564.945	20.05
565.141	20.05
565.337	20.03
565.533	20.05
565.728	20.06
565.924	20.11
566.12	20.2
566.315	20.18
566.511	20.28
566.707	20.31
566.902	20.35
567.098	20.22
567.293	20.22
567.489	20.3
567.684	20.16
567.88	20.21
568.076	20.16
568.271	20.23
568.467	20.2
568.662	20.25
568.858	20.32
569.053	20.32
569.248	20.4
569.444	20.56
569.639	20.56
569.835	20.57
570.03	20.59
570.225	20.53
570.421	20.54
570.616	20.56
570.812	20.49
571.007	20.61
571.202	20.66
571.397	20.71
571.593	20.62
571.788	20.57
571.983	20.59
572.178	20.64
572.374	20.77
572.569	20.74
572.764	20.87
572.959	20.84
573.154	20.82
573.35	20.79
573.545	20.73
573.74	20.79
573.935	20.85
574.13	20.94
574.325	20.91
574.52	20.95
574.715	21.02
574.91	21.02
575.105	21.24
575.3	21.23
575.495	21.41
575.69	21.6
575.885	21.75
576.08	21.91
576.275	21.97
576.47	22.08
576.665	22.23
576.86	22.36
577.055	22.42
577.25	22.48
577.444	22.68
577.639	22.83
577.834	22.97
578.029	23.04
578.224	23.15
578.418	23.24
578.613	23.41
578.808	23.31
579.003	23.22
579.197	23.18
579.392	23.17
579.587	23.16
579.781	22.95
579.976	22.85
580.171	22.83
580.365	22.71
580.56	22.75
580.755	22.68
580.949	22.73
581.144	22.98
581.338	23.25
581.533	23.27
581.727	23.31
581.922	23.37
582.116	23.4
582.311	23.33
582.505	23.48
582.7	23.53
582.894	23.66
583.089	23.77
583.283	23.79
583.478	23.82
583.672	23.83
583.866	23.87
584.061	24.01
584.255	24.18
584.449	24.23
584.644	24.19
584.838	24.38
585.032	24.46
585.226	24.48
585.421	24.34
585.615	24.33
585.809	24.56
586.003	24.78
586.198	24.81
586.392	24.84
586.586	25.04
586.78	25.13
586.974	24.99
587.168	24.94
587.363	24.89
587.557	25.01
587.751	24.86
587.945	24.77
588.139	24.56
588.333	24.62
588.527	24.53
588.721	24.35
588.915	24.15
589.109	24.1
589.303	23.99
589.497	24.17
589.691	24.15
589.885	24.2
590.079	24.18
590.273	24.19
590.466	24.18
590.66	24.24
590.854	24.28
591.048	24.5
591.242	24.73
591.436	24.97
591.629	24.98
591.823	24.92
592.017	25.04
592.211	25.14
592.404	25.27
592.598	25.23
592.792	25.16
592.986	25.37
593.179	25.38
593.373	25.27
593.567	25.22
593.76	25.19
593.954	25.34
594.147	25.36
594.341	25.2
594.535	25.16
594.728	25.16
594.922	25.2
595.115	25.01
595.309	24.93
595.502	24.76
595.696	24.6
595.889	24.6
596.083	24.53
596.276	24.34
596.47	24.44
596.663	24.34
596.856	24.27
597.05	24.28
597.243	24.33
597.437	24.36
597.63	24.62
597.823	24.82
598.017	24.88
598.21	24.92
598.403	25.27
598.596	25.22
598.79	25.36
598.983	25.62
599.176	25.72
599.369	25.94
599.563	25.99
599.756	25.98
599.949	25.91
600.142	25.79
600.335	25.87
600.528	25.85
600.722	25.9
600.915	25.86
601.108	25.82
601.301	25.8
601.494	25.46
601.687	25.46
601.88	25.4
602.073	25.41
602.266	25.44
602.459	25.29
602.652	25.08
602.845	25.06
603.038	24.9
603.231	24.82
603.424	24.72
603.617	24.83
603.809	24.78
604.002	24.78
604.195	24.77
604.388	24.79
604.581	24.8
604.774	24.89
604.966	24.81
605.159	25.06
605.352	25.1
605.545	25.24
605.737	25.37
605.93	25.52
606.123	25.51
606.316	25.61
606.508	25.71
606.701	25.86
606.894	26.04
607.086	26.29
607.279	26.36
607.471	26.73
607.664	26.98
607.857	27.22
608.049	27.53
608.242	28.04
608.434	28.52
608.627	29.32
608.819	30.24
609.012	31.45
609.204	32.66
609.397	33.95
609.589	35.11
609.782	36.54
609.974	38.06
610.166	39.55
610.359	41.09
610.551	42.41
610.743	43.47
610.936	44.48
611.128	44.95
611.32	45.46
611.513	45.82
611.705	46.03
611.897	45.83
612.09	45.43
612.282	45.02
612.474	44.17
612.666	43.53
612.858	42.84
613.051	41.91
613.243	41.07
613.435	40.18
613.627	39.19
613.819	38.43
614.011	37.56
614.203	36.93
614.395	36.14
614.588	35.59
614.78	35
614.972	34.3
615.164	33.69
615.356	33.31
615.548	32.82
615.74	32.41
615.932	32.12
616.124	31.77
616.315	31.44
616.507	31.03
616.699	30.57
616.891	30.23
617.083	29.92
617.275	29.75
617.467	29.39
617.659	29.32
617.85	29.05
618.042	28.79
618.234	28.79
618.426	28.68
618.618	28.62
618.809	28.72
619.001	28.83
619.193	29.03
619.384	28.97
619.576	28.84
619.768	28.77
619.959	28.95
620.151	28.81
620.343	28.84
620.534	28.55
620.726	28.64
620.917	28.64
621.109	28.67
621.301	28.54
621.492	28.66
621.684	28.81
621.875	28.7
622.067	28.65
622.258	28.78
622.45	28.72
622.641	28.76
622.832	28.96
623.024	28.93
623.215	28.81
623.407	28.81
623.598	28.82
623.789	28.97
623.981	29.24
624.172	29.13
624.363	29.06
624.555	28.97
624.746	29.15
624.937	28.88
625.129	28.9
625.32	28.88
625.511	28.93
625.702	29.1
625.893	29.07
626.085	28.75
626.276	28.69
626.467	28.67
626.658	28.76
626.849	28.59
627.04	28.68
627.231	28.74
627.422	28.8
627.614	28.75
627.805	28.58
627.996	28.54
628.187	28.9
628.378	29.24
628.569	29.4
628.76	29.59
628.951	29.94
629.142	30.07
629.332	30.31
629.523	30.39
629.714	30.53
629.905	30.62
630.096	30.82
630.287	30.67
630.478	30.59
630.669	30.65
630.859	30.62
631.05	30.31
631.241	30.35
631.432	30.13
631.623	30
631.813	29.87
632.004	29.64
632.195	29.24
632.385	29.09
632.576	28.8
632.767	28.59
632.957	28.34
633.148	28.3
633.339	27.99
633.529	27.92
633.72	27.79
633.91	27.67
634.101	27.78
634.292	27.73
634.482	27.71
634.673	27.72
634.863	27.59
635.054	27.47
635.244	27.42
635.435	27.51
635.625	27.33
635.815	27.37
636.006	27.43
636.196	27.29
636.387	27.36
636.577	27.39
636.767	27.47
636.958	27.58
637.148	27.7
637.338	27.77
637.529	27.71
637.719	27.8
637.909	27.68
638.099	27.7
638.29	27.74
638.48	27.73
638.67	27.7
638.86	27.62
639.05	27.56
639.241	27.35
639.431	27.62
639.621	27.5
639.811	27.47
640.001	27.54
640.191	27.62
640.381	27.78
640.571	27.88
640.761	27.76
640.951	27.68
641.141	27.82
641.331	27.95
641.521	27.8
641.711	28.22
641.901	28.11
642.091	28.3
642.281	28.2
642.471	28.17
642.661	28.08
642.851	28.16
643.041	28.35
643.231	28.27
643.42	28.52
643.61	28.07
643.8	27.8
643.99	27.87
644.18	27.82
644.369	28.06
644.559	27.9
644.749	28.02
644.939	28.15
645.128	28.13
645.318	28.11
645.508	27.96
645.697	28.42
645.887	28.51
646.076	28.67
646.266	28.49
646.456	28.2
646.645	28.36
646.835	28.32
647.024	28.23
647.214	28.43
647.403	28.46
647.593	28.34
647.782	28.18
647.972	28.17
648.161	28.16
648.351	28.21
648.54	28.51
648.73	28.65
648.919	28.75
649.108	28.92
649.298	28.86
649.487	29.03
649.677	29.2
649.866	29.29
650.055	29.36
650.244	29.36
650.434	29.54
650.623	29.4
650.812	29.44
651.002	29.26
651.191	29.36
651.38	29.28
651.569	29.07
651.758	28.96
651.947	28.98
652.137	28.7
652.326	28.58
652.515	28.6
652.704	28.66
652.893	28.57
653.082	28.61
653.271	28.48
653.46	28.41
653.649	28.51
653.838	28.69
654.027	28.72
654.216	28.76
654.405	28.93
654.594	28.68
654.783	28.68
654.972	28.49
655.161	28.64
655.35	28.42
655.539	28.47
655.728	28.43
655.916	28.29
656.105	28.15
656.294	28.5
656.483	28.41
656.672	28.54
656.86	28.3
657.049	28.25
657.238	28.02
657.427	28.31
657.615	28.18
657.804	28.03
657.993	27.84
658.181	27.76
658.37	27.56
658.559	27.41
658.747	27.37
658.936	27.34
659.125	27.38
659.313	27.67
659.502	27.68
659.69	27.74
659.879	27.94
660.067	28.21
660.256	28.35
660.444	28.42
660.633	28.57
660.821	28.6
661.01	28.86
661.198	28.87
661.387	28.91
661.575	28.93
661.763	29.17
661.952	29.17
662.14	29.29
662.328	29.32
662.517	29.46
662.705	29.61
662.893	29.77
663.082	29.66
663.27	29.81
663.458	29.7
663.646	29.72
663.834	29.62
664.023	29.49
664.211	29.44
664.399	29.39
664.587	29.28
664.775	29.21
664.963	29.24
665.152	29.27
665.34	29.36
665.528	29.37
665.716	29.41
665.904	29.41
666.092	29.52
666.28	29.49
666.468	29.47
666.656	29.59
666.844	29.8
667.032	29.81
667.22	30.03
667.408	30.05
667.596	29.71
667.784	29.43
667.971	29.28
668.159	28.98
668.347	28.8
668.535	28.67
668.723	28.69
668.911	28.41
669.098	28.53
669.286	28.21
669.474	28.33
669.662	28.69
669.849	28.91
670.037	29.04
670.225	29.13
670.413	29.17
670.6	29.36
670.788	29.28
670.976	29.2
671.163	29.06
671.351	29.18
671.538	28.87
671.726	28.78
671.913	28.88
672.101	29.13
672.289	29.44
672.476	29.44
672.664	29.63
672.851	29.55
673.039	29.77
673.226	29.73
673.413	29.84
673.601	30.02
673.788	30.05
673.976	29.82
674.163	29.82
674.35	29.92
674.538	30.13
674.725	30.44
674.912	30.33
675.1	30.44
675.287	30.53
675.474	30.55
675.662	30.57
675.849	30.46
676.036	30.7
676.223	30.52
676.411	30.27
676.598	30.14
676.785	29.76
676.972	30
677.159	29.97
677.346	30.15
677.533	29.88
677.721	29.83
677.908	29.83
678.095	29.65
678.282	29.69
678.469	29.62
678.656	29.73
678.843	29.9
679.03	29.93
679.217	29.63
679.404	29.52
679.591	29.82
679.778	29.93
679.964	29.83
680.151	29.69
680.338	29.69
680.525	29.77
680.712	29.65
680.899	29.49
681.086	29.41
681.272	29.39
681.459	29.35
681.646	29.19
681.833	29.17
682.02	29.39
682.206	29.49
682.393	29.24
682.58	29.17
682.766	29.37
682.953	29.48
683.14	29.55
683.326	29.87
683.513	29.82
683.7	29.98
683.886	29.92
684.073	29.91
684.259	29.99
684.446	30.25
684.632	30.56
684.819	30.54
685.005	30.57
685.192	30.7
685.378	30.6
685.565	30.81
685.751	30.87
685.938	30.81
686.124	31.1
686.31	30.94
686.497	31.2
686.683	31.08
686.87	31.05
687.056	31.22
687.242	30.83
687.429	30.8
687.615	30.81
687.801	30.77
687.987	30.7
688.174	30.34
688.36	30.3
688.546	30.05
688.732	30.03
688.918	29.98
689.105	29.61
689.291	30.01
689.477	30.41
689.663	30.25
689.849	30.05
690.035	30.19
690.221	30.41
690.407	30.86
690.593	31.21
690.779	31.45
690.965	31.36
691.151	31.63
691.337	31.55
691.523	31.28
691.709	31.8
691.895	31.97
692.081	31.77
692.267	31.7
692.453	31.71
692.639	31.61
692.825	31.41
693.011	31.65
693.196	31.9
693.382	31.78
693.568	31.73
693.754	31.2
693.94	31.34
694.125	31.5
694.311	31.55
694.497	31.69
694.682	31.44
694.868	31.27
695.054	31.21
695.239	30.84
695.425	31.25
695.611	31.63
695.796	31.41
695.982	31.09
696.168	31.09
696.353	30.96
696.539	30.75
696.724	30.45
696.91	30.33
697.095	30.23
697.281	30.49
697.466	30.27
697.652	29.83
697.837	29.84
698.023	29.82
698.208	29.66
698.393	29.47
698.579	29.24
698.764	29.37
698.949	29.47
699.135	29.47
699.32	29.18
699.505	29.09
699.691	29.22
699.876	29.27
700.061	29.54
700.246	29.62
700.432	29.77
700.617	29.95
700.802	30.02
700.987	30.55
701.172	30.65
701.358	31.04
701.543	31.11
701.728	31.2
701.913	31.39
702.098	31.56
702.283	31.88
702.468	31.84
702.653	32.36
702.838	32.59
703.023	32.58
703.208	32.7
703.393	32.71
703.578	33.01
703.763	33.22
703.948	33.43
704.133	33.53
704.318	33.93
704.503	34.51
704.688	34.68
704.873	35
705.057	34.88
705.242	35.48
705.427	35.74
705.612	35.94
705.797	36.19
705.981	36.84
706.166	37.17
706.351	37.43
706.536	37.73
706.72	37.67
706.905	37.93
707.09	38.07
707.274	37.88
707.459	38
707.644	37.95
707.828	37.99
708.013	37.76
708.197	37.78
708.382	37.64
708.567	37.47
708.751	37.32
708.936	37.25
709.12	37.76
709.305	37.65
709.489	37.2
709.673	37.26
709.858	37.09
710.042	36.8
710.227	36.42
710.411	36.27
710.596	36.23
710.78	36.23
710.964	35.93
711.149	35.39
711.333	35.22
711.517	35.14
711.702	35.58
711.886	35.74
712.07	36.1
712.254	36
712.438	36.03
712.623	35.83
712.807	35.58
712.991	35.6
713.175	35.31
713.359	35.36
713.544	35.47
713.728	34.77
713.912	34.4
714.096	33.84
714.28	33.85
714.464	33.45
714.648	33.08
714.832	33.26
715.016	32.83
715.2	32.72
715.384	32.8
715.568	32.58
715.752	32.43
715.936	32.46
716.12	32.12
716.304	31.5
716.488	31.47
716.671	31.87
716.855	31.37
717.039	31.33
717.223	31.38
717.407	31.31
717.59	31.44
717.774	31.48
717.958	31.15
718.142	31.12
718.325	31.63
718.509	31.74
718.693	31.37
718.877	31.3
719.06	31.51
719.244	31.27
719.428	31.15
719.611	31.15
719.795	31.26
719.978	30.99
720.162	31.26
720.345	31.29
720.529	31.53
720.713	31.9
720.896	32.32
721.08	32.76
721.263	33.15
721.446	32.96
721.63	32.66
721.813	33.04
721.997	33.7
722.18	33.63
722.364	33.66
722.547	33.16
722.73	32.77
722.914	33.11
723.097	32.65
723.28	32.63
723.464	32.46
723.647	32.87
723.83	32.3
724.013	32.57
724.197	32.92
724.38	32.92
724.563	33.37
724.746	33.81
724.929	33.53
725.112	33.88
725.296	33.82
725.479	33.37
725.662	33
725.845	32.82
726.028	32.51
726.211	32.71
726.394	32.73
726.577	32.5
726.76	32.35
726.943	32.53
727.126	32.16
727.309	32.37
727.492	33.21
727.675	33.39
727.858	33.58
728.041	33.45
728.224	33.04
728.407	32.82
728.589	33.15
728.772	33.25
728.955	32.92
729.138	32.67
729.321	32.59
729.503	32.62
729.686	32.65
729.869	32.67
730.052	32.77
730.234	32.79
730.417	32.77
730.6	32.52
730.782	32.26
730.965	32.39
731.148	32.89
731.33	32.61
731.513	32.22
731.695	31.94
731.878	31.92
732.061	31.79
732.243	32.44
732.426	32.51
732.608	32.35
732.791	32.81
732.973	32.55
733.156	32.33
733.338	32.29
733.52	32.23
733.703	32.72
733.885	32.68
734.068	32.69
734.25	32.44
734.432	32.67
734.615	32.64
734.797	32.49
734.979	32.59
735.162	32.38
735.344	32.81
735.526	33.57
735.708	33.26
735.891	33.5
736.073	33.77
736.255	33.76
736.437	33.59
736.619	34.03
736.802	34.06
736.984	34.27
737.166	34.81
737.348	35.27
737.53	34.46
737.712	34.88
737.894	34.64
738.076	34.46
738.258	34.35
738.44	34.07
738.622	34.19
738.804	34.23
738.986	34.12
739.168	34.32
739.35	33.6
739.532	33.84
739.714	33.75
739.896	33.99
740.078	33.81
740.259	33.61
740.441	33.91
740.623	33.72
740.805	33.5
740.987	33.73
741.168	33.2
741.35	33.48
741.532	33.48
741.714	33.82
741.895	33.62
742.077	34.51
742.259	34.58
742.44	34.84
742.622	34.94
742.804	34.67
742.985	34.99
743.167	35.49
743.348	35.06
743.53	35.42
743.711	35.28
743.893	35.44
744.075	34.82
744.256	34.98
744.438	35.31
744.619	35.43
744.8	35.86
744.982	35.91
745.163	36.06
745.345	36.56
745.526	36.6
745.707	36.27
745.889	36.86
746.07	37.22
746.252	37.19
746.433	36.87
746.614	36.86
746.795	37.24
746.977	37.06
747.158	36.82
747.339	37.05
747.52	37.29
747.702	37.18
747.883	36.88
748.064	36.91
748.245	37.21
748.426	37.15
748.607	37.19
748.788	37.19
748.97	36.99
749.151	36.78
749.332	36.7
749.513	36.42
749.694	36.54
749.875	37.03
750.056	36.92
750.237	37.3
750.418	37.31
750.599	37.43
750.78	36.92
750.96	36.96
751.141	36.83
751.322	36.99
751.503	36.96
751.684	36.88
751.865	36.7
752.046	35.8
752.226	35.38
752.407	35.26
752.588	34.9
752.769	35.19
752.949	34.96
753.13	35.4
753.311	35.23
753.492	35.56
753.672	35.68
753.853	35.45
754.034	36.45
754.214	37.31
754.395	37.56
754.575	36.98
754.756	36.52
754.937	36.68
755.117	36.74
755.298	36.67
755.478	36.14
755.659	36.31
755.839	35.99
756.02	35.87
756.2	34.92
756.381	35.42
756.561	35.77
756.741	36.21
756.922	36.24
757.102	35.53
757.283	35.72
757.463	35.64
757.643	35.81
757.823	35.46
758.004	35.35
758.184	34.92
758.364	34.05
758.545	34.02
758.725	33.58
758.905	33.29
759.085	32.81
759.265	32.25
759.446	32.04
759.626	31.11
759.806	31.45
759.986	31.2
760.166	30.81
760.346	30.27
760.526	30.28
760.706	30.1
760.886	30.33
761.066	31.23
761.246	30.95
761.426	30.92
761.606	30.86
761.786	30.28
761.966	30.26
762.146	30.32
762.326	30.4
762.506	30.41
762.686	30.27
762.866	30.25
763.046	29.91
763.225	29.85
763.405	29.63
763.585	29.8
763.765	30
763.945	29.96
764.124	30.44
764.304	30.87
764.484	30.94
764.664	31.02
764.843	31.27
765.023	31.76
765.203	32.06
765.382	32.65
765.562	33.19
765.741	33.28
765.921	33.48
766.101	33.33
766.28	33.25
766.46	33.51
766.639	34.37
766.819	34.22
766.998	33.83
767.178	34.58
767.357	34.61
767.537	34.61
767.716	35.28
767.896	35.88
768.075	36.17
768.254	36.72
768.434	36.59
768.613	36.2
768.792	36.36
768.972	36.78
769.151	35.63
769.33	36.27
769.51	36.48
769.689	37.3
769.868	37.45
770.047	36.84
770.226	37.54
770.406	37.02
770.585	37.36
770.764	37.02
770.943	36.79
771.122	37.69
771.301	37.81
771.48	38.25
771.66	37.45
771.839	37.03
772.018	37.78
772.197	37.18
772.376	37.72
772.555	37.39
772.734	37.57
772.913	37.99
773.092	38.62
773.271	37.87
773.449	37.08
773.628	37.69
773.807	38.21
773.986	38.95
774.165	39.33
774.344	39.77
774.523	39.45
774.701	39.89
774.88	39.9
775.059	39.18
775.238	39.96
775.417	40.27
775.595	39.62
775.774	39.33
775.953	38.47
776.131	38.08
776.31	38.38
776.489	39.18
776.667	39.47
776.846	39.91
777.025	40.77
777.203	39.58
777.382	40.8
777.56	40.23
777.739	40.84
777.917	40.82
778.096	40.59
778.274	39.92
778.453	39.94
778.631	39.52
778.81	39.08
778.988	37.9
779.166	39.63
779.345	38.19
779.523	39.05
779.702	39.11
779.88	39.47
780.058	39.1
780.237	38.92
780.415	39.67
780.593	39.59
780.771	38.75
780.95	39.66
781.128	38.38
781.306	38.91
781.484	39.02
781.662	38.6
781.841	38.7
782.019	39.17
782.197	39.52
782.375	38.19
782.553	38.62
782.731	39.63
782.909	39.32
783.087	39.75
783.265	39.93
783.443	39.49
783.621	38.91
783.799	39.26
783.977	39.54
784.155	39.6
784.333	40.5
784.511	39.78
784.689	39.53
784.867	39.25
785.045	39.39
785.223	38.65
785.4	38.95
785.578	39.3
785.756	38.38
785.934	38.37
786.112	37.16
786.289	37.38
786.467	37.61
786.645	38.38
786.823	38.63
787	38.12
787.178	38.15
787.356	38.55
787.533	38.03
787.711	38.05
787.889	37.19
788.066	37.58
788.244	37.31
788.421	37.17
788.599	36.46
788.776	35.91
788.954	36.7
789.131	36.28
789.309	35.45
789.486	35.31
789.664	35.38
789.841	36.24
790.019	36.87
790.196	36.42
790.373	36.78
790.551	37.58
790.728	38.22
790.906	38.54
791.083	39.74
791.26	39.92
791.437	39.24
791.615	40.23
791.792	39.78
791.969	40.03
792.146	40.1
792.324	40.08
792.501	39.43
792.678	39.38
792.855	37.7
793.032	37.02
793.209	37.28
793.387	38.44
793.564	36.72
793.741	36.89
793.918	35.87
794.095	35.22
794.272	34.97
794.449	34.53
794.626	34.37
794.803	36.26
794.98	36.73
795.157	36.19
795.334	36.71
795.511	37.41
795.688	37.37
795.864	38.22
796.041	39.19
796.218	39.51
796.395	39.73
796.572	40.38
796.749	39.68
796.925	38.6
797.102	38.45
797.279	36.79
797.456	37.45
797.632	37.03
797.809	36.58
797.986	36.16
798.162	35.96
798.339	35.81
798.516	34.6
798.692	34.71
798.869	35.62
799.046	35.68
799.222	36.59
799.399	36.47
799.575	36.44
799.752	36.7
799.928	37.13
800.105	37.2
800.281	37.07
800.458	37.64
800.634	37.07
800.811	36.56
800.987	38.16
801.163	38.32
801.34	38.3
801.516	38.66
801.692	38.68
801.869	38.29
802.045	38.01
802.221	39.08
802.398	39.4
802.574	39.55
802.75	40.98
802.926	38.22
803.103	38.49
803.279	38.84
803.455	38.1
803.631	37.88
803.807	38.9
803.983	40.11
804.16	39.59
804.336	40.02
804.512	39.41
804.688	38.16
804.864	40.61
805.04	41.68
805.216	40.38
805.392	40.96
805.568	41.16
805.744	40.89
805.92	38.91
806.096	38.05
806.272	37.77
806.448	37.25
806.623	38.47
806.799	37.76
806.975	37.09
807.151	36.92
807.327	37.77
807.503	38.08
807.678	38.47
807.854	39.59
808.03	40.7
808.206	39.96
808.381	41.69
808.557	40.05
808.733	40.16
808.908	40.3
809.084	40.74
809.26	39.93
809.435	39.82
809.611	39.59
809.787	40.17
809.962	39.33
810.138	40.35
810.313	39.09
810.489	39.88
810.664	39.71
810.84	38.89
811.015	38.55
811.191	39.88
811.366	40.14
811.542	39.77
811.717	39.43
811.892	40.3
812.068	38.93
812.243	38.98
812.419	37.31
812.594	35.76
812.769	35.88
812.944	36.25
813.12	35.62
813.295	35.19
813.47	33.62
813.645	33.45
813.821	32.51
813.996	33.53
814.171	34.02
814.346	35.51
814.521	36.26
814.697	35.82
814.872	35.71
815.047	35.17
815.222	34
815.397	34.53
815.572	33.71
815.747	33.91
815.922	34.41
816.097	33.75
816.272	34.17
816.447	34.82
816.622	35.65
816.797	35.98
816.972	35.95
817.147	36.51
817.322	36.3
817.496	35.83
817.671	34.53
817.846	33.16
818.021	31.97
818.196	31.1
818.371	31.26
818.545	31.17
818.72	31.33
818.895	31.29
819.069	31
819.244	30.44
819.419	30.66
819.594	31.15
819.768	30.97
819.943	31.61
820.117	31.18
820.292	29.88
820.467	28.97
820.641	28.77
820.816	28.5
820.99	28.34
821.165	27.92
821.339	27.84
821.514	27.35
821.688	26.98
821.863	26.92
822.037	26.88
822.212	26.85
822.386	27
822.56	26.61
822.735	26.45
822.909	26.14
823.084	26.4
823.258	26.44
823.432	26.69
823.606	27
823.781	27.11
823.955	27.05
824.129	27.26
824.303	27.26
824.478	27.46
824.652	27.84
824.826	28.6
825	28.54
825.174	28.48
825.348	28.92
825.523	28.51
825.697	28.78
825.871	29.08
826.045	29.33
826.219	29.26
826.393	29.54
826.567	29.4
826.741	29.19
826.915	29.13
827.089	29.02
827.263	28.41
827.437	28.62
827.611	28.39
827.784	28
827.958	27.39
828.132	27.63
828.306	27.48
828.48	27.2
828.654	27.16
828.827	27.3
829.001	27.66
829.175	27.67
829.349	28.34
829.522	28.47
829.696	29.71
829.87	30.87
830.044	31.47
830.217	31.8
830.391	33.58
830.565	33.72
830.738	34.43
830.912	34.05
831.085	34.53
831.259	34.32
831.432	33.47
831.606	33.75
831.779	32.72
831.953	31.95
832.126	31.69
832.3	31.29
832.473	31.24
832.647	31.6
832.82	31.7
832.994	30.71
833.167	30.72
833.34	31.2
833.514	30.07
833.687	29.89
833.86	29.55
834.034	29.86
834.207	29.18
834.38	29.46
834.553	29.18
834.727	28.94
834.9	30.01
835.073	30.02
835.246	29.84
835.419	30.4
835.593	30.88
835.766	30.99
835.939	30.91
836.112	31.92
836.285	32.26
836.458	31.86
836.631	31.58
836.804	31.52
836.977	31.07
837.15	31.66
837.323	32
837.496	31.16
837.669	32.25
837.842	32.39
838.015	29.82
838.188	29.59
838.361	29.33
838.533	32.29
838.706	32.5
838.879	34.22
839.052	33.88
839.225	33.64
839.398	36.13
839.57	34.71
839.743	34.95
839.916	36.27
840.088	34.3
840.261	35.08
840.434	34.42
840.607	34.72
840.779	34.31
840.952	34.43
841.124	34.63
841.297	34.6
841.47	33.83
841.642	33.1
841.815	32.99
841.987	35.88
842.16	34.68
842.332	33.81
842.505	33.22
842.677	32.74
842.85	35.13
843.022	34.33
843.194	32.68
843.367	33.38
843.539	34.25
843.712	35.53
843.884	36.33
844.056	39.08
844.229	39.72
844.401	40.07
844.573	41.84
844.745	40.61
844.918	41.89
845.09	41.44
845.262	43.3
845.434	43.31
845.606	43.84
845.779	39.53
845.951	40.24
846.123	42.51
846.295	42.59
846.467	39.68
846.639	37.85
846.811	39.5
846.983	41.73
847.155	43.38
847.327	44.36
847.499	38.72
847.671	41.86
847.843	40.5
848.015	37.69
848.187	37.57
848.359	35.3
848.531	35.28
848.703	31.34
848.875	30.92
849.047	27.12
849.218	28.99
849.39	30.34
849.562	30.12
849.734	30.23
849.905	32.91
850.077	34.79
850.249	39.51
850.421	39.83
850.592	46.27
850.764	47.09
850.936	51.47
851.107	49.15
851.279	50.72
851.451	52.55
851.622	52.5
851.794	49.21
851.965	44.77
852.137	42.11
852.308	41.77
852.48	39.75
852.651	38.88
852.823	36.68
852.994	39.75
853.166	44.07
853.337	40.74
853.509	42.31
853.68	43.66
853.851	50.77
854.023	54.77
854.194	57.3
854.365	54.98
854.537	56.61
854.708	62.87
854.879	60.72
855.05	63.52
855.222	64.23
855.393	61.52
855.564	60.37
855.735	53.78
855.906	49.6
856.078	48.63
856.249	51.19
856.42	47.37
856.591	44.43
856.762	41.69
856.933	36.75
857.104	37.57
857.275	42.68
857.446	41.84
857.617	42.55
857.788	47.02
857.959	49.33
858.13	50.65
858.301	54.46
858.472	53.3
858.643	54.27
858.814	52.83
858.985	50.13
859.155	43.95
859.326	46.32
859.497	49.04
859.668	45.65
859.839	42.11
860.009	40.41
860.18	39.37
860.351	37.65
860.522	37.35
860.692	42.19
860.863	43.87
861.034	42.53
861.204	43.31
861.375	42.06
861.546	41.56
861.716	38.62
861.887	39.82
862.057	42.43
862.228	48.56
862.398	50.51
862.569	53.31
862.739	56.99
862.91	61.62
863.08	56.11
863.251	59.42
863.421	58.92
863.592	63.35
863.762	61.41
863.932	54.98
864.103	43.88
864.273	41.52
864.443	33.15
864.614	31.92
864.784	30.91
864.954	35.86
865.125	34.98
865.295	34.79
865.465	31.37
865.635	33.16
865.805	36.56
865.976	41.3
866.146	43.2
866.316	48.58
866.486	44.52
866.656	46.61
866.826	42.44
866.996	37.46
867.166	36.85
867.336	40.41
867.506	36.67
867.676	33.74
867.846	33.3
868.016	35.33
868.186	31.56
868.356	34.99
868.526	31
868.696	34.99
868.866	32.82
869.036	35.27
869.206	33.38
869.376	35.69
869.545	35.55
869.715	38.41
869.885	36.82
870.055	36.47
870.224	37.4
870.394	38.24
870.564	41.53
870.734	48.66
870.903	46.85
871.073	45.56
871.243	48.05
871.412	49.73
871.582	52.75
871.751	50.74
871.921	51.8
872.091	50.06
872.26	50.9
872.43	46.47
872.599	42.27
872.769	37.71
872.938	38.85
873.108	33.95
873.277	34.99
873.446	30.73
873.616	30.06
873.785	28.34
873.955	26.63
874.124	27.37
874.293	29.97
874.463	26.51
874.632	32.13
874.801	29.13
874.971	31.48
875.14	29.65
875.309	32.75
875.478	34.76
875.647	39.42
875.817	38.67
875.986	40.86
876.155	35.83
876.324	37.65
876.493	39.29
876.662	43.17
876.831	42.23
877	42.37
877.17	38.71
877.339	38.88
877.508	38.13
877.677	41.82
877.846	34.92
878.015	41.63
878.184	42.73
878.352	39.34
878.521	38.02
878.69	38.67
878.859	39.21
879.028	43.82
879.197	44.54
879.366	43.06
879.534	40.67
879.703	40.56
879.872	37.44
880.041	37.41
880.21	36.42
880.378	34.47
880.547	33.71
880.716	31.83
880.884	29.45
881.053	27.38
881.222	26.67
881.39	26.48
881.559	27.03
881.727	26.19
881.896	25.58
882.065	24.7
882.233	25.43
882.402	25.77
882.57	25.87
882.739	26.09
882.907	26.57
883.076	26.76
883.244	26.53
883.412	26.32
883.581	26.64
883.749	27.03
883.918	28.17
884.086	26.64
884.254	26.44
884.423	26.89
884.591	25.73
884.759	24.96
884.927	25.06
885.096	25.75
885.264	25.94
885.432	25.69
885.6	26.04
885.769	24.85
885.937	25.92
886.105	24.98
886.273	25.12
886.441	27.39
886.609	30.26
886.777	31.9
886.945	33.86
887.113	37.9
887.281	38.67
887.449	38.7
887.617	37.84
887.785	40.15
887.953	38.09
888.121	37.51
888.289	40.41
888.457	39.43
888.625	35.45
888.793	35.84
888.961	27.89
889.129	28.97
889.296	26.87
889.464	29.76
889.632	29.48
889.8	35.47
889.967	35.41
890.135	29.97
