Data from 2938741__Reflection_01.txt Node
Date: Sun Mar 15 12:13:08 EDT 2015
User: robert
Spectrometer: USB4E03002
Autoset integration time: false
Trigger mode: 4
Integration Time (sec): 1.000000E-1
Scans to average: 10
Electric dark correction enabled: false
Nonlinearity correction enabled: false
Boxcar width: 5
Stray light correction enabled: false
XAxis mode: Wavelengths
Stop averaging: false
Number of Pixels in Spectrum: 3648
>>>>>Begin Spectral Data<<<<<
177.575	-50
177.794	-167.62
178.014	-92.65
178.233	-93.39
178.452	-166.53
178.672	-221.15
178.891	-202.26
179.11	-572.83
179.33	2241.38
179.549	-814.14
179.768	-918.68
179.987	19460
180.207	-2093.88
180.426	-1919.23
180.645	2411.9
180.864	947.83
181.084	-1370.15
181.303	-1169.86
181.522	-756.35
181.741	-350.66
181.96	-170.26
182.179	-271.86
182.398	-380.68
182.618	-489.13
182.837	-1778.05
183.056	-1338.33
183.275	-436.88
183.494	-3272.73
183.713	535.33
183.932	325.68
184.151	294.06
184.37	178.04
184.589	221.37
184.808	475.3
185.027	-1472.09
185.246	3291.3
185.465	1858.97
185.684	1250.94
185.903	413.07
186.122	-476.8
186.341	-108.02
186.56	-196.98
186.779	-124.71
186.998	-92.5
187.216	-159.28
187.435	-2373.68
187.654	919.05
187.873	511.48
188.092	361.18
188.311	2058.33
188.53	682.14
188.748	236.93
188.967	217.15
189.186	155.58
189.405	252.77
189.623	214.59
189.842	197.47
190.061	353.88
190.28	545.09
190.498	592.91
190.717	1072.86
190.936	247.13
191.154	288.26
191.373	329.84
191.592	469.62
191.81	330
192.029	1368.63
192.248	1982.93
192.466	446.69
192.685	605.66
192.904	492.86
193.122	497.9
193.341	8158.33
193.559	1657.38
193.778	2407.14
193.996	441.96
194.215	530.52
194.433	408.79
194.652	515.84
194.87	311.39
195.089	227.43
195.307	185.27
195.526	224.21
195.744	207.61
195.963	205.57
196.181	205.26
196.399	384.78
196.618	293.47
196.836	392.61
197.055	302.86
197.273	758.25
197.491	1688.37
197.71	-223.32
197.928	-240.6
198.146	-121.35
198.365	-89.27
198.583	-312.96
198.801	-2005.26
199.019	-185.71
199.238	-790
199.456	787.32
199.674	544.66
199.892	294.09
200.111	273.41
200.329	329.22
200.547	240.57
200.765	222.15
200.983	239.15
201.202	193.2
201.42	160.71
201.638	138.9
201.856	140.95
202.074	144.08
202.292	123.27
202.51	120.4
202.728	94.44
202.946	93.87
203.165	92.92
203.383	90.46
203.601	107.51
203.819	132.22
204.037	206.41
204.255	144.94
204.473	129.19
204.691	157.14
204.909	124.95
205.127	178.22
205.345	222.25
205.562	237.93
205.78	174.21
205.998	158.33
206.216	150.84
206.434	137.87
206.652	163.27
206.87	158.33
207.088	174.04
207.306	195.29
207.523	191.34
207.741	169.13
207.959	185.88
208.177	240.2
208.395	262.72
208.612	201.83
208.83	151.06
209.048	136.76
209.266	122.43
209.483	105.56
209.701	99.55
209.919	71.39
210.136	55.41
210.354	47.71
210.572	32.86
210.79	35.71
211.007	54.31
211.225	61.04
211.442	77.27
211.66	100
211.878	102.54
212.095	99.12
212.313	112.14
212.53	139.19
212.748	136.51
212.966	130.76
213.183	176.99
213.401	138.25
213.618	123.38
213.836	121.95
214.053	106.27
214.271	112.18
214.488	127.76
214.705	127.81
214.923	98.92
215.14	101.31
215.358	105.17
215.575	93.52
215.793	96.99
216.01	107.94
216.227	116.17
216.445	128.89
216.662	120.99
216.879	110.57
217.097	106.36
217.314	111.45
217.531	96.11
217.749	93.78
217.966	85.83
218.183	75.75
218.4	68.58
218.618	59.67
218.835	52.02
219.052	31.84
219.269	30.26
219.487	35.66
219.704	40.81
219.921	48.79
220.138	53.72
220.355	58
220.572	64.17
220.79	60.47
221.007	57.82
221.224	58.66
221.441	53.72
221.658	55.15
221.875	52.53
222.092	41.32
222.309	38
222.526	31.11
222.743	17.92
222.96	1.73
223.177	9.13
223.394	13.74
223.611	4.64
223.828	12.54
224.045	11.86
224.262	15.68
224.479	19.63
224.696	15.78
224.913	12.24
225.13	15.74
225.347	19.73
225.564	16.25
225.781	11.01
225.997	11.45
226.214	12.71
226.431	7.62
226.648	4.12
226.865	3.6
227.082	7.25
227.298	6.82
227.515	6.68
227.732	6.02
227.949	3.6
228.165	3.8
228.382	4.94
228.599	4.09
228.816	6.48
229.032	6.67
229.249	6.87
229.466	6.14
229.682	6.77
229.899	7.81
230.116	7.4
230.332	8.72
230.549	9.62
230.765	9.19
230.982	9.28
231.199	7.56
231.415	10
231.632	7.97
231.848	7.33
232.065	6.87
232.281	4.37
232.498	4.37
232.714	6.36
232.931	4.44
233.147	4.96
233.364	3.02
233.58	2.93
233.797	-0.21
234.013	1.1
234.23	2.61
234.446	2.36
234.662	2.47
234.879	2.26
235.095	0.56
235.312	1.72
235.528	0.47
235.744	0.89
235.961	1.18
236.177	1.75
236.393	2.51
236.61	2.2
236.826	0.92
237.042	-1.06
237.258	0.7
237.475	0.32
237.691	-0.23
237.907	1.89
238.123	4.28
238.339	5.8
238.556	5.22
238.772	6.67
238.988	7.05
239.204	8.76
239.42	12.14
239.636	9.81
239.853	8.69
240.069	8.62
240.285	7.73
240.501	7.14
240.717	6.58
240.933	6.57
241.149	7.18
241.365	6.63
241.581	6.46
241.797	5.57
242.013	5.13
242.229	5.99
242.445	6.09
242.661	6.14
242.877	6.48
243.093	6.2
243.309	5.86
243.525	4.94
243.741	4.94
243.957	4.18
244.173	3.86
244.388	4.51
244.604	4.05
244.82	4.12
245.036	3.89
245.252	3.06
245.468	3.35
245.683	3.26
245.899	3.41
246.115	3.29
246.331	3.78
246.547	4.19
246.762	4.18
246.978	3.92
247.194	3.81
247.409	3.61
247.625	4.18
247.841	4.13
248.057	4.47
248.272	3.96
248.488	3.83
248.703	4.04
248.919	4.1
249.135	4.44
249.35	5.18
249.566	5.46
249.782	6.01
249.997	5.18
250.213	5.24
250.428	4.19
250.644	4.88
250.859	5.38
251.075	5.13
251.29	4.56
251.506	3.22
251.721	2.82
251.937	2.29
252.152	2.04
252.368	2.76
252.583	2.53
252.798	3.11
253.014	2.99
253.229	2.81
253.445	2.32
253.66	2.67
253.875	3.73
254.091	3.71
254.306	4.06
254.521	4.92
254.737	4.17
254.952	4.72
255.167	3.93
255.383	4.21
255.598	4.83
255.813	4.43
256.028	3.83
256.244	2.92
256.459	2.75
256.674	3.16
256.889	1.68
257.104	1.15
257.32	0.98
257.535	1.93
257.75	1.81
257.965	2.25
258.18	3.11
258.395	3.17
258.61	3.62
258.826	3.77
259.041	3.57
259.256	3.88
259.471	3.94
259.686	3.76
259.901	3.49
260.116	3.66
260.331	3.45
260.546	3.18
260.761	3.39
260.976	3.36
261.191	2.97
261.406	2.98
261.621	3.12
261.836	3.1
262.05	3.51
262.265	4.15
262.48	4.38
262.695	4.43
262.91	4.34
263.125	4.15
263.34	4.2
263.555	5.56
263.769	5.78
263.984	5.65
264.199	5.83
264.414	6
264.629	6.46
264.843	6.37
265.058	6.39
265.273	5.95
265.488	5.87
265.702	5.85
265.917	4.11
266.132	3.77
266.346	3.84
266.561	3.78
266.776	3.59
266.99	2.67
267.205	3.14
267.42	2.88
267.634	3.26
267.849	2.75
268.063	2.43
268.278	3.4
268.492	3.16
268.707	3.11
268.922	3.11
269.136	2.74
269.351	3.02
269.565	2.87
269.78	2.66
269.994	2.8
270.209	2.78
270.423	2.63
270.637	1.88
270.852	2.23
271.066	1.56
271.281	1.49
271.495	1.87
271.709	1.57
271.924	1.13
272.138	1.24
272.353	1
272.567	1.56
272.781	1.78
272.996	2.09
273.21	2.21
273.424	2.97
273.638	2.97
273.853	2.99
274.067	2.78
274.281	2.72
274.495	2.5
274.71	2.43
274.924	2.33
275.138	2.2
275.352	2.17
275.566	1.77
275.781	1.3
275.995	1.47
276.209	1.2
276.423	1.38
276.637	1.89
276.851	2.68
277.065	2.53
277.279	2.71
277.493	2.9
277.707	3.07
277.921	3.45
278.135	3.91
278.349	3.72
278.563	3.91
278.777	4.41
278.991	4.45
279.205	4.98
279.419	5.53
279.633	5.29
279.847	5.05
280.061	5.13
280.275	4.67
280.489	4.41
280.703	4.81
280.917	4.35
281.131	3.85
281.344	3.37
281.558	2.5
281.772	2.65
281.986	2.58
282.2	2.71
282.414	2.43
282.627	2.45
282.841	2.01
283.055	1.47
283.269	2.12
283.482	2.19
283.696	2.08
283.91	2.23
284.123	1.36
284.337	1.07
284.551	0.98
284.764	1.47
284.978	1.7
285.192	1.7
285.405	1.7
285.619	1.28
285.833	1.67
286.046	1.57
286.26	1.4
286.473	1.99
286.687	2.17
286.9	2.02
287.114	1.46
287.327	1.49
287.541	1.64
287.754	1.92
287.968	1.9
288.181	1.8
288.395	2.16
288.608	2.74
288.822	2.74
289.035	2.57
289.248	2.9
289.462	3.11
289.675	2.87
289.889	3.14
290.102	3.05
290.315	3.34
290.529	3.42
290.742	3.37
290.955	2.98
291.169	2.74
291.382	2.94
291.595	2.5
291.808	2.59
292.022	2.84
292.235	2.81
292.448	2.39
292.661	2.21
292.875	1.85
293.088	2.08
293.301	1.71
293.514	1.74
293.727	1.65
293.94	1.96
294.153	1.9
294.367	1.36
294.58	1.04
294.793	1.77
295.006	1.78
295.219	1.8
295.432	1.73
295.645	1.9
295.858	2.12
296.071	2.19
296.284	1.94
296.497	1.91
296.71	2.21
296.923	2.41
297.136	2.46
297.349	2.41
297.562	2.83
297.775	2.9
297.988	3.03
298.201	3.08
298.414	3.16
298.626	3.45
298.839	3.64
299.052	3.46
299.265	3.71
299.478	3.12
299.691	2.81
299.903	2.41
300.116	2.25
300.329	2.26
300.542	1.9
300.755	1.93
300.967	1.67
301.18	1.6
301.393	1.92
301.605	1.65
301.818	1.97
302.031	2.06
302.243	1.81
302.456	1.93
302.669	2.16
302.881	2.2
303.094	2.01
303.307	2.43
303.519	2.57
303.732	2.33
303.944	2.5
304.157	2.64
304.37	2.69
304.582	3.1
304.795	2.92
305.007	2.85
305.22	3.12
305.432	3.69
305.645	3.51
305.857	3.28
306.069	3.9
306.282	3.66
306.494	3.68
306.707	3.78
306.919	3.41
307.132	3.5
307.344	3.53
307.556	3.56
307.769	2.97
307.981	2.57
308.193	2.43
308.406	1.9
308.618	2.1
308.83	1.84
309.043	1.8
309.255	1.82
309.467	1.73
309.679	1.49
309.892	1.48
310.104	1.55
310.316	1.83
310.528	2.13
310.74	2.12
310.953	1.72
311.165	1.66
311.377	2.14
311.589	2.45
311.801	2.8
312.013	2.82
312.225	2.91
312.437	3.18
312.649	3.29
312.862	3.22
313.074	3.47
313.286	4.32
313.498	4.75
313.71	4.93
313.922	4.99
314.134	4.29
314.346	4.52
314.558	4.22
314.77	3.59
314.982	3.95
315.193	3.82
315.405	3.94
315.617	3.65
315.829	3.73
316.041	3.69
316.253	3.35
316.465	4.23
316.677	4.19
316.888	4.4
317.1	5.1
317.312	4.87
317.524	5.37
317.736	5.06
317.947	5.09
318.159	4.96
318.371	4.99
318.583	5.14
318.794	4.57
319.006	4.66
319.218	4.87
319.43	4.45
319.641	4.72
319.853	4.36
320.064	4.35
320.276	4.39
320.488	4.98
320.699	4.59
320.911	4.69
321.123	4.72
321.334	4.6
321.546	4.66
321.757	5.17
321.969	5.05
322.18	5.51
322.392	6.1
322.603	6.64
322.815	6.24
323.026	6.64
323.238	7.12
323.449	7.74
323.661	8.03
323.872	8.26
324.083	8.62
324.295	8.68
324.506	8.85
324.718	8.82
324.929	8.83
325.14	9.2
325.352	9.45
325.563	9.36
325.774	9.27
325.986	9.27
326.197	9.39
326.408	9.46
326.62	9.83
326.831	10.45
327.042	10.63
327.253	10.85
327.464	11.27
327.676	11.53
327.887	11.64
328.098	12.16
328.309	13.18
328.52	13.18
328.732	13.31
328.943	13.09
329.154	13.04
329.365	13.49
329.576	13.43
329.787	13.46
329.998	13.92
330.209	14.33
330.42	14.5
330.631	14.09
330.842	14.42
331.053	14.77
331.264	14.82
331.475	14.76
331.686	14.58
331.897	14.91
332.108	15.17
332.319	15.15
332.53	15.35
332.741	15.13
332.952	15.63
333.163	15.73
333.374	15.95
333.585	16.39
333.795	16.27
334.006	17.02
334.217	16.86
334.428	16.78
334.639	16.82
334.849	17.02
335.06	17.56
335.271	17.41
335.482	17.5
335.692	17.34
335.903	17.73
336.114	17.81
336.325	17.44
336.535	17.68
336.746	18.03
336.957	17.77
337.167	18.1
337.378	17.62
337.589	17.56
337.799	17.9
338.01	18.12
338.22	17.95
338.431	18.31
338.642	18.37
338.852	18.56
339.063	18.59
339.273	18.91
339.484	18.33
339.694	18.64
339.905	18.67
340.115	18.37
340.326	17.91
340.536	18.14
340.746	17.44
340.957	17.42
341.167	17.59
341.378	17.56
341.588	17.86
341.799	18.3
342.009	18.13
342.219	18.26
342.43	18.69
342.64	18.89
342.85	18.66
343.061	19.29
343.271	19.42
343.481	19.27
343.691	19.06
343.902	18.66
344.112	18.38
344.322	18.4
344.532	18.52
344.743	18.12
344.953	18.14
345.163	18.12
345.373	18.01
345.583	17.85
345.793	17.61
346.004	17.7
346.214	17.8
346.424	18.06
346.634	18.18
346.844	18.08
347.054	17.85
347.264	17.72
347.474	17.87
347.684	17.82
347.894	18
348.104	17.93
348.314	17.7
348.524	17.7
348.734	17.18
348.944	17.12
349.154	16.86
349.364	17.49
349.574	17.65
349.784	17.24
349.994	17.43
350.204	17.24
350.413	17.47
350.623	17.75
350.833	17.62
351.043	17.94
351.253	17.96
351.463	17.92
351.672	17.64
351.882	17.32
352.092	17.56
352.302	17.34
352.511	17.7
352.721	17.61
352.931	17.6
353.141	17.36
353.35	17.38
353.56	17.08
353.77	17.54
353.979	17.85
354.189	18.28
354.399	18.12
354.608	18.32
354.818	18.24
355.027	18.2
355.237	17.76
355.447	17.97
355.656	17.58
355.866	17.54
356.075	17.38
356.285	16.92
356.494	16.97
356.704	17.32
356.913	17.04
357.123	16.99
357.332	16.82
357.542	17.09
357.751	17.12
357.96	17.43
358.17	17.74
358.379	17.69
358.589	17.63
358.798	17.19
359.007	17.03
359.217	17.25
359.426	16.98
359.635	17.25
359.845	16.92
360.054	16.84
360.263	16.51
360.472	16.4
360.682	16.35
360.891	16.18
361.1	16.3
361.309	16.2
361.519	16.09
361.728	16.21
361.937	15.94
362.146	16.15
362.355	15.97
362.564	16.11
362.774	16.1
362.983	15.96
363.192	16.49
363.401	16.75
363.61	16.69
363.819	16.74
364.028	16.71
364.237	17.06
364.446	16.88
364.655	17.05
364.864	17.14
365.073	17.09
365.282	17.23
365.491	16.87
365.7	16.49
365.909	16.7
366.118	16.72
366.327	16.52
366.536	16.26
366.745	16.65
366.954	16.73
367.162	16.63
367.371	16.58
367.58	16.6
367.789	16.58
367.998	16.87
368.207	16.73
368.415	16.62
368.624	16.73
368.833	16.88
369.042	16.54
369.25	16.33
369.459	16.56
369.668	16.71
369.877	16.7
370.085	16.84
370.294	16.9
370.503	16.89
370.711	16.95
370.92	17.02
371.129	16.85
371.337	16.88
371.546	16.88
371.754	16.79
371.963	16.47
372.171	16.4
372.38	16.43
372.589	15.9
372.797	15.81
373.006	15.48
373.214	15.36
373.423	15.78
373.631	15.75
373.84	15.59
374.048	15.53
374.256	15.77
374.465	15.81
374.673	15.5
374.882	15.71
375.09	15.94
375.298	15.98
375.507	16.12
375.715	15.52
375.923	15.51
376.132	15.46
376.34	15.44
376.548	15.39
376.757	15.37
376.965	15.52
377.173	15.59
377.381	15.43
377.59	15.53
377.798	15.34
378.006	15.59
378.214	15.75
378.423	16.07
378.631	16.24
378.839	16.27
379.047	16.02
379.255	15.91
379.463	15.67
379.671	15.72
379.879	16
380.088	16.04
380.296	16.13
380.504	15.9
380.712	15.87
380.92	15.64
381.128	15.62
381.336	15.71
381.544	15.82
381.752	16.1
381.96	16.04
382.168	15.79
382.376	15.82
382.584	15.53
382.791	15.56
382.999	15.19
383.207	15.26
383.415	15.31
383.623	15.4
383.831	15.32
384.039	15.15
384.247	15.2
384.454	15.37
384.662	15.38
384.87	15.38
385.078	15.12
385.285	15.36
385.493	15.2
385.701	15.02
385.909	14.79
386.116	14.68
386.324	14.89
386.532	15.02
386.739	14.76
386.947	14.61
387.155	14.52
387.362	14.8
387.57	14.78
387.778	14.73
387.985	14.87
388.193	15.05
388.4	15.14
388.608	14.92
388.816	14.67
389.023	14.82
389.231	14.94
389.438	14.88
389.646	14.95
389.853	15.1
390.061	15.19
390.268	15.3
390.475	15.41
390.683	15.49
390.89	15.52
391.098	15.42
391.305	15.22
391.512	15.2
391.72	15.4
391.927	15.4
392.135	15.42
392.342	15.33
392.549	15.31
392.756	15.24
392.964	14.93
393.171	14.99
393.378	14.95
393.586	15
393.793	14.97
394	14.88
394.207	14.85
394.414	14.72
394.622	14.73
394.829	14.68
395.036	14.61
395.243	14.93
395.45	14.79
395.657	14.99
395.864	15.27
396.072	15.24
396.279	15.38
396.486	15.56
396.693	15.64
396.9	15.47
397.107	15.42
397.314	15.35
397.521	15.18
397.728	15.26
397.935	15.28
398.142	14.98
398.349	15.17
398.556	15.15
398.763	15.04
398.97	15.02
399.177	15.21
399.383	15.26
399.59	15.41
399.797	15.73
400.004	15.75
400.211	15.65
400.418	15.77
400.625	15.75
400.831	15.74
401.038	15.61
401.245	15.54
401.452	15.53
401.658	15.41
401.865	15.33
402.072	15.35
402.279	15.52
402.485	15.47
402.692	15.48
402.899	15.56
403.105	15.45
403.312	15.49
403.519	15.57
403.725	15.75
403.932	15.93
404.138	16.01
404.345	15.8
404.552	15.82
404.758	15.91
404.965	15.85
405.171	15.78
405.378	15.96
405.584	15.86
405.791	15.73
405.997	15.82
406.204	15.9
406.41	15.84
406.617	15.89
406.823	15.73
407.029	15.58
407.236	15.67
407.442	15.75
407.649	15.71
407.855	15.69
408.061	15.82
408.268	15.77
408.474	15.49
408.68	15.53
408.887	15.46
409.093	15.49
409.299	15.64
409.505	15.6
409.712	15.46
409.918	15.16
410.124	15.39
410.33	15.4
410.537	15.26
410.743	15.51
410.949	15.42
411.155	15.55
411.361	15.42
411.567	15.35
411.773	15.35
411.98	15.38
412.186	15.66
412.392	15.84
412.598	15.76
412.804	15.84
413.01	15.81
413.216	15.82
413.422	15.9
413.628	16.26
413.834	16.54
414.04	16.55
414.246	16.68
414.452	16.79
414.658	16.55
414.864	16.68
415.07	16.56
415.275	16.61
415.481	16.77
415.687	16.57
415.893	16.44
416.099	16.29
416.305	16.29
416.511	16.27
416.716	16.17
416.922	16.19
417.128	16.21
417.334	16.15
417.539	15.95
417.745	15.98
417.951	16.07
418.157	16.08
418.362	16.06
418.568	16.11
418.774	16.05
418.979	16.02
419.185	16.06
419.391	15.92
419.596	16
419.802	16.08
420.008	15.88
420.213	15.89
420.419	15.87
420.624	15.87
420.83	15.78
421.035	15.73
421.241	15.81
421.446	15.73
421.652	15.66
421.857	15.71
422.063	15.65
422.268	15.74
422.474	15.75
422.679	15.75
422.885	15.74
423.09	15.71
423.295	15.74
423.501	15.65
423.706	15.68
423.911	15.83
424.117	15.75
424.322	15.79
424.527	15.74
424.733	15.75
424.938	15.73
425.143	15.84
425.349	15.91
425.554	15.99
425.759	16.07
425.964	16.11
426.169	16.09
426.375	16.07
426.58	16.01
426.785	16.15
426.99	16.03
427.195	16.1
427.4	16.01
427.605	15.95
427.811	15.91
428.016	15.92
428.221	15.88
428.426	15.94
428.631	16.16
428.836	16.22
429.041	16.17
429.246	16.32
429.451	16.28
429.656	16.32
429.861	16.34
430.066	16.36
430.271	16.42
430.476	16.47
430.681	16.42
430.886	16.34
431.09	16.38
431.295	16.37
431.5	16.3
431.705	16.37
431.91	16.34
432.115	16.44
432.32	16.47
432.524	16.43
432.729	16.42
432.934	16.4
433.139	16.32
433.343	16.35
433.548	16.43
433.753	16.49
433.958	16.45
434.162	16.55
434.367	16.58
434.572	16.68
434.776	16.65
434.981	16.77
435.186	16.86
435.39	17.01
435.595	16.95
435.799	17.01
436.004	16.91
436.209	16.93
436.413	16.88
436.618	16.86
436.822	16.78
437.027	16.73
437.231	16.62
437.436	16.51
437.64	16.49
437.845	16.6
438.049	16.53
438.253	16.59
438.458	16.6
438.662	16.58
438.867	16.49
439.071	16.44
439.275	16.52
439.48	16.46
439.684	16.52
439.888	16.51
440.093	16.46
440.297	16.42
440.501	16.52
440.706	16.53
440.91	16.44
441.114	16.44
441.318	16.52
441.523	16.5
441.727	16.59
441.931	16.57
442.135	16.68
442.339	16.79
442.543	16.77
442.748	16.76
442.952	16.74
443.156	16.83
443.36	16.88
443.564	16.83
443.768	16.83
443.972	16.84
444.176	16.82
444.38	16.83
444.584	16.75
444.788	16.83
444.992	16.66
445.196	16.61
445.4	16.64
445.604	16.59
445.808	16.62
446.012	16.67
446.216	16.54
446.42	16.63
446.624	16.53
446.828	16.56
447.032	16.61
447.235	16.68
447.439	16.78
447.643	16.73
447.847	16.9
448.051	16.9
448.254	16.82
448.458	16.9
448.662	16.81
448.866	16.8
449.069	16.79
449.273	16.77
449.477	16.79
449.681	16.66
449.884	16.61
450.088	16.45
450.292	16.54
450.495	16.51
450.699	16.45
450.902	16.52
451.106	16.54
451.31	16.47
451.513	16.46
451.717	16.42
451.92	16.55
452.124	16.8
452.327	16.86
452.531	16.83
452.734	16.98
452.938	17.04
453.141	17.03
453.345	17.17
453.548	17.19
453.752	17.26
453.955	17.27
454.158	17.27
454.362	17.17
454.565	17.14
454.769	17.13
454.972	17.13
455.175	17.18
455.379	17.17
455.582	17.03
455.785	17.03
455.988	17.01
456.192	17.03
456.395	16.95
456.598	16.87
456.801	16.84
457.005	16.69
457.208	16.68
457.411	16.75
457.614	16.68
457.817	16.66
458.021	16.69
458.224	16.69
458.427	16.71
458.63	16.78
458.833	16.89
459.036	16.82
459.239	16.89
459.442	16.85
459.645	16.85
459.848	16.92
460.051	16.95
460.254	16.93
460.457	16.87
460.66	16.91
460.863	16.85
461.066	16.78
461.269	16.79
461.472	16.72
461.675	16.74
461.878	16.71
462.081	16.71
462.284	16.67
462.486	16.79
462.689	16.81
462.892	16.67
463.095	16.8
463.298	16.85
463.5	16.95
463.703	17.05
463.906	16.92
464.109	16.92
464.311	16.83
464.514	16.84
464.717	16.78
464.92	16.79
465.122	16.9
465.325	16.86
465.528	16.79
465.73	16.7
465.933	16.58
466.135	16.67
466.338	16.65
466.541	16.67
466.743	16.72
466.946	16.65
467.148	16.63
467.351	16.64
467.553	16.6
467.756	16.67
467.958	16.82
468.161	16.94
468.363	17.03
468.566	16.98
468.768	17.04
468.971	17.05
469.173	17.06
469.375	17
469.578	16.96
469.78	16.96
469.983	16.9
470.185	16.79
470.387	16.74
470.59	16.7
470.792	16.65
470.994	16.6
471.196	16.61
471.399	16.62
471.601	16.75
471.803	16.81
472.005	16.76
472.208	16.9
472.41	16.99
472.612	17.12
472.814	17.1
473.016	17.14
473.218	17.19
473.421	17.23
473.623	17.23
473.825	17.24
474.027	17.2
474.229	17.13
474.431	16.93
474.633	16.78
474.835	16.7
475.037	16.71
475.239	16.71
475.441	16.75
475.643	16.68
475.845	16.71
476.047	16.72
476.249	16.71
476.451	16.91
476.653	17.01
476.855	17.06
477.057	17.04
477.258	16.95
477.46	16.96
477.662	16.9
477.864	16.87
478.066	16.89
478.268	16.91
478.469	16.93
478.671	16.82
478.873	16.9
479.075	17
479.276	17.12
479.478	17.23
479.68	17.28
479.882	17.39
480.083	17.48
480.285	17.48
480.487	17.41
480.688	17.43
480.89	17.51
481.091	17.4
481.293	17.28
481.495	17.22
481.696	17.19
481.898	17.14
482.099	16.99
482.301	16.93
482.502	16.86
482.704	16.88
482.905	16.82
483.107	16.78
483.308	16.79
483.51	16.77
483.711	16.73
483.913	16.68
484.114	16.66
484.315	16.69
484.517	16.67
484.718	16.7
484.92	16.67
485.121	16.68
485.322	16.64
485.524	16.61
485.725	16.62
485.926	16.66
486.127	16.69
486.329	16.66
486.53	16.64
486.731	16.71
486.932	16.69
487.134	16.64
487.335	16.71
487.536	16.74
487.737	16.76
487.938	16.77
488.139	16.77
488.341	16.73
488.542	16.76
488.743	16.77
488.944	16.77
489.145	16.82
489.346	16.87
489.547	16.82
489.748	16.85
489.949	16.83
490.15	16.87
490.351	16.83
490.552	16.9
490.753	16.99
490.954	17.02
491.155	16.93
491.356	16.87
491.557	16.86
491.758	16.9
491.959	16.87
492.159	16.91
492.36	16.92
492.561	16.96
492.762	16.95
492.963	16.92
493.164	16.95
493.364	17.02
493.565	17.11
493.766	17.14
493.967	17.1
494.167	17.18
494.368	17.2
494.569	17.23
494.769	17.17
494.97	17.21
495.171	17.2
495.371	17.2
495.572	17.26
495.773	17.23
495.973	17.3
496.174	17.34
496.375	17.38
496.575	17.36
496.776	17.33
496.976	17.4
497.177	17.43
497.377	17.47
497.578	17.52
497.778	17.46
497.979	17.49
498.179	17.51
498.38	17.5
498.58	17.43
498.78	17.46
498.981	17.47
499.181	17.43
499.382	17.46
499.582	17.51
499.782	17.52
499.983	17.68
500.183	17.73
500.383	17.66
500.584	17.68
500.784	17.74
500.984	17.74
501.184	17.75
501.385	17.86
501.585	17.73
501.785	17.7
501.985	17.58
502.185	17.52
502.386	17.54
502.586	17.58
502.786	17.54
502.986	17.57
503.186	17.65
503.386	17.66
503.586	17.66
503.786	17.84
503.987	17.86
504.187	17.94
504.387	17.95
504.587	17.96
504.787	17.97
504.987	17.98
505.187	18.02
505.387	18.05
505.587	18.08
505.786	18.06
505.986	17.96
506.186	17.97
506.386	18.01
506.586	18.09
506.786	18.07
506.986	18.17
507.186	18.36
507.386	18.29
507.585	18.25
507.785	18.24
507.985	18.28
508.185	18.3
508.384	18.32
508.584	18.26
508.784	18.18
508.984	18.19
509.183	18.22
509.383	18.06
509.583	18.08
509.782	18.17
509.982	18.2
510.182	18.3
510.381	18.39
510.581	18.4
510.781	18.42
510.98	18.43
511.18	18.36
511.379	18.28
511.579	18.36
511.778	18.44
511.978	18.38
512.177	18.38
512.377	18.24
512.576	18.13
512.776	18.2
512.975	18.18
513.175	18.21
513.374	18.28
513.573	18.33
513.773	18.36
513.972	18.34
514.172	18.47
514.371	18.56
514.57	18.6
514.77	18.59
514.969	18.48
515.168	18.61
515.367	18.69
515.567	18.67
515.766	18.74
515.965	18.79
516.164	18.75
516.364	18.61
516.563	18.55
516.762	18.57
516.961	18.65
517.16	18.69
517.359	18.65
517.559	18.59
517.758	18.53
517.957	18.49
518.156	18.45
518.355	18.43
518.554	18.48
518.753	18.46
518.952	18.55
519.151	18.61
519.35	18.54
519.549	18.55
519.748	18.59
519.947	18.78
520.146	18.83
520.345	18.89
520.544	19.02
520.743	19.03
520.942	19.07
521.141	19.06
521.339	19.09
521.538	19.23
521.737	19.25
521.936	19.3
522.135	19.28
522.333	19.26
522.532	19.17
522.731	19.14
522.93	19.2
523.129	19.26
523.327	19.28
523.526	19.23
523.725	19.12
523.923	19.13
524.122	19.08
524.321	19.05
524.519	19.14
524.718	19.18
524.917	19.12
525.115	19.11
525.314	19.04
525.512	18.97
525.711	18.99
525.909	19.08
526.108	19.01
526.306	18.99
526.505	18.95
526.703	18.89
526.902	18.87
527.1	18.89
527.299	18.89
527.497	18.89
527.696	18.88
527.894	18.84
528.092	18.79
528.291	18.81
528.489	18.79
528.688	18.78
528.886	18.78
529.084	18.81
529.283	18.8
529.481	18.79
529.679	18.82
529.877	18.82
530.076	18.84
530.274	18.93
530.472	18.98
530.67	19.05
530.869	19.14
531.067	19.19
531.265	19.21
531.463	19.22
531.661	19.3
531.859	19.25
532.057	19.31
532.255	19.37
532.454	19.38
532.652	19.36
532.85	19.35
533.048	19.31
533.246	19.29
533.444	19.32
533.642	19.34
533.84	19.3
534.038	19.39
534.236	19.41
534.434	19.35
534.632	19.31
534.83	19.32
535.027	19.37
535.225	19.47
535.423	19.48
535.621	19.54
535.819	19.68
536.017	19.8
536.215	19.84
536.412	19.88
536.61	19.98
536.808	20.02
537.006	20.1
537.203	20.13
537.401	20.15
537.599	20.32
537.797	20.42
537.994	20.41
538.192	20.43
538.39	20.47
538.587	20.62
538.785	20.83
538.983	21.02
539.18	21.18
539.378	21.33
539.575	21.52
539.773	21.53
539.97	21.53
540.168	21.65
540.366	21.67
540.563	21.73
540.761	21.72
540.958	21.73
541.155	21.73
541.353	21.71
541.55	21.69
541.748	21.69
541.945	21.76
542.143	21.81
542.34	21.85
542.537	21.93
542.735	22.07
542.932	22.14
543.129	22.24
543.327	22.44
543.524	22.73
543.721	23.07
543.919	23.4
544.116	23.68
544.313	24.04
544.51	24.41
544.708	24.77
544.905	25.03
545.102	25.43
545.299	25.72
545.496	25.91
545.693	25.93
545.891	25.89
546.088	25.69
546.285	25.61
546.482	25.38
546.679	25.08
546.876	24.89
547.073	24.63
547.27	24.41
547.467	24.25
547.664	24.06
547.861	23.92
548.058	23.77
548.255	23.76
548.452	23.65
548.649	23.57
548.846	23.64
549.043	23.58
549.24	23.62
549.437	23.45
549.633	23.17
549.83	23.12
550.027	23.09
550.224	22.98
550.421	22.92
550.618	22.86
550.814	22.89
551.011	22.68
551.208	22.54
551.405	22.44
551.601	22.45
551.798	22.47
551.995	22.25
552.191	22.17
552.388	22.24
552.585	22.14
552.781	22.01
552.978	21.94
553.175	22.07
553.371	21.97
553.568	21.96
553.764	21.86
553.961	21.89
554.157	22
554.354	21.93
554.55	21.79
554.747	21.87
554.943	21.91
555.14	21.99
555.336	21.84
555.533	22.12
555.729	22.07
555.926	22.14
556.122	22.09
556.318	22.1
556.515	22.07
556.711	22.05
556.907	21.87
557.104	21.96
557.3	21.89
557.496	22.01
557.693	21.91
557.889	21.96
558.085	21.87
558.281	21.92
558.478	21.79
558.674	21.81
558.87	21.76
559.066	21.92
559.262	21.88
559.459	21.81
559.655	21.8
559.851	21.73
560.047	21.76
560.243	21.88
560.439	21.7
560.635	21.72
560.831	21.77
561.027	21.77
561.223	21.8
561.419	21.79
561.615	21.87
561.811	21.63
562.007	21.55
562.203	21.44
562.399	21.33
562.595	21.43
562.791	21.38
562.987	21.29
563.183	21.25
563.379	21.06
563.575	21.08
563.771	21.08
563.966	21.19
564.162	21.3
564.358	21.35
564.554	21.35
564.75	21.32
564.945	21.35
565.141	21.44
565.337	21.43
565.533	21.46
565.728	21.38
565.924	21.24
566.12	21.26
566.315	21.14
566.511	21.17
566.707	21.13
566.902	21.24
567.098	21.28
567.293	21.19
567.489	21.29
567.684	21.34
567.88	21.34
568.076	21.53
568.271	21.64
568.467	21.75
568.662	21.77
568.858	21.84
569.053	21.87
569.248	21.78
569.444	21.85
569.639	21.81
569.835	21.82
570.03	21.83
570.225	21.78
570.421	21.71
570.616	21.74
570.812	21.71
571.007	21.67
571.202	21.57
571.397	21.64
571.593	21.63
571.788	21.56
571.983	21.59
572.178	21.6
572.374	21.62
572.569	21.62
572.764	21.51
572.959	21.56
573.154	21.68
573.35	21.71
573.545	21.75
573.74	21.72
573.935	21.79
574.13	21.86
574.325	21.89
574.52	22.04
574.715	22.11
574.91	22.35
575.105	22.41
575.3	22.34
575.495	22.42
575.69	22.53
575.885	22.74
576.08	22.89
576.275	23.01
576.47	23.13
576.665	23.09
576.86	23.25
577.055	23.24
577.25	23.3
577.444	23.54
577.639	23.7
577.834	23.84
578.029	23.89
578.224	24.01
578.418	24.14
578.613	24.28
578.808	24.47
579.003	24.51
579.197	24.57
579.392	24.55
579.587	24.67
579.781	24.62
579.976	24.54
580.171	24.68
580.365	24.67
580.56	24.53
580.755	24.56
580.949	24.5
581.144	24.37
581.338	24.37
581.533	24.39
581.727	24.27
581.922	24.23
582.116	24.36
582.311	24.41
582.505	24.56
582.7	24.65
582.894	24.65
583.089	24.64
583.283	24.74
583.478	24.88
583.672	24.97
583.866	25.08
584.061	25.12
584.255	25.07
584.449	25.13
584.644	25.22
584.838	25.29
585.032	25.25
585.226	25.24
585.421	25.33
585.615	25.41
585.809	25.58
586.003	25.7
586.198	25.96
586.392	26.18
586.586	26.07
586.78	26.03
586.974	25.92
587.168	26.04
587.363	26.17
587.557	26.25
587.751	26.05
587.945	25.8
588.139	25.67
588.333	25.36
588.527	25.19
588.721	24.97
588.915	24.87
589.109	24.95
589.303	24.87
589.497	24.73
589.691	24.56
589.885	24.56
590.079	24.7
590.273	24.69
590.466	24.84
590.66	25
590.854	25.19
591.048	25.23
591.242	25.4
591.436	25.65
591.629	25.92
591.823	26.06
592.017	26.43
592.211	26.52
592.404	26.57
592.598	26.57
592.792	26.39
592.986	26.5
593.179	26.35
593.373	26.16
593.567	25.9
593.76	25.76
593.954	25.75
594.147	25.51
594.341	25.23
594.535	25.16
594.728	24.98
594.922	24.95
595.115	24.7
595.309	24.69
595.502	24.51
595.696	24.63
595.889	24.49
596.083	24.4
596.276	24.2
596.47	24.22
596.663	24.08
596.856	24.15
597.05	24.08
597.243	24.25
597.437	24.34
597.63	24.51
597.823	24.48
598.017	24.6
598.21	24.7
598.403	25.04
598.596	25.2
598.79	25.44
598.983	25.68
599.176	25.73
599.369	25.83
599.563	26
599.756	26.08
599.949	26.07
600.142	26.03
600.335	26.01
600.528	25.85
600.722	25.89
600.915	25.83
601.108	25.65
601.301	25.69
601.494	25.43
601.687	25.21
601.88	25.19
602.073	25.03
602.266	25.02
602.459	24.92
602.652	24.72
602.845	24.72
603.038	24.6
603.231	24.49
603.424	24.5
603.617	24.53
603.809	24.45
604.002	24.35
604.195	24.43
604.388	24.38
604.581	24.5
604.774	24.63
604.966	24.57
605.159	24.7
605.352	24.79
605.545	24.83
605.737	24.93
605.93	25.18
606.123	25.41
606.316	25.59
606.508	25.83
606.701	25.91
606.894	26.21
607.086	26.61
607.279	26.87
607.471	27.24
607.664	27.66
607.857	28.1
608.049	28.68
608.242	29.15
608.434	29.94
608.627	31.09
608.819	32.38
609.012	33.69
609.204	35.31
609.397	37.11
609.589	39.14
609.782	41.18
609.974	43.28
610.166	45.31
610.359	47.41
610.551	49.23
610.743	50.68
610.936	52.12
611.128	53.23
611.32	53.94
611.513	54.16
611.705	54.06
611.897	53.82
612.09	53.25
612.282	52.42
612.474	51.48
612.666	50.48
612.858	49.39
613.051	48.22
613.243	47.17
613.435	46.01
613.627	45.22
613.819	44.35
614.011	43.47
614.203	42.59
614.395	41.81
614.588	40.96
614.78	40.16
614.972	39.47
615.164	38.69
615.356	37.91
615.548	37.34
615.74	36.7
615.932	35.97
616.124	35.34
616.315	34.78
616.507	34.09
616.699	33.65
616.891	33.25
617.083	32.75
617.275	32.32
617.467	32
617.659	31.32
617.85	30.6
618.042	30.36
618.234	29.94
618.426	29.63
618.618	29.4
618.809	29.35
619.001	29.23
619.193	29.1
619.384	29.01
619.576	28.7
619.768	28.9
619.959	29.13
620.151	29.21
620.343	29.34
620.534	29.47
620.726	29.76
620.917	29.72
621.109	29.6
621.301	29.84
621.492	29.94
621.684	30.19
621.875	30.29
622.067	30.4
622.258	30.26
622.45	30.38
622.641	30.46
622.832	30.47
623.024	30.29
623.215	30.46
623.407	30.37
623.598	30.42
623.789	30.59
623.981	30.6
624.172	30.63
624.363	30.8
624.555	30.96
624.746	30.93
624.937	30.82
625.129	30.85
625.32	30.84
625.511	30.72
625.702	30.48
625.893	30.38
626.085	30.29
626.276	30.07
626.467	30.08
626.658	29.85
626.849	29.74
627.04	29.82
627.231	30.04
627.422	29.99
627.614	30.03
627.805	30.26
627.996	30.29
628.187	30.4
628.378	30.85
628.569	31
628.76	31.25
628.951	31.45
629.142	31.68
629.332	31.89
629.523	32.43
629.714	32.98
629.905	33.06
630.096	33.29
630.287	33.47
630.478	33.47
630.669	33.47
630.859	33.37
631.05	33.45
631.241	33.19
631.432	32.81
631.623	32.35
631.813	31.94
632.004	31.89
632.195	31.45
632.385	31.15
632.576	30.75
632.767	30.41
632.957	30.07
633.148	29.59
633.339	29.35
633.529	29.24
633.72	29.06
633.91	28.82
634.101	28.47
634.292	28.46
634.482	28.33
634.673	28.4
634.863	28.29
635.054	28.23
635.244	28.11
635.435	28.14
635.625	28.08
635.815	27.99
636.006	28.04
636.196	27.89
636.387	27.87
636.577	27.87
636.767	27.91
636.958	27.96
637.148	27.83
637.338	28.08
637.529	28.27
637.719	28.3
637.909	28.51
638.099	28.42
638.29	28.57
638.48	28.73
638.67	28.65
638.86	28.43
639.05	28.5
639.241	28.96
639.431	29.02
639.621	28.91
639.811	28.91
640.001	28.56
640.191	28.57
640.381	28.78
640.571	28.92
640.761	29.08
640.951	29.29
641.141	29.39
641.331	29.25
641.521	29.31
641.711	29.54
641.901	29.82
642.091	30.17
642.281	30.32
642.471	30.36
642.661	30.13
642.851	30.38
643.041	30.48
643.231	30.45
643.42	30.43
643.61	30.6
643.8	30.4
643.99	30.29
644.18	30.16
644.369	30.27
644.559	30.42
644.749	30.54
644.939	30.34
645.128	30.43
645.318	30.37
645.508	30.52
645.697	30.44
645.887	30.63
646.076	30.62
646.266	30.48
646.456	30.45
646.645	30.18
646.835	30.17
647.024	30.12
647.214	29.67
647.403	29.55
647.593	29.58
647.782	29.66
647.972	29.67
648.161	29.77
648.351	30
648.54	30.01
648.73	30.06
648.919	30.47
649.108	30.89
649.298	31.16
649.487	31.38
649.677	31.36
649.866	31.27
650.055	31.06
650.244	31.26
650.434	31.5
650.623	31.67
650.812	31.82
651.002	31.49
651.191	31.16
651.38	31.21
651.569	31.26
651.758	31.29
651.947	31.11
652.137	31.31
652.326	31.21
652.515	31.05
652.704	30.9
652.893	31.14
653.082	31.2
653.271	31.38
653.46	31.53
653.649	31.85
653.838	31.85
654.027	32.1
654.216	31.93
654.405	31.79
654.594	31.82
654.783	31.88
654.972	31.56
655.161	31.64
655.35	31.55
655.539	31.49
655.728	31.18
655.916	31.17
656.105	31.2
656.294	31.34
656.483	31.37
656.672	31.34
656.86	30.9
657.049	30.77
657.238	30.69
657.427	30.52
657.615	30.4
657.804	30.48
657.993	30.3
658.181	30.13
658.37	29.99
658.559	29.8
658.747	29.84
658.936	30
659.125	29.69
659.313	29.58
659.502	29.66
659.69	29.66
659.879	29.71
660.067	29.68
660.256	29.7
660.444	29.88
660.633	30.18
660.821	30.23
661.01	30.44
661.198	31.24
661.387	31.6
661.575	31.84
661.763	32.22
661.952	32.12
662.14	32.46
662.328	32.54
662.517	32.92
662.705	33.01
662.893	33.2
663.082	33.36
663.27	33.07
663.458	32.88
663.646	32.99
663.834	32.79
664.023	32.85
664.211	32.94
664.399	33.02
664.587	32.6
664.775	32.47
664.963	32.2
665.152	32.35
665.34	32.56
665.528	32.73
665.716	32.64
665.904	32.66
666.092	32.8
666.28	32.84
666.468	32.81
666.656	32.83
666.844	32.8
667.032	32.91
667.22	32.62
667.408	32.48
667.596	32.42
667.784	32.09
667.971	31.86
668.159	31.78
668.347	31.67
668.535	31.56
668.723	31.29
668.911	31.61
669.098	31.68
669.286	31.83
669.474	31.76
669.662	32.01
669.849	32.29
670.037	32.42
670.225	32.76
670.413	32.64
670.6	32.84
670.788	33.07
670.976	32.92
671.163	32.81
671.351	32.87
671.538	32.99
671.726	32.81
671.913	32.76
672.101	32.49
672.289	32.18
672.476	32.43
672.664	32.75
672.851	32.99
673.039	32.53
673.226	32.79
673.413	32.5
673.601	32.5
673.788	32.55
673.976	32.64
674.163	33.13
674.35	33.21
674.538	33.28
674.725	33.28
674.912	33.32
675.1	33.68
675.287	33.72
675.474	34.23
675.662	34.11
675.849	34.31
676.036	34.1
676.223	34.14
676.411	34.23
676.598	34.48
676.785	34.06
676.972	33.97
677.159	34.18
677.346	34.09
677.533	33.77
677.721	33.91
677.908	33.78
678.095	33.96
678.282	33.82
678.469	33.75
678.656	33.29
678.843	33.38
679.03	33.41
679.217	33.4
679.404	33.28
679.591	33.27
679.778	33.12
679.964	32.86
680.151	32.95
680.338	33.01
680.525	32.93
680.712	33.08
680.899	33.12
681.086	33.23
681.272	33.22
681.459	33.06
681.646	33.2
681.833	33.46
682.02	33.62
682.206	33.53
682.393	33.43
682.58	33.51
682.766	33.4
682.953	33.37
683.14	33.21
683.326	33.21
683.513	33.67
683.7	33.78
683.886	33.93
684.073	33.85
684.259	33.96
684.446	33.98
684.632	34.15
684.819	34.38
685.005	34.66
685.192	34.88
685.378	34.96
685.565	34.84
685.751	34.95
685.938	34.71
686.124	34.92
686.31	34.93
686.497	35.43
686.683	35.36
686.87	35.42
687.056	35.49
687.242	35.37
687.429	35.46
687.615	35.41
687.801	35.13
687.987	35.22
688.174	35.5
688.36	35.3
688.546	34.9
688.732	35
688.918	34.92
689.105	34.99
689.291	35
689.477	34.69
689.663	34.76
689.849	34.8
690.035	34.91
690.221	34.78
690.407	35.21
690.593	35.38
690.779	35.06
690.965	35.02
691.151	34.83
691.337	35.27
691.523	35.79
691.709	35.94
691.895	36.05
692.081	36.42
692.267	35.95
692.453	36.43
692.639	36.63
692.825	37.3
693.011	37.5
693.196	38.06
693.382	37.73
693.568	37.64
693.754	37.69
693.94	37.98
694.125	37.67
694.311	38.12
694.497	37.47
694.682	37.45
694.868	37.45
695.054	37.21
695.239	36.99
695.425	36.84
695.611	36.81
695.796	36.66
695.982	36.46
696.168	36.42
696.353	36.17
696.539	36.23
696.724	36.14
696.91	35.61
697.095	35.69
697.281	35.51
697.466	35.53
697.652	35.13
697.837	35
698.023	34.68
698.208	34.69
698.393	34.89
698.579	34.72
698.764	34.38
698.949	34.36
699.135	34.41
699.32	34.3
699.505	34.39
699.691	34.56
699.876	34.68
700.061	34.97
700.246	34.92
700.432	35.1
700.617	35.46
700.802	35.66
700.987	35.61
701.172	36.14
701.358	36.41
701.543	36.29
701.728	36.7
701.913	36.81
702.098	36.85
702.283	36.95
702.468	36.62
702.653	36.69
702.838	37.44
703.023	37.95
703.208	37.71
703.393	37.92
703.578	38.53
703.763	38.55
703.948	39.25
704.133	40.13
704.318	40.58
704.503	41.38
704.688	41.97
704.873	42.36
705.057	43.02
705.242	43.64
705.427	44.42
705.612	44.75
705.797	45.52
705.981	45.83
706.166	45.89
706.351	46.31
706.536	46.68
706.72	46.87
706.905	47
707.09	46.73
707.274	46.77
707.459	47.12
707.644	47.08
707.828	47.19
708.013	47.04
708.197	46.96
708.382	47.2
708.567	46.88
708.751	46.75
708.936	46.09
709.12	46.22
709.305	46.03
709.489	45.48
709.673	45.49
709.858	44.9
710.042	44.79
710.227	44.93
710.411	44.19
710.596	44.43
710.78	44.53
710.964	44.8
711.149	44.75
711.333	44.79
711.517	45.27
711.702	44.85
711.886	44.85
712.07	44.2
712.254	43.78
712.438	44.08
712.623	43.14
712.807	42.43
712.991	42.15
713.175	41.68
713.359	41.42
713.544	40.65
713.728	40.15
713.912	39.88
714.096	40.19
714.28	39.88
714.464	39.2
714.648	39.45
714.832	39.15
715.016	38.98
715.2	38.77
715.384	38.13
715.568	37.71
715.752	37.33
715.936	36.95
716.12	36.8
716.304	36.68
716.488	36.81
716.671	36.55
716.855	36.71
717.039	36.18
717.223	36.36
717.407	36.45
717.59	36.2
717.774	37.2
717.958	37.38
718.142	37.2
718.325	36.85
718.509	36.88
718.693	37.3
718.877	37.27
719.06	37.78
719.244	37.75
719.428	38.19
719.611	38.29
719.795	38.05
719.978	38.33
720.162	39.43
720.345	40.04
720.529	39.93
720.713	40.13
720.896	39.89
721.08	40.33
721.263	40.45
721.446	40.31
721.63	40.48
721.813	40.49
721.997	40.47
722.18	39.88
722.364	39.99
722.547	40.02
722.73	39.12
722.914	39.27
723.097	38.91
723.28	39.02
723.464	39.3
723.647	39.25
723.83	39.73
724.013	39.55
724.197	39.72
724.38	39.2
724.563	39.39
724.746	39.52
724.929	39.71
725.112	39.44
725.296	39.99
725.479	39.29
725.662	39.11
725.845	38.89
726.028	38.64
726.211	38.15
726.394	38.28
726.577	37.88
726.76	37.93
726.943	38.11
727.126	38.24
727.309	37.6
727.492	37.63
727.675	38.23
727.858	37.77
728.041	38.24
728.224	38.24
728.407	38.32
728.589	39.32
728.772	39.56
728.955	39.62
729.138	39.66
729.321	39.62
729.503	39.83
729.686	39.4
729.869	39.38
730.052	39.88
730.234	39.41
730.417	39.34
730.6	38.45
730.782	38.41
730.965	38.15
731.148	38.28
731.33	38.31
731.513	38.42
731.695	38.37
731.878	38.88
732.061	38.24
732.243	38.66
732.426	38.82
732.608	39.45
732.791	39.7
732.973	40.32
733.156	40.7
733.338	40.96
733.52	41.07
733.703	40.9
733.885	40.69
734.068	41.05
734.25	41.07
734.432	41.55
734.615	41.65
734.797	41.51
734.979	40.76
735.162	39.97
735.344	40.19
735.526	40.48
735.708	41.31
735.891	41.6
736.073	41.56
736.255	42.05
736.437	41.73
736.619	41.28
736.802	41.34
736.984	41.56
737.166	42.33
737.348	42.28
737.53	42.47
737.712	42.69
737.894	42.12
738.076	42.49
738.258	41.86
738.44	42.45
738.622	42.58
738.804	42.85
738.986	42.91
739.168	42.96
739.35	42.78
739.532	42.34
739.714	42.51
739.896	43.04
740.078	42.98
740.259	43
740.441	42.75
740.623	42.86
740.805	42.97
740.987	43.14
741.168	43.03
741.35	43.34
741.532	43.26
741.714	43.34
741.895	43.15
742.077	43.03
742.259	43.38
742.44	43.35
742.622	44.33
742.804	44.03
742.985	44.44
743.167	44.55
743.348	44.72
743.53	45.45
743.711	45.28
743.893	45.74
744.075	45.78
744.256	47.14
744.438	47.19
744.619	46.37
744.8	46.89
744.982	46.37
745.163	46.67
745.345	46.46
745.526	46.8
745.707	45.89
745.889	46
746.07	45.63
746.252	43.88
746.433	43.61
746.614	44.05
746.795	44.11
746.977	44.54
747.158	44.09
747.339	44.02
747.52	44.22
747.702	45.35
747.883	45.95
748.064	45.92
748.245	46.88
748.426	47.1
748.607	46.98
748.788	46.92
748.97	47.14
749.151	47.27
749.332	47.69
749.513	46.71
749.694	46.29
749.875	45.67
750.056	46.6
750.237	46.44
750.418	46.36
750.599	45.99
750.78	45.68
750.96	45.11
751.141	45.48
751.322	45.65
751.503	47.06
751.684	47.23
751.865	47.14
752.046	46.28
752.226	45.85
752.407	46.33
752.588	46.28
752.769	46.09
752.949	46.08
753.13	45.84
753.311	45.06
753.492	43.75
753.672	43.25
753.853	43.3
754.034	43.4
754.214	43.76
754.395	43.61
754.575	44.08
754.756	45.01
754.937	45.38
755.117	45.4
755.298	46.55
755.478	46.06
755.659	46.69
755.839	45.99
756.02	46.05
756.2	46.31
756.381	46.2
756.561	46.33
756.741	45.34
756.922	44.99
757.102	45.53
757.283	44.6
757.463	45.16
757.643	45.23
757.823	45.3
758.004	45.38
758.184	45.03
758.364	44.69
758.545	43.4
758.725	43.61
758.905	43.4
759.085	41.86
759.265	41.21
759.446	40.53
759.626	38.95
759.806	39.21
759.986	39.65
760.166	38.74
760.346	38.2
760.526	38.14
760.706	37.62
760.886	37.83
761.066	38.69
761.246	39.27
761.426	39.35
761.606	40.2
761.786	39.48
761.966	38.17
762.146	38.62
762.326	38.74
762.506	38.82
762.686	38.75
762.866	38.55
763.046	37.83
763.225	37.36
763.405	36.98
763.585	36.8
763.765	37.16
763.945	37.41
764.124	38.11
764.304	38.51
764.484	39.02
764.664	39.53
764.843	39.82
765.023	40.91
765.203	41.19
765.382	41.94
765.562	42.75
765.741	43.48
765.921	44.33
766.101	44.42
766.28	44.87
766.46	44.82
766.639	44.96
766.819	44.86
766.998	44.52
767.178	44.78
767.357	45.72
767.537	45.31
767.716	45.34
767.896	44.68
768.075	44.54
768.254	44.1
768.434	44.75
768.613	44.84
768.792	45.23
768.972	45.2
769.151	46.17
769.33	45.94
769.51	46.64
769.689	47.41
769.868	48.28
770.047	48.8
770.226	49.09
770.406	49.9
770.585	49.84
770.764	50.06
770.943	50.7
771.122	50.89
771.301	51.32
771.48	51.19
771.66	49.99
771.839	49.7
772.018	48.88
772.197	49.57
772.376	48.88
772.555	49.49
772.734	49.91
772.913	49.44
773.092	49.26
773.271	48.84
773.449	48.61
773.628	49.14
773.807	48.75
773.986	48.96
774.165	48.89
774.344	48.86
774.523	48.31
774.701	47.74
774.88	48.13
775.059	47.04
775.238	46.96
775.417	47.14
775.595	47.55
775.774	48.79
775.953	48.48
776.131	47.93
776.31	47.53
776.489	46.42
776.667	46.47
776.846	46.76
777.025	47.33
777.203	46.71
777.382	47.11
777.56	47.06
777.739	46.24
777.917	47.12
778.096	47.11
778.274	47.42
778.453	48.11
778.631	46.95
778.81	47.02
778.988	47.3
779.166	48.11
779.345	48.07
779.523	47.98
779.702	48.61
779.88	48.87
780.058	49.78
780.237	50.23
780.415	50.34
780.593	51.56
780.771	50.78
780.95	52.46
781.128	51.69
781.306	51.22
781.484	51.38
781.662	51.18
781.841	50.75
782.019	50.05
782.197	49.62
782.375	50.26
782.553	50.48
782.731	50.72
782.909	48.95
783.087	48.8
783.265	49.31
783.443	48.46
783.621	49.04
783.799	48.86
783.977	48.93
784.155	49.33
784.333	49.05
784.511	49.49
784.689	48.47
784.867	47.64
785.045	47.76
785.223	47.6
785.4	47.39
785.578	47.11
785.756	47.32
785.934	47.48
786.112	47.03
786.289	46.52
786.467	46.35
786.645	47.51
786.823	47.85
787	48.72
787.178	49.27
787.356	49.11
787.533	48.42
787.711	47.67
787.889	47.41
788.066	47.02
788.244	47.27
788.421	46.26
788.599	46.25
788.776	46.34
788.954	46.27
789.131	45.9
789.309	47.42
789.486	47.43
789.664	46.85
789.841	46.93
790.019	45.83
790.196	46.26
790.373	46.71
790.551	47.05
790.728	47.71
790.906	46.64
791.083	45.61
791.26	44.29
791.437	44.6
791.615	45.71
791.792	44.75
791.969	46.1
792.146	45.36
792.324	46.34
792.501	44.6
792.678	44.51
792.855	46.66
793.032	48.67
793.209	49.18
793.387	49.44
793.564	50
793.741	50.5
793.918	51.67
794.095	52.16
794.272	51.12
794.449	52.79
794.626	52.62
794.803	50.41
794.98	49.24
795.157	49.34
795.334	48.93
795.511	48
795.688	48.25
795.864	47.49
796.041	47.8
796.218	48.83
796.395	48.56
796.572	47.66
796.749	47.76
796.925	48.14
797.102	47.56
797.279	47.43
797.456	47.84
797.632	47.76
797.809	47.74
797.986	46.94
798.162	44.78
798.339	44.12
798.516	43.23
798.692	42.54
798.869	42.57
799.046	43.01
799.222	44.44
799.399	43.97
799.575	44.05
799.752	43.04
799.928	44.28
800.105	46.12
800.281	47.1
800.458	48.4
800.634	49.75
800.811	48.86
800.987	49.62
801.163	47.66
801.34	47.67
801.516	47.89
801.692	49.08
801.869	48.53
802.045	48.8
802.221	48.12
802.398	49.05
802.574	49.65
802.75	51.43
802.926	51.59
803.103	52.15
803.279	51.81
803.455	51.44
803.631	51.69
803.807	50.74
803.983	49.12
804.16	49.35
804.336	48.92
804.512	48.65
804.688	45.88
804.864	45.71
805.04	46.24
805.216	46.82
805.392	47.3
805.568	45.91
805.744	45.08
805.92	46.86
806.096	47.51
806.272	47.65
806.448	46.58
806.623	46.47
806.799	45.62
806.975	45.24
807.151	44.63
807.327	44.54
807.503	45.32
807.678	45.17
807.854	44.22
808.03	43.18
808.206	43.32
808.381	42.45
808.557	45.06
808.733	44.36
808.908	44.24
809.084	46.07
809.26	46.45
809.435	47.19
809.611	48.49
809.787	48.99
809.962	49.7
810.138	49.27
810.313	51.23
810.489	49.01
810.664	49.83
810.84	49.38
811.015	49.97
811.191	49.54
811.366	47.92
811.542	48.25
811.717	49.76
811.892	49.58
812.068	48.9
812.243	48.1
812.419	49.36
812.594	49.34
812.769	48.98
812.944	48.68
813.12	48.28
813.295	50.02
813.47	50.23
813.645	48.49
813.821	47.7
813.996	48.26
814.171	48.27
814.346	46.8
814.521	45.9
814.697	45.86
814.872	45.63
815.047	44.57
815.222	42.6
815.397	41.64
815.572	41.36
815.747	43.35
815.922	43.18
816.097	42.35
816.272	42.8
816.447	42.34
816.622	42.51
816.797	41.43
816.972	42.43
817.147	42.93
817.322	43.28
817.496	43.89
817.671	42.08
817.846	43.02
818.021	41.86
818.196	41.59
818.371	39.98
818.545	39.05
818.72	40.55
818.895	39.88
819.069	39.32
819.244	38.73
819.419	38.38
819.594	38.59
819.768	36.97
819.943	37.89
820.117	36.62
820.292	37.03
820.467	36.81
820.641	35.32
820.816	34.07
820.99	33.89
821.165	33.17
821.339	32.73
821.514	32.56
821.688	32.54
821.863	32.1
822.037	32.29
822.212	32
822.386	31.7
822.56	31.22
822.735	31.54
822.909	31.61
823.084	31.7
823.258	31.68
823.432	31.44
823.606	31.57
823.781	31.9
823.955	31.88
824.129	32.06
824.303	32.55
824.478	32.85
824.652	32.76
824.826	32.83
825	33.08
825.174	33.77
825.348	34.14
825.523	33.88
825.697	33.92
825.871	35.07
826.045	35.04
826.219	34.84
826.393	35.41
826.567	35.7
826.741	35.51
826.915	35.19
827.089	34.46
827.263	34.09
827.437	33.69
827.611	33.49
827.784	32.94
827.958	33.27
828.132	33.41
828.306	33.22
828.48	33.49
828.654	33.62
828.827	34.16
829.001	34.47
829.175	35.37
829.349	36.13
829.522	37.07
829.696	36.71
829.87	37.58
830.044	37.56
830.217	38.19
830.391	37.37
830.565	38.14
830.738	40.31
830.912	40.84
831.085	41.78
831.259	41.83
831.432	40.61
831.606	42.45
831.779	40.53
831.953	40.6
832.126	39.62
832.3	39.08
832.473	38.85
832.647	37.15
832.82	37.18
832.994	36.83
833.167	36.81
833.34	36.37
833.514	35.32
833.687	35.63
833.86	35.4
834.034	36.04
834.207	37.07
834.38	36.76
834.553	37.21
834.727	36.35
834.9	35.88
835.073	35.63
835.246	35.84
835.419	36.13
835.593	36.79
835.766	37.35
835.939	38
836.112	37.5
836.285	37.35
836.458	35.5
836.631	36.44
836.804	36.28
836.977	37.29
837.15	39.04
837.323	39.25
837.496	39.15
837.669	39.78
837.842	39.34
838.015	40.79
838.188	43.57
838.361	46.79
838.533	47.9
838.706	49.22
838.879	50.09
839.052	48.83
839.225	47.85
839.398	50.63
839.57	50.35
839.743	50.12
839.916	49.71
840.088	47.85
840.261	48.72
840.434	47.7
840.607	47.66
840.779	47.68
840.952	46.67
841.124	49.64
841.297	46.54
841.47	48.52
841.642	48.19
841.815	49.23
841.987	47.82
842.16	47.54
842.332	50.06
842.505	51.9
842.677	51.93
842.85	54.21
843.022	51.52
843.194	57.66
843.367	58.96
843.539	59.63
843.712	58.09
843.884	62.7
844.056	64.92
844.229	64.6
844.401	66.31
844.573	67.73
844.745	69.64
844.918	72.12
845.09	67.17
845.262	65.99
845.434	67.98
845.606	70.31
845.779	72.48
845.951	67.75
846.123	64.71
846.295	62.92
846.467	63.21
846.639	65.08
846.811	63.77
846.983	69.33
847.155	68.08
847.327	61.66
847.499	64.43
847.671	60.16
847.843	64.3
848.015	66.44
848.187	64.43
848.359	67.77
848.531	65.78
848.703	70.53
848.875	67.02
849.047	69.23
849.218	74.34
849.39	72.52
849.562	75.44
849.734	72.09
849.905	73.25
850.077	74.09
850.249	69.43
850.421	68.62
850.592	63.89
850.764	63.16
850.936	61.15
851.107	59.64
851.279	58.64
851.451	58.88
851.622	59.78
851.794	57.7
851.965	63.02
852.137	62.68
852.308	64.89
852.48	66.82
852.651	67.01
852.823	68.83
852.994	70.95
853.166	71.13
853.337	74.17
853.509	76.34
853.68	78.03
853.851	76.28
854.023	78.21
854.194	76.04
854.365	74.77
854.537	73.93
854.708	71.75
854.879	69.99
855.05	73.17
855.222	66.77
855.393	62.72
855.564	63.93
855.735	55.9
855.906	59.07
856.078	57.49
856.249	57.01
856.42	60.17
856.591	58.14
856.762	61.02
856.933	56.05
857.104	54.41
857.275	57.54
857.446	55.56
857.617	67.3
857.788	65.33
857.959	72.74
858.13	72.12
858.301	67.2
858.472	65.32
858.643	60.55
858.814	65.91
858.985	74.67
859.155	71.37
859.326	69.38
859.497	63
859.668	61.43
859.839	55.35
860.009	55.67
860.18	57.56
860.351	60.34
860.522	63.42
860.692	60.12
860.863	57.11
861.034	64.25
861.204	67.21
861.375	70.62
861.546	74.98
861.716	77.48
861.887	74.73
862.057	81.55
862.228	79.45
862.398	78.46
862.569	79.62
862.739	80.47
862.91	79.2
863.08	78.64
863.251	72.57
863.421	67.24
863.592	66.84
863.762	67.79
863.932	62.54
864.103	64.69
864.273	66.25
864.443	67.16
864.614	60.74
864.784	57.22
864.954	57.06
865.125	61.63
865.295	66.51
865.465	67.15
865.635	63.58
865.805	65.01
865.976	61.78
866.146	58.9
866.316	51.86
866.486	57.09
866.656	53.2
866.826	51.61
866.996	52.16
867.166	49.88
867.336	47.73
867.506	47.99
867.676	47.89
867.846	51.96
868.016	50.32
868.186	58.07
868.356	55.18
868.526	58.22
868.696	57.52
868.866	55.12
869.036	49.41
869.206	52.2
869.376	57.61
869.545	61.44
869.715	58.01
869.885	56.47
870.055	55.2
870.224	55.08
870.394	49.59
870.564	54.91
870.734	52.87
870.903	58.38
871.073	54.74
871.243	49.61
871.412	46.76
871.582	50.1
871.751	54.32
871.921	55.18
872.091	58.13
872.26	63.9
872.43	60.18
872.599	58.29
872.769	59.04
872.938	63.12
873.108	67.51
873.277	60.42
873.446	57.31
873.616	54.06
873.785	49.42
873.955	47.4
874.124	48.97
874.293	47.59
874.463	55.63
874.632	56.49
874.801	58.13
874.971	53.95
875.14	57.6
875.309	57.65
875.478	61.04
875.647	67.4
875.817	63.96
875.986	62.87
876.155	62.17
876.324	60.87
876.493	55.69
876.662	53.72
876.831	53.95
877	52.53
877.17	53.66
877.339	57.02
877.508	52.17
877.677	55.86
877.846	55.17
878.015	53.53
878.184	48.65
878.352	54.84
878.521	55.63
878.69	52.9
878.859	55.3
879.028	53.65
879.197	51.64
879.366	48.83
879.534	48.75
879.703	44.1
879.872	43.12
880.041	41.3
880.21	36.1
880.378	34.17
880.547	34.56
880.716	32.9
880.884	30.93
881.053	30.28
881.222	28.97
881.39	27.62
881.559	28.63
881.727	28.57
881.896	28.92
882.065	29.26
882.233	29.33
882.402	28.57
882.57	28.26
882.739	28.77
882.907	28.52
883.076	28.73
883.244	29.03
883.412	28.93
883.581	28.64
883.749	28.06
883.918	27.88
884.086	27.93
884.254	29.08
884.423	29.76
884.591	30.07
884.759	30.08
884.927	30.97
885.096	31.36
885.264	30.93
885.432	31.96
885.6	33.36
885.769	35.01
885.937	34.51
886.105	33.99
886.273	32.77
886.441	34.22
886.609	33.26
886.777	33.62
886.945	32.45
887.113	32.31
887.281	33.21
887.449	35.65
887.617	36.5
887.785	34.58
887.953	34.92
888.121	38.35
888.289	39.52
888.457	45.18
888.625	50.95
888.793	53.49
888.961	57.5
889.129	60.7
889.296	61.22
889.464	60.82
889.632	66.73
889.8	71.3
889.967	73.25
890.135	76.52
