Data from 2938713__Reflection_01.txt Node
Date: Tue Mar 17 19:16:15 EDT 2015
User: robert
Spectrometer: USB4E03002
Autoset integration time: false
Trigger mode: 4
Integration Time (sec): 1.000000E-1
Scans to average: 10
Electric dark correction enabled: false
Nonlinearity correction enabled: false
Boxcar width: 5
Stray light correction enabled: false
XAxis mode: Wavelengths
Stop averaging: false
Number of Pixels in Spectrum: 3648
>>>>>Begin Spectral Data<<<<<
177.575	161.11
177.794	137.21
178.014	15.79
178.233	-17.17
178.452	-31.03
178.672	-66.35
178.891	33.83
179.11	11.59
179.33	17.18
179.549	23.56
179.768	57.48
179.987	102.65
180.207	69.5
180.426	141.88
180.645	191.07
180.864	765.71
181.084	-1685.71
181.303	294.64
181.522	-150
181.741	-11.94
181.96	9.38
182.179	33.44
182.398	29.71
182.618	30.77
182.837	35.36
183.056	44.14
183.275	57.82
183.494	33.4
183.713	50.94
183.932	69.95
184.151	75.12
184.37	32.54
184.589	108.29
184.808	119.7
185.027	51.16
185.246	39.43
185.465	-44.76
185.684	-120
185.903	-107.19
186.122	879.25
186.341	585.92
186.56	433.33
186.779	-181.88
186.998	-53.8
187.216	-38.48
187.435	-103.04
187.654	-65.07
187.873	-111.46
188.092	20.4
188.311	14.35
188.53	72.82
188.748	44.55
188.967	49.54
189.186	72.6
189.405	38.49
189.623	82.7
189.842	41.48
190.061	58.67
190.28	71.69
190.498	63.1
190.717	81.02
190.936	72.54
191.154	89.67
191.373	23.05
191.592	88.08
191.81	85.29
192.029	78.07
192.248	100.69
192.466	90.04
192.685	94.37
192.904	64.4
193.122	67.73
193.341	88.82
193.559	120.98
193.778	143.45
193.996	96.18
194.215	122.49
194.433	125.24
194.652	138.19
194.87	149.89
195.089	142.46
195.307	183.37
195.526	181.84
195.744	161.25
195.963	145.73
196.181	113.14
196.399	97.69
196.618	86.87
196.836	60.78
197.055	56.52
197.273	-83.12
197.491	-1137.5
197.71	198.79
197.928	532.18
198.146	1244.19
198.365	1571.79
198.583	-12766.67
198.801	285.91
199.019	1509.09
199.238	2341.18
199.456	-62.89
199.674	-85.42
199.892	-58.68
200.111	-21.6
200.329	3.1
200.547	-0.87
200.765	14.42
200.983	7.21
201.202	3.54
201.42	7.91
201.638	8.58
201.856	10.91
202.074	23.87
202.292	38.5
202.51	12.78
202.728	-2.45
202.946	27.22
203.165	47.15
203.383	47.59
203.601	39.59
203.819	32.79
204.037	23.14
204.255	21.16
204.473	32.59
204.691	20.04
204.909	31.72
205.127	39.96
205.345	28.89
205.562	-10.03
205.78	26.25
205.998	76.12
206.216	57.3
206.434	228.45
206.652	-17400
206.87	58.42
207.088	2.45
207.306	-82.14
207.523	169.47
207.741	48.78
207.959	30.73
208.177	-64.25
208.395	-151.12
208.612	-73.76
208.83	-230.28
209.048	-124.74
209.266	-265.52
209.483	-220.31
209.701	-179.83
209.919	-273.89
210.136	-348.82
210.354	-245.05
210.572	-156.81
210.79	-151.1
211.007	-280.63
211.225	-68.12
211.442	-57.99
211.66	-7.13
211.878	23.25
212.095	22.09
212.313	41.39
212.53	38.78
212.748	8.87
212.966	23.97
213.183	29.99
213.401	24.75
213.618	27.7
213.836	11.13
214.053	7.42
214.271	-15.7
214.488	-23.53
214.705	-18.84
214.923	-9
215.14	1.28
215.358	-11.89
215.575	-23.39
215.793	-35.48
216.01	-73.81
216.227	-39.79
216.445	-54.02
216.662	-67.14
216.879	-70.16
217.097	-103.53
217.314	-104.96
217.531	-112.33
217.749	-71.89
217.966	-59.55
218.183	-27.71
218.4	-5.98
218.618	-16.71
218.835	4.39
219.052	21.11
219.269	30.6
219.487	36.41
219.704	18.6
219.921	16.96
220.138	22.98
220.355	24.06
220.572	9.27
220.79	5.68
221.007	8.88
221.224	-11.9
221.441	-21.3
221.658	-17.19
221.875	-15.77
222.092	-13.9
222.309	-11.88
222.526	-16.25
222.743	-16.81
222.96	-20.4
223.177	-28.94
223.394	-34.47
223.611	-17.45
223.828	-14.81
224.045	-22.67
224.262	-22.32
224.479	-6.42
224.696	-7.52
224.913	-1.27
225.13	-3.03
225.347	-1.04
225.564	2.07
225.781	1.66
225.997	3
226.214	5.13
226.431	3.89
226.648	1.43
226.865	-2.95
227.082	-1.85
227.298	-2.25
227.515	-0.45
227.732	2.58
227.949	2.71
228.165	1.95
228.382	1.82
228.599	2.18
228.816	3.43
229.032	3.41
229.249	3.64
229.466	3.25
229.682	1.76
229.899	0.46
230.116	-0.9
230.332	-0.8
230.549	-0.01
230.765	-0.86
230.982	0.43
231.199	-0.45
231.415	0.13
231.632	-0.54
231.848	-1.23
232.065	0.97
232.281	1.98
232.498	2.55
232.714	2.48
232.931	2.61
233.147	2.1
233.364	-1.82
233.58	-2.93
233.797	-4.09
234.013	-4.95
234.23	-4.89
234.446	-5.53
234.662	-4.41
234.879	-4.6
235.095	-5.28
235.312	-5.45
235.528	-2.73
235.744	-1.83
235.961	-1.48
236.177	0.14
236.393	1.41
236.61	1.43
236.826	0.9
237.042	-0.67
237.258	-0.74
237.475	0.36
237.691	-0.53
237.907	-2.86
238.123	-1.84
238.339	-1.61
238.556	-2.2
238.772	-3.01
238.988	-1.5
239.204	-1.05
239.42	1.19
239.636	1.58
239.853	1.5
240.069	2.46
240.285	2.66
240.501	2.55
240.717	2.15
240.933	1.77
241.149	2.43
241.365	2.56
241.581	2.77
241.797	1.78
242.013	1.64
242.229	2.06
242.445	2.42
242.661	2.39
242.877	2.11
243.093	2.05
243.309	1.63
243.525	1.52
243.741	1.48
243.957	1.24
244.173	2.25
244.388	2.26
244.604	1.66
244.82	0.52
245.036	0.68
245.252	1.19
245.468	2.22
245.683	2.79
245.899	2.94
246.115	2.85
246.331	3.23
246.547	2.69
246.762	2.9
246.978	3.08
247.194	3.16
247.409	3.39
247.625	3.61
247.841	3.5
248.057	3.41
248.272	3.34
248.488	3.33
248.703	2.9
248.919	3.65
249.135	3.69
249.35	3.92
249.566	5.01
249.782	4.46
249.997	3.9
250.213	3.16
250.428	3.44
250.644	3.76
250.859	3.64
251.075	4.41
251.29	3.93
251.506	3.8
251.721	3.26
251.937	2.26
252.152	2.71
252.368	2.51
252.583	3.5
252.798	3.26
253.014	3.02
253.229	2.78
253.445	2.33
253.66	2.11
253.875	1.44
254.091	0.66
254.306	0.35
254.521	0.21
254.737	-0.24
254.952	-0.23
255.167	0.3
255.383	-0.62
255.598	-0.77
255.813	-0.16
256.028	-0.84
256.244	0.19
256.459	0.51
256.674	0.13
256.889	-0.41
257.104	0.62
257.32	0.19
257.535	-0.23
257.75	0.46
257.965	1.65
258.18	1.94
258.395	1.83
258.61	1.61
258.826	2.01
259.041	2.53
259.256	2.83
259.471	2.86
259.686	2.91
259.901	2.76
260.116	2.83
260.331	2.62
260.546	2.18
260.761	2.09
260.976	2.09
261.191	1.86
261.406	1.84
261.621	1.38
261.836	1.07
262.05	0.59
262.265	1.02
262.48	0.54
262.695	0.14
262.91	0.59
263.125	1.1
263.34	1
263.555	1.14
263.769	0.89
263.984	1.53
264.199	1.5
264.414	1.35
264.629	1.7
264.843	1.55
265.058	1.53
265.273	1.42
265.488	1.81
265.702	1.81
265.917	1.61
266.132	0.82
266.346	0.9
266.561	0.87
266.776	0.86
266.99	1.11
267.205	1.73
267.42	1.59
267.634	1.7
267.849	1.08
268.063	0.82
268.278	1.02
268.492	1.45
268.707	1.41
268.922	1.54
269.136	1.95
269.351	1.6
269.565	1.25
269.78	1.28
269.994	1.22
270.209	1.34
270.423	1.31
270.637	0.84
270.852	0.88
271.066	0.35
271.281	0.29
271.495	0.19
271.709	0.13
271.924	0.16
272.138	0.25
272.353	0.35
272.567	0.6
272.781	1.07
272.996	1.35
273.21	1.51
273.424	1.86
273.638	1.89
273.853	1.91
274.067	1.83
274.281	1.71
274.495	1.48
274.71	1.11
274.924	0.86
275.138	0.78
275.352	0.68
275.566	0.28
275.781	0.42
275.995	0.46
276.209	0.5
276.423	0.2
276.637	0.32
276.851	0.48
277.065	0.61
277.279	0.71
277.493	0.29
277.707	-0.04
277.921	-0.69
278.135	-0.73
278.349	-0.99
278.563	-0.97
278.777	-0.96
278.991	-1.22
279.205	-1.12
279.419	-1.39
279.633	-1.64
279.847	-1.25
280.061	-0.97
280.275	-0.03
280.489	0.08
280.703	0.11
280.917	0.41
281.131	0.67
281.344	0.88
281.558	0.6
281.772	1.03
281.986	1.45
282.2	1.29
282.414	1.21
282.627	1.13
282.841	0.82
283.055	0.75
283.269	0.73
283.482	0.9
283.696	0.87
283.91	1.43
284.123	0.95
284.337	0.8
284.551	1.14
284.764	1.77
284.978	1.59
285.192	1.56
285.405	1.84
285.619	1.82
285.833	1.68
286.046	1.9
286.26	1.92
286.473	2.34
286.687	2.36
286.9	2.13
287.114	1.98
287.327	2.4
287.541	2.52
287.754	2.38
287.968	2.3
288.181	2.21
288.395	2.1
288.608	1.95
288.822	1.8
289.035	1.78
289.248	2.21
289.462	2.01
289.675	1.76
289.889	2.05
290.102	2.13
290.315	1.97
290.529	2.04
290.742	2.04
290.955	1.99
291.169	1.89
291.382	2.28
291.595	1.77
291.808	1.79
292.022	1.82
292.235	1.41
292.448	1.78
292.661	1.8
292.875	1.74
293.088	1.88
293.301	1.83
293.514	1.87
293.727	1.91
293.94	2.37
294.153	2.41
294.367	2.64
294.58	3.14
294.793	2.82
295.006	3.09
295.219	3.16
295.432	3.04
295.645	3.27
295.858	3.53
296.071	3.24
296.284	3.3
296.497	3.26
296.71	3.17
296.923	3.28
297.136	3.54
297.349	3.72
297.562	3.83
297.775	3.94
297.988	3.97
298.201	4.05
298.414	4.03
298.626	4.06
298.839	4.44
299.052	4.6
299.265	4.45
299.478	4.47
299.691	4.61
299.903	4.71
300.116	4.91
300.329	4.86
300.542	4.83
300.755	5.08
300.967	4.94
301.18	4.48
301.393	4.45
301.605	4.52
301.818	4.35
302.031	4.14
302.243	4.33
302.456	4.54
302.669	4.88
302.881	5.28
303.094	5.4
303.307	5.48
303.519	5.9
303.732	6
303.944	6.29
304.157	6.32
304.37	6.27
304.582	6.1
304.795	5.66
305.007	5.26
305.22	5.07
305.432	4.82
305.645	4.87
305.857	4.89
306.069	4.7
306.282	4.34
306.494	4.57
306.707	5.04
306.919	5.04
307.132	5.44
307.344	5.99
307.556	6.05
307.769	6.46
307.981	7.1
308.193	6.99
308.406	6.99
308.618	7.12
308.83	6.87
309.043	6.53
309.255	6.67
309.467	6.68
309.679	6.64
309.892	6.56
310.104	6.51
310.316	6.32
310.528	6.43
310.74	6.64
310.953	6.81
311.165	7.1
311.377	7.03
311.589	7.33
311.801	7.48
312.013	7.24
312.225	7.31
312.437	7.36
312.649	7.03
312.862	7.21
313.074	7.24
313.286	6.86
313.498	6.87
313.71	7.06
313.922	6.87
314.134	6.29
314.346	6.51
314.558	6.46
314.77	6.49
314.982	6.62
315.193	6.57
315.405	6.53
315.617	6.95
315.829	6.84
316.041	6.76
316.253	6.65
316.465	7.11
316.677	7.07
316.888	7.5
317.1	7.24
317.312	7.61
317.524	7.28
317.736	7.41
317.947	7.3
318.159	7.72
318.371	7.62
318.583	7.77
318.794	7.63
319.006	7.79
319.218	7.43
319.43	7.67
319.641	7.56
319.853	7.91
320.064	8.02
320.276	7.92
320.488	7.46
320.699	7.61
320.911	7.45
321.123	6.88
321.334	6.58
321.546	7.17
321.757	7.39
321.969	7.32
322.18	7.49
322.392	7.31
322.603	7.32
322.815	7.55
323.026	7.77
323.238	7.61
323.449	7.82
323.661	7.82
323.872	7.17
324.083	6.5
324.295	6.22
324.506	5.93
324.718	5.8
324.929	6.01
325.14	5.81
325.352	5.55
325.563	6.01
325.774	6.15
325.986	6.22
326.197	6.49
326.408	7.11
326.62	7.57
326.831	8.15
327.042	8.42
327.253	8.64
327.464	8.92
327.676	9.38
327.887	9.21
328.098	9.13
328.309	9.44
328.52	9.5
328.732	9.52
328.943	9.35
329.154	9.2
329.365	9.76
329.576	9.54
329.787	9.43
329.998	9.19
330.209	9.21
330.42	9.53
330.631	9.62
330.842	9.64
331.053	9.21
331.264	9.26
331.475	9.32
331.686	8.5
331.897	8.34
332.108	8.35
332.319	8.6
332.53	8.31
332.741	8.47
332.952	8.07
333.163	8.26
333.374	8.96
333.585	8.81
333.795	8.69
334.006	9.05
334.217	8.99
334.428	9.12
334.639	9.21
334.849	9.66
335.06	9.35
335.271	9.71
335.482	9.25
335.692	8.99
335.903	9.35
336.114	9.38
336.325	9.29
336.535	9.41
336.746	9.26
336.957	9.22
337.167	9.39
337.378	9.66
337.589	9.55
337.799	9.61
338.01	9.49
338.22	9.33
338.431	9.36
338.642	9.14
338.852	9.24
339.063	9.7
339.273	9.62
339.484	9.51
339.694	9.58
339.905	9.81
340.115	10.03
340.326	9.72
340.536	9.67
340.746	9.45
340.957	9.95
341.167	10.19
341.378	9.76
341.588	9.79
341.799	9.48
342.009	9.21
342.219	9.01
342.43	9.18
342.64	9.18
342.85	9.21
343.061	9.1
343.271	8.7
343.481	8.51
343.691	8.51
343.902	8.54
344.112	8.87
344.322	9.21
344.532	9.22
344.743	8.97
344.953	9.3
345.163	9.64
345.373	9.84
345.583	9.83
345.793	9.57
346.004	9.69
346.214	9.49
346.424	9.36
346.634	9.16
346.844	9
347.054	8.81
347.264	8.71
347.474	8.13
347.684	7.96
347.894	8.19
348.104	8.32
348.314	8.3
348.524	8.36
348.734	8.25
348.944	8.27
349.154	8.55
349.364	8.95
349.574	8.88
349.784	8.9
349.994	8.98
350.204	8.84
350.413	8.97
350.623	8.73
350.833	8.77
351.043	8.81
351.253	8.89
351.463	8.5
351.672	8.31
351.882	8.45
352.092	8.31
352.302	8.12
352.511	8.11
352.721	8.11
352.931	8.24
353.141	8.54
353.35	8.59
353.56	8.76
353.77	8.78
353.979	8.87
354.189	8.59
354.399	8.56
354.608	8.63
354.818	8.69
355.027	8.64
355.237	8.62
355.447	8.44
355.656	8.43
355.866	8.47
356.075	8.57
356.285	8.25
356.494	8.48
356.704	8.76
356.913	8.96
357.123	8.58
357.332	8.66
357.542	8.68
357.751	8.53
357.96	8.44
358.17	8.14
358.379	7.91
358.589	8.24
358.798	8.19
359.007	7.88
359.217	7.73
359.426	7.92
359.635	7.9
359.845	7.8
360.054	8
360.263	7.84
360.472	7.92
360.682	8.3
360.891	8.33
361.1	8.32
361.309	8.53
361.519	8.66
361.728	8.76
361.937	8.87
362.146	8.95
362.355	8.88
362.564	9.16
362.774	9.32
362.983	9.18
363.192	9.04
363.401	9.02
363.61	8.94
363.819	8.73
364.028	8.64
364.237	8.38
364.446	8.47
364.655	8.39
364.864	8.31
365.073	8.24
365.282	8.01
365.491	8.13
365.7	8.17
365.909	8.01
366.118	7.93
366.327	7.85
366.536	7.8
366.745	7.69
366.954	7.43
367.162	6.99
367.371	7.02
367.58	7.06
367.789	6.75
367.998	6.51
368.207	6.68
368.415	6.9
368.624	6.72
368.833	6.74
369.042	6.8
369.25	6.99
369.459	7.38
369.668	6.96
369.877	6.93
370.085	6.96
370.294	7.22
370.503	7.27
370.711	7.07
370.92	7.38
371.129	7.6
371.337	7.48
371.546	7.61
371.754	7.38
371.963	7.55
372.171	7.54
372.38	7.43
372.589	7.4
372.797	7.03
373.006	7.05
373.214	6.95
373.423	6.68
373.631	6.49
373.84	6.24
374.048	6.37
374.256	6.37
374.465	6.23
374.673	6.42
374.882	6.18
375.09	6.45
375.298	6.49
375.507	6.43
375.715	6.25
375.923	6.19
376.132	6.21
376.34	6.11
376.548	5.87
376.757	5.84
376.965	5.69
377.173	5.75
377.381	5.61
377.59	5.53
377.798	5.52
378.006	5.67
378.214	5.58
378.423	5.37
378.631	5.27
378.839	5.38
379.047	5.53
379.255	5.6
379.463	5.68
379.671	5.75
379.879	5.74
380.088	5.66
380.296	5.62
380.504	5.79
380.712	5.79
380.92	5.88
381.128	5.76
381.336	5.76
381.544	5.71
381.752	5.53
381.96	5.49
382.168	5.48
382.376	5.48
382.584	5.43
382.791	5.41
382.999	5.52
383.207	5.48
383.415	5.58
383.623	5.59
383.831	5.57
384.039	5.52
384.247	5.61
384.454	5.41
384.662	5.43
384.87	5.59
385.078	5.43
385.285	5.39
385.493	5.4
385.701	5.33
385.909	5.08
386.116	4.88
386.324	4.94
386.532	4.6
386.739	4.77
386.947	4.73
387.155	4.68
387.362	4.85
387.57	4.96
387.778	4.99
387.985	4.81
388.193	5.2
388.4	5.38
388.608	5.35
388.816	5.57
389.023	5.51
389.231	5.35
389.438	5.13
389.646	5.06
389.853	4.8
390.061	4.88
390.268	4.94
390.475	4.57
390.683	4.53
390.89	4.52
391.098	4.42
391.305	4.51
391.512	4.72
391.72	4.68
391.927	4.73
392.135	4.69
392.342	4.54
392.549	4.55
392.756	4.6
392.964	4.65
393.171	4.64
393.378	4.82
393.586	4.73
393.793	4.67
394	4.72
394.207	4.63
394.414	4.79
394.622	4.71
394.829	4.71
395.036	4.65
395.243	4.55
395.45	4.55
395.657	4.32
395.864	4.31
396.072	4.27
396.279	4.25
396.486	4.23
396.693	4.06
396.9	4.06
397.107	4.05
397.314	4.2
397.521	4.3
397.728	4.17
397.935	4.21
398.142	3.97
398.349	3.93
398.556	3.94
398.763	3.97
398.97	4.09
399.177	4.15
399.383	3.97
399.59	3.74
399.797	3.73
400.004	3.66
400.211	3.69
400.418	3.9
400.625	4.06
400.831	4.17
401.038	4.08
401.245	3.99
401.452	3.97
401.658	4.15
401.865	4.14
402.072	4.03
402.279	4.32
402.485	4.14
402.692	4.17
402.899	4.03
403.105	3.97
403.312	4
403.519	4.03
403.725	4.07
403.932	4.18
404.138	4.28
404.345	4.28
404.552	4.22
404.758	4.31
404.965	4.19
405.171	4.07
405.378	3.99
405.584	4
405.791	3.99
405.997	3.84
406.204	3.83
406.41	3.84
406.617	3.82
406.823	3.67
407.029	3.72
407.236	3.92
407.442	4.14
407.649	4.2
407.855	4.06
408.061	4.12
408.268	4.06
408.474	3.9
408.68	3.88
408.887	3.94
409.093	3.93
409.299	3.98
409.505	3.82
409.712	3.65
409.918	3.51
410.124	3.56
410.33	3.6
410.537	3.72
410.743	3.81
410.949	3.93
411.155	3.83
411.361	3.91
411.567	3.79
411.773	3.79
411.98	3.92
412.186	3.84
412.392	3.83
412.598	3.77
412.804	3.83
413.01	3.73
413.216	3.51
413.422	3.58
413.628	3.7
413.834	3.61
414.04	3.53
414.246	3.41
414.452	3.51
414.658	3.68
414.864	3.77
415.07	3.72
415.275	3.96
415.481	4.1
415.687	4.12
415.893	4.03
416.099	4.19
416.305	4.35
416.511	4.38
416.716	4.42
416.922	4.36
417.128	4.34
417.334	4.34
417.539	4.24
417.745	4.38
417.951	4.43
418.157	4.4
418.362	4.41
418.568	4.44
418.774	4.47
418.979	4.45
419.185	4.49
419.391	4.41
419.596	4.39
419.802	4.36
420.008	4.31
420.213	4.25
420.419	4.24
420.624	4.22
420.83	4.15
421.035	4.16
421.241	4.13
421.446	4.12
421.652	4.17
421.857	4.17
422.063	4.18
422.268	4.11
422.474	4.09
422.679	4.11
422.885	4.07
423.09	4.05
423.295	4.06
423.501	4.13
423.706	4.12
423.911	4.1
424.117	4.14
424.322	4.12
424.527	4.14
424.733	4.14
424.938	4.16
425.143	4.18
425.349	4.2
425.554	4.17
425.759	4.1
425.964	4.13
426.169	4.19
426.375	4.17
426.58	4.2
426.785	4.19
426.99	4.2
427.195	4.13
427.4	4.13
427.605	4.02
427.811	4.02
428.016	4.03
428.221	4.03
428.426	3.86
428.631	3.84
428.836	3.8
429.041	3.71
429.246	3.64
429.451	3.79
429.656	3.83
429.861	3.9
430.066	3.85
430.271	4.01
430.476	3.95
430.681	4.14
430.886	4.08
431.09	4.18
431.295	4.27
431.5	4.26
431.705	4.26
431.91	4.24
432.115	4.35
432.32	4.39
432.524	4.27
432.729	4.25
432.934	4.27
433.139	4.3
433.343	4.18
433.548	4.17
433.753	4.26
433.958	4.19
434.162	4.14
434.367	4.14
434.572	4.14
434.776	4.14
434.981	4.1
435.186	4.04
435.39	4.06
435.595	4.17
435.799	4.17
436.004	4.18
436.209	4.17
436.413	4.2
436.618	4.17
436.822	4.14
437.027	4.15
437.231	4.17
437.436	4.12
437.64	4.17
437.845	4.16
438.049	4.18
438.253	4.12
438.458	4.19
438.662	4.24
438.867	4.17
439.071	4.11
439.275	4.19
439.48	4.24
439.684	4.19
439.888	4.21
440.093	4.14
440.297	4.03
440.501	4.06
440.706	4.04
440.91	3.97
441.114	3.98
441.318	4.04
441.523	3.94
441.727	3.9
441.931	3.91
442.135	3.85
442.339	3.8
442.543	3.88
442.748	3.91
442.952	3.89
443.156	4.01
443.36	4.05
443.564	4.05
443.768	4.02
443.972	4.01
444.176	4.06
444.38	4.13
444.584	4.21
444.788	4.24
444.992	4.24
445.196	4.27
445.4	4.18
445.604	4.14
445.808	4.19
446.012	4.31
446.216	4.35
446.42	4.34
446.624	4.23
446.828	4.15
447.032	4.15
447.235	4.16
447.439	4.09
447.643	4.08
447.847	4.09
448.051	4.06
448.254	3.97
448.458	3.92
448.662	3.92
448.866	3.96
449.069	4.08
449.273	4.01
449.477	4.04
449.681	3.99
449.884	4.02
450.088	4.03
450.292	4.05
450.495	4.08
450.699	4.1
450.902	4.06
451.106	4.07
451.31	4.01
451.513	4.02
451.717	3.97
451.92	4.06
452.124	4.1
452.327	4.12
452.531	4.14
452.734	4.13
452.938	4.17
453.141	4.12
453.345	4.24
453.548	4.29
453.752	4.27
453.955	4.21
454.158	4.16
454.362	4.05
454.565	4.04
454.769	4
454.972	4.01
455.175	3.94
455.379	3.97
455.582	3.81
455.785	3.78
455.988	3.79
456.192	3.79
456.395	3.77
456.598	3.8
456.801	3.73
457.005	3.77
457.208	3.77
457.411	3.76
457.614	3.84
457.817	3.92
458.021	3.91
458.224	3.92
458.427	3.93
458.63	4.02
458.833	4.07
459.036	4.09
459.239	4.03
459.442	4.04
459.645	4.12
459.848	4.04
460.051	4.01
460.254	3.91
460.457	3.91
460.66	3.95
460.863	3.81
461.066	3.73
461.269	3.73
461.472	3.76
461.675	3.7
461.878	3.74
462.081	3.69
462.284	3.69
462.486	3.8
462.689	3.86
462.892	3.77
463.095	3.85
463.298	3.91
463.5	3.81
463.703	3.67
463.906	3.67
464.109	3.51
464.311	3.6
464.514	3.66
464.717	3.81
464.92	3.66
465.122	3.73
465.325	3.7
465.528	3.76
465.73	3.85
465.933	3.93
466.135	3.88
466.338	3.93
466.541	3.96
466.743	3.9
466.946	3.83
467.148	3.93
467.351	3.84
467.553	3.9
467.756	3.84
467.958	3.87
468.161	3.89
468.363	3.86
468.566	3.77
468.768	3.79
468.971	3.73
469.173	3.72
469.375	3.68
469.578	3.71
469.78	3.75
469.983	3.74
470.185	3.77
470.387	3.79
470.59	3.88
470.792	3.95
470.994	3.86
471.196	3.91
471.399	3.98
471.601	4
471.803	4.04
472.005	4.08
472.208	4.17
472.41	4.11
472.612	4.07
472.814	4.09
473.016	4.21
473.218	4.24
473.421	4.3
473.623	4.16
473.825	4.15
474.027	4.17
474.229	4.09
474.431	4.01
474.633	4.02
474.835	3.99
475.037	3.99
475.239	3.88
475.441	3.89
475.643	3.89
475.845	3.89
476.047	3.92
476.249	3.88
476.451	3.92
476.653	3.93
476.855	3.96
477.057	3.94
477.258	4.02
477.46	4.12
477.662	4.14
477.864	4.12
478.066	4.17
478.268	4.16
478.469	4.24
478.671	4.21
478.873	4.23
479.075	4.21
479.276	4.31
479.478	4.2
479.68	4.11
479.882	4.13
480.083	4.11
480.285	4.14
480.487	4.15
480.688	4.14
480.89	4.09
481.091	4.13
481.293	4.16
481.495	4.13
481.696	4.15
481.898	4.21
482.099	4.19
482.301	4.2
482.502	4.18
482.704	4.18
482.905	4.14
483.107	4.14
483.308	4.12
483.51	4.12
483.711	4.11
483.913	4.12
484.114	4.09
484.315	4.09
484.517	4.08
484.718	4.05
484.92	4.04
485.121	4.06
485.322	4.09
485.524	4.1
485.725	4.13
485.926	4.17
486.127	4.15
486.329	4.16
486.53	4.19
486.731	4.2
486.932	4.23
487.134	4.23
487.335	4.19
487.536	4.16
487.737	4.14
487.938	4.11
488.139	4.09
488.341	4.11
488.542	4.1
488.743	4.03
488.944	4.01
489.145	3.98
489.346	3.98
489.547	4.01
489.748	4.09
489.949	4.1
490.15	4.09
490.351	4.08
490.552	4.08
490.753	4.1
490.954	4.15
491.155	4.17
491.356	4.17
491.557	4.21
491.758	4.22
491.959	4.17
492.159	4.16
492.36	4.2
492.561	4.24
492.762	4.21
492.963	4.15
493.164	4.17
493.364	4.2
493.565	4.18
493.766	4.08
493.967	4.08
494.167	4.06
494.368	4
494.569	4.04
494.769	4
494.97	4.12
495.171	4.21
495.371	4.2
495.572	4.18
495.773	4.26
495.973	4.34
496.174	4.4
496.375	4.44
496.575	4.53
496.776	4.51
496.976	4.54
497.177	4.51
497.377	4.51
497.578	4.51
497.778	4.46
497.979	4.44
498.179	4.47
498.38	4.44
498.58	4.45
498.78	4.49
498.981	4.41
499.181	4.47
499.382	4.53
499.582	4.54
499.782	4.57
499.983	4.62
500.183	4.64
500.383	4.67
500.584	4.71
500.784	4.78
500.984	4.82
501.184	4.91
501.385	4.85
501.585	4.74
501.785	4.78
501.985	4.86
502.185	4.9
502.386	4.89
502.586	4.9
502.786	4.93
502.986	4.9
503.186	4.89
503.386	4.87
503.586	4.92
503.786	4.87
503.987	4.88
504.187	4.89
504.387	5
504.587	5.1
504.787	5.12
504.987	5.18
505.187	5.24
505.387	5.32
505.587	5.38
505.786	5.44
505.986	5.71
506.186	5.8
506.386	5.87
506.586	5.89
506.786	5.99
506.986	6.04
507.186	6.14
507.386	6.26
507.585	6.29
507.785	6.33
507.985	6.35
508.185	6.33
508.384	6.32
508.584	6.27
508.784	6.38
508.984	6.41
509.183	6.43
509.383	6.4
509.583	6.36
509.782	6.38
509.982	6.41
510.182	6.41
510.381	6.45
510.581	6.43
510.781	6.55
510.98	6.57
511.18	6.63
511.379	6.63
511.579	6.7
511.778	6.76
511.978	6.83
512.177	6.95
512.377	7.07
512.576	7.11
512.776	7.27
512.975	7.35
513.175	7.35
513.374	7.44
513.573	7.61
513.773	7.61
513.972	7.7
514.172	7.74
514.371	7.88
514.57	7.93
514.77	8.05
514.969	8.17
515.168	8.25
515.367	8.34
515.567	8.39
515.766	8.43
515.965	8.53
516.164	8.67
516.364	8.74
516.563	8.8
516.762	8.86
516.961	8.94
517.16	9.02
517.359	9.12
517.559	9.2
517.758	9.25
517.957	9.24
518.156	9.39
518.355	9.43
518.554	9.5
518.753	9.48
518.952	9.55
519.151	9.62
519.35	9.66
519.549	9.69
519.748	9.75
519.947	9.78
520.146	9.94
520.345	10.04
520.544	10.13
520.743	10.24
520.942	10.36
521.141	10.5
521.339	10.6
521.538	10.8
521.737	10.91
521.936	11
522.135	11.25
522.333	11.33
522.532	11.47
522.731	11.64
522.93	11.78
523.129	12
523.327	12.08
523.526	12.23
523.725	12.25
523.923	12.35
524.122	12.44
524.321	12.47
524.519	12.62
524.718	12.61
524.917	12.72
525.115	12.82
525.314	12.88
525.512	12.98
525.711	13.04
525.909	13.12
526.108	13.26
526.306	13.4
526.505	13.5
526.703	13.64
526.902	13.76
527.1	13.84
527.299	13.93
527.497	14.03
527.696	14.12
527.894	14.23
528.092	14.33
528.291	14.38
528.489	14.43
528.688	14.49
528.886	14.53
529.084	14.6
529.283	14.67
529.481	14.75
529.679	14.81
529.877	14.87
530.076	14.93
530.274	15
530.472	15.1
530.67	15.23
530.869	15.34
531.067	15.46
531.265	15.6
531.463	15.73
531.661	15.83
531.859	15.93
532.057	16.05
532.255	16.19
532.454	16.33
532.652	16.46
532.85	16.52
533.048	16.63
533.246	16.77
533.444	16.87
533.642	16.92
533.84	16.99
534.038	17.11
534.236	17.25
534.434	17.34
534.632	17.41
534.83	17.51
535.027	17.65
535.225	17.71
535.423	17.71
535.621	17.78
535.819	17.92
536.017	18.04
536.215	18.19
536.412	18.2
536.61	18.29
536.808	18.39
537.006	18.42
537.203	18.53
537.401	18.69
537.599	18.8
537.797	18.82
537.994	18.91
538.192	18.97
538.39	19.04
538.587	19.23
538.785	19.42
538.983	19.52
539.18	19.68
539.378	19.76
539.575	19.93
539.773	20.14
539.97	20.38
540.168	20.47
540.366	20.61
540.563	20.68
540.761	20.75
540.958	20.79
541.155	20.89
541.353	21
541.55	21.08
541.748	21.1
541.945	21.1
542.143	21.17
542.34	21.24
542.537	21.29
542.735	21.38
542.932	21.5
543.129	21.59
543.327	21.7
543.524	21.8
543.721	21.94
543.919	22.1
544.116	22.29
544.313	22.39
544.51	22.64
544.708	22.83
544.905	22.95
545.102	23.01
545.299	23.19
545.496	23.3
545.693	23.37
545.891	23.43
546.088	23.51
546.285	23.6
546.482	23.68
546.679	23.62
546.876	23.67
547.073	23.69
547.27	23.68
547.467	23.65
547.664	23.64
547.861	23.66
548.058	23.8
548.255	23.73
548.452	23.72
548.649	23.73
548.846	23.8
549.043	23.82
549.24	23.98
549.437	24.14
549.633	24.19
549.83	24.34
550.027	24.43
550.224	24.45
550.421	24.65
550.618	24.64
550.814	24.64
551.011	24.61
551.208	24.66
551.405	24.77
551.601	24.72
551.798	24.71
551.995	24.58
552.191	24.54
552.388	24.57
552.585	24.55
552.781	24.61
552.978	24.68
553.175	24.82
553.371	24.93
553.568	24.94
553.764	25.03
553.961	25.23
554.157	25.44
554.354	25.6
554.55	25.58
554.747	25.72
554.943	25.79
555.14	25.84
555.336	25.85
555.533	25.85
555.729	25.81
555.926	25.91
556.122	25.89
556.318	25.68
556.515	25.73
556.711	25.8
556.907	25.83
557.104	25.94
557.3	25.99
557.496	26.02
557.693	26.09
557.889	26.2
558.085	26.27
558.281	26.3
558.478	26.54
558.674	26.49
558.87	26.63
559.066	26.63
559.262	26.53
559.459	26.58
559.655	26.62
559.851	26.63
560.047	26.66
560.243	26.67
560.439	26.64
560.635	26.78
560.831	26.86
561.027	26.92
561.223	26.85
561.419	27
561.615	27.16
561.811	27.21
562.007	27.28
562.203	27.33
562.399	27.32
562.595	27.41
562.791	27.32
562.987	27.37
563.183	27.3
563.379	27.57
563.575	27.62
563.771	27.61
563.966	27.71
564.162	27.83
564.358	27.88
564.554	28.03
564.75	28.09
564.945	28.22
565.141	28.32
565.337	28.42
565.533	28.4
565.728	28.54
565.924	28.51
566.12	28.47
566.315	28.47
566.511	28.46
566.707	28.39
566.902	28.44
567.098	28.44
567.293	28.35
567.489	28.35
567.684	28.39
567.88	28.26
568.076	28.36
568.271	28.46
568.467	28.47
568.662	28.54
568.858	28.71
569.053	28.78
569.248	28.89
569.444	29.02
569.639	28.98
569.835	29.08
570.03	29.17
570.225	29.26
570.421	29.3
570.616	29.37
570.812	29.43
571.007	29.43
571.202	29.61
571.397	29.65
571.593	29.65
571.788	29.72
571.983	29.72
572.178	29.86
572.374	29.76
572.569	29.86
572.764	29.88
572.959	29.99
573.154	29.94
573.35	29.87
573.545	29.82
573.74	29.83
573.935	29.92
574.13	29.97
574.325	29.91
574.52	30.11
574.715	30.04
574.91	30.13
575.105	30.21
575.3	30.31
575.495	30.39
575.69	30.43
575.885	30.53
576.08	30.64
576.275	30.65
576.47	30.71
576.665	30.71
576.86	30.85
577.055	30.88
577.25	30.87
577.444	30.83
577.639	30.88
577.834	30.95
578.029	30.99
578.224	30.86
578.418	30.94
578.613	31.18
578.808	31.23
579.003	31.29
579.197	31.32
579.392	31.29
579.587	31.44
579.781	31.55
579.976	31.66
580.171	31.71
580.365	31.87
580.56	31.89
580.755	31.7
580.949	31.71
581.144	31.73
581.338	31.78
581.533	31.9
581.727	31.99
581.922	31.94
582.116	31.91
582.311	31.93
582.505	31.97
582.7	32.02
582.894	32.02
583.089	32.21
583.283	32.29
583.478	32.17
583.672	32.2
583.866	32.1
584.061	32.15
584.255	32.29
584.449	32.43
584.644	32.59
584.838	32.63
585.032	32.71
585.226	32.68
585.421	32.74
585.615	32.9
585.809	33.01
586.003	33.09
586.198	32.96
586.392	32.95
586.586	32.95
586.78	32.93
586.974	32.93
587.168	32.99
587.363	33.06
587.557	32.99
587.751	33.08
587.945	32.99
588.139	33.08
588.333	33.23
588.527	33.17
588.721	33.14
588.915	32.96
589.109	32.94
589.303	32.99
589.497	32.82
589.691	32.75
589.885	32.7
590.079	32.75
590.273	32.66
590.466	32.66
590.66	32.76
590.854	32.86
591.048	33.11
591.242	33.25
591.436	33.35
591.629	33.5
591.823	33.6
592.017	33.54
592.211	33.61
592.404	33.72
592.598	33.74
592.792	33.7
592.986	33.71
593.179	33.77
593.373	33.68
593.567	33.6
593.76	33.58
593.954	33.62
594.147	33.7
594.341	33.61
594.535	33.61
594.728	33.56
594.922	33.64
595.115	33.46
595.309	33.29
595.502	33.31
595.696	33.33
595.889	33.32
596.083	33.28
596.276	33.5
596.47	33.63
596.663	33.66
596.856	33.69
597.05	33.72
597.243	33.85
597.437	33.82
597.63	33.92
597.823	33.94
598.017	33.94
598.21	34.07
598.403	33.95
598.596	33.89
598.79	33.77
598.983	33.94
599.176	34.04
599.369	34.06
599.563	34.2
599.756	34.2
599.949	34.25
600.142	34.32
600.335	34.22
600.528	34.2
600.722	34.13
600.915	34.33
601.108	34.27
601.301	34.11
601.494	34.04
601.687	34.07
601.88	33.97
602.073	34.05
602.266	34.13
602.459	34.26
602.652	34.2
602.845	34.25
603.038	34.27
603.231	34.2
603.424	34.27
603.617	34.47
603.809	34.46
604.002	34.55
604.195	34.43
604.388	34.47
604.581	34.45
604.774	34.45
604.966	34.41
605.159	34.38
605.352	34.34
605.545	34.36
605.737	34.25
605.93	34.28
606.123	34.31
606.316	34.37
606.508	34.32
606.701	34.37
606.894	34.6
607.086	34.76
607.279	34.96
607.471	35.21
607.664	35.28
607.857	35.44
608.049	35.64
608.242	35.92
608.434	36.41
608.627	36.85
608.819	37.45
609.012	38
609.204	38.59
609.397	39.01
609.589	39.61
609.782	40.55
609.974	41.33
610.166	42.1
610.359	42.97
610.551	43.44
610.743	44.06
610.936	44.28
611.128	44.49
611.32	44.72
611.513	45.01
611.705	45.11
611.897	44.77
612.09	44.61
612.282	44.26
612.474	43.73
612.666	43.41
612.858	42.91
613.051	42.7
613.243	42.3
613.435	41.83
613.627	41.41
613.819	41.13
614.011	40.77
614.203	40.39
614.395	39.96
614.588	39.72
614.78	39.36
614.972	38.99
615.164	38.62
615.356	38.44
615.548	38.27
615.74	38.06
615.932	37.77
616.124	37.7
616.315	37.57
616.507	37.5
616.699	37.23
616.891	37.11
617.083	36.96
617.275	36.96
617.467	36.77
617.659	36.67
617.85	36.6
618.042	36.55
618.234	36.41
618.426	36.28
618.618	36.23
618.809	36.13
619.001	36.07
619.193	36.37
619.384	36.14
619.576	36.11
619.768	36.08
619.959	36.05
620.151	36.1
620.343	36.17
620.534	36.19
620.726	36.4
620.917	36.58
621.109	36.66
621.301	36.42
621.492	36.69
621.684	36.76
621.875	36.99
622.067	36.85
622.258	36.92
622.45	36.85
622.641	36.82
622.832	36.73
623.024	36.55
623.215	36.64
623.407	36.8
623.598	36.82
623.789	36.89
623.981	36.85
624.172	37.21
624.363	37.19
624.555	37.12
624.746	37.22
624.937	37.15
625.129	37.34
625.32	37.22
625.511	37.12
625.702	37.15
625.893	37.25
626.085	37.16
626.276	36.95
626.467	36.91
626.658	37.02
626.849	37.07
627.04	37.25
627.231	37.17
627.422	37.31
627.614	37.28
627.805	37.17
627.996	36.93
628.187	37.05
628.378	37.23
628.569	37.39
628.76	37.32
628.951	37.36
629.142	37.39
629.332	37.49
629.523	37.5
629.714	37.62
629.905	37.76
630.096	37.91
630.287	37.81
630.478	37.76
630.669	37.71
630.859	37.8
631.05	37.63
631.241	37.56
631.432	37.45
631.623	37.33
631.813	37.36
632.004	37.28
632.195	37.3
632.385	37.34
632.576	37.08
632.767	36.92
632.957	36.85
633.148	36.83
633.339	36.73
633.529	36.71
633.72	36.56
633.91	36.37
634.101	36.26
634.292	36.25
634.482	36.17
634.673	36.21
634.863	36.15
635.054	35.98
635.244	35.87
635.435	35.79
635.625	35.64
635.815	35.77
636.006	35.76
636.196	35.7
636.387	35.5
636.577	35.56
636.767	35.59
636.958	35.54
637.148	35.75
637.338	35.95
637.529	35.97
637.719	36.17
637.909	36.09
638.099	36.01
638.29	36.06
638.48	36.13
638.67	36.18
638.86	36.07
639.05	36.13
639.241	36.08
639.431	36.04
639.621	36.17
639.811	36.22
640.001	36.4
640.191	36.56
640.381	36.68
640.571	36.86
640.761	36.71
640.951	36.97
641.141	36.9
641.331	36.9
641.521	36.75
641.711	36.75
641.901	36.86
642.091	36.72
642.281	36.51
642.471	36.43
642.661	36.38
642.851	36.23
643.041	36.24
643.231	36.32
643.42	36.39
643.61	36.76
643.8	36.72
643.99	36.25
644.18	36.23
644.369	36.46
644.559	36.39
644.749	36.24
644.939	36.34
645.128	36.31
645.318	36.36
645.508	36.52
645.697	36.24
645.887	36.16
646.076	36.46
646.266	36.77
646.456	36.65
646.645	36.84
646.835	36.99
647.024	37.22
647.214	37.28
647.403	37.06
647.593	36.94
647.782	37.04
647.972	37.3
648.161	37.14
648.351	37
648.54	37.15
648.73	37.21
648.919	37.28
649.108	37.15
649.298	37.18
649.487	37.7
649.677	37.65
649.866	37.81
650.055	37.73
650.244	37.88
650.434	37.86
650.623	37.94
650.812	37.92
651.002	38.02
651.191	38.05
651.38	38.09
651.569	37.94
651.758	37.88
651.947	37.74
652.137	37.73
652.326	37.62
652.515	37.44
652.704	37.4
652.893	37.18
653.082	36.93
653.271	37.23
653.46	37.15
653.649	36.95
653.838	36.84
654.027	36.63
654.216	36.42
654.405	36.55
654.594	36.79
654.783	36.85
654.972	36.98
655.161	36.91
655.35	36.52
655.539	36.65
655.728	36.94
655.916	37.18
656.105	37.69
656.294	37.77
656.483	37.82
656.672	37.7
656.86	37.63
657.049	37.63
657.238	37.79
657.427	38
657.615	37.69
657.804	37.59
657.993	37.6
658.181	37.55
658.37	37.65
658.559	37.45
658.747	37.49
658.936	37.37
659.125	37.04
659.313	37.05
659.502	36.97
659.69	37.14
659.879	37.07
660.067	37.15
660.256	36.89
660.444	36.95
660.633	37.13
660.821	37.25
661.01	37.32
661.198	37.81
661.387	37.66
661.575	37.7
661.763	37.47
661.952	37.48
662.14	37.31
662.328	37.53
662.517	37.49
662.705	37.56
662.893	37.49
663.082	37.67
663.27	37.53
663.458	37.6
663.646	37.61
663.834	37.85
664.023	37.88
664.211	38.12
664.399	38
664.587	37.81
664.775	37.74
664.963	37.72
665.152	37.52
665.34	37.44
665.528	37.72
665.716	37.52
665.904	37.46
666.092	37.53
666.28	37.34
666.468	37.36
666.656	37.51
666.844	37.56
667.032	37.75
667.22	37.74
667.408	38.16
667.596	37.94
667.784	37.96
667.971	38.07
668.159	37.9
668.347	38.04
668.535	37.97
668.723	37.88
668.911	37.77
669.098	37.65
669.286	37.54
669.474	37.21
669.662	37.06
669.849	37.35
670.037	37.2
670.225	37.39
670.413	37.14
670.6	37.26
670.788	37.28
670.976	37.24
671.163	37.32
671.351	37.25
671.538	37.25
671.726	37.26
671.913	37.09
672.101	37.19
672.289	37.28
672.476	37.32
672.664	37.24
672.851	37.24
673.039	37.08
673.226	37.04
673.413	37.28
673.601	37.21
673.788	37.54
673.976	37.29
674.163	37.25
674.35	36.97
674.538	36.99
674.725	36.97
674.912	37.11
675.1	37.25
675.287	37.05
675.474	36.84
675.662	36.91
675.849	36.75
676.036	36.91
676.223	37.06
676.411	37.37
676.598	37.42
676.785	37.64
676.972	37.46
677.159	37.72
677.346	37.93
677.533	38.13
677.721	38.26
677.908	38.36
678.095	38.51
678.282	38.33
678.469	38.31
678.656	38.22
678.843	37.98
679.03	38
679.217	37.87
679.404	38.05
679.591	37.97
679.778	37.83
679.964	37.81
680.151	37.77
680.338	37.77
680.525	37.8
680.712	37.86
680.899	37.98
681.086	38.13
681.272	38.24
681.459	37.92
681.646	38
681.833	38.02
682.02	38.06
682.206	37.87
682.393	38.15
682.58	38.01
682.766	38.19
682.953	38.18
683.14	38.31
683.326	38.12
683.513	37.98
683.7	38.16
683.886	38.33
684.073	38.34
684.259	38.62
684.446	38.63
684.632	38.76
684.819	38.6
685.005	38.76
685.192	38.66
685.378	38.68
685.565	39.01
685.751	39.04
685.938	38.91
686.124	38.86
686.31	38.87
686.497	38.57
686.683	38.49
686.87	38.52
687.056	38.26
687.242	38.12
687.429	38.15
687.615	38.04
687.801	37.9
687.987	37.87
688.174	37.97
688.36	37.87
688.546	38.19
688.732	38.01
688.918	37.91
689.105	37.95
689.291	37.84
689.477	37.99
689.663	38.07
689.849	37.69
690.035	38.14
690.221	38.15
690.407	38.45
690.593	38.1
690.779	38.17
690.965	38.31
691.151	38.25
691.337	38.37
691.523	38.29
691.709	38.57
691.895	38.78
692.081	38.55
692.267	38.31
692.453	38.22
692.639	38.44
692.825	38.5
693.011	38.52
693.196	38.71
693.382	38.66
693.568	38.77
693.754	38.38
693.94	38.45
694.125	38.48
694.311	38.96
694.497	38.92
694.682	38.83
694.868	38.85
695.054	38.56
695.239	38.79
695.425	38.92
695.611	38.86
695.796	39.14
695.982	39.14
696.168	38.76
696.353	38.6
696.539	38.51
696.724	38.63
696.91	38.61
697.095	38.93
697.281	38.84
697.466	38.83
697.652	38.59
697.837	38.45
698.023	38.62
698.208	38.83
698.393	38.74
698.579	38.97
698.764	38.94
698.949	38.84
699.135	38.45
699.32	38.27
699.505	38.24
699.691	38.51
699.876	38.41
700.061	38.36
700.246	38.53
700.432	38.62
700.617	38.31
700.802	38.43
700.987	38.45
701.172	39.25
701.358	39.45
701.543	39.43
701.728	39.28
701.913	39.45
702.098	39.4
702.283	39.05
702.468	38.98
702.653	39
702.838	38.84
703.023	38.95
703.208	38.06
703.393	37.87
703.578	38.15
703.763	38.2
703.948	38.34
704.133	38.39
704.318	38.6
704.503	38.41
704.688	38.36
704.873	38.76
705.057	39.02
705.242	39.49
705.427	39.65
705.612	39.88
705.797	40.08
705.981	40.13
706.166	40.71
706.351	40.54
706.536	41.11
706.72	41.36
706.905	41.16
707.09	41.2
707.274	41.8
707.459	41.92
707.644	41.73
707.828	41.86
708.013	41.8
708.197	41.57
708.382	41.84
708.567	41.22
708.751	41.23
708.936	40.98
709.12	41.04
709.305	40.62
709.489	40.64
709.673	40.5
709.858	40.29
710.042	40.29
710.227	40.04
710.411	39.82
710.596	40.14
710.78	39.9
710.964	40.13
711.149	39.72
711.333	39.75
711.517	39.45
711.702	39.41
711.886	39.46
712.07	39.52
712.254	39.31
712.438	39.48
712.623	39.48
712.807	39.26
712.991	38.8
713.175	38.75
713.359	38.57
713.544	38.49
713.728	38.53
713.912	38.25
714.096	38.2
714.28	38.25
714.464	37.96
714.648	37.9
714.832	37.97
715.016	38.08
715.2	38.13
715.384	38.04
715.568	38.23
715.752	38.21
715.936	38.01
716.12	37.86
716.304	37.75
716.488	37.95
716.671	37.62
716.855	37.64
717.039	37.83
717.223	37.83
717.407	37.44
717.59	37.62
717.774	37.6
717.958	37.91
718.142	37.43
718.325	37.4
718.509	37.06
718.693	37.06
718.877	36.98
719.06	36.86
719.244	36.73
719.428	37.2
719.611	36.92
719.795	36.62
719.978	36.62
720.162	36.68
720.345	36.95
720.529	37.08
720.713	37.67
720.896	38.19
721.08	38.06
721.263	37.52
721.446	37.37
721.63	37.23
721.813	37.16
721.997	37.04
722.18	37.13
722.364	36.83
722.547	36.78
722.73	36.12
722.914	35.9
723.097	36.17
723.28	36.94
723.464	36.95
723.647	36.77
723.83	36.71
724.013	36.79
724.197	36.84
724.38	36.7
724.563	37.12
724.746	37.25
724.929	37.24
725.112	37.22
725.296	36.9
725.479	37.12
725.662	37.3
725.845	37.8
726.028	37.82
726.211	38.27
726.394	38.73
726.577	38.1
726.76	38.23
726.943	38.11
727.126	37.76
727.309	37.62
727.492	37.58
727.675	37.28
727.858	36.87
728.041	36.94
728.224	36.94
728.407	36.66
728.589	36.67
728.772	36.66
728.955	36.59
729.138	36.84
729.321	37.41
729.503	37.09
729.686	37.54
729.869	37.78
730.052	37.67
730.234	37.65
730.417	37.8
730.6	38.19
730.782	38
730.965	37.89
731.148	37.97
731.33	37.68
731.513	38.4
731.695	38.43
731.878	38.45
732.061	38.72
732.243	38.44
732.426	38.77
732.608	38.61
732.791	38.6
732.973	38.58
733.156	38.46
733.338	38.41
733.52	38.15
733.703	38.11
733.885	37.96
734.068	38.04
734.25	38.16
734.432	37.65
734.615	37.77
734.797	38.12
734.979	38.31
735.162	38.35
735.344	38.68
735.526	38.29
735.708	38.21
735.891	38.03
736.073	37.58
736.255	37.34
736.437	37.45
736.619	37.26
736.802	37.03
736.984	36.89
737.166	36.88
737.348	36.51
737.53	36.85
737.712	36.75
737.894	37.77
738.076	37.75
738.258	38.42
738.44	38.36
738.622	38.93
738.804	38.99
738.986	38.93
739.168	38.79
739.35	38.71
739.532	38.94
739.714	38.9
739.896	37.97
740.078	38.08
740.259	37.49
740.441	37.53
740.623	36.94
740.805	36.91
740.987	37.49
741.168	37.38
741.35	37.25
741.532	36.56
741.714	35.82
741.895	35.7
742.077	35.89
742.259	35.98
742.44	35.97
742.622	35.97
742.804	36.08
742.985	35.99
743.167	36.37
743.348	37.03
743.53	37.58
743.711	38.24
743.893	38.24
744.075	38.2
744.256	38.09
744.438	37.96
744.619	38.24
744.8	38.31
744.982	37.85
745.163	37.4
745.345	37.49
745.526	37.52
745.707	37.72
745.889	38.3
746.07	37.74
746.252	38.24
746.433	38.26
746.614	38
746.795	37.87
746.977	38.02
747.158	38.21
747.339	37.63
747.52	37.45
747.702	37.01
747.883	36.38
748.064	36.96
748.245	36.16
748.426	36.63
748.607	36.8
748.788	36.91
748.97	37.07
749.151	36.82
749.332	37.41
749.513	37.09
749.694	37.17
749.875	37.38
750.056	37.28
750.237	38.18
750.418	37.84
750.599	38.23
750.78	38.09
750.96	37.66
751.141	37.74
751.322	37.25
751.503	37.67
751.684	37.87
751.865	37.99
752.046	37.58
752.226	37.37
752.407	37.76
752.588	36.97
752.769	37.66
752.949	37.64
753.13	38.12
753.311	38.43
753.492	37.87
753.672	38.3
753.853	38.41
754.034	38.98
754.214	38.85
754.395	37.9
754.575	38.36
754.756	37.69
754.937	38.13
755.117	37.9
755.298	37.9
755.478	38.42
755.659	38.3
755.839	38.56
756.02	37.74
756.2	37.72
756.381	38.13
756.561	37.93
756.741	37.85
756.922	37.91
757.102	37.52
757.283	37.08
757.463	36.89
757.643	37.09
757.823	36.72
758.004	37.01
758.184	36.99
758.364	36.59
758.545	37.14
758.725	37.38
758.905	36.99
759.085	36.91
759.265	36.65
759.446	36.68
759.626	36.7
759.806	36.5
759.986	37.04
760.166	36.82
760.346	36.83
760.526	36.12
760.706	36.2
760.886	36.06
761.066	36.62
761.246	36.97
761.426	37.11
761.606	36.74
761.786	36.98
761.966	36.99
762.146	37.43
762.326	38.06
762.506	38.05
762.686	37.78
762.866	37.85
763.046	37.3
763.225	37.66
763.405	37.67
763.585	37.68
763.765	37.91
763.945	37.34
764.124	36.93
764.304	36.64
764.484	36.7
764.664	36.92
764.843	37.24
765.023	37.61
765.203	37.29
765.382	36.84
765.562	36.45
765.741	35.78
765.921	36.37
766.101	36.97
766.28	36.49
766.46	36.45
766.639	36.16
766.819	35.87
766.998	36.08
767.178	35.75
767.357	36.47
767.537	36.68
767.716	37.3
767.896	36.91
768.075	36.71
768.254	37.28
768.434	37.92
768.613	38.27
768.792	37.69
768.972	37.42
769.151	37.65
769.33	37.44
769.51	37.59
769.689	37.51
769.868	37.65
770.047	37.2
770.226	37.48
770.406	37.1
770.585	36.6
770.764	37.49
770.943	37.06
771.122	37.53
771.301	36.88
771.48	36.93
771.66	36.6
771.839	37.13
772.018	36.1
772.197	36.01
772.376	35.36
772.555	35.71
772.734	35.82
772.913	36.16
773.092	36.02
773.271	35.86
773.449	36.07
773.628	35.7
773.807	35.42
773.986	36.77
774.165	36.07
774.344	36.71
774.523	36.51
774.701	36.17
774.88	36.13
775.059	35.99
775.238	36.4
775.417	36.36
775.595	36.76
775.774	36.28
775.953	36.6
776.131	37.34
776.31	36.69
776.489	36.6
776.667	36.39
776.846	36.21
777.025	36.17
777.203	36.1
777.382	36.96
777.56	36.76
777.739	36.76
777.917	35.94
778.096	34.52
778.274	35.08
778.453	35.16
778.631	35.12
778.81	34.62
778.988	34.72
779.166	34.95
779.345	34.51
779.523	34.2
779.702	34.56
779.88	34.27
780.058	36.32
780.237	36.08
780.415	36.34
780.593	37.04
780.771	37.27
780.95	37.73
781.128	37.77
781.306	37.5
781.484	37.77
781.662	37.01
781.841	38.1
782.019	37.02
782.197	37.54
782.375	37.07
782.553	35.59
782.731	36.05
782.909	35.88
783.087	35.58
783.265	35.65
783.443	35.74
783.621	36.22
783.799	35.45
783.977	35.72
784.155	35.24
784.333	35.54
784.511	36.32
784.689	35.57
784.867	34.93
785.045	35.17
785.223	35.78
785.4	36.23
785.578	36.24
785.756	35.9
785.934	36.22
786.112	35.59
786.289	36.26
786.467	35.83
786.645	37.23
786.823	37.76
787	37.13
787.178	36.01
787.356	36.71
787.533	35.75
787.711	36.12
787.889	35.45
788.066	35.48
788.244	33.93
788.421	33.98
788.599	32.96
788.776	31.83
788.954	32.8
789.131	33.44
789.309	32.4
789.486	35.03
789.664	35.22
789.841	35.47
790.019	36.36
790.196	36.58
790.373	36.07
790.551	36.52
790.728	36.22
790.906	36.26
791.083	35.11
791.26	35.85
791.437	34.33
791.615	33.47
791.792	33.05
791.969	32.55
792.146	33.13
792.324	35.12
792.501	34.97
792.678	36.17
792.855	35.32
793.032	35.79
793.209	35.66
793.387	35.53
793.564	37.33
793.741	38.03
793.918	37.77
794.095	37.6
794.272	36.36
794.449	36.64
794.626	37.77
794.803	38.12
794.98	38.57
795.157	37.67
795.334	37.72
795.511	36.71
795.688	37.03
795.864	37.16
796.041	36.67
796.218	36.82
796.395	36.24
796.572	35.45
796.749	35.33
796.925	34.45
797.102	34.96
797.279	34.95
797.456	34.71
797.632	33.69
797.809	33.86
797.986	34.57
798.162	34.82
798.339	34.86
798.516	34.82
798.692	34.5
798.869	35.16
799.046	35.17
799.222	34.04
799.399	34.75
799.575	34.57
799.752	35.49
799.928	35.42
800.105	35.33
800.281	34.84
800.458	34.54
800.634	34.26
800.811	34.19
800.987	33.33
801.163	33.96
801.34	33.84
801.516	34.54
801.692	33.35
801.869	33.4
802.045	32.98
802.221	33.63
802.398	33.16
802.574	32.86
802.75	32.26
802.926	32.79
803.103	32.96
803.279	32.16
803.455	31.74
803.631	32.41
803.807	32.31
803.983	33.29
804.16	33.8
804.336	34.52
804.512	34.75
804.688	35.24
804.864	35.76
805.04	36.46
805.216	37.17
805.392	36.52
805.568	36.02
805.744	35.15
805.92	33.99
806.096	33.64
806.272	32.41
806.448	33.86
806.623	33.66
806.799	34.05
806.975	32.62
807.151	33.4
807.327	34.67
807.503	35.52
807.678	36.7
807.854	37.99
808.03	38.25
808.206	39.28
808.381	38.24
808.557	38.91
808.733	37.56
808.908	37.95
809.084	37.57
809.26	38.21
809.435	37.53
809.611	36.28
809.787	35.4
809.962	36.38
810.138	35.14
810.313	35.02
810.489	33.3
810.664	32.69
810.84	31.96
811.015	30.1
811.191	29.02
811.366	29.29
811.542	29.19
811.717	28.82
811.892	27.55
812.068	28.47
812.243	28.39
812.419	29.07
812.594	29.83
812.769	30.13
812.944	32.38
813.12	31.53
813.295	30.51
813.47	30.45
813.645	30.19
813.821	30.64
813.996	30.65
814.171	30.34
814.346	32.33
814.521	32.97
814.697	33.85
814.872	32.28
815.047	32.65
815.222	32.91
815.397	33.23
815.572	33.64
815.747	33.17
815.922	33.32
816.097	33.73
816.272	32.1
816.447	32.29
816.622	32.58
816.797	34.13
816.972	32.75
817.147	33.05
817.322	32.24
817.496	31.98
817.671	32.02
817.846	32.17
818.021	32.76
818.196	31.73
818.371	31.19
818.545	29.42
818.72	29.57
818.895	31.34
819.069	31.24
819.244	32.27
819.419	32.8
819.594	33.48
819.768	33.38
819.943	33.64
820.117	34.41
820.292	34.68
820.467	35.63
820.641	35.45
820.816	35.59
820.99	36.2
821.165	36.04
821.339	35.5
821.514	35.48
821.688	35.56
821.863	35.21
822.037	35.34
822.212	35.5
822.386	35.21
822.56	35.3
822.735	35.3
822.909	35.15
823.084	34.99
823.258	35.16
823.432	34.95
823.606	34.76
823.781	34.92
823.955	34.74
824.129	34.28
824.303	34.53
824.478	34.36
824.652	33.95
824.826	33.81
825	33.83
825.174	33.99
825.348	34.05
825.523	33.94
825.697	33.56
825.871	33.21
826.045	33.58
826.219	33.11
826.393	32.75
826.567	32.94
826.741	32.57
826.915	32.8
827.089	32.66
827.263	32.5
827.437	32.84
827.611	33.37
827.784	33.45
827.958	33.25
828.132	33.39
828.306	33.37
828.48	33.29
828.654	33.43
828.827	33.21
829.001	32.77
829.175	32.78
829.349	32.34
829.522	31.95
829.696	32.21
829.87	32.52
830.044	32.62
830.217	33.04
830.391	33.09
830.565	33.08
830.738	33.31
830.912	33.94
831.085	33.33
831.259	33.4
831.432	32.59
831.606	31.82
831.779	31.43
831.953	31.87
832.126	31.06
832.3	31.8
832.473	32.22
832.647	32.8
832.82	33.09
832.994	33.41
833.167	33.58
833.34	33.85
833.514	34.26
833.687	34.65
833.86	34.39
834.034	34.87
834.207	34.22
834.38	34.03
834.553	33.55
834.727	33.22
834.9	34.29
835.073	34.74
835.246	34.87
835.419	35.3
835.593	34.69
835.766	35.83
835.939	35.54
836.112	36.15
836.285	36.98
836.458	37.8
836.631	38.74
836.804	38.85
836.977	38.19
837.15	37.8
837.323	37.64
837.496	38.86
837.669	35.04
837.842	34.8
838.015	33.39
838.188	30.46
838.361	29.08
838.533	27.16
838.706	25.01
838.879	26.23
839.052	26.73
839.225	25.55
839.398	23.85
839.57	26.48
839.743	26.7
839.916	27.05
840.088	29.87
840.261	30.92
840.434	32.15
840.607	32.5
840.779	31.62
840.952	31.79
841.124	31.19
841.297	33.37
841.47	32.85
841.642	34.52
841.815	35.17
841.987	33.35
842.16	32.63
842.332	33.18
842.505	31.45
842.677	30.64
842.85	29.22
843.022	29.94
843.194	28.8
843.367	28.46
843.539	24.83
843.712	24.06
843.884	23.14
844.056	23.82
844.229	24.85
844.401	27.02
844.573	29.35
844.745	29.1
844.918	28.47
845.09	26.72
845.262	26.12
845.434	28.73
845.606	29.56
845.779	31.72
845.951	32.54
846.123	28.02
846.295	29.4
846.467	24.62
846.639	27.74
846.811	30.97
846.983	33.2
847.155	34.16
847.327	32.19
847.499	33.61
847.671	31.31
847.843	30.08
848.015	33.88
848.187	32.46
848.359	36.93
848.531	30.74
848.703	27.48
848.875	23.4
849.047	22.45
849.218	22.63
849.39	21.23
849.562	17.71
849.734	19.61
849.905	15.88
850.077	14.2
850.249	13.09
850.421	13.86
850.592	18.65
850.764	20.21
850.936	21.18
851.107	21.97
851.279	25.24
851.451	29.77
851.622	23.55
851.794	24.35
851.965	24.4
852.137	24.38
852.308	29
852.48	28.74
852.651	29.36
852.823	30.92
852.994	28.9
853.166	24.14
853.337	24.7
853.509	29.3
853.68	28.18
853.851	27.14
854.023	25.44
854.194	24.5
854.365	25.19
854.537	24.04
854.708	19.5
854.879	22.32
855.05	24.89
855.222	27.36
855.393	24.88
855.564	27.45
855.735	27.23
855.906	27.47
856.078	26.61
856.249	20.84
856.42	20.34
856.591	22.15
856.762	24.32
856.933	23.28
857.104	21.76
857.275	26.5
857.446	25.34
857.617	27.22
857.788	30.31
857.959	27.47
858.13	31.11
858.301	35.31
858.472	38.48
858.643	34.29
858.814	34.87
858.985	35.1
859.155	33.94
859.326	33.14
859.497	35.88
859.668	34.34
859.839	34.9
860.009	33.57
860.18	32.24
860.351	30.47
860.522	32.65
860.692	29.89
860.863	28.27
861.034	27.25
861.204	26.07
861.375	21.25
861.546	18.34
861.716	21.44
861.887	24.15
862.057	24.62
862.228	25.02
862.398	23.26
862.569	25.13
862.739	23.1
862.91	19.56
863.08	25.11
863.251	29.9
863.421	33.18
863.592	35.22
863.762	37.69
863.932	37.11
864.103	38.13
864.273	40.87
864.443	43.43
864.614	48.08
864.784	49.42
864.954	45.94
865.125	42.4
865.295	40.5
865.465	38.7
865.635	33.32
865.805	33.51
865.976	32.01
866.146	36.48
866.316	34.32
866.486	28.67
866.656	33.78
866.826	32
866.996	27.08
867.166	25.8
867.336	26.37
867.506	28.16
867.676	25.04
867.846	25.53
868.016	18.4
868.186	16.96
868.356	21.07
868.526	20.22
868.696	22.98
868.866	30.01
869.036	29.5
869.206	28.65
869.376	28.8
869.545	30.96
869.715	28.01
869.885	30.16
870.055	31.84
870.224	30.94
870.394	26.05
870.564	27.4
870.734	28.56
870.903	30.99
871.073	31.39
871.243	30.02
871.412	29.16
871.582	29.66
871.751	25.82
871.921	25.59
872.091	24.56
872.26	26.83
872.43	24.52
872.599	21.6
872.769	21.98
872.938	23.55
873.108	25.22
873.277	26.13
873.446	27.35
873.616	31.7
873.785	33.51
873.955	34.15
874.124	33.74
874.293	31.54
874.463	32.31
874.632	31.41
874.801	29.67
874.971	29.6
875.14	30.88
875.309	27.29
875.478	25.03
875.647	18.76
875.817	21.32
875.986	27.9
876.155	28.34
876.324	25.86
876.493	30.08
876.662	29.35
876.831	27.36
877	25.59
877.17	28.36
877.339	30.01
877.508	31.78
877.677	28.81
877.846	26.7
878.015	27.16
878.184	27.98
878.352	25.4
878.521	27.91
878.69	27.38
878.859	28.64
879.028	29.31
879.197	30.86
879.366	32.11
879.534	35.63
879.703	35.08
879.872	34.49
880.041	34.96
880.21	35.21
880.378	32.38
880.547	33.07
880.716	32.21
880.884	32.22
881.053	31.42
881.222	31.61
881.39	31.35
881.559	31.17
881.727	31.19
881.896	30.37
882.065	30.16
882.233	30.27
882.402	29.99
882.57	29.3
882.739	29.48
882.907	29.81
883.076	29.23
883.244	28.53
883.412	28.55
883.581	28.14
883.749	28.55
883.918	28.46
884.086	28.2
884.254	28.67
884.423	29.48
884.591	28.95
884.759	28.14
884.927	27.69
885.096	27.19
885.264	25.19
885.432	25.74
885.6	24.75
885.769	24.34
885.937	26.25
886.105	25.19
886.273	26.15
886.441	25.45
886.609	26.72
886.777	26.12
886.945	26.5
887.113	29.36
887.281	29.1
887.449	30.07
887.617	29.42
887.785	27.98
887.953	28.05
888.121	23.97
888.289	19.4
888.457	17.23
888.625	19.41
888.793	20.67
888.961	20.46
889.129	21.82
889.296	22.56
889.464	22.89
889.632	22.35
889.8	21.2
889.967	25.02
890.135	35.68
