Data from 2938744__Reflection_02.txt Node
Date: Sun Mar 15 11:52:37 EDT 2015
User: robert
Spectrometer: USB4E03002
Autoset integration time: false
Trigger mode: 4
Integration Time (sec): 1.000000E-1
Scans to average: 10
Electric dark correction enabled: false
Nonlinearity correction enabled: false
Boxcar width: 5
Stray light correction enabled: false
XAxis mode: Wavelengths
Stop averaging: false
Number of Pixels in Spectrum: 3648
>>>>>Begin Spectral Data<<<<<
177.575	474
177.794	402.38
178.014	648.95
178.233	770.82
178.452	922.71
178.672	1312.84
178.891	1442.86
179.11	-4220.93
179.33	-1100.6
179.549	-959.49
179.768	-1428.67
179.987	-2740.26
180.207	-731.18
180.426	-4288.46
180.645	-3217.91
180.864	-32100
181.084	2125.89
181.303	-11819.05
181.522	1431.09
181.741	1264.49
181.96	2252.85
182.179	608.71
182.398	559.25
182.618	402.02
182.837	417.75
183.056	398.29
183.275	425.99
183.494	495.49
183.713	395.22
183.932	354.86
184.151	310.88
184.37	289.93
184.589	472.17
184.808	463.56
185.027	506.36
185.246	549.25
185.465	474.72
185.684	525.87
185.903	484.18
186.122	459.89
186.341	698.32
186.56	1153.85
186.779	957.42
186.998	835.99
187.216	1015.6
187.435	1774.52
187.654	1530.36
187.873	5016
188.092	1640.12
188.311	1125.54
188.53	1614.74
188.748	1426.23
188.967	1087.5
189.186	1150
189.405	929.46
189.623	1237.17
189.842	824.83
190.061	856.21
190.28	850.51
190.498	1588.31
190.717	1223
190.936	1881.75
191.154	1288.83
191.373	1142.99
191.592	556.47
191.81	486.93
192.029	406.01
192.248	457.44
192.466	623.72
192.685	551.7
192.904	411.43
193.122	572.31
193.341	611.63
193.559	492.98
193.778	544.4
193.996	1123.04
194.215	1683.33
194.433	-8551.85
194.652	2597.73
194.87	1916.15
195.089	2679.07
195.307	4315.09
195.526	1636.08
195.744	3424.68
195.963	-2793.68
196.181	-6518.6
196.399	-5636
196.618	-2305.6
196.836	-2285.34
197.055	-1042.06
197.273	-1240.29
197.491	-1480.23
197.71	-5057.14
197.928	-2770.41
198.146	-2213.56
198.365	-2457.8
198.583	-4581.03
198.801	7761.76
199.019	1573.46
199.238	858.58
199.456	607.03
199.674	856.21
199.892	1122.55
200.111	1262.69
200.329	1504.68
200.547	588.34
200.765	420.73
200.983	395.23
201.202	387.39
201.42	469.67
201.638	458.6
201.856	556.34
202.074	394.06
202.292	312.26
202.51	389.36
202.728	343.82
202.946	425.2
203.165	532.99
203.383	549.2
203.601	560.4
203.819	529.14
204.037	550.66
204.255	431.74
204.473	380.38
204.691	401.36
204.909	368.77
205.127	396.93
205.345	325.71
205.562	308.7
205.78	412.75
205.998	482.37
206.216	562.09
206.434	568.9
206.652	799.12
206.87	1932.81
207.088	7452.94
207.306	1200
207.523	1636.08
207.741	1834.72
207.959	2090.08
208.177	781.71
208.395	615.96
208.612	514.23
208.83	536.44
209.048	588.19
209.266	426.91
209.483	406.16
209.701	484.08
209.919	556.91
210.136	426.47
210.354	397.78
210.572	600.23
210.79	518.29
211.007	415.2
211.225	380
211.442	326.64
211.66	353.23
211.878	392.08
212.095	196.26
212.313	178.47
212.53	191.63
212.748	198.39
212.966	172.85
213.183	163.07
213.401	170.27
213.618	173.5
213.836	166.71
214.053	172.31
214.271	157.76
214.488	332.77
214.705	292.98
214.923	314.19
215.14	297.72
215.358	295.48
215.575	357.78
215.793	301.44
216.01	295.2
216.227	275.55
216.445	259.81
216.662	302.25
216.879	275.55
217.097	286.5
217.314	268.96
217.531	249.88
217.749	228.84
217.966	228.13
218.183	276.89
218.4	253.69
218.618	278.58
218.835	279.72
219.052	217.61
219.269	218.91
219.487	219.66
219.704	220.83
219.921	237.71
220.138	237.26
220.355	181.79
220.572	163.68
220.79	164.01
221.007	153.58
221.224	142.62
221.441	145.63
221.658	137.62
221.875	119.96
222.092	116.98
222.309	107.17
222.526	107.81
222.743	106.31
222.96	103.43
223.177	104.53
223.394	103.1
223.611	102.4
223.828	100.63
224.045	97.39
224.262	98.48
224.479	88.53
224.696	83.72
224.913	81.18
225.13	78.44
225.347	74.18
225.564	66.23
225.781	67.28
225.997	68.31
226.214	64.35
226.431	60.01
226.648	58.13
226.865	56.87
227.082	52.52
227.298	45.73
227.515	40.2
227.732	34.56
227.949	33.87
228.165	28.46
228.382	25.22
228.599	22.83
228.816	21
229.032	19.86
229.249	18.76
229.466	18.31
229.682	17.38
229.899	18.16
230.116	19.99
230.332	19.19
230.549	20.01
230.765	21.64
230.982	23.34
231.199	25.11
231.415	25.74
231.632	27.69
231.848	30.08
232.065	32.73
232.281	33.27
232.498	32.53
232.714	34.4
232.931	36.47
233.147	35.07
233.364	34.81
233.58	33.87
233.797	33.22
234.013	33.42
234.23	31.43
234.446	32.1
234.662	32.83
234.879	33.31
235.095	33.21
235.312	33.17
235.528	33.27
235.744	33.61
235.961	34.42
236.177	35.24
236.393	33.45
236.61	33.48
236.826	33.22
237.042	32.39
237.258	31.72
237.475	31.39
237.691	32.2
237.907	33.34
238.123	34.22
238.339	33.22
238.556	35.01
238.772	33.88
238.988	33.49
239.204	32.15
239.42	32.67
239.636	29.67
239.853	28.52
240.069	26
240.285	23.72
240.501	21.54
240.717	20.61
240.933	18.3
241.149	17.03
241.365	15.47
241.581	14.7
241.797	14.1
242.013	14.4
242.229	13.94
242.445	13.85
242.661	13.41
242.877	13.28
243.093	13.48
243.309	13.37
243.525	14.19
243.741	14.72
243.957	15.29
244.173	14.62
244.388	14.11
244.604	13.51
244.82	14.13
245.036	13.99
245.252	13.65
245.468	12.46
245.683	12.46
245.899	11.22
246.115	11.01
246.331	10.14
246.547	9.65
246.762	9.35
246.978	9.35
247.194	9.02
247.409	9.17
247.625	9.04
247.841	9.12
248.057	8.8
248.272	9.31
248.488	8.76
248.703	9.01
248.919	9.53
249.135	10.24
249.35	11.28
249.566	11.59
249.782	12.2
249.997	12.95
250.213	13.42
250.428	14.2
250.644	13.29
250.859	14.86
251.075	15.04
251.29	15.03
251.506	14.89
251.721	13.84
251.937	13.92
252.152	12.87
252.368	12.89
252.583	12.75
252.798	12.89
253.014	13.67
253.229	13.58
253.445	14.33
253.66	15.07
253.875	16.63
254.091	17.84
254.306	18.4
254.521	20.53
254.737	21.07
254.952	22.67
255.167	22.44
255.383	21.94
255.598	21.75
255.813	20.74
256.028	19.62
256.244	18.58
256.459	17.51
256.674	16.07
256.889	14.23
257.104	13.77
257.32	12.33
257.535	11.7
257.75	11.5
257.965	10.68
258.18	9.62
258.395	8.59
258.61	7.55
258.826	7.38
259.041	7.05
259.256	6.87
259.471	6.52
259.686	6.29
259.901	6.09
260.116	5.84
260.331	5.87
260.546	6.21
260.761	6.51
260.976	6.44
261.191	6.33
261.406	7.04
261.621	7.63
261.836	8.01
262.05	8.78
262.265	9.93
262.48	10.79
262.695	11.4
262.91	11.83
263.125	12.48
263.34	13.95
263.555	15.19
263.769	15.26
263.984	15.86
264.199	16.33
264.414	15.58
264.629	15.47
264.843	15.15
265.058	14.96
265.273	14.79
265.488	13.89
265.702	12.99
265.917	12.29
266.132	11.65
266.346	11.33
266.561	10.88
266.776	11.12
266.99	10.89
267.205	10.78
267.42	10.58
267.634	10.29
267.849	10.34
268.063	10.41
268.278	10.09
268.492	10.25
268.707	9.72
268.922	9.66
269.136	9.74
269.351	9.75
269.565	9.67
269.78	9.35
269.994	9.65
270.209	9.68
270.423	9.58
270.637	9.49
270.852	8.9
271.066	8.74
271.281	8.98
271.495	8.23
271.709	7.82
271.924	8.08
272.138	8.35
272.353	7.92
272.567	7.76
272.781	7.71
272.996	7.77
273.21	8.16
273.424	8.39
273.638	8.5
273.853	8.85
274.067	8.95
274.281	9.11
274.495	8.88
274.71	9.53
274.924	10.24
275.138	10.08
275.352	10.33
275.566	10.32
275.781	10.26
275.995	10.09
276.209	10.47
276.423	10.51
276.637	10.23
276.851	10.57
277.065	10.12
277.279	9.54
277.493	9.9
277.707	10.14
277.921	10.43
278.135	10.55
278.349	10.6
278.563	10.61
278.777	10.86
278.991	10.46
279.205	10.33
279.419	10.2
279.633	10.22
279.847	9.57
280.061	9.07
280.275	8.71
280.489	8.78
280.703	8.38
280.917	7.8
281.131	7.31
281.344	7.51
281.558	7.76
281.772	8.01
281.986	8.2
282.2	9.1
282.414	9.12
282.627	8.89
282.841	8.64
283.055	8.9
283.269	9.3
283.482	9.5
283.696	9.45
283.91	9.07
284.123	8.66
284.337	8.37
284.551	7.76
284.764	7.48
284.978	7.53
285.192	7.18
285.405	7.09
285.619	7.2
285.833	7.11
286.046	7.39
286.26	7.11
286.473	7.53
286.687	7.79
286.9	7.99
287.114	8.04
287.327	8.21
287.541	8.36
287.754	8.52
287.968	8.14
288.181	8.17
288.395	7.84
288.608	8.16
288.822	7.61
289.035	7.3
289.248	7.22
289.462	7.12
289.675	6.97
289.889	6.93
290.102	6.48
290.315	6.75
290.529	6.93
290.742	6.9
290.955	7.31
291.169	7.37
291.382	7.66
291.595	7.62
291.808	7.95
292.022	8.64
292.235	9.13
292.448	9.4
292.661	9.06
292.875	9.07
293.088	9.29
293.301	8.74
293.514	8.86
293.727	8.79
293.94	9.09
294.153	9.4
294.367	8.83
294.58	8.66
294.793	8.57
295.006	8.55
295.219	8.57
295.432	8.31
295.645	8.48
295.858	8.51
296.071	8.43
296.284	7.73
296.497	7.12
296.71	6.9
296.923	6.6
297.136	6.61
297.349	6.62
297.562	6.37
297.775	6.1
297.988	5.99
298.201	6.23
298.414	6.38
298.626	6.99
298.839	7.26
299.052	7.21
299.265	7.57
299.478	7.44
299.691	8.11
299.903	8.47
300.116	8.83
300.329	9.25
300.542	8.92
300.755	8.75
300.967	8.58
301.18	8.56
301.393	8.99
301.605	8.75
301.818	8.92
302.031	8.64
302.243	8.6
302.456	8.91
302.669	8.59
302.881	8.55
303.094	8.65
303.307	8.77
303.519	8.92
303.732	8.79
303.944	9.39
304.157	9.88
304.37	9.62
304.582	9.58
304.795	9.35
305.007	9.07
305.22	9.45
305.432	9.42
305.645	9.53
305.857	10.03
306.069	10.17
306.282	9.59
306.494	8.95
306.707	9.48
306.919	9.57
307.132	9.84
307.344	9.92
307.556	9.48
307.769	9.48
307.981	9.28
308.193	8.62
308.406	8.57
308.618	8.54
308.83	8.49
309.043	8.43
309.255	8.17
309.467	7.98
309.679	8.11
309.892	8.15
310.104	7.87
310.316	7.89
310.528	7.88
310.74	7.72
310.953	8.15
311.165	8.59
311.377	8.16
311.589	8.21
311.801	8.32
312.013	8.63
312.225	8.79
312.437	9.08
312.649	9.06
312.862	9.27
313.074	9.64
313.286	9.56
313.498	8.95
313.71	9.15
313.922	9.18
314.134	9.49
314.346	9.57
314.558	9.75
314.77	9.83
314.982	9.81
315.193	10.33
315.405	10.16
315.617	10.09
315.829	10.76
316.041	11.08
316.253	11.15
316.465	10.98
316.677	10.53
316.888	10.94
317.1	10.71
317.312	11.5
317.524	11.17
317.736	11.43
317.947	11.66
318.159	11.35
318.371	11.57
318.583	11.59
318.794	11.86
319.006	12.17
319.218	11.85
319.43	12.22
319.641	12.03
319.853	12.64
320.064	13.21
320.276	13.26
320.488	13.6
320.699	13.84
320.911	14.43
321.123	13.98
321.334	13.97
321.546	13.95
321.757	14.42
321.969	14.44
322.18	14.11
322.392	13.9
322.603	14.19
322.815	14.74
323.026	14.2
323.238	14.06
323.449	14.1
323.661	14.37
323.872	14.28
324.083	13.91
324.295	14.19
324.506	14.82
324.718	14.78
324.929	14.65
325.14	14.45
325.352	15.53
325.563	15.98
325.774	16.66
325.986	16.83
326.197	17.45
326.408	18.31
326.62	18.6
326.831	18.16
327.042	18.54
327.253	18.93
327.464	19.72
327.676	19.75
327.887	20.01
328.098	20.57
328.309	21.29
328.52	21.76
328.732	22.08
328.943	22.16
329.154	22.94
329.365	23.5
329.576	24.69
329.787	24.66
329.998	24.73
330.209	25.55
330.42	25.91
330.631	26.09
330.842	26.62
331.053	26.88
331.264	27.51
331.475	28.08
331.686	28.16
331.897	28
332.108	28.21
332.319	28.66
332.53	28.54
332.741	28.59
332.952	29.18
333.163	29.21
333.374	29.27
333.585	29.79
333.795	30.13
334.006	30.43
334.217	30.7
334.428	31.01
334.639	30.97
334.849	31.27
335.06	31.36
335.271	31.54
335.482	32.2
335.692	32.62
335.903	32.66
336.114	32.82
336.325	33.22
336.535	33.62
336.746	33.83
336.957	34.15
337.167	34.26
337.378	34.58
337.589	34.43
337.799	33.97
338.01	34.17
338.22	33.87
338.431	33.82
338.642	33.65
338.852	33.57
339.063	33.6
339.273	33.58
339.484	33.26
339.694	33.85
339.905	33.9
340.115	34.25
340.326	33.95
340.536	33.98
340.746	33.57
340.957	34.13
341.167	34.13
341.378	33.93
341.588	33.94
341.799	34.64
342.009	34.18
342.219	33.93
342.43	33.76
342.64	33.75
342.85	33.95
343.061	34.15
343.271	33.84
343.481	33.53
343.691	34.03
343.902	34.15
344.112	34.06
344.322	34.16
344.532	34.34
344.743	34.26
344.953	34.17
345.163	34.04
345.373	34.21
345.583	33.83
345.793	33.92
346.004	33.64
346.214	33.78
346.424	33.36
346.634	33.13
346.844	32.74
347.054	32.72
347.264	32.74
347.474	32.71
347.684	32.77
347.894	32.98
348.104	32.9
348.314	32.91
348.524	33.46
348.734	33.28
348.944	33.48
349.154	33.89
349.364	33.83
349.574	33.88
349.784	34.04
349.994	33.65
350.204	33.77
350.413	33.96
350.623	34.08
350.833	33.32
351.043	33.55
351.253	33.44
351.463	33.46
351.672	33.88
351.882	33.95
352.092	34.12
352.302	34.47
352.511	34.71
352.721	34.5
352.931	34.39
353.141	34.33
353.35	34.15
353.56	33.93
353.77	34.32
353.979	33.67
354.189	33.36
354.399	33.14
354.608	33.25
354.818	32.76
355.027	33.12
355.237	32.9
355.447	32.92
355.656	33.05
355.866	33.16
356.075	32.6
356.285	32.68
356.494	32.6
356.704	32.66
356.913	32.28
357.123	32.23
357.332	31.97
357.542	32.16
357.751	32.13
357.96	32.06
358.17	32.11
358.379	31.79
358.589	31.82
358.798	32.04
359.007	31.99
359.217	32.03
359.426	32.08
359.635	31.9
359.845	31.64
360.054	31.35
360.263	31.44
360.472	31.06
360.682	31.5
360.891	31.45
361.1	31.31
361.309	31.02
361.519	30.88
361.728	30.91
361.937	30.9
362.146	31.06
362.355	31.17
362.564	31.11
362.774	30.91
362.983	30.55
363.192	30.49
363.401	30.49
363.61	30.37
363.819	30.53
364.028	30.35
364.237	30.5
364.446	30.27
364.655	30.53
364.864	30.66
365.073	31.44
365.282	31.68
365.491	31.69
365.7	31.58
365.909	31.92
366.118	31.95
366.327	31.96
366.536	32
366.745	31.97
366.954	31.88
367.162	31.68
367.371	31.18
367.58	31.16
367.789	31.14
367.998	31.5
368.207	31.31
368.415	30.98
368.624	31.02
368.833	30.6
369.042	30.63
369.25	30.69
369.459	31.11
369.668	31.19
369.877	31.08
370.085	31.07
370.294	30.56
370.503	30.39
370.711	30.61
370.92	30.58
371.129	30.61
371.337	30.57
371.546	30.46
371.754	30.32
371.963	30.04
372.171	29.77
372.38	29.87
372.589	30.03
372.797	30.34
373.006	30.52
373.214	30.44
373.423	30.9
373.631	30.74
373.84	30.47
374.048	30.36
374.256	30.65
374.465	30.86
374.673	30.71
374.882	30.87
375.09	30.65
375.298	30.6
375.507	30.79
375.715	30.55
375.923	30.79
376.132	30.85
376.34	30.58
376.548	30.47
376.757	30.32
376.965	30.34
377.173	30.07
377.381	29.96
377.59	29.62
377.798	29.38
378.006	29.11
378.214	29.18
378.423	29.02
378.631	28.93
378.839	28.84
379.047	29.09
379.255	29
379.463	29.17
379.671	29.46
379.879	29.64
380.088	29.9
380.296	30.03
380.504	29.83
380.712	29.91
380.92	30.14
381.128	30.23
381.336	30.15
381.544	30.02
381.752	30.1
381.96	29.99
382.168	29.83
382.376	29.83
382.584	29.95
382.791	29.99
382.999	29.88
383.207	29.76
383.415	29.92
383.623	29.77
383.831	29.88
384.039	29.51
384.247	29.52
384.454	29.7
384.662	29.53
384.87	29.62
385.078	29.6
385.285	29.61
385.493	29.56
385.701	29.41
385.909	29.27
386.116	29.37
386.324	29.79
386.532	29.64
386.739	29.58
386.947	29.79
387.155	29.82
387.362	29.53
387.57	29.59
387.778	29.53
387.985	29.54
388.193	29.87
388.4	29.99
388.608	30.04
388.816	30.14
389.023	29.98
389.231	29.89
389.438	29.72
389.646	30
389.853	30.03
390.061	30.26
390.268	30.16
390.475	29.87
390.683	29.74
390.89	29.64
391.098	29.64
391.305	29.66
391.512	29.3
391.72	29.15
391.927	29.08
392.135	29.04
392.342	28.91
392.549	29.06
392.756	29.03
392.964	28.92
393.171	28.73
393.378	28.47
393.586	28.5
393.793	28.8
394	28.92
394.207	28.91
394.414	29.05
394.622	29.09
394.829	29.05
395.036	29.19
395.243	29.21
395.45	29.16
395.657	29.37
395.864	29.4
396.072	29.26
396.279	29.28
396.486	29.35
396.693	29.21
396.9	29.17
397.107	29.1
397.314	29.25
397.521	29.28
397.728	29.16
397.935	29.18
398.142	29.08
398.349	29.23
398.556	29.25
398.763	29.09
398.97	29.29
399.177	29.17
399.383	29.29
399.59	28.9
399.797	28.9
400.004	29.21
400.211	29.3
400.418	29.53
400.625	29.43
400.831	29.39
401.038	29.58
401.245	29.45
401.452	29.82
401.658	29.78
401.865	30.1
402.072	30.2
402.279	30.3
402.485	30.48
402.692	30.28
402.899	30.21
403.105	30.27
403.312	30.31
403.519	30.26
403.725	29.99
403.932	30.02
404.138	30.2
404.345	30.11
404.552	29.99
404.758	29.73
404.965	29.78
405.171	29.77
405.378	29.8
405.584	29.88
405.791	29.93
405.997	29.86
406.204	29.87
406.41	29.63
406.617	29.64
406.823	29.64
407.029	29.75
407.236	29.71
407.442	29.9
407.649	30.01
407.855	29.93
408.061	30.06
408.268	30.26
408.474	30.32
408.68	30.41
408.887	30.33
409.093	30.42
409.299	30.44
409.505	30.44
409.712	30.37
409.918	30.21
410.124	30.33
410.33	30.12
410.537	30.34
410.743	30.23
410.949	30.3
411.155	30.55
411.361	30.44
411.567	30.53
411.773	30.5
411.98	30.49
412.186	30.58
412.392	30.43
412.598	30.52
412.804	30.37
413.01	30.41
413.216	30.35
413.422	30.39
413.628	30.35
413.834	30.44
414.04	30.67
414.246	30.57
414.452	30.64
414.658	30.74
414.864	30.81
415.07	30.84
415.275	30.98
415.481	31
415.687	30.98
415.893	31.03
416.099	30.94
416.305	30.75
416.511	30.81
416.716	30.61
416.922	30.5
417.128	30.38
417.334	30.3
417.539	30.21
417.745	30.11
417.951	29.88
418.157	29.87
418.362	29.71
418.568	29.75
418.774	29.74
418.979	29.71
419.185	29.7
419.391	29.7
419.596	29.69
419.802	29.53
420.008	29.49
420.213	29.54
420.419	29.46
420.624	29.45
420.83	29.44
421.035	29.38
421.241	29.38
421.446	29.26
421.652	29.21
421.857	29.12
422.063	29.16
422.268	29.15
422.474	29.09
422.679	29.02
422.885	29.1
423.09	29.06
423.295	29.07
423.501	29.15
423.706	29.17
423.911	29.21
424.117	29.18
424.322	29.22
424.527	29.26
424.733	29.21
424.938	29.28
425.143	29.31
425.349	29.18
425.554	29.17
425.759	29.13
425.964	29.38
426.169	29.42
426.375	29.51
426.58	29.57
426.785	29.67
426.99	29.83
427.195	29.89
427.4	29.96
427.605	30.23
427.811	30.39
428.016	30.36
428.221	30.07
428.426	30.06
428.631	30.13
428.836	30.11
429.041	30.19
429.246	30.26
429.451	30.48
429.656	30.44
429.861	30.45
430.066	30.44
430.271	30.58
430.476	30.74
430.681	30.72
430.886	30.78
431.09	30.84
431.295	30.77
431.5	30.73
431.705	30.57
431.91	30.45
432.115	30.49
432.32	30.44
432.524	30.37
432.729	30.39
432.934	30.42
433.139	30.51
433.343	30.49
433.548	30.46
433.753	30.45
433.958	30.5
434.162	30.54
434.367	30.51
434.572	30.66
434.776	30.72
434.981	30.79
435.186	30.84
435.39	30.69
435.595	30.68
435.799	30.73
436.004	30.86
436.209	30.96
436.413	31.01
436.618	30.99
436.822	30.91
437.027	30.98
437.231	30.83
437.436	30.86
437.64	30.88
437.845	30.94
438.049	30.88
438.253	30.89
438.458	30.78
438.662	30.84
438.867	30.78
439.071	30.74
439.275	30.69
439.48	30.76
439.684	30.69
439.888	30.61
440.093	30.63
440.297	30.78
440.501	30.69
440.706	30.72
440.91	30.75
441.114	30.85
441.318	30.84
441.523	30.76
441.727	30.78
441.931	30.85
442.135	31.03
442.339	30.96
442.543	30.87
442.748	30.92
442.952	30.88
443.156	30.83
443.36	30.82
443.564	30.74
443.768	30.8
443.972	30.82
444.176	30.74
444.38	30.65
444.584	30.57
444.788	30.59
444.992	30.67
445.196	30.62
445.4	30.57
445.604	30.48
445.808	30.61
446.012	30.54
446.216	30.52
446.42	30.54
446.624	30.58
446.828	30.63
447.032	30.52
447.235	30.43
447.439	30.56
447.643	30.57
447.847	30.63
448.051	30.59
448.254	30.73
448.458	30.62
448.662	30.68
448.866	30.66
449.069	30.64
449.273	30.77
449.477	30.74
449.681	30.73
449.884	30.75
450.088	30.83
450.292	30.75
450.495	30.9
450.699	31.03
450.902	31.02
451.106	30.97
451.31	30.94
451.513	31.05
451.717	31.12
451.92	31
452.124	31.08
452.327	31.05
452.531	31.15
452.734	30.99
452.938	31.03
453.141	31.03
453.345	30.94
453.548	31.07
453.752	31.04
453.955	31.23
454.158	31.34
454.362	31.26
454.565	31.36
454.769	31.44
454.972	31.42
455.175	31.43
455.379	31.4
455.582	31.6
455.785	31.62
455.988	31.51
456.192	31.36
456.395	31.32
456.598	31.3
456.801	31.19
457.005	31.11
457.208	31.24
457.411	31.24
457.614	31.18
457.817	31.22
458.021	31.12
458.224	31.06
458.427	31.02
458.63	31.03
458.833	31.1
459.036	31.1
459.239	31.07
459.442	30.93
459.645	30.91
459.848	30.9
460.051	30.86
460.254	30.95
460.457	31
460.66	31.03
460.863	30.96
461.066	30.91
461.269	30.88
461.472	31
461.675	31.03
461.878	31.12
462.081	31.23
462.284	31.25
462.486	31.18
462.689	31.17
462.892	31.24
463.095	31.36
463.298	31.4
463.5	31.47
463.703	31.4
463.906	31.58
464.109	31.57
464.311	31.53
464.514	31.54
464.717	31.56
464.92	31.68
465.122	31.51
465.325	31.54
465.528	31.77
465.73	31.86
465.933	31.81
466.135	31.61
466.338	31.53
466.541	31.5
466.743	31.44
466.946	31.42
467.148	31.34
467.351	31.36
467.553	31.26
467.756	31.1
467.958	30.9
468.161	30.93
468.363	31.03
468.566	31.02
468.768	31.14
468.971	31.17
469.173	31.23
469.375	31.21
469.578	31.23
469.78	31.39
469.983	31.33
470.185	31.46
470.387	31.52
470.59	31.63
470.792	31.71
470.994	31.71
471.196	31.85
471.399	31.75
471.601	31.72
471.803	31.79
472.005	31.75
472.208	31.76
472.41	31.73
472.612	31.7
472.814	31.58
473.016	31.63
473.218	31.62
473.421	31.46
473.623	31.57
473.825	31.68
474.027	31.68
474.229	31.75
474.431	31.84
474.633	31.97
474.835	32.05
475.037	32.16
475.239	32.2
475.441	32.24
475.643	32.32
475.845	32.26
476.047	32.3
476.249	32.36
476.451	32.33
476.653	32.24
476.855	32.09
477.057	31.98
477.258	31.85
477.46	31.78
477.662	31.79
477.864	31.8
478.066	31.77
478.268	31.69
478.469	31.75
478.671	31.66
478.873	31.67
479.075	31.69
479.276	31.68
479.478	31.65
479.68	31.6
479.882	31.54
480.083	31.52
480.285	31.57
480.487	31.46
480.688	31.35
480.89	31.38
481.091	31.42
481.293	31.38
481.495	31.29
481.696	31.26
481.898	31.12
482.099	30.96
482.301	30.83
482.502	30.68
482.704	30.59
482.905	30.48
483.107	30.26
483.308	30.16
483.51	30.09
483.711	30.06
483.913	29.99
484.114	29.96
484.315	29.92
484.517	29.88
484.718	29.87
484.92	29.92
485.121	29.89
485.322	29.94
485.524	29.96
485.725	29.98
485.926	29.99
486.127	30
486.329	29.99
486.53	30.05
486.731	30.09
486.932	30.12
487.134	30.13
487.335	30.17
487.536	30.24
487.737	30.2
487.938	30.19
488.139	30.16
488.341	30.16
488.542	30.19
488.743	30.2
488.944	30.25
489.145	30.27
489.346	30.33
489.547	30.32
489.748	30.32
489.949	30.4
490.15	30.45
490.351	30.54
490.552	30.57
490.753	30.58
490.954	30.6
491.155	30.58
491.356	30.6
491.557	30.53
491.758	30.57
491.959	30.57
492.159	30.58
492.36	30.61
492.561	30.64
492.762	30.69
492.963	30.75
493.164	30.82
493.364	30.87
493.565	30.88
493.766	30.93
493.967	31.01
494.167	31.12
494.368	31.2
494.569	31.26
494.769	31.31
494.97	31.35
495.171	31.45
495.371	31.5
495.572	31.51
495.773	31.59
495.973	31.7
496.174	31.69
496.375	31.73
496.575	31.81
496.776	31.84
496.976	31.91
497.177	31.89
497.377	31.95
497.578	31.95
497.778	31.91
497.979	31.97
498.179	32
498.38	32.12
498.58	32.14
498.78	32.09
498.981	32.13
499.181	32.07
499.382	32.21
499.582	32.14
499.782	32.17
499.983	32.32
500.183	32.34
500.383	32.38
500.584	32.42
500.784	32.51
500.984	32.61
501.184	32.7
501.385	32.81
501.585	32.79
501.785	32.84
501.985	32.84
502.185	32.81
502.386	32.76
502.586	32.73
502.786	32.78
502.986	32.65
503.186	32.64
503.386	32.7
503.586	32.64
503.786	32.61
503.987	32.74
504.187	32.7
504.387	32.66
504.587	32.78
504.787	32.92
504.987	32.83
505.187	33.04
505.387	33.05
505.587	33.04
505.786	33.19
505.986	33.36
506.186	33.41
506.386	33.6
506.586	33.72
506.786	33.66
506.986	33.5
507.186	33.5
507.386	33.33
507.585	33.33
507.785	33.26
507.985	33.28
508.185	33.31
508.384	33.29
508.584	33.09
508.784	33.13
508.984	33.18
509.183	33.36
509.383	33.42
509.583	33.54
509.782	33.58
509.982	33.61
510.182	33.63
510.381	33.62
510.581	33.62
510.781	33.68
510.98	33.69
511.18	33.74
511.379	33.65
511.579	33.72
511.778	33.75
511.978	33.78
512.177	33.9
512.377	33.88
512.576	33.85
512.776	33.85
512.975	34.02
513.175	34.09
513.374	34.1
513.573	34.16
513.773	34.19
513.972	34.16
514.172	34.25
514.371	34.25
514.57	34.41
514.77	34.57
514.969	34.7
515.168	34.73
515.367	34.63
515.567	34.65
515.766	34.69
515.965	34.71
516.164	34.79
516.364	34.71
516.563	34.67
516.762	34.52
516.961	34.35
517.16	34.27
517.359	34.11
517.559	34.19
517.758	34.11
517.957	34.15
518.156	34.07
518.355	34.1
518.554	34.18
518.753	34.19
518.952	34.24
519.151	34.29
519.35	34.29
519.549	34.39
519.748	34.38
519.947	34.47
520.146	34.4
520.345	34.48
520.544	34.51
520.743	34.54
520.942	34.68
521.141	34.74
521.339	34.91
521.538	34.97
521.737	35.04
521.936	35.12
522.135	35.24
522.333	35.37
522.532	35.46
522.731	35.45
522.93	35.47
523.129	35.45
523.327	35.44
523.526	35.46
523.725	35.47
523.923	35.48
524.122	35.5
524.321	35.48
524.519	35.45
524.718	35.36
524.917	35.4
525.115	35.43
525.314	35.41
525.512	35.47
525.711	35.38
525.909	35.45
526.108	35.4
526.306	35.36
526.505	35.33
526.703	35.26
526.902	35.19
527.1	35.1
527.299	35.04
527.497	35
527.696	34.95
527.894	34.89
528.092	34.81
528.291	34.78
528.489	34.74
528.688	34.71
528.886	34.72
529.084	34.78
529.283	34.78
529.481	34.76
529.679	34.74
529.877	34.73
530.076	34.79
530.274	34.86
530.472	34.96
530.67	35.04
530.869	35.09
531.067	35.21
531.265	35.25
531.463	35.35
531.661	35.45
531.859	35.51
532.057	35.53
532.255	35.6
532.454	35.62
532.652	35.61
532.85	35.61
533.048	35.65
533.246	35.63
533.444	35.63
533.642	35.68
533.84	35.74
534.038	35.87
534.236	35.96
534.434	35.98
534.632	36.03
534.83	36.1
535.027	36.17
535.225	36.25
535.423	36.26
535.621	36.29
535.819	36.34
536.017	36.35
536.215	36.31
536.412	36.3
536.61	36.27
536.808	36.3
537.006	36.41
537.203	36.52
537.401	36.58
537.599	36.77
537.797	36.94
537.994	36.99
538.192	37.06
538.39	37.21
538.587	37.41
538.785	37.65
538.983	37.66
539.18	37.78
539.378	37.78
539.575	37.8
539.773	37.81
539.97	37.7
540.168	37.68
540.366	37.7
540.563	37.74
540.761	37.66
540.958	37.59
541.155	37.69
541.353	37.72
541.55	37.73
541.748	37.7
541.945	37.7
542.143	37.77
542.34	37.86
542.537	37.88
542.735	37.86
542.932	37.92
543.129	38.05
543.327	38.19
543.524	38.27
543.721	38.47
543.919	38.68
544.116	38.93
544.313	39.28
544.51	39.49
544.708	39.81
544.905	40.13
545.102	40.5
545.299	40.71
545.496	40.78
545.693	40.94
545.891	41
546.088	41.09
546.285	40.97
546.482	40.85
546.679	40.8
546.876	40.68
547.073	40.52
547.27	40.3
547.467	40.16
547.664	40.14
547.861	39.99
548.058	39.93
548.255	39.91
548.452	40.07
548.649	40.14
548.846	40.22
549.043	40.29
549.24	40.4
549.437	40.64
549.633	40.78
549.83	40.81
550.027	40.95
550.224	40.99
550.421	41.02
550.618	40.92
550.814	40.93
551.011	40.8
551.208	40.77
551.405	40.92
551.601	40.89
551.798	40.86
551.995	40.8
552.191	40.68
552.388	40.63
552.585	40.61
552.781	40.52
552.978	40.41
553.175	40.51
553.371	40.52
553.568	40.32
553.764	40.21
553.961	40.22
554.157	40.09
554.354	40.17
554.55	40.22
554.747	40.24
554.943	40.37
555.14	40.4
555.336	40.39
555.533	40.37
555.729	40.51
555.926	40.57
556.122	40.65
556.318	40.89
556.515	40.99
556.711	40.92
556.907	40.89
557.104	40.96
557.3	41.03
557.496	41.04
557.693	41.08
557.889	41.06
558.085	41.02
558.281	41.01
558.478	40.96
558.674	40.94
558.87	40.95
559.066	40.94
559.262	40.91
559.459	40.81
559.655	40.73
559.851	40.79
560.047	40.92
560.243	41.08
560.439	40.96
560.635	41.08
560.831	41.04
561.027	41.04
561.223	41.02
561.419	41.03
561.615	41.09
561.811	41.19
562.007	41.02
562.203	40.86
562.399	40.8
562.595	40.81
562.791	40.79
562.987	40.73
563.183	40.74
563.379	40.81
563.575	40.87
563.771	41.02
563.966	41.01
564.162	41.17
564.358	41.12
564.554	40.81
564.75	40.83
564.945	40.66
565.141	40.62
565.337	40.57
565.533	40.44
565.728	40.22
565.924	40.1
566.12	40.07
566.315	39.97
566.511	40.15
566.707	40.48
566.902	40.36
567.098	40.36
567.293	40.4
567.489	40.39
567.684	40.46
567.88	40.6
568.076	40.54
568.271	40.57
568.467	40.58
568.662	40.38
568.858	40.2
569.053	40.33
569.248	40.38
569.444	40.45
569.639	40.46
569.835	40.51
570.03	40.52
570.225	40.56
570.421	40.47
570.616	40.49
570.812	40.37
571.007	40.3
571.202	40.18
571.397	40.13
571.593	40.05
571.788	40.03
571.983	40.01
572.178	40.06
572.374	40.07
572.569	40.05
572.764	40.13
572.959	40.26
573.154	40.31
573.35	40.42
573.545	40.49
573.74	40.42
573.935	40.53
574.13	40.5
574.325	40.47
574.52	40.52
574.715	40.78
574.91	40.82
575.105	40.96
575.3	41.02
575.495	41.17
575.69	41.23
575.885	41.42
576.08	41.47
576.275	41.57
576.47	41.74
576.665	41.8
576.86	41.94
577.055	41.96
577.25	41.94
577.444	42.14
577.639	42.27
577.834	42.36
578.029	42.48
578.224	42.58
578.418	42.72
578.613	42.8
578.808	42.92
579.003	42.86
579.197	42.84
579.392	42.82
579.587	42.92
579.781	42.85
579.976	42.99
580.171	42.9
580.365	43.03
580.56	43.27
580.755	43.15
580.949	43.22
581.144	43.26
581.338	43.33
581.533	43.56
581.727	43.62
581.922	43.68
582.116	43.71
582.311	44
582.505	44.03
582.7	43.98
582.894	44.12
583.089	44.18
583.283	44.17
583.478	44.36
583.672	44.36
583.866	44.42
584.061	44.36
584.255	44.42
584.449	44.45
584.644	44.57
584.838	44.51
585.032	44.55
585.226	44.51
585.421	44.62
585.615	44.64
585.809	44.71
586.003	44.81
586.198	44.93
586.392	44.97
586.586	44.9
586.78	44.78
586.974	44.66
587.168	44.5
587.363	44.6
587.557	44.38
587.751	44.3
587.945	44.11
588.139	44.1
588.333	43.95
588.527	43.68
588.721	43.43
588.915	43.35
589.109	43.43
589.303	43.51
589.497	43.26
589.691	43.38
589.885	43.19
590.079	43.26
590.273	43
590.466	43.23
590.66	43.4
590.854	43.63
591.048	43.86
591.242	44.01
591.436	44.15
591.629	44.35
591.823	44.31
592.017	44.57
592.211	44.57
592.404	44.79
592.598	44.7
592.792	44.78
592.986	44.79
593.179	44.67
593.373	44.4
593.567	44.4
593.76	44.35
593.954	44.29
594.147	44.26
594.341	44.31
594.535	44.07
594.728	44.06
594.922	43.78
595.115	43.62
595.309	43.45
595.502	43.47
595.696	43.33
595.889	43.26
596.083	43.21
596.276	43.01
596.47	42.86
596.663	42.87
596.856	42.76
597.05	42.76
597.243	42.85
597.437	42.86
597.63	42.87
597.823	42.87
598.017	43.08
598.21	43.29
598.403	43.51
598.596	43.63
598.79	43.76
598.983	43.92
599.176	44.13
599.369	44.25
599.563	44.42
599.756	44.59
599.949	44.73
600.142	44.62
600.335	44.49
600.528	44.45
600.722	44.46
600.915	44.52
601.108	44.51
601.301	44.33
601.494	44.11
601.687	44.08
601.88	44.12
602.073	44
602.266	43.71
602.459	43.57
602.652	43.49
602.845	43.47
603.038	43.32
603.231	43.25
603.424	43.13
603.617	43.07
603.809	42.91
604.002	42.68
604.195	42.55
604.388	42.66
604.581	42.77
604.774	42.82
604.966	42.78
605.159	42.77
605.352	42.68
605.545	42.95
605.737	43.21
605.93	43.39
606.123	43.76
606.316	44.12
606.508	44.31
606.701	44.47
606.894	44.63
607.086	45.04
607.279	45.26
607.471	45.57
607.664	45.75
607.857	46.05
608.049	46.54
608.242	46.98
608.434	47.52
608.627	48.25
608.819	49.21
609.012	50.35
609.204	51.22
609.397	52.46
609.589	53.96
609.782	55.39
609.974	56.91
610.166	58.47
610.359	60
610.551	61.47
610.743	62.98
610.936	63.98
611.128	64.81
611.32	65.74
611.513	66.16
611.705	66.18
611.897	66.38
612.09	65.94
612.282	65.32
612.474	64.54
612.666	63.75
612.858	62.78
613.051	61.95
613.243	61.08
613.435	60.36
613.627	59.94
613.819	59.42
614.011	58.99
614.203	58.43
614.395	58.12
614.588	57.45
614.78	56.82
614.972	56.23
615.164	55.72
615.356	55.1
615.548	54.56
615.74	53.68
615.932	53.09
616.124	52.26
616.315	51.86
616.507	51.28
616.699	51.05
616.891	50.57
617.083	50.15
617.275	50.01
617.467	49.88
617.659	49.7
617.85	49.58
618.042	49.44
618.234	49.21
618.426	49.07
618.618	48.97
618.809	48.76
619.001	48.88
619.193	49.09
619.384	48.88
619.576	48.81
619.768	48.58
619.959	49.02
620.151	49.17
620.343	49.36
620.534	49.2
620.726	49.22
620.917	49.21
621.109	49.16
621.301	48.89
621.492	49.23
621.684	49.5
621.875	49.6
622.067	49.16
622.258	49.08
622.45	49.11
622.641	49.31
622.832	49.51
623.024	49.76
623.215	49.86
623.407	50.06
623.598	49.95
623.789	49.76
623.981	49.8
624.172	49.88
624.363	49.79
624.555	49.81
624.746	49.58
624.937	49.4
625.129	49.08
625.32	49.08
625.511	48.87
625.702	48.63
625.893	48.61
626.085	48.56
626.276	48.39
626.467	48.24
626.658	47.79
626.849	47.86
627.04	47.56
627.231	47.62
627.422	47.39
627.614	47.35
627.805	47.54
627.996	47.52
628.187	47.54
628.378	47.82
628.569	48.12
628.76	48.64
628.951	48.75
629.142	49.24
629.332	49.48
629.523	49.86
629.714	50.34
629.905	50.34
630.096	50.55
630.287	50.65
630.478	50.8
630.669	50.83
630.859	50.77
631.05	50.93
631.241	50.98
631.432	50.75
631.623	50.6
631.813	50.06
632.004	49.88
632.195	49.59
632.385	49.39
632.576	49
632.767	48.74
632.957	48.46
633.148	48.11
633.339	47.59
633.529	47.43
633.72	47.35
633.91	47.3
634.101	47.18
634.292	47.08
634.482	46.94
634.673	46.84
634.863	46.86
635.054	46.88
635.244	46.71
635.435	46.8
635.625	46.82
635.815	46.83
636.006	46.79
636.196	46.76
636.387	46.8
636.577	46.96
636.767	47.1
636.958	47.02
637.148	47.09
637.338	47.32
637.529	47.37
637.719	47.5
637.909	47.28
638.099	47.3
638.29	47.48
638.48	47.41
638.67	47.39
638.86	47.28
639.05	47.3
639.241	47.41
639.431	47.56
639.621	47.66
639.811	47.86
640.001	47.99
640.191	48.2
640.381	48.22
640.571	48.34
640.761	48.57
640.951	48.78
641.141	48.9
641.331	49.11
641.521	49.15
641.711	49.22
641.901	48.94
642.091	49.04
642.281	49.09
642.471	49.16
642.661	49.38
642.851	49.44
643.041	49.4
643.231	49.52
643.42	49.49
643.61	49.56
643.8	49.53
643.99	49.57
644.18	49.54
644.369	49.57
644.559	49.65
644.749	49.51
644.939	49.24
645.128	49.16
645.318	48.9
645.508	48.87
645.697	48.72
645.887	48.68
646.076	48.75
646.266	48.51
646.456	48.45
646.645	48.54
646.835	48.77
647.024	48.91
647.214	48.8
647.403	48.87
647.593	49.02
647.782	49.24
647.972	49.19
648.161	49.41
648.351	49.61
648.54	49.95
648.73	49.99
648.919	50.01
649.108	50.07
649.298	50.34
649.487	50.54
649.677	50.62
649.866	50.55
650.055	50.55
650.244	50.51
650.434	50.72
650.623	50.7
650.812	50.58
651.002	50.36
651.191	50.34
651.38	50.36
651.569	50.3
651.758	49.97
651.947	50.11
652.137	50.11
652.326	50.17
652.515	50.08
652.704	50.01
652.893	49.87
653.082	49.9
653.271	49.9
653.46	50.01
653.649	50.02
653.838	49.91
654.027	49.6
654.216	49.86
654.405	49.84
654.594	49.69
654.783	49.26
654.972	49.1
655.161	49.12
655.35	49.2
655.539	49.16
655.728	49.28
655.916	49.05
656.105	49.17
656.294	49.04
656.483	48.68
656.672	48.85
656.86	49.2
657.049	49.25
657.238	49.06
657.427	48.94
657.615	48.78
657.804	48.72
657.993	48.75
658.181	48.2
658.37	48.09
658.559	48.16
658.747	47.93
658.936	47.78
659.125	47.79
659.313	47.82
659.502	47.7
659.69	47.52
659.879	47.27
660.067	47.33
660.256	47.9
660.444	48.01
660.633	48.26
660.821	48.51
661.01	48.64
661.198	48.85
661.387	49.09
661.575	49.5
661.763	49.68
661.952	50.19
662.14	50.66
662.328	50.65
662.517	50.77
662.705	50.72
662.893	50.81
663.082	50.95
663.27	50.82
663.458	50.88
663.646	50.84
663.834	51.14
664.023	51.09
664.211	50.9
664.399	50.96
664.587	51.11
664.775	51.04
664.963	51.14
665.152	51.32
665.34	51.6
665.528	51.45
665.716	51.51
665.904	51.73
666.092	51.66
666.28	51.69
666.468	51.54
666.656	51.84
666.844	52
667.032	52.21
667.22	52.11
667.408	52.3
667.596	52.58
667.784	52.48
667.971	52.35
668.159	52.53
668.347	52.27
668.535	52.73
668.723	52.14
668.911	51.91
669.098	51.77
669.286	51.92
669.474	51.76
669.662	51.8
669.849	52.16
670.037	52.2
670.225	51.97
670.413	52.31
670.6	52.03
670.788	52.51
670.976	52.83
671.163	52.8
671.351	52.81
671.538	53.04
671.726	53.09
671.913	52.72
672.101	52.45
672.289	52.39
672.476	52.27
672.664	52.42
672.851	52.5
673.039	52.63
673.226	52.88
673.413	52.7
673.601	52.76
673.788	52.62
673.976	52.55
674.163	52.92
674.35	52.99
674.538	53.09
674.725	53.04
674.912	53
675.1	53.15
675.287	52.92
675.474	53.08
675.662	53.22
675.849	53.41
676.036	53.64
676.223	53.57
676.411	53.84
676.598	54.01
676.785	54
676.972	53.72
677.159	53.38
677.346	53.24
677.533	53.21
677.721	52.69
677.908	52.29
678.095	51.86
678.282	51.77
678.469	51.5
678.656	51.29
678.843	50.88
679.03	50.75
679.217	50.55
679.404	50.57
679.591	50.44
679.778	50.4
679.964	50.57
680.151	50.81
680.338	50.57
680.525	50.5
680.712	50.64
680.899	51.03
681.086	51.35
681.272	51.59
681.459	51.57
681.646	51.56
681.833	51.74
682.02	51.79
682.206	51.82
682.393	52.24
682.58	52.35
682.766	52.4
682.953	52.44
683.14	52.39
683.326	52.65
683.513	52.92
683.7	53.01
683.886	53.29
684.073	53.29
684.259	53.41
684.446	53.33
684.632	53.71
684.819	53.79
685.005	53.82
685.192	53.89
685.378	53.88
685.565	53.8
685.751	53.78
685.938	53.47
686.124	53.62
686.31	53.83
686.497	54.03
686.683	54.01
686.87	53.89
687.056	54
687.242	54.02
687.429	54.05
687.615	53.94
687.801	53.93
687.987	54.17
688.174	54.26
688.36	54.26
688.546	54.28
688.732	54.39
688.918	54.48
689.105	54.54
689.291	54.27
689.477	53.97
689.663	54.37
689.849	54.56
690.035	54.56
690.221	54.47
690.407	54.6
690.593	54.64
690.779	54.6
690.965	54.65
691.151	54.76
691.337	55
691.523	55.46
691.709	55.29
691.895	55.3
692.081	55.34
692.267	55.72
692.453	55.59
692.639	55.65
692.825	55.74
693.011	55.83
693.196	55.61
693.382	55.53
693.568	55.37
693.754	55.23
693.94	55.49
694.125	55.37
694.311	55.45
694.497	55.52
694.682	55.5
694.868	55.46
695.054	55.71
695.239	56.11
695.425	56.57
695.611	56.69
695.796	56.58
695.982	56.3
696.168	56.31
696.353	55.7
696.539	55.19
696.724	54.87
696.91	54.39
697.095	53.89
697.281	53.37
697.466	52.62
697.652	52.1
697.837	51.95
698.023	51.59
698.208	51.29
698.393	51.23
698.579	51.1
698.764	50.86
698.949	50.95
699.135	50.82
699.32	50.72
699.505	50.75
699.691	50.84
699.876	50.79
700.061	51.1
700.246	51.55
700.432	51.79
700.617	52.35
700.802	52.6
700.987	52.82
701.172	53.58
701.358	54.07
701.543	54.94
701.728	55.41
701.913	56.56
702.098	57.23
702.283	57.51
702.468	57.76
702.653	57.9
702.838	58.57
703.023	59.23
703.208	59
703.393	59.44
703.578	60.19
703.763	60.79
703.948	60.58
704.133	60.94
704.318	61.21
704.503	62.16
704.688	62.73
704.873	63.49
705.057	64.12
705.242	64.41
705.427	64.69
705.612	64.81
705.797	64.87
705.981	65.2
706.166	65.42
706.351	65.75
706.536	65.4
706.72	65.51
706.905	65.53
707.09	65.32
707.274	65.75
707.459	65.99
707.644	65.6
707.828	66.11
708.013	65.9
708.197	65.91
708.382	65.51
708.567	65.65
708.751	65.54
708.936	64.87
709.12	64.36
709.305	64.09
709.489	63.71
709.673	63.94
709.858	63.49
710.042	63.87
710.227	63.66
710.411	64.2
710.596	63.82
710.78	63.91
710.964	64.35
711.149	64.6
711.333	64.82
711.517	65.01
711.702	64.57
711.886	64.67
712.07	64.07
712.254	63.79
712.438	63.41
712.623	63.19
712.807	62.65
712.991	62.41
713.175	61.82
713.359	61.35
713.544	60.74
713.728	60.45
713.912	59.73
714.096	59.6
714.28	59.1
714.464	58.77
714.648	58.7
714.832	58.52
715.016	57.99
715.2	58.01
715.384	57.63
715.568	57.38
715.752	57.22
715.936	57.21
716.12	57.09
716.304	57.32
716.488	57.05
716.671	56.79
716.855	56.71
717.039	56.7
717.223	56.7
717.407	56.58
717.59	57.03
717.774	57.27
717.958	57.32
718.142	57.42
718.325	57.52
718.509	58.26
718.693	58.56
718.877	58.47
719.06	58.78
719.244	59.23
719.428	59.89
719.611	59.94
719.795	59.95
719.978	60.26
720.162	60.91
720.345	60.94
720.529	60.69
720.713	60.92
720.896	62.24
721.08	62.48
721.263	62.71
721.446	62.97
721.63	62.58
721.813	62.83
721.997	62.9
722.18	62.6
722.364	62.7
722.547	62.67
722.73	63.09
722.914	62.43
723.097	62.41
723.28	62.49
723.464	62.09
723.647	62.62
723.83	61.94
724.013	61.93
724.197	62.23
724.38	61.69
724.563	61.69
724.746	61.35
724.929	61.23
725.112	61.23
725.296	60.94
725.479	60.72
725.662	60.56
725.845	60.78
726.028	60.46
726.211	60.06
726.394	60.29
726.577	59.67
726.76	60.03
726.943	59.77
727.126	60.02
727.309	59.47
727.492	59.53
727.675	59.46
727.858	59.49
728.041	59.79
728.224	60.29
728.407	60.15
728.589	60.32
728.772	59.94
728.955	59.95
729.138	59.39
729.321	59.69
729.503	59.89
729.686	59.93
729.869	60.01
730.052	60.01
730.234	59.57
730.417	60.47
730.6	60.42
730.782	60.21
730.965	60.09
731.148	60.02
731.33	59.86
731.513	59.72
731.695	59.77
731.878	59.96
732.061	60.16
732.243	59.81
732.426	58.82
732.608	59.02
732.791	59.39
732.973	59.27
733.156	59.96
733.338	60.25
733.52	60.78
733.703	60.8
733.885	61.16
734.068	60.73
734.25	61.72
734.432	62.2
734.615	62.66
734.797	63.2
734.979	63.89
735.162	63.83
735.344	63.78
735.526	63.83
735.708	64.23
735.891	64.66
736.073	65.53
736.255	65.36
736.437	65.67
736.619	65.12
736.802	64.61
736.984	64.94
737.166	65.03
737.348	65.21
737.53	65.44
737.712	64.93
737.894	64.57
738.076	64.45
738.258	64.22
738.44	64.13
738.622	64.76
738.804	64.72
738.986	64.46
739.168	64.17
739.35	65.13
739.532	65.06
739.714	66.13
739.896	66.09
740.078	66.14
740.259	66.46
740.441	66.87
740.623	66.41
740.805	66.6
740.987	66.98
741.168	67.62
741.35	66.52
741.532	66.49
741.714	65.97
741.895	66.55
742.077	67.07
742.259	67.44
742.44	67.88
742.622	68.61
742.804	69.5
742.985	69.88
743.167	70.08
743.348	70.16
743.53	70.37
743.711	70.57
743.893	70.61
744.075	70.42
744.256	70.77
744.438	70.52
744.619	71.33
744.8	71.11
744.982	71.64
745.163	71.27
745.345	72.26
745.526	72.68
745.707	72.76
745.889	73.16
746.07	73.27
746.252	72.52
746.433	72.43
746.614	70.92
746.795	70.05
746.977	69.71
747.158	69.79
747.339	69.91
747.52	70.11
747.702	70.02
747.883	69.98
748.064	69.61
748.245	69.46
748.426	70.13
748.607	71.16
748.788	70.76
748.97	70.12
749.151	69.62
749.332	69.74
749.513	69.53
749.694	69.43
749.875	69.27
750.056	69.83
750.237	69.98
750.418	69.5
750.599	69.12
750.78	70.29
750.96	70.31
751.141	70.55
751.322	70.45
751.503	70.24
751.684	70.04
751.865	70.56
752.046	70.66
752.226	70.84
752.407	71.12
752.588	71.31
752.769	71.3
752.949	71.61
753.13	72.5
753.311	72.24
753.492	72.18
753.672	72.08
753.853	71.52
754.034	71.08
754.214	71.39
754.395	70.19
754.575	70.75
754.756	70.27
754.937	70.78
755.117	71.01
755.298	70.62
755.478	70.39
755.659	70.69
755.839	70.53
756.02	70.36
756.2	70.96
756.381	71.59
756.561	71.5
756.741	72
756.922	71.3
757.102	70.87
757.283	71.38
757.463	72.07
757.643	71.76
757.823	70.81
758.004	69.8
758.184	68.54
758.364	68.44
758.545	67.68
758.725	67.41
758.905	66.71
759.085	65.39
759.265	63.71
759.446	62.52
759.626	61.94
759.806	61.98
759.986	62.14
760.166	61.49
760.346	60.44
760.526	59.88
760.706	58.79
760.886	58.42
761.066	58.97
761.246	59.61
761.426	59.75
761.606	59.61
761.786	59.64
761.966	59.76
762.146	59.93
762.326	59.4
762.506	59.25
762.686	59.14
762.866	58.94
763.046	58.04
763.225	57.64
763.405	57.13
763.585	57.27
763.765	57.13
763.945	56.49
764.124	56.3
764.304	57.25
764.484	57.68
764.664	57.91
764.843	58.27
765.023	58.87
765.203	59.64
765.382	60.56
765.562	61.2
765.741	61.21
765.921	62.82
766.101	64.17
766.28	64.45
766.46	64.59
766.639	65.08
766.819	66.1
766.998	67.39
767.178	68.19
767.357	69.16
767.537	69.98
767.716	70.99
767.896	71.19
768.075	71.37
768.254	71.84
768.434	72.75
768.613	73.75
768.792	74.22
768.972	73.55
769.151	73.97
769.33	74.08
769.51	74.04
769.689	74.53
769.868	75.64
770.047	75.88
770.226	76.45
770.406	76.99
770.585	77.35
770.764	77.49
770.943	78.19
771.122	77.93
771.301	77.39
771.48	77.63
771.66	77.48
771.839	77.16
772.018	77.14
772.197	77.56
772.376	77.42
772.555	77.3
772.734	77.15
772.913	78.42
773.092	78.66
773.271	78.83
773.449	79.14
773.628	80.26
773.807	79.81
773.986	80.47
774.165	80.24
774.344	80.98
774.523	81.38
774.701	82.03
774.88	81.25
775.059	80.68
775.238	81.71
775.417	82.64
775.595	82.16
775.774	82.6
775.953	82.24
776.131	83
776.31	82
776.489	81.89
776.667	81.91
776.846	82.15
777.025	82.57
777.203	81.61
777.382	81.54
777.56	82.3
777.739	81.84
777.917	82.58
778.096	82
778.274	82.55
778.453	82.39
778.631	82.21
778.81	81.18
778.988	81.34
779.166	81.43
779.345	81.52
779.523	80.71
779.702	81.79
779.88	81.68
780.058	81.77
780.237	82.27
780.415	83.67
780.593	83.83
780.771	85.1
780.95	86.15
781.128	87.03
781.306	86.08
781.484	87.47
781.662	86.62
781.841	85.26
782.019	86.29
782.197	85.07
782.375	83.29
782.553	82.56
782.731	81.36
782.909	81.11
783.087	80.79
783.265	82
783.443	81.15
783.621	81.7
783.799	82.85
783.977	81.65
784.155	83.34
784.333	83.72
784.511	84.88
784.689	86.04
784.867	85.62
785.045	84.44
785.223	83.86
785.4	83.51
785.578	83.72
785.756	83.47
785.934	82.59
786.112	81.69
786.289	81.49
786.467	80.57
786.645	79.54
786.823	78.75
787	79.71
787.178	78
787.356	76.35
787.533	75.72
787.711	74.5
787.889	73.93
788.066	73.28
788.244	73.53
788.421	73.29
788.599	73.11
788.776	73.75
788.954	74.09
789.131	74.92
789.309	76.67
789.486	76.4
789.664	77.99
789.841	80.02
790.019	80.84
790.196	82.55
790.373	83.57
790.551	85.34
790.728	84.68
790.906	84.07
791.083	83.73
791.26	82.71
791.437	82.47
791.615	82.32
791.792	81.71
791.969	81.02
792.146	79.38
792.324	80.07
792.501	79.94
792.678	79.63
792.855	80.47
793.032	81.25
793.209	81.78
793.387	82.56
793.564	83.38
793.741	84.34
793.918	86.56
794.095	85.89
794.272	84.83
794.449	83.57
794.626	83.76
794.803	83.71
794.98	82.67
795.157	83.78
795.334	82.96
795.511	81.72
795.688	81.01
795.864	79.59
796.041	80.28
796.218	79.98
796.395	80.46
796.572	79.96
796.749	79.33
796.925	80.15
797.102	78.43
797.279	78.11
797.456	78.27
797.632	78.31
797.809	77.49
797.986	76.82
798.162	77.91
798.339	76.83
798.516	77.17
798.692	77.02
798.869	76.57
799.046	77.75
799.222	79.18
799.399	78.57
799.575	78.28
799.752	79.71
799.928	80.01
800.105	79.18
800.281	80.44
800.458	80.66
800.634	80.89
800.811	81.62
800.987	81.89
801.163	81.61
801.34	82.7
801.516	81.98
801.692	80.55
801.869	81.01
802.045	81.13
802.221	81.12
802.398	82.36
802.574	82.06
802.75	81.39
802.926	81.1
803.103	81.84
803.279	80.99
803.455	83.33
803.631	84.94
803.807	84.17
803.983	85.37
804.16	86.81
804.336	87.13
804.512	89.12
804.688	91.37
804.864	90.2
805.04	90.28
805.216	93.16
805.392	93.47
805.568	93.52
805.744	92.99
805.92	93.45
806.096	91.79
806.272	92.12
806.448	91.18
806.623	90.15
806.799	91.26
806.975	90.37
807.151	87.64
807.327	86.04
807.503	85.5
807.678	87.19
807.854	86.12
808.03	85.53
808.206	85.34
808.381	84.93
808.557	84.67
808.733	84.87
808.908	85.78
809.084	86.28
809.26	86.63
809.435	85.8
809.611	85.71
809.787	86.46
809.962	89.12
810.138	88.53
810.313	88.1
810.489	88.57
810.664	87.16
810.84	84.89
811.015	85.75
811.191	86.45
811.366	87.52
811.542	87.15
811.717	85.23
811.892	82.31
812.068	82.29
812.243	81.78
812.419	81.69
812.594	83.16
812.769	84.62
812.944	84.69
813.12	84.22
813.295	85.17
813.47	85.67
813.645	86.32
813.821	89.18
813.996	89.34
814.171	91.51
814.346	91.6
814.521	90.9
814.697	90.31
814.872	88.75
815.047	89.23
815.222	87.64
815.397	86.49
815.572	87.3
815.747	85.72
815.922	83.87
816.097	82.97
816.272	83.61
816.447	83.9
816.622	83.82
816.797	84.29
816.972	82.47
817.147	81.56
817.322	83.09
817.496	82.59
817.671	82.8
817.846	83.57
818.021	82.47
818.196	80.97
818.371	80.8
818.545	80.42
818.72	79.87
818.895	78.78
819.069	76.98
819.244	74.86
819.419	72.88
819.594	72.19
819.768	70.65
819.943	69.84
820.117	68.73
820.292	65.51
820.467	63.02
820.641	60.74
820.816	58.73
820.99	57.19
821.165	55.44
821.339	54.39
821.514	53.17
821.688	52.25
821.863	51.21
822.037	50.38
822.212	49.94
822.386	49.52
822.56	48.96
822.735	48.86
822.909	48.74
823.084	48.57
823.258	48.42
823.432	48.19
823.606	48.15
823.781	48.33
823.955	48.32
824.129	48.51
824.303	48.83
824.478	49.71
824.652	50.23
824.826	50.8
825	51.8
825.174	52.17
825.348	53.05
825.523	53.7
825.697	54.19
825.871	55.05
826.045	55.98
826.219	56.48
826.393	56.04
826.567	55.37
826.741	55.23
826.915	54.89
827.089	54.79
827.263	54.46
827.437	54.45
827.611	54.6
827.784	54.96
827.958	54.57
828.132	54.79
828.306	55.07
828.48	55.93
828.654	56.52
828.827	57.26
829.001	58.66
829.175	59.95
829.349	61.25
829.522	61.74
829.696	62.99
829.87	64.72
830.044	66.74
830.217	69.69
830.391	70.83
830.565	71.69
830.738	72.83
830.912	74.04
831.085	73.89
831.259	74.83
831.432	76.22
831.606	76.2
831.779	76.47
831.953	73.95
832.126	71.48
832.3	71.51
832.473	70.95
832.647	69.46
832.82	67.75
832.994	67.12
833.167	66.01
833.34	64.45
833.514	63.67
833.687	62.79
833.86	63.52
834.034	62.46
834.207	61.3
834.38	61.21
834.553	61.67
834.727	61.78
834.9	62.14
835.073	62.22
835.246	62.61
835.419	62.95
835.593	63.42
835.766	63.22
835.939	66.31
836.112	68.92
836.285	70.25
836.458	70.7
836.631	71.26
836.804	72.2
836.977	75.47
837.15	79.3
837.323	81.78
837.496	84.46
837.669	87.12
837.842	87.65
838.015	86.64
838.188	88.9
838.361	91.07
838.533	93
838.706	97
838.879	94.09
839.052	92.45
839.225	92.22
839.398	90.31
839.57	88.34
839.743	87.36
839.916	86.48
840.088	87.39
840.261	86.57
840.434	86.92
840.607	85.6
840.779	86.15
840.952	88.78
841.124	88.56
841.297	89.11
841.47	91.55
841.642	91.75
841.815	95.25
841.987	93.74
842.16	93.68
842.332	97.03
842.505	97.22
842.677	98.39
842.85	97.54
843.022	98.59
843.194	102.15
843.367	104.51
843.539	106.84
843.712	107.7
843.884	109.26
844.056	117.58
844.229	117.5
844.401	117.16
844.573	119.39
844.745	121.58
844.918	123.24
845.09	125.73
845.262	126.19
845.434	131.44
845.606	134.04
845.779	139.42
845.951	136.69
846.123	136.06
846.295	137.2
846.467	136.9
846.639	133.01
846.811	134.19
846.983	132.13
847.155	131.09
847.327	130.95
847.499	131.23
847.671	132.62
847.843	134.46
848.015	134.72
848.187	138.69
848.359	139.36
848.531	140.21
848.703	139.41
848.875	142.35
849.047	140.51
849.218	133.69
849.39	134.09
849.562	127.59
849.734	124.74
849.905	123.78
850.077	121.75
850.249	118.86
850.421	119.13
850.592	121.45
850.764	121.45
850.936	126.01
851.107	130.76
851.279	132.49
851.451	139.04
851.622	138.03
851.794	143.41
851.965	144.15
852.137	146.86
852.308	153.68
852.48	146.86
852.651	143.48
852.823	138.43
852.994	135.35
853.166	135.36
853.337	128.45
853.509	127.66
853.68	118.27
853.851	119.02
854.023	118.56
854.194	115.88
854.365	121.52
854.537	123.39
854.708	120.47
854.879	120.71
855.05	120.34
855.222	119.27
855.393	120.48
855.564	124.41
855.735	122.89
855.906	121.73
856.078	118.3
856.249	113.43
856.42	109.38
856.591	111.39
856.762	107.73
856.933	109.46
857.104	114.25
857.275	116.38
857.446	120.21
857.617	124.68
857.788	125.53
857.959	127.67
858.13	133.65
858.301	144.28
858.472	146.37
858.643	155.12
858.814	154.59
858.985	147.46
859.155	148.68
859.326	148.58
859.497	144.94
859.668	148.46
859.839	157.45
860.009	155.13
860.18	150.12
860.351	146.57
860.522	148.3
860.692	141.43
860.863	149.97
861.034	151.16
861.204	151.26
861.375	152.88
861.546	149.45
861.716	141.27
861.887	145.14
862.057	140.55
862.228	138.76
862.398	141.72
862.569	143.18
862.739	138.36
862.91	129.52
863.08	130.4
863.251	127.7
863.421	127.34
863.592	128.02
863.762	124.78
863.932	128.6
864.103	127.2
864.273	124.05
864.443	126.45
864.614	123.86
864.784	124.23
864.954	120.89
865.125	125.38
865.295	127.93
865.465	127.95
865.635	126.35
865.805	126.65
865.976	133.03
866.146	134.51
866.316	136.09
866.486	143.99
866.656	149.5
866.826	154.47
866.996	153.75
867.166	152.46
867.336	150.34
867.506	156.53
867.676	150.74
867.846	145.63
868.016	146.72
868.186	146.06
868.356	145
868.526	146.36
868.696	146.11
868.866	140.92
869.036	142.95
869.206	140.97
869.376	132.07
869.545	134.72
869.715	138.74
869.885	127.99
870.055	127.47
870.224	128.85
870.394	123.98
870.564	124
870.734	123.57
870.903	121.83
871.073	122.72
871.243	130.37
871.412	125.66
871.582	124.63
871.751	127.86
871.921	128.13
872.091	121.47
872.26	120.02
872.43	120.32
872.599	121.47
872.769	120.39
872.938	123.54
873.108	122.54
873.277	130.66
873.446	123.63
873.616	126.22
873.785	124.47
873.955	128.37
874.124	136.62
874.293	133.14
874.463	130.88
874.632	128.48
874.801	123.59
874.971	120.64
875.14	119.62
875.309	127.93
875.478	127.62
875.647	125.41
875.817	125.56
875.986	119.97
876.155	122.14
876.324	127.21
876.493	133.54
876.662	132.19
876.831	130.21
877	128.58
877.17	127.41
877.339	126.82
877.508	125.74
877.677	128.06
877.846	126.87
878.015	124.99
878.184	118.72
878.352	118.01
878.521	115.08
878.69	112.06
878.859	110.06
879.028	109.73
879.197	102.84
879.366	101.46
879.534	95.67
879.703	93.34
879.872	89.48
880.041	88.54
880.21	81.8
880.378	78.84
880.547	76.08
880.716	72.37
880.884	66.7
881.053	65.73
881.222	63.96
881.39	62.04
881.559	58.3
881.727	56.33
881.896	54.26
882.065	53
882.233	51.92
882.402	51.51
882.57	50.25
882.739	51.26
882.907	50.29
883.076	49.62
883.244	49.54
883.412	52.16
883.581	52.65
883.749	52.96
883.918	54.34
884.086	56.55
884.254	57.38
884.423	59.46
884.591	60.7
884.759	63.99
884.927	67.94
885.096	71.18
885.264	73.02
885.432	76.66
885.6	81.78
885.769	86.4
885.937	85.94
886.105	88.88
886.273	90.17
886.441	90.7
886.609	90.54
886.777	89.94
886.945	92.17
887.113	94.67
887.281	97.55
887.449	98.98
887.617	101.11
887.785	104.76
887.953	108.61
888.121	116.9
888.289	121.08
888.457	119.65
888.625	120.21
888.793	120.32
888.961	115.43
889.129	113.33
889.296	113.02
889.464	109.68
889.632	109.5
889.8	107.93
889.967	105.18
890.135	100.98
