Data from 2938732__Reflection_01.txt Node
Date: Sun Mar 15 18:44:20 EDT 2015
User: robert
Spectrometer: USB4E03002
Autoset integration time: false
Trigger mode: 4
Integration Time (sec): 1.000000E-1
Scans to average: 10
Electric dark correction enabled: false
Nonlinearity correction enabled: false
Boxcar width: 5
Stray light correction enabled: false
XAxis mode: Wavelengths
Stop averaging: false
Number of Pixels in Spectrum: 3648
>>>>>Begin Spectral Data<<<<<
177.575	149.4
177.794	-262
178.014	-231.58
178.233	2585.71
178.452	1213.33
178.672	397.3
178.891	313.64
179.11	126.56
179.33	478.08
179.549	332.14
179.768	142.07
179.987	170.51
180.207	110.23
180.426	135.14
180.645	293
180.864	345.76
181.084	218.78
181.303	189.07
181.522	352.54
181.741	141.22
181.96	277.48
182.179	1900
182.398	-944.9
182.618	-747.62
182.837	-432.8
183.056	-369.88
183.275	-703.7
183.494	-441.18
183.713	-79.12
183.932	-74.79
184.151	-39.83
184.37	-37.05
184.589	-47.8
184.808	-19.75
185.027	-87.8
185.246	22.22
185.465	88.16
185.684	36.9
185.903	-16.67
186.122	2.78
186.341	-65.22
186.56	20.92
186.779	-299.05
186.998	712.2
187.216	86.42
187.435	83.81
187.654	123.91
187.873	124.88
188.092	150
188.311	179.25
188.53	103.02
188.748	150.9
188.967	66.54
189.186	-109.49
189.405	-112.12
189.623	-75
189.842	817.24
190.061	403.61
190.28	377.11
190.498	10866.67
190.717	-5800
190.936	80.21
191.154	70.1
191.373	9.91
191.592	4.32
191.81	29.29
192.029	42.86
192.248	-48.2
192.466	201.74
192.685	160.55
192.904	263.93
193.122	290.05
193.341	1246.15
193.559	576.03
193.778	892.86
193.996	494.68
194.215	506.79
194.433	448.02
194.652	238.78
194.87	149.42
195.089	141.9
195.307	116.15
195.526	87.64
195.744	89.58
195.963	-89.22
196.181	-232.79
196.399	-56.58
196.618	-115.71
196.836	-1206.67
197.055	-60.27
197.273	-100.46
197.491	-90
197.71	-110.73
197.928	-62.42
198.146	-195.48
198.365	-4657.14
198.583	-232.5
198.801	-171.79
199.019	-176.25
199.238	30.15
199.456	-5.94
199.674	88.14
199.892	134.72
200.111	183.04
200.329	-131.03
200.547	82.3
200.765	30
200.983	0
201.202	21.4
201.42	61
201.638	26.52
201.856	33.08
202.074	0.23
202.292	-1.15
202.51	12.06
202.728	22.62
202.946	32.59
203.165	40.19
203.383	30.72
203.601	-0.97
203.819	-33.51
204.037	-4.84
204.255	-78.99
204.473	-29.46
204.691	-84.57
204.909	-180.21
205.127	982.14
205.345	179.17
205.562	202.15
205.78	179.73
205.998	28.42
206.216	78.4
206.434	76.73
206.652	40.32
206.87	19.48
207.088	55
207.306	31.41
207.523	122.7
207.741	135.29
207.959	156.82
208.177	-190.91
208.395	-147.49
208.612	-571.93
208.83	-244.52
209.048	-476.92
209.266	-658.49
209.483	-260.84
209.701	-209.57
209.919	-103.13
210.136	-44.28
210.354	-32.11
210.572	-1.4
210.79	11.41
211.007	26.42
211.225	13.85
211.442	5.9
211.66	-1.36
211.878	-6.25
212.095	-81.13
212.313	-103.79
212.53	-154.67
212.748	-239.86
212.966	-167.11
213.183	-118.23
213.401	-93.44
213.618	-71.15
213.836	-113.87
214.053	-125.88
214.271	-132.73
214.488	-4.55
214.705	5.82
214.923	2.51
215.14	10.9
215.358	-3.17
215.575	-20.35
215.793	-21.31
216.01	-4.45
216.227	24.89
216.445	25.98
216.662	52.73
216.879	23.73
217.097	7.83
217.314	-29.55
217.531	5.53
217.749	3.01
217.966	-102.84
218.183	-44.49
218.4	-96.56
218.618	-211.67
218.835	-130.8
219.052	-105.93
219.269	-89.55
219.487	-52.17
219.704	-48.73
219.921	-76.72
220.138	-76.19
220.355	-55.34
220.572	-62.89
220.79	-44.85
221.007	-61.13
221.224	-62.81
221.441	-72.33
221.658	-62.64
221.875	-70.21
222.092	-61.61
222.309	-53.33
222.526	-52.38
222.743	-47.81
222.96	-53.88
223.177	-77.68
223.394	-52.08
223.611	-59.53
223.828	-54.46
224.045	-65.27
224.262	-62.35
224.479	-62.38
224.696	-58.26
224.913	-51.71
225.13	-49.64
225.347	-48.47
225.564	-46.57
225.781	-35.99
225.997	-19.94
226.214	-19.53
226.431	-12.74
226.648	-14.84
226.865	-12.34
227.082	-10.44
227.298	-7.01
227.515	-5.06
227.732	-4.39
227.949	-1.63
228.165	-2.65
228.382	-4.46
228.599	-6.7
228.816	-6.11
229.032	-4.27
229.249	-3.28
229.466	-3.24
229.682	-3.9
229.899	-5.12
230.116	-4.76
230.332	-6.82
230.549	-8.86
230.765	-7.62
230.982	-6.91
231.199	-9.2
231.415	-10.02
231.632	-12.01
231.848	-16.07
232.065	-18.48
232.281	-17.97
232.498	-19.53
232.714	-18.98
232.931	-17.49
233.147	-18.46
233.364	-15.12
233.58	-16.01
233.797	-17.39
234.013	-18.96
234.23	-15.55
234.446	-14.07
234.662	-14.55
234.879	-17.42
235.095	-14.4
235.312	-14.56
235.528	-14.71
235.744	-20.65
235.961	-19.78
236.177	-19.78
236.393	-15.88
236.61	-13.06
236.826	-12.53
237.042	-14.03
237.258	-12.07
237.475	-15.3
237.691	-13.48
237.907	-13.34
238.123	-7.65
238.339	-10.12
238.556	-8.01
238.772	-9.23
238.988	-11.28
239.204	-11.55
239.42	-9.84
239.636	-9.72
239.853	-9.24
240.069	-9.14
240.285	-9.01
240.501	-8.64
240.717	-5.1
240.933	-5.56
241.149	-4.7
241.365	-5.52
241.581	-4.89
241.797	-3.72
242.013	-3.21
242.229	-2.9
242.445	-3.43
242.661	-4.23
242.877	-4.32
243.093	-5.87
243.309	-5.93
243.525	-6.01
243.741	-5.21
243.957	-4.93
244.173	-6.19
244.388	-6.2
244.604	-5.51
244.82	-4.83
245.036	-3.99
245.252	-4.18
245.468	-2.18
245.683	-1.53
245.899	-1.25
246.115	-0.98
246.331	-1.42
246.547	-0.54
246.762	0.13
246.978	0.12
247.194	0.19
247.409	0.51
247.625	0.67
247.841	0.21
248.057	-0.29
248.272	-0.9
248.488	-1.08
248.703	-0.82
248.919	-1.11
249.135	-2.33
249.35	-2.89
249.566	-2.85
249.782	-3.58
249.997	-4.27
250.213	-4.7
250.428	-3.88
250.644	-3.23
250.859	-3.07
251.075	-3
251.29	-3.22
251.506	-3.2
251.721	-4.4
251.937	-4.48
252.152	-4.15
252.368	-4.65
252.583	-4.02
252.798	-4.74
253.014	-5.24
253.229	-5.12
253.445	-5.56
253.66	-6.23
253.875	-6.33
254.091	-5.54
254.306	-5.88
254.521	-5.92
254.737	-5.22
254.952	-6.03
255.167	-4.62
255.383	-3.57
255.598	-4.7
255.813	-4.47
256.028	-3.63
256.244	-2.61
256.459	-3
256.674	-2.99
256.889	-3.51
257.104	-2.81
257.32	-2.59
257.535	-3.51
257.75	-3.79
257.965	-3.44
258.18	-2.8
258.395	-2.79
258.61	-1.94
258.826	-1.19
259.041	-1.42
259.256	-0.99
259.471	-0.43
259.686	-0.48
259.901	-0.13
260.116	0.19
260.331	0.67
260.546	0.54
260.761	0.55
260.976	-0.15
261.191	-0.2
261.406	0.14
261.621	0.19
261.836	-0.79
262.05	-0.82
262.265	-0.89
262.48	-1.68
262.695	-2.65
262.91	-2.27
263.125	-2.29
263.34	-1.32
263.555	-2
263.769	-2.76
263.984	-3.1
264.199	-1.88
264.414	-1.86
264.629	-2.38
264.843	-2.48
265.058	-2.24
265.273	-2.88
265.488	-3.02
265.702	-3.52
265.917	-2.95
266.132	-2.27
266.346	-2.32
266.561	-2.5
266.776	-2.04
266.99	-2.21
267.205	-1.66
267.42	-1.46
267.634	-1.37
267.849	-1.35
268.063	-1.55
268.278	-1.24
268.492	-1.55
268.707	-1.49
268.922	-1.74
269.136	-1.86
269.351	-0.99
269.565	-1.13
269.78	-0.84
269.994	-1.36
270.209	-1.61
270.423	-1.43
270.637	-1.74
270.852	-1.41
271.066	-1.13
271.281	-0.73
271.495	-0.86
271.709	-1.61
271.924	-1.2
272.138	-1.63
272.353	-1.33
272.567	-1.17
272.781	-1.02
272.996	-0.78
273.21	-0.37
273.424	-0.88
273.638	-1.03
273.853	-1.1
274.067	-0.07
274.281	-0.82
274.495	-1.05
274.71	-1.18
274.924	-0.99
275.138	-1.25
275.352	-1
275.566	-2.01
275.781	-1.4
275.995	-1.46
276.209	-0.98
276.423	-1.88
276.637	-2.19
276.851	-1.94
277.065	-1.63
277.279	-1.59
277.493	-1.32
277.707	-2.15
277.921	-1.66
278.135	-2.02
278.349	-2.65
278.563	-3.73
278.777	-3.29
278.991	-2.76
279.205	-2.8
279.419	-2.35
279.633	-2.4
279.847	-2.67
280.061	-2.55
280.275	-2.39
280.489	-2.7
280.703	-2.49
280.917	-1.41
281.131	-1.5
281.344	-0.99
281.558	-0.32
281.772	-1.1
281.986	-0.96
282.2	-0.61
282.414	-0.24
282.627	-0.32
282.841	-0.37
283.055	0.13
283.269	-0.29
283.482	-0.45
283.696	-1.07
283.91	-1.01
284.123	-1.09
284.337	-0.93
284.551	-0.89
284.764	-0.65
284.978	-0.63
285.192	-0.6
285.405	-0.68
285.619	-0.66
285.833	-0.58
286.046	-0.7
286.26	-1.22
286.473	-0.94
286.687	-1.02
286.9	-0.95
287.114	-0.96
287.327	-0.99
287.541	-0.53
287.754	-1.11
287.968	-1.25
288.181	-1.05
288.395	-0.64
288.608	0
288.822	-0.18
289.035	-0.06
289.248	-0.23
289.462	-0.67
289.675	-1.14
289.889	-1.35
290.102	-0.75
290.315	-0.55
290.529	-0.7
290.742	-0.77
290.955	-1.01
291.169	-0.79
291.382	-1.13
291.595	-1.03
291.808	-1.24
292.022	-1.08
292.235	-0.88
292.448	-1.35
292.661	-1.52
292.875	-1.85
293.088	-1.83
293.301	-2.08
293.514	-1.95
293.727	-2.21
293.94	-2.15
294.153	-1.6
294.367	-1.53
294.58	-1.83
294.793	-1.54
295.006	-1.11
295.219	-0.89
295.432	-0.64
295.645	-0.48
295.858	-0.63
296.071	-0.16
296.284	-0.16
296.497	-0.09
296.71	0.03
296.923	0.12
297.136	0.4
297.349	0.53
297.562	0.7
297.775	0.96
297.988	0.85
298.201	1.25
298.414	1.12
298.626	1.21
298.839	1.09
299.052	1.52
299.265	1.8
299.478	1.76
299.691	1.65
299.903	1.26
300.116	0.46
300.329	0.88
300.542	0.64
300.755	0.63
300.967	0.76
301.18	0.85
301.393	1.09
301.605	1.34
301.818	0.99
302.031	0.57
302.243	1.04
302.456	1.4
302.669	0.82
302.881	0.54
303.094	1.03
303.307	0.75
303.519	0.81
303.732	0.21
303.944	0.08
304.157	0.13
304.37	0.23
304.582	0.24
304.795	0.56
305.007	0.91
305.22	1.08
305.432	0.76
305.645	0.73
305.857	0.37
306.069	0.52
306.282	0.15
306.494	0.21
306.707	0.57
306.919	0.1
307.132	-0.06
307.344	-0.01
307.556	0.28
307.769	0.67
307.981	1.05
308.193	1.02
308.406	0.64
308.618	0.94
308.83	1.13
309.043	1.3
309.255	1.66
309.467	1.63
309.679	1.53
309.892	0.99
310.104	0.72
310.316	0.53
310.528	0.43
310.74	0.67
310.953	0.41
311.165	0.36
311.377	0.17
311.589	0.27
311.801	0.62
312.013	0.55
312.225	1.1
312.437	1.27
312.649	1.11
312.862	1.51
313.074	1.43
313.286	1.27
313.498	1.23
313.71	1.21
313.922	1.08
314.134	0.46
314.346	1.12
314.558	0.89
314.77	0.75
314.982	0.76
315.193	0.7
315.405	0.81
315.617	1.17
315.829	1.6
316.041	1.25
316.253	0.95
316.465	0.89
316.677	0.03
316.888	-0.38
317.1	0.16
317.312	0.9
317.524	0.68
317.736	1.25
317.947	2.02
318.159	1.22
318.371	0.96
318.583	1.62
318.794	1.9
319.006	1.84
319.218	2.21
319.43	1.76
319.641	1.34
319.853	1.66
320.064	1.42
320.276	0.72
320.488	1.13
320.699	2.21
320.911	1.96
321.123	2.11
321.334	2.61
321.546	2.7
321.757	3.1
321.969	3.12
322.18	2.9
322.392	3.49
322.603	3.85
322.815	4.28
323.026	4.51
323.238	4.49
323.449	4.54
323.661	4.17
323.872	4.11
324.083	3.55
324.295	3.43
324.506	3.71
324.718	3.61
324.929	3.94
325.14	3.9
325.352	3.75
325.563	4.12
325.774	4.43
325.986	5.05
326.197	5.59
326.408	5.89
326.62	5.99
326.831	6.36
327.042	6.33
327.253	6.59
327.464	6.87
327.676	7.01
327.887	7.3
328.098	7.37
328.309	7.48
328.52	7.43
328.732	7.81
328.943	7.87
329.154	7.77
329.365	8.29
329.576	8.75
329.787	9.15
329.998	9.35
330.209	9.27
330.42	9.38
330.631	9.83
330.842	10.66
331.053	11.19
331.264	12.39
331.475	13.19
331.686	13.31
331.897	12.52
332.108	12.56
332.319	13.19
332.53	13.12
332.741	13.68
332.952	13.95
333.163	13.5
333.374	13.62
333.585	13.3
333.795	13.09
334.006	13.15
334.217	13.41
334.428	13.79
334.639	13.35
334.849	13.43
335.06	13.78
335.271	13.48
335.482	13.76
335.692	13.35
335.903	13.49
336.114	13.76
336.325	13.84
336.535	14.13
336.746	14.23
336.957	14.25
337.167	14.22
337.378	13.49
337.589	12.94
337.799	12.24
338.01	12.62
338.22	12.86
338.431	12.71
338.642	12.67
338.852	12.68
339.063	12.12
339.273	11.78
339.484	12.28
339.694	12.66
339.905	13.21
340.115	13.66
340.326	13.86
340.536	13.59
340.746	13.83
340.957	13.39
341.167	13.4
341.378	13.88
341.588	14.44
341.799	14.38
342.009	14.17
342.219	14.28
342.43	14.67
342.64	14.51
342.85	14.47
343.061	14.42
343.271	14.79
343.481	14.68
343.691	14.49
343.902	14.38
344.112	14.2
344.322	14.6
344.532	14.4
344.743	14.41
344.953	14.34
345.163	14.36
345.373	14.31
345.583	14.22
345.793	14.43
346.004	14.59
346.214	14.59
346.424	14.72
346.634	14.5
346.844	14.8
347.054	14.9
347.264	15.18
347.474	15.43
347.684	15.32
347.894	15.15
348.104	15
348.314	14.73
348.524	14.58
348.734	14.87
348.944	14.6
349.154	15
349.364	14.95
349.574	14.54
349.784	14.34
349.994	14.62
350.204	15.01
350.413	15.13
350.623	15.09
350.833	15.12
351.043	14.92
351.253	14.89
351.463	14.26
351.672	13.9
351.882	14
352.092	13.91
352.302	13.5
352.511	12.95
352.721	12.8
352.931	12.9
353.141	13.34
353.35	13.43
353.56	13.63
353.77	13.64
353.979	13.86
354.189	13.63
354.399	13.73
354.608	13.73
354.818	14.12
355.027	14.35
355.237	14.06
355.447	13.92
355.656	14.12
355.866	14.48
356.075	14.54
356.285	14.53
356.494	14.87
356.704	14.99
356.913	15.22
357.123	15.04
357.332	14.92
357.542	14.91
357.751	14.72
357.96	14.58
358.17	14.1
358.379	14.22
358.589	14.14
358.798	14.03
359.007	14.03
359.217	13.73
359.426	13.94
359.635	14.26
359.845	14.62
360.054	14.73
360.263	14.35
360.472	14.58
360.682	14.66
360.891	14.5
361.1	14.35
361.309	14.44
361.519	14.62
361.728	14.73
361.937	14.29
362.146	14.29
362.355	14.29
362.564	14.69
362.774	14.52
362.983	14.33
363.192	14.43
363.401	14.58
363.61	14.59
363.819	14.55
364.028	14.43
364.237	14.45
364.446	14.09
364.655	14.06
364.864	13.64
365.073	13.69
365.282	13.81
365.491	13.87
365.7	13.61
365.909	13.67
366.118	13.89
366.327	13.78
366.536	14.13
366.745	14.18
366.954	14.02
367.162	14.31
367.371	14.48
367.58	14.49
367.789	14.24
367.998	14.56
368.207	14.2
368.415	13.96
368.624	13.79
368.833	13.71
369.042	13.47
369.25	13.73
369.459	13.48
369.668	13.26
369.877	13.07
370.085	13.54
370.294	13.42
370.503	13.48
370.711	13.23
370.92	13.21
371.129	13.28
371.337	13.5
371.546	13.43
371.754	13.55
371.963	13.52
372.171	13.69
372.38	13.62
372.589	13.78
372.797	13.57
373.006	13.56
373.214	13.73
373.423	13.46
373.631	13.8
373.84	13.62
374.048	13.27
374.256	13.21
374.465	12.88
374.673	12.73
374.882	12.53
375.09	12.4
375.298	12.46
375.507	12.21
375.715	12.06
375.923	11.89
376.132	11.94
376.34	12.2
376.548	12.3
376.757	12.32
376.965	12.38
377.173	12.34
377.381	12.64
377.59	12.87
377.798	13.23
378.006	13.36
378.214	13.47
378.423	13.28
378.631	13.31
378.839	13.35
379.047	13.38
379.255	13.44
379.463	13.65
379.671	13.8
379.879	13.53
380.088	13.35
380.296	13.49
380.504	13.34
380.712	13.58
380.92	13.54
381.128	13.49
381.336	13.43
381.544	13.38
381.752	13.07
381.96	12.85
382.168	13.04
382.376	12.95
382.584	12.76
382.791	12.95
382.999	12.4
383.207	12.31
383.415	12.44
383.623	12.42
383.831	12.14
384.039	12.18
384.247	12.46
384.454	12.37
384.662	12.45
384.87	12.53
385.078	12.35
385.285	12.88
385.493	12.98
385.701	12.86
385.909	13.23
386.116	13.35
386.324	13.42
386.532	13.19
386.739	13.06
386.947	12.9
387.155	12.73
387.362	12.66
387.57	12.6
387.778	12.72
387.985	12.82
388.193	12.64
388.4	12.63
388.608	12.84
388.816	12.44
389.023	12.71
389.231	12.72
389.438	12.72
389.646	12.68
389.853	12.61
390.061	12.59
390.268	12.69
390.475	12.54
390.683	12.66
390.89	12.5
391.098	12.73
391.305	12.37
391.512	12.58
391.72	12.57
391.927	12.54
392.135	12.65
392.342	12.51
392.549	12.53
392.756	12.66
392.964	12.67
393.171	12.62
393.378	12.58
393.586	12.72
393.793	12.83
394	12.84
394.207	12.98
394.414	12.84
394.622	12.81
394.829	12.66
395.036	12.58
395.243	12.61
395.45	12.65
395.657	12.74
395.864	12.73
396.072	12.23
396.279	12.55
396.486	12.61
396.693	12.61
396.9	12.68
397.107	12.78
397.314	12.71
397.521	12.28
397.728	12.09
397.935	12.03
398.142	12.05
398.349	12.09
398.556	11.72
398.763	11.67
398.97	11.88
399.177	11.99
399.383	11.75
399.59	12.1
399.797	12.48
400.004	12.54
400.211	12.5
400.418	12.5
400.625	12.75
400.831	12.77
401.038	12.97
401.245	12.95
401.452	12.89
401.658	12.86
401.865	12.68
402.072	12.58
402.279	12.68
402.485	12.78
402.692	12.73
402.899	12.79
403.105	13.11
403.312	12.82
403.519	12.83
403.725	12.9
403.932	12.94
404.138	13.02
404.345	13.02
404.552	13.04
404.758	13.05
404.965	13.19
405.171	13.27
405.378	13.09
405.584	13.19
405.791	13.35
405.997	13.2
406.204	13.23
406.41	13.13
406.617	13.04
406.823	13.03
407.029	12.89
407.236	12.72
407.442	12.56
407.649	12.51
407.855	12.54
408.061	12.34
408.268	12.24
408.474	12.2
408.68	12.14
408.887	11.97
409.093	11.83
409.299	11.85
409.505	11.97
409.712	12.08
409.918	12
410.124	11.89
410.33	11.76
410.537	12
410.743	11.98
410.949	11.94
411.155	12.24
411.361	12.29
411.567	12.5
411.773	12.51
411.98	12.48
412.186	12.72
412.392	12.75
412.598	12.77
412.804	12.8
413.01	12.87
413.216	12.91
413.422	12.84
413.628	12.86
413.834	12.93
414.04	12.86
414.246	12.73
414.452	12.58
414.658	12.57
414.864	12.52
415.07	12.47
415.275	12.53
415.481	12.68
415.687	12.75
415.893	12.77
416.099	12.63
416.305	12.84
416.511	12.84
416.716	12.92
416.922	13.06
417.128	13.2
417.334	13.16
417.539	13.18
417.745	13.17
417.951	13.21
418.157	13.29
418.362	13.43
418.568	13.38
418.774	13.34
418.979	13.39
419.185	13.28
419.391	13.26
419.596	13.27
419.802	13.3
420.008	13.34
420.213	13.32
420.419	13.26
420.624	13.17
420.83	13.23
421.035	13.31
421.241	13.32
421.446	13.36
421.652	13.39
421.857	13.4
422.063	13.44
422.268	13.45
422.474	13.37
422.679	13.38
422.885	13.46
423.09	13.36
423.295	13.39
423.501	13.31
423.706	13.33
423.911	13.36
424.117	13.29
424.322	13.26
424.527	13.24
424.733	13.32
424.938	13.32
425.143	13.18
425.349	13.19
425.554	13.11
425.759	13.19
425.964	13.26
426.169	13.18
426.375	13.28
426.58	13.24
426.785	13.14
426.99	13.07
427.195	13.01
427.4	13.04
427.605	13.1
427.811	13.16
428.016	13.02
428.221	12.86
428.426	12.92
428.631	12.81
428.836	12.77
429.041	12.71
429.246	12.83
429.451	12.86
429.656	12.92
429.861	12.91
430.066	12.92
430.271	12.99
430.476	13.04
430.681	12.86
430.886	12.96
431.09	12.98
431.295	13.15
431.5	13.1
431.705	13.13
431.91	13.1
432.115	12.99
432.32	12.97
432.524	12.96
432.729	13.01
432.934	13.14
433.139	13.11
433.343	13.19
433.548	13.05
433.753	13.11
433.958	13.25
434.162	13.33
434.367	13.55
434.572	13.6
434.776	13.65
434.981	13.69
435.186	13.76
435.39	13.81
435.595	13.81
435.799	13.85
436.004	13.88
436.209	13.9
436.413	14.01
436.618	13.72
436.822	13.84
437.027	13.89
437.231	13.78
437.436	13.72
437.64	13.81
437.845	13.68
438.049	13.74
438.253	13.7
438.458	13.53
438.662	13.49
438.867	13.59
439.071	13.43
439.275	13.46
439.48	13.5
439.684	13.58
439.888	13.56
440.093	13.55
440.297	13.54
440.501	13.5
440.706	13.56
440.91	13.54
441.114	13.55
441.318	13.65
441.523	13.57
441.727	13.65
441.931	13.54
442.135	13.51
442.339	13.58
442.543	13.62
442.748	13.61
442.952	13.69
443.156	13.7
443.36	13.69
443.564	13.65
443.768	13.71
443.972	13.74
444.176	13.8
444.38	13.77
444.584	13.72
444.788	13.69
444.992	13.71
445.196	13.67
445.4	13.69
445.604	13.75
445.808	13.74
446.012	13.68
446.216	13.63
446.42	13.58
446.624	13.55
446.828	13.63
447.032	13.65
447.235	13.74
447.439	13.63
447.643	13.61
447.847	13.52
448.051	13.58
448.254	13.55
448.458	13.53
448.662	13.52
448.866	13.49
449.069	13.46
449.273	13.53
449.477	13.43
449.681	13.56
449.884	13.53
450.088	13.6
450.292	13.54
450.495	13.61
450.699	13.56
450.902	13.58
451.106	13.62
451.31	13.49
451.513	13.2
451.717	13.22
451.92	13.09
452.124	13.02
452.327	13.09
452.531	13.04
452.734	12.99
452.938	13.05
453.141	13.1
453.345	13.05
453.548	13.18
453.752	13.46
453.955	13.45
454.158	13.59
454.362	13.64
454.565	13.45
454.769	13.53
454.972	13.56
455.175	13.62
455.379	13.7
455.582	13.76
455.785	13.77
455.988	13.49
456.192	13.57
456.395	13.55
456.598	13.48
456.801	13.66
457.005	13.65
457.208	13.59
457.411	13.42
457.614	13.31
457.817	13.16
458.021	13.11
458.224	13.28
458.427	13.24
458.63	13.3
458.833	13.36
459.036	13.34
459.239	13.36
459.442	13.44
459.645	13.51
459.848	13.47
460.051	13.51
460.254	13.48
460.457	13.51
460.66	13.64
460.863	13.64
461.066	13.59
461.269	13.46
461.472	13.42
461.675	13.4
461.878	13.37
462.081	13.45
462.284	13.47
462.486	13.41
462.689	13.4
462.892	13.22
463.095	13.3
463.298	13.38
463.5	13.64
463.703	13.58
463.906	13.47
464.109	13.46
464.311	13.49
464.514	13.67
464.717	13.83
464.92	13.78
465.122	13.76
465.325	13.66
465.528	13.67
465.73	13.6
465.933	13.78
466.135	13.81
466.338	13.84
466.541	13.83
466.743	13.78
466.946	13.71
467.148	13.73
467.351	13.81
467.553	13.82
467.756	13.81
467.958	13.89
468.161	13.9
468.363	13.97
468.566	13.85
468.768	13.76
468.971	13.79
469.173	13.8
469.375	13.64
469.578	13.63
469.78	13.5
469.983	13.42
470.185	13.14
470.387	13.11
470.59	13.11
470.792	13.22
470.994	13.36
471.196	13.37
471.399	13.2
471.601	13.31
471.803	13.29
472.005	13.38
472.208	13.46
472.41	13.61
472.612	13.49
472.814	13.35
473.016	13.35
473.218	13.28
473.421	13.24
473.623	13.4
473.825	13.41
474.027	13.47
474.229	13.66
474.431	13.51
474.633	13.58
474.835	13.61
475.037	13.71
475.239	13.73
475.441	13.81
475.643	13.83
475.845	13.95
476.047	14
476.249	13.93
476.451	13.8
476.653	13.98
476.855	13.86
477.057	13.99
477.258	14
477.46	13.98
477.662	14.03
477.864	14.03
478.066	13.94
478.268	13.87
478.469	13.83
478.671	13.77
478.873	13.76
479.075	13.91
479.276	13.82
479.478	13.8
479.68	13.85
479.882	13.83
480.083	13.79
480.285	13.85
480.487	13.92
480.688	13.95
480.89	13.94
481.091	13.86
481.293	13.89
481.495	13.88
481.696	13.87
481.898	13.92
482.099	13.87
482.301	13.89
482.502	13.88
482.704	13.89
482.905	13.96
483.107	14.01
483.308	14.04
483.51	14.02
483.711	14.03
483.913	14.07
484.114	14.06
484.315	14.1
484.517	14.15
484.718	14.18
484.92	14.17
485.121	14.15
485.322	14.15
485.524	14.2
485.725	14.19
485.926	14.21
486.127	14.25
486.329	14.24
486.53	14.22
486.731	14.19
486.932	14.22
487.134	14.24
487.335	14.25
487.536	14.26
487.737	14.2
487.938	14.21
488.139	14.15
488.341	14.12
488.542	14.14
488.743	14.17
488.944	14.14
489.145	14.12
489.346	14.1
489.547	14.1
489.748	14.07
489.949	14.11
490.15	14.15
490.351	14.23
490.552	14.24
490.753	14.22
490.954	14.21
491.155	14.21
491.356	14.2
491.557	14.25
491.758	14.23
491.959	14.26
492.159	14.25
492.36	14.22
492.561	14.13
492.762	14.11
492.963	14.13
493.164	14.11
493.364	14.14
493.565	14.11
493.766	14.04
493.967	14
494.167	13.89
494.368	13.93
494.569	13.89
494.769	14.05
494.97	14.16
495.171	14.13
495.371	14.12
495.572	14.22
495.773	14.31
495.973	14.39
496.174	14.43
496.375	14.52
496.575	14.51
496.776	14.59
496.976	14.52
497.177	14.36
497.377	14.33
497.578	14.33
497.778	14.21
497.979	14.09
498.179	14
498.38	13.95
498.58	13.96
498.78	13.93
498.981	13.82
499.181	13.83
499.382	13.76
499.582	13.72
499.782	13.79
499.983	13.78
500.183	13.87
500.383	13.93
500.584	14.01
500.784	13.99
500.984	14.02
501.184	14.15
501.385	14.22
501.585	14.32
501.785	14.27
501.985	14.19
502.185	14.35
502.386	14.36
502.586	14.42
502.786	14.39
502.986	14.35
503.186	14.35
503.386	14.33
503.586	14.35
503.786	14.42
503.987	14.56
504.187	14.52
504.387	14.41
504.587	14.42
504.787	14.39
504.987	14.42
505.187	14.44
505.387	14.48
505.587	14.58
505.786	14.48
505.986	14.55
506.186	14.56
506.386	14.69
506.586	14.75
506.786	14.84
506.986	14.75
507.186	14.72
507.386	14.79
507.585	14.76
507.785	14.59
507.985	14.69
508.185	14.68
508.384	14.68
508.584	14.7
508.784	14.68
508.984	14.54
509.183	14.62
509.383	14.68
509.583	14.74
509.782	14.78
509.982	14.93
510.182	14.78
510.381	14.85
510.581	14.88
510.781	14.85
510.98	14.99
511.18	15.03
511.379	15.12
511.579	15.19
511.778	15.16
511.978	15.18
512.177	15.09
512.377	15.21
512.576	15.17
512.776	15.18
512.975	15.14
513.175	15.08
513.374	15.16
513.573	15.12
513.773	14.99
513.972	14.97
514.172	15.04
514.371	15.04
514.57	14.98
514.77	14.91
514.969	14.93
515.168	14.94
515.367	14.96
515.567	14.9
515.766	14.94
515.965	15.02
516.164	14.96
516.364	14.95
516.563	15.04
516.762	15.2
516.961	15.36
517.16	15.43
517.359	15.48
517.559	15.48
517.758	15.58
517.957	15.62
518.156	15.67
518.355	15.8
518.554	15.83
518.753	15.88
518.952	15.92
519.151	15.96
519.35	15.96
519.549	16.03
519.748	16.08
519.947	16.11
520.146	16.11
520.345	16.2
520.544	16.23
520.743	16.24
520.942	16.26
521.141	16.24
521.339	16.25
521.538	16.37
521.737	16.44
521.936	16.52
522.135	16.55
522.333	16.6
522.532	16.58
522.731	16.54
522.93	16.64
523.129	16.7
523.327	16.74
523.526	16.71
523.725	16.65
523.923	16.62
524.122	16.63
524.321	16.68
524.519	16.71
524.718	16.76
524.917	16.81
525.115	16.84
525.314	16.94
525.512	16.98
525.711	16.99
525.909	17
526.108	17.05
526.306	17.09
526.505	17.15
526.703	17.21
526.902	17.2
527.1	17.19
527.299	17.21
527.497	17.2
527.696	17.24
527.894	17.33
528.092	17.39
528.291	17.44
528.489	17.46
528.688	17.48
528.886	17.46
529.084	17.51
529.283	17.59
529.481	17.61
529.679	17.65
529.877	17.7
530.076	17.7
530.274	17.75
530.472	17.76
530.67	17.84
530.869	17.92
531.067	18
531.265	18.07
531.463	18.12
531.661	18.21
531.859	18.27
532.057	18.26
532.255	18.33
532.454	18.35
532.652	18.41
532.85	18.44
533.048	18.44
533.246	18.45
533.444	18.52
533.642	18.57
533.84	18.54
534.038	18.56
534.236	18.63
534.434	18.62
534.632	18.71
534.83	18.76
535.027	18.76
535.225	18.82
535.423	18.87
535.621	18.89
535.819	18.97
536.017	19.06
536.215	19.15
536.412	19.16
536.61	19.26
536.808	19.29
537.006	19.31
537.203	19.47
537.401	19.53
537.599	19.66
537.797	19.67
537.994	19.7
538.192	19.8
538.39	19.8
538.587	20.05
538.785	20.13
538.983	20.33
539.18	20.53
539.378	20.51
539.575	20.59
539.773	20.68
539.97	20.84
540.168	20.95
540.366	21.07
540.563	21.19
540.761	21.14
540.958	21.23
541.155	21.26
541.353	21.28
541.55	21.38
541.748	21.39
541.945	21.42
542.143	21.41
542.34	21.48
542.537	21.45
542.735	21.53
542.932	21.62
543.129	21.67
543.327	21.7
543.524	21.84
543.721	21.97
543.919	22.26
544.116	22.48
544.313	22.67
544.51	22.85
544.708	23.1
544.905	23.34
545.102	23.62
545.299	23.9
545.496	24.11
545.693	24.22
545.891	24.25
546.088	24.21
546.285	24.14
546.482	24.1
546.679	24.03
546.876	23.99
547.073	23.8
547.27	23.63
547.467	23.45
547.664	23.39
547.861	23.26
548.058	23.15
548.255	23.09
548.452	23.16
548.649	23.15
548.846	23.14
549.043	23.19
549.24	23.2
549.437	23.14
549.633	23.15
549.83	22.93
550.027	22.92
550.224	23.05
550.421	23.03
550.618	22.92
550.814	22.9
551.011	22.73
551.208	22.52
551.405	22.62
551.601	22.57
551.798	22.45
551.995	22.42
552.191	22.35
552.388	22.26
552.585	22.2
552.781	22.06
552.978	22.07
553.175	22.15
553.371	22.13
553.568	21.98
553.764	21.93
553.961	21.93
554.157	22
554.354	22.03
554.55	21.95
554.747	21.9
554.943	21.91
555.14	21.86
555.336	21.83
555.533	21.92
555.729	21.87
555.926	22.03
556.122	22.09
556.318	22.04
556.515	22.1
556.711	22.12
556.907	22.16
557.104	22.15
557.3	22.28
557.496	22.32
557.693	22.34
557.889	22.52
558.085	22.39
558.281	22.33
558.478	22.41
558.674	22.28
558.87	22.18
559.066	22.14
559.262	22.19
559.459	22.22
559.655	22.28
559.851	22.14
560.047	22.04
560.243	22
560.439	21.96
560.635	21.9
560.831	21.98
561.027	22.16
561.223	22.2
561.419	22.26
561.615	22.24
561.811	22.2
562.007	22.26
562.203	22.16
562.399	22.42
562.595	22.45
562.791	22.37
562.987	22.35
563.183	22.31
563.379	22.38
563.575	22.38
563.771	22.46
563.966	22.47
564.162	22.59
564.358	22.72
564.554	22.55
564.75	22.75
564.945	22.89
565.141	22.96
565.337	22.95
565.533	22.79
565.728	22.86
565.924	22.87
566.12	22.95
566.315	22.92
566.511	22.93
566.707	22.83
566.902	22.68
567.098	22.67
567.293	22.67
567.489	22.72
567.684	22.84
567.88	22.78
568.076	22.64
568.271	22.57
568.467	22.57
568.662	22.52
568.858	22.71
569.053	22.76
569.248	22.68
569.444	22.56
569.639	22.62
569.835	22.83
570.03	22.77
570.225	22.91
570.421	23.02
570.616	22.93
570.812	23.07
571.007	23.16
571.202	23.12
571.397	23.3
571.593	23.5
571.788	23.54
571.983	23.43
572.178	23.43
572.374	23.46
572.569	23.34
572.764	23.49
572.959	23.28
573.154	23.28
573.35	23.36
573.545	23.36
573.74	23.26
573.935	23.16
574.13	23.2
574.325	23.34
574.52	23.31
574.715	23.38
574.91	23.43
575.105	23.76
575.3	23.83
575.495	23.9
575.69	23.9
575.885	24.09
576.08	24.23
576.275	24.28
576.47	24.33
576.665	24.47
576.86	24.6
577.055	24.72
577.25	24.63
577.444	24.61
577.639	24.67
577.834	24.78
578.029	24.75
578.224	24.69
578.418	24.85
578.613	24.89
578.808	24.88
579.003	24.79
579.197	24.65
579.392	24.6
579.587	24.71
579.781	24.84
579.976	24.81
580.171	24.95
580.365	25.1
580.56	24.84
580.755	24.89
580.949	24.91
581.144	25
581.338	25.03
581.533	25.16
581.727	25.09
581.922	25
582.116	24.99
582.311	24.93
582.505	25.06
582.7	25.28
582.894	25.22
583.089	25.21
583.283	25.13
583.478	25.12
583.672	25.03
583.866	25
584.061	24.86
584.255	24.89
584.449	24.92
584.644	24.88
584.838	24.94
585.032	25.05
585.226	25.14
585.421	25.09
585.615	25.35
585.809	25.64
586.003	25.98
586.198	26.37
586.392	26.45
586.586	26.34
586.78	26.27
586.974	26.26
587.168	26.3
587.363	26.32
587.557	26.44
587.751	26.29
587.945	26.08
588.139	25.82
588.333	25.4
588.527	25.26
588.721	25.29
588.915	25.34
589.109	25.22
589.303	25.04
589.497	25.12
589.691	25.24
589.885	25.31
590.079	25.23
590.273	25.11
590.466	25.42
590.66	25.34
590.854	25.34
591.048	25.28
591.242	25.41
591.436	25.48
591.629	25.41
591.823	25.45
592.017	25.53
592.211	25.78
592.404	25.99
592.598	25.81
592.792	25.97
592.986	25.94
593.179	26.12
593.373	26.27
593.567	26.29
593.76	26.23
593.954	26.12
594.147	26.08
594.341	25.96
594.535	25.96
594.728	25.96
594.922	25.87
595.115	25.84
595.309	25.74
595.502	25.66
595.696	25.71
595.889	25.71
596.083	25.76
596.276	25.8
596.47	25.72
596.663	25.56
596.856	25.65
597.05	25.72
597.243	25.87
597.437	25.89
597.63	25.89
597.823	25.94
598.017	25.95
598.21	25.86
598.403	25.74
598.596	25.92
598.79	26.24
598.983	26.16
599.176	26.07
599.369	26
599.563	25.99
599.756	25.97
599.949	25.84
600.142	25.66
600.335	25.64
600.528	25.59
600.722	25.72
600.915	25.39
601.108	25.39
601.301	25.49
601.494	25.47
601.687	25.46
601.88	25.52
602.073	25.48
602.266	25.74
602.459	25.82
602.652	25.83
602.845	25.62
603.038	25.65
603.231	25.81
603.424	25.84
603.617	25.96
603.809	26.07
604.002	25.94
604.195	26.04
604.388	26.03
604.581	25.95
604.774	25.99
604.966	26.22
605.159	26.39
605.352	26.27
605.545	26.32
605.737	26.16
605.93	26.02
606.123	26.2
606.316	26.19
606.508	26.17
606.701	26.46
606.894	26.62
607.086	26.53
607.279	26.66
607.471	27.02
607.664	27.28
607.857	27.72
608.049	28.23
608.242	28.61
608.434	29.43
608.627	30.25
608.819	31.09
609.012	32.2
609.204	33.49
609.397	34.9
609.589	36.34
609.782	37.83
609.974	39.21
610.166	40.81
610.359	42.28
610.551	43.5
610.743	44.85
610.936	46
611.128	46.73
611.32	47.3
611.513	47.32
611.705	47.2
611.897	46.96
612.09	46.75
612.282	46.13
612.474	45.32
612.666	44.6
612.858	43.69
613.051	42.76
613.243	42.02
613.435	41.18
613.627	40.48
613.819	39.82
614.011	38.95
614.203	38.24
614.395	37.53
614.588	36.98
614.78	36.25
614.972	35.6
615.164	34.86
615.356	34.31
615.548	33.52
615.74	33.06
615.932	32.28
616.124	31.98
616.315	31.5
616.507	30.88
616.699	30.53
616.891	30.15
617.083	29.74
617.275	29.48
617.467	28.9
617.659	28.68
617.85	28.36
618.042	28.61
618.234	28.39
618.426	28.29
618.618	28.4
618.809	28.25
619.001	28.11
619.193	27.94
619.384	27.89
619.576	28.33
619.768	28.71
619.959	28.7
620.151	28.66
620.343	28.8
620.534	28.85
620.726	28.98
620.917	29.01
621.109	29
621.301	29.24
621.492	29
621.684	28.64
621.875	28.74
622.067	28.59
622.258	28.65
622.45	28.49
622.641	28.28
622.832	28.2
623.024	28.55
623.215	28.68
623.407	28.74
623.598	29.05
623.789	28.88
623.981	28.85
624.172	29.1
624.363	29
624.555	29.01
624.746	29.37
624.937	29.18
625.129	28.94
625.32	29.04
625.511	28.99
625.702	29.09
625.893	29.37
626.085	29.15
626.276	28.95
626.467	28.94
626.658	28.69
626.849	28.28
627.04	28.5
627.231	28.52
627.422	28.52
627.614	28.37
627.805	28.36
627.996	28.35
628.187	28.28
628.378	28.64
628.569	28.84
628.76	29.29
628.951	29.68
629.142	29.63
629.332	29.71
629.523	29.81
629.714	30.02
629.905	29.97
630.096	30.21
630.287	30.52
630.478	30.59
630.669	30.42
630.859	30.41
631.05	30.35
631.241	30.24
631.432	30.13
631.623	30.11
631.813	29.95
632.004	30.01
632.195	29.69
632.385	29.32
632.576	28.98
632.767	28.75
632.957	28.32
633.148	28.25
633.339	28.05
633.529	27.87
633.72	27.65
633.91	27.37
634.101	27.15
634.292	27.11
634.482	26.95
634.673	26.94
634.863	27.01
635.054	27.2
635.244	26.98
635.435	27.18
635.625	27.2
635.815	27.05
636.006	27.37
636.196	27.22
636.387	27.05
636.577	26.87
636.767	26.8
636.958	26.71
637.148	26.9
637.338	26.9
637.529	26.87
637.719	26.96
637.909	27.18
638.099	27.02
638.29	27.03
638.48	27.03
638.67	27.2
638.86	27.11
639.05	27.21
639.241	26.9
639.431	26.94
639.621	26.78
639.811	27.14
640.001	26.99
640.191	26.89
640.381	26.87
640.571	26.9
640.761	27.09
640.951	27
641.141	26.97
641.331	27.15
641.521	26.93
641.711	26.85
641.901	26.65
642.091	26.75
642.281	26.83
642.471	27.08
642.661	27.34
642.851	27.34
643.041	27.51
643.231	27.55
643.42	27.34
643.61	27.54
643.8	27.8
643.99	27.46
644.18	27.14
644.369	26.94
644.559	26.52
644.749	26.41
644.939	26.36
645.128	26.29
645.318	26.05
645.508	26.38
645.697	26.42
645.887	26.26
646.076	26.28
646.266	26.32
646.456	26.75
646.645	27.22
646.835	27.09
647.024	27.22
647.214	27.54
647.403	27.88
647.593	27.65
647.782	27.8
647.972	27.88
648.161	28.14
648.351	28.69
648.54	28.62
648.73	28.38
648.919	28.41
649.108	28.63
649.298	28.16
649.487	28.16
649.677	28.12
649.866	28.24
650.055	28.3
650.244	28.5
650.434	28.16
650.623	28.03
650.812	28.48
651.002	28.64
651.191	28.4
651.38	28.68
651.569	28.42
651.758	28.49
651.947	28.44
652.137	28.37
652.326	28.06
652.515	28.07
652.704	27.88
652.893	27.62
653.082	27.59
653.271	27.48
653.46	27.49
653.649	27.55
653.838	27.8
654.027	27.85
654.216	27.73
654.405	27.8
654.594	27.62
654.783	28
654.972	27.92
655.161	27.95
655.35	27.9
655.539	27.83
655.728	27.63
655.916	27.33
656.105	26.96
656.294	27.23
656.483	27.31
656.672	27.58
656.86	27.41
657.049	27.35
657.238	27.42
657.427	27.4
657.615	27.37
657.804	27.82
657.993	27.92
658.181	27.79
658.37	27.5
658.559	27.4
658.747	27.41
658.936	27.8
659.125	27.79
659.313	27.74
659.502	27.84
659.69	27.82
659.879	27.62
660.067	27.35
660.256	27.45
660.444	27.62
660.633	27.69
660.821	27.62
661.01	27.22
661.198	27.55
661.387	27.38
661.575	27.57
661.763	27.58
661.952	27.56
662.14	27.69
662.328	28.01
662.517	28.07
662.705	28.15
662.893	28.46
663.082	28.4
663.27	28.2
663.458	28.24
663.646	28.13
663.834	28.2
664.023	28.2
664.211	28.44
664.399	28.37
664.587	28.46
664.775	28.24
664.963	27.87
665.152	28.05
665.34	28.11
665.528	28.39
665.716	28.41
665.904	28.23
666.092	28.11
666.28	28.13
666.468	28.09
666.656	28.08
666.844	28.13
667.032	28.02
667.22	28.07
667.408	27.83
667.596	27.72
667.784	27.61
667.971	27.5
668.159	27.53
668.347	27.45
668.535	27.26
668.723	27.27
668.911	27.22
669.098	27.52
669.286	27.36
669.474	27.24
669.662	27.38
669.849	27.73
670.037	27.96
670.225	28.33
670.413	28.26
670.6	28.49
670.788	28.37
670.976	28.42
671.163	28.29
671.351	28.34
671.538	28.5
671.726	28.41
671.913	28.44
672.101	28.44
672.289	28.21
672.476	28.03
672.664	28.26
672.851	28.29
673.039	28.3
673.226	28.54
673.413	28.54
673.601	28.69
673.788	28.43
673.976	28.24
674.163	28.35
674.35	28.41
674.538	28.6
674.725	28.26
674.912	28.64
675.1	28.91
675.287	28.88
675.474	28.75
675.662	28.78
675.849	28.88
676.036	28.75
676.223	29.17
676.411	29.02
676.598	29.31
676.785	29.45
676.972	29.16
677.159	29.27
677.346	29.01
677.533	29.13
677.721	28.93
677.908	29.34
678.095	29.15
678.282	28.83
678.469	28.88
678.656	28.32
678.843	28.48
679.03	28.5
679.217	28.23
679.404	28.55
679.591	28.51
679.778	28.59
679.964	27.97
680.151	28.46
680.338	28.33
680.525	28.4
680.712	28.71
680.899	28.82
681.086	28.61
681.272	28.48
681.459	28.18
681.646	28.16
681.833	27.87
682.02	28.24
682.206	28.09
682.393	28.01
682.58	27.89
682.766	27.95
682.953	28.02
683.14	28.24
683.326	28.2
683.513	28.32
683.7	28.28
683.886	28.36
684.073	28.44
684.259	28.18
684.446	28.56
684.632	28.63
684.819	28.46
685.005	28.39
685.192	28.43
685.378	28.79
685.565	28.98
685.751	29.14
685.938	29.39
686.124	29.38
686.31	29.49
686.497	29.55
686.683	29.87
686.87	29.89
687.056	29.42
687.242	29.22
687.429	28.87
687.615	28.74
687.801	28.84
687.987	28.8
688.174	28.5
688.36	28.71
688.546	28.63
688.732	28.54
688.918	28.5
689.105	28.81
689.291	28.68
689.477	28.66
689.663	28.59
689.849	28.17
690.035	28.28
690.221	28.68
690.407	28.28
690.593	27.91
690.779	27.87
690.965	27.9
691.151	28.05
691.337	28.19
691.523	28.41
691.709	28.38
691.895	28.97
692.081	29.28
692.267	28.72
692.453	28.59
692.639	28.82
692.825	28.89
693.011	29.26
693.196	29.09
693.382	28.91
693.568	28.94
693.754	29.2
693.94	28.98
694.125	28.6
694.311	28.77
694.497	29.12
694.682	29.02
694.868	28.75
695.054	28.8
695.239	28.66
695.425	29.03
695.611	28.79
695.796	28.88
695.982	28.66
696.168	28.6
696.353	28.85
696.539	28.61
696.724	28.6
696.91	28.67
697.095	28.61
697.281	28.52
697.466	28.44
697.652	28.82
697.837	28.35
698.023	28.36
698.208	28.3
698.393	27.96
698.579	28.18
698.764	28.44
698.949	28.49
699.135	28.36
699.32	28.02
699.505	28.07
699.691	27.7
699.876	27.83
700.061	28.06
700.246	28.14
700.432	28.63
700.617	28.62
700.802	28.69
700.987	28.61
701.172	28.58
701.358	28.92
701.543	28.56
701.728	28.55
701.913	28.86
702.098	29.2
702.283	28.81
702.468	28.41
702.653	28.13
702.838	27.48
703.023	27.84
703.208	28.1
703.393	28.41
703.578	29.09
703.763	29.45
703.948	29.33
704.133	29.25
704.318	29.96
704.503	30.93
704.688	31.49
704.873	31.81
705.057	31.84
705.242	32.18
705.427	32.49
705.612	32.9
705.797	33.54
705.981	34.1
706.166	34.08
706.351	34.77
706.536	34.64
706.72	34.99
706.905	35.46
707.09	35.66
707.274	35.69
707.459	35.33
707.644	35.39
707.828	35.3
708.013	35.78
708.197	35.68
708.382	35.43
708.567	35.53
708.751	35.26
708.936	34.92
709.12	35.12
709.305	34.84
709.489	35.22
709.673	34.74
709.858	34.35
710.042	33.6
710.227	33.82
710.411	33.88
710.596	33.71
710.78	33.64
710.964	34.26
711.149	33.88
711.333	33.81
711.517	33.45
711.702	33.7
711.886	33.87
712.07	33.97
712.254	33.59
712.438	32.81
712.623	32.67
712.807	32.45
712.991	32.04
713.175	31.86
713.359	31.31
713.544	31.14
713.728	30.53
713.912	30.21
714.096	29.84
714.28	29.32
714.464	29.55
714.648	29.21
714.832	29.17
715.016	28.66
715.2	28.27
715.384	28.83
715.568	28.83
715.752	29.36
715.936	29.61
716.12	29.46
716.304	29.85
716.488	29.27
716.671	28.9
716.855	28.72
717.039	28.67
717.223	28.9
717.407	28.47
717.59	28.71
717.774	28.32
717.958	27.5
718.142	27.67
718.325	27.46
718.509	27.64
718.693	27.73
718.877	27.7
719.06	27.35
719.244	27.72
719.428	27.99
719.611	27.73
719.795	27.46
719.978	28.47
720.162	28.95
720.345	29.39
720.529	29.79
720.713	29.9
720.896	29.89
721.08	30.66
721.263	30.34
721.446	30.47
721.63	30.31
721.813	30.59
721.997	30.19
722.18	29.43
722.364	29.13
722.547	29.12
722.73	28.89
722.914	28.69
723.097	28.3
723.28	27.78
723.464	27.44
723.647	27.55
723.83	27.88
724.013	27.83
724.197	27.93
724.38	27.65
724.563	27.61
724.746	28.11
724.929	28.58
725.112	28.46
725.296	29.09
725.479	29.14
725.662	29
725.845	28.92
726.028	28.66
726.211	28.49
726.394	28.78
726.577	28.77
726.76	28.88
726.943	29.22
727.126	29.34
727.309	29.17
727.492	29.24
727.675	29.28
727.858	29.36
728.041	29.36
728.224	29.93
728.407	29.75
728.589	29.84
728.772	29.32
728.955	28.26
729.138	28.16
729.321	28.08
729.503	28.2
729.686	28.04
729.869	27.51
730.052	27.5
730.234	27.01
730.417	26.61
730.6	25.77
730.782	25.59
730.965	26.21
731.148	26.51
731.33	26.38
731.513	26.03
731.695	25.89
731.878	25.86
732.061	26.17
732.243	26.2
732.426	26.3
732.608	26.61
732.791	27.06
732.973	26.56
733.156	26.24
733.338	26.47
733.52	26.71
733.703	26.89
733.885	27.28
734.068	26.8
734.25	26.32
734.432	26.94
734.615	27.65
734.797	28.05
734.979	28.47
735.162	29.14
735.344	29.19
735.526	29.37
735.708	29.99
735.891	30.19
736.073	30.24
736.255	30.89
736.437	30.06
736.619	29.65
736.802	29.14
736.984	29.19
737.166	28.99
737.348	28.44
737.53	28.45
737.712	28.49
737.894	28.07
738.076	28.66
738.258	28.45
738.44	28.71
738.622	28.67
738.804	28.88
738.986	28.74
739.168	28.54
739.35	28.6
739.532	28.04
739.714	28.19
739.896	28.78
740.078	29.05
740.259	28.93
740.441	29.7
740.623	30.04
740.805	29.91
740.987	29.87
741.168	29.99
741.35	31.16
741.532	32.04
741.714	31.62
741.895	30.86
742.077	30.46
742.259	30.3
742.44	30.25
742.622	30.52
742.804	30.62
742.985	30.72
743.167	30.6
743.348	29.7
743.53	28.87
743.711	28.78
743.893	29.33
744.075	29.45
744.256	30.39
744.438	29.72
744.619	29.92
744.8	29.55
744.982	29.56
745.163	29.3
745.345	29.32
745.526	29.71
745.707	28.84
745.889	27.18
746.07	27.59
746.252	27.24
746.433	28.03
746.614	27.41
746.795	28.23
746.977	29
747.158	30.22
747.339	30.48
747.52	31.11
747.702	31.79
747.883	33.19
748.064	32.8
748.245	32.03
748.426	31.91
748.607	31.95
748.788	31.71
748.97	30.7
749.151	29.5
749.332	30.09
749.513	28.97
749.694	28.87
749.875	28.04
750.056	27.81
750.237	28.45
750.418	28.39
750.599	28.17
750.78	28.05
750.96	29.09
751.141	28.61
751.322	27.52
751.503	28.71
751.684	28.47
751.865	29.46
752.046	29.67
752.226	29.52
752.407	29.65
752.588	29.47
752.769	28.81
752.949	27.72
753.13	28.13
753.311	28.92
753.492	28.38
753.672	29.14
753.853	28.88
754.034	28.53
754.214	28.35
754.395	28.38
754.575	29.05
754.756	29.38
754.937	29.21
755.117	30.22
755.298	29.41
755.478	29.62
755.659	29.36
755.839	28.71
756.02	28.82
756.2	29.68
756.381	29.5
756.561	29.18
756.741	30.16
756.922	31.07
757.102	29.69
757.283	29.93
757.463	29.45
757.643	28.97
757.823	29.6
758.004	29.72
758.184	28.87
758.364	28.36
758.545	28.66
758.725	27.83
758.905	27.48
759.085	28.27
759.265	27.75
759.446	27.69
759.626	27.98
759.806	26.99
759.986	26.34
760.166	26.57
760.346	26.75
760.526	26.54
760.706	26.94
760.886	27.1
761.066	27.27
761.246	27.27
761.426	27.07
761.606	26.87
761.786	27.13
761.966	27.13
762.146	26.91
762.326	27.01
762.506	26.27
762.686	25.98
762.866	25.72
763.046	25.1
763.225	25.41
763.405	25.6
763.585	26.28
763.765	26.54
763.945	26.78
764.124	27.19
764.304	27.62
764.484	28.57
764.664	28.43
764.843	28.63
765.023	29.41
765.203	29.37
765.382	30.16
765.562	30.01
765.741	30.05
765.921	30.41
766.101	30.32
766.28	30.18
766.46	29.36
766.639	30.12
766.819	30.02
766.998	29.21
767.178	29.1
767.357	28.14
767.537	27.91
767.716	28.2
767.896	27.53
768.075	27.67
768.254	26.86
768.434	27.64
768.613	26.69
768.792	26.03
768.972	26.86
769.151	27.33
769.33	26.91
769.51	26.94
769.689	26.91
769.868	27.47
770.047	27.4
770.226	28.09
770.406	27.16
770.585	28.88
770.764	29.72
770.943	29.95
771.122	30.73
771.301	30.21
771.48	30.89
771.66	30.69
771.839	29.79
772.018	29.57
772.197	30.09
772.376	30.98
772.555	29.83
772.734	28.84
772.913	28.57
773.092	28.1
773.271	29.39
773.449	28.34
773.628	28.54
773.807	29.3
773.986	28.48
774.165	28.4
774.344	27.43
774.523	27.75
774.701	28.48
774.88	28.93
775.059	28.35
775.238	28.18
775.417	28.55
775.595	28.41
775.774	29.16
775.953	30.32
776.131	29.22
776.31	30.02
776.489	28.53
776.667	29.14
776.846	28.31
777.025	27.84
777.203	28.03
777.382	27.46
777.56	27.66
777.739	27.9
777.917	27.43
778.096	27.17
778.274	26.96
778.453	27.29
778.631	27.4
778.81	27.67
778.988	27.6
779.166	27.62
779.345	29.51
779.523	29.11
779.702	29.17
779.88	28.82
780.058	30.14
780.237	29.62
780.415	30.92
780.593	29.5
780.771	29.25
780.95	31.08
781.128	30.73
781.306	28.65
781.484	28.66
781.662	28.12
781.841	27.93
782.019	27.41
782.197	28.4
782.375	27.09
782.553	27.8
782.731	27.8
782.909	26.92
783.087	26.07
783.265	25.82
783.443	26.21
783.621	25.65
783.799	25.65
783.977	25.04
784.155	24.25
784.333	25.44
784.511	25.04
784.689	24.95
784.867	25.42
785.045	26.14
785.223	27.42
785.4	28.19
785.578	28.3
785.756	28.46
785.934	29.39
786.112	30.31
786.289	30.29
786.467	31.85
786.645	30.97
786.823	30.69
787	31.19
787.178	29.51
787.356	27.8
787.533	28.27
787.711	29.19
787.889	27.96
788.066	26.25
788.244	25.02
788.421	24
788.599	24.49
788.776	24.09
788.954	23.23
789.131	24.75
789.309	24.66
789.486	24.41
789.664	24.31
789.841	24.7
790.019	26.12
790.196	26.65
790.373	25.77
790.551	27.18
790.728	27.07
790.906	27.77
791.083	26.59
791.26	27.46
791.437	26.16
791.615	24.85
791.792	24.98
791.969	24.78
792.146	24.84
792.324	26.54
792.501	26.08
792.678	26.36
792.855	24.37
793.032	25.86
793.209	25.19
793.387	24.55
793.564	25.26
793.741	25.85
793.918	25.99
794.095	27.22
794.272	26.21
794.449	25.16
794.626	24.42
794.803	26.56
794.98	25.57
795.157	25.42
795.334	26.25
795.511	26.56
795.688	26.19
795.864	25.69
796.041	23.79
796.218	24.9
796.395	23.66
796.572	24.93
796.749	23.11
796.925	24.45
797.102	24.33
797.279	24.33
797.456	24.99
797.632	24.59
797.809	24.02
797.986	25.84
798.162	25.5
798.339	27.14
798.516	26.77
798.692	29.45
798.869	28.03
799.046	28.16
799.222	29.07
799.399	28.84
799.575	29.31
799.752	28.99
799.928	27.85
800.105	27.92
800.281	27.5
800.458	28.01
800.634	27.06
800.811	27.45
800.987	28.47
801.163	28.61
801.34	27.06
801.516	26.1
801.692	26.3
801.869	25.56
802.045	25.2
802.221	25.48
802.398	24.24
802.574	23.64
802.75	22.89
802.926	21.84
803.103	20.4
803.279	20.98
803.455	21.96
803.631	23.7
803.807	24.67
803.983	24.87
804.16	24.65
804.336	24.82
804.512	24.2
804.688	24.88
804.864	26.05
805.04	26.54
805.216	25.62
805.392	23.83
805.568	21.95
805.744	22.71
805.92	21.66
806.096	21.61
806.272	17.86
806.448	17.56
806.623	16.25
806.799	15.3
806.975	16.3
807.151	15.07
807.327	17.16
807.503	16.91
807.678	15.56
807.854	15.55
808.03	15.97
808.206	19.54
808.381	18.86
808.557	19.39
808.733	17.66
808.908	17.25
809.084	17.34
809.26	15.6
809.435	17.14
809.611	18.49
809.787	17.54
809.962	17.07
810.138	15.46
810.313	16.4
810.489	17.67
810.664	20.39
810.84	18.57
811.015	20.89
811.191	22.28
811.366	21.01
811.542	18.6
811.717	18.6
811.892	17.95
812.068	19.79
812.243	19.11
812.419	18.98
812.594	18.1
812.769	18.53
812.944	17.11
813.12	14.74
813.295	16.38
813.47	19.37
813.645	20.65
813.821	21.73
813.996	18.89
814.171	18.69
814.346	18.25
814.521	16.98
814.697	19.6
814.872	19.49
815.047	20.14
815.222	20.59
815.397	17.36
815.572	18.25
815.747	16.44
815.922	16.51
816.097	19.06
816.272	19.62
816.447	19.73
816.622	18.3
816.797	20.86
816.972	21.05
817.147	19.29
817.322	21.4
817.496	20.35
817.671	21.52
817.846	22.83
818.021	20.59
818.196	19.84
818.371	20.68
818.545	21.21
818.72	22.32
818.895	23.92
819.069	23.89
819.244	24.24
819.419	25.7
819.594	25.94
819.768	25.56
819.943	26.3
820.117	26.39
820.292	26.93
820.467	28.12
820.641	26.15
820.816	25.31
820.99	25.75
821.165	25.79
821.339	25.48
821.514	25.3
821.688	25.74
821.863	25.65
822.037	26.04
822.212	25.82
822.386	25.66
822.56	25.94
822.735	26.3
822.909	26.31
823.084	26.28
823.258	26.11
823.432	26.37
823.606	26.36
823.781	26.48
823.955	26.15
824.129	26.12
824.303	25.75
824.478	25.64
824.652	25.37
824.826	24.26
825	24.17
825.174	24.27
825.348	23.83
825.523	23.63
825.697	22.79
825.871	22.75
826.045	22.51
826.219	22.44
826.393	22.74
826.567	23.36
826.741	25.27
826.915	24.68
827.089	25.14
827.263	25.26
827.437	24.43
827.611	24.97
827.784	24.82
827.958	25.4
828.132	25
828.306	24.54
828.48	24.24
828.654	23.3
828.827	22.65
829.001	21.77
829.175	21.84
829.349	23.31
829.522	23.29
829.696	23.15
829.87	22.24
830.044	22.58
830.217	23.16
830.391	20.11
830.565	19.78
830.738	19.71
830.912	18.96
831.085	16.25
831.259	15.55
831.432	15.03
831.606	14.71
831.779	14.22
831.953	14.65
832.126	15.22
832.3	16.85
832.473	16.33
832.647	20.05
832.82	21.4
832.994	23.06
833.167	21.47
833.34	21.41
833.514	21.16
833.687	20.96
833.86	21.34
834.034	20.42
834.207	20.66
834.38	21.75
834.553	19.88
834.727	19.23
834.9	18.58
835.073	19.66
835.246	18.83
835.419	19.34
835.593	20.55
835.766	18.64
835.939	19.25
836.112	20.59
836.285	20.51
836.458	20.74
836.631	20.57
836.804	21.23
836.977	20.43
837.15	23.96
837.323	24.23
837.496	24.23
837.669	25.57
837.842	26.6
838.015	24.99
838.188	22.7
838.361	22.39
838.533	22.21
838.706	23.29
838.879	22.4
839.052	16.39
839.225	15.64
839.398	12.52
839.57	11.04
839.743	6.43
839.916	8.46
840.088	12.41
840.261	15.03
840.434	16.08
840.607	14.28
840.779	15.67
840.952	17.97
841.124	17.73
841.297	19.21
841.47	22.03
841.642	21.94
841.815	21.38
841.987	19.76
842.16	17.69
842.332	16.01
842.505	16.77
842.677	18.71
842.85	16.73
843.022	18.22
843.194	18.82
843.367	19.19
843.539	18.16
843.712	17.87
843.884	15.25
844.056	12.22
844.229	12.16
844.401	12.97
844.573	3.66
844.745	5.09
844.918	3.31
845.09	-2.87
845.262	-4.68
845.434	-1.76
845.606	2.01
845.779	0.75
845.951	2.24
846.123	3.74
846.295	-1.28
846.467	3.69
846.639	3.69
846.811	9.8
846.983	16.3
847.155	19.64
847.327	15.75
847.499	9.71
847.671	7.61
847.843	9.64
848.015	10.55
848.187	12.02
848.359	10.6
848.531	10.52
848.703	5.8
848.875	1.14
849.047	0.94
849.218	5.2
849.39	1.98
849.562	3.39
849.734	-0.46
849.905	-10.51
850.077	-8.11
850.249	-8.74
850.421	-5.54
850.592	-7.41
850.764	-4.7
850.936	-8.06
851.107	-5.41
851.279	-6.58
851.451	-5.32
851.622	-0.29
851.794	7.4
851.965	9.08
852.137	10.18
852.308	12.08
852.48	13.44
852.651	11.89
852.823	6.32
852.994	-3.59
853.166	1.3
853.337	-4.31
853.509	-0.53
853.68	-1.29
853.851	-4
854.023	-7.27
854.194	-4.67
854.365	-5.23
854.537	-4.36
854.708	3.67
854.879	7.4
855.05	9.21
855.222	8.99
855.393	6.62
855.564	13.89
855.735	10.29
855.906	7.44
856.078	0.83
856.249	-7.2
856.42	-7.47
856.591	-11.1
856.762	-3.99
856.933	-3.86
857.104	6.18
857.275	0.4
857.446	-10.32
857.617	-11.43
857.788	-3.63
857.959	1.44
858.13	-0.23
858.301	3.58
858.472	2.93
858.643	3.61
858.814	-0.53
858.985	-6.35
859.155	-1.12
859.326	-3.09
859.497	-0.89
859.668	-6.81
859.839	-9.62
860.009	-2.63
860.18	-4.73
860.351	-6.72
860.522	-3.66
860.692	-2.12
860.863	6.82
861.034	-5.1
861.204	-10.45
861.375	-14.3
861.546	-8.71
861.716	-8.91
861.887	-12.56
862.057	-7.77
862.228	-4.14
862.398	-10.04
862.569	-9.05
862.739	-17.34
862.91	-9.31
863.08	0.85
863.251	-1.39
863.421	-0.63
863.592	-1.16
863.762	-3.33
863.932	-7.32
864.103	-7.1
864.273	-3.74
864.443	-4.09
864.614	-1.04
864.784	3.7
864.954	4.92
865.125	4.81
865.295	9.6
865.465	5.71
865.635	9.43
865.805	15.26
865.976	17.87
866.146	22.98
866.316	30.1
866.486	35.95
866.656	36.24
866.826	34.32
866.996	36.14
867.166	33.13
867.336	40.78
867.506	36.98
867.676	33.75
867.846	36.24
868.016	26.79
868.186	18.98
868.356	8.09
868.526	-8.13
868.696	-7.11
868.866	-3.78
869.036	7.54
869.206	8.12
869.376	12.96
869.545	12.66
869.715	10.36
869.885	9.61
870.055	6.26
870.224	10.92
870.394	13.83
870.564	17.34
870.734	12.71
870.903	0.59
871.073	-2.67
871.243	-6.54
871.412	-3.17
871.582	-1.05
871.751	0.28
871.921	12.5
872.091	13.42
872.26	20.21
872.43	27.77
872.599	25.63
872.769	39.36
872.938	43.79
873.108	44.59
873.277	41.71
873.446	38.8
873.616	36.82
873.785	38.69
873.955	38.92
874.124	34.99
874.293	25.13
874.463	27.29
874.632	24.57
874.801	13.28
874.971	11.31
875.14	19.3
875.309	15.62
875.478	15.44
875.647	7.25
875.817	-0.72
875.986	9.33
876.155	8.64
876.324	10.69
876.493	9.52
876.662	-6.96
876.831	-13.05
877	-30.57
877.17	-15.52
877.339	-10.5
877.508	-8.15
877.677	6.41
877.846	-5.17
878.015	1.05
878.184	9.45
878.352	3.36
878.521	15.83
878.69	16.43
878.859	24.08
879.028	19.65
879.197	18.27
879.366	19.1
879.534	15.07
879.703	17.63
879.872	17.12
880.041	11.34
880.21	10.56
880.378	9.75
880.547	11.92
880.716	9.52
880.884	14.22
881.053	14.73
881.222	14.56
881.39	15.71
881.559	15.42
881.727	16.45
881.896	17.71
882.065	18.93
882.233	19.73
882.402	19.25
882.57	19.57
882.739	18.41
882.907	19.97
883.076	20.81
883.244	21.12
883.412	21.19
883.581	20.71
883.749	20.7
883.918	20.35
884.086	20.03
884.254	20.69
884.423	19.69
884.591	19.29
884.759	16.22
884.927	15.3
885.096	15.05
885.264	14.74
885.432	15.25
885.6	14.99
885.769	13.45
885.937	12.73
886.105	8.43
886.273	13.12
886.441	12.72
886.609	15.63
886.777	11.13
886.945	7.96
887.113	6.93
887.281	6.63
887.449	0.52
887.617	-0.81
887.785	-3.79
887.953	0.57
888.121	-1.48
888.289	-4.55
888.457	-3.08
888.625	4.53
888.793	2.77
888.961	2.28
889.129	-14.36
889.296	-2.2
889.464	-0.3
889.632	2.59
889.8	-1.61
889.967	-10.03
890.135	-3.28
