Data from 2938848__Reflection_03.txt Node
Date: Wed Mar 11 13:36:29 EDT 2015
User: robert
Spectrometer: USB4E03002
Autoset integration time: false
Trigger mode: 4
Integration Time (sec): 1.000000E-1
Scans to average: 10
Electric dark correction enabled: false
Nonlinearity correction enabled: false
Boxcar width: 5
Stray light correction enabled: false
XAxis mode: Wavelengths
Stop averaging: false
Number of Pixels in Spectrum: 3648
>>>>>Begin Spectral Data<<<<<
177.575	266.67
177.794	-506.25
178.014	-144.52
178.233	-382.35
178.452	-284.67
178.672	-104.57
178.891	-78.13
179.11	-47.06
179.33	-93.3
179.549	-97.5
179.768	-234.13
179.987	-238.36
180.207	-105.51
180.426	-160.54
180.645	-115.68
180.864	-53.16
181.084	-132.45
181.303	-1057.14
181.522	-447.79
181.741	-286.39
181.96	-381.56
182.179	-881.03
182.398	-485.88
182.618	564.84
182.837	775.38
183.056	1397.87
183.275	254.64
183.494	217.07
183.713	301.21
183.932	195.73
184.151	226.35
184.37	202.72
184.589	365.56
184.808	408.03
185.027	-1542.86
185.246	-593.33
185.465	-88.19
185.684	-26.99
185.903	-78.26
186.122	-11.86
186.341	-29.71
186.56	6.21
186.779	-34.06
186.998	-23.35
187.216	-13.97
187.435	13.44
187.654	11.48
187.873	-9.59
188.092	-26.12
188.311	-15.77
188.53	-20.4
188.748	4.33
188.967	3.86
189.186	15.22
189.405	4.83
189.623	5.38
189.842	-12.29
190.061	-13.42
190.28	-9.87
190.498	-13.17
190.717	-10.88
190.936	-20.9
191.154	-26.6
191.373	-25.83
191.592	-39.62
191.81	-27.24
192.029	-55.86
192.248	-114.45
192.466	-174.92
192.685	-162
192.904	-119.44
193.122	-105.44
193.341	-383.22
193.559	-433.33
193.778	-808.64
193.996	-369.4
194.215	-291.46
194.433	-111.97
194.652	-77.13
194.87	-66.44
195.089	-85.99
195.307	-90.11
195.526	-152.16
195.744	-49.58
195.963	-36.22
196.181	-17.85
196.399	-42.51
196.618	-28.21
196.836	-51
197.055	-18.16
197.273	-1.55
197.491	-12.62
197.71	-18.1
197.928	-5.7
198.146	-6.49
198.365	-16.15
198.583	-34.95
198.801	-30.26
199.019	-44.91
199.238	-44.56
199.456	-62.5
199.674	-90.78
199.892	-31.09
200.111	-24.69
200.329	-18.76
200.547	-34.58
200.765	-38.99
200.983	-32.18
201.202	-28.68
201.42	-8.06
201.638	-10.88
201.856	-27.36
202.074	-48.07
202.292	-86.24
202.51	-118.93
202.728	-200.49
202.946	-139.45
203.165	-150.49
203.383	-136.82
203.601	-166.41
203.819	-251.22
204.037	-245.32
204.255	-137.77
204.473	-116.28
204.691	-94.15
204.909	-88.21
205.127	-79.23
205.345	-148.66
205.562	-123.37
205.78	-135
205.998	-235.51
206.216	-244.63
206.434	-144.44
206.652	-111.43
206.87	-113.41
207.088	-82.89
207.306	-91.59
207.523	-77.51
207.741	-66.37
207.959	-62.08
208.177	-71.25
208.395	-46.23
208.612	-38.69
208.83	-50.8
209.048	-90.73
209.266	-49.03
209.483	-122.44
209.701	-127.87
209.919	-109.28
210.136	-97.9
210.354	-85.45
210.572	-71.02
210.79	-65.28
211.007	-94.23
211.225	-113.09
211.442	-95.63
211.66	-171.92
211.878	-104.82
212.095	-63.28
212.313	-73.98
212.53	-64.85
212.748	-35.3
212.966	-31.61
213.183	-16.98
213.401	7.47
213.618	11.41
213.836	17.9
214.053	20.75
214.271	15.66
214.488	0.87
214.705	-4.87
214.923	-14.66
215.14	-41.9
215.358	-44.38
215.575	-49.28
215.793	-64.44
216.01	-82.5
216.227	-70.03
216.445	-55.9
216.662	-51.99
216.879	-39.88
217.097	-25.33
217.314	-13.31
217.531	-4.36
217.749	-5.78
217.966	0.67
218.183	6.73
218.4	12.18
218.618	3.91
218.835	10.96
219.052	15.92
219.269	15.14
219.487	7.33
219.704	4.84
219.921	1.72
220.138	6.32
220.355	4.73
220.572	2.87
220.79	0.05
221.007	0.45
221.224	-10.77
221.441	-14.73
221.658	-10.67
221.875	-11.32
222.092	-12.89
222.309	-13.07
222.526	-11.4
222.743	-13.09
222.96	-16.67
223.177	-17.59
223.394	-18.09
223.611	-18.26
223.828	-16.89
224.045	-9.49
224.262	-5.69
224.479	-2.6
224.696	1.15
224.913	1.54
225.13	4.07
225.347	0.78
225.564	2.4
225.781	3.95
225.997	4.94
226.214	6.19
226.431	3.61
226.648	3.87
226.865	2.79
227.082	3.41
227.298	4.2
227.515	3.43
227.732	4.55
227.949	5.82
228.165	5.43
228.382	5.52
228.599	4.75
228.816	4.43
229.032	3.95
229.249	3.84
229.466	2.99
229.682	2.4
229.899	2.41
230.116	2.56
230.332	1.92
230.549	1.63
230.765	0.99
230.982	1.53
231.199	1.24
231.415	0.81
231.632	0.14
231.848	-0.38
232.065	-0.03
232.281	0.21
232.498	-0.45
232.714	-2.56
232.931	-2.11
233.147	-2.61
233.364	-2.94
233.58	-2.79
233.797	-1.87
234.013	-1.6
234.23	-1.38
234.446	-0.73
234.662	-2.33
234.879	-3.22
235.095	-1.3
235.312	-1.01
235.528	-1.01
235.744	-0.15
235.961	0.34
236.177	0.3
236.393	1.22
236.61	2.94
236.826	3.59
237.042	4.12
237.258	4.19
237.475	2.9
237.691	1.82
237.907	3.34
238.123	2.52
238.339	3.14
238.556	1.63
238.772	1.28
238.988	0.13
239.204	-1.65
239.42	-0.87
239.636	0.84
239.853	1.62
240.069	1.12
240.285	1.2
240.501	1.51
240.717	0.75
240.933	1.06
241.149	1.46
241.365	1.65
241.581	2.21
241.797	2.25
242.013	2.33
242.229	2.55
242.445	3.22
242.661	3.04
242.877	3.14
243.093	3.44
243.309	3.5
243.525	3.12
243.741	3.49
243.957	2.94
244.173	2.85
244.388	2.81
244.604	2.07
244.82	1.61
245.036	1.49
245.252	0.7
245.468	0.97
245.683	2.06
245.899	2.55
246.115	2.62
246.331	3
246.547	2.9
246.762	2.72
246.978	2.85
247.194	2.99
247.409	3.23
247.625	3.84
247.841	3.59
248.057	3.3
248.272	3.36
248.488	3.06
248.703	3.19
248.919	3.09
249.135	3.04
249.35	3.02
249.566	2.86
249.782	2.83
249.997	2.14
250.213	2.08
250.428	1.86
250.644	1.26
250.859	1.72
251.075	1.5
251.29	1.72
251.506	2.28
251.721	2.83
251.937	3.26
252.152	3.46
252.368	3.46
252.583	3.7
252.798	3.22
253.014	3.42
253.229	3.2
253.445	2.87
253.66	2.71
253.875	2.73
254.091	1.66
254.306	0.63
254.521	0.08
254.737	0.65
254.952	0.81
255.167	1.23
255.383	1.58
255.598	1.28
255.813	1.91
256.028	2.79
256.244	2.09
256.459	2.91
256.674	3.37
256.889	2.98
257.104	2.09
257.32	1.7
257.535	1.16
257.75	0.9
257.965	1.17
258.18	1.03
258.395	1.18
258.61	1.34
258.826	1.25
259.041	1.3
259.256	1.36
259.471	1.64
259.686	1.63
259.901	2
260.116	2.14
260.331	2.1
260.546	2.18
260.761	1.89
260.976	1.98
261.191	1.96
261.406	1.94
261.621	2.07
261.836	1.76
262.05	1.48
262.265	1.28
262.48	1
262.695	0.65
262.91	0.26
263.125	0.79
263.34	0.67
263.555	0.21
263.769	-0.16
263.984	-0.97
264.199	-1.02
264.414	-0.05
264.629	-0.08
264.843	0
265.058	0.66
265.273	0.37
265.488	-0.54
265.702	-0.68
265.917	0.59
266.132	0.51
266.346	1.73
266.561	2.11
266.776	1.85
266.99	1.96
267.205	1.73
267.42	1.42
267.634	1.74
267.849	2.05
268.063	2.05
268.278	1.31
268.492	1.89
268.707	1.17
268.922	1.05
269.136	0.99
269.351	0.74
269.565	0.55
269.78	0.67
269.994	0.34
270.209	0.77
270.423	0.93
270.637	1.23
270.852	0.99
271.066	1.31
271.281	1.26
271.495	1.36
271.709	1.24
271.924	1.63
272.138	1.66
272.353	2.04
272.567	1.79
272.781	1.87
272.996	1.6
273.21	1.71
273.424	1.63
273.638	1.49
273.853	1.43
274.067	1.81
274.281	2.27
274.495	2.16
274.71	1.94
274.924	1.85
275.138	1.84
275.352	2.57
275.566	2.62
275.781	2.61
275.995	2.98
276.209	3.1
276.423	3.04
276.637	2.14
276.851	2.56
277.065	2.94
277.279	3.17
277.493	3.19
277.707	2.82
277.921	2.56
278.135	2.4
278.349	2.18
278.563	1.92
278.777	1.83
278.991	2.34
279.205	1.85
279.419	1.61
279.633	1.4
279.847	1.56
280.061	1.42
280.275	1.65
280.489	1.47
280.703	1.71
280.917	1.96
281.131	1.99
281.344	1.97
281.558	2.13
281.772	1.84
281.986	2.27
282.2	1.92
282.414	1.83
282.627	1.81
282.841	2.27
283.055	2.02
283.269	2.18
283.482	2.37
283.696	2.25
283.91	2.32
284.123	2.31
284.337	2.06
284.551	2.13
284.764	2.05
284.978	1.89
285.192	1.68
285.405	1.58
285.619	1.37
285.833	1.27
286.046	1.26
286.26	1.36
286.473	1.61
286.687	1.63
286.9	1.87
287.114	2.21
287.327	2.49
287.541	2.61
287.754	2.86
287.968	2.58
288.181	2.79
288.395	2.62
288.608	2.15
288.822	2.01
289.035	1.94
289.248	1.75
289.462	1.62
289.675	1.63
289.889	1.58
290.102	1.45
290.315	1.84
290.529	1.66
290.742	1.8
290.955	2.06
291.169	1.84
291.382	2.2
291.595	2.28
291.808	2.39
292.022	2.23
292.235	1.99
292.448	2.02
292.661	1.65
292.875	1.5
293.088	1.76
293.301	1.65
293.514	2.41
293.727	2.3
293.94	2.37
294.153	2.15
294.367	2.39
294.58	2.84
294.793	2.84
295.006	2.86
295.219	3.31
295.432	3.06
295.645	3.45
295.858	3.21
296.071	2.89
296.284	2.99
296.497	3.14
296.71	3.35
296.923	3.18
297.136	3.48
297.349	3.66
297.562	3.56
297.775	3.75
297.988	3.86
298.201	3.89
298.414	4.25
298.626	4.25
298.839	4.24
299.052	4.16
299.265	4.25
299.478	4.26
299.691	4.31
299.903	4.48
300.116	4.55
300.329	4.43
300.542	4.33
300.755	4.24
300.967	4.39
301.18	4.73
301.393	4.71
301.605	5.28
301.818	5.3
302.031	5.77
302.243	5.74
302.456	5.87
302.669	5.73
302.881	6.16
303.094	6.49
303.307	6.38
303.519	6.44
303.732	6.65
303.944	6.42
304.157	6.42
304.37	6.35
304.582	6.23
304.795	6.17
305.007	6.19
305.22	6.37
305.432	5.98
305.645	6.11
305.857	5.92
306.069	5.65
306.282	5.38
306.494	5.54
306.707	5.21
306.919	5.31
307.132	5.26
307.344	5.6
307.556	5.22
307.769	5.23
307.981	5.41
308.193	5.35
308.406	5.69
308.618	6.16
308.83	6.04
309.043	6.3
309.255	6.56
309.467	6.68
309.679	6.63
309.892	6.82
310.104	7.47
310.316	7.55
310.528	7.84
310.74	7.96
310.953	7.73
311.165	7.79
311.377	7.92
311.589	7.74
311.801	7.75
312.013	7.91
312.225	7.88
312.437	7.51
312.649	7.46
312.862	7.31
313.074	7.13
313.286	7.2
313.498	7.38
313.71	7.27
313.922	7.38
314.134	7.41
314.346	7.37
314.558	7.56
314.77	7.74
314.982	7.66
315.193	7.84
315.405	7.7
315.617	7.66
315.829	7.15
316.041	7.34
316.253	7.34
316.465	7.25
316.677	7.1
316.888	7.12
317.1	7.24
317.312	7.25
317.524	6.93
317.736	6.71
317.947	7.13
318.159	7.63
318.371	7.53
318.583	7.46
318.794	7.74
319.006	8.1
319.218	8.38
319.43	8.13
319.641	8.14
319.853	8
320.064	8.29
320.276	8.26
320.488	8.37
320.699	8.35
320.911	9.12
321.123	9.28
321.334	9.26
321.546	8.8
321.757	8.87
321.969	8.99
322.18	9.68
322.392	10.01
322.603	10.21
322.815	10.11
323.026	10.08
323.238	9.52
323.449	9.47
323.661	9.53
323.872	9.88
324.083	9.97
324.295	9.93
324.506	9.83
324.718	9.31
324.929	8.96
325.14	9.01
325.352	9.06
325.563	9.44
325.774	9.27
325.986	9.06
326.197	8.98
326.408	9.01
326.62	9.11
326.831	9.41
327.042	9.85
327.253	9.91
327.464	9.94
327.676	10.12
327.887	10.03
328.098	10.31
328.309	10.49
328.52	10.65
328.732	10.78
328.943	11
329.154	11.12
329.365	11.26
329.576	11.58
329.787	11.51
329.998	11.57
330.209	11.89
330.42	11.94
330.631	12.06
330.842	11.83
331.053	11.82
331.264	11.68
331.475	11.94
331.686	12.02
331.897	11.95
332.108	11.89
332.319	11.83
332.53	11.67
332.741	11.95
332.952	11.94
333.163	11.91
333.374	12.07
333.585	12.11
333.795	11.8
334.006	12.06
334.217	12.22
334.428	12.72
334.639	12.64
334.849	12.71
335.06	12.35
335.271	12.44
335.482	13.05
335.692	13.22
335.903	13.12
336.114	13.28
336.325	13.29
336.535	13.39
336.746	13.2
336.957	13.16
337.167	13.19
337.378	13.41
337.589	13.61
337.799	13.28
338.01	13.22
338.22	13.36
338.431	13.19
338.642	12.53
338.852	12.38
339.063	12.24
339.273	12.51
339.484	12.24
339.694	11.96
339.905	11.68
340.115	11.64
340.326	11.38
340.536	11.42
340.746	11.51
340.957	12.07
341.167	12.2
341.378	12.43
341.588	12.39
341.799	12.83
342.009	13.39
342.219	13.41
342.43	13.7
342.64	14.02
342.85	13.82
343.061	13.58
343.271	13.6
343.481	13.45
343.691	13.27
343.902	13.31
344.112	12.8
344.322	12.54
344.532	12.49
344.743	12.21
344.953	11.78
345.163	11.85
345.373	11.83
345.583	11.78
345.793	11.78
346.004	12
346.214	11.77
346.424	11.99
346.634	12.03
346.844	12.01
347.054	12.06
347.264	11.97
347.474	11.84
347.684	12.24
347.894	11.92
348.104	11.83
348.314	11.6
348.524	11.54
348.734	11.53
348.944	11.24
349.154	11.3
349.364	11.19
349.574	11.38
349.784	11.64
349.994	11.24
350.204	11.44
350.413	11.34
350.623	11.39
350.833	11.55
351.043	11.48
351.253	11.31
351.463	11.52
351.672	11.41
351.882	11.82
352.092	11.88
352.302	11.97
352.511	12.02
352.721	12.23
352.931	12.42
353.141	12.26
353.35	12.39
353.56	12.63
353.77	12.43
353.979	12.7
354.189	12.54
354.399	12.28
354.608	12.34
354.818	12.34
355.027	12.6
355.237	12.14
355.447	12.36
355.656	12.27
355.866	12.23
356.075	12.21
356.285	12.06
356.494	12.13
356.704	12.23
356.913	12.37
357.123	12.29
357.332	12.04
357.542	12.42
357.751	12.36
357.96	12.33
358.17	12.36
358.379	12.46
358.589	12.45
358.798	12.27
359.007	12.18
359.217	12.11
359.426	12.09
359.635	12.11
359.845	11.85
360.054	11.9
360.263	12.04
360.472	11.96
360.682	11.79
360.891	11.76
361.1	11.67
361.309	11.73
361.519	11.55
361.728	11.69
361.937	11.59
362.146	11.62
362.355	11.54
362.564	11.34
362.774	11.43
362.983	11.52
363.192	11.58
363.401	11.67
363.61	11.74
363.819	11.76
364.028	11.57
364.237	11.62
364.446	11.8
364.655	11.77
364.864	11.78
365.073	11.83
365.282	11.64
365.491	11.59
365.7	11.58
365.909	11.44
366.118	11.48
366.327	11.66
366.536	11.67
366.745	11.45
366.954	11.68
367.162	11.92
367.371	11.67
367.58	11.6
367.789	11.59
367.998	11.5
368.207	11.29
368.415	11.13
368.624	11.04
368.833	10.91
369.042	11.09
369.25	10.69
369.459	10.48
369.668	10.72
369.877	10.78
370.085	10.63
370.294	10.67
370.503	10.96
370.711	10.99
370.92	10.91
371.129	10.99
371.337	11.03
371.546	11.27
371.754	11.43
371.963	11.17
372.171	11.19
372.38	11.22
372.589	10.98
372.797	10.94
373.006	10.95
373.214	10.93
373.423	11
373.631	10.75
373.84	10.61
374.048	10.38
374.256	10.6
374.465	10.68
374.673	10.79
374.882	10.85
375.09	10.85
375.298	10.78
375.507	10.57
375.715	10.37
375.923	10.2
376.132	10.21
376.34	10.5
376.548	10.34
376.757	10.29
376.965	10.25
377.173	10.45
377.381	10.53
377.59	10.62
377.798	10.73
378.006	10.78
378.214	11.03
378.423	11.01
378.631	10.76
378.839	10.75
379.047	10.64
379.255	10.74
379.463	10.6
379.671	10.35
379.879	10.31
380.088	10.42
380.296	10.26
380.504	10.33
380.712	10.53
380.92	10.42
381.128	10.32
381.336	10.59
381.544	10.66
381.752	10.56
381.96	10.56
382.168	10.58
382.376	10.4
382.584	10.5
382.791	10.42
382.999	10.02
383.207	10.23
383.415	10.19
383.623	9.84
383.831	9.51
384.039	9.65
384.247	9.69
384.454	9.75
384.662	9.77
384.87	9.78
385.078	9.58
385.285	9.64
385.493	9.56
385.701	9.61
385.909	9.86
386.116	10.12
386.324	10
386.532	9.95
386.739	9.85
386.947	9.87
387.155	10.04
387.362	10.07
387.57	9.98
387.778	9.94
387.985	9.93
388.193	9.86
388.4	9.51
388.608	9.5
388.816	9.48
389.023	9.31
389.231	9.17
389.438	8.95
389.646	9
389.853	9.28
390.061	9.2
390.268	9.19
390.475	9.14
390.683	9.34
390.89	9.38
391.098	9.4
391.305	9.59
391.512	9.73
391.72	9.86
391.927	9.73
392.135	9.63
392.342	9.76
392.549	9.8
392.756	9.81
392.964	9.71
393.171	9.88
393.378	9.92
393.586	9.91
393.793	9.76
394	9.73
394.207	9.91
394.414	10.08
394.622	9.81
394.829	9.77
395.036	9.7
395.243	9.88
395.45	9.71
395.657	9.79
395.864	9.85
396.072	9.82
396.279	9.7
396.486	9.58
396.693	9.39
396.9	9.57
397.107	9.69
397.314	9.81
397.521	9.56
397.728	9.56
397.935	9.42
398.142	9.26
398.349	9.37
398.556	9.43
398.763	9.29
398.97	9.31
399.177	9.29
399.383	9.4
399.59	9.3
399.797	9.48
400.004	9.55
400.211	9.56
400.418	9.74
400.625	10
400.831	9.96
401.038	10.19
401.245	10.2
401.452	10.07
401.658	9.99
401.865	9.97
402.072	9.85
402.279	9.63
402.485	9.58
402.692	9.46
402.899	9.23
403.105	9.36
403.312	9.4
403.519	9.46
403.725	9.61
403.932	9.41
404.138	9.38
404.345	9.47
404.552	9.6
404.758	9.59
404.965	9.61
405.171	9.52
405.378	9.48
405.584	9.37
405.791	9.38
405.997	9.39
406.204	9.45
406.41	9.53
406.617	9.53
406.823	9.57
407.029	9.71
407.236	9.67
407.442	9.78
407.649	9.68
407.855	9.67
408.061	9.62
408.268	9.64
408.474	9.72
408.68	9.75
408.887	9.62
409.093	9.54
409.299	9.55
409.505	9.58
409.712	9.55
409.918	9.63
410.124	9.82
410.33	9.81
410.537	9.84
410.743	9.93
410.949	10.05
411.155	10.23
411.361	10.26
411.567	10.39
411.773	10.48
411.98	10.58
412.186	10.61
412.392	10.55
412.598	10.74
412.804	10.75
413.01	10.73
413.216	10.78
413.422	10.65
413.628	10.68
413.834	10.42
414.04	10.43
414.246	10.33
414.452	10.35
414.658	10.24
414.864	9.96
415.07	9.93
415.275	9.91
415.481	9.78
415.687	9.87
415.893	9.86
416.099	9.9
416.305	9.84
416.511	9.93
416.716	9.81
416.922	9.84
417.128	9.9
417.334	9.92
417.539	10
417.745	10.11
417.951	10.15
418.157	10.13
418.362	10.23
418.568	10.23
418.774	10.17
418.979	10.22
419.185	10.25
419.391	10.29
419.596	10.34
419.802	10.28
420.008	10.21
420.213	10.21
420.419	10.22
420.624	10.25
420.83	10.22
421.035	10.26
421.241	10.22
421.446	10.24
421.652	10.27
421.857	10.21
422.063	10.25
422.268	10.26
422.474	10.24
422.679	10.32
422.885	10.25
423.09	10.31
423.295	10.3
423.501	10.36
423.706	10.35
423.911	10.3
424.117	10.36
424.322	10.42
424.527	10.53
424.733	10.64
424.938	10.61
425.143	10.61
425.349	10.58
425.554	10.68
425.759	10.75
425.964	10.8
426.169	10.92
426.375	10.83
426.58	10.73
426.785	10.64
426.99	10.58
427.195	10.61
427.4	10.62
427.605	10.62
427.811	10.59
428.016	10.58
428.221	10.63
428.426	10.56
428.631	10.8
428.836	10.82
429.041	10.79
429.246	10.74
429.451	10.8
429.656	10.9
429.861	11
430.066	10.94
430.271	10.96
430.476	10.98
430.681	10.98
430.886	10.86
431.09	10.88
431.295	10.88
431.5	10.91
431.705	10.79
431.91	10.7
432.115	10.76
432.32	10.87
432.524	10.84
432.729	10.74
432.934	10.79
433.139	10.83
433.343	10.93
433.548	11.02
433.753	11.14
433.958	11.22
434.162	11.36
434.367	11.26
434.572	11.21
434.776	11.39
434.981	11.52
435.186	11.49
435.39	11.59
435.595	11.56
435.799	11.51
436.004	11.39
436.209	11.37
436.413	11.29
436.618	11.37
436.822	11.44
437.027	11.24
437.231	11.25
437.436	11.29
437.64	11.2
437.845	11.18
438.049	11.2
438.253	11.3
438.458	11.25
438.662	11.29
438.867	11.26
439.071	11.24
439.275	11.34
439.48	11.3
439.684	11.31
439.888	11.35
440.093	11.35
440.297	11.38
440.501	11.37
440.706	11.43
440.91	11.44
441.114	11.42
441.318	11.38
441.523	11.32
441.727	11.42
441.931	11.38
442.135	11.37
442.339	11.41
442.543	11.33
442.748	11.25
442.952	11.18
443.156	11.18
443.36	11.24
443.564	11.33
443.768	11.35
443.972	11.23
444.176	11.31
444.38	11.29
444.584	11.33
444.788	11.28
444.992	11.32
445.196	11.42
445.4	11.44
445.604	11.51
445.808	11.48
446.012	11.45
446.216	11.43
446.42	11.38
446.624	11.38
446.828	11.29
447.032	11.39
447.235	11.4
447.439	11.45
447.643	11.42
447.847	11.39
448.051	11.35
448.254	11.4
448.458	11.44
448.662	11.48
448.866	11.51
449.069	11.59
449.273	11.55
449.477	11.54
449.681	11.43
449.884	11.43
450.088	11.39
450.292	11.5
450.495	11.54
450.699	11.55
450.902	11.55
451.106	11.57
451.31	11.63
451.513	11.71
451.717	11.67
451.92	11.64
452.124	11.7
452.327	11.56
452.531	11.56
452.734	11.39
452.938	11.37
453.141	11.36
453.345	11.27
453.548	11.18
453.752	11.1
453.955	11.14
454.158	11.22
454.362	11.16
454.565	11.29
454.769	11.29
454.972	11.49
455.175	11.57
455.379	11.54
455.582	11.6
455.785	11.58
455.988	11.6
456.192	11.59
456.395	11.55
456.598	11.52
456.801	11.55
457.005	11.54
457.208	11.48
457.411	11.46
457.614	11.47
457.817	11.55
458.021	11.56
458.224	11.57
458.427	11.57
458.63	11.57
458.833	11.55
459.036	11.48
459.239	11.42
459.442	11.45
459.645	11.4
459.848	11.43
460.051	11.38
460.254	11.4
460.457	11.36
460.66	11.34
460.863	11.35
461.066	11.41
461.269	11.47
461.472	11.57
461.675	11.5
461.878	11.53
462.081	11.5
462.284	11.51
462.486	11.53
462.689	11.6
462.892	11.59
463.095	11.56
463.298	11.51
463.5	11.52
463.703	11.45
463.906	11.48
464.109	11.47
464.311	11.44
464.514	11.38
464.717	11.32
464.92	11.29
465.122	11.39
465.325	11.53
465.528	11.55
465.73	11.56
465.933	11.51
466.135	11.52
466.338	11.48
466.541	11.56
466.743	11.65
466.946	11.58
467.148	11.61
467.351	11.64
467.553	11.56
467.756	11.61
467.958	11.62
468.161	11.63
468.363	11.58
468.566	11.58
468.768	11.52
468.971	11.54
469.173	11.69
469.375	11.7
469.578	11.68
469.78	11.73
469.983	11.72
470.185	11.66
470.387	11.65
470.59	11.72
470.792	11.77
470.994	11.8
471.196	11.74
471.399	11.73
471.601	11.68
471.803	11.7
472.005	11.59
472.208	11.62
472.41	11.6
472.612	11.66
472.814	11.7
473.016	11.78
473.218	11.76
473.421	11.79
473.623	11.75
473.825	11.86
474.027	11.82
474.229	11.78
474.431	11.76
474.633	11.85
474.835	11.93
475.037	11.89
475.239	11.87
475.441	11.89
475.643	11.91
475.845	11.94
476.047	11.92
476.249	11.93
476.451	12.04
476.653	12.09
476.855	12
477.057	11.86
477.258	11.83
477.46	11.84
477.662	11.87
477.864	11.8
478.066	11.83
478.268	11.8
478.469	11.73
478.671	11.71
478.873	11.63
479.075	11.71
479.276	11.75
479.478	11.81
479.68	11.74
479.882	11.8
480.083	11.82
480.285	11.76
480.487	11.72
480.688	11.77
480.89	11.83
481.091	11.78
481.293	11.75
481.495	11.78
481.696	11.74
481.898	11.77
482.099	11.69
482.301	11.69
482.502	11.7
482.704	11.71
482.905	11.7
483.107	11.7
483.308	11.74
483.51	11.71
483.711	11.68
483.913	11.7
484.114	11.7
484.315	11.71
484.517	11.68
484.718	11.67
484.92	11.66
485.121	11.67
485.322	11.63
485.524	11.62
485.725	11.65
485.926	11.66
486.127	11.63
486.329	11.62
486.53	11.59
486.731	11.63
486.932	11.66
487.134	11.68
487.335	11.69
487.536	11.71
487.737	11.67
487.938	11.65
488.139	11.62
488.341	11.6
488.542	11.63
488.743	11.69
488.944	11.67
489.145	11.69
489.346	11.71
489.547	11.69
489.748	11.77
489.949	11.79
490.15	11.82
490.351	11.84
490.552	11.89
490.753	11.92
490.954	11.89
491.155	11.91
491.356	11.94
491.557	11.93
491.758	11.95
491.959	11.91
492.159	11.95
492.36	11.94
492.561	11.96
492.762	11.92
492.963	11.92
493.164	11.95
493.364	11.96
493.565	11.98
493.766	11.94
493.967	11.93
494.167	11.92
494.368	11.92
494.569	12.01
494.769	12.01
494.97	12.1
495.171	12.04
495.371	12.09
495.572	12.1
495.773	12.03
495.973	12.02
496.174	12.06
496.375	12.07
496.575	12.17
496.776	12.16
496.976	12.2
497.177	12.22
497.377	12.23
497.578	12.19
497.778	12.17
497.979	12.16
498.179	12.21
498.38	12.2
498.58	12.21
498.78	12.12
498.981	12.1
499.181	12.09
499.382	12.11
499.582	12.17
499.782	12.2
499.983	12.2
500.183	12.32
500.383	12.33
500.584	12.33
500.784	12.29
500.984	12.27
501.184	12.33
501.385	12.31
501.585	12.41
501.785	12.42
501.985	12.46
502.185	12.53
502.386	12.53
502.586	12.62
502.786	12.74
502.986	12.79
503.186	12.83
503.386	12.91
503.586	13.03
503.786	12.97
503.987	13.02
504.187	12.95
504.387	12.97
504.587	12.88
504.787	12.89
504.987	12.89
505.187	12.93
505.387	12.97
505.587	12.96
505.786	12.97
505.986	13.05
506.186	13.05
506.386	13.12
506.586	13.17
506.786	13.29
506.986	13.23
507.186	13.24
507.386	13.3
507.585	13.3
507.785	13.31
507.985	13.34
508.185	13.25
508.384	13.32
508.584	13.38
508.784	13.33
508.984	13.39
509.183	13.51
509.383	13.48
509.583	13.53
509.782	13.61
509.982	13.63
510.182	13.63
510.381	13.74
510.581	13.76
510.781	13.76
510.98	13.85
511.18	13.8
511.379	13.83
511.579	13.91
511.778	13.91
511.978	13.89
512.177	13.89
512.377	14
512.576	14.01
512.776	14.02
512.975	14.14
513.175	14.19
513.374	14.28
513.573	14.29
513.773	14.31
513.972	14.38
514.172	14.46
514.371	14.57
514.57	14.48
514.77	14.54
514.969	14.58
515.168	14.61
515.367	14.65
515.567	14.69
515.766	14.74
515.965	14.77
516.164	14.77
516.364	14.84
516.563	14.89
516.762	15.04
516.961	15.08
517.16	15.18
517.359	15.19
517.559	15.23
517.758	15.22
517.957	15.29
518.156	15.39
518.355	15.44
518.554	15.51
518.753	15.53
518.952	15.53
519.151	15.61
519.35	15.58
519.549	15.61
519.748	15.65
519.947	15.76
520.146	15.85
520.345	15.91
520.544	15.96
520.743	16.01
520.942	16.11
521.141	16.24
521.339	16.32
521.538	16.42
521.737	16.54
521.936	16.64
522.135	16.74
522.333	16.81
522.532	16.87
522.731	17.05
522.93	17.09
523.129	17.09
523.327	17.14
523.526	17.2
523.725	17.25
523.923	17.27
524.122	17.38
524.321	17.42
524.519	17.46
524.718	17.6
524.917	17.59
525.115	17.63
525.314	17.7
525.512	17.77
525.711	17.78
525.909	17.88
526.108	18.03
526.306	18.1
526.505	18.25
526.703	18.34
526.902	18.39
527.1	18.51
527.299	18.62
527.497	18.68
527.696	18.72
527.894	18.83
528.092	18.89
528.291	18.93
528.489	19
528.688	19.05
528.886	19.14
529.084	19.21
529.283	19.24
529.481	19.3
529.679	19.41
529.877	19.49
530.076	19.58
530.274	19.66
530.472	19.74
530.67	19.83
530.869	19.88
531.067	19.9
531.265	19.99
531.463	20.12
531.661	20.22
531.859	20.3
532.057	20.41
532.255	20.49
532.454	20.61
532.652	20.72
532.85	20.77
533.048	20.9
533.246	20.95
533.444	20.98
533.642	21.05
533.84	21.11
534.038	21.23
534.236	21.28
534.434	21.37
534.632	21.46
534.83	21.54
535.027	21.66
535.225	21.67
535.423	21.8
535.621	21.89
535.819	21.97
536.017	22.05
536.215	22.06
536.412	22.16
536.61	22.22
536.808	22.31
537.006	22.32
537.203	22.44
537.401	22.49
537.599	22.61
537.797	22.77
537.994	22.86
538.192	23
538.39	23.21
538.587	23.34
538.785	23.49
538.983	23.6
539.18	23.82
539.378	23.96
539.575	24.16
539.773	24.25
539.97	24.35
540.168	24.47
540.366	24.54
540.563	24.59
540.761	24.7
540.958	24.77
541.155	24.81
541.353	24.89
541.55	24.92
541.748	24.94
541.945	25.04
542.143	25.14
542.34	25.19
542.537	25.34
542.735	25.41
542.932	25.51
543.129	25.63
543.327	25.81
543.524	25.96
543.721	26.12
543.919	26.33
544.116	26.51
544.313	26.64
544.51	26.88
544.708	27.07
544.905	27.31
545.102	27.5
545.299	27.71
545.496	27.87
545.693	27.88
545.891	27.99
546.088	27.99
546.285	28.01
546.482	27.99
546.679	27.95
546.876	27.9
547.073	27.85
547.27	27.85
547.467	27.74
547.664	27.6
547.861	27.62
548.058	27.58
548.255	27.61
548.452	27.55
548.649	27.58
548.846	27.55
549.043	27.54
549.24	27.56
549.437	27.47
549.633	27.56
549.83	27.56
550.027	27.54
550.224	27.57
550.421	27.64
550.618	27.64
550.814	27.59
551.011	27.7
551.208	27.75
551.405	27.73
551.601	27.69
551.798	27.62
551.995	27.61
552.191	27.62
552.388	27.64
552.585	27.6
552.781	27.63
552.978	27.67
553.175	27.66
553.371	27.63
553.568	27.66
553.764	27.72
553.961	27.63
554.157	27.6
554.354	27.64
554.55	27.58
554.747	27.6
554.943	27.83
555.14	27.9
555.336	27.88
555.533	27.92
555.729	27.89
555.926	27.88
556.122	27.96
556.318	28.05
556.515	28.08
556.711	28.15
556.907	28.17
557.104	28.01
557.3	27.89
557.496	27.97
557.693	27.97
557.889	28.14
558.085	28.16
558.281	28.31
558.478	28.36
558.674	28.41
558.87	28.4
559.066	28.42
559.262	28.45
559.459	28.66
559.655	28.62
559.851	28.64
560.047	28.54
560.243	28.69
560.439	28.78
560.635	28.69
560.831	28.62
561.027	28.71
561.223	28.78
561.419	28.77
561.615	28.82
561.811	28.94
562.007	28.93
562.203	28.91
562.399	28.85
562.595	28.77
562.791	28.98
562.987	28.99
563.183	29.02
563.379	29.05
563.575	29.16
563.771	29.01
563.966	29.06
564.162	29.17
564.358	29.26
564.554	29.37
564.75	29.49
564.945	29.44
565.141	29.53
565.337	29.46
565.533	29.47
565.728	29.54
565.924	29.55
566.12	29.52
566.315	29.44
566.511	29.46
566.707	29.46
566.902	29.42
567.098	29.46
567.293	29.38
567.489	29.43
567.684	29.39
567.88	29.35
568.076	29.44
568.271	29.52
568.467	29.57
568.662	29.56
568.858	29.68
569.053	29.68
569.248	29.74
569.444	29.9
569.639	30
569.835	30.11
570.03	30.11
570.225	30.24
570.421	30.16
570.616	30.22
570.812	30.2
571.007	30.09
571.202	30.06
571.397	30.02
571.593	30.03
571.788	29.99
571.983	30.03
572.178	30.07
572.374	30.01
572.569	30.04
572.764	30.02
572.959	29.99
573.154	30.01
573.35	30.03
573.545	30.03
573.74	30.1
573.935	30.18
574.13	30.15
574.325	30.21
574.52	30.23
574.715	30.29
574.91	30.31
575.105	30.5
575.3	30.52
575.495	30.49
575.69	30.48
575.885	30.45
576.08	30.49
576.275	30.61
576.47	30.67
576.665	30.7
576.86	30.74
577.055	30.8
577.25	30.9
577.444	31.04
577.639	31.33
577.834	31.55
578.029	31.58
578.224	31.49
578.418	31.53
578.613	31.57
578.808	31.66
579.003	31.82
579.197	31.92
579.392	32.02
579.587	31.98
579.781	31.99
579.976	31.97
580.171	32.12
580.365	32.18
580.56	32.18
580.755	32.18
580.949	32.27
581.144	32.17
581.338	32.18
581.533	32.14
581.727	32.19
581.922	32.31
582.116	32.31
582.311	32.33
582.505	32.46
582.7	32.54
582.894	32.55
583.089	32.6
583.283	32.6
583.478	32.74
583.672	32.72
583.866	32.7
584.061	32.6
584.255	32.56
584.449	32.55
584.644	32.54
584.838	32.56
585.032	32.6
585.226	32.57
585.421	32.69
585.615	32.79
585.809	32.84
586.003	33.08
586.198	33.14
586.392	33.27
586.586	33.44
586.78	33.58
586.974	33.63
587.168	33.59
587.363	33.49
587.557	33.47
587.751	33.3
587.945	33.09
588.139	32.98
588.333	32.95
588.527	32.84
588.721	32.69
588.915	32.6
589.109	32.57
589.303	32.59
589.497	32.6
589.691	32.58
589.885	32.5
590.079	32.56
590.273	32.51
590.466	32.52
590.66	32.63
590.854	32.78
591.048	32.86
591.242	32.92
591.436	32.89
591.629	33.05
591.823	33.11
592.017	33.29
592.211	33.46
592.404	33.5
592.598	33.53
592.792	33.6
592.986	33.42
593.179	33.35
593.373	33.34
593.567	33.49
593.76	33.41
593.954	33.46
594.147	33.4
594.341	33.3
594.535	33.32
594.728	33.19
594.922	33.19
595.115	33.37
595.309	33.37
595.502	33.26
595.696	33.14
595.889	33.02
596.083	32.99
596.276	32.96
596.47	33.02
596.663	32.98
596.856	32.98
597.05	32.91
597.243	32.86
597.437	32.87
597.63	32.95
597.823	33.11
598.017	33.32
598.21	33.49
598.403	33.5
598.596	33.46
598.79	33.54
598.983	33.68
599.176	33.87
599.369	33.86
599.563	33.99
599.756	34.04
599.949	34.02
600.142	33.88
600.335	33.75
600.528	33.84
600.722	33.97
600.915	33.89
601.108	33.78
601.301	33.68
601.494	33.7
601.687	33.69
601.88	33.64
602.073	33.55
602.266	33.58
602.459	33.43
602.652	33.36
602.845	33.25
603.038	33.31
603.231	33.36
603.424	33.44
603.617	33.4
603.809	33.33
604.002	33.27
604.195	33.26
604.388	33.28
604.581	33.41
604.774	33.46
604.966	33.57
605.159	33.61
605.352	33.6
605.545	33.56
605.737	33.67
605.93	33.71
606.123	33.85
606.316	34.06
606.508	34.09
606.701	34.08
606.894	34.28
607.086	34.36
607.279	34.59
607.471	34.84
607.664	34.97
607.857	35.14
608.049	35.52
608.242	35.95
608.434	36.31
608.627	37.07
608.819	37.78
609.012	38.54
609.204	39.56
609.397	40.62
609.589	41.64
609.782	42.78
609.974	44.1
610.166	45.23
610.359	46.43
610.551	47.61
610.743	48.52
610.936	49.31
611.128	49.91
611.32	50.12
611.513	50.19
611.705	50.24
611.897	50.05
612.09	49.68
612.282	49.15
612.474	48.4
612.666	47.7
612.858	47.02
613.051	46.31
613.243	45.73
613.435	45.13
613.627	44.62
613.819	44.05
614.011	43.62
614.203	42.97
614.395	42.57
614.588	42.17
614.78	41.58
614.972	41.16
615.164	40.74
615.356	40.35
615.548	39.99
615.74	39.68
615.932	39.12
616.124	38.77
616.315	38.45
616.507	38.27
616.699	37.88
616.891	37.5
617.083	37.23
617.275	37.17
617.467	36.87
617.659	36.8
617.85	36.55
618.042	36.72
618.234	36.67
618.426	36.6
618.618	36.36
618.809	36.38
619.001	36.52
619.193	36.39
619.384	36.3
619.576	36.29
619.768	36.23
619.959	36.31
620.151	36.27
620.343	36.28
620.534	36.43
620.726	36.56
620.917	36.46
621.109	36.58
621.301	36.83
621.492	36.86
621.684	36.93
621.875	36.92
622.067	36.8
622.258	37
622.45	36.94
622.641	36.78
622.832	36.57
623.024	36.78
623.215	36.6
623.407	36.53
623.598	36.68
623.789	36.51
623.981	36.6
624.172	36.52
624.363	36.44
624.555	36.39
624.746	36.37
624.937	36.54
625.129	36.54
625.32	36.58
625.511	36.55
625.702	36.5
625.893	36.66
626.085	36.59
626.276	36.78
626.467	36.72
626.658	36.7
626.849	36.64
627.04	36.67
627.231	36.59
627.422	36.78
627.614	36.8
627.805	36.79
627.996	36.81
628.187	36.84
628.378	37.01
628.569	37.14
628.76	37.37
628.951	37.64
629.142	37.82
629.332	37.98
629.523	38.02
629.714	38.06
629.905	38.18
630.096	38.26
630.287	38.49
630.478	38.32
630.669	38.25
630.859	38.25
631.05	38.14
631.241	38
631.432	38.02
631.623	37.7
631.813	37.71
632.004	37.63
632.195	37.48
632.385	37.14
632.576	37.11
632.767	36.99
632.957	36.79
633.148	36.66
633.339	36.46
633.529	36.06
633.72	36.04
633.91	35.99
634.101	35.7
634.292	35.56
634.482	35.67
634.673	35.46
634.863	35.34
635.054	35.36
635.244	35.37
635.435	35.5
635.625	35.69
635.815	35.7
636.006	35.63
636.196	35.78
636.387	35.94
636.577	36.08
636.767	36.24
636.958	36.39
637.148	36.36
637.338	36.6
637.529	36.55
637.719	36.61
637.909	36.8
638.099	36.91
638.29	36.82
638.48	36.71
638.67	36.42
638.86	36.5
639.05	36.49
639.241	36.31
639.431	36.21
639.621	36.07
639.811	36.04
640.001	36.08
640.191	35.99
640.381	36.28
640.571	36.34
640.761	36.7
640.951	36.63
641.141	36.59
641.331	36.96
641.521	36.85
641.711	37.03
641.901	37.2
642.091	37.17
642.281	37.21
642.471	37.01
642.661	37.05
642.851	36.71
643.041	36.7
643.231	36.98
643.42	36.93
643.61	37.1
643.8	37.08
643.99	36.79
644.18	36.67
644.369	36.88
644.559	37.12
644.749	37.09
644.939	37.16
645.128	37.21
645.318	37.08
645.508	36.93
645.697	36.98
645.887	36.79
646.076	37.04
646.266	37.02
646.456	36.81
646.645	36.59
646.835	36.49
647.024	36.52
647.214	36.42
647.403	36.18
647.593	36.08
647.782	35.99
647.972	36.2
648.161	36.15
648.351	36.34
648.54	36.37
648.73	36.49
648.919	36.83
649.108	36.92
649.298	36.95
649.487	37.24
649.677	37.49
649.866	37.44
650.055	37.5
650.244	37.61
650.434	37.5
650.623	37.62
650.812	37.56
651.002	37.42
651.191	37.39
651.38	37.25
651.569	37.23
651.758	37.31
651.947	37.42
652.137	37.49
652.326	37.52
652.515	37.62
652.704	37.64
652.893	37.86
653.082	37.91
653.271	38.03
653.46	38.2
653.649	38.32
653.838	38.26
654.027	38.2
654.216	38.03
654.405	38.02
654.594	37.9
654.783	37.83
654.972	37.81
655.161	37.92
655.35	37.83
655.539	37.98
655.728	38.08
655.916	38.07
656.105	37.99
656.294	38.08
656.483	37.94
656.672	37.91
656.86	37.7
657.049	37.72
657.238	37.66
657.427	37.67
657.615	37.63
657.804	37.42
657.993	37.33
658.181	37.37
658.37	37.41
658.559	37.53
658.747	37.8
658.936	37.71
659.125	37.47
659.313	37.43
659.502	37.46
659.69	37.37
659.879	37.53
660.067	37.59
660.256	37.69
660.444	37.48
660.633	37.42
660.821	37.17
661.01	37.46
661.198	37.7
661.387	37.8
661.575	37.95
661.763	38.11
661.952	37.87
662.14	37.88
662.328	37.88
662.517	38.33
662.705	38.21
662.893	38.29
663.082	38.74
663.27	38.85
663.458	38.85
663.646	38.85
663.834	38.85
664.023	38.85
664.211	38.85
664.399	39.04
664.587	38.54
664.775	38.78
664.963	38.74
665.152	38.14
665.34	38.21
665.528	38.08
665.716	37.77
665.904	37.75
666.092	38.22
666.28	38.35
666.468	38.24
666.656	38.64
666.844	38.54
667.032	38.67
667.22	39.06
667.408	38.83
667.596	39.06
667.784	39.19
667.971	39.32
668.159	39.08
668.347	39.08
668.535	39.1
668.723	39.31
668.911	39.53
669.098	39.51
669.286	39.42
669.474	39.5
669.662	39.5
669.849	39.55
670.037	39.48
670.225	39.34
670.413	39.3
670.6	39.3
670.788	39.02
670.976	39.13
671.163	39.01
671.351	38.77
671.538	38.84
671.726	38.71
671.913	38.58
672.101	38.41
672.289	38.53
672.476	38.59
672.664	38.52
672.851	38.44
673.039	38.13
673.226	38.38
673.413	38.66
673.601	38.55
673.788	38.74
673.976	38.87
674.163	39.11
674.35	38.94
674.538	38.91
674.725	39.2
674.912	39.32
675.1	39.66
675.287	39.45
675.474	39.36
675.662	39.48
675.849	39.29
676.036	39.45
676.223	39.26
676.411	39.86
676.598	40.04
676.785	39.74
676.972	39.78
677.159	39.52
677.346	39.76
677.533	39.85
677.721	40.01
677.908	40.03
678.095	39.81
678.282	39.96
678.469	39.58
678.656	39.42
678.843	39.44
679.03	39.27
679.217	39.26
679.404	39.14
679.591	39.3
679.778	39.11
679.964	38.98
680.151	39.05
680.338	38.97
680.525	38.94
680.712	39.03
680.899	39.13
681.086	39.23
681.272	39.29
681.459	39.37
681.646	39.31
681.833	39.37
682.02	39.5
682.206	39.41
682.393	39.39
682.58	39.68
682.766	39.81
682.953	39.82
683.14	40.12
683.326	40.09
683.513	40.32
683.7	40.33
683.886	40.25
684.073	40.27
684.259	40.5
684.446	40.53
684.632	40.33
684.819	40.3
685.005	40.24
685.192	40.19
685.378	40.34
685.565	40.19
685.751	39.84
685.938	40.04
686.124	40.25
686.31	40.18
686.497	40.4
686.683	40.5
686.87	40.44
687.056	40.62
687.242	40.67
687.429	40.46
687.615	40.41
687.801	40.61
687.987	40.27
688.174	40.2
688.36	40.56
688.546	40.33
688.732	40.05
688.918	39.88
689.105	39.67
689.291	39.69
689.477	39.63
689.663	39.55
689.849	39.7
690.035	39.82
690.221	39.58
690.407	39.36
690.593	39.49
690.779	39.8
690.965	40.1
691.151	40.07
691.337	39.92
691.523	40.16
691.709	40.27
691.895	40.28
692.081	40.16
692.267	40.43
692.453	40.38
692.639	40.19
692.825	40.13
693.011	39.98
693.196	40.24
693.382	40.12
693.568	40.29
693.754	40.36
693.94	40.22
694.125	40.38
694.311	40.23
694.497	40.22
694.682	40.44
694.868	40.26
695.054	40.27
695.239	40.18
695.425	40.07
695.611	39.88
695.796	39.83
695.982	39.8
696.168	39.68
696.353	39.99
696.539	39.69
696.724	39.73
696.91	39.82
697.095	39.92
697.281	39.9
697.466	39.89
697.652	39.82
697.837	39.79
698.023	39.86
698.208	40.17
698.393	40.11
698.579	40.04
698.764	39.93
698.949	40
699.135	39.93
699.32	39.95
699.505	39.98
699.691	40.23
699.876	40.37
700.061	40.52
700.246	40.33
700.432	40.29
700.617	40.56
700.802	40.68
700.987	40.57
701.172	40.66
701.358	40.84
701.543	40.94
701.728	41.04
701.913	40.99
702.098	40.56
702.283	40.93
702.468	40.97
702.653	40.97
702.838	41.03
703.023	41.26
703.208	41.56
703.393	41.69
703.578	41.84
703.763	41.66
703.948	41.62
704.133	42.4
704.318	42.77
704.503	43.16
704.688	43.4
704.873	43.53
705.057	43.94
705.242	43.83
705.427	43.5
705.612	43.79
705.797	43.98
705.981	43.9
706.166	43.89
706.351	43.6
706.536	43.37
706.72	44.04
706.905	44.29
707.09	44.01
707.274	44.37
707.459	44.7
707.644	44.56
707.828	44.69
708.013	45.48
708.197	45.08
708.382	45.12
708.567	45.45
708.751	45.3
708.936	45.08
709.12	45.01
709.305	44.59
709.489	45.09
709.673	45.2
709.858	44.99
710.042	44.46
710.227	44.79
710.411	44.64
710.596	44.51
710.78	44.26
710.964	44.32
711.149	44.62
711.333	44.82
711.517	44.42
711.702	44.25
711.886	44.28
712.07	44.33
712.254	44.07
712.438	44.28
712.623	44.28
712.807	43.86
712.991	43.78
713.175	43.4
713.359	42.88
713.544	42.54
713.728	42.56
713.912	42.65
714.096	42.89
714.28	42.65
714.464	42.4
714.648	42.11
714.832	42.27
715.016	42.03
715.2	42.38
715.384	42.49
715.568	42.38
715.752	42.11
715.936	41.62
716.12	40.96
716.304	41.03
716.488	40.82
716.671	40.34
716.855	39.97
717.039	40.28
717.223	39.67
717.407	39.64
717.59	39.7
717.774	39.65
717.958	39.5
718.142	39.52
718.325	39.61
718.509	39.38
718.693	39.71
718.877	39.77
719.06	39.5
719.244	39.87
719.428	39.77
719.611	39.53
719.795	39.5
719.978	39.63
720.162	39.47
720.345	39.06
720.529	39.3
720.713	39.42
720.896	39.54
721.08	39.63
721.263	39.58
721.446	39.67
721.63	40.07
721.813	40.28
721.997	40.63
722.18	40.73
722.364	40.55
722.547	40.67
722.73	40.48
722.914	40.48
723.097	40.2
723.28	39.85
723.464	39.72
723.647	39.48
723.83	39.56
724.013	39.5
724.197	39.5
724.38	40.21
724.563	40.19
724.746	40.1
724.929	40.47
725.112	40.6
725.296	40.89
725.479	40.8
725.662	40.8
725.845	40.3
726.028	40.35
726.211	40.32
726.394	39.88
726.577	40.02
726.76	40.47
726.943	40.12
727.126	40.45
727.309	40.45
727.492	40.84
727.675	40.96
727.858	41.29
728.041	41.14
728.224	41.17
728.407	41.3
728.589	41.45
728.772	41.29
728.955	41.31
729.138	40.51
729.321	40.46
729.503	40.07
729.686	40.23
729.869	40.37
730.052	40.11
730.234	40.15
730.417	40.56
730.6	40.19
730.782	40.21
730.965	40.5
731.148	40.78
731.33	40.49
731.513	40.44
731.695	40.23
731.878	40.01
732.061	40.43
732.243	40.48
732.426	40.1
732.608	40.32
732.791	40.26
732.973	40.01
733.156	40.33
733.338	40.54
733.52	40.73
733.703	40.68
733.885	40.95
734.068	41.23
734.25	41.39
734.432	41.41
734.615	41.49
734.797	41.66
734.979	41.48
735.162	41.3
735.344	41.21
735.526	41.62
735.708	41.89
735.891	41.81
736.073	41.8
736.255	41.53
736.437	41.81
736.619	41.65
736.802	41.37
736.984	41.43
737.166	41.55
737.348	41.69
737.53	41.74
737.712	41.49
737.894	41.15
738.076	40.54
738.258	41
738.44	41.21
738.622	41.12
738.804	41.71
738.986	41.72
739.168	41.96
739.35	41.97
739.532	41.5
739.714	41.7
739.896	42.2
740.078	42.26
740.259	42.28
740.441	41.49
740.623	41.31
740.805	40.99
740.987	41.33
741.168	41.8
741.35	42.38
741.532	42.41
741.714	42.05
741.895	42.26
742.077	42.46
742.259	42.39
742.44	42.76
742.622	42.78
742.804	42.62
742.985	42.28
743.167	41.71
743.348	40.95
743.53	41.36
743.711	42.19
743.893	41.8
744.075	42.48
744.256	42.52
744.438	42.22
744.619	42.22
744.8	42.1
744.982	42.21
745.163	42.23
745.345	42.1
745.526	42.44
745.707	42.2
745.889	42.38
746.07	41.76
746.252	41.66
746.433	42.03
746.614	41.84
746.795	41.93
746.977	42.25
747.158	42.5
747.339	43.08
747.52	42.5
747.702	42.36
747.883	42
748.064	42
748.245	42.12
748.426	42.45
748.607	42.91
748.788	42.98
748.97	42.41
749.151	42.19
749.332	41.59
749.513	41.61
749.694	41.81
749.875	41.87
750.056	42.09
750.237	42.72
750.418	42.53
750.599	41.75
750.78	41.41
750.96	42.19
751.141	41.84
751.322	42.27
751.503	42.41
751.684	42.21
751.865	42.03
752.046	41.52
752.226	40.63
752.407	41.01
752.588	41.32
752.769	41.83
752.949	41.31
753.13	41.39
753.311	41.84
753.492	42.16
753.672	42.09
753.853	42.22
754.034	43
754.214	43.8
754.395	43.17
754.575	44.23
754.756	44.11
754.937	44.15
755.117	43.9
755.298	43.51
755.478	43.59
755.659	43.46
755.839	43.65
756.02	43.44
756.2	42.46
756.381	42.55
756.561	41.93
756.741	41.87
756.922	42.02
757.102	42.52
757.283	42.33
757.463	41.66
757.643	41.98
757.823	42.46
758.004	41.15
758.184	41.6
758.364	41.1
758.545	40.93
758.725	40.54
758.905	40.24
759.085	39.07
759.265	39.03
759.446	38.83
759.626	37.85
759.806	36.85
759.986	37.32
760.166	37.36
760.346	37.3
760.526	37.29
760.706	37.09
760.886	36.86
761.066	37.34
761.246	37.37
761.426	37.79
761.606	38.31
761.786	38.45
761.966	38.88
762.146	38.29
762.326	38.52
762.506	38.16
762.686	38.42
762.866	38.53
763.046	38.79
763.225	38.55
763.405	38.52
763.585	38.59
763.765	38.77
763.945	38.69
764.124	38.74
764.304	38.78
764.484	38.92
764.664	38.91
764.843	39.26
765.023	39.29
765.203	39.58
765.382	39.67
765.562	39.69
765.741	40.1
765.921	40.34
766.101	40.59
766.28	40.88
766.46	41.35
766.639	41.71
766.819	41.72
766.998	41.9
767.178	42.64
767.357	42.25
767.537	42.4
767.716	41.92
767.896	41.34
768.075	41.79
768.254	42.01
768.434	41.44
768.613	41.01
768.792	40.28
768.972	40.43
769.151	39.68
769.33	39.39
769.51	39.32
769.689	39.22
769.868	39.49
770.047	39.21
770.226	38.1
770.406	38.52
770.585	39.1
770.764	39.6
770.943	39.56
771.122	38.79
771.301	39.78
771.48	39.83
771.66	40.27
771.839	39.82
772.018	40.48
772.197	41
772.376	41.24
772.555	41.59
772.734	41.95
772.913	41.36
773.092	42.75
773.271	42.82
773.449	42.35
773.628	41.48
773.807	42.22
773.986	40.97
774.165	41.94
774.344	41.83
774.523	41.55
774.701	41.01
774.88	41.56
775.059	40.91
775.238	40.03
775.417	41.05
775.595	41.98
775.774	41.91
775.953	42.15
776.131	41.55
776.31	41.79
776.489	41.24
776.667	40.83
776.846	40.46
777.025	40.84
777.203	41.79
777.382	40.78
777.56	41.01
777.739	41.26
777.917	41.98
778.096	42.43
778.274	42.25
778.453	42.5
778.631	43.58
778.81	43.77
778.988	42.81
779.166	42.75
779.345	43.54
779.523	43.78
779.702	43.1
779.88	42.93
780.058	42.34
780.237	42.87
780.415	42.81
780.593	42.87
780.771	43.03
780.95	44.41
781.128	44.26
781.306	43.54
781.484	43.26
781.662	43.14
781.841	43.1
782.019	42.31
782.197	41.62
782.375	41.92
782.553	41.41
782.731	41.55
782.909	41
783.087	40.47
783.265	39.85
783.443	40.54
783.621	40.58
783.799	40
783.977	40.95
784.155	41.01
784.333	41.04
784.511	41.31
784.689	41.26
784.867	40.9
785.045	40.98
785.223	42.62
785.4	41.16
785.578	41.16
785.756	41.92
785.934	41.42
786.112	41.98
786.289	41.42
786.467	40.94
786.645	40.56
786.823	40.64
787	40.63
787.178	39.8
787.356	39.47
787.533	40.09
787.711	39.92
787.889	40.38
788.066	40.08
788.244	40.48
788.421	40.55
788.599	40.44
788.776	40.09
788.954	40.11
789.131	40.24
789.309	40.52
789.486	40.73
789.664	41.02
789.841	40.74
790.019	40.37
790.196	39.33
790.373	40.19
790.551	40.7
790.728	41.54
790.906	41.23
791.083	40.07
791.26	39.71
791.437	39.42
791.615	39.32
791.792	39.5
791.969	39.13
792.146	39.88
792.324	38.21
792.501	37.4
792.678	37.58
792.855	38.42
793.032	39.86
793.209	39.49
793.387	39.99
793.564	39.39
793.741	39.48
793.918	39.6
794.095	40.3
794.272	41.31
794.449	41.76
794.626	40.26
794.803	39.39
794.98	39
795.157	38.75
795.334	38.6
795.511	38.81
795.688	39.31
795.864	39.14
796.041	39.13
796.218	38.13
796.395	38.17
796.572	38.05
796.749	38.04
796.925	37.98
797.102	39.32
797.279	38.97
797.456	37.9
797.632	37.34
797.809	37.91
797.986	37.02
798.162	37.83
798.339	38.37
798.516	39.74
798.692	39.95
798.869	40.31
799.046	39.25
799.222	39.28
799.399	40.21
799.575	39.68
799.752	39.83
799.928	40.39
800.105	40.83
800.281	40.24
800.458	39.14
800.634	39.37
800.811	39.42
800.987	40.73
801.163	40.28
801.34	39.82
801.516	39.85
801.692	39.32
801.869	38.18
802.045	37.87
802.221	37.93
802.398	39.48
802.574	39.61
802.75	39.79
802.926	38.32
803.103	39
803.279	39.69
803.455	39.94
803.631	40.34
803.807	41.64
803.983	40.69
804.16	40.45
804.336	38.94
804.512	39.28
804.688	36.83
804.864	37.42
805.04	35.86
805.216	34.62
805.392	34.39
805.568	33.52
805.744	31.86
805.92	33.08
806.096	32.02
806.272	30.44
806.448	28.75
806.623	31.09
806.799	31.52
806.975	31.66
807.151	32.49
807.327	32.86
807.503	32.13
807.678	33.31
807.854	31.8
808.03	32.53
808.206	33.41
808.381	33.6
808.557	32.47
808.733	31.99
808.908	32.5
809.084	32.01
809.26	32.64
809.435	35.09
809.611	35.31
809.787	36.13
809.962	37.18
810.138	38.09
810.313	37.98
810.489	38.73
810.664	38.61
810.84	38.69
811.015	40.12
811.191	39.42
811.366	37.71
811.542	36.47
811.717	37.33
811.892	36.02
812.068	34.75
812.243	35.07
812.419	34.09
812.594	33.44
812.769	34.5
812.944	32.17
813.12	31.6
813.295	31.94
813.47	31.2
813.645	30.18
813.821	30.03
813.996	31.06
814.171	31.31
814.346	31.72
814.521	32.04
814.697	29.72
814.872	29.48
815.047	29.41
815.222	30.6
815.397	31.15
815.572	30.68
815.747	31.26
815.922	30.77
816.097	30.2
816.272	29.96
816.447	30.25
816.622	30.67
816.797	31.69
816.972	31.98
817.147	31.47
817.322	31.91
817.496	32.37
817.671	31.49
817.846	32.02
818.021	32.03
818.196	31.66
818.371	31.77
818.545	32.15
818.72	32.31
818.895	32.42
819.069	31.93
819.244	32.51
819.419	32.26
819.594	32.31
819.768	32.33
819.943	32.17
820.117	33.03
820.292	33.8
820.467	33.59
820.641	33.3
820.816	32.46
820.99	32.51
821.165	32.53
821.339	32.85
821.514	33.25
821.688	33.2
821.863	33.29
822.037	33.15
822.212	33.04
822.386	33.12
822.56	33.38
822.735	33.75
822.909	33.58
823.084	33.56
823.258	33.29
823.432	33.2
823.606	33.24
823.781	33.52
823.955	33.76
824.129	33.72
824.303	33.85
824.478	33.91
824.652	33.8
824.826	33.37
825	33.6
825.174	33.74
825.348	33.8
825.523	33.61
825.697	33.28
825.871	32.92
826.045	32.43
826.219	32.39
826.393	32.58
826.567	32.66
826.741	33.64
826.915	33.48
827.089	33.77
827.263	33.25
827.437	33.22
827.611	33.39
827.784	33.17
827.958	33.82
828.132	33.96
828.306	33.82
828.48	33.83
828.654	33.24
828.827	32.83
829.001	33.11
829.175	33.47
829.349	33.76
829.522	33.88
829.696	34.32
829.87	34.28
830.044	33.94
830.217	34.33
830.391	34.9
830.565	36.05
830.738	37.18
830.912	36.31
831.085	36.61
831.259	36.44
831.432	35.43
831.606	35.37
831.779	34.08
831.953	33.79
832.126	32.56
832.3	32.02
832.473	31.91
832.647	31.52
832.82	31.55
832.994	31.44
833.167	31.81
833.34	31.17
833.514	31.79
833.687	32.01
833.86	32.5
834.034	32.18
834.207	32.09
834.38	32.39
834.553	32.05
834.727	32.32
834.9	31.54
835.073	31.36
835.246	31.78
835.419	31.05
835.593	30.49
835.766	30.1
835.939	30.51
836.112	30.42
836.285	29.28
836.458	30.16
836.631	29.26
836.804	29.36
836.977	29.8
837.15	30.31
837.323	31.24
837.496	31.44
837.669	29.4
837.842	28.7
838.015	28.03
838.188	28.51
838.361	26.85
838.533	28.04
838.706	31.61
838.879	29.97
839.052	31.83
839.225	30.8
839.398	32.24
839.57	34.95
839.743	36.65
839.916	36.74
840.088	38.68
840.261	38.67
840.434	39.62
840.607	38.38
840.779	39.14
840.952	36.25
841.124	36.5
841.297	35.86
841.47	37.2
841.642	35.59
841.815	35.18
841.987	32.98
842.16	32.05
842.332	31.54
842.505	30.97
842.677	30.14
842.85	30.92
843.022	29.87
843.194	30.92
843.367	28.6
843.539	29.94
843.712	29.43
843.884	28.27
844.056	28.6
844.229	25.55
844.401	23.37
844.573	24.02
844.745	24.12
844.918	25.1
845.09	22.18
845.262	21.73
845.434	19.56
845.606	20.76
845.779	23.68
845.951	25.14
846.123	30.68
846.295	31.19
846.467	31.46
846.639	29.54
846.811	28.7
846.983	29.78
847.155	32.33
847.327	30.99
847.499	33.29
847.671	31.81
847.843	31.89
848.015	28.09
848.187	30.18
848.359	28.91
848.531	29.65
848.703	28.68
848.875	29.89
849.047	24.3
849.218	27.47
849.39	25.97
849.562	25.69
849.734	29.1
849.905	25.39
850.077	25.97
850.249	26.68
850.421	26.99
850.592	27.77
850.764	24.58
850.936	28.5
851.107	26.17
851.279	26.34
851.451	27.7
851.622	24.02
851.794	27.41
851.965	23.82
852.137	24.14
852.308	24.51
852.48	26.68
852.651	28.86
852.823	27.19
852.994	28.14
853.166	30.32
853.337	31
853.509	32.28
853.68	34.54
853.851	35.24
854.023	33.11
854.194	35.7
854.365	33.67
854.537	37.72
854.708	36.44
854.879	35.81
855.05	32.54
855.222	32.25
855.393	34.58
855.564	31.32
855.735	30.77
855.906	31.35
856.078	28.97
856.249	25.52
856.42	21.5
856.591	24.24
856.762	24.35
856.933	25.54
857.104	22.58
857.275	19.04
857.446	18.43
857.617	21.41
857.788	20.28
857.959	21
858.13	27.8
858.301	27.2
858.472	23.54
858.643	27.49
858.814	29.43
858.985	29.06
859.155	27.1
859.326	29.6
859.497	31.69
859.668	32.75
859.839	30.34
860.009	28.06
860.18	27.3
860.351	32.15
860.522	26.63
860.692	24.76
860.863	28.27
861.034	28.21
861.204	29.28
861.375	28.28
861.546	30.91
861.716	33.31
861.887	34.02
862.057	34.02
862.228	31.1
862.398	33.16
862.569	32.02
862.739	29.67
862.91	30.56
863.08	27.71
863.251	23.62
863.421	22.18
863.592	21.4
863.762	19.61
863.932	22.39
864.103	21.29
864.273	20.68
864.443	17.76
864.614	17.72
864.784	16.13
864.954	16.16
865.125	17.56
865.295	16.93
865.465	14.48
865.635	11.91
865.805	9.49
865.976	12.14
866.146	11.69
866.316	10.3
866.486	11.92
866.656	10.27
866.826	15.3
866.996	17.73
867.166	21.53
867.336	16.11
867.506	17.55
867.676	19.16
867.846	21.06
868.016	24.07
868.186	26.51
868.356	25.2
868.526	29.88
868.696	26.99
868.866	26.52
869.036	23.07
869.206	29.07
869.376	31.07
869.545	31.24
869.715	29.28
869.885	26.82
870.055	33.26
870.224	30.1
870.394	27.91
870.564	27.2
870.734	25.27
870.903	26.2
871.073	26.34
871.243	20.19
871.412	20.04
871.582	20.78
871.751	22.06
871.921	13.69
872.091	15.29
872.26	14.07
872.43	14.13
872.599	14.17
872.769	19.89
872.938	20.41
873.108	26.53
873.277	26.45
873.446	27.38
873.616	24.36
873.785	26.79
873.955	26.92
874.124	27.29
874.293	27.82
874.463	31.08
874.632	25.37
874.801	26.02
874.971	22.75
875.14	22.57
875.309	21.44
875.478	20.58
875.647	20.64
875.817	23.44
875.986	21.59
876.155	22.03
876.324	18.82
876.493	20.32
876.662	19.87
876.831	21.84
877	19.5
877.17	18.28
877.339	21.76
877.508	20.19
877.677	17.39
877.846	21.46
878.015	20.11
878.184	22.51
878.352	21.28
878.521	21.36
878.69	21.23
878.859	21.59
879.028	20.22
879.197	19.72
879.366	22.39
879.534	21.26
879.703	20.01
879.872	23.6
880.041	21.97
880.21	23.11
880.378	22.53
880.547	22.1
880.716	24.51
880.884	25.12
881.053	26.18
881.222	26.34
881.39	27.55
881.559	28.73
881.727	28.15
881.896	27.79
882.065	27.78
882.233	27.97
882.402	28.66
882.57	28.45
882.739	28.33
882.907	28.16
883.076	28
883.244	28.07
883.412	27.43
883.581	27.5
883.749	28.62
883.918	28.47
884.086	28.02
884.254	27.4
884.423	26.94
884.591	27.49
884.759	27.99
884.927	28.69
885.096	27.94
885.264	27.69
885.432	27.54
885.6	25.77
885.769	25.55
885.937	26.41
886.105	28.24
886.273	28.87
886.441	28.31
886.609	28.38
886.777	26.48
886.945	26.71
887.113	26.22
887.281	23.69
887.449	26.55
887.617	27.88
887.785	27.78
887.953	25.59
888.121	23.16
888.289	21.54
888.457	18.76
888.625	19.92
888.793	20.33
888.961	16.94
889.129	22.02
889.296	17.67
889.464	14.25
889.632	15.37
889.8	12.74
889.967	13.11
890.135	16.97
