Data from 2938775__Reflection_01.txt Node
Date: Fri Mar 13 14:09:57 EDT 2015
User: robert
Spectrometer: USB4E03002
Autoset integration time: false
Trigger mode: 4
Integration Time (sec): 1.000000E-1
Scans to average: 10
Electric dark correction enabled: false
Nonlinearity correction enabled: false
Boxcar width: 5
Stray light correction enabled: false
XAxis mode: Wavelengths
Stop averaging: false
Number of Pixels in Spectrum: 3648
>>>>>Begin Spectral Data<<<<<
177.575	-278.47
177.794	-489.04
178.014	-1351.85
178.233	804.48
178.452	1202.7
178.672	235.8
178.891	171.95
179.11	-13.04
179.33	13.43
179.549	95.24
179.768	123.33
179.987	26.87
180.207	714.81
180.426	346.15
180.645	-88.57
180.864	-198.39
181.084	-66.54
181.303	-57.01
181.522	-212.77
181.741	653.33
181.96	49.52
182.179	33.95
182.398	19.11
182.618	7.24
182.837	-33.58
183.056	4.89
183.275	10.46
183.494	8.32
183.713	29.48
183.932	88.24
184.151	71.87
184.37	110.34
184.589	193.82
184.808	404.44
185.027	152.98
185.246	137.7
185.465	101.83
185.684	91.35
185.903	136.55
186.122	101.64
186.341	94.8
186.56	94.3
186.779	131.38
186.998	110.71
187.216	127.83
187.435	315.25
187.654	120.82
187.873	138.03
188.092	146.3
188.311	189.02
188.53	205.77
188.748	668.75
188.967	-1354.17
189.186	219.57
189.405	308.63
189.623	194.2
189.842	145.17
190.061	177.4
190.28	222.8
190.498	171
190.717	146.88
190.936	133.7
191.154	106.06
191.373	117.85
191.592	115.33
191.81	87.43
192.029	82.53
192.248	100.45
192.466	109.59
192.685	90.96
192.904	94.47
193.122	49.89
193.341	55.56
193.559	118.75
193.778	44.8
193.996	22.39
194.215	-128
194.433	-107.48
194.652	-120.95
194.87	-306.38
195.089	-5560
195.307	-861.54
195.526	48.6
195.744	410.64
195.963	136.61
196.181	166.12
196.399	123.73
196.618	103.59
196.836	137.46
197.055	178.57
197.273	330.77
197.491	1114.71
197.71	300
197.928	40.22
198.146	-146.61
198.365	-405.33
198.583	-600
198.801	225.76
199.019	167.59
199.238	123.62
199.456	129.02
199.674	188.74
199.892	252.85
200.111	169.6
200.329	145.78
200.547	108.68
200.765	32.23
200.983	1.65
201.202	-11.21
201.42	-139.58
201.638	404.35
201.856	121.65
202.074	282.93
202.292	93.16
202.51	-9.3
202.728	16.6
202.946	32.21
203.165	79.37
203.383	-5600
203.601	107.75
203.819	39.6
204.037	59.36
204.255	98.62
204.473	62.59
204.691	100.55
204.909	56.03
205.127	101.26
205.345	44.67
205.562	-12.04
205.78	18.35
205.998	-20.33
206.216	0.73
206.434	-9.73
206.652	45.83
206.87	61.25
207.088	62.05
207.306	112.76
207.523	77.68
207.741	78.67
207.959	71.52
208.177	74.81
208.395	92.36
208.612	99.37
208.83	94.89
209.048	90.12
209.266	420
209.483	79.41
209.701	360
209.919	-12.5
210.136	-140
210.354	-16.67
210.572	55.19
210.79	14.02
211.007	62.26
211.225	161.02
211.442	-22.73
211.66	-24.8
211.878	14.57
212.095	167.18
212.313	177.8
212.53	182.69
212.748	138.95
212.966	105.36
213.183	138.18
213.401	108.33
213.618	77.65
213.836	81.4
214.053	117.16
214.271	94.5
214.488	-16.06
214.705	-8.38
214.923	-11.3
215.14	13.17
215.358	13.84
215.575	23.56
215.793	28.83
216.01	40.38
216.227	33.53
216.445	41.29
216.662	33.69
216.879	33.55
217.097	34.79
217.314	31.91
217.531	26.3
217.749	29.83
217.966	21.63
218.183	20.55
218.4	4.88
218.618	25.18
218.835	11.59
219.052	16.4
219.269	20.18
219.487	9.3
219.704	21.44
219.921	8.42
220.138	8.85
220.355	1.96
220.572	4.91
220.79	0.97
221.007	-8.81
221.224	-13.64
221.441	-1.82
221.658	-2.43
221.875	-3.24
222.092	-1.79
222.309	-3.08
222.526	-16.15
222.743	-11.99
222.96	-3.67
223.177	6.02
223.394	3.4
223.611	6.69
223.828	6.48
224.045	6.39
224.262	17.94
224.479	15.91
224.696	16.95
224.913	24.3
225.13	21.42
225.347	20.67
225.564	14.98
225.781	15.68
225.997	12.67
226.214	9.89
226.431	10.61
226.648	5.99
226.865	6.17
227.082	4.9
227.298	4.25
227.515	5.43
227.732	4.59
227.949	4.59
228.165	4.58
228.382	4.74
228.599	4.48
228.816	3.94
229.032	3.42
229.249	3.45
229.466	4.54
229.682	4.87
229.899	4.18
230.116	4.18
230.332	4.56
230.549	4.56
230.765	5.18
230.982	4.74
231.199	4.3
231.415	4.6
231.632	3.7
231.848	4.27
232.065	0.77
232.281	0.51
232.498	0.2
232.714	0.35
232.931	1.3
233.147	0.32
233.364	1.87
233.58	3.14
233.797	2.85
234.013	3.37
234.23	2.33
234.446	5.25
234.662	5.03
234.879	3.96
235.095	4.37
235.312	4.38
235.528	3.08
235.744	0.92
235.961	2.78
236.177	3.73
236.393	3.78
236.61	2.37
236.826	0.66
237.042	1.11
237.258	1.5
237.475	-0.35
237.691	-1.39
237.907	0.03
238.123	2.38
238.339	1.16
238.556	0.5
238.772	0.9
238.988	1.16
239.204	2.66
239.42	3.47
239.636	4.05
239.853	4.69
240.069	5.54
240.285	5.09
240.501	4.87
240.717	5.27
240.933	5.54
241.149	5.1
241.365	4.53
241.581	4.37
241.797	4.41
242.013	4.92
242.229	5.36
242.445	5.14
242.661	5.68
242.877	5.73
243.093	5.23
243.309	5
243.525	5.16
243.741	5.62
243.957	5.82
244.173	5.74
244.388	5.27
244.604	4.73
244.82	4.35
245.036	3.52
245.252	2.81
245.468	2.83
245.683	3.42
245.899	3.12
246.115	3.54
246.331	3.19
246.547	3.1
246.762	3.18
246.978	3.56
247.194	3.69
247.409	4.16
247.625	4.25
247.841	4.22
248.057	4.03
248.272	4.11
248.488	4.34
248.703	4.36
248.919	4.43
249.135	4.1
249.35	3.87
249.566	4.07
249.782	3.61
249.997	3.91
250.213	4.51
250.428	4.89
250.644	4.68
250.859	4.01
251.075	4.78
251.29	4.75
251.506	5.42
251.721	5.73
251.937	5.32
252.152	5.11
252.368	5.41
252.583	4.67
252.798	4.94
253.014	5.2
253.229	5.01
253.445	4.68
253.66	4.54
253.875	4.79
254.091	4.16
254.306	4.14
254.521	3.57
254.737	3.52
254.952	4.1
255.167	3.14
255.383	2.6
255.598	2.56
255.813	2.54
256.028	2.25
256.244	1.62
256.459	1.41
256.674	0.76
256.889	1.43
257.104	1.27
257.32	1.51
257.535	1.29
257.75	1.84
257.965	2.05
258.18	1.79
258.395	2.25
258.61	2.49
258.826	2.66
259.041	3.04
259.256	2.99
259.471	2.76
259.686	2.55
259.901	2.75
260.116	2.61
260.331	2.71
260.546	2.65
260.761	2.45
260.976	2.31
261.191	2.22
261.406	1.98
261.621	2.07
261.836	1.81
262.05	1.6
262.265	1.21
262.48	0.92
262.695	0.36
262.91	0.3
263.125	0.35
263.34	0.51
263.555	0.6
263.769	0.63
263.984	0.38
264.199	0.35
264.414	0.83
264.629	1.45
264.843	2.15
265.058	2.33
265.273	2.7
265.488	3.09
265.702	2.89
265.917	2.67
266.132	2.89
266.346	2.57
266.561	3.2
266.776	2.87
266.99	2.48
267.205	2.3
267.42	2.46
267.634	2.39
267.849	2.41
268.063	2.54
268.278	2.75
268.492	2.3
268.707	2.5
268.922	1.91
269.136	2.49
269.351	2.55
269.565	3.02
269.78	3.16
269.994	3.09
270.209	2.33
270.423	2.45
270.637	1.94
270.852	1.84
271.066	1.84
271.281	2.3
271.495	2.2
271.709	2.14
271.924	2.02
272.138	1.75
272.353	1.98
272.567	2.35
272.781	2.12
272.996	2.37
273.21	3.08
273.424	3.33
273.638	3.36
273.853	2.91
274.067	2.76
274.281	2.68
274.495	2.62
274.71	2.94
274.924	3.41
275.138	3.31
275.352	3.31
275.566	2.4
275.781	1.91
275.995	1.98
276.209	2.66
276.423	3.07
276.637	2.75
276.851	3.06
277.065	2.78
277.279	2.36
277.493	2.51
277.707	2.68
277.921	2.68
278.135	2.78
278.349	2.32
278.563	2.11
278.777	2.08
278.991	2.4
279.205	2.12
279.419	1.69
279.633	1.52
279.847	1.37
280.061	0.99
280.275	1.14
280.489	1
280.703	1.21
280.917	1.02
281.131	0.67
281.344	0.52
281.558	0.62
281.772	0.99
281.986	0.88
282.2	0.95
282.414	1.2
282.627	1.17
282.841	1.47
283.055	1.68
283.269	1.65
283.482	1.85
283.696	1.98
283.91	1.73
284.123	1.63
284.337	1.98
284.551	1.93
284.764	2.02
284.978	2.35
285.192	2.62
285.405	2.35
285.619	2.44
285.833	2.5
286.046	2.42
286.26	2.67
286.473	2.79
286.687	2.62
286.9	2.66
287.114	2.6
287.327	2.25
287.541	1.73
287.754	1.84
287.968	1.86
288.181	1.91
288.395	2.11
288.608	2.33
288.822	2.01
289.035	2
289.248	1.76
289.462	1.84
289.675	2.09
289.889	2.4
290.102	2.45
290.315	2.4
290.529	2.44
290.742	2.24
290.955	1.96
291.169	2.37
291.382	2.4
291.595	2.79
291.808	3.02
292.022	3.04
292.235	2.7
292.448	2.65
292.661	2.79
292.875	2.5
293.088	2.95
293.301	3.17
293.514	3.23
293.727	3.54
293.94	3.5
294.153	3.09
294.367	2.82
294.58	3.19
294.793	2.93
295.006	3
295.219	3.07
295.432	2.57
295.645	2.79
295.858	2.41
296.071	2.24
296.284	1.99
296.497	2.23
296.71	2.38
296.923	2.34
297.136	2.46
297.349	2.42
297.562	2.59
297.775	2.86
297.988	2.99
298.201	3.18
298.414	3.23
298.626	3.54
298.839	3.41
299.052	3.53
299.265	3.43
299.478	3.71
299.691	3.63
299.903	3.39
300.116	3.36
300.329	2.94
300.542	3.11
300.755	2.92
300.967	2.86
301.18	2.95
301.393	3.15
301.605	3.28
301.818	3.1
302.031	3.31
302.243	3.24
302.456	3.17
302.669	3.07
302.881	2.71
303.094	2.78
303.307	2.86
303.519	2.52
303.732	2.4
303.944	2.3
304.157	2.28
304.37	2.22
304.582	2.25
304.795	2.28
305.007	2.67
305.22	2.82
305.432	3.13
305.645	2.8
305.857	3.31
306.069	3.09
306.282	3.23
306.494	3.05
306.707	2.88
306.919	2.75
307.132	2.65
307.344	2.41
307.556	2.86
307.769	2.88
307.981	3.27
308.193	2.95
308.406	3.26
308.618	3.27
308.83	3.46
309.043	3.47
309.255	4.03
309.467	3.94
309.679	3.61
309.892	3.28
310.104	3.24
310.316	2.9
310.528	3.08
310.74	3.17
310.953	3.12
311.165	3.2
311.377	3.18
311.589	3.15
311.801	3.15
312.013	3.55
312.225	3.56
312.437	3.38
312.649	3.81
312.862	4.06
313.074	3.51
313.286	3.6
313.498	3.17
313.71	3.52
313.922	3.55
314.134	3.89
314.346	3.62
314.558	4.11
314.77	4.56
314.982	4.48
315.193	4.46
315.405	4.96
315.617	5.19
315.829	5.66
316.041	5.32
316.253	4.7
316.465	4.9
316.677	5.29
316.888	5.29
317.1	4.82
317.312	4.94
317.524	4.77
317.736	4.52
317.947	4.19
318.159	4.81
318.371	4.98
318.583	5.43
318.794	5
319.006	4.77
319.218	4.35
319.43	4.29
319.641	4.4
319.853	4.41
320.064	4.52
320.276	4.79
320.488	4.01
320.699	4.03
320.911	4.16
321.123	4.09
321.334	3.65
321.546	3.83
321.757	4.28
321.969	3.88
322.18	4.36
322.392	4.63
322.603	4.13
322.815	4.25
323.026	4.7
323.238	4.49
323.449	4.82
323.661	4.97
323.872	4.7
324.083	4.53
324.295	5.09
324.506	4.47
324.718	4.34
324.929	4.82
325.14	4.98
325.352	4.89
325.563	5.28
325.774	5.04
325.986	5.36
326.197	5.72
326.408	6.18
326.62	5.91
326.831	6.06
327.042	6.19
327.253	6.17
327.464	6.28
327.676	6.21
327.887	6.2
328.098	6.54
328.309	6.24
328.52	6.33
328.732	6.38
328.943	6.88
329.154	7.19
329.365	7.42
329.576	7.34
329.787	7.32
329.998	7.22
330.209	7.3
330.42	7.67
330.631	8.37
330.842	8.44
331.053	8.51
331.264	7.95
331.475	7.83
331.686	7.87
331.897	8.26
332.108	8.45
332.319	9.03
332.53	8.94
332.741	9.04
332.952	8.8
333.163	8.7
333.374	8.07
333.585	8.14
333.795	8.04
334.006	7.92
334.217	7.92
334.428	7.68
334.639	7.46
334.849	7.12
335.06	6.61
335.271	6.59
335.482	6.77
335.692	6.97
335.903	7.18
336.114	7.53
336.325	7.37
336.535	7.19
336.746	7.23
336.957	7.09
337.167	7.34
337.378	7.57
337.589	7.68
337.799	7.49
338.01	7.91
338.22	7.84
338.431	7.76
338.642	7.7
338.852	7.63
339.063	7.68
339.273	8
339.484	7.97
339.694	7.95
339.905	8.02
340.115	8.13
340.326	7.73
340.536	7.69
340.746	7.69
340.957	8.02
341.167	8.14
341.378	8.09
341.588	7.8
341.799	8.21
342.009	8.16
342.219	7.94
342.43	7.77
342.64	7.93
342.85	8.1
343.061	7.81
343.271	7.63
343.481	7.6
343.691	7.52
343.902	7.65
344.112	7.25
344.322	7.37
344.532	7.31
344.743	7.68
344.953	7.65
345.163	7.69
345.373	7.93
345.583	8.1
345.793	8.09
346.004	8.07
346.214	8.05
346.424	8.28
346.634	8.1
346.844	8.19
347.054	7.72
347.264	7.68
347.474	7.33
347.684	7.22
347.894	7.24
348.104	7.27
348.314	7.3
348.524	7.25
348.734	6.96
348.944	7.17
349.154	7.28
349.364	7.43
349.574	7.31
349.784	7.77
349.994	7.92
350.204	7.99
350.413	8.11
350.623	8.37
350.833	8.28
351.043	8.13
351.253	8
351.463	8.09
351.672	7.9
351.882	8.46
352.092	8.24
352.302	8.19
352.511	8.29
352.721	7.94
352.931	8.17
353.141	7.87
353.35	8.14
353.56	8.09
353.77	7.69
353.979	7.71
354.189	7.32
354.399	7.22
354.608	7.15
354.818	7.04
355.027	7.19
355.237	6.92
355.447	7.12
355.656	6.85
355.866	6.74
356.075	6.87
356.285	6.99
356.494	6.82
356.704	6.67
356.913	6.63
357.123	6.5
357.332	6.5
357.542	6.55
357.751	6.54
357.96	6.79
358.17	6.89
358.379	6.91
358.589	7.01
358.798	7.3
359.007	7.23
359.217	7.38
359.426	7.36
359.635	7.44
359.845	7.47
360.054	7.55
360.263	7.58
360.472	7.48
360.682	7.51
360.891	7.39
361.1	7.2
361.309	7.31
361.519	7.22
361.728	7.17
361.937	7.18
362.146	7.09
362.355	7.07
362.564	7.07
362.774	7.14
362.983	7.21
363.192	7.19
363.401	7.12
363.61	7.11
363.819	6.95
364.028	6.72
364.237	6.56
364.446	6.41
364.655	6.62
364.864	6.67
365.073	6.4
365.282	6.31
365.491	6.3
365.7	6.48
365.909	6.58
366.118	6.76
366.327	7.01
366.536	6.97
366.745	7.09
366.954	6.68
367.162	6.47
367.371	6.66
367.58	6.69
367.789	6.69
367.998	6.34
368.207	6.31
368.415	6.04
368.624	5.85
368.833	5.86
369.042	6.02
369.25	5.94
369.459	5.97
369.668	5.96
369.877	5.74
370.085	5.82
370.294	6.32
370.503	6.5
370.711	6.63
370.92	6.73
371.129	6.55
371.337	6.29
371.546	6.48
371.754	6.65
371.963	6.48
372.171	6.76
372.38	6.62
372.589	6.35
372.797	6.16
373.006	5.94
373.214	5.97
373.423	6.31
373.631	6.33
373.84	6.38
374.048	6.16
374.256	6.3
374.465	6.36
374.673	6.35
374.882	6.34
375.09	6.32
375.298	6.75
375.507	6.61
375.715	6.22
375.923	6.2
376.132	6.08
376.34	5.8
376.548	5.97
376.757	5.94
376.965	5.84
377.173	5.68
377.381	5.68
377.59	5.61
377.798	5.88
378.006	6.12
378.214	6.1
378.423	6.09
378.631	6.46
378.839	6.24
379.047	6.11
379.255	6.18
379.463	6.29
379.671	6.07
379.879	5.98
380.088	5.88
380.296	5.97
380.504	5.98
380.712	5.99
380.92	5.75
381.128	5.73
381.336	5.52
381.544	5.45
381.752	5.37
381.96	5.8
382.168	5.75
382.376	5.77
382.584	5.67
382.791	5.45
382.999	5.47
383.207	5.58
383.415	5.69
383.623	5.69
383.831	5.63
384.039	5.94
384.247	5.61
384.454	5.5
384.662	5.51
384.87	5.44
385.078	5.63
385.285	5.69
385.493	5.6
385.701	5.47
385.909	5.54
386.116	5.65
386.324	5.29
386.532	5.43
386.739	5.38
386.947	5.24
387.155	5.26
387.362	5.36
387.57	5.2
387.778	5.36
387.985	5.56
388.193	5.59
388.4	5.51
388.608	5.82
388.816	5.89
389.023	6.07
389.231	5.99
389.438	6.03
389.646	5.89
389.853	6.05
390.061	5.87
390.268	5.49
390.475	5.33
390.683	5.38
390.89	5.03
391.098	4.81
391.305	4.72
391.512	4.69
391.72	4.73
391.927	4.58
392.135	4.51
392.342	4.45
392.549	4.65
392.756	4.58
392.964	4.44
393.171	4.54
393.378	4.4
393.586	4.36
393.793	4.36
394	4.16
394.207	4.42
394.414	4.19
394.622	4.29
394.829	4.23
395.036	4.42
395.243	4.3
395.45	4.2
395.657	4.44
395.864	4.5
396.072	4.54
396.279	4.65
396.486	4.33
396.693	4.52
396.9	4.53
397.107	4.47
397.314	4.49
397.521	4.54
397.728	4.86
397.935	4.74
398.142	4.7
398.349	4.77
398.556	4.67
398.763	4.66
398.97	4.46
399.177	4.47
399.383	4.53
399.59	4.42
399.797	4.7
400.004	4.46
400.211	4.46
400.418	4.25
400.625	4.25
400.831	4.16
401.038	4.43
401.245	4.62
401.452	4.63
401.658	4.51
401.865	4.54
402.072	4.46
402.279	4.56
402.485	4.45
402.692	4.67
402.899	4.53
403.105	4.73
403.312	4.59
403.519	4.6
403.725	4.63
403.932	4.78
404.138	4.87
404.345	4.94
404.552	4.79
404.758	4.93
404.965	4.82
405.171	4.83
405.378	4.58
405.584	4.52
405.791	4.45
405.997	4.33
406.204	4.21
406.41	4.33
406.617	4.23
406.823	4.49
407.029	4.6
407.236	4.69
407.442	4.8
407.649	5.16
407.855	5.14
408.061	5.16
408.268	4.93
408.474	4.87
408.68	4.71
408.887	4.88
409.093	4.75
409.299	4.5
409.505	4.41
409.712	4.29
409.918	4.11
410.124	4.29
410.33	4.38
410.537	4.57
410.743	4.67
410.949	4.58
411.155	4.39
411.361	4.42
411.567	4.56
411.773	4.8
411.98	4.83
412.186	4.87
412.392	4.8
412.598	4.65
412.804	4.65
413.01	4.47
413.216	4.46
413.422	4.41
413.628	4.44
413.834	4.21
414.04	3.98
414.246	4.06
414.452	3.99
414.658	3.9
414.864	3.9
415.07	3.98
415.275	4.1
415.481	4.1
415.687	4.17
415.893	4.03
416.099	4.09
416.305	4.08
416.511	3.9
416.716	3.95
416.922	4.1
417.128	4.13
417.334	4.12
417.539	4.08
417.745	4.07
417.951	4.12
418.157	4.15
418.362	4.23
418.568	4.27
418.774	4.38
418.979	4.46
419.185	4.49
419.391	4.56
419.596	4.56
419.802	4.59
420.008	4.6
420.213	4.58
420.419	4.55
420.624	4.57
420.83	4.61
421.035	4.61
421.241	4.56
421.446	4.51
421.652	4.48
421.857	4.51
422.063	4.54
422.268	4.58
422.474	4.58
422.679	4.62
422.885	4.59
423.09	4.59
423.295	4.6
423.501	4.6
423.706	4.53
423.911	4.51
424.117	4.49
424.322	4.52
424.527	4.45
424.733	4.44
424.938	4.39
425.143	4.44
425.349	4.37
425.554	4.32
425.759	4.27
425.964	4.3
426.169	4.3
426.375	4.25
426.58	4.16
426.785	4.28
426.99	4.31
427.195	4.4
427.4	4.34
427.605	4.49
427.811	4.53
428.016	4.55
428.221	4.56
428.426	4.52
428.631	4.56
428.836	4.51
429.041	4.43
429.246	4.39
429.451	4.44
429.656	4.48
429.861	4.34
430.066	4.37
430.271	4.4
430.476	4.4
430.681	4.48
430.886	4.36
431.09	4.43
431.295	4.6
431.5	4.66
431.705	4.54
431.91	4.43
432.115	4.41
432.32	4.44
432.524	4.37
432.729	4.41
432.934	4.41
433.139	4.53
433.343	4.61
433.548	4.51
433.753	4.62
433.958	4.63
434.162	4.74
434.367	4.85
434.572	4.9
434.776	4.97
434.981	4.98
435.186	5.09
435.39	5.09
435.595	5.09
435.799	5.06
436.004	4.88
436.209	4.94
436.413	5.03
436.618	5.05
436.822	4.98
437.027	4.97
437.231	4.93
437.436	4.91
437.64	4.9
437.845	4.94
438.049	5.02
438.253	5.09
438.458	5.06
438.662	4.92
438.867	4.97
439.071	4.93
439.275	4.98
439.48	4.96
439.684	4.95
439.888	4.97
440.093	4.9
440.297	4.77
440.501	4.8
440.706	4.8
440.91	4.87
441.114	4.82
441.318	4.89
441.523	4.9
441.727	5.02
441.931	4.97
442.135	4.98
442.339	5.05
442.543	5.07
442.748	5.05
442.952	5.03
443.156	5.01
443.36	4.93
443.564	4.89
443.768	4.87
443.972	4.74
444.176	4.76
444.38	4.76
444.584	4.78
444.788	4.84
444.992	4.9
445.196	4.98
445.4	5.08
445.604	5.13
445.808	5.13
446.012	5.06
446.216	5.17
446.42	5.16
446.624	5.11
446.828	5.09
447.032	5.03
447.235	4.91
447.439	4.82
447.643	4.77
447.847	4.78
448.051	4.83
448.254	4.88
448.458	4.85
448.662	4.9
448.866	4.95
449.069	4.93
449.273	4.98
449.477	5.05
449.681	5.06
449.884	5.05
450.088	5.06
450.292	4.98
450.495	5.03
450.699	4.97
450.902	4.96
451.106	4.85
451.31	5.04
451.513	5.11
451.717	5.1
451.92	5.14
452.124	5.11
452.327	5.06
452.531	5.13
452.734	5.09
452.938	5.08
453.141	5.1
453.345	5.19
453.548	5.01
453.752	4.95
453.955	5.04
454.158	5.11
454.362	5.15
454.565	5.21
454.769	5.09
454.972	5.12
455.175	5.22
455.379	5.28
455.582	5.35
455.785	5.4
455.988	5.36
456.192	5.39
456.395	5.32
456.598	5.28
456.801	5.3
457.005	5.44
457.208	5.31
457.411	5.35
457.614	5.23
457.817	5.15
458.021	5.12
458.224	5.18
458.427	5.11
458.63	5.11
458.833	5.17
459.036	5.1
459.239	5.05
459.442	5.1
459.645	4.98
459.848	4.98
460.051	5
460.254	5
460.457	5
460.66	4.97
460.863	5.03
461.066	4.96
461.269	5.07
461.472	5.07
461.675	5.07
461.878	5.1
462.081	5.18
462.284	5.25
462.486	5.28
462.689	5.42
462.892	5.49
463.095	5.42
463.298	5.49
463.5	5.47
463.703	5.47
463.906	5.6
464.109	5.59
464.311	5.54
464.514	5.53
464.717	5.5
464.92	5.37
465.122	5.3
465.325	5.33
465.528	5.25
465.73	5.21
465.933	5.28
466.135	5.27
466.338	5.33
466.541	5.43
466.743	5.33
466.946	5.34
467.148	5.4
467.351	5.47
467.553	5.53
467.756	5.5
467.958	5.49
468.161	5.41
468.363	5.42
468.566	5.33
468.768	5.15
468.971	5.21
469.173	5.19
469.375	5.17
469.578	5.29
469.78	5.22
469.983	5.32
470.185	5.3
470.387	5.31
470.59	5.28
470.792	5.32
470.994	5.43
471.196	5.38
471.399	5.53
471.601	5.6
471.803	5.47
472.005	5.49
472.208	5.49
472.41	5.54
472.612	5.67
472.814	5.56
473.016	5.57
473.218	5.63
473.421	5.62
473.623	5.51
473.825	5.45
474.027	5.47
474.229	5.53
474.431	5.54
474.633	5.55
474.835	5.42
475.037	5.59
475.239	5.7
475.441	5.65
475.643	5.78
475.845	5.78
476.047	5.73
476.249	5.74
476.451	5.69
476.653	5.71
476.855	5.66
477.057	5.71
477.258	5.69
477.46	5.59
477.662	5.7
477.864	5.63
478.066	5.58
478.268	5.66
478.469	5.64
478.671	5.62
478.873	5.6
479.075	5.54
479.276	5.53
479.478	5.57
479.68	5.66
479.882	5.52
480.083	5.48
480.285	5.51
480.487	5.42
480.688	5.35
480.89	5.45
481.091	5.39
481.293	5.44
481.495	5.37
481.696	5.29
481.898	5.33
482.099	5.34
482.301	5.37
482.502	5.38
482.704	5.39
482.905	5.42
483.107	5.38
483.308	5.37
483.51	5.36
483.711	5.39
483.913	5.38
484.114	5.34
484.315	5.32
484.517	5.34
484.718	5.32
484.92	5.29
485.121	5.28
485.322	5.31
485.524	5.34
485.725	5.35
485.926	5.35
486.127	5.39
486.329	5.39
486.53	5.4
486.731	5.4
486.932	5.42
487.134	5.45
487.335	5.48
487.536	5.44
487.737	5.41
487.938	5.42
488.139	5.44
488.341	5.44
488.542	5.47
488.743	5.49
488.944	5.5
489.145	5.49
489.346	5.54
489.547	5.51
489.748	5.56
489.949	5.59
490.15	5.59
490.351	5.53
490.552	5.54
490.753	5.57
490.954	5.6
491.155	5.58
491.356	5.56
491.557	5.52
491.758	5.53
491.959	5.47
492.159	5.51
492.36	5.53
492.561	5.59
492.762	5.57
492.963	5.54
493.164	5.53
493.364	5.55
493.565	5.56
493.766	5.55
493.967	5.58
494.167	5.56
494.368	5.5
494.569	5.53
494.769	5.48
494.97	5.52
495.171	5.52
495.371	5.5
495.572	5.52
495.773	5.56
495.973	5.6
496.174	5.62
496.375	5.72
496.575	5.8
496.776	5.84
496.976	5.87
497.177	5.83
497.377	5.89
497.578	5.9
497.778	5.91
497.979	5.93
498.179	5.92
498.38	5.91
498.58	5.94
498.78	5.89
498.981	5.81
499.181	5.77
499.382	5.86
499.582	5.76
499.782	5.74
499.983	5.71
500.183	5.74
500.383	5.69
500.584	5.74
500.784	5.7
500.984	5.76
501.184	5.84
501.385	5.89
501.585	5.84
501.785	5.92
501.985	5.96
502.185	6.02
502.386	6.19
502.586	6.22
502.786	6.2
502.986	6.2
503.186	6.15
503.386	6.15
503.586	6.23
503.786	6.31
503.987	6.47
504.187	6.38
504.387	6.37
504.587	6.22
504.787	6.3
504.987	6.39
505.187	6.52
505.387	6.56
505.587	6.6
505.786	6.58
505.986	6.57
506.186	6.51
506.386	6.65
506.586	6.73
506.786	6.75
506.986	6.88
507.186	6.82
507.386	6.79
507.585	6.76
507.785	6.72
507.985	6.78
508.185	6.8
508.384	6.8
508.584	6.76
508.784	6.78
508.984	6.82
509.183	6.7
509.383	6.8
509.583	6.87
509.782	6.95
509.982	7
510.182	7.05
510.381	7.15
510.581	7.16
510.781	7.18
510.98	7.15
511.18	7.22
511.379	7.35
511.579	7.41
511.778	7.43
511.978	7.45
512.177	7.43
512.377	7.47
512.576	7.47
512.776	7.51
512.975	7.62
513.175	7.78
513.374	7.68
513.573	7.69
513.773	7.67
513.972	7.6
514.172	7.64
514.371	7.75
514.57	7.7
514.77	7.69
514.969	7.7
515.168	7.78
515.367	7.75
515.567	7.88
515.766	7.89
515.965	7.88
516.164	7.97
516.364	8.03
516.563	8.02
516.762	8.02
516.961	8.06
517.16	8.15
517.359	8.2
517.559	8.25
517.758	8.3
517.957	8.36
518.156	8.39
518.355	8.43
518.554	8.45
518.753	8.51
518.952	8.62
519.151	8.61
519.35	8.65
519.549	8.69
519.748	8.7
519.947	8.71
520.146	8.76
520.345	8.83
520.544	8.88
520.743	8.96
520.942	9.04
521.141	9.1
521.339	9.18
521.538	9.25
521.737	9.29
521.936	9.31
522.135	9.37
522.333	9.42
522.532	9.43
522.731	9.45
522.93	9.51
523.129	9.52
523.327	9.56
523.526	9.6
523.725	9.61
523.923	9.63
524.122	9.71
524.321	9.78
524.519	9.77
524.718	9.77
524.917	9.81
525.115	9.87
525.314	9.91
525.512	9.92
525.711	10.01
525.909	10.09
526.108	10.12
526.306	10.14
526.505	10.2
526.703	10.24
526.902	10.36
527.1	10.37
527.299	10.39
527.497	10.43
527.696	10.46
527.894	10.41
528.092	10.36
528.291	10.38
528.489	10.37
528.688	10.34
528.886	10.37
529.084	10.35
529.283	10.4
529.481	10.39
529.679	10.41
529.877	10.43
530.076	10.51
530.274	10.62
530.472	10.67
530.67	10.77
530.869	10.91
531.067	10.98
531.265	11.06
531.463	11.04
531.661	11.13
531.859	11.2
532.057	11.21
532.255	11.23
532.454	11.25
532.652	11.33
532.85	11.33
533.048	11.29
533.246	11.31
533.444	11.3
533.642	11.43
533.84	11.44
534.038	11.49
534.236	11.54
534.434	11.57
534.632	11.63
534.83	11.66
535.027	11.74
535.225	11.8
535.423	11.92
535.621	12.01
535.819	12.07
536.017	12.1
536.215	12.13
536.412	12.24
536.61	12.34
536.808	12.37
537.006	12.45
537.203	12.53
537.401	12.58
537.599	12.63
537.797	12.73
537.994	12.81
538.192	13
538.39	13.08
538.587	13.2
538.785	13.35
538.983	13.48
539.18	13.55
539.378	13.64
539.575	13.8
539.773	13.9
539.97	14
540.168	14.03
540.366	14.03
540.563	14.06
540.761	14.08
540.958	14.09
541.155	14.13
541.353	14.18
541.55	14.21
541.748	14.25
541.945	14.27
542.143	14.29
542.34	14.34
542.537	14.5
542.735	14.57
542.932	14.67
543.129	14.79
543.327	14.91
543.524	15
543.721	15.22
543.919	15.42
544.116	15.72
544.313	15.98
544.51	16.22
544.708	16.44
544.905	16.68
545.102	16.88
545.299	17.07
545.496	17.27
545.693	17.44
545.891	17.44
546.088	17.39
546.285	17.25
546.482	17.18
546.679	17.08
546.876	16.91
547.073	16.78
547.27	16.68
547.467	16.49
547.664	16.45
547.861	16.34
548.058	16.27
548.255	16.23
548.452	16.21
548.649	16.13
548.846	16.14
549.043	16.15
549.24	16.13
549.437	16.19
549.633	16.2
549.83	16.07
550.027	16.18
550.224	16.25
550.421	16.2
550.618	16.27
550.814	16.36
551.011	16.4
551.208	16.36
551.405	16.39
551.601	16.28
551.798	16.33
551.995	16.3
552.191	16.18
552.388	16.1
552.585	16.25
552.781	16.16
552.978	16.08
553.175	16.07
553.371	16.01
553.568	15.99
553.764	16.05
553.961	16.09
554.157	16.15
554.354	16.17
554.55	16.26
554.747	16.18
554.943	16.27
555.14	16.3
555.336	16.21
555.533	16.45
555.729	16.63
555.926	16.6
556.122	16.66
556.318	16.66
556.515	16.62
556.711	16.57
556.907	16.46
557.104	16.51
557.3	16.63
557.496	16.66
557.693	16.52
557.889	16.44
558.085	16.43
558.281	16.35
558.478	16.4
558.674	16.51
558.87	16.64
559.066	16.81
559.262	16.81
559.459	16.86
559.655	16.88
559.851	16.93
560.047	16.97
560.243	17.06
560.439	17.03
560.635	17.1
560.831	17.21
561.027	17.25
561.223	17.21
561.419	17.24
561.615	17.27
561.811	17.36
562.007	17.39
562.203	17.56
562.399	17.62
562.595	17.84
562.791	17.86
562.987	17.87
563.183	17.86
563.379	18.09
563.575	18.12
563.771	18.09
563.966	18.11
564.162	18.14
564.358	17.99
564.554	17.97
564.75	17.92
564.945	17.87
565.141	17.85
565.337	17.86
565.533	17.82
565.728	17.79
565.924	17.85
566.12	17.86
566.315	17.89
566.511	18.06
566.707	18.08
566.902	18.11
567.098	18.15
567.293	18.15
567.489	18.18
567.684	18.13
567.88	18.16
568.076	18.15
568.271	18.24
568.467	18.27
568.662	18.2
568.858	18.27
569.053	18.17
569.248	18.21
569.444	18.25
569.639	18.32
569.835	18.42
570.03	18.49
570.225	18.47
570.421	18.46
570.616	18.39
570.812	18.45
571.007	18.47
571.202	18.54
571.397	18.53
571.593	18.54
571.788	18.45
571.983	18.41
572.178	18.36
572.374	18.47
572.569	18.42
572.764	18.58
572.959	18.54
573.154	18.5
573.35	18.62
573.545	18.74
573.74	18.85
573.935	18.88
574.13	18.97
574.325	19.05
574.52	19.06
574.715	19.22
574.91	19.23
575.105	19.26
575.3	19.52
575.495	19.5
575.69	19.6
575.885	19.88
576.08	20.07
576.275	20.22
576.47	20.41
576.665	20.56
576.86	20.77
577.055	20.93
577.25	21.15
577.444	21.26
577.639	21.42
577.834	21.49
578.029	21.42
578.224	21.63
578.418	21.69
578.613	21.78
578.808	21.66
579.003	21.71
579.197	21.81
579.392	21.89
579.587	21.84
579.781	21.95
579.976	21.99
580.171	21.88
580.365	21.74
580.56	21.77
580.755	21.78
580.949	21.95
581.144	22.02
581.338	22.22
581.533	22.12
581.727	22.27
581.922	22.32
582.116	22.36
582.311	22.53
582.505	22.75
582.7	22.84
582.894	22.92
583.089	23.07
583.283	23
583.478	22.93
583.672	23.09
583.866	23
584.061	23.08
584.255	23.32
584.449	23.48
584.644	23.53
584.838	23.81
585.032	23.99
585.226	24.04
585.421	24.26
585.615	24.36
585.809	24.46
586.003	24.74
586.198	24.79
586.392	24.72
586.586	24.72
586.78	24.79
586.974	24.6
587.168	24.41
587.363	24.42
587.557	24.21
587.751	23.91
587.945	23.89
588.139	23.76
588.333	23.7
588.527	23.52
588.721	23.34
588.915	23.14
589.109	23.16
589.303	23.14
589.497	23.11
589.691	23.16
589.885	23.2
590.079	23.22
590.273	23.21
590.466	23.18
590.66	23.44
590.854	23.51
591.048	23.62
591.242	23.74
591.436	23.91
591.629	24.12
591.823	24.34
592.017	24.57
592.211	24.67
592.404	24.76
592.598	24.79
592.792	24.72
592.986	24.76
593.179	24.8
593.373	24.6
593.567	24.59
593.76	24.44
593.954	24.35
594.147	24.27
594.341	24.11
594.535	24.03
594.728	23.94
594.922	23.8
595.115	23.64
595.309	23.53
595.502	23.41
595.696	23.27
595.889	23.1
596.083	22.93
596.276	22.85
596.47	22.94
596.663	22.78
596.856	22.77
597.05	22.87
597.243	22.98
597.437	23.01
597.63	23.13
597.823	23.22
598.017	23.38
598.21	23.55
598.403	23.68
598.596	23.63
598.79	23.89
598.983	24.16
599.176	24.21
599.369	24.31
599.563	24.26
599.756	24.39
599.949	24.34
600.142	24.44
600.335	24.54
600.528	24.59
600.722	24.57
600.915	24.47
601.108	24.43
601.301	24.38
601.494	24.18
601.687	24.23
601.88	24.06
602.073	24.14
602.266	23.97
602.459	23.75
602.652	23.6
602.845	23.5
603.038	23.41
603.231	23.12
603.424	23.02
603.617	23.08
603.809	22.97
604.002	23.04
604.195	23.05
604.388	23.06
604.581	23.04
604.774	23.11
604.966	23.22
605.159	23.41
605.352	23.54
605.545	23.68
605.737	23.87
605.93	24.11
606.123	24.12
606.316	24.14
606.508	24.26
606.701	24.6
606.894	24.79
607.086	25
607.279	25.17
607.471	25.45
607.664	25.84
607.857	26.13
608.049	26.72
608.242	27.51
608.434	28.29
608.627	29.38
608.819	30.5
609.012	32.04
609.204	33.57
609.397	35.3
609.589	37.11
609.782	39
609.974	40.95
610.166	42.84
610.359	44.9
610.551	46.76
610.743	48.33
610.936	49.73
611.128	50.59
611.32	51.46
611.513	51.81
611.705	51.98
611.897	51.75
612.09	51.2
612.282	50.65
612.474	49.74
612.666	48.84
612.858	47.98
613.051	46.97
613.243	45.98
613.435	44.78
613.627	43.89
613.819	43.07
614.011	42.32
614.203	41.7
614.395	40.81
614.588	39.82
614.78	38.87
614.972	37.9
615.164	36.99
615.356	36.11
615.548	35.31
615.74	34.49
615.932	33.97
616.124	33.14
616.315	32.43
616.507	31.8
616.699	31.06
616.891	30.59
617.083	29.95
617.275	29.75
617.467	29.49
617.659	29.41
617.85	29.13
618.042	28.56
618.234	28.56
618.426	28.47
618.618	28.32
618.809	28.44
619.001	28.41
619.193	28.45
619.384	28.23
619.576	28.09
619.768	28.03
619.959	28.01
620.151	28.16
620.343	28.28
620.534	28.09
620.726	28.11
620.917	27.98
621.109	28.18
621.301	28.4
621.492	28.63
621.684	28.74
621.875	28.7
622.067	28.75
622.258	29.04
622.45	28.93
622.641	29.01
622.832	29.33
623.024	29.41
623.215	29.4
623.407	29.36
623.598	29.21
623.789	29.29
623.981	29.38
624.172	29.34
624.363	29.17
624.555	28.95
624.746	29.03
624.937	28.71
625.129	28.68
625.32	28.6
625.511	28.46
625.702	28.66
625.893	28.61
626.085	28.33
626.276	28.17
626.467	27.98
626.658	28.01
626.849	27.89
627.04	27.9
627.231	27.88
627.422	27.75
627.614	27.84
627.805	27.64
627.996	27.61
628.187	27.9
628.378	28.3
628.569	28.66
628.76	28.94
628.951	29.34
629.142	29.73
629.332	30.11
629.523	30.43
629.714	30.57
629.905	30.99
630.096	31.31
630.287	31.49
630.478	31.42
630.669	31.31
630.859	31.35
631.05	31.15
631.241	30.93
631.432	30.57
631.623	30.4
631.813	30.27
632.004	29.88
632.195	29.38
632.385	29.16
632.576	28.99
632.767	28.68
632.957	28.28
633.148	28.14
633.339	27.93
633.529	27.87
633.72	27.78
633.91	27.51
634.101	27.42
634.292	27.35
634.482	27.13
634.673	26.96
634.863	26.96
635.054	26.85
635.244	26.57
635.435	26.59
635.625	26.73
635.815	26.5
636.006	26.56
636.196	26.41
636.387	26.54
636.577	26.53
636.767	26.61
636.958	26.6
637.148	26.63
637.338	26.87
637.529	26.89
637.719	26.85
637.909	27.01
638.099	27.15
638.29	27.21
638.48	27.18
638.67	27.26
638.86	27.28
639.05	27.37
639.241	27.53
639.431	27.48
639.621	27.39
639.811	27.22
640.001	27.44
640.191	27.45
640.381	27.61
640.571	27.68
640.761	27.7
640.951	27.46
641.141	27.53
641.331	27.65
641.521	27.71
641.711	27.97
641.901	28.08
642.091	27.85
642.281	27.71
642.471	27.61
642.661	27.74
642.851	27.7
643.041	28.08
643.231	28.19
643.42	28.13
643.61	27.89
643.8	27.85
643.99	27.85
644.18	27.79
644.369	27.89
644.559	27.82
644.749	27.71
644.939	27.84
645.128	27.81
645.318	27.64
645.508	27.66
645.697	28.01
645.887	27.97
646.076	28.2
646.266	28.17
646.456	28.08
646.645	28.26
646.835	28.15
647.024	28.12
647.214	28.01
647.403	27.98
647.593	27.95
647.782	28.01
647.972	28.21
648.161	28.11
648.351	28.19
648.54	28.63
648.73	28.79
648.919	28.99
649.108	28.96
649.298	29.05
649.487	29.41
649.677	29.47
649.866	29.43
650.055	29.43
650.244	29.32
650.434	29.51
650.623	29.25
650.812	29.11
651.002	28.95
651.191	29.25
651.38	29.07
651.569	28.84
651.758	28.85
651.947	29.06
652.137	28.72
652.326	28.84
652.515	28.66
652.704	28.62
652.893	28.8
653.082	28.89
653.271	28.82
653.46	28.82
653.649	28.88
653.838	28.98
654.027	28.71
654.216	28.61
654.405	28.43
654.594	28.36
654.783	28.2
654.972	27.89
655.161	28.11
655.35	27.94
655.539	28.1
655.728	27.97
655.916	27.82
656.105	27.43
656.294	27.64
656.483	27.78
656.672	27.52
656.86	27.64
657.049	27.41
657.238	27.06
657.427	26.95
657.615	26.79
657.804	26.75
657.993	26.44
658.181	26.58
658.37	26.46
658.559	26.27
658.747	26.51
658.936	26.4
659.125	26.75
659.313	26.88
659.502	26.95
659.69	27.08
659.879	27.36
660.067	27.59
660.256	27.71
660.444	27.72
660.633	27.95
660.821	28.17
661.01	28.31
661.198	28.16
661.387	28.37
661.575	28.48
661.763	28.6
661.952	28.6
662.14	28.94
662.328	29.15
662.517	29.29
662.705	29.25
662.893	29.26
663.082	29.32
663.27	29.37
663.458	29.42
663.646	29.64
663.834	29.55
664.023	29.38
664.211	29.29
664.399	29.37
664.587	29.3
664.775	29.4
664.963	29.32
665.152	29.31
665.34	29.69
665.528	29.53
665.716	29.38
665.904	29.58
666.092	29.57
666.28	29.41
666.468	29.16
666.656	29.52
666.844	29.58
667.032	29.64
667.22	29.88
667.408	29.68
667.596	29.48
667.784	29.16
667.971	29.12
668.159	29.11
668.347	28.96
668.535	29.02
668.723	28.92
668.911	28.97
669.098	28.92
669.286	28.55
669.474	28.67
669.662	28.91
669.849	29.26
670.037	29.27
670.225	29.31
670.413	29.46
670.6	29.65
670.788	29.74
670.976	29.75
671.163	29.83
671.351	30.08
671.538	29.86
671.726	29.8
671.913	29.63
672.101	29.74
672.289	29.79
672.476	29.79
672.664	29.74
672.851	29.65
673.039	29.66
673.226	29.83
673.413	29.84
673.601	30.01
673.788	29.99
673.976	30.21
674.163	30.15
674.35	30.44
674.538	30.46
674.725	30.57
674.912	30.61
675.1	30.59
675.287	30.56
675.474	30.59
675.662	30.86
675.849	30.87
676.036	30.86
676.223	30.95
676.411	30.68
676.598	30.77
676.785	30.79
676.972	30.85
677.159	30.86
677.346	30.81
677.533	30.78
677.721	30.5
677.908	30.29
678.095	30.15
678.282	29.72
678.469	29.4
678.656	29.25
678.843	29.18
679.03	29.17
679.217	29.09
679.404	28.95
679.591	29
679.778	29
679.964	29.13
680.151	29.2
680.338	29.31
680.525	29.4
680.712	29.35
680.899	29.33
681.086	29.32
681.272	29.16
681.459	29.34
681.646	29.35
681.833	29.33
682.02	29.28
682.206	29.18
682.393	29.34
682.58	29.49
682.766	29.63
682.953	29.71
683.14	29.64
683.326	30.07
683.513	29.92
683.7	30.07
683.886	30.23
684.073	30.73
684.259	30.87
684.446	31.21
684.632	31.71
684.819	31.79
685.005	31.65
685.192	31.76
685.378	31.74
685.565	32.09
685.751	32.02
685.938	31.88
686.124	31.71
686.31	31.37
686.497	30.98
686.683	30.54
686.87	30.66
687.056	30.9
687.242	30.67
687.429	30.42
687.615	30.19
687.801	30.21
687.987	30.5
688.174	30.32
688.36	30.69
688.546	30.71
688.732	31.06
688.918	31.04
689.105	30.83
689.291	30.81
689.477	31.16
689.663	31.05
689.849	30.9
690.035	30.76
690.221	31.08
690.407	31.18
690.593	31.28
690.779	31.02
690.965	30.88
691.151	31.11
691.337	31.42
691.523	31.5
691.709	31.93
691.895	32.21
692.081	32.31
692.267	32.36
692.453	32.54
692.639	32.55
692.825	32.76
693.011	32.94
693.196	33.31
693.382	33.34
693.568	33.18
693.754	33.19
693.94	33.38
694.125	33.25
694.311	32.78
694.497	32.42
694.682	32.44
694.868	32.08
695.054	32.29
695.239	31.59
695.425	31.86
695.611	31.98
695.796	31.73
695.982	31.33
696.168	31.32
696.353	31.34
696.539	31.32
696.724	31.22
696.91	30.92
697.095	30.5
697.281	30.29
697.466	30.2
697.652	29.57
697.837	29.52
698.023	29.42
698.208	29.01
698.393	28.74
698.579	28.58
698.764	28.59
698.949	28.6
699.135	28.68
699.32	28.83
699.505	28.51
699.691	28.92
699.876	28.78
700.061	28.94
700.246	29.12
700.432	29.45
700.617	29.51
700.802	29.65
700.987	30.32
701.172	30.66
701.358	31.16
701.543	31.48
701.728	31.63
701.913	31.85
702.098	32.09
702.283	32.64
702.468	32.99
702.653	33.76
702.838	34.16
703.023	34.15
703.208	34.17
703.393	34.34
703.578	34.46
703.763	34.86
703.948	35.49
704.133	35.71
704.318	36.38
704.503	37.18
704.688	37.42
704.873	37.78
705.057	38.29
705.242	38.9
705.427	39.33
705.612	39.92
705.797	40.67
705.981	40.8
706.166	41.22
706.351	41.35
706.536	41.53
706.72	41.99
706.905	42.3
707.09	42.42
707.274	42.29
707.459	42.33
707.644	42.41
707.828	42.23
708.013	42.21
708.197	42.16
708.382	41.91
708.567	41.5
708.751	40.96
708.936	40.59
709.12	40.25
709.305	39.99
709.489	39.65
709.673	39.66
709.858	39.11
710.042	39.22
710.227	39.07
710.411	38.92
710.596	38.61
710.78	38.57
710.964	38.54
711.149	38.54
711.333	38.5
711.517	38.29
711.702	38.1
711.886	38.12
712.07	38.05
712.254	38.11
712.438	37.98
712.623	37.81
712.807	37.58
712.991	37.15
713.175	37.27
713.359	36.96
713.544	36.77
713.728	36.49
713.912	36.23
714.096	35.52
714.28	34.81
714.464	34.65
714.648	34.32
714.832	33.95
715.016	33.41
715.2	32.96
715.384	32.9
715.568	32.6
715.752	32.13
715.936	31.5
716.12	31.3
716.304	31.28
716.488	30.9
716.671	30.93
716.855	30.63
717.039	31.03
717.223	30.62
717.407	30.52
717.59	30.55
717.774	30.72
717.958	30.54
718.142	30.38
718.325	30.57
718.509	30.9
718.693	31.03
718.877	31.18
719.06	31.18
719.244	31.39
719.428	31.68
719.611	32.25
719.795	32.53
719.978	33.12
720.162	33.37
720.345	33.23
720.529	33.14
720.713	33.11
720.896	33.64
721.08	33.38
721.263	33.34
721.446	32.95
721.63	32.79
721.813	32.55
721.997	32.74
722.18	32.99
722.364	33.74
722.547	33.48
722.73	33.55
722.914	33.34
723.097	33.71
723.28	33.78
723.464	33.82
723.647	33.85
723.83	33.48
724.013	33.57
724.197	33.85
724.38	33.26
724.563	33.73
724.746	33.48
724.929	33.39
725.112	33.65
725.296	33.61
725.479	33.57
725.662	32.96
725.845	33.5
726.028	33.35
726.211	33.49
726.394	33.07
726.577	32.98
726.76	33
726.943	33.13
727.126	32.3
727.309	32.45
727.492	32.47
727.675	32.89
727.858	32.59
728.041	32.57
728.224	32.33
728.407	32.72
728.589	32.69
728.772	32.85
728.955	32.75
729.138	32.86
729.321	32.68
729.503	32.88
729.686	32.81
729.869	33.05
730.052	33.41
730.234	33.43
730.417	33.05
730.6	32.94
730.782	32.89
730.965	32.58
731.148	32.91
731.33	32.82
731.513	33.13
731.695	33.02
731.878	32.76
732.061	32.79
732.243	33.14
732.426	33.21
732.608	33.53
732.791	33.87
732.973	34.47
733.156	34.72
733.338	35.05
733.52	34.98
733.703	34.99
733.885	35.11
734.068	34.68
734.25	34.44
734.432	34.87
734.615	34.73
734.797	34.7
734.979	34.87
735.162	34.63
735.344	34.77
735.526	34.77
735.708	35.18
735.891	35.54
736.073	35.86
736.255	35.59
736.437	35.81
736.619	35.82
736.802	35.86
736.984	35.75
737.166	35.86
737.348	36.26
737.53	36.11
737.712	36.26
737.894	36.16
738.076	36.19
738.258	36.35
738.44	36.19
738.622	36.17
738.804	36.13
738.986	35.86
739.168	35.79
739.35	35.2
739.532	35.23
739.714	34.94
739.896	35.33
740.078	35.21
740.259	35.09
740.441	35.04
740.623	35.51
740.805	35.47
740.987	35.84
741.168	36.24
741.35	36.46
741.532	36.85
741.714	37.51
741.895	37.6
742.077	37.78
742.259	38.15
742.44	38.21
742.622	37.84
742.804	38.16
742.985	37.94
743.167	37.86
743.348	38.49
743.53	38.46
743.711	38.26
743.893	38.01
744.075	38.33
744.256	38.79
744.438	38.8
744.619	38.82
744.8	38.88
744.982	38.79
745.163	38.92
745.345	38.55
745.526	38.79
745.707	38.39
745.889	38.74
746.07	38.59
746.252	38.35
746.433	38.4
746.614	39.04
746.795	39.05
746.977	39.92
747.158	39.57
747.339	39.3
747.52	39.18
747.702	38.95
747.883	38.89
748.064	39.25
748.245	38.98
748.426	38.59
748.607	38.33
748.788	38.3
748.97	38.08
749.151	38.11
749.332	38.6
749.513	38.11
749.694	38.38
749.875	37.94
750.056	37.03
750.237	37.72
750.418	38.76
750.599	38.57
750.78	38.04
750.96	37.84
751.141	37.85
751.322	38.25
751.503	38.47
751.684	38.37
751.865	39.15
752.046	38.92
752.226	38.21
752.407	37.23
752.588	37.21
752.769	36.81
752.949	37.16
753.13	37.61
753.311	37.56
753.492	38.3
753.672	38.49
753.853	37.97
754.034	39.76
754.214	40.83
754.395	41.52
754.575	41.31
754.756	42.51
754.937	41.88
755.117	42.55
755.298	41.79
755.478	41.42
755.659	42.06
755.839	42.22
756.02	41.65
756.2	40.98
756.381	40.49
756.561	40.77
756.741	40.2
756.922	40.11
757.102	38.71
757.283	38.81
757.463	38.66
757.643	38.07
757.823	37.49
758.004	36.8
758.184	36.42
758.364	35.7
758.545	34.81
758.725	33.71
758.905	33.03
759.085	32.67
759.265	31.94
759.446	30.65
759.626	29.79
759.806	29.47
759.986	29.23
760.166	29.04
760.346	29.39
760.526	29.94
760.706	30.56
760.886	30.83
761.066	30.95
761.246	30.75
761.426	30.85
761.606	30.99
761.786	30.15
761.966	30.14
762.146	29.65
762.326	29.48
762.506	28.97
762.686	28.66
762.866	28.63
763.046	28.47
763.225	28.55
763.405	28.46
763.585	28.62
763.765	29.2
763.945	29.32
764.124	29.61
764.304	29.94
764.484	30.5
764.664	30.75
764.843	31.33
765.023	31.72
765.203	32.21
765.382	32.91
765.562	33.58
765.741	33.93
765.921	34.05
766.101	34.42
766.28	34.51
766.46	34.82
766.639	35.66
766.819	35.9
766.998	36.02
767.178	35.6
767.357	35.95
767.537	36.36
767.716	36.79
767.896	37.19
768.075	37.22
768.254	37.3
768.434	37.76
768.613	37.61
768.792	37.17
768.972	38.46
769.151	39.67
769.33	39.99
769.51	39.96
769.689	40
769.868	40.69
770.047	40.98
770.226	42.41
770.406	41.6
770.585	41.94
770.764	42.49
770.943	41.46
771.122	41.31
771.301	41.31
771.48	40.97
771.66	41.55
771.839	41.69
772.018	42.76
772.197	42.44
772.376	43.13
772.555	43.11
772.734	43.56
772.913	43.86
773.092	44.86
773.271	45.13
773.449	45.62
773.628	45.61
773.807	45.89
773.986	45.49
774.165	45.97
774.344	45.66
774.523	46.14
774.701	45.39
774.88	45.23
775.059	44.16
775.238	44.29
775.417	43.9
775.595	44.19
775.774	43.32
775.953	42.5
776.131	41.51
776.31	42.63
776.489	42.69
776.667	42.37
776.846	43.28
777.025	43.69
777.203	43.42
777.382	43.6
777.56	42.88
777.739	43.01
777.917	43.21
778.096	43.76
778.274	42.88
778.453	42.26
778.631	43.59
778.81	42.7
778.988	42.69
779.166	43.06
779.345	42.47
779.523	42.84
779.702	42.55
779.88	43.68
780.058	43.28
780.237	43.02
780.415	44.12
780.593	43.8
780.771	43.4
780.95	43.2
781.128	43.07
781.306	43.59
781.484	43.52
781.662	43.79
781.841	42.94
782.019	42.42
782.197	42.98
782.375	41.91
782.553	41.5
782.731	42.22
782.909	41.8
783.087	41.17
783.265	41.29
783.443	40.45
783.621	40.83
783.799	41.55
783.977	42.57
784.155	42.99
784.333	43.63
784.511	42.43
784.689	42.72
784.867	42.45
785.045	42.62
785.223	42.46
785.4	43.62
785.578	43.57
785.756	43.38
785.934	43.14
786.112	41.32
786.289	41.45
786.467	42.09
786.645	41.91
786.823	42.78
787	42.79
787.178	42.16
787.356	42.3
787.533	41.26
787.711	41.44
787.889	40.66
788.066	40.59
788.244	40.3
788.421	40.09
788.599	39.88
788.776	39.91
788.954	40.77
789.131	40.84
789.309	40.15
789.486	40.64
789.664	40.31
789.841	40.81
790.019	41.72
790.196	42.43
790.373	42.74
790.551	43.81
790.728	43.86
790.906	43.74
791.083	44.49
791.26	44.36
791.437	43.58
791.615	43.29
791.792	42.32
791.969	42.43
792.146	40.97
792.324	40.76
792.501	39.99
792.678	40.17
792.855	39.75
793.032	39.76
793.209	39.82
793.387	40.7
793.564	39.6
793.741	40.97
793.918	40.45
794.095	40.72
794.272	42.17
794.449	42.05
794.626	42.26
794.803	42.16
794.98	41.52
795.157	41.92
795.334	42.46
795.511	43.5
795.688	42.66
795.864	42.85
796.041	43.42
796.218	42.79
796.395	42.38
796.572	41.83
796.749	41.48
796.925	41.5
797.102	40.22
797.279	38.61
797.456	38.72
797.632	38.68
797.809	38.22
797.986	37.42
798.162	37.37
798.339	38.22
798.516	38.59
798.692	39.06
798.869	39.2
799.046	39.43
799.222	40.52
799.399	40.58
799.575	41.39
799.752	41.95
799.928	42.05
800.105	41.82
800.281	41.75
800.458	40.85
800.634	40.04
800.811	39.81
800.987	41.99
801.163	41.66
801.34	40.9
801.516	39.15
801.692	38.78
801.869	39.03
802.045	38.27
802.221	38.77
802.398	38.74
802.574	38.61
802.75	39.08
802.926	37.55
803.103	38.2
803.279	39.37
803.455	40.92
803.631	40.56
803.807	39.38
803.983	40.64
804.16	39.71
804.336	39.62
804.512	40.72
804.688	40.12
804.864	41.1
805.04	41.63
805.216	40.45
805.392	39.75
805.568	41.94
805.744	42.46
805.92	41.07
806.096	40.9
806.272	41.93
806.448	41.27
806.623	41.52
806.799	40.11
806.975	39.36
807.151	39.62
807.327	38.83
807.503	37.11
807.678	37.97
807.854	38.6
808.03	39.3
808.206	39.26
808.381	39.85
808.557	39.42
808.733	39.89
808.908	40.51
809.084	39.94
809.26	40.51
809.435	41.94
809.611	41.97
809.787	43.41
809.962	42.63
810.138	43.02
810.313	42.48
810.489	42.74
810.664	41.78
810.84	39.95
811.015	42.57
811.191	43.88
811.366	42.86
811.542	41.86
811.717	40.19
811.892	40.8
812.068	39.22
812.243	39.32
812.419	41.24
812.594	41.17
812.769	42.97
812.944	40.98
813.12	40.28
813.295	40.46
813.47	39.63
813.645	38.7
813.821	37.82
813.996	37.64
814.171	37.45
814.346	35.54
814.521	36.33
814.697	34.28
814.872	34
815.047	32.34
815.222	31.51
815.397	31.91
815.572	32.6
815.747	32.72
815.922	33.88
816.097	33.29
816.272	33.38
816.447	34.15
816.622	37.8
816.797	37.29
816.972	38.04
817.147	38.48
817.322	39.25
817.496	38.9
817.671	39.46
817.846	38.47
818.021	38.36
818.196	38.34
818.371	37.48
818.545	35.47
818.72	35.1
818.895	35.45
819.069	34.19
819.244	33.2
819.419	33.75
819.594	31.98
819.768	30.69
819.943	31.11
820.117	30.72
820.292	29.62
820.467	29.17
820.641	29.47
820.816	28.45
820.99	27.97
821.165	27.35
821.339	26.71
821.514	26.17
821.688	26.31
821.863	25.66
822.037	25.29
822.212	25.19
822.386	25.14
822.56	24.56
822.735	24.63
822.909	24.4
823.084	24.51
823.258	24.49
823.432	24.76
823.606	24.51
823.781	24.8
823.955	24.75
824.129	24.68
824.303	24.49
824.478	24.65
824.652	24.86
824.826	25.38
825	25.3
825.174	25.57
825.348	25.88
825.523	26.29
825.697	26.16
825.871	26.88
826.045	27.56
826.219	27.24
826.393	27.15
826.567	26.66
826.741	26.85
826.915	27.26
827.089	27.27
827.263	26.93
827.437	26.57
827.611	26.71
827.784	26.08
827.958	25.74
828.132	26.48
828.306	26.57
828.48	26.83
828.654	26.53
828.827	26.31
829.001	26.85
829.175	27.44
829.349	28.21
829.522	28.59
829.696	29.25
829.87	30.82
830.044	30.76
830.217	31.98
830.391	32.77
830.565	33.98
830.738	34.8
830.912	33.86
831.085	33.87
831.259	35.21
831.432	33.73
831.606	34.83
831.779	32.81
831.953	33.37
832.126	32
832.3	30.99
832.473	30.4
832.647	30.4
832.82	30.01
832.994	29.24
833.167	28.21
833.34	28.66
833.514	27.59
833.687	27.72
833.86	26.9
834.034	27.51
834.207	27.37
834.38	27.34
834.553	27.12
834.727	27.27
834.9	27.58
835.073	27.5
835.246	28.17
835.419	28.8
835.593	28.69
835.766	29.86
835.939	30.58
836.112	31.8
836.285	32.7
836.458	33.89
836.631	34.01
836.804	34.47
836.977	35.8
837.15	36.28
837.323	37.5
837.496	40.36
837.669	40.99
837.842	41.52
838.015	40.81
838.188	41.03
838.361	41
838.533	42.73
838.706	43.69
838.879	43.21
839.052	41.66
839.225	39.94
839.398	38.9
839.57	38.39
839.743	37.32
839.916	37.66
840.088	33.88
840.261	34.54
840.434	33.24
840.607	33.19
840.779	34.2
840.952	35.21
841.124	36.81
841.297	37.08
841.47	35.21
841.642	35.2
841.815	35.55
841.987	40.36
842.16	38.11
842.332	40.04
842.505	41.67
842.677	42.19
842.85	44.51
843.022	42.98
843.194	43.41
843.367	47.11
843.539	48.94
843.712	48.02
843.884	49.39
844.056	53.69
844.229	54.25
844.401	51.91
844.573	52.77
844.745	48.18
844.918	51.51
845.09	52.47
845.262	48.28
845.434	47.74
845.606	50.54
845.779	47.56
845.951	45.11
846.123	47.44
846.295	47.9
846.467	42.08
846.639	46.04
846.811	44.13
846.983	41.73
847.155	44.15
847.327	43.91
847.499	38.67
847.671	40.83
847.843	40.1
848.015	39.04
848.187	40.62
848.359	41.6
848.531	41.06
848.703	40.8
848.875	42.49
849.047	41.87
849.218	40.64
849.39	44.5
849.562	41.94
849.734	41.11
849.905	40.57
850.077	39.85
850.249	42.38
850.421	44.58
850.592	45.41
850.764	45.47
850.936	44.59
851.107	46.11
851.279	46.08
851.451	50.53
851.622	52.71
851.794	52.74
851.965	49.44
852.137	47.65
852.308	42.66
852.48	43.41
852.651	44.23
852.823	49.37
852.994	54.34
853.166	54.91
853.337	49.78
853.509	51.37
853.68	49.31
853.851	55.89
854.023	61.52
854.194	65.22
854.365	65.39
854.537	62.15
854.708	59.29
854.879	51.8
855.05	56.65
855.222	58.6
855.393	61.61
855.564	64.11
855.735	57.79
855.906	55.24
856.078	53.96
856.249	54.52
856.42	53.44
856.591	55.45
856.762	63.32
856.933	56.24
857.104	54.77
857.275	52.36
857.446	50.47
857.617	50.47
857.788	51.06
857.959	50.99
858.13	52.45
858.301	56.43
858.472	51.9
858.643	48
858.814	52.41
858.985	55.62
859.155	49.16
859.326	53.16
859.497	53.29
859.668	49.62
859.839	50.93
860.009	44.56
860.18	42.39
860.351	44.86
860.522	42.77
860.692	41.78
860.863	38.51
861.034	39.71
861.204	33.92
861.375	36.05
861.546	34.74
861.716	32.02
861.887	39.1
862.057	39.24
862.228	42.21
862.398	42.07
862.569	42.5
862.739	45.66
862.91	46.86
863.08	51.03
863.251	51.79
863.421	59.27
863.592	57.47
863.762	55.94
863.932	58.44
864.103	55.87
864.273	52.51
864.443	52.59
864.614	52.11
864.784	52.38
864.954	48.71
865.125	46.39
865.295	41.47
865.465	40.72
865.635	40.04
865.805	34.2
865.976	32.62
866.146	33.27
866.316	33.73
866.486	31.69
866.656	35.64
866.826	32.35
866.996	29.56
867.166	31.37
867.336	33.46
867.506	27.21
867.676	26.12
867.846	24.04
868.016	26.79
868.186	23.63
868.356	22.4
868.526	17.96
868.696	20.7
868.866	23.28
869.036	23.75
869.206	26.04
869.376	32.72
869.545	34.35
869.715	38.76
869.885	40.89
870.055	43.2
870.224	46.36
870.394	47.59
870.564	52.8
870.734	56.15
870.903	56.36
871.073	57
871.243	53.11
871.412	53.01
871.582	52.06
871.751	48.99
871.921	47.46
872.091	46.53
872.26	46.82
872.43	45.97
872.599	41.24
872.769	37.71
872.938	37.54
873.108	40.55
873.277	41.04
873.446	43.1
873.616	41.89
873.785	41.01
873.955	38.61
874.124	34.69
874.293	28.62
874.463	28.98
874.632	29.86
874.801	23.69
874.971	18.23
875.14	13.59
875.309	12.04
875.478	16.62
875.647	24.85
875.817	27.42
875.986	35.96
876.155	35.95
876.324	35.31
876.493	37.35
876.662	40.21
876.831	41.73
877	44.66
877.17	45.17
877.339	44.6
877.508	40.98
877.677	45.58
877.846	39.49
878.015	42.97
878.184	42.53
878.352	39.05
878.521	37.12
878.69	38.2
878.859	36.99
879.028	38.61
879.197	38.56
879.366	36.56
879.534	32.98
879.703	30.14
879.872	28.56
880.041	29.94
880.21	31.29
880.378	31.15
880.547	29.91
880.716	27.71
880.884	26.04
881.053	24.67
881.222	23.91
881.39	23.71
881.559	24.5
881.727	23.86
881.896	22.88
882.065	21.3
882.233	21.67
882.402	21.99
882.57	22.59
882.739	22.39
882.907	23.37
883.076	23.24
883.244	22.57
883.412	22.29
883.581	22.79
883.749	23.08
883.918	24.27
884.086	23.05
884.254	22.78
884.423	23.07
884.591	23.32
884.759	21.59
884.927	21.75
885.096	22.63
885.264	23.86
885.432	23.1
885.6	24.53
885.769	24.97
885.937	25.08
886.105	26.69
886.273	29.53
886.441	29.52
886.609	31.96
886.777	35.81
886.945	37.58
887.113	38.56
887.281	43
887.449	44.06
887.617	43.41
887.785	46.39
887.953	46.44
888.121	44.11
888.289	44.75
888.457	46.89
888.625	41.65
888.793	43.72
888.961	42.27
889.129	39.74
889.296	40.63
889.464	42.11
889.632	44.45
889.8	44.11
889.967	43.33
890.135	47.54
