Data from 29388109__Reflection_02.txt Node
Date: Thu Mar 12 21:48:06 EDT 2015
User: robert
Spectrometer: USB4E03002
Autoset integration time: false
Trigger mode: 4
Integration Time (sec): 1.000000E-1
Scans to average: 10
Electric dark correction enabled: false
Nonlinearity correction enabled: false
Boxcar width: 5
Stray light correction enabled: false
XAxis mode: Wavelengths
Stop averaging: false
Number of Pixels in Spectrum: 3648
>>>>>Begin Spectral Data<<<<<
177.575	231.11
177.794	182.86
178.014	190.67
178.233	204.23
178.452	178.15
178.672	184.27
178.891	182.83
179.11	167.29
179.33	154.83
179.549	138.74
179.768	137.51
179.987	152.83
180.207	146.83
180.426	145.67
180.645	133.08
180.864	138.78
181.084	120.66
181.303	120.61
181.522	124.76
181.741	133.65
181.96	144.05
182.179	155.67
182.398	152.17
182.618	169.06
182.837	185.54
183.056	194.3
183.275	218.6
183.494	247.85
183.713	235.78
183.932	223.84
184.151	236.19
184.37	240.7
184.589	242.18
184.808	256.88
185.027	338.04
185.246	349.06
185.465	358.7
185.684	278.9
185.903	222.68
186.122	246
186.341	302.58
186.56	276.06
186.779	266.04
186.998	284.79
187.216	239.97
187.435	204.62
187.654	160.04
187.873	165.46
188.092	163.51
188.311	198.79
188.53	220.53
188.748	213.19
188.967	190.14
189.186	201.75
189.405	181.17
189.623	191.96
189.842	171.76
190.061	200.41
190.28	198.03
190.498	266.75
190.717	232.5
190.936	195.31
191.154	156.01
191.373	182.59
191.592	187.42
191.81	213.14
192.029	213.72
192.248	312.09
192.466	259.63
192.685	274.96
192.904	243.48
193.122	221.02
193.341	193.98
193.559	207.49
193.778	181.92
193.996	167.14
194.215	146.72
194.433	142.11
194.652	135.59
194.87	136.08
195.089	132.45
195.307	124.9
195.526	123.88
195.744	144.34
195.963	153.91
196.181	145.21
196.399	144.03
196.618	139.7
196.836	148.56
197.055	129.7
197.273	138.24
197.491	132.68
197.71	123.56
197.928	107.12
198.146	107.46
198.365	114.59
198.583	124.36
198.801	132.56
199.019	136.66
199.238	132
199.456	137.75
199.674	130.51
199.892	131.87
200.111	151.48
200.329	176.75
200.547	150.99
200.765	135.37
200.983	143.16
201.202	150.99
201.42	153.31
201.638	164.06
201.856	189.26
202.074	218.34
202.292	207.91
202.51	187.22
202.728	186.31
202.946	204.48
203.165	212.5
203.383	211.08
203.601	197.2
203.819	201.01
204.037	191.41
204.255	186.27
204.473	179.26
204.691	170.41
204.909	175.49
205.127	197.88
205.345	181.31
205.562	187.27
205.78	175.49
205.998	164.84
206.216	154.3
206.434	156.36
206.652	157.08
206.87	154.1
207.088	159.03
207.306	155.56
207.523	139.01
207.741	140.93
207.959	134.4
208.177	126.99
208.395	130.86
208.612	137.87
208.83	142.24
209.048	128.83
209.266	131.95
209.483	131.81
209.701	129.79
209.919	150.79
210.136	148.69
210.354	173.25
210.572	175.22
210.79	160.07
211.007	144.14
211.225	134.17
211.442	129.73
211.66	139.21
211.878	138.72
212.095	98.16
212.313	91.54
212.53	98.82
212.748	91.62
212.966	90.85
213.183	88.29
213.401	85.52
213.618	85.3
213.836	86.68
214.053	80.11
214.271	94.48
214.488	135.11
214.705	125.81
214.923	113.95
215.14	114.46
215.358	117.58
215.575	121.87
215.793	126.48
216.01	133.63
216.227	140.84
216.445	138.07
216.662	124.41
216.879	123.42
217.097	143.49
217.314	153.91
217.531	132.73
217.749	135.78
217.966	123.6
218.183	121.63
218.4	117.16
218.618	107.55
218.835	109.68
219.052	98.33
219.269	100.76
219.487	96.33
219.704	101.58
219.921	99.78
220.138	93.29
220.355	98.32
220.572	94.26
220.79	85.31
221.007	90.07
221.224	83.17
221.441	87.11
221.658	82.24
221.875	76.03
222.092	72.48
222.309	72.91
222.526	69.27
222.743	66.81
222.96	68.65
223.177	76.38
223.394	70.41
223.611	73.43
223.828	70.18
224.045	72.4
224.262	70.31
224.479	67.82
224.696	63.96
224.913	65.6
225.13	61.33
225.347	57.42
225.564	51.02
225.781	48.53
225.997	42.55
226.214	40
226.431	34.24
226.648	31.65
226.865	28.7
227.082	24.64
227.298	21
227.515	17.39
227.732	15.23
227.949	12.88
228.165	11.42
228.382	11.39
228.599	11.46
228.816	11.39
229.032	11.38
229.249	11.24
229.466	11.41
229.682	11.6
229.899	12.65
230.116	13.1
230.332	14.56
230.549	14.92
230.765	15.05
230.982	15.11
231.199	15.79
231.415	17.17
231.632	17.17
231.848	18.33
232.065	19.16
232.281	20.1
232.498	19.88
232.714	19.8
232.931	21.06
233.147	21.28
233.364	20.49
233.58	20.22
233.797	19.39
234.013	19.38
234.23	19.05
234.446	18.49
234.662	18.35
234.879	18.78
235.095	17.97
235.312	17.14
235.528	16.61
235.744	17.66
235.961	17.63
236.177	16.94
236.393	17.56
236.61	16.62
236.826	15.17
237.042	14.82
237.258	14.37
237.475	14.58
237.691	14.51
237.907	15.66
238.123	15.41
238.339	16.05
238.556	18.02
238.772	17.39
238.988	18.15
239.204	18.48
239.42	17.15
239.636	17.07
239.853	17.47
240.069	17.43
240.285	16.51
240.501	15.8
240.717	14.48
240.933	13.66
241.149	13.37
241.365	12.57
241.581	11.96
241.797	11.85
242.013	11.32
242.229	10.71
242.445	10.6
242.661	10.54
242.877	10.91
243.093	11.11
243.309	10.94
243.525	11.06
243.741	11.56
243.957	12.19
244.173	11.89
244.388	12.33
244.604	12.68
244.82	12.37
245.036	11.96
245.252	11.05
245.468	10.53
245.683	9.93
245.899	9.54
246.115	9.37
246.331	8.54
246.547	8.82
246.762	8.61
246.978	8.22
247.194	8.27
247.409	8.03
247.625	8.07
247.841	8.1
248.057	8.24
248.272	8.24
248.488	8.27
248.703	8.78
248.919	8.51
249.135	8.54
249.35	8.87
249.566	9.06
249.782	9.83
249.997	10.18
250.213	10.7
250.428	10.84
250.644	11.44
250.859	11.89
251.075	11.57
251.29	11.77
251.506	12.25
251.721	12.25
251.937	12.56
252.152	12.2
252.368	11.71
252.583	11.49
252.798	11.47
253.014	10.87
253.229	10.57
253.445	11.6
253.66	12.25
253.875	12.51
254.091	12.52
254.306	11.95
254.521	12.33
254.737	13.83
254.952	14.13
255.167	14.4
255.383	14.73
255.598	14.2
255.813	13.52
256.028	13.33
256.244	12.57
256.459	12.47
256.674	12.75
256.889	12.49
257.104	10.69
257.32	10.48
257.535	9.64
257.75	9.65
257.965	9.81
258.18	8.77
258.395	8.31
258.61	7.86
258.826	7.8
259.041	7.31
259.256	7.26
259.471	7.53
259.686	7.28
259.901	7.42
260.116	7.3
260.331	7.07
260.546	7.36
260.761	7.23
260.976	7.36
261.191	7.48
261.406	7.62
261.621	7.91
261.836	8.07
262.05	8.38
262.265	8.3
262.48	8.42
262.695	8.49
262.91	8.69
263.125	8.92
263.34	8.95
263.555	8.92
263.769	9.05
263.984	8.62
264.199	8.87
264.414	8.99
264.629	9.37
264.843	9.59
265.058	9.42
265.273	9.24
265.488	9.16
265.702	9.41
265.917	9.12
266.132	9.15
266.346	8.75
266.561	8.53
266.776	8.33
266.99	8.39
267.205	8.12
267.42	8.39
267.634	8.3
267.849	8.3
268.063	8.03
268.278	8.22
268.492	8.2
268.707	8.66
268.922	8.49
269.136	8.78
269.351	8.81
269.565	8.28
269.78	7.99
269.994	7.9
270.209	8.26
270.423	8.53
270.637	8.32
270.852	7.92
271.066	7.7
271.281	7.58
271.495	7.29
271.709	6.66
271.924	7.01
272.138	7.02
272.353	6.79
272.567	6.73
272.781	6.53
272.996	6.77
273.21	7.09
273.424	6.83
273.638	6.99
273.853	7.3
274.067	7.64
274.281	8.11
274.495	8.1
274.71	8.44
274.924	8.18
275.138	8.34
275.352	8.03
275.566	8.05
275.781	8.32
275.995	8.11
276.209	8.25
276.423	8.53
276.637	8.05
276.851	8.47
277.065	8.04
277.279	8.46
277.493	8.38
277.707	8.32
277.921	8.27
278.135	8.3
278.349	8.35
278.563	7.63
278.777	7.55
278.991	7.67
279.205	7.29
279.419	7.69
279.633	7.22
279.847	7.12
280.061	7.18
280.275	6.92
280.489	6.94
280.703	6.94
280.917	7.06
281.131	6.88
281.344	6.96
281.558	7.09
281.772	7.07
281.986	7.21
282.2	7.16
282.414	7.21
282.627	7.64
282.841	7.68
283.055	7.51
283.269	7.32
283.482	7.28
283.696	7.04
283.91	6.82
284.123	6.58
284.337	6.65
284.551	6.75
284.764	6.76
284.978	6.21
285.192	5.86
285.405	6.05
285.619	6.2
285.833	6.14
286.046	6.21
286.26	6.33
286.473	6.42
286.687	6.46
286.9	6.34
287.114	6.12
287.327	6.58
287.541	6.72
287.754	6.49
287.968	6.62
288.181	6.97
288.395	6.94
288.608	7.04
288.822	6.8
289.035	6.58
289.248	6.82
289.462	6.73
289.675	6.73
289.889	6.81
290.102	7.01
290.315	6.96
290.529	6.96
290.742	7.11
290.955	6.95
291.169	7.14
291.382	7.29
291.595	7.28
291.808	7.57
292.022	7.67
292.235	7.85
292.448	7.94
292.661	8.23
292.875	8.28
293.088	7.89
293.301	7.89
293.514	8.19
293.727	8.29
293.94	8.29
294.153	8.36
294.367	7.82
294.58	7.74
294.793	7.6
295.006	7.34
295.219	7.38
295.432	7.85
295.645	7.9
295.858	7.77
296.071	7.49
296.284	7.12
296.497	6.94
296.71	7.14
296.923	7.07
297.136	7.21
297.349	7.28
297.562	7.09
297.775	7.08
297.988	7.24
298.201	7.6
298.414	7.78
298.626	8.29
298.839	8.85
299.052	8.98
299.265	9.44
299.478	9.37
299.691	9.23
299.903	9.21
300.116	9.18
300.329	9.24
300.542	8.99
300.755	9.23
300.967	8.95
301.18	8.56
301.393	8.69
301.605	8.28
301.818	8.44
302.031	8.71
302.243	9.21
302.456	9.25
302.669	9.19
302.881	9.43
303.094	9.4
303.307	9.51
303.519	9.47
303.732	9.45
303.944	9.58
304.157	9.61
304.37	9.69
304.582	9.42
304.795	9.52
305.007	9.64
305.22	9.39
305.432	9.34
305.645	9.72
305.857	9.69
306.069	9.89
306.282	10.14
306.494	10.17
306.707	10.15
306.919	10.09
307.132	9.8
307.344	9.92
307.556	10.18
307.769	10.32
307.981	10.36
308.193	10.46
308.406	10.3
308.618	10.37
308.83	10.33
309.043	10.42
309.255	10.44
309.467	10.77
309.679	10.55
309.892	10.1
310.104	10.11
310.316	9.99
310.528	9.75
310.74	9.59
310.953	9.45
311.165	9.57
311.377	9.53
311.589	9.68
311.801	9.79
312.013	10.09
312.225	10.6
312.437	10.53
312.649	10.58
312.862	10.88
313.074	11.1
313.286	11.17
313.498	11.35
313.71	11.6
313.922	11.62
314.134	11.34
314.346	11.31
314.558	11.24
314.77	11.4
314.982	11.42
315.193	11.45
315.405	11.27
315.617	11.28
315.829	11.22
316.041	11.25
316.253	11.35
316.465	11.38
316.677	11.31
316.888	11.49
317.1	11.51
317.312	11.53
317.524	11.7
317.736	12.18
317.947	12.33
318.159	12.22
318.371	11.81
318.583	11.56
318.794	11.58
319.006	11.52
319.218	11.82
319.43	11.7
319.641	11.79
319.853	11.51
320.064	11.69
320.276	11.47
320.488	11.62
320.699	12.02
320.911	12.2
321.123	12.62
321.334	12.74
321.546	12.28
321.757	12.44
321.969	12.25
322.18	12.72
322.392	12.37
322.603	12.94
322.815	13.13
323.026	13.12
323.238	13.18
323.449	12.69
323.661	12.64
323.872	12.62
324.083	12.66
324.295	12.8
324.506	12.76
324.718	12.83
324.929	12.59
325.14	12.09
325.352	11.99
325.563	12.1
325.774	12.49
325.986	12.2
326.197	12.13
326.408	11.96
326.62	11.99
326.831	12.08
327.042	12.27
327.253	12.23
327.464	12.86
327.676	13.03
327.887	13.37
328.098	13.23
328.309	13.58
328.52	13.68
328.732	13.85
328.943	14.1
329.154	14.22
329.365	14.01
329.576	14.32
329.787	14.36
329.998	14.47
330.209	14.14
330.42	14.65
330.631	14.8
330.842	15.24
331.053	15.59
331.264	15.71
331.475	15.73
331.686	16.01
331.897	15.89
332.108	15.87
332.319	15.82
332.53	16.1
332.741	15.92
332.952	16.04
333.163	15.51
333.374	15.17
333.585	15.06
333.795	15.05
334.006	14.94
334.217	14.86
334.428	14.51
334.639	14.69
334.849	14.71
335.06	14.72
335.271	15
335.482	15.12
335.692	15.36
335.903	15.41
336.114	15.44
336.325	15.63
336.535	15.67
336.746	15.67
336.957	15.37
337.167	15.19
337.378	14.94
337.589	14.66
337.799	14.97
338.01	14.99
338.22	14.91
338.431	14.79
338.642	14.66
338.852	14.91
339.063	15.08
339.273	15.33
339.484	15.46
339.694	15.46
339.905	15.35
340.115	15.42
340.326	15.29
340.536	15.08
340.746	15.14
340.957	15.09
341.167	14.7
341.378	14.82
341.588	14.84
341.799	14.73
342.009	14.96
342.219	15.02
342.43	14.58
342.64	14.42
342.85	14.54
343.061	14.21
343.271	14.1
343.481	14.31
343.691	13.99
343.902	13.99
344.112	14
344.322	13.98
344.532	13.82
344.743	13.98
344.953	14.17
345.163	14.03
345.373	14.26
345.583	14.13
345.793	14.14
346.004	14.23
346.214	14.08
346.424	14.2
346.634	13.91
346.844	14.01
347.054	13.86
347.264	13.76
347.474	13.83
347.684	14.01
347.894	14.31
348.104	14.03
348.314	14.18
348.524	14.2
348.734	14.11
348.944	14.12
349.154	14.37
349.364	14.54
349.574	14.64
349.784	14.67
349.994	14.41
350.204	14.23
350.413	14.46
350.623	14.31
350.833	14.22
351.043	14.17
351.253	14.31
351.463	13.82
351.672	13.81
351.882	13.7
352.092	13.5
352.302	13.39
352.511	13.43
352.721	13.34
352.931	13.17
353.141	13.32
353.35	13.27
353.56	13.22
353.77	13.42
353.979	13.38
354.189	13.13
354.399	13.28
354.608	13.48
354.818	13.35
355.027	13.27
355.237	13.51
355.447	13.43
355.656	13.15
355.866	13.25
356.075	13.31
356.285	13.32
356.494	13.44
356.704	13.59
356.913	13.48
357.123	13.58
357.332	13.59
357.542	13.45
357.751	13.67
357.96	13.98
358.17	13.94
358.379	13.76
358.589	13.75
358.798	13.67
359.007	13.21
359.217	13.19
359.426	13.2
359.635	13.27
359.845	13.16
360.054	12.85
360.263	12.52
360.472	12.4
360.682	12.63
360.891	12.48
361.1	12.52
361.309	12.82
361.519	12.82
361.728	12.77
361.937	12.86
362.146	12.79
362.355	12.88
362.564	12.96
362.774	12.97
362.983	12.84
363.192	12.95
363.401	13.17
363.61	12.8
363.819	12.82
364.028	12.88
364.237	12.77
364.446	12.77
364.655	12.77
364.864	13.03
365.073	13.02
365.282	12.93
365.491	12.86
365.7	12.63
365.909	12.92
366.118	12.83
366.327	12.73
366.536	12.62
366.745	12.85
366.954	12.74
367.162	12.5
367.371	12.42
367.58	12.44
367.789	12.43
367.998	12.55
368.207	12.46
368.415	12.61
368.624	12.71
368.833	12.54
369.042	12.31
369.25	12.42
369.459	12.59
369.668	12.43
369.877	12.37
370.085	12.12
370.294	11.89
370.503	11.89
370.711	11.73
370.92	11.54
371.129	11.57
371.337	11.67
371.546	11.65
371.754	11.38
371.963	11.64
372.171	11.64
372.38	11.83
372.589	11.89
372.797	11.99
373.006	12.08
373.214	12.07
373.423	12.11
373.631	12.17
373.84	11.95
374.048	11.92
374.256	11.77
374.465	11.97
374.673	11.93
374.882	11.86
375.09	11.83
375.298	11.69
375.507	11.57
375.715	11.5
375.923	11.49
376.132	11.69
376.34	11.73
376.548	11.87
376.757	11.48
376.965	11.55
377.173	11.53
377.381	11.47
377.59	11.58
377.798	11.51
378.006	11.51
378.214	11.5
378.423	11.41
378.631	11.46
378.839	11.2
379.047	11.17
379.255	11.05
379.463	10.97
379.671	10.73
379.879	10.49
380.088	10.53
380.296	10.61
380.504	10.37
380.712	10.38
380.92	10.2
381.128	10.42
381.336	10.56
381.544	10.65
381.752	10.91
381.96	10.98
382.168	10.97
382.376	11.03
382.584	10.91
382.791	10.93
382.999	10.9
383.207	11.07
383.415	10.99
383.623	11.16
383.831	11.08
384.039	10.85
384.247	10.92
384.454	10.85
384.662	10.83
384.87	11.03
385.078	11.3
385.285	11.09
385.493	11
385.701	10.9
385.909	10.73
386.116	10.6
386.324	10.46
386.532	10.52
386.739	10.64
386.947	10.65
387.155	10.63
387.362	10.43
387.57	10.54
387.778	10.58
387.985	10.57
388.193	10.54
388.4	10.61
388.608	10.87
388.816	10.78
389.023	10.71
389.231	10.75
389.438	10.58
389.646	10.59
389.853	10.62
390.061	10.68
390.268	10.68
390.475	10.72
390.683	10.61
390.89	10.38
391.098	10.43
391.305	10.45
391.512	10.33
391.72	10.25
391.927	10.2
392.135	10.02
392.342	9.75
392.549	9.68
392.756	9.54
392.964	9.6
393.171	9.75
393.378	9.62
393.586	9.69
393.793	9.62
394	9.65
394.207	9.62
394.414	9.74
394.622	9.96
394.829	10.01
395.036	9.98
395.243	9.98
395.45	9.76
395.657	9.83
395.864	9.95
396.072	10
396.279	9.77
396.486	9.68
396.693	9.78
396.9	9.58
397.107	9.58
397.314	9.73
397.521	9.8
397.728	10.07
397.935	10.05
398.142	9.75
398.349	9.82
398.556	10.02
398.763	10.09
398.97	9.93
399.177	9.9
399.383	9.89
399.59	9.77
399.797	9.81
400.004	9.8
400.211	9.91
400.418	10.02
400.625	9.93
400.831	9.98
401.038	9.93
401.245	10
401.452	10.1
401.658	10.07
401.865	10.19
402.072	10.12
402.279	10.11
402.485	9.88
402.692	9.83
402.899	9.9
403.105	9.68
403.312	9.73
403.519	9.59
403.725	9.58
403.932	9.57
404.138	9.44
404.345	9.31
404.552	9.18
404.758	9.41
404.965	9.35
405.171	9.38
405.378	9.49
405.584	9.35
405.791	9.38
405.997	9.34
406.204	9.29
406.41	9.4
406.617	9.34
406.823	9.34
407.029	9.19
407.236	9.22
407.442	9.32
407.649	9.37
407.855	9.39
408.061	9.45
408.268	9.65
408.474	9.65
408.68	9.64
408.887	9.75
409.093	9.75
409.299	9.7
409.505	9.68
409.712	9.52
409.918	9.58
410.124	9.6
410.33	9.63
410.537	9.51
410.743	9.58
410.949	9.55
411.155	9.67
411.361	9.54
411.567	9.67
411.773	9.79
411.98	9.75
412.186	9.67
412.392	9.77
412.598	9.82
412.804	9.68
413.01	9.78
413.216	9.71
413.422	9.66
413.628	9.79
413.834	9.74
414.04	9.77
414.246	9.77
414.452	9.91
414.658	9.98
414.864	9.83
415.07	10
415.275	9.93
415.481	9.98
415.687	9.99
415.893	9.97
416.099	9.91
416.305	9.78
416.511	9.84
416.716	9.82
416.922	9.72
417.128	9.84
417.334	9.73
417.539	9.69
417.745	9.68
417.951	9.72
418.157	9.68
418.362	9.66
418.568	9.73
418.774	9.69
418.979	9.61
419.185	9.66
419.391	9.57
419.596	9.62
419.802	9.65
420.008	9.7
420.213	9.71
420.419	9.83
420.624	9.91
420.83	9.89
421.035	9.92
421.241	9.97
421.446	9.92
421.652	9.96
421.857	9.97
422.063	10
422.268	10.02
422.474	10.04
422.679	10.04
422.885	10.02
423.09	10.02
423.295	9.98
423.501	9.93
423.706	10.05
423.911	10.04
424.117	10.12
424.322	10.12
424.527	10.05
424.733	10.01
424.938	9.93
425.143	9.92
425.349	9.92
425.554	9.99
425.759	10.07
425.964	10.02
426.169	10.06
426.375	10.01
426.58	10.07
426.785	10.17
426.99	10.24
427.195	10.31
427.4	10.34
427.605	10.41
427.811	10.5
428.016	10.52
428.221	10.62
428.426	10.54
428.631	10.65
428.836	10.61
429.041	10.6
429.246	10.69
429.451	10.73
429.656	10.76
429.861	10.78
430.066	10.79
430.271	10.84
430.476	10.75
430.681	10.84
430.886	10.71
431.09	10.8
431.295	10.8
431.5	10.78
431.705	10.77
431.91	10.97
432.115	11.01
432.32	11.02
432.524	10.97
432.729	11.01
432.934	11.07
433.139	11.11
433.343	11.12
433.548	11.17
433.753	11.17
433.958	11.19
434.162	11.06
434.367	11
434.572	11.06
434.776	11.15
434.981	11.12
435.186	11.01
435.39	11.09
435.595	10.98
435.799	10.94
436.004	10.95
436.209	11.03
436.413	10.99
436.618	11.08
436.822	10.98
437.027	10.8
437.231	10.95
437.436	11.05
437.64	11.05
437.845	11.19
438.049	11.25
438.253	11.3
438.458	11.28
438.662	11.31
438.867	11.27
439.071	11.36
439.275	11.47
439.48	11.56
439.684	11.6
439.888	11.56
440.093	11.54
440.297	11.52
440.501	11.49
440.706	11.46
440.91	11.51
441.114	11.48
441.318	11.48
441.523	11.5
441.727	11.37
441.931	11.31
442.135	11.36
442.339	11.43
442.543	11.51
442.748	11.5
442.952	11.56
443.156	11.53
443.36	11.58
443.564	11.63
443.768	11.7
443.972	11.75
444.176	11.77
444.38	11.71
444.584	11.64
444.788	11.55
444.992	11.56
445.196	11.56
445.4	11.55
445.604	11.51
445.808	11.54
446.012	11.48
446.216	11.43
446.42	11.49
446.624	11.59
446.828	11.58
447.032	11.64
447.235	11.58
447.439	11.5
447.643	11.55
447.847	11.62
448.051	11.5
448.254	11.53
448.458	11.56
448.662	11.56
448.866	11.45
449.069	11.5
449.273	11.52
449.477	11.6
449.681	11.69
449.884	11.7
450.088	11.71
450.292	11.76
450.495	11.72
450.699	11.73
450.902	11.77
451.106	11.84
451.31	11.91
451.513	11.83
451.717	11.79
451.92	11.75
452.124	11.77
452.327	11.75
452.531	11.8
452.734	11.74
452.938	11.76
453.141	11.73
453.345	11.79
453.548	11.74
453.752	11.81
453.955	11.88
454.158	11.91
454.362	11.85
454.565	11.94
454.769	11.97
454.972	12.16
455.175	12.11
455.379	12.09
455.582	12.01
455.785	12.05
455.988	12.08
456.192	12.13
456.395	12.22
456.598	12.32
456.801	12.28
457.005	12.16
457.208	12.09
457.411	12.15
457.614	12.13
457.817	12.1
458.021	12.06
458.224	12
458.427	11.9
458.63	11.93
458.833	11.86
459.036	11.74
459.239	11.82
459.442	11.85
459.645	11.8
459.848	11.84
460.051	11.93
460.254	11.93
460.457	11.92
460.66	12
460.863	11.89
461.066	11.9
461.269	12
461.472	12.02
461.675	11.97
461.878	12.07
462.081	12.11
462.284	12.03
462.486	12.02
462.689	12.1
462.892	12.05
463.095	12.16
463.298	12.18
463.5	12.13
463.703	12.18
463.906	12.23
464.109	12.15
464.311	12.09
464.514	12.11
464.717	12.1
464.92	12
465.122	12.01
465.325	11.91
465.528	11.96
465.73	12.02
465.933	11.94
466.135	11.91
466.338	12.05
466.541	12.08
466.743	12.13
466.946	12.16
467.148	12.28
467.351	12.28
467.553	12.29
467.756	12.27
467.958	12.27
468.161	12.23
468.363	12.28
468.566	12.26
468.768	12.35
468.971	12.31
469.173	12.32
469.375	12.32
469.578	12.3
469.78	12.39
469.983	12.43
470.185	12.46
470.387	12.56
470.59	12.55
470.792	12.56
470.994	12.49
471.196	12.46
471.399	12.52
471.601	12.42
471.803	12.52
472.005	12.48
472.208	12.53
472.41	12.55
472.612	12.49
472.814	12.45
473.016	12.4
473.218	12.39
473.421	12.46
473.623	12.4
473.825	12.45
474.027	12.38
474.229	12.47
474.431	12.42
474.633	12.4
474.835	12.5
475.037	12.56
475.239	12.67
475.441	12.63
475.643	12.65
475.845	12.56
476.047	12.62
476.249	12.74
476.451	12.72
476.653	12.78
476.855	12.79
477.057	12.73
477.258	12.72
477.46	12.54
477.662	12.56
477.864	12.56
478.066	12.63
478.268	12.57
478.469	12.49
478.671	12.46
478.873	12.34
479.075	12.31
479.276	12.26
479.478	12.28
479.68	12.35
479.882	12.23
480.083	12.24
480.285	12.23
480.487	12.25
480.688	12.2
480.89	12.19
481.091	12.15
481.293	12.07
481.495	12.05
481.696	11.99
481.898	12
482.099	12.02
482.301	11.92
482.502	11.86
482.704	11.8
482.905	11.74
483.107	11.73
483.308	11.68
483.51	11.68
483.711	11.69
483.913	11.7
484.114	11.64
484.315	11.64
484.517	11.65
484.718	11.66
484.92	11.68
485.121	11.7
485.322	11.69
485.524	11.74
485.725	11.77
485.926	11.74
486.127	11.71
486.329	11.75
486.53	11.72
486.731	11.73
486.932	11.71
487.134	11.7
487.335	11.72
487.536	11.71
487.737	11.66
487.938	11.66
488.139	11.7
488.341	11.69
488.542	11.68
488.743	11.7
488.944	11.71
489.145	11.74
489.346	11.77
489.547	11.74
489.748	11.77
489.949	11.86
490.15	11.87
490.351	11.85
490.552	11.89
490.753	11.87
490.954	11.89
491.155	11.85
491.356	11.85
491.557	11.83
491.758	11.83
491.959	11.83
492.159	11.83
492.36	11.87
492.561	11.89
492.762	11.89
492.963	11.93
493.164	11.95
493.364	12.06
493.565	12.06
493.766	12.06
493.967	12.11
494.167	12.15
494.368	12.17
494.569	12.17
494.769	12.14
494.97	12.2
495.171	12.17
495.371	12.18
495.572	12.2
495.773	12.2
495.973	12.3
496.174	12.32
496.375	12.27
496.575	12.26
496.776	12.26
496.976	12.33
497.177	12.28
497.377	12.36
497.578	12.41
497.778	12.44
497.979	12.48
498.179	12.45
498.38	12.43
498.58	12.51
498.78	12.49
498.981	12.6
499.181	12.58
499.382	12.63
499.582	12.6
499.782	12.63
499.983	12.58
500.183	12.66
500.383	12.77
500.584	12.84
500.784	12.86
500.984	12.96
501.184	12.85
501.385	12.9
501.585	12.92
501.785	12.94
501.985	13.01
502.185	13.06
502.386	13.09
502.586	13.05
502.786	13.12
502.986	13.18
503.186	13.19
503.386	13.22
503.586	13.27
503.786	13.3
503.987	13.35
504.187	13.32
504.387	13.33
504.587	13.39
504.787	13.42
504.987	13.45
505.187	13.47
505.387	13.57
505.587	13.63
505.786	13.73
505.986	13.81
506.186	13.86
506.386	13.94
506.586	14.01
506.786	14
506.986	14.03
507.186	14.02
507.386	14.06
507.585	14.03
507.785	14.07
507.985	13.91
508.185	13.86
508.384	13.9
508.584	13.91
508.784	13.9
508.984	13.95
509.183	13.95
509.383	14
509.583	14.02
509.782	14.04
509.982	14.15
510.182	14.31
510.381	14.35
510.581	14.44
510.781	14.44
510.98	14.51
511.18	14.53
511.379	14.59
511.579	14.61
511.778	14.7
511.978	14.73
512.177	14.79
512.377	14.77
512.576	14.8
512.776	14.74
512.975	14.78
513.175	14.82
513.374	14.91
513.573	15.04
513.773	15.11
513.972	15.1
514.172	15.14
514.371	15.14
514.57	15.18
514.77	15.24
514.969	15.29
515.168	15.44
515.367	15.51
515.567	15.51
515.766	15.52
515.965	15.61
516.164	15.71
516.364	15.8
516.563	15.87
516.762	15.92
516.961	16.04
517.16	16.14
517.359	16.13
517.559	16.17
517.758	16.12
517.957	16.23
518.156	16.25
518.355	16.2
518.554	16.25
518.753	16.26
518.952	16.31
519.151	16.36
519.35	16.44
519.549	16.45
519.748	16.48
519.947	16.64
520.146	16.57
520.345	16.62
520.544	16.77
520.743	16.79
520.942	16.84
521.141	16.9
521.339	16.9
521.538	16.92
521.737	17.04
521.936	17.12
522.135	17.15
522.333	17.27
522.532	17.29
522.731	17.27
522.93	17.41
523.129	17.53
523.327	17.61
523.526	17.66
523.725	17.71
523.923	17.75
524.122	17.77
524.321	17.81
524.519	17.82
524.718	17.96
524.917	18.02
525.115	18.05
525.314	18.09
525.512	18.11
525.711	18.15
525.909	18.23
526.108	18.25
526.306	18.32
526.505	18.35
526.703	18.45
526.902	18.46
527.1	18.51
527.299	18.56
527.497	18.55
527.696	18.57
527.894	18.62
528.092	18.61
528.291	18.64
528.489	18.67
528.688	18.71
528.886	18.69
529.084	18.7
529.283	18.7
529.481	18.72
529.679	18.76
529.877	18.81
530.076	18.82
530.274	18.88
530.472	18.97
530.67	18.99
530.869	19.04
531.067	19.13
531.265	19.22
531.463	19.32
531.661	19.36
531.859	19.47
532.057	19.56
532.255	19.62
532.454	19.66
532.652	19.64
532.85	19.66
533.048	19.64
533.246	19.68
533.444	19.67
533.642	19.72
533.84	19.75
534.038	19.71
534.236	19.66
534.434	19.67
534.632	19.72
534.83	19.82
535.027	19.88
535.225	19.94
535.423	19.94
535.621	20
535.819	20
536.017	19.99
536.215	20.05
536.412	20.13
536.61	20.2
536.808	20.21
537.006	20.15
537.203	20.21
537.401	20.35
537.599	20.42
537.797	20.45
537.994	20.47
538.192	20.54
538.39	20.56
538.587	20.65
538.785	20.68
538.983	20.69
539.18	20.73
539.378	20.78
539.575	20.7
539.773	20.65
539.97	20.65
540.168	20.68
540.366	20.67
540.563	20.65
540.761	20.63
540.958	20.59
541.155	20.61
541.353	20.59
541.55	20.57
541.748	20.59
541.945	20.61
542.143	20.63
542.34	20.67
542.537	20.75
542.735	20.8
542.932	20.8
543.129	20.89
543.327	20.95
543.524	21.04
543.721	21.09
543.919	21.15
544.116	21.25
544.313	21.29
544.51	21.3
544.708	21.25
544.905	21.24
545.102	21.3
545.299	21.35
545.496	21.35
545.693	21.3
545.891	21.36
546.088	21.31
546.285	21.31
546.482	21.26
546.679	21.31
546.876	21.32
547.073	21.42
547.27	21.37
547.467	21.32
547.664	21.24
547.861	21.31
548.058	21.28
548.255	21.36
548.452	21.41
548.649	21.49
548.846	21.47
549.043	21.58
549.24	21.5
549.437	21.56
549.633	21.57
549.83	21.65
550.027	21.73
550.224	21.67
550.421	21.64
550.618	21.57
550.814	21.57
551.011	21.61
551.208	21.67
551.405	21.67
551.601	21.67
551.798	21.74
551.995	21.65
552.191	21.57
552.388	21.5
552.585	21.46
552.781	21.4
552.978	21.42
553.175	21.39
553.371	21.23
553.568	21.26
553.764	21.33
553.961	21.25
554.157	21.37
554.354	21.42
554.55	21.58
554.747	21.6
554.943	21.7
555.14	21.75
555.336	21.73
555.533	21.81
555.729	21.77
555.926	21.72
556.122	21.82
556.318	21.79
556.515	21.8
556.711	21.86
556.907	21.86
557.104	21.85
557.3	21.82
557.496	21.87
557.693	21.83
557.889	21.83
558.085	21.91
558.281	21.82
558.478	21.9
558.674	21.83
558.87	21.8
559.066	21.85
559.262	21.84
559.459	21.83
559.655	21.77
559.851	21.97
560.047	22.1
560.243	22.09
560.439	22.16
560.635	22.18
560.831	22.32
561.027	22.35
561.223	22.29
561.419	22.33
561.615	22.3
561.811	22.32
562.007	22.15
562.203	22.2
562.399	22.07
562.595	22.13
562.791	22.04
562.987	21.93
563.183	21.84
563.379	21.86
563.575	21.84
563.771	21.88
563.966	21.8
564.162	21.83
564.358	21.82
564.554	21.96
564.75	21.94
564.945	22.02
565.141	22.16
565.337	22.2
565.533	22.22
565.728	22.17
565.924	22.18
566.12	22.3
566.315	22.24
566.511	22.14
566.707	22
566.902	21.98
567.098	21.93
567.293	21.89
567.489	21.87
567.684	21.94
567.88	21.95
568.076	21.87
568.271	21.83
568.467	21.96
568.662	21.98
568.858	22.05
569.053	22.16
569.248	22.32
569.444	22.2
569.639	22.14
569.835	22.12
570.03	22.14
570.225	22.19
570.421	22.24
570.616	22.18
570.812	22.13
571.007	22.17
571.202	22.07
571.397	22.03
571.593	22.11
571.788	22.21
571.983	22.19
572.178	22.16
572.374	22.19
572.569	22.18
572.764	22.18
572.959	22.27
573.154	22.21
573.35	22.25
573.545	22.15
573.74	22.03
573.935	21.98
574.13	22.04
574.325	22.07
574.52	22.1
574.715	22.07
574.91	22.08
575.105	21.97
575.3	21.91
575.495	21.96
575.69	22.04
575.885	22.19
576.08	22.18
576.275	22.13
576.47	22.18
576.665	22.12
576.86	22.15
577.055	22.04
577.25	22.07
577.444	22.34
577.639	22.25
577.834	22.27
578.029	22.28
578.224	22.17
578.418	22.2
578.613	22.25
578.808	22.29
579.003	22.33
579.197	22.43
579.392	22.36
579.587	22.29
579.781	22.34
579.976	22.3
580.171	22.2
580.365	22.31
580.56	22.23
580.755	22.18
580.949	22.16
581.144	22.25
581.338	22.31
581.533	22.58
581.727	22.62
581.922	22.66
582.116	22.63
582.311	22.76
582.505	22.89
582.7	22.95
582.894	22.95
583.089	23.02
583.283	22.94
583.478	23.02
583.672	23.02
583.866	22.79
584.061	22.9
584.255	22.99
584.449	22.9
584.644	22.87
584.838	22.89
585.032	22.86
585.226	22.89
585.421	22.84
585.615	22.87
585.809	22.8
586.003	23
586.198	22.86
586.392	22.75
586.586	22.68
586.78	22.62
586.974	22.56
587.168	22.61
587.363	22.61
587.557	22.76
587.751	22.82
587.945	22.72
588.139	22.81
588.333	22.82
588.527	22.98
588.721	23.15
588.915	23.25
589.109	23.22
589.303	23.23
589.497	23.12
589.691	23.02
589.885	22.91
590.079	23.05
590.273	23.04
590.466	23.11
590.66	23.08
590.854	23.18
591.048	23.07
591.242	23.12
591.436	23.06
591.629	23.08
591.823	23.1
592.017	23.16
592.211	23.14
592.404	23.02
592.598	22.97
592.792	22.97
592.986	22.87
593.179	22.95
593.373	23.03
593.567	23.1
593.76	23.12
593.954	23.19
594.147	23.3
594.341	23.35
594.535	23.45
594.728	23.49
594.922	23.45
595.115	23.33
595.309	23.36
595.502	23.38
595.696	23.31
595.889	23.36
596.083	23.32
596.276	23.19
596.47	23.09
596.663	22.99
596.856	23.13
597.05	23.15
597.243	23.26
597.437	23.36
597.63	23.44
597.823	23.59
598.017	23.48
598.21	23.55
598.403	23.44
598.596	23.57
598.79	23.79
598.983	23.71
599.176	23.75
599.369	23.69
599.563	23.47
599.756	23.36
599.949	23.31
600.142	23.31
600.335	23.35
600.528	23.58
600.722	23.62
600.915	23.57
601.108	23.45
601.301	23.46
601.494	23.54
601.687	23.61
601.88	23.77
602.073	23.75
602.266	23.84
602.459	23.77
602.652	23.76
602.845	23.78
603.038	23.8
603.231	23.9
603.424	24.01
603.617	23.99
603.809	24.05
604.002	23.92
604.195	23.92
604.388	24.01
604.581	24.08
604.774	24.12
604.966	24.07
605.159	24.04
605.352	24.04
605.545	23.95
605.737	23.92
605.93	23.9
606.123	23.91
606.316	24.01
606.508	23.86
606.701	23.91
606.894	23.75
607.086	23.71
607.279	23.65
607.471	23.56
607.664	23.58
607.857	23.69
608.049	23.73
608.242	23.75
608.434	23.76
608.627	24.1
608.819	24.17
609.012	24.4
609.204	24.8
609.397	25.23
609.589	25.61
609.782	25.87
609.974	25.96
610.166	26.25
610.359	26.77
610.551	27.11
610.743	27.27
610.936	27.41
611.128	27.56
611.32	27.51
611.513	27.42
611.705	27.27
611.897	27.41
612.09	27.51
612.282	27.46
612.474	27.13
612.666	27.06
612.858	27.07
613.051	27.04
613.243	26.92
613.435	26.89
613.627	26.74
613.819	26.79
614.011	26.59
614.203	26.6
614.395	26.45
614.588	26.41
614.78	26.2
614.972	25.82
615.164	25.82
615.356	25.84
615.548	25.65
615.74	25.67
615.932	25.62
616.124	25.5
616.315	25.42
616.507	25.29
616.699	25.13
616.891	25.25
617.083	25.23
617.275	25.04
617.467	25.01
617.659	24.98
617.85	24.94
618.042	24.82
618.234	24.88
618.426	24.8
618.618	24.87
618.809	24.95
619.001	24.94
619.193	25
619.384	25.1
619.576	25.02
619.768	25.04
619.959	24.95
620.151	25.02
620.343	25.05
620.534	25.03
620.726	24.96
620.917	24.97
621.109	24.92
621.301	24.96
621.492	24.75
621.684	24.89
621.875	25.04
622.067	24.97
622.258	24.99
622.45	24.96
622.641	24.94
622.832	25.11
623.024	25.14
623.215	25.04
623.407	25.11
623.598	25.48
623.789	25.34
623.981	25.15
624.172	25.36
624.363	25.33
624.555	25.27
624.746	25.34
624.937	25.14
625.129	25.04
625.32	25.09
625.511	25.09
625.702	25.01
625.893	24.94
626.085	24.99
626.276	24.93
626.467	24.95
626.658	24.84
626.849	24.79
627.04	24.95
627.231	24.94
627.422	24.85
627.614	24.91
627.805	24.89
627.996	25.07
628.187	25.17
628.378	25.25
628.569	25.27
628.76	25.34
628.951	25.38
629.142	25.4
629.332	25.51
629.523	25.64
629.714	25.65
629.905	25.85
630.096	25.83
630.287	25.86
630.478	25.88
630.669	25.83
630.859	25.81
631.05	25.89
631.241	25.75
631.432	25.77
631.623	25.67
631.813	25.74
632.004	25.31
632.195	25.56
632.385	25.35
632.576	25.15
632.767	25.19
632.957	25.32
633.148	25.21
633.339	25.26
633.529	25.13
633.72	25.09
633.91	24.85
634.101	25.09
634.292	24.94
634.482	24.91
634.673	25.04
634.863	25
635.054	24.9
635.244	25
635.435	25
635.625	25.1
635.815	25.16
636.006	25.17
636.196	25.07
636.387	25.17
636.577	25.14
636.767	25.14
636.958	25.25
637.148	25.35
637.338	25.31
637.529	25.28
637.719	25.24
637.909	25.11
638.099	25.1
638.29	24.99
638.48	24.68
638.67	25
638.86	24.77
639.05	24.71
639.241	24.6
639.431	24.53
639.621	24.62
639.811	24.57
640.001	24.74
640.191	24.88
640.381	25.08
640.571	25.14
640.761	25
640.951	25.29
641.141	25.35
641.331	25.61
641.521	25.73
641.711	25.72
641.901	25.56
642.091	25.41
642.281	25.49
642.471	25.32
642.661	25.47
642.851	25.68
643.041	25.65
643.231	25.81
643.42	25.57
643.61	25.62
643.8	25.55
643.99	25.84
644.18	26.18
644.369	26.1
644.559	26.07
644.749	26.13
644.939	26.01
645.128	25.75
645.318	25.51
645.508	25.9
645.697	25.82
645.887	25.93
646.076	25.87
646.266	25.6
646.456	25.54
646.645	25.68
646.835	25.63
647.024	25.43
647.214	25.6
647.403	25.62
647.593	25.51
647.782	25.58
647.972	25.61
648.161	25.69
648.351	25.71
648.54	25.77
648.73	25.78
648.919	25.54
649.108	25.6
649.298	25.67
649.487	25.68
649.677	25.41
649.866	25.55
650.055	25.54
650.244	25.51
650.434	25.54
650.623	25.68
650.812	25.71
651.002	25.83
651.191	25.98
651.38	25.9
651.569	26.07
651.758	26.18
651.947	26.21
652.137	26.27
652.326	26.36
652.515	26.56
652.704	26.59
652.893	26.58
653.082	26.67
653.271	26.77
653.46	26.82
653.649	26.68
653.838	26.72
654.027	26.41
654.216	26.44
654.405	26.37
654.594	26.33
654.783	26.25
654.972	26.4
655.161	26.39
655.35	26.1
655.539	26.04
655.728	26.13
655.916	26.28
656.105	26.26
656.294	25.98
656.483	26.03
656.672	25.96
656.86	25.75
657.049	25.68
657.238	25.69
657.427	25.84
657.615	25.8
657.804	25.7
657.993	25.51
658.181	25.65
658.37	25.86
658.559	25.91
658.747	25.89
658.936	25.87
659.125	25.83
659.313	25.85
659.502	25.8
659.69	25.89
659.879	25.89
660.067	25.86
660.256	25.91
660.444	25.68
660.633	25.79
660.821	25.83
661.01	26.06
661.198	26.21
661.387	26.11
661.575	26.34
661.763	26.3
661.952	26.47
662.14	26.58
662.328	26.62
662.517	26.95
662.705	26.74
662.893	26.64
663.082	26.41
663.27	26.39
663.458	26.56
663.646	26.41
663.834	26.56
664.023	26.44
664.211	26.49
664.399	26.55
664.587	26.68
664.775	26.82
664.963	27.11
665.152	27.36
665.34	27.28
665.528	27.42
665.716	27.44
665.904	27.39
666.092	27.47
666.28	27.55
666.468	27.34
666.656	27.21
666.844	27.07
667.032	26.94
667.22	26.81
667.408	26.63
667.596	26.32
667.784	26.41
667.971	26.61
668.159	26.73
668.347	26.82
668.535	26.9
668.723	27.11
668.911	27.2
669.098	27.16
669.286	27.13
669.474	27.31
669.662	27.57
669.849	27.5
670.037	27.21
670.225	27.21
670.413	27.08
670.6	27.08
670.788	26.99
670.976	26.78
671.163	26.86
671.351	27.13
671.538	27.2
671.726	26.98
671.913	27.01
672.101	27.34
672.289	27.24
672.476	27.25
672.664	27.37
672.851	27.28
673.039	27.52
673.226	27.68
673.413	27.85
673.601	27.91
673.788	28.15
673.976	28.08
674.163	27.82
674.35	27.67
674.538	27.66
674.725	27.83
674.912	27.95
675.1	27.97
675.287	28.04
675.474	27.67
675.662	27.52
675.849	27.46
676.036	27.43
676.223	27.59
676.411	27.66
676.598	27.79
676.785	27.63
676.972	27.51
677.159	27.7
677.346	27.22
677.533	27.12
677.721	27.14
677.908	27.08
678.095	27.4
678.282	27.3
678.469	27.46
678.656	27.48
678.843	27.49
679.03	27.67
679.217	27.57
679.404	27.75
679.591	27.87
679.778	27.93
679.964	27.97
680.151	27.69
680.338	27.73
680.525	27.57
680.712	27.52
680.899	27.37
681.086	27.17
681.272	26.83
681.459	26.78
681.646	26.94
681.833	26.95
682.02	26.9
682.206	26.88
682.393	26.93
682.58	27.03
682.766	26.82
682.953	27.31
683.14	27.53
683.326	27.81
683.513	28.12
683.7	27.85
683.886	27.99
684.073	27.92
684.259	28.11
684.446	28.26
684.632	28.27
684.819	28.59
685.005	28.21
685.192	28.18
685.378	28.32
685.565	28.2
685.751	28.65
685.938	28.36
686.124	28.48
686.31	28.4
686.497	28.21
686.683	28.07
686.87	27.82
687.056	27.96
687.242	28.07
687.429	27.86
687.615	27.78
687.801	27.62
687.987	27.8
688.174	27.84
688.36	27.76
688.546	27.56
688.732	27.64
688.918	27.81
689.105	27.57
689.291	27.34
689.477	27.62
689.663	27.99
689.849	28
690.035	28.04
690.221	27.98
690.407	28.54
690.593	28.88
690.779	29.03
690.965	29.29
691.151	29.45
691.337	29.62
691.523	29.42
691.709	29.33
691.895	29.51
692.081	29.69
692.267	29.8
692.453	29.6
692.639	29.45
692.825	29.67
693.011	29.44
693.196	29.52
693.382	29.23
693.568	29.68
693.754	29.78
693.94	29.52
694.125	29.48
694.311	29.27
694.497	29.26
694.682	29.41
694.868	29.02
695.054	28.8
695.239	28.63
695.425	29.1
695.611	28.77
695.796	28.92
695.982	28.95
696.168	28.61
696.353	28.47
696.539	28.1
696.724	28.05
696.91	27.99
697.095	28.22
697.281	28.21
697.466	27.82
697.652	27.65
697.837	27.51
698.023	27.31
698.208	27.53
698.393	27.75
698.579	28.01
698.764	27.99
698.949	28.08
699.135	28.06
699.32	28.21
699.505	28.41
699.691	28.47
699.876	28.3
700.061	28.38
700.246	28.32
700.432	28.66
700.617	28.67
700.802	28.76
700.987	28.84
701.172	28.99
701.358	28.91
701.543	28.97
701.728	29.2
701.913	29.26
702.098	29.75
702.283	29.69
702.468	29.16
702.653	28.76
702.838	29
703.023	28.96
703.208	28.87
703.393	28.99
703.578	29.03
703.763	29
703.948	29.32
704.133	29.04
704.318	29.21
704.503	29.16
704.688	29.61
704.873	29.79
705.057	30.27
705.242	30.76
705.427	30.97
705.612	30.78
705.797	30.78
705.981	30.58
706.166	30.66
706.351	31.07
706.536	31.37
706.72	31.12
706.905	30.76
707.09	30.73
707.274	30.08
707.459	30.11
707.644	30.31
707.828	30.7
708.013	31.13
708.197	31.07
708.382	30.69
708.567	30.69
708.751	30.93
708.936	30.88
709.12	30.95
709.305	31.01
709.489	30.79
709.673	30.94
709.858	30.54
710.042	30.26
710.227	30.27
710.411	30.28
710.596	30.58
710.78	30.57
710.964	30.59
711.149	30.41
711.333	30.76
711.517	30.89
711.702	30.68
711.886	30.89
712.07	31.04
712.254	31.05
712.438	30.91
712.623	30.61
712.807	30.48
712.991	30.57
713.175	30.55
713.359	30.39
713.544	29.99
713.728	30.24
713.912	29.89
714.096	29.43
714.28	29.08
714.464	29.18
714.648	29.2
714.832	29.33
715.016	29.35
715.2	28.91
715.384	28.78
715.568	29.06
715.752	28.98
715.936	29.14
716.12	29.49
716.304	29.95
716.488	30.02
716.671	30.14
716.855	30.23
717.039	30.17
717.223	30.75
717.407	30.76
717.59	30.57
717.774	30.43
717.958	30.62
718.142	30.38
718.325	30.12
718.509	30.27
718.693	30.27
718.877	30.08
719.06	30.1
719.244	30.18
719.428	30.61
719.611	30.9
719.795	30.87
719.978	30.92
720.162	31.09
720.345	31.17
720.529	31.15
720.713	31.02
720.896	30.8
721.08	31.04
721.263	30.74
721.446	30.75
721.63	30.63
721.813	31.01
721.997	30.82
722.18	30.71
722.364	31.02
722.547	30.9
722.73	30.94
722.914	31.35
723.097	30.74
723.28	30.77
723.464	30.09
723.647	30.19
723.83	29.92
724.013	30.23
724.197	30.13
724.38	29.72
724.563	29.7
724.746	29.94
724.929	30.05
725.112	30.31
725.296	30.3
725.479	30.67
725.662	30.45
725.845	30.49
726.028	30.05
726.211	30.05
726.394	30.15
726.577	30.39
726.76	30.14
726.943	29.67
727.126	29.44
727.309	29.4
727.492	29.17
727.675	29.23
727.858	29.32
728.041	29.15
728.224	29.39
728.407	29.45
728.589	29.48
728.772	29.65
728.955	30.12
729.138	30.42
729.321	30.52
729.503	30.45
729.686	30.41
729.869	30.24
730.052	30.37
730.234	30.34
730.417	30.55
730.6	30.61
730.782	30.61
730.965	30.42
731.148	30.15
731.33	30.26
731.513	30.33
731.695	30.59
731.878	30.4
732.061	30.74
732.243	30.58
732.426	30.91
732.608	30.38
732.791	30.26
732.973	30.4
733.156	30.77
733.338	30.39
733.52	30.24
733.703	30.24
733.885	30.44
734.068	30.56
734.25	31.01
734.432	30.38
734.615	30.93
734.797	31.05
734.979	30.91
735.162	30.92
735.344	31.33
735.526	31.94
735.708	32.05
735.891	32.15
736.073	32.34
736.255	32.04
736.437	32.16
736.619	32.01
736.802	31.96
736.984	31.87
737.166	32.15
737.348	32.18
737.53	32.57
737.712	32.7
737.894	32.6
738.076	32.13
738.258	32.39
738.44	32.02
738.622	32.04
738.804	31.93
738.986	32.28
739.168	32.16
739.35	32.17
739.532	31.9
739.714	31.83
739.896	32
740.078	32.69
740.259	32.76
740.441	33.51
740.623	33.34
740.805	33.59
740.987	33.48
741.168	33.47
741.35	33.09
741.532	32.98
741.714	33.02
741.895	32.63
742.077	32.85
742.259	32.35
742.44	32.04
742.622	32.2
742.804	32.05
742.985	32.37
743.167	31.87
743.348	32.07
743.53	31.57
743.711	31.66
743.893	31.72
744.075	31.01
744.256	31.23
744.438	31.47
744.619	31.43
744.8	31.73
744.982	31.27
745.163	31.6
745.345	31.72
745.526	31.92
745.707	31.78
745.889	31.92
746.07	32.25
746.252	32.52
746.433	32.61
746.614	32.84
746.795	32.74
746.977	33.08
747.158	33.1
747.339	33.32
747.52	33.7
747.702	33.57
747.883	33.91
748.064	34.29
748.245	34.67
748.426	34.52
748.607	34.16
748.788	34.31
748.97	34.01
749.151	33.64
749.332	33.74
749.513	33.65
749.694	33.44
749.875	33.71
750.056	32.72
750.237	32.35
750.418	32.35
750.599	33.1
750.78	33.22
750.96	33.09
751.141	33.91
751.322	33.57
751.503	32.65
751.684	33.05
751.865	32.88
752.046	33.02
752.226	32.25
752.407	32.5
752.588	31.63
752.769	31
752.949	31.36
753.13	31.2
753.311	31.52
753.492	32.17
753.672	32.05
753.853	31.96
754.034	31.89
754.214	32.13
754.395	32.42
754.575	33.15
754.756	33.6
754.937	33.07
755.117	33.21
755.298	33.32
755.478	33.85
755.659	33.79
755.839	33.78
756.02	33.92
756.2	34.01
756.381	33.7
756.561	33.45
756.741	33.45
756.922	33.64
757.102	33.9
757.283	33.41
757.463	32.61
757.643	32.81
757.823	32.22
758.004	32.04
758.184	32.66
758.364	32.35
758.545	32.06
758.725	32.39
758.905	33.27
759.085	32.57
759.265	32.65
759.446	33.36
759.626	33.84
759.806	34.01
759.986	34.35
760.166	33.92
760.346	33.89
760.526	34.26
760.706	34.05
760.886	32.57
761.066	32.47
761.246	32.84
761.426	32.39
761.606	31.84
761.786	31.53
761.966	31.18
762.146	31.23
762.326	30.65
762.506	30.75
762.686	30.65
762.866	31.52
763.046	31.42
763.225	31.52
763.405	31.37
763.585	31.32
763.765	31.61
763.945	31.62
764.124	31.05
764.304	31.35
764.484	30.96
764.664	30.72
764.843	30.34
765.023	30.23
765.203	29.77
765.382	29.9
765.562	29.84
765.741	29.85
765.921	30.01
766.101	30.25
766.28	30.74
766.46	31.14
766.639	31.92
766.819	31.87
766.998	32.58
767.178	33.19
767.357	33.47
767.537	33.5
767.716	33.9
767.896	33.52
768.075	34.48
768.254	34.08
768.434	34.32
768.613	33.92
768.792	33.6
768.972	33.96
769.151	33.43
769.33	33.6
769.51	34.02
769.689	33.45
769.868	33.97
770.047	33.37
770.226	33.49
770.406	33.17
770.585	33.52
770.764	34.79
770.943	34.83
771.122	34.41
771.301	34.19
771.48	33.67
771.66	34.02
771.839	34.45
772.018	34.41
772.197	34.02
772.376	33.89
772.555	33.67
772.734	33.51
772.913	32.43
773.092	33.76
773.271	33.98
773.449	34.46
773.628	34.17
773.807	33.8
773.986	34.28
774.165	34.91
774.344	34.82
774.523	34.63
774.701	34.09
774.88	34.44
775.059	33.39
775.238	33.33
775.417	33.12
775.595	33.21
775.774	34.01
775.953	34.02
776.131	34.52
776.31	34.7
776.489	34.89
776.667	35.35
776.846	35.81
777.025	36.66
777.203	36.84
777.382	36.86
777.56	36.77
777.739	35.54
777.917	35.1
778.096	34.18
778.274	34.64
778.453	35.48
778.631	35.82
778.81	35.6
778.988	35.74
779.166	35.15
779.345	34.7
779.523	35.06
779.702	35.54
779.88	36.25
780.058	36.52
780.237	35.68
780.415	34.13
780.593	33.89
780.771	33.78
780.95	33.5
781.128	34.08
781.306	35.23
781.484	35.04
781.662	34.27
781.841	33.9
782.019	33.42
782.197	34.79
782.375	35.75
782.553	34.6
782.731	35.03
782.909	35.23
783.087	35.02
783.265	34.79
783.443	34.98
783.621	35.96
783.799	35.83
783.977	36.27
784.155	35.02
784.333	34.91
784.511	36
784.689	35.57
784.867	35.23
785.045	34.88
785.223	35.01
785.4	35.92
785.578	35.53
785.756	35.73
785.934	35.63
786.112	37.17
786.289	37.37
786.467	37.69
786.645	37.6
786.823	37.19
787	37.52
787.178	36.85
787.356	36.6
787.533	36.58
787.711	36.93
787.889	37.88
788.066	37.23
788.244	36.79
788.421	35.85
788.599	36.97
788.776	36.5
788.954	36.58
789.131	36.48
789.309	35.59
789.486	36.08
789.664	35.31
789.841	35.02
790.019	34.38
790.196	34.44
790.373	35.17
790.551	33.97
790.728	34.66
790.906	34.51
791.083	34
791.26	34.89
791.437	34.82
791.615	35.21
791.792	34.35
791.969	34.78
792.146	35.63
792.324	36.32
792.501	36.8
792.678	36.62
792.855	36.17
793.032	37.32
793.209	37.55
793.387	36.76
793.564	36.69
793.741	37.73
793.918	38.55
794.095	37.88
794.272	37.62
794.449	37.2
794.626	36.78
794.803	36.98
794.98	36.82
795.157	36.6
795.334	36.77
795.511	36.86
795.688	36.7
795.864	35.89
796.041	34.41
796.218	33.74
796.395	33.83
796.572	33.77
796.749	32.99
796.925	33.24
797.102	32.4
797.279	32.34
797.456	32.11
797.632	31.85
797.809	31.97
797.986	32.66
798.162	32.65
798.339	33.37
798.516	34.34
798.692	36.08
798.869	36.23
799.046	36.94
799.222	36.99
799.399	37.24
799.575	36.8
799.752	36.57
799.928	36.96
800.105	37.85
800.281	37.62
800.458	37.13
800.634	36.15
800.811	36.37
800.987	35.97
801.163	37.22
801.34	37.96
801.516	38.73
801.692	39
801.869	39.76
802.045	39.11
802.221	39.36
802.398	39.24
802.574	39.7
802.75	38.79
802.926	39.06
803.103	38.78
803.279	37.23
803.455	36.36
803.631	35.75
803.807	35.49
803.983	35.47
804.16	34.9
804.336	34.16
804.512	35.54
804.688	35.87
804.864	36.19
805.04	35.58
805.216	36.96
805.392	37.82
805.568	38.29
805.744	37.74
805.92	38.56
806.096	38.43
806.272	40.06
806.448	40.02
806.623	40.54
806.799	40.89
806.975	41.28
807.151	41.34
807.327	40.53
807.503	40.38
807.678	40.45
807.854	40.76
808.03	41.2
808.206	40.48
808.381	39.21
808.557	39.11
808.733	38.43
808.908	37.95
809.084	37.5
809.26	37.62
809.435	37.74
809.611	37.42
809.787	36.16
809.962	35.25
810.138	35.93
810.313	35.34
810.489	34.57
810.664	34.4
810.84	34.3
811.015	34.69
811.191	35.67
811.366	36.45
811.542	36.61
811.717	36.98
811.892	36.77
812.068	36.05
812.243	38
812.419	39.16
812.594	39.66
812.769	40.83
812.944	40.19
813.12	39.68
813.295	39.08
813.47	40.63
813.645	40.77
813.821	41.33
813.996	42.59
814.171	41.27
814.346	40.1
814.521	40.04
814.697	38.87
814.872	39.26
815.047	39.58
815.222	39.41
815.397	39.27
815.572	39.44
815.747	41.14
815.922	40.08
816.097	40.4
816.272	40.87
816.447	39.85
816.622	39.81
816.797	39.23
816.972	38.1
817.147	36.9
817.322	36.15
817.496	35.11
817.671	34.07
817.846	33.71
818.021	32.61
818.196	32.77
818.371	33.84
818.545	33.29
818.72	33.46
818.895	34.67
819.069	35.76
819.244	36.09
819.419	35.71
819.594	34.62
819.768	34.57
819.943	34.29
820.117	34.01
820.292	32.94
820.467	32.66
820.641	31.73
820.816	31.06
820.99	30.09
821.165	28.87
821.339	28.66
821.514	28.44
821.688	27.68
821.863	27.57
822.037	27.35
822.212	27.28
822.386	26.96
822.56	27.05
822.735	27.18
822.909	27.19
823.084	27.23
823.258	27.15
823.432	27.32
823.606	27.75
823.781	27.6
823.955	27.4
824.129	27.63
824.303	28.09
824.478	28.1
824.652	27.86
824.826	27.98
825	28.06
825.174	28.17
825.348	27.92
825.523	28.12
825.697	28.53
825.871	28.86
826.045	28.56
826.219	28.43
826.393	28.65
826.567	28.49
826.741	28.48
826.915	28.59
827.089	28.65
827.263	28.56
827.437	28.43
827.611	28.56
827.784	28.2
827.958	28.45
828.132	28.28
828.306	28.56
828.48	29.17
828.654	29.51
828.827	29.85
829.001	30.18
829.175	30.76
829.349	30.5
829.522	31.22
829.696	32.7
829.87	33.15
830.044	33.9
830.217	34.37
830.391	34.32
830.565	35.65
830.738	36.58
830.912	37.22
831.085	37.48
831.259	38.74
831.432	38.48
831.606	38.28
831.779	38.04
831.953	37.3
832.126	36.59
832.3	35.81
832.473	33.86
832.647	33.22
832.82	32.43
832.994	31.98
833.167	31.16
833.34	30.08
833.514	29.68
833.687	29.49
833.86	29.87
834.034	29.62
834.207	29.6
834.38	30.02
834.553	30.4
834.727	31
834.9	31.44
835.073	32.02
835.246	32.38
835.419	32.65
835.593	33.02
835.766	33.72
835.939	34.38
836.112	34.69
836.285	35.84
836.458	36.32
836.631	36.11
836.804	35.71
836.977	35.94
837.15	37.28
837.323	38.73
837.496	39.17
837.669	39.37
837.842	39.42
838.015	39.52
838.188	38.26
838.361	38.26
838.533	39.12
838.706	39.77
838.879	40.1
839.052	39.31
839.225	37.97
839.398	38.28
839.57	37.32
839.743	37.12
839.916	37.43
840.088	38.15
840.261	38.26
840.434	37.79
840.607	38.95
840.779	38.29
840.952	38.91
841.124	39.34
841.297	39.74
841.47	40.68
841.642	40.62
841.815	42.19
841.987	42.45
842.16	41.22
842.332	42.61
842.505	41.79
842.677	43.36
842.85	44.36
843.022	44.76
843.194	46.02
843.367	47.42
843.539	49.42
843.712	49.86
843.884	51.66
844.056	51.87
844.229	49.16
844.401	50.16
844.573	51.06
844.745	52.37
844.918	53.62
845.09	53
845.262	52.15
845.434	49.92
845.606	49.96
845.779	47.62
845.951	50.61
846.123	54.5
846.295	54.39
846.467	52.55
846.639	52.11
846.811	53.76
846.983	55.52
847.155	58.63
847.327	60.04
847.499	60.02
847.671	61.32
847.843	61.12
848.015	62.48
848.187	64.93
848.359	65.11
848.531	63.37
848.703	61.14
848.875	59.12
849.047	55.27
849.218	56.98
849.39	56.59
849.562	57.23
849.734	56.71
849.905	56.55
850.077	58.52
850.249	59.86
850.421	61.01
850.592	62.28
850.764	63.46
850.936	66.77
851.107	64.86
851.279	66.15
851.451	65.33
851.622	66.24
851.794	65.71
851.965	62.8
852.137	62.83
852.308	61.89
852.48	63.71
852.651	64.41
852.823	60.71
852.994	62.68
853.166	61.49
853.337	62.77
853.509	62.83
853.68	61.31
853.851	64.81
854.023	64.73
854.194	65.26
854.365	62.44
854.537	61.49
854.708	64.74
854.879	63.74
855.05	67.45
855.222	66.82
855.393	64.51
855.564	69.9
855.735	64.1
855.906	67.58
856.078	67.14
856.249	71.76
856.42	72.91
856.591	71.51
856.762	72.06
856.933	70.17
857.104	71.19
857.275	72.77
857.446	68.08
857.617	69.34
857.788	62.51
857.959	64.57
858.13	60.1
858.301	61.42
858.472	62.98
858.643	67.71
858.814	66.33
858.985	64.2
859.155	64.71
859.326	64.55
859.497	64.82
859.668	70.77
859.839	74.84
860.009	74.5
860.18	69.62
860.351	67.86
860.522	62.18
860.692	65.79
860.863	64.77
861.034	65.51
861.204	69.6
861.375	71.46
861.546	64.86
861.716	59.15
861.887	61.12
862.057	61.57
862.228	64.33
862.398	62.72
862.569	58.7
862.739	61.23
862.91	63.17
863.08	63.91
863.251	62.78
863.421	64.83
863.592	66.73
863.762	67.29
863.932	69.85
864.103	66.25
864.273	68.7
864.443	70.61
864.614	67.87
864.784	64.87
864.954	58.53
865.125	55.52
865.295	55.09
865.465	56.35
865.635	55.76
865.805	57.17
865.976	63.03
866.146	61.34
866.316	61.35
866.486	66.5
866.656	64.06
866.826	68.07
866.996	74.25
867.166	74.46
867.336	73.81
867.506	75.07
867.676	78.44
867.846	74.99
868.016	76.42
868.186	77.21
868.356	73.24
868.526	78.03
868.696	77.1
868.866	75.56
869.036	79.22
869.206	78.7
869.376	78.59
869.545	70.76
869.715	73.01
869.885	72.16
870.055	67.87
870.224	70.22
870.394	70.88
870.564	72.68
870.734	72.37
870.903	70.94
871.073	69.76
871.243	69.02
871.412	71.23
871.582	69.12
871.751	69
871.921	72.08
872.091	72.53
872.26	67.61
872.43	65.09
872.599	63.68
872.769	61.55
872.938	61.97
873.108	62.79
873.277	59.75
873.446	62.32
873.616	65.95
873.785	64.8
873.955	63.24
874.124	67.15
874.293	67.84
874.463	66.98
874.632	68.58
874.801	67.65
874.971	67.03
875.14	69.83
875.309	70.69
875.478	64.94
875.647	64.47
875.817	64.33
875.986	64.81
876.155	66.21
876.324	68.49
876.493	68.22
876.662	67.57
876.831	64.26
877	66.15
877.17	62.49
877.339	64.81
877.508	65.71
877.677	65.06
877.846	64.05
878.015	64.97
878.184	63.64
878.352	59.86
878.521	61.06
878.69	61.13
878.859	58.77
879.028	57.34
879.197	57.86
879.366	58.12
879.534	55.05
879.703	50.95
879.872	46.94
880.041	43.63
880.21	45
880.378	43.06
880.547	41.82
880.716	38.2
880.884	37.09
881.053	34.87
881.222	31.36
881.39	30.85
881.559	29.5
881.727	28.92
881.896	28.76
882.065	28.06
882.233	27.68
882.402	27.16
882.57	27.81
882.739	27.64
882.907	27.31
883.076	28.34
883.244	28.2
883.412	29.21
883.581	29.28
883.749	30
883.918	29.55
884.086	29.24
884.254	30.29
884.423	30.54
884.591	31.22
884.759	32.11
884.927	32.31
885.096	34.07
885.264	35.75
885.432	38.61
885.6	40.36
885.769	43.39
885.937	46.51
886.105	49.3
886.273	52.19
886.441	52.25
886.609	53.9
886.777	57.3
886.945	57.51
887.113	58.42
887.281	61.15
887.449	59.87
887.617	59.55
887.785	61.58
887.953	60.02
888.121	60.93
888.289	62.46
888.457	65.31
888.625	63.19
888.793	65.95
888.961	63.36
889.129	63.4
889.296	64.36
889.464	67.06
889.632	66.21
889.8	68.34
889.967	66.24
890.135	68.73
