Data from 2938759__Reflection_12.txt Node
Date: Fri Mar 13 18:49:32 EDT 2015
User: robert
Spectrometer: USB4E03002
Autoset integration time: false
Trigger mode: 4
Integration Time (sec): 1.000000E-1
Scans to average: 10
Electric dark correction enabled: false
Nonlinearity correction enabled: false
Boxcar width: 5
Stray light correction enabled: false
XAxis mode: Wavelengths
Stop averaging: false
Number of Pixels in Spectrum: 3648
>>>>>Begin Spectral Data<<<<<
177.575	-257.95
177.794	-1514.29
178.014	-81.03
178.233	-290.54
178.452	28900
178.672	193.64
178.891	181.72
179.11	197.75
179.33	182.11
179.549	92.77
179.768	135.74
179.987	63.98
180.207	336.36
180.426	196.93
180.645	391.67
180.864	-82.86
181.084	-24.57
181.303	-38.28
181.522	-35.2
181.741	-1.26
181.96	-12.1
182.179	26.08
182.398	21.76
182.618	6.87
182.837	-16.71
183.056	-47.46
183.275	-24.46
183.494	-0.32
183.713	-3.17
183.932	-55
184.151	10900
184.37	100
184.589	114.03
184.808	114.97
185.027	58.79
185.246	35.9
185.465	-7.66
185.684	30.55
185.903	53.99
186.122	241.44
186.341	117.83
186.56	-107.69
186.779	71.31
186.998	85.44
187.216	71.86
187.435	44.62
187.654	26.82
187.873	16.94
188.092	23.84
188.311	32.03
188.53	66.55
188.748	66.73
188.967	79.59
189.186	112.74
189.405	67.32
189.623	-3.04
189.842	-55.49
190.061	-98.95
190.28	-4.34
190.498	14.25
190.717	15.14
190.936	47.49
191.154	94.78
191.373	132.12
191.592	226.34
191.81	-2625
192.029	-1332.5
192.248	-315.92
192.466	-176.64
192.685	-152.66
192.904	-368.64
193.122	-1417.02
193.341	-1744.74
193.559	-1892.31
193.778	5818.18
193.996	359.21
194.215	277.47
194.433	516.82
194.652	725
194.87	10950
195.089	373.17
195.307	-651.61
195.526	-16.32
195.744	-8.72
195.963	-7.69
196.181	42.9
196.399	27.69
196.618	22.51
196.836	42.79
197.055	20.63
197.273	-90.58
197.491	-8.19
197.71	7.01
197.928	-60.76
198.146	-54.49
198.365	-17.17
198.583	-128.12
198.801	-46.94
199.019	-11.68
199.238	-38.56
199.456	-23.19
199.674	29.6
199.892	-18.83
200.111	-52.61
200.329	12.91
200.547	-45.18
200.765	18.11
200.983	35.42
201.202	13.08
201.42	-20.46
201.638	-41.81
201.856	20.07
202.074	20.71
202.292	18.56
202.51	26.99
202.728	-46.64
202.946	-35.8
203.165	-104.91
203.383	-487.63
203.601	-628.26
203.819	-72.89
204.037	-84.64
204.255	-127.07
204.473	-199.32
204.691	-198.2
204.909	-148.08
205.127	-126.67
205.345	-45
205.562	-38.81
205.78	-46.14
205.998	-37.59
206.216	-49.62
206.434	-12.98
206.652	-9.17
206.87	-8.57
207.088	-0.46
207.306	7.31
207.523	-0.45
207.741	-21.43
207.959	6.3
208.177	6.72
208.395	45.36
208.612	7.89
208.83	-12.23
209.048	9
209.266	25.98
209.483	34.32
209.701	44.09
209.919	73.66
210.136	87.04
210.354	70.64
210.572	72.84
210.79	64.06
211.007	96.93
211.225	117.88
211.442	113.97
211.66	117.15
211.878	117.31
212.095	109.29
212.313	121.08
212.53	122.69
212.748	148.64
212.966	149.16
213.183	124.13
213.401	84.85
213.618	111.94
213.836	179.83
214.053	179.8
214.271	123.55
214.488	137.57
214.705	63.74
214.923	67.42
215.14	46.38
215.358	32.59
215.575	54.77
215.793	58.59
216.01	50.05
216.227	46.29
216.445	59.15
216.662	60.68
216.879	54.11
217.097	77.04
217.314	54.28
217.531	48.7
217.749	61.35
217.966	53.21
218.183	49.11
218.4	32.77
218.618	34.85
218.835	26.23
219.052	28.6
219.269	15.2
219.487	10.83
219.704	24.2
219.921	39.06
220.138	36.35
220.355	31.89
220.572	29.63
220.79	27.15
221.007	25.23
221.224	11.6
221.441	13.33
221.658	17.08
221.875	9.9
222.092	19.28
222.309	13.61
222.526	8.12
222.743	5.97
222.96	4.78
223.177	4.63
223.394	3.2
223.611	7.4
223.828	8.27
224.045	7.24
224.262	6.08
224.479	1.18
224.696	5.24
224.913	5.73
225.13	8.91
225.347	9.9
225.564	15.24
225.781	14.04
225.997	14.65
226.214	14.52
226.431	10.27
226.648	14.64
226.865	10.46
227.082	6.79
227.298	4.79
227.515	4.08
227.732	3.04
227.949	1.87
228.165	1.89
228.382	2.64
228.599	2.37
228.816	2.31
229.032	2.05
229.249	2.16
229.466	3.02
229.682	4.16
229.899	4.11
230.116	3.64
230.332	3.34
230.549	3.22
230.765	1.71
230.982	0.95
231.199	1.46
231.415	0.46
231.632	0.97
231.848	0.79
232.065	-0.68
232.281	0.01
232.498	0.82
232.714	2.61
232.931	2.59
233.147	4.78
233.364	6.46
233.58	6.01
233.797	4.15
234.013	3.86
234.23	2.04
234.446	2.77
234.662	1.25
234.879	1.44
235.095	2.3
235.312	2.46
235.528	1.14
235.744	-0.05
235.961	0.28
236.177	2.99
236.393	3.72
236.61	4.34
236.826	5.34
237.042	6.91
237.258	7.4
237.475	6.16
237.691	5.37
237.907	5.47
238.123	6.2
238.339	5.91
238.556	4.42
238.772	2.96
238.988	3.29
239.204	3.06
239.42	2.87
239.636	2.96
239.853	2.92
240.069	4.26
240.285	4.76
240.501	4.49
240.717	4.1
240.933	4.49
241.149	4.85
241.365	4.17
241.581	4.39
241.797	4.51
242.013	4.04
242.229	4.37
242.445	3.97
242.661	3.62
242.877	3.16
243.093	3.46
243.309	3.07
243.525	2.74
243.741	3.13
243.957	2.38
244.173	2.47
244.388	3.66
244.604	2.54
244.82	2.91
245.036	3.1
245.252	3.45
245.468	3.28
245.683	3.97
245.899	4.48
246.115	4.46
246.331	4.39
246.547	4.21
246.762	3.95
246.978	4.17
247.194	3.89
247.409	4.13
247.625	4.02
247.841	4.02
248.057	3.89
248.272	3.9
248.488	3.82
248.703	4.14
248.919	3.77
249.135	3.76
249.35	3.88
249.566	4
249.782	4.22
249.997	4.87
250.213	5.57
250.428	5.48
250.644	4.74
250.859	4.92
251.075	4.28
251.29	4.77
251.506	4.33
251.721	3.85
251.937	4.32
252.152	3.48
252.368	3.34
252.583	3.07
252.798	2.91
253.014	2.94
253.229	2.25
253.445	2.71
253.66	2.43
253.875	1.72
254.091	2.55
254.306	2.23
254.521	2.41
254.737	2.19
254.952	1.45
255.167	2.37
255.383	1.9
255.598	2.6
255.813	2.3
256.028	1.91
256.244	2.54
256.459	1.95
256.674	1.81
256.889	2.12
257.104	2.25
257.32	3.01
257.535	1.72
257.75	1.74
257.965	1.59
258.18	1.35
258.395	1.48
258.61	1.45
258.826	1.37
259.041	1.19
259.256	1.33
259.471	1.33
259.686	1.09
259.901	1.41
260.116	1.73
260.331	1.77
260.546	2.15
260.761	2.17
260.976	2.28
261.191	2.6
261.406	2.72
261.621	2.8
261.836	2.7
262.05	2.75
262.265	2.47
262.48	2.59
262.695	2.79
262.91	2.12
263.125	2.27
263.34	2.11
263.555	1.58
263.769	1.47
263.984	0.97
264.199	1.83
264.414	2.01
264.629	2.28
264.843	1.69
265.058	2.28
265.273	2.35
265.488	2.13
265.702	1.77
265.917	2.12
266.132	2.52
266.346	2.19
266.561	1.72
266.776	1.75
266.99	2.04
267.205	2.07
267.42	1.26
267.634	1.57
267.849	1.59
268.063	1.91
268.278	1.94
268.492	1.42
268.707	2.43
268.922	2.49
269.136	2.67
269.351	2.61
269.565	2.5
269.78	2.85
269.994	2.8
270.209	2.82
270.423	2.83
270.637	2.64
270.852	2.88
271.066	2.19
271.281	2.05
271.495	1.9
271.709	1.79
271.924	1.84
272.138	1.8
272.353	1.84
272.567	1.92
272.781	1.75
272.996	1.57
273.21	1.76
273.424	1.94
273.638	1.8
273.853	1.93
274.067	1.65
274.281	1.6
274.495	1.85
274.71	1.57
274.924	1.83
275.138	2.46
275.352	2.57
275.566	2.55
275.781	2.62
275.995	2.89
276.209	3.1
276.423	3.6
276.637	3.58
276.851	3.64
277.065	3.67
277.279	3.07
277.493	2.86
277.707	2.36
277.921	2.26
278.135	2.24
278.349	2.38
278.563	2.44
278.777	2.42
278.991	2.35
279.205	2.13
279.419	1.84
279.633	2.22
279.847	2.06
280.061	2.39
280.275	2.52
280.489	2.52
280.703	2.25
280.917	1.91
281.131	1.9
281.344	1.98
281.558	1.99
281.772	2.43
281.986	2.39
282.2	2.29
282.414	2.46
282.627	2.38
282.841	2.1
283.055	2.19
283.269	2.33
283.482	2.35
283.696	2.33
283.91	1.79
284.123	1.54
284.337	1.43
284.551	1.48
284.764	1.71
284.978	1.98
285.192	2.01
285.405	1.96
285.619	2.02
285.833	2.22
286.046	2.31
286.26	2.55
286.473	2.86
286.687	2.97
286.9	3.06
287.114	3.16
287.327	2.92
287.541	3.33
287.754	3.51
287.968	3.25
288.181	2.9
288.395	2.76
288.608	2.69
288.822	2.64
289.035	2.64
289.248	2.63
289.462	2.22
289.675	1.78
289.889	1.6
290.102	1.39
290.315	1.22
290.529	1.2
290.742	1.49
290.955	2.02
291.169	2.25
291.382	2.29
291.595	2.43
291.808	2.57
292.022	2.89
292.235	2.94
292.448	3.02
292.661	3.46
292.875	3.58
293.088	3.34
293.301	2.91
293.514	2.42
293.727	2.4
293.94	2.2
294.153	2.11
294.367	2.09
294.58	2.07
294.793	2.08
295.006	2.14
295.219	1.96
295.432	2.11
295.645	2.18
295.858	2.27
296.071	2.1
296.284	2.49
296.497	2.52
296.71	2.79
296.923	2.88
297.136	3.05
297.349	2.99
297.562	3.07
297.775	3.15
297.988	3.6
298.201	3.97
298.414	4.07
298.626	3.94
298.839	4.02
299.052	4.04
299.265	3.98
299.478	4
299.691	4.03
299.903	3.97
300.116	3.89
300.329	3.34
300.542	3.05
300.755	3.22
300.967	3.29
301.18	3.19
301.393	2.86
301.605	2.4
301.818	2.33
302.031	2.28
302.243	2.36
302.456	2.54
302.669	2.38
302.881	2.22
303.094	2.37
303.307	2.29
303.519	2.57
303.732	2.94
303.944	3.39
304.157	3.4
304.37	3.37
304.582	3.5
304.795	3.3
305.007	3.73
305.22	3.66
305.432	3.53
305.645	3.05
305.857	3.28
306.069	3.31
306.282	3.04
306.494	3.05
306.707	3.29
306.919	3.47
307.132	3.54
307.344	3.31
307.556	3.51
307.769	3.69
307.981	3.89
308.193	3.91
308.406	3.94
308.618	4.36
308.83	4.26
309.043	4.26
309.255	4.13
309.467	4.27
309.679	4.38
309.892	4.55
310.104	4.26
310.316	4.4
310.528	4.4
310.74	4.28
310.953	4.16
311.165	4.32
311.377	4.46
311.589	4.73
311.801	4.71
312.013	4.64
312.225	4.48
312.437	4.76
312.649	4.81
312.862	4.71
313.074	4.86
313.286	5.01
313.498	5.26
313.71	5.18
313.922	4.93
314.134	5.3
314.346	5.84
314.558	6.32
314.77	6.68
314.982	6.87
315.193	6.71
315.405	6.49
315.617	6.81
315.829	6.34
316.041	6.92
316.253	7.14
316.465	6.84
316.677	6.64
316.888	5.94
317.1	5.69
317.312	5.93
317.524	5.86
317.736	5.91
317.947	5.46
318.159	5.68
318.371	4.99
318.583	4.89
318.794	5.06
319.006	5.5
319.218	6
319.43	6.33
319.641	6.47
319.853	6.73
320.064	7.34
320.276	7.58
320.488	8.09
320.699	8.18
320.911	8.16
321.123	8.59
321.334	8.49
321.546	8.37
321.757	7.97
321.969	7.55
322.18	7.87
322.392	7.53
322.603	7.71
322.815	7.58
323.026	7.98
323.238	8.73
323.449	8.5
323.661	8.12
323.872	8.57
324.083	9
324.295	9.46
324.506	9.66
324.718	9.99
324.929	10.31
325.14	10.78
325.352	10.87
325.563	10.7
325.774	10.94
325.986	11.45
326.197	11.77
326.408	12.1
326.62	12.33
326.831	12.74
327.042	13
327.253	13.19
327.464	13.26
327.676	13.63
327.887	14.18
328.098	14.57
328.309	15.02
328.52	15.27
328.732	15.54
328.943	15.42
329.154	15.62
329.365	15.7
329.576	15.95
329.787	16.08
329.998	16.4
330.209	16.26
330.42	16.58
330.631	16.38
330.842	16.87
331.053	17
331.264	17.47
331.475	17.53
331.686	17.96
331.897	18.07
332.108	18.31
332.319	18.53
332.53	19.03
332.741	18.71
332.952	19
333.163	18.59
333.374	18.85
333.585	19.22
333.795	19.53
334.006	19.18
334.217	19.11
334.428	19.18
334.639	19.34
334.849	19.57
335.06	19.8
335.271	19.69
335.482	19.68
335.692	19.82
335.903	19.56
336.114	19.62
336.325	20
336.535	20.26
336.746	20.55
336.957	20.44
337.167	20.27
337.378	20.41
337.589	20.64
337.799	20.53
338.01	20.4
338.22	20.57
338.431	20.24
338.642	20.38
338.852	20.63
339.063	20.39
339.273	20.69
339.484	20.7
339.694	20.51
339.905	20.39
340.115	20.76
340.326	20.95
340.536	20.99
340.746	20.89
340.957	21.13
341.167	20.94
341.378	21.08
341.588	20.89
341.799	20.66
342.009	20.86
342.219	21.08
342.43	21.12
342.64	20.82
342.85	20.73
343.061	21.13
343.271	20.6
343.481	20.41
343.691	20.36
343.902	20.3
344.112	20.47
344.322	20.58
344.532	20.42
344.743	20.24
344.953	20.36
345.163	20.51
345.373	20.42
345.583	20.68
345.793	20.66
346.004	20.54
346.214	20.33
346.424	20.57
346.634	20.47
346.844	20.79
347.054	20.98
347.264	20.97
347.474	21.08
347.684	20.85
347.894	20.92
348.104	21.14
348.314	21.15
348.524	21.16
348.734	20.72
348.944	20.7
349.154	20.61
349.364	20.42
349.574	20.36
349.784	20.23
349.994	20.16
350.204	20.04
350.413	19.9
350.623	19.71
350.833	19.52
351.043	19.82
351.253	20.06
351.463	20.12
351.672	20.19
351.882	19.99
352.092	19.92
352.302	20.07
352.511	20.1
352.721	20.22
352.931	20.41
353.141	20.82
353.35	20.5
353.56	20.28
353.77	19.94
353.979	19.85
354.189	19.64
354.399	19.42
354.608	19.14
354.818	18.8
355.027	18.63
355.237	18.59
355.447	18.51
355.656	18.49
355.866	18.5
356.075	18.53
356.285	18.57
356.494	18.7
356.704	18.96
356.913	19.22
357.123	19.29
357.332	19.38
357.542	19.35
357.751	19.1
357.96	19.32
358.17	19.5
358.379	19.45
358.589	19.35
358.798	19.52
359.007	19.37
359.217	19.03
359.426	19.12
359.635	19
359.845	19.09
360.054	19.02
360.263	18.82
360.472	18.36
360.682	18.26
360.891	18.18
361.1	18.2
361.309	17.96
361.519	17.85
361.728	17.87
361.937	17.84
362.146	17.74
362.355	17.85
362.564	17.83
362.774	17.93
362.983	17.82
363.192	17.67
363.401	17.47
363.61	17.74
363.819	17.91
364.028	17.97
364.237	18.1
364.446	17.84
364.655	18
364.864	17.92
365.073	18.01
365.282	18.23
365.491	18.52
365.7	18.58
365.909	18.43
366.118	18.45
366.327	18.21
366.536	18.03
366.745	18.28
366.954	18.04
367.162	17.91
367.371	17.68
367.58	17.48
367.789	17.44
367.998	17.21
368.207	17.2
368.415	17.27
368.624	17.29
368.833	17.31
369.042	17.24
369.25	17.19
369.459	17.15
369.668	17.27
369.877	17.55
370.085	17.39
370.294	17.68
370.503	17.84
370.711	17.79
370.92	17.9
371.129	17.74
371.337	17.82
371.546	18.02
371.754	18.02
371.963	18.11
372.171	17.96
372.38	18.33
372.589	18.14
372.797	18.02
373.006	18.16
373.214	18.2
373.423	18.56
373.631	18.81
373.84	18.67
374.048	18.62
374.256	18.66
374.465	18.86
374.673	18.66
374.882	18.79
375.09	18.76
375.298	18.74
375.507	18.71
375.715	18.48
375.923	18.21
376.132	18.03
376.34	18.22
376.548	18.03
376.757	17.79
376.965	17.72
377.173	17.6
377.381	17.47
377.59	17.28
377.798	17.11
378.006	17.31
378.214	17.33
378.423	17.39
378.631	17.58
378.839	17.6
379.047	17.62
379.255	17.45
379.463	17.62
379.671	17.64
379.879	17.96
380.088	17.98
380.296	17.73
380.504	17.45
380.712	17.51
380.92	17.22
381.128	17.15
381.336	16.94
381.544	17.17
381.752	16.93
381.96	16.97
382.168	16.76
382.376	16.74
382.584	16.77
382.791	17.02
382.999	17.06
383.207	17.28
383.415	17.25
383.623	17.51
383.831	17.5
384.039	17.67
384.247	17.63
384.454	17.6
384.662	17.61
384.87	17.61
385.078	17.5
385.285	17.38
385.493	17.28
385.701	17.18
385.909	16.87
386.116	16.81
386.324	16.94
386.532	17.07
386.739	17.01
386.947	16.82
387.155	16.77
387.362	16.95
387.57	17
387.778	17.01
387.985	17.21
388.193	17.32
388.4	17.14
388.608	16.91
388.816	16.83
389.023	16.95
389.231	16.94
389.438	16.93
389.646	16.99
389.853	16.8
390.061	16.75
390.268	16.94
390.475	17.15
390.683	17.45
390.89	17.33
391.098	17.2
391.305	17.12
391.512	17.3
391.72	17.39
391.927	17.37
392.135	17.47
392.342	17.42
392.549	17.24
392.756	17.31
392.964	17.2
393.171	17.38
393.378	17.49
393.586	17.5
393.793	17.61
394	17.7
394.207	17.53
394.414	17.52
394.622	17.58
394.829	17.62
395.036	17.49
395.243	17.54
395.45	17.55
395.657	17.46
395.864	17.41
396.072	17.37
396.279	17.22
396.486	17.34
396.693	17.41
396.9	17.39
397.107	17.31
397.314	17.23
397.521	17.17
397.728	17.03
397.935	17.17
398.142	17.22
398.349	17.22
398.556	17.36
398.763	17.36
398.97	17.46
399.177	17.51
399.383	17.73
399.59	17.83
399.797	17.92
400.004	17.93
400.211	17.83
400.418	17.93
400.625	17.92
400.831	17.9
401.038	17.8
401.245	17.71
401.452	17.71
401.658	17.56
401.865	17.51
402.072	17.18
402.279	17.06
402.485	17.09
402.692	16.91
402.899	16.95
403.105	17.06
403.312	17.24
403.519	17.26
403.725	17.19
403.932	17.21
404.138	17.16
404.345	17.37
404.552	17.42
404.758	17.51
404.965	17.73
405.171	17.58
405.378	17.46
405.584	17.32
405.791	17.32
405.997	17.39
406.204	17.35
406.41	17.52
406.617	17.62
406.823	17.72
407.029	17.71
407.236	17.59
407.442	17.73
407.649	17.76
407.855	17.92
408.061	17.94
408.268	17.82
408.474	17.94
408.68	17.95
408.887	17.81
409.093	17.83
409.299	17.78
409.505	17.73
409.712	17.71
409.918	17.67
410.124	17.44
410.33	17.54
410.537	17.63
410.743	17.62
410.949	17.41
411.155	17.55
411.361	17.59
411.567	17.6
411.773	17.64
411.98	17.75
412.186	17.82
412.392	17.95
412.598	17.99
412.804	17.92
413.01	17.89
413.216	17.93
413.422	18.06
413.628	17.97
413.834	18.02
414.04	18.1
414.246	17.94
414.452	17.85
414.658	17.89
414.864	17.88
415.07	18.03
415.275	18.06
415.481	18.23
415.687	17.99
415.893	18.02
416.099	17.91
416.305	17.84
416.511	18.01
416.716	18.08
416.922	18.1
417.128	18.07
417.334	18.09
417.539	18.08
417.745	17.86
417.951	17.9
418.157	17.95
418.362	18.08
418.568	18.16
418.774	18.12
418.979	18.04
419.185	18.15
419.391	18.18
419.596	18.09
419.802	18.06
420.008	18.18
420.213	18.25
420.419	18.23
420.624	18.23
420.83	18.21
421.035	18.21
421.241	18.26
421.446	18.21
421.652	18.2
421.857	18.25
422.063	18.24
422.268	18.3
422.474	18.27
422.679	18.34
422.885	18.33
423.09	18.4
423.295	18.41
423.501	18.45
423.706	18.37
423.911	18.34
424.117	18.32
424.322	18.41
424.527	18.39
424.733	18.5
424.938	18.45
425.143	18.44
425.349	18.43
425.554	18.47
425.759	18.4
425.964	18.5
426.169	18.61
426.375	18.67
426.58	18.63
426.785	18.65
426.99	18.51
427.195	18.57
427.4	18.59
427.605	18.52
427.811	18.48
428.016	18.57
428.221	18.54
428.426	18.52
428.631	18.61
428.836	18.67
429.041	18.7
429.246	18.8
429.451	18.88
429.656	18.86
429.861	18.97
430.066	18.98
430.271	19.07
430.476	19.16
430.681	19.16
430.886	19.12
431.09	19.15
431.295	19.12
431.5	19.17
431.705	19.09
431.91	19.22
432.115	19.23
432.32	19.32
432.524	19.24
432.729	19.24
432.934	19.21
433.139	19.3
433.343	19.3
433.548	19.41
433.753	19.44
433.958	19.49
434.162	19.4
434.367	19.39
434.572	19.32
434.776	19.34
434.981	19.32
435.186	19.39
435.39	19.38
435.595	19.3
435.799	19.22
436.004	19.2
436.209	19.23
436.413	19.39
436.618	19.39
436.822	19.48
437.027	19.55
437.231	19.61
437.436	19.63
437.64	19.66
437.845	19.71
438.049	19.74
438.253	19.77
438.458	19.74
438.662	19.83
438.867	19.8
439.071	19.8
439.275	19.79
439.48	19.77
439.684	19.77
439.888	19.82
440.093	19.86
440.297	19.82
440.501	19.85
440.706	19.92
440.91	19.9
441.114	19.95
441.318	19.95
441.523	19.92
441.727	19.92
441.931	19.94
442.135	19.83
442.339	19.8
442.543	19.87
442.748	19.85
442.952	19.83
443.156	19.71
443.36	19.74
443.564	19.73
443.768	19.71
443.972	19.75
444.176	19.72
444.38	19.78
444.584	19.85
444.788	19.81
444.992	19.84
445.196	19.86
445.4	19.96
445.604	19.91
445.808	19.83
446.012	19.87
446.216	19.83
446.42	19.91
446.624	19.88
446.828	19.81
447.032	19.87
447.235	19.81
447.439	19.76
447.643	19.64
447.847	19.62
448.051	19.64
448.254	19.66
448.458	19.6
448.662	19.49
448.866	19.51
449.069	19.62
449.273	19.56
449.477	19.63
449.681	19.59
449.884	19.65
450.088	19.68
450.292	19.79
450.495	19.83
450.699	19.96
450.902	19.93
451.106	19.92
451.31	19.84
451.513	19.84
451.717	19.82
451.92	19.79
452.124	19.8
452.327	19.83
452.531	19.77
452.734	19.66
452.938	19.65
453.141	19.75
453.345	19.72
453.548	19.68
453.752	19.72
453.955	19.65
454.158	19.75
454.362	19.71
454.565	19.75
454.769	19.83
454.972	19.98
455.175	19.95
455.379	19.91
455.582	19.97
455.785	20.01
455.988	20.03
456.192	20.07
456.395	20.08
456.598	20.03
456.801	20.04
457.005	20.01
457.208	19.95
457.411	19.98
457.614	20.02
457.817	19.88
458.021	19.94
458.224	19.98
458.427	19.99
458.63	20
458.833	20.06
459.036	20.04
459.239	20.05
459.442	20.08
459.645	20.08
459.848	20.06
460.051	20.14
460.254	20.14
460.457	20.08
460.66	20.01
460.863	20.02
461.066	20
461.269	20.05
461.472	20.01
461.675	19.94
461.878	19.91
462.081	19.95
462.284	19.9
462.486	19.83
462.689	19.89
462.892	20.04
463.095	19.95
463.298	19.94
463.5	19.87
463.703	19.82
463.906	19.84
464.109	19.77
464.311	19.72
464.514	19.81
464.717	19.83
464.92	19.77
465.122	19.8
465.325	19.75
465.528	19.78
465.73	19.81
465.933	19.81
466.135	19.86
466.338	19.94
466.541	20.08
466.743	20.13
466.946	20.12
467.148	20.11
467.351	19.99
467.553	20.12
467.756	20.16
467.958	20.11
468.161	20.24
468.363	20.2
468.566	20.23
468.768	20.07
468.971	20.03
469.173	20.02
469.375	20.12
469.578	20.19
469.78	20.13
469.983	20.1
470.185	20.08
470.387	19.89
470.59	19.89
470.792	19.95
470.994	20.08
471.196	20.08
471.399	20.06
471.601	19.98
471.803	19.93
472.005	19.94
472.208	20.01
472.41	20.07
472.612	20.24
472.814	20.3
473.016	20.3
473.218	20.19
473.421	20.12
473.623	20.18
473.825	20.26
474.027	20.28
474.229	20.37
474.431	20.33
474.633	20.39
474.835	20.24
475.037	20.25
475.239	20.17
475.441	20.22
475.643	20.31
475.845	20.33
476.047	20.28
476.249	20.27
476.451	20.28
476.653	20.29
476.855	20.18
477.057	20.26
477.258	20.24
477.46	20.17
477.662	20.11
477.864	20.14
478.066	20.07
478.268	20.1
478.469	20.14
478.671	20.13
478.873	20.12
479.075	20.17
479.276	20.17
479.478	20.11
479.68	20.13
479.882	20.22
480.083	20.28
480.285	20.32
480.487	20.34
480.688	20.31
480.89	20.29
481.091	20.26
481.293	20.27
481.495	20.32
481.696	20.38
481.898	20.42
482.099	20.38
482.301	20.31
482.502	20.27
482.704	20.27
482.905	20.26
483.107	20.25
483.308	20.25
483.51	20.21
483.711	20.17
483.913	20.12
484.114	20.09
484.315	20.06
484.517	20.02
484.718	20.03
484.92	20.03
485.121	20.01
485.322	19.99
485.524	19.96
485.725	19.97
485.926	19.98
486.127	20.01
486.329	20
486.53	20.02
486.731	20.07
486.932	20.04
487.134	20.04
487.335	20.09
487.536	20.09
487.737	20.11
487.938	20.11
488.139	20.1
488.341	20.09
488.542	20.12
488.743	20.14
488.944	20.1
489.145	20.13
489.346	20.15
489.547	20.06
489.748	20.07
489.949	20.09
490.15	20.17
490.351	20.21
490.552	20.27
490.753	20.32
490.954	20.28
491.155	20.33
491.356	20.36
491.557	20.34
491.758	20.41
491.959	20.44
492.159	20.44
492.36	20.36
492.561	20.34
492.762	20.28
492.963	20.26
493.164	20.26
493.364	20.3
493.565	20.28
493.766	20.24
493.967	20.25
494.167	20.24
494.368	20.25
494.569	20.3
494.769	20.36
494.97	20.42
495.171	20.43
495.371	20.51
495.572	20.52
495.773	20.53
495.973	20.56
496.174	20.51
496.375	20.54
496.575	20.6
496.776	20.59
496.976	20.6
497.177	20.64
497.377	20.62
497.578	20.67
497.778	20.67
497.979	20.71
498.179	20.71
498.38	20.75
498.58	20.75
498.78	20.69
498.981	20.71
499.181	20.62
499.382	20.58
499.582	20.64
499.782	20.55
499.983	20.45
500.183	20.41
500.383	20.44
500.584	20.47
500.784	20.37
500.984	20.36
501.184	20.49
501.385	20.62
501.585	20.7
501.785	20.6
501.985	20.7
502.185	20.74
502.386	20.8
502.586	20.78
502.786	20.84
502.986	20.88
503.186	20.91
503.386	20.84
503.586	20.76
503.786	20.67
503.987	20.74
504.187	20.65
504.387	20.75
504.587	20.74
504.787	20.8
504.987	20.86
505.187	20.9
505.387	20.92
505.587	21.04
505.786	21.09
505.986	21.13
506.186	21.24
506.386	21.31
506.586	21.37
506.786	21.4
506.986	21.4
507.186	21.36
507.386	21.42
507.585	21.48
507.785	21.36
507.985	21.4
508.185	21.44
508.384	21.4
508.584	21.42
508.784	21.37
508.984	21.33
509.183	21.36
509.383	21.36
509.583	21.39
509.782	21.36
509.982	21.38
510.182	21.43
510.381	21.42
510.581	21.39
510.781	21.36
510.98	21.4
511.18	21.39
511.379	21.34
511.579	21.41
511.778	21.35
511.978	21.44
512.177	21.44
512.377	21.36
512.576	21.4
512.776	21.47
512.975	21.52
513.175	21.58
513.374	21.62
513.573	21.65
513.773	21.62
513.972	21.6
514.172	21.57
514.371	21.67
514.57	21.66
514.77	21.7
514.969	21.69
515.168	21.64
515.367	21.61
515.567	21.64
515.766	21.74
515.965	21.74
516.164	21.88
516.364	21.9
516.563	21.81
516.762	21.97
516.961	21.94
517.16	21.91
517.359	22.06
517.559	22.06
517.758	22.14
517.957	22.08
518.156	22.09
518.355	22.07
518.554	22.08
518.753	22.15
518.952	22.14
519.151	22.18
519.35	22.27
519.549	22.25
519.748	22.2
519.947	22.2
520.146	22.26
520.345	22.31
520.544	22.37
520.743	22.38
520.942	22.45
521.141	22.42
521.339	22.56
521.538	22.54
521.737	22.57
521.936	22.75
522.135	22.77
522.333	22.78
522.532	22.75
522.731	22.75
522.93	22.84
523.129	22.77
523.327	22.82
523.526	22.71
523.725	22.79
523.923	22.83
524.122	22.76
524.321	22.74
524.519	22.78
524.718	22.77
524.917	22.79
525.115	22.74
525.314	22.77
525.512	22.8
525.711	22.84
525.909	22.75
526.108	22.73
526.306	22.79
526.505	22.87
526.703	22.91
526.902	22.98
527.1	22.96
527.299	22.98
527.497	23
527.696	22.98
527.894	22.98
528.092	23.05
528.291	23.05
528.489	23.06
528.688	23.01
528.886	22.97
529.084	22.96
529.283	22.98
529.481	22.99
529.679	22.97
529.877	23
530.076	22.99
530.274	22.99
530.472	22.99
530.67	22.99
530.869	23.04
531.067	23.08
531.265	23.12
531.463	23.12
531.661	23.22
531.859	23.29
532.057	23.35
532.255	23.36
532.454	23.39
532.652	23.47
532.85	23.46
533.048	23.46
533.246	23.52
533.444	23.5
533.642	23.5
533.84	23.51
534.038	23.48
534.236	23.47
534.434	23.52
534.632	23.51
534.83	23.52
535.027	23.54
535.225	23.6
535.423	23.61
535.621	23.66
535.819	23.72
536.017	23.74
536.215	23.81
536.412	23.8
536.61	23.89
536.808	23.94
537.006	23.87
537.203	23.95
537.401	23.93
537.599	23.95
537.797	23.95
537.994	23.92
538.192	23.84
538.39	23.93
538.587	23.96
538.785	23.89
538.983	23.83
539.18	24.01
539.378	24.04
539.575	24.12
539.773	24.11
539.97	24.12
540.168	24.13
540.366	24.2
540.563	24.16
540.761	24.2
540.958	24.24
541.155	24.28
541.353	24.2
541.55	24.21
541.748	24.22
541.945	24.25
542.143	24.24
542.34	24.34
542.537	24.34
542.735	24.4
542.932	24.36
543.129	24.39
543.327	24.44
543.524	24.5
543.721	24.5
543.919	24.46
544.116	24.52
544.313	24.65
544.51	24.6
544.708	24.63
544.905	24.63
545.102	24.7
545.299	24.72
545.496	24.75
545.693	24.8
545.891	24.79
546.088	24.85
546.285	24.82
546.482	24.79
546.679	24.81
546.876	24.82
547.073	24.85
547.27	24.83
547.467	24.82
547.664	24.76
547.861	24.65
548.058	24.7
548.255	24.66
548.452	24.67
548.649	24.64
548.846	24.61
549.043	24.59
549.24	24.58
549.437	24.75
549.633	24.62
549.83	24.66
550.027	24.77
550.224	24.74
550.421	24.79
550.618	24.76
550.814	24.81
551.011	24.79
551.208	24.88
551.405	24.95
551.601	24.86
551.798	24.97
551.995	24.98
552.191	24.97
552.388	24.98
552.585	24.89
552.781	24.97
552.978	25.01
553.175	25.08
553.371	25.04
553.568	25
553.764	24.98
553.961	25.06
554.157	25.05
554.354	25.08
554.55	25.15
554.747	25.24
554.943	25.19
555.14	25.09
555.336	25.08
555.533	24.96
555.729	24.92
555.926	24.85
556.122	24.86
556.318	24.76
556.515	24.78
556.711	24.73
556.907	24.75
557.104	24.74
557.3	24.71
557.496	24.67
557.693	24.8
557.889	24.82
558.085	24.88
558.281	24.8
558.478	24.86
558.674	24.88
558.87	24.81
559.066	24.84
559.262	24.87
559.459	25
559.655	25
559.851	25.05
560.047	25.09
560.243	25.17
560.439	25.21
560.635	25.32
560.831	25.25
561.027	25.27
561.223	25.2
561.419	25.24
561.615	25.26
561.811	25.33
562.007	25.26
562.203	25.21
562.399	25.14
562.595	25.22
562.791	25.25
562.987	25.3
563.183	25.24
563.379	25.36
563.575	25.29
563.771	25.22
563.966	25.25
564.162	25.17
564.358	25.24
564.554	25.23
564.75	25.2
564.945	25.09
565.141	25.12
565.337	25.23
565.533	25.22
565.728	25.27
565.924	25.31
566.12	25.34
566.315	25.48
566.511	25.41
566.707	25.46
566.902	25.29
567.098	25.31
567.293	25.22
567.489	25.24
567.684	25.27
567.88	25.24
568.076	25.22
568.271	25.26
568.467	25.25
568.662	25.37
568.858	25.37
569.053	25.61
569.248	25.73
569.444	25.94
569.639	25.99
569.835	25.9
570.03	25.9
570.225	25.97
570.421	25.89
570.616	25.86
570.812	25.86
571.007	25.91
571.202	25.85
571.397	25.92
571.593	25.75
571.788	25.65
571.983	25.75
572.178	25.76
572.374	25.7
572.569	25.7
572.764	25.67
572.959	25.65
573.154	25.7
573.35	25.73
573.545	25.67
573.74	25.78
573.935	25.83
574.13	25.75
574.325	25.7
574.52	25.78
574.715	25.79
574.91	25.87
575.105	25.92
575.3	25.92
575.495	25.88
575.69	25.84
575.885	25.84
576.08	25.87
576.275	25.98
576.47	26.08
576.665	26.11
576.86	26.11
577.055	26.16
577.25	26.1
577.444	26.04
577.639	26.15
577.834	26.22
578.029	26.19
578.224	26.14
578.418	26.04
578.613	26.09
578.808	26.23
579.003	26.37
579.197	26.35
579.392	26.31
579.587	26.37
579.781	26.27
579.976	26.31
580.171	26.39
580.365	26.58
580.56	26.78
580.755	26.67
580.949	26.5
581.144	26.39
581.338	26.32
581.533	26.51
581.727	26.59
581.922	26.65
582.116	26.6
582.311	26.59
582.505	26.51
582.7	26.42
582.894	26.5
583.089	26.59
583.283	26.67
583.478	26.71
583.672	26.75
583.866	26.64
584.061	26.62
584.255	26.7
584.449	26.8
584.644	26.89
584.838	26.91
585.032	27.09
585.226	27.13
585.421	27.23
585.615	27.38
585.809	27.26
586.003	27.48
586.198	27.61
586.392	27.64
586.586	27.56
586.78	27.56
586.974	27.72
587.168	27.68
587.363	27.57
587.557	27.38
587.751	27.36
587.945	27.36
588.139	27.18
588.333	27.15
588.527	27.21
588.721	27.18
588.915	26.94
589.109	26.9
589.303	26.87
589.497	26.85
589.691	26.84
589.885	26.72
590.079	26.7
590.273	26.8
590.466	26.81
590.66	26.83
590.854	26.9
591.048	27.06
591.242	27.02
591.436	27.06
591.629	27.34
591.823	27.57
592.017	27.65
592.211	27.94
592.404	27.91
592.598	27.95
592.792	27.84
592.986	27.89
593.179	27.87
593.373	27.79
593.567	27.72
593.76	27.57
593.954	27.63
594.147	27.57
594.341	27.44
594.535	27.56
594.728	27.59
594.922	27.61
595.115	27.59
595.309	27.66
595.502	27.8
595.696	27.81
595.889	27.74
596.083	27.65
596.276	27.7
596.47	27.62
596.663	27.69
596.856	27.65
597.05	27.65
597.243	27.67
597.437	27.82
597.63	27.76
597.823	27.85
598.017	27.92
598.21	27.89
598.403	27.9
598.596	27.99
598.79	27.85
598.983	27.87
599.176	27.95
599.369	27.91
599.563	27.78
599.756	27.75
599.949	27.8
600.142	27.85
600.335	27.99
600.528	28.15
600.722	28.16
600.915	28.18
601.108	28.27
601.301	28.33
601.494	28.38
601.687	28.33
601.88	28.4
602.073	28.27
602.266	28.32
602.459	28.16
602.652	28.07
602.845	28.17
603.038	28.13
603.231	28.12
603.424	28.21
603.617	28.2
603.809	28.12
604.002	28.08
604.195	28.12
604.388	28.09
604.581	28.15
604.774	28.3
604.966	28.32
605.159	28.41
605.352	28.45
605.545	28.23
605.737	28.16
605.93	28.24
606.123	28.36
606.316	28.42
606.508	28.46
606.701	28.56
606.894	28.47
607.086	28.47
607.279	28.41
607.471	28.45
607.664	28.55
607.857	28.72
608.049	28.83
608.242	28.81
608.434	28.93
608.627	29.03
608.819	29.24
609.012	29.56
609.204	29.91
609.397	30.25
609.589	30.65
609.782	31.01
609.974	31.47
610.166	31.95
610.359	32.39
610.551	32.91
610.743	33.39
610.936	33.6
611.128	33.89
611.32	33.97
611.513	34.09
611.705	34.02
611.897	34.08
612.09	34
612.282	33.82
612.474	33.73
612.666	33.47
612.858	33.2
613.051	33.04
613.243	32.75
613.435	32.68
613.627	32.4
613.819	32.25
614.011	32.22
614.203	31.95
614.395	31.85
614.588	31.54
614.78	31.24
614.972	30.94
615.164	30.82
615.356	30.6
615.548	30.39
615.74	30.44
615.932	30.33
616.124	30.08
616.315	29.94
616.507	29.82
616.699	29.72
616.891	29.7
617.083	29.79
617.275	29.88
617.467	29.8
617.659	29.53
617.85	29.55
618.042	29.58
618.234	29.82
618.426	29.88
618.618	29.97
618.809	30.31
619.001	30.44
619.193	30.47
619.384	30.47
619.576	30.55
619.768	30.7
619.959	30.57
620.151	30.66
620.343	30.42
620.534	30.37
620.726	30.41
620.917	30.42
621.109	30.38
621.301	30.43
621.492	30.32
621.684	30.5
621.875	30.62
622.067	30.55
622.258	30.59
622.45	30.54
622.641	30.76
622.832	30.66
623.024	30.38
623.215	30.34
623.407	30.25
623.598	30.33
623.789	30.34
623.981	30.28
624.172	30.46
624.363	30.27
624.555	30.57
624.746	30.57
624.937	30.42
625.129	30.52
625.32	30.61
625.511	30.48
625.702	30.48
625.893	30.46
626.085	30.49
626.276	30.41
626.467	30.47
626.658	30.5
626.849	30.58
627.04	30.77
627.231	30.91
627.422	30.82
627.614	30.97
627.805	31.04
627.996	30.89
628.187	30.94
628.378	31.02
628.569	31.05
628.76	31.07
628.951	30.94
629.142	31.03
629.332	30.91
629.523	31.12
629.714	31.23
629.905	31.3
630.096	31.49
630.287	31.55
630.478	31.48
630.669	31.53
630.859	31.35
631.05	31.21
631.241	31.22
631.432	31.22
631.623	31.09
631.813	31
632.004	30.91
632.195	30.9
632.385	30.82
632.576	30.78
632.767	30.84
632.957	30.96
633.148	30.99
633.339	30.87
633.529	30.82
633.72	30.89
633.91	30.82
634.101	30.78
634.292	30.73
634.482	30.7
634.673	30.67
634.863	30.55
635.054	30.45
635.244	30.41
635.435	30.65
635.625	30.7
635.815	30.65
636.006	30.66
636.196	30.59
636.387	30.49
636.577	30.41
636.767	30.66
636.958	30.69
637.148	30.57
637.338	30.92
637.529	30.64
637.719	30.59
637.909	30.52
638.099	30.37
638.29	30.34
638.48	30.52
638.67	30.6
638.86	30.55
639.05	30.57
639.241	30.83
639.431	30.61
639.621	30.83
639.811	30.79
640.001	30.84
640.191	31.14
640.381	31.33
640.571	31.48
640.761	31.58
640.951	31.58
641.141	31.44
641.331	31.4
641.521	31.34
641.711	31.26
641.901	31.39
642.091	31.45
642.281	31.68
642.471	31.86
642.661	31.76
642.851	31.64
643.041	31.37
643.231	31.54
643.42	31.62
643.61	31.67
643.8	31.76
643.99	31.92
644.18	32.03
644.369	31.84
644.559	31.7
644.749	31.54
644.939	31.56
645.128	31.92
645.318	31.94
645.508	31.97
645.697	31.95
645.887	31.58
646.076	31.5
646.266	31.52
646.456	31.35
646.645	31.17
646.835	31.11
647.024	31.12
647.214	31.05
647.403	31.21
647.593	31.03
647.782	31.1
647.972	31.35
648.161	31.13
648.351	31.17
648.54	31.35
648.73	31.51
648.919	31.71
649.108	31.85
649.298	32.01
649.487	31.73
649.677	31.87
649.866	32.07
650.055	32.15
650.244	32.47
650.434	32.25
650.623	32.29
650.812	32.34
651.002	32.48
651.191	32.59
651.38	32.43
651.569	32.59
651.758	32.57
651.947	32.42
652.137	32.4
652.326	32.34
652.515	32.62
652.704	32.73
652.893	32.8
653.082	32.5
653.271	32.42
653.46	32.38
653.649	32.09
653.838	32.01
654.027	32.19
654.216	32.02
654.405	31.99
654.594	31.73
654.783	31.38
654.972	31.29
655.161	31.19
655.35	31.19
655.539	31.33
655.728	31.61
655.916	31.59
656.105	31.59
656.294	31.75
656.483	31.78
656.672	31.91
656.86	32.1
657.049	32.08
657.238	32.12
657.427	32.05
657.615	32.14
657.804	32.11
657.993	32.29
658.181	32.09
658.37	32.15
658.559	32.24
658.747	32.23
658.936	32.3
659.125	32.6
659.313	32.67
659.502	32.69
659.69	32.49
659.879	32.56
660.067	32.36
660.256	32.35
660.444	32.34
660.633	32.2
660.821	32.21
661.01	32.09
661.198	31.72
661.387	31.85
661.575	32.15
661.763	32.31
661.952	32.4
662.14	32.76
662.328	32.9
662.517	32.97
662.705	32.92
662.893	32.84
663.082	32.94
663.27	32.86
663.458	32.52
663.646	32.2
663.834	32.35
664.023	32.07
664.211	32.16
664.399	32.11
664.587	32.09
664.775	32.37
664.963	32.35
665.152	32.39
665.34	32.68
665.528	33.1
665.716	33.19
665.904	32.87
666.092	33.04
666.28	32.89
666.468	32.88
666.656	32.97
666.844	32.98
667.032	33.32
667.22	33.21
667.408	33.3
667.596	33.06
667.784	33.05
667.971	33.08
668.159	32.95
668.347	33
668.535	32.89
668.723	32.66
668.911	32.54
669.098	32.35
669.286	32.63
669.474	32.49
669.662	32.68
669.849	32.56
670.037	32.75
670.225	32.95
670.413	32.79
670.6	33.17
670.788	33.45
670.976	33.37
671.163	33.52
671.351	33.63
671.538	33.63
671.726	33.55
671.913	33.89
672.101	34.08
672.289	33.9
672.476	33.97
672.664	33.75
672.851	33.71
673.039	33.83
673.226	33.78
673.413	33.37
673.601	33.49
673.788	33.72
673.976	33.53
674.163	33.56
674.35	33.67
674.538	33.78
674.725	33.92
674.912	33.82
675.1	33.8
675.287	33.85
675.474	33.76
675.662	33.86
675.849	33.65
676.036	33.82
676.223	33.61
676.411	33.62
676.598	33.48
676.785	33.2
676.972	33.26
677.159	33.05
677.346	33.05
677.533	33.27
677.721	32.87
677.908	33
678.095	32.73
678.282	32.89
678.469	32.96
678.656	33.14
678.843	33.49
679.03	33.21
679.217	33.34
679.404	33.25
679.591	33.33
679.778	33.74
679.964	33.65
680.151	33.78
680.338	33.69
680.525	33.58
680.712	33.48
680.899	33.53
681.086	33.58
681.272	33.82
681.459	33.93
681.646	33.72
681.833	33.46
682.02	33.71
682.206	33.69
682.393	33.65
682.58	33.76
682.766	33.63
682.953	33.39
683.14	33.83
683.326	33.77
683.513	33.57
683.7	33.95
683.886	33.9
684.073	33.73
684.259	33.66
684.446	33.75
684.632	33.64
684.819	33.82
685.005	34.15
685.192	33.87
685.378	33.88
685.565	34.13
685.751	34.14
685.938	34.22
686.124	34.14
686.31	34.18
686.497	34.3
686.683	34.44
686.87	34.48
687.056	34.21
687.242	34.34
687.429	34.29
687.615	34.03
687.801	33.82
687.987	34.11
688.174	34.26
688.36	34.22
688.546	34.07
688.732	34.05
688.918	33.95
689.105	33.92
689.291	33.84
689.477	33.95
689.663	34.23
689.849	34.32
690.035	33.99
690.221	33.82
690.407	33.96
690.593	34.27
690.779	34.13
690.965	34.21
691.151	34.21
691.337	34.17
691.523	34.24
691.709	34.25
691.895	34.26
692.081	34.44
692.267	34.72
692.453	34.95
692.639	34.78
692.825	35.11
693.011	35.34
693.196	35.25
693.382	35.31
693.568	35.24
693.754	35.19
693.94	35.14
694.125	35.23
694.311	35.3
694.497	35.2
694.682	35.21
694.868	34.93
695.054	34.86
695.239	35.08
695.425	35.01
695.611	34.85
695.796	34.52
695.982	34.57
696.168	34.42
696.353	34.32
696.539	34.15
696.724	34.16
696.91	34.37
697.095	34.31
697.281	34.3
697.466	34.46
697.652	34.61
697.837	34.73
698.023	34.71
698.208	34.73
698.393	34.8
698.579	34.75
698.764	34.5
698.949	34.53
699.135	34.48
699.32	34.39
699.505	34.1
699.691	34
699.876	34.06
700.061	33.96
700.246	33.92
700.432	33.76
700.617	33.74
700.802	33.81
700.987	33.78
701.172	34.15
701.358	34.4
701.543	34.72
701.728	34.98
701.913	34.93
702.098	35.05
702.283	35.28
702.468	35.27
702.653	35.46
702.838	35.54
703.023	35.23
703.208	34.58
703.393	34.59
703.578	34.57
703.763	34.6
703.948	34.7
704.133	34.72
704.318	34.4
704.503	34.64
704.688	34.5
704.873	34.87
705.057	35.45
705.242	36.31
705.427	36.48
705.612	36.91
705.797	36.73
705.981	36.77
706.166	36.96
706.351	37.4
706.536	37.84
706.72	38.09
706.905	38.25
707.09	38.15
707.274	37.99
707.459	37.76
707.644	37.78
707.828	37.99
708.013	38.25
708.197	38.32
708.382	37.74
708.567	37.38
708.751	37.4
708.936	37.2
709.12	37.04
709.305	36.74
709.489	36.82
709.673	36.76
709.858	36.32
710.042	36.41
710.227	36.66
710.411	37.08
710.596	37.07
710.78	37.19
710.964	37.24
711.149	37.19
711.333	37.46
711.517	37.59
711.702	37.62
711.886	37.51
712.07	37.07
712.254	36.47
712.438	36.27
712.623	35.91
712.807	35.75
712.991	35.47
713.175	35.81
713.359	35.49
713.544	35.28
713.728	35.01
713.912	35.1
714.096	35.01
714.28	35.24
714.464	35.29
714.648	35.53
714.832	35.14
715.016	35.26
715.2	34.86
715.384	34.75
715.568	34.55
715.752	34.41
715.936	34.38
716.12	34.67
716.304	34.64
716.488	34.54
716.671	34.36
716.855	34.44
717.039	34.2
717.223	33.95
717.407	33.88
717.59	33.6
717.774	33.9
717.958	34.2
718.142	33.98
718.325	34.04
718.509	33.91
718.693	34.21
718.877	34.37
719.06	34.78
719.244	35.01
719.428	35.17
719.611	36.04
719.795	35.67
719.978	35.07
720.162	35.14
720.345	35
720.529	35.19
720.713	35
720.896	35.06
721.08	34.23
721.263	34.11
721.446	34.29
721.63	33.86
721.813	33.55
721.997	34.01
722.18	33.96
722.364	34.52
722.547	34
722.73	33.97
722.914	33.7
723.097	34.38
723.28	34.55
723.464	34.41
723.647	34.29
723.83	34.72
724.013	34.51
724.197	34.49
724.38	33.85
724.563	34.48
724.746	34.89
724.929	35.02
725.112	35.2
725.296	35.21
725.479	35.3
725.662	35.32
725.845	35.36
726.028	35.07
726.211	35.06
726.394	35.02
726.577	35.15
726.76	34.98
726.943	35.25
727.126	35.28
727.309	35.5
727.492	35.1
727.675	35.37
727.858	35.63
728.041	36.17
728.224	36.17
728.407	36.27
728.589	36.1
728.772	36.16
728.955	36.01
729.138	35.82
729.321	35.51
729.503	35.72
729.686	35.71
729.869	35.6
730.052	35.65
730.234	35.68
730.417	35.88
730.6	35.93
730.782	35.86
730.965	36.02
731.148	35.69
731.33	35.6
731.513	35.7
731.695	35.78
731.878	35.87
732.061	35.26
732.243	35.11
732.426	34.84
732.608	34.64
732.791	34.62
732.973	34.67
733.156	34.76
733.338	34.79
733.52	34.69
733.703	34.85
733.885	34.38
734.068	34.85
734.25	34.95
734.432	35.15
734.615	35.28
734.797	35.02
734.979	34.77
735.162	34.57
735.344	34.8
735.526	34.83
735.708	34.7
735.891	34.93
736.073	34.99
736.255	35.19
736.437	35.02
736.619	35.37
736.802	35.42
736.984	35.3
737.166	35.93
737.348	36.05
737.53	36.64
737.712	36.2
737.894	36.5
738.076	36.44
738.258	36.27
738.44	36.28
738.622	36.22
738.804	36.1
738.986	36.45
739.168	36.11
739.35	35.66
739.532	35.41
739.714	35.25
739.896	34.73
740.078	34.91
740.259	34.57
740.441	34.23
740.623	33.82
740.805	33.85
740.987	33.59
741.168	34.18
741.35	34.68
741.532	34.36
741.714	34.21
741.895	34.51
742.077	34.55
742.259	35.04
742.44	35.22
742.622	35.54
742.804	35.69
742.985	35.99
743.167	35.91
743.348	35.4
743.53	35.64
743.711	35.68
743.893	35.64
744.075	35.39
744.256	35.26
744.438	35.87
744.619	35.45
744.8	35.79
744.982	35.73
745.163	35.53
745.345	35.86
745.526	35.66
745.707	36.48
745.889	36.84
746.07	36.87
746.252	37.2
746.433	37.59
746.614	37.65
746.795	37.54
746.977	37.5
747.158	36.95
747.339	37.35
747.52	37.39
747.702	36.86
747.883	36.91
748.064	37.02
748.245	36.87
748.426	36.02
748.607	36.99
748.788	36.79
748.97	36.54
749.151	36.75
749.332	36.13
749.513	35.53
749.694	35.44
749.875	34.94
750.056	34.85
750.237	34.63
750.418	34.92
750.599	33.79
750.78	33.8
750.96	33.95
751.141	34
751.322	35
751.503	35.14
751.684	35.83
751.865	35.69
752.046	34.81
752.226	34.41
752.407	34.02
752.588	34.39
752.769	35.05
752.949	34.88
753.13	35.22
753.311	34.16
753.492	34.61
753.672	34.28
753.853	34.95
754.034	35.98
754.214	36.52
754.395	37.28
754.575	37.07
754.756	36.24
754.937	36.27
755.117	36.54
755.298	37.19
755.478	37.33
755.659	37.63
755.839	37.33
756.02	36.96
756.2	37.21
756.381	36.22
756.561	36.18
756.741	36.39
756.922	37.22
757.102	36.51
757.283	35.93
757.463	35.59
757.643	35.29
757.823	35.36
758.004	35.59
758.184	34.78
758.364	35.22
758.545	35.23
758.725	35.35
758.905	34.98
759.085	35.41
759.265	35.12
759.446	35.61
759.626	36.13
759.806	36.25
759.986	36.28
760.166	36.4
760.346	36.51
760.526	36.55
760.706	36.7
760.886	36.18
761.066	35.91
761.246	35.74
761.426	34.81
761.606	34.13
761.786	33.74
761.966	33.87
762.146	34.2
762.326	34.01
762.506	33.8
762.686	33.81
762.866	33.78
763.046	33.34
763.225	33.83
763.405	34.26
763.585	34.68
763.765	34.52
763.945	34.34
764.124	34.49
764.304	34.71
764.484	35.21
764.664	35.04
764.843	35.27
765.023	35.44
765.203	34.88
765.382	34.9
765.562	34.44
765.741	34.9
765.921	34.27
766.101	34.12
766.28	33.62
766.46	33.22
766.639	33.32
766.819	33.26
766.998	32.98
767.178	33.75
767.357	33.89
767.537	34.15
767.716	33.95
767.896	34.32
768.075	34.23
768.254	34.77
768.434	34.81
768.613	34.32
768.792	34.71
768.972	35.51
769.151	35.22
769.33	35.45
769.51	35.83
769.689	35.32
769.868	35.83
770.047	35.99
770.226	35.79
770.406	36.44
770.585	36.52
770.764	35.9
770.943	34.92
771.122	35.29
771.301	33.68
771.48	32.82
771.66	32.88
771.839	33.06
772.018	32.59
772.197	33.09
772.376	31.9
772.555	32.39
772.734	32.9
772.913	33.4
773.092	33.2
773.271	34.52
773.449	35.2
773.628	35.18
773.807	34.71
773.986	34.56
774.165	34.17
774.344	35.26
774.523	35.18
774.701	34.99
774.88	35.64
775.059	35.21
775.238	35.29
775.417	35.5
775.595	36.46
775.774	36.98
775.953	37.31
776.131	36.65
776.31	36.17
776.489	36.38
776.667	36.99
776.846	36.5
777.025	36.81
777.203	36.49
777.382	35.53
777.56	34.24
777.739	34.32
777.917	34.36
778.096	34.46
778.274	34.1
778.453	34.18
778.631	32.85
778.81	32.76
778.988	32.69
779.166	32.95
779.345	33.33
779.523	34.9
779.702	34.71
779.88	35.16
780.058	35.52
780.237	35.76
780.415	35.93
780.593	36.21
780.771	36.63
780.95	36.74
781.128	36.5
781.306	36.5
781.484	35.69
781.662	35.83
781.841	35.03
782.019	35.07
782.197	35.42
782.375	35.42
782.553	35.98
782.731	35.67
782.909	36.09
783.087	35.78
783.265	36.43
783.443	36.76
783.621	35.64
783.799	36.17
783.977	36.2
784.155	35.59
784.333	35.25
784.511	34.86
784.689	35.11
784.867	34.06
785.045	33.77
785.223	33.15
785.4	32.43
785.578	33.45
785.756	32.85
785.934	32.72
786.112	32.73
786.289	31.69
786.467	32.16
786.645	32.09
786.823	32.2
787	32.68
787.178	32.5
787.356	33
787.533	32.8
787.711	33.19
787.889	32.65
788.066	34.06
788.244	35.41
788.421	35.5
788.599	35.55
788.776	36.21
788.954	36.6
789.131	36.69
789.309	36.33
789.486	35.66
789.664	35.44
789.841	35.85
790.019	34.33
790.196	33.4
790.373	33.18
790.551	33.88
790.728	33.12
790.906	33.38
791.083	32.43
791.26	33.11
791.437	33.73
791.615	33.61
791.792	33.15
791.969	33.57
792.146	33.82
792.324	34.32
792.501	33.95
792.678	34.06
792.855	33.77
793.032	34.41
793.209	33.65
793.387	34.27
793.564	34.74
793.741	35.59
793.918	34.65
794.095	35.06
794.272	34.13
794.449	34.08
794.626	34.67
794.803	34.6
794.98	35.33
795.157	35.14
795.334	35.17
795.511	35.26
795.688	34.35
795.864	35.21
796.041	34.25
796.218	34.74
796.395	34.07
796.572	33.86
796.749	32.6
796.925	32.57
797.102	32.18
797.279	32.24
797.456	31.83
797.632	33.55
797.809	34.06
797.986	35.7
798.162	35.74
798.339	36.42
798.516	36.79
798.692	38.52
798.869	37.54
799.046	38.07
799.222	38.27
799.399	39.08
799.575	39.69
799.752	39.27
799.928	38.86
800.105	38.18
800.281	38.31
800.458	37.71
800.634	36.86
800.811	36.66
800.987	36.6
801.163	36.2
801.34	36.4
801.516	33.95
801.692	33.76
801.869	32.55
802.045	32.97
802.221	32.67
802.398	32.64
802.574	32.72
802.75	32.27
802.926	32.53
803.103	31.92
803.279	31.92
803.455	31.92
803.631	31.91
803.807	32.56
803.983	32.16
804.16	31.68
804.336	31.53
804.512	30.12
804.688	32.32
804.864	32.18
805.04	33.27
805.216	30.78
805.392	30.7
805.568	30.66
805.744	30.4
805.92	29.61
806.096	30.06
806.272	30.66
806.448	31.3
806.623	31.67
806.799	31.1
806.975	30.35
807.151	32.08
807.327	32.42
807.503	32.45
807.678	33.36
807.854	33.65
808.03	33.27
808.206	33.28
808.381	33.34
808.557	31.69
808.733	31.26
808.908	31.46
809.084	32.17
809.26	32.47
809.435	32.88
809.611	33.21
809.787	32.49
809.962	32.96
810.138	34.18
810.313	34.55
810.489	35.21
810.664	36.42
810.84	37.26
811.015	36.07
811.191	36.57
811.366	37.01
811.542	35.53
811.717	37.7
811.892	37.47
812.068	35.79
812.243	35.06
812.419	35.48
812.594	34.91
812.769	34.42
812.944	35.17
813.12	34.27
813.295	33.9
813.47	34.18
813.645	33.21
813.821	31.74
813.996	32.03
814.171	31.85
814.346	30.44
814.521	31.5
814.697	30.44
814.872	30.97
815.047	31.59
815.222	30.9
815.397	30.27
815.572	30.63
815.747	32.1
815.922	32.35
816.097	32.58
816.272	32.47
816.447	30.99
816.622	31.32
816.797	31.3
816.972	30.44
817.147	29.73
817.322	30.21
817.496	29.75
817.671	29.83
817.846	29.22
818.021	30.04
818.196	31.69
818.371	32.63
818.545	33.17
818.72	32.03
818.895	32.07
819.069	33.41
819.244	32.77
819.419	33.01
819.594	32.45
819.768	32.59
819.943	32.55
820.117	31.51
820.292	31.41
820.467	31.65
820.641	32.24
820.816	32.27
820.99	31.46
821.165	31.7
821.339	31.93
821.514	31.99
821.688	32.09
821.863	31.94
822.037	32.06
822.212	32.39
822.386	32.2
822.56	32.16
822.735	32.16
822.909	32.28
823.084	32.24
823.258	32.14
823.432	31.87
823.606	31.95
823.781	32.06
823.955	32.07
824.129	31.62
824.303	31.44
824.478	31.33
824.652	31.39
824.826	30.95
825	31.07
825.174	30.61
825.348	30.83
825.523	30.55
825.697	30.09
825.871	30.18
826.045	30.13
826.219	30.64
826.393	30.79
826.567	30.63
826.741	31.29
826.915	31.33
827.089	31.7
827.263	32.01
827.437	31.87
827.611	32.15
827.784	31.95
827.958	31.96
828.132	31.89
828.306	31.37
828.48	31.67
828.654	31.75
828.827	31.58
829.001	31.39
829.175	31.38
829.349	31.26
829.522	31.7
829.696	32.18
829.87	32.43
830.044	32.19
830.217	32.32
830.391	32.03
830.565	30.99
830.738	31.47
830.912	31.41
831.085	31.52
831.259	31.16
831.432	29.84
831.606	28.33
831.779	28.43
831.953	28.16
832.126	28.15
832.3	27.31
832.473	28.09
832.647	28.65
832.82	30.23
832.994	29.62
833.167	29.52
833.34	30.01
833.514	30.35
833.687	30.5
833.86	30.97
834.034	31.38
834.207	31.51
834.38	31.63
834.553	31.03
834.727	30.07
834.9	30.72
835.073	31.35
835.246	32.01
835.419	32.28
835.593	31.78
835.766	31.51
835.939	31.82
836.112	32.56
836.285	32.93
836.458	33.13
836.631	33.95
836.804	33.26
836.977	33.73
837.15	33.32
837.323	33.57
837.496	34.64
837.669	34.56
837.842	32.4
838.015	31.04
838.188	31.61
838.361	30.24
838.533	28.76
838.706	28.38
838.879	28.54
839.052	27.33
839.225	28.71
839.398	26.91
839.57	27.62
839.743	29.59
839.916	30.93
840.088	31.17
840.261	33.03
840.434	33.93
840.607	34.55
840.779	34.64
840.952	34.92
841.124	33.3
841.297	33.87
841.47	32.75
841.642	32.34
841.815	31.77
841.987	31.92
842.16	30.17
842.332	31.73
842.505	31.36
842.677	28.68
842.85	27.33
843.022	27.98
843.194	29.18
843.367	30.78
843.539	30.51
843.712	30.41
843.884	30.72
844.056	34.99
844.229	32.85
844.401	35.62
844.573	36.95
844.745	41.51
844.918	39.4
845.09	40.17
845.262	41.34
845.434	39.84
845.606	41.94
845.779	41.92
845.951	40.64
846.123	40.54
846.295	36.45
846.467	34.66
846.639	32.25
846.811	33.75
846.983	31.2
847.155	28.28
847.327	32.87
847.499	31.88
847.671	30.47
847.843	28.06
848.015	25.37
848.187	28.25
848.359	33.37
848.531	33.61
848.703	31.47
848.875	33.51
849.047	35.38
849.218	31.41
849.39	32.15
849.562	32.18
849.734	32.98
849.905	31.86
850.077	31.54
850.249	30.88
850.421	31.51
850.592	35.22
850.764	33.56
850.936	32.53
851.107	36.5
851.279	36.03
851.451	36.77
851.622	35.47
851.794	38.51
851.965	37.78
852.137	39.66
852.308	37.41
852.48	38.66
852.651	37.92
852.823	38.77
852.994	39.24
853.166	37.85
853.337	35.06
853.509	33.74
853.68	31.83
853.851	33.72
854.023	35.19
854.194	39.46
854.365	35.93
854.537	39.83
854.708	42.92
854.879	40.3
855.05	39.57
855.222	40.62
855.393	38.99
855.564	41.16
855.735	36.58
855.906	31.25
856.078	27.36
856.249	28.18
856.42	29.98
856.591	26.12
856.762	26
856.933	27.49
857.104	29.08
857.275	34.67
857.446	31.51
857.617	34.99
857.788	37.51
857.959	38.48
858.13	37.4
858.301	31.86
858.472	32.96
858.643	30.8
858.814	36.23
858.985	35.41
859.155	29.79
859.326	33.68
859.497	33.78
859.668	31.9
859.839	32.7
860.009	34.12
860.18	35.27
860.351	30.64
860.522	32.73
860.692	24.83
860.863	21.89
861.034	27.44
861.204	19.48
861.375	18.71
861.546	19.33
861.716	20.93
861.887	20.91
862.057	23.49
862.228	28.14
862.398	26.11
862.569	29.59
862.739	34.78
862.91	31.77
863.08	37.22
863.251	35.84
863.421	37.07
863.592	34.91
863.762	37.21
863.932	33.46
864.103	35.55
864.273	36.81
864.443	37.79
864.614	34.74
864.784	31.99
864.954	32.39
865.125	35.45
865.295	37.01
865.465	34.93
865.635	36.03
865.805	38.13
865.976	35.5
866.146	35.79
866.316	34.19
866.486	35.98
866.656	39.51
866.826	38.81
866.996	34.87
867.166	33.73
867.336	33.4
867.506	30.4
867.676	29.78
867.846	28.85
868.016	24.67
868.186	27.11
868.356	23.83
868.526	23.68
868.696	24.74
868.866	28.87
869.036	27.72
869.206	33.09
869.376	32.9
869.545	32.21
869.715	31.76
869.885	34.84
870.055	33.45
870.224	33.15
870.394	31.6
870.564	33.9
870.734	31.28
870.903	31.29
871.073	32.02
871.243	32.86
871.412	36.01
871.582	38.15
871.751	38.37
871.921	33.06
872.091	30.43
872.26	35.45
872.43	33.1
872.599	32.41
872.769	32.67
872.938	32.74
873.108	30.14
873.277	32.52
873.446	34.04
873.616	36.73
873.785	40.2
873.955	44.34
874.124	40.82
874.293	41.67
874.463	43.99
874.632	47.28
874.801	44.07
874.971	44.26
875.14	39.62
875.309	39.63
875.478	34.84
875.647	33.05
875.817	33.81
875.986	35.57
876.155	34.03
876.324	36.52
876.493	34.23
876.662	34.48
876.831	34.57
877	35.1
877.17	34.12
877.339	36.02
877.508	40.41
877.677	39.56
877.846	40.05
878.015	38.32
878.184	35.77
878.352	31.46
878.521	30.76
878.69	32.29
878.859	34.01
879.028	34.16
879.197	34.62
879.366	33.91
879.534	34.6
879.703	32.21
879.872	34.34
880.041	33.72
880.21	33.16
880.378	33.94
880.547	33.52
880.716	32.16
880.884	31.36
881.053	30.11
881.222	29.04
881.39	29.11
881.559	28.74
881.727	27.91
881.896	27.51
882.065	28.41
882.233	27.64
882.402	27.57
882.57	27.75
882.739	27.52
882.907	27.88
883.076	28.21
883.244	27.9
883.412	29.02
883.581	29.23
883.749	29.25
883.918	29.5
884.086	30.11
884.254	29.78
884.423	29.35
884.591	29.29
884.759	28.56
884.927	27.56
885.096	27.14
885.264	25.98
885.432	25.92
885.6	27.21
885.769	24.28
885.937	23.3
886.105	22.73
886.273	22.09
886.441	21.09
886.609	19.08
886.777	23.52
886.945	22.42
887.113	21.8
887.281	20.8
887.449	20.18
887.617	23.54
887.785	23.34
887.953	24.78
888.121	25.13
888.289	26.25
888.457	31.94
888.625	27.49
888.793	28.33
888.961	28.91
889.129	26.43
889.296	18.61
889.464	15.35
889.632	15.68
889.8	12.26
889.967	11.59
890.135	12.66
