Data from 2938733__Reflection_02.txt Node
Date: Sun Mar 15 18:35:58 EDT 2015
User: robert
Spectrometer: USB4E03002
Autoset integration time: false
Trigger mode: 4
Integration Time (sec): 1.000000E-1
Scans to average: 10
Electric dark correction enabled: false
Nonlinearity correction enabled: false
Boxcar width: 5
Stray light correction enabled: false
XAxis mode: Wavelengths
Stop averaging: false
Number of Pixels in Spectrum: 3648
>>>>>Begin Spectral Data<<<<<
177.575	31.11
177.794	-8.76
178.014	21.74
178.233	25.83
178.452	40.43
178.672	36.18
178.891	44.72
179.11	25.65
179.33	13.64
179.549	-16.96
179.768	-44.23
179.987	-42.67
180.207	-24.09
180.426	-84.92
180.645	-427.03
180.864	-157.73
181.084	-150.75
181.303	2682.35
181.522	-274.1
181.741	-421.3
181.96	-435.56
182.179	-181.1
182.398	-115
182.618	-83.33
182.837	-71.06
183.056	-61.11
183.275	-144.32
183.494	-223.81
183.713	-219.05
183.932	66.91
184.151	40
184.37	185.71
184.589	-262.5
184.808	136.46
185.027	110.22
185.246	82.01
185.465	116.48
185.684	254.12
185.903	312.7
186.122	506.82
186.341	-31.1
186.56	-88.37
186.779	19.7
186.998	-94.44
187.216	-112.9
187.435	-91.19
187.654	-88.81
187.873	-7.99
188.092	-33.93
188.311	-101.08
188.53	-59.69
188.748	-81.33
188.967	-41.11
189.186	-219.46
189.405	-119.05
189.623	-30.48
189.842	-9.56
190.061	-7.78
190.28	-4.49
190.498	34.11
190.717	54.93
190.936	52.19
191.154	40.65
191.373	36.44
191.592	20.08
191.81	53.8
192.029	48.26
192.248	50.62
192.466	49.21
192.685	2.15
192.904	76.25
193.122	129.41
193.341	64.85
193.559	95.31
193.778	147.09
193.996	141.55
194.215	75.77
194.433	74.25
194.652	51.13
194.87	39.06
195.089	71.74
195.307	36.79
195.526	-28.12
195.744	-0.67
195.963	-10.47
196.181	-28.35
196.399	-43.36
196.618	-31.79
196.836	21.16
197.055	-26.76
197.273	8.44
197.491	7.58
197.71	-27.18
197.928	-5.19
198.146	6.3
198.365	-2.72
198.583	-9.24
198.801	-29.36
199.019	-78.42
199.238	-256.6
199.456	-88.54
199.674	-172.75
199.892	-195.1
200.111	-96.77
200.329	-125.13
200.547	-221.48
200.765	-215.02
200.983	-170.25
201.202	-126.07
201.42	-63.06
201.638	-57.71
201.856	-79.6
202.074	-24.76
202.292	-3.12
202.51	-124.37
202.728	-120.99
202.946	-201.08
203.165	-313.68
203.383	-271.59
203.601	-124.9
203.819	-147.32
204.037	-298.04
204.255	-493.98
204.473	-578.69
204.691	-220
204.909	-26.8
205.127	-8.35
205.345	-29.78
205.562	57.58
205.78	36.99
205.998	41.87
206.216	24.75
206.434	-25.13
206.652	5.13
206.87	-14.23
207.088	-3.34
207.306	-84.58
207.523	-132.92
207.741	-1.23
207.959	-8.76
208.177	22.37
208.395	38.66
208.612	12.86
208.83	23.83
209.048	31.14
209.266	32.47
209.483	27.8
209.701	8.52
209.919	13.57
210.136	-14.37
210.354	-55.39
210.572	-152.86
210.79	-100.52
211.007	-59.91
211.225	-40.6
211.442	-24.56
211.66	-37.35
211.878	-18.41
212.095	-9.75
212.313	-26.92
212.53	-25.79
212.748	-8.88
212.966	-4.64
213.183	-9.56
213.401	13.19
213.618	16.76
213.836	10.24
214.053	15.23
214.271	-5.09
214.488	9.22
214.705	23.23
214.923	21.79
215.14	23.35
215.358	33.19
215.575	20.85
215.793	4.13
216.01	-41.04
216.227	-7.77
216.445	-8.59
216.662	-30.71
216.879	-28.62
217.097	-53.99
217.314	-58.42
217.531	-50.06
217.749	-73.12
217.966	-65.7
218.183	-82.22
218.4	-30
218.618	-79.72
218.835	-107.32
219.052	-36.88
219.269	-191.58
219.487	-107.69
219.704	-66.88
219.921	-89.59
220.138	-50.36
220.355	-114.57
220.572	-101.01
220.79	-99.63
221.007	-70.04
221.224	-61.77
221.441	-71.11
221.658	-16.36
221.875	-17.23
222.092	-10.26
222.309	-5.1
222.526	-1.43
222.743	5.11
222.96	2.19
223.177	-5.59
223.394	-0.55
223.611	1.76
223.828	6.17
224.045	1.84
224.262	2.97
224.479	-1.94
224.696	-1.96
224.913	-4
225.13	-0.45
225.347	5.6
225.564	4.91
225.781	1.64
225.997	1.1
226.214	-1.88
226.431	-0.12
226.648	0.83
226.865	1.75
227.082	2.84
227.298	1.44
227.515	-0.11
227.732	-1.26
227.949	-0.26
228.165	-1.14
228.382	-0.23
228.599	-0.5
228.816	-0.11
229.032	0.23
229.249	0.67
229.466	-0.34
229.682	-0.89
229.899	-0.44
230.116	0.63
230.332	0.29
230.549	0.7
230.765	0.1
230.982	0.31
231.199	-0.63
231.415	-1.56
231.632	-1.91
231.848	-0.9
232.065	1.01
232.281	2.12
232.498	1.88
232.714	2.06
232.931	4.66
233.147	5.73
233.364	4.77
233.58	4.89
233.797	3.96
234.013	3.42
234.23	3.25
234.446	1.34
234.662	0.29
234.879	-0.23
235.095	0.11
235.312	0.07
235.528	-0.43
235.744	-0.79
235.961	-0.12
236.177	-0.42
236.393	-2.23
236.61	-3.77
236.826	-4.91
237.042	-4.34
237.258	-4.9
237.475	-3.19
237.691	-3.46
237.907	-5.96
238.123	-3.95
238.339	-2.34
238.556	-0.01
238.772	1.53
238.988	2.19
239.204	4.5
239.42	3.93
239.636	5.35
239.853	3.23
240.069	4.03
240.285	5.49
240.501	5.2
240.717	2.76
240.933	1.9
241.149	2.45
241.365	2.29
241.581	1.7
241.797	2.05
242.013	1.58
242.229	1.9
242.445	1.44
242.661	0.73
242.877	0.02
243.093	0.25
243.309	0.57
243.525	-0.42
243.741	-0.12
243.957	0.59
244.173	0.06
244.388	-0.38
244.604	0.79
244.82	0.54
245.036	1.27
245.252	1.08
245.468	1.89
245.683	1.7
245.899	2.34
246.115	2.46
246.331	2.39
246.547	2.8
246.762	3.15
246.978	2.32
247.194	2.53
247.409	2.29
247.625	2.58
247.841	2.33
248.057	2.39
248.272	2.67
248.488	2.53
248.703	3.11
248.919	2.85
249.135	2.55
249.35	3.21
249.566	2.47
249.782	2.96
249.997	3.92
250.213	4.55
250.428	4.72
250.644	3.39
250.859	3.68
251.075	2.38
251.29	2.58
251.506	3.08
251.721	2.8
251.937	3.03
252.152	2.63
252.368	1.95
252.583	1.37
252.798	0.8
253.014	1.1
253.229	0.18
253.445	-0.38
253.66	-1.32
253.875	-1.72
254.091	-1.58
254.306	-1.15
254.521	0.15
254.737	-0.22
254.952	-0.05
255.167	1.34
255.383	2.69
255.598	3.71
255.813	5.8
256.028	7.35
256.244	7.23
256.459	6.74
256.674	6.51
256.889	4.08
257.104	4.95
257.32	5.01
257.535	4.79
257.75	3.91
257.965	3.27
258.18	2.47
258.395	2.37
258.61	1.82
258.826	1.47
259.041	1.26
259.256	1.96
259.471	1.75
259.686	1.43
259.901	1.75
260.116	1.76
260.331	1.9
260.546	1.97
260.761	1.71
260.976	1.8
261.191	2.18
261.406	2.21
261.621	1.84
261.836	1.92
262.05	2.51
262.265	1.9
262.48	1.82
262.695	1.98
262.91	2.03
263.125	1.8
263.34	2.31
263.555	2.25
263.769	2.37
263.984	2.69
264.199	2.78
264.414	1.78
264.629	1.55
264.843	1.49
265.058	0.42
265.273	0.4
265.488	1.08
265.702	1.48
265.917	0.76
266.132	0.61
266.346	0.33
266.561	-0.21
266.776	0.52
266.99	0.83
267.205	1.64
267.42	2.01
267.634	2.07
267.849	2.05
268.063	1.04
268.278	0.79
268.492	1.23
268.707	1.43
268.922	1.55
269.136	1.4
269.351	1.35
269.565	1.02
269.78	0.84
269.994	0.51
270.209	0.35
270.423	0.71
270.637	1.03
270.852	0.91
271.066	0.91
271.281	1.5
271.495	1.83
271.709	1.61
271.924	1.75
272.138	2.36
272.353	2.76
272.567	2.42
272.781	2.05
272.996	1.85
273.21	1.63
273.424	1.9
273.638	1.37
273.853	1.3
274.067	1.54
274.281	0.74
274.495	0.33
274.71	-0.1
274.924	-0.08
275.138	0.12
275.352	0.16
275.566	0.49
275.781	-0.07
275.995	0.11
276.209	-0.21
276.423	-0.2
276.637	0.15
276.851	-0.06
277.065	-0.73
277.279	-0.31
277.493	0.42
277.707	0.96
277.921	0.37
278.135	0.94
278.349	1
278.563	0.66
278.777	-0.07
278.991	0.23
279.205	0.81
279.419	1.71
279.633	1.79
279.847	1.08
280.061	1.06
280.275	1.36
280.489	0.95
280.703	0.48
280.917	1
281.131	1.76
281.344	1.5
281.558	0.82
281.772	0.33
281.986	0.18
282.2	0.47
282.414	0.11
282.627	0.27
282.841	-0.1
283.055	-0.07
283.269	-0.32
283.482	-1.17
283.696	-1.27
283.91	-1.3
284.123	-1.07
284.337	-1.1
284.551	-0.97
284.764	-1.05
284.978	-0.77
285.192	-0.14
285.405	0.5
285.619	0.65
285.833	1.13
286.046	1.18
286.26	1.47
286.473	1.72
286.687	1.76
286.9	1.56
287.114	1.8
287.327	1.6
287.541	1.4
287.754	0.84
287.968	1.04
288.181	1.2
288.395	1.51
288.608	1.11
288.822	0.9
289.035	1.1
289.248	1.42
289.462	1.64
289.675	1.76
289.889	1.55
290.102	1.17
290.315	0.82
290.529	1.04
290.742	1.08
290.955	1.04
291.169	0.81
291.382	0.64
291.595	0.48
291.808	0.58
292.022	0.18
292.235	0.65
292.448	1.42
292.661	1.04
292.875	0.5
293.088	0.37
293.301	0.91
293.514	1.36
293.727	1.45
293.94	1.58
294.153	1.33
294.367	1.8
294.58	1.72
294.793	1.61
295.006	2.38
295.219	2.6
295.432	2.6
295.645	2.53
295.858	2.36
296.071	2.5
296.284	2.29
296.497	2.05
296.71	1.76
296.923	1.89
297.136	1.7
297.349	1.37
297.562	1.28
297.775	1.29
297.988	1.23
298.201	1.33
298.414	1.06
298.626	1.3
298.839	1.69
299.052	1.73
299.265	1.68
299.478	1.66
299.691	1.85
299.903	1.9
300.116	1.47
300.329	1.78
300.542	1.47
300.755	1.08
300.967	0.8
301.18	0.68
301.393	0.82
301.605	0.7
301.818	1.2
302.031	1.43
302.243	1.26
302.456	1.13
302.669	0.63
302.881	0.5
303.094	0.98
303.307	1.07
303.519	0.96
303.732	0.73
303.944	0.72
304.157	0.96
304.37	0.5
304.582	0.63
304.795	0.84
305.007	1.02
305.22	1.15
305.432	1.28
305.645	0.89
305.857	0.97
306.069	1.13
306.282	1.13
306.494	0.77
306.707	0.77
306.919	1.11
307.132	1.17
307.344	1.28
307.556	1.75
307.769	1.8
307.981	2.64
308.193	2.67
308.406	2.75
308.618	2.59
308.83	2.22
309.043	2.44
309.255	2.13
309.467	2.06
309.679	2.68
309.892	2.45
310.104	2.09
310.316	1.69
310.528	1.6
310.74	1.4
310.953	1.74
311.165	2.11
311.377	1.99
311.589	2.02
311.801	2.28
312.013	1.76
312.225	1.91
312.437	2.38
312.649	2.29
312.862	2.13
313.074	2.67
313.286	2.28
313.498	1.88
313.71	1.89
313.922	1.93
314.134	1.77
314.346	1.76
314.558	1.57
314.77	1.38
314.982	1.63
315.193	2.27
315.405	2.07
315.617	2.04
315.829	2.31
316.041	2.31
316.253	2.35
316.465	2.45
316.677	2.46
316.888	2.39
317.1	2.6
317.312	2.69
317.524	2.78
317.736	2.3
317.947	2.67
318.159	2.41
318.371	3.21
318.583	3.58
318.794	3.33
319.006	3.64
319.218	3.61
319.43	3.59
319.641	3.58
319.853	2.9
320.064	3.07
320.276	2.9
320.488	3.59
320.699	3
320.911	2.8
321.123	3.44
321.334	3.09
321.546	3.62
321.757	3.52
321.969	3.45
322.18	4.2
322.392	4.47
322.603	4.89
322.815	4.63
323.026	5.18
323.238	5.49
323.449	5.02
323.661	5.47
323.872	5.63
324.083	5.82
324.295	6.28
324.506	6.15
324.718	6.02
324.929	5.84
325.14	6.24
325.352	6.19
325.563	5.74
325.774	6.21
325.986	5.84
326.197	5.77
326.408	5.54
326.62	5.03
326.831	5.08
327.042	4.97
327.253	5.17
327.464	5.15
327.676	4.53
327.887	5.07
328.098	5.45
328.309	5.99
328.52	6.19
328.732	6.15
328.943	6.63
329.154	6.92
329.365	7.8
329.576	7.85
329.787	7.55
329.998	7.85
330.209	7.93
330.42	7.88
330.631	8.33
330.842	7.85
331.053	8.67
331.264	8.38
331.475	8.34
331.686	8.32
331.897	8.48
332.108	8.63
332.319	8.9
332.53	8.78
332.741	8.53
332.952	8
333.163	8.33
333.374	8.15
333.585	8.47
333.795	8.73
334.006	8.41
334.217	8.8
334.428	9.24
334.639	9.39
334.849	9.59
335.06	9.8
335.271	9.46
335.482	9.58
335.692	9.87
335.903	9.94
336.114	9.77
336.325	9.79
336.535	9.04
336.746	8.61
336.957	8.42
337.167	8.34
337.378	8.03
337.589	8.73
337.799	8.51
338.01	8
338.22	7.9
338.431	7.29
338.642	7.62
338.852	7.88
339.063	8.2
339.273	8.42
339.484	8.33
339.694	8.43
339.905	7.87
340.115	7.97
340.326	8.11
340.536	7.95
340.746	8.34
340.957	8.06
341.167	7.81
341.378	7.48
341.588	6.99
341.799	6.94
342.009	6.77
342.219	6.72
342.43	6.54
342.64	6.79
342.85	6.97
343.061	6.96
343.271	7.12
343.481	7.32
343.691	7.63
343.902	8.18
344.112	8.11
344.322	8.26
344.532	8.5
344.743	8.12
344.953	7.83
345.163	8.06
345.373	8.2
345.583	7.7
345.793	8.15
346.004	8.24
346.214	7.91
346.424	7.65
346.634	7.82
346.844	8.02
347.054	8.68
347.264	8.59
347.474	7.99
347.684	7.8
347.894	8.44
348.104	8.18
348.314	7.89
348.524	8.04
348.734	7.91
348.944	7.7
349.154	7.74
349.364	7.44
349.574	7.34
349.784	8.04
349.994	8.1
350.204	7.76
350.413	7.5
350.623	7.69
350.833	7.83
351.043	8.23
351.253	8.44
351.463	8.13
351.672	8
351.882	8.03
352.092	7.66
352.302	7.51
352.511	7.53
352.721	7.61
352.931	7.3
353.141	7.19
353.35	6.88
353.56	6.61
353.77	6.82
353.979	6.96
354.189	7.22
354.399	7.35
354.608	7.42
354.818	7.43
355.027	7.35
355.237	7.64
355.447	7.4
355.656	7.67
355.866	7.74
356.075	7.62
356.285	7.72
356.494	7.96
356.704	7.87
356.913	8.27
357.123	8.2
357.332	8.41
357.542	7.96
357.751	8.34
357.96	8.19
358.17	8.31
358.379	8.23
358.589	8.19
358.798	7.78
359.007	7.66
359.217	7.24
359.426	7.28
359.635	7.05
359.845	7.24
360.054	6.93
360.263	7.07
360.472	7.11
360.682	7.12
360.891	7.09
361.1	7.17
361.309	7.05
361.519	7.08
361.728	7.24
361.937	7.31
362.146	7.35
362.355	7.37
362.564	7.32
362.774	7.19
362.983	7.31
363.192	7.27
363.401	7.23
363.61	7.44
363.819	7.69
364.028	7.63
364.237	7.76
364.446	7.62
364.655	7.69
364.864	7.5
365.073	7.2
365.282	7.38
365.491	7.66
365.7	7.72
365.909	7.65
366.118	7.3
366.327	7.2
366.536	7.01
366.745	7.27
366.954	7.36
367.162	7.62
367.371	8.35
367.58	8.1
367.789	7.8
367.998	7.66
368.207	7.96
368.415	7.74
368.624	7.62
368.833	7.53
369.042	7.19
369.25	6.71
369.459	6.7
369.668	6.09
369.877	5.78
370.085	5.86
370.294	5.82
370.503	5.4
370.711	5.83
370.92	5.86
371.129	5.99
371.337	6.29
371.546	6.64
371.754	6.58
371.963	6.7
372.171	6.86
372.38	6.75
372.589	6.83
372.797	6.99
373.006	6.66
373.214	6.8
373.423	6.69
373.631	6.11
373.84	6.38
374.048	6.52
374.256	6.47
374.465	6.2
374.673	6.5
374.882	6.44
375.09	6.34
375.298	6.53
375.507	6.32
375.715	6.14
375.923	6.62
376.132	6.3
376.34	5.99
376.548	6.19
376.757	6.48
376.965	6.07
377.173	6.13
377.381	5.98
377.59	5.94
377.798	6.03
378.006	6.19
378.214	5.94
378.423	5.99
378.631	6.31
378.839	6.12
379.047	6.17
379.255	6.55
379.463	6.27
379.671	6.58
379.879	6.88
380.088	7.18
380.296	7.2
380.504	7.44
380.712	7.41
380.92	7.2
381.128	7.02
381.336	6.81
381.544	6.89
381.752	7.17
381.96	6.87
382.168	6.58
382.376	6.13
382.584	5.9
382.791	6
382.999	5.86
383.207	5.88
383.415	5.74
383.623	5.81
383.831	5.57
384.039	5.78
384.247	5.86
384.454	5.76
384.662	5.84
384.87	5.86
385.078	5.72
385.285	5.77
385.493	5.75
385.701	6.06
385.909	6.38
386.116	6.28
386.324	6.34
386.532	6.31
386.739	6.73
386.947	6.57
387.155	6.96
387.362	7.09
387.57	7.29
387.778	7.43
387.985	7.3
388.193	7
388.4	7.14
388.608	7.09
388.816	7.16
389.023	6.74
389.231	6.79
389.438	6.72
389.646	6.5
389.853	6.3
390.061	5.99
390.268	6.25
390.475	6.17
390.683	5.99
390.89	5.62
391.098	5.83
391.305	6.07
391.512	6.25
391.72	6.16
391.927	6.09
392.135	5.9
392.342	6.13
392.549	5.97
392.756	5.94
392.964	6.11
393.171	6.35
393.378	6.21
393.586	6.07
393.793	6.11
394	6.03
394.207	6.23
394.414	6.39
394.622	6.32
394.829	6.32
395.036	6.58
395.243	6.74
395.45	6.58
395.657	6.37
395.864	6.22
396.072	6.2
396.279	6.19
396.486	6
396.693	5.9
396.9	5.99
397.107	6.1
397.314	5.88
397.521	5.54
397.728	5.61
397.935	5.86
398.142	5.88
398.349	5.7
398.556	5.8
398.763	5.8
398.97	5.96
399.177	5.79
399.383	5.91
399.59	6.03
399.797	6.22
400.004	6.43
400.211	6.41
400.418	6.42
400.625	6.49
400.831	6.42
401.038	6.54
401.245	6.67
401.452	6.68
401.658	6.37
401.865	6.24
402.072	6.16
402.279	5.9
402.485	5.79
402.692	5.76
402.899	5.71
403.105	5.78
403.312	5.85
403.519	5.72
403.725	5.76
403.932	5.97
404.138	6.09
404.345	6.21
404.552	6.2
404.758	6.4
404.965	6.75
405.171	6.83
405.378	6.96
405.584	6.81
405.791	6.85
405.997	6.76
406.204	6.61
406.41	6.69
406.617	6.61
406.823	6.73
407.029	6.76
407.236	6.62
407.442	6.74
407.649	6.54
407.855	6.71
408.061	7.02
408.268	7.18
408.474	7.31
408.68	7.2
408.887	7.18
409.093	7.23
409.299	7.06
409.505	6.96
409.712	6.85
409.918	6.9
410.124	6.89
410.33	6.57
410.537	6.53
410.743	6.66
410.949	6.71
411.155	6.71
411.361	6.8
411.567	6.74
411.773	7.05
411.98	7.01
412.186	7.06
412.392	6.98
412.598	7.16
412.804	7.25
413.01	7
413.216	6.92
413.422	7.05
413.628	6.91
413.834	7.05
414.04	6.72
414.246	6.83
414.452	6.89
414.658	7.14
414.864	7.16
415.07	7.13
415.275	7.28
415.481	7.25
415.687	7.26
415.893	7.39
416.099	7.35
416.305	7.32
416.511	7.44
416.716	7.49
416.922	7.44
417.128	7.49
417.334	7.57
417.539	7.62
417.745	7.75
417.951	7.58
418.157	7.55
418.362	7.55
418.568	7.68
418.774	7.64
418.979	7.56
419.185	7.6
419.391	7.58
419.596	7.46
419.802	7.39
420.008	7.47
420.213	8.22
420.419	8.17
420.624	8.26
420.83	8.3
421.035	8.26
421.241	8.35
421.446	8.29
421.652	8.36
421.857	8.46
422.063	8.51
422.268	8.47
422.474	7.93
422.679	8.01
422.885	7.99
423.09	7.88
423.295	7.88
423.501	7.8
423.706	7.85
423.911	7.82
424.117	7.92
424.322	7.98
424.527	8.03
424.733	8
424.938	7.97
425.143	7.93
425.349	8.01
425.554	8.11
425.759	8.21
425.964	8.17
426.169	8.12
426.375	8.04
426.58	7.98
426.785	7.83
426.99	7.85
427.195	7.91
427.4	8.07
427.605	8.19
427.811	8.08
428.016	7.97
428.221	8.17
428.426	8.15
428.631	8.29
428.836	8.21
429.041	8.31
429.246	8.43
429.451	8.38
429.656	8.31
429.861	8.3
430.066	8.52
430.271	8.65
430.476	8.51
430.681	8.61
430.886	8.54
431.09	8.76
431.295	8.85
431.5	8.79
431.705	8.85
431.91	8.86
432.115	8.72
432.32	8.62
432.524	8.56
432.729	8.54
432.934	8.46
433.139	8.53
433.343	8.39
433.548	8.38
433.753	8.42
433.958	8.31
434.162	8.27
434.367	8.25
434.572	8.35
434.776	8.38
434.981	8.43
435.186	8.51
435.39	8.43
435.595	8.58
435.799	8.57
436.004	8.47
436.209	8.51
436.413	8.53
436.618	8.62
436.822	8.55
437.027	8.54
437.231	8.63
437.436	8.58
437.64	8.66
437.845	8.66
438.049	8.72
438.253	8.71
438.458	8.85
438.662	8.94
438.867	9
439.071	9.06
439.275	9.18
439.48	9.2
439.684	9.26
439.888	9.19
440.093	9.08
440.297	9.09
440.501	9.15
440.706	9.07
440.91	9.02
441.114	9.03
441.318	9.05
441.523	8.99
441.727	8.85
441.931	8.9
442.135	8.92
442.339	9.01
442.543	9.04
442.748	9.12
442.952	9.14
443.156	9.23
443.36	9.29
443.564	9.18
443.768	9.25
443.972	9.29
444.176	9.23
444.38	9.23
444.584	9.2
444.788	9.15
444.992	9.07
445.196	9.2
445.4	9.19
445.604	9.1
445.808	9.12
446.012	9.1
446.216	9.13
446.42	9.1
446.624	9.04
446.828	9.1
447.032	9.12
447.235	9.19
447.439	9.15
447.643	9.06
447.847	9.1
448.051	9.08
448.254	9.12
448.458	9.1
448.662	9.12
448.866	9.1
449.069	9.06
449.273	8.96
449.477	8.86
449.681	8.75
449.884	8.86
450.088	8.92
450.292	8.99
450.495	8.87
450.699	8.85
450.902	8.85
451.106	9.06
451.31	9.08
451.513	9.23
451.717	9.3
451.92	9.41
452.124	9.4
452.327	9.31
452.531	9.26
452.734	9.33
452.938	9.39
453.141	9.48
453.345	9.43
453.548	9.55
453.752	9.43
453.955	9.36
454.158	9.28
454.362	9.37
454.565	9.33
454.769	9.22
454.972	9.22
455.175	9.19
455.379	9.16
455.582	9.13
455.785	8.94
455.988	9.02
456.192	9.11
456.395	9.09
456.598	8.97
456.801	9
457.005	9.17
457.208	9.16
457.411	9.14
457.614	9.18
457.817	9.18
458.021	9.25
458.224	9.28
458.427	9.27
458.63	9.42
458.833	9.36
459.036	9.37
459.239	9.49
459.442	9.4
459.645	9.42
459.848	9.44
460.051	9.42
460.254	9.51
460.457	9.44
460.66	9.44
460.863	9.25
461.066	9.36
461.269	9.36
461.472	9.36
461.675	9.42
461.878	9.45
462.081	9.27
462.284	9.23
462.486	9.22
462.689	9.29
462.892	9.22
463.095	9.47
463.298	9.39
463.5	9.39
463.703	9.23
463.906	9.19
464.109	9.15
464.311	9.3
464.514	9.47
464.717	9.48
464.92	9.55
465.122	9.56
465.325	9.54
465.528	9.61
465.73	9.65
465.933	9.69
466.135	9.76
466.338	9.82
466.541	9.84
466.743	9.72
466.946	9.62
467.148	9.46
467.351	9.55
467.553	9.44
467.756	9.38
467.958	9.38
468.161	9.37
468.363	9.33
468.566	9.26
468.768	9.23
468.971	9.25
469.173	9.32
469.375	9.35
469.578	9.19
469.78	9.17
469.983	9.25
470.185	9.23
470.387	9.17
470.59	9.32
470.792	9.39
470.994	9.37
471.196	9.37
471.399	9.21
471.601	9.24
471.803	9.28
472.005	9.42
472.208	9.44
472.41	9.43
472.612	9.37
472.814	9.23
473.016	9.26
473.218	9.34
473.421	9.38
473.623	9.46
473.825	9.47
474.027	9.5
474.229	9.37
474.431	9.28
474.633	9.28
474.835	9.43
475.037	9.41
475.239	9.45
475.441	9.49
475.643	9.35
475.845	9.42
476.047	9.48
476.249	9.53
476.451	9.69
476.653	9.81
476.855	9.92
477.057	9.97
477.258	9.96
477.46	9.89
477.662	9.77
477.864	9.87
478.066	9.76
478.268	9.72
478.469	9.79
478.671	9.8
478.873	9.76
479.075	9.68
479.276	9.58
479.478	9.75
479.68	9.74
479.882	9.72
480.083	9.85
480.285	9.8
480.487	9.77
480.688	9.63
480.89	9.66
481.091	9.6
481.293	9.58
481.495	9.55
481.696	9.47
481.898	9.45
482.099	9.47
482.301	9.37
482.502	9.43
482.704	9.44
482.905	9.46
483.107	9.41
483.308	9.42
483.51	9.47
483.711	9.48
483.913	9.5
484.114	9.52
484.315	9.51
484.517	9.53
484.718	9.53
484.92	9.52
485.121	9.55
485.322	9.56
485.524	9.55
485.725	9.49
485.926	9.52
486.127	9.5
486.329	9.46
486.53	9.44
486.731	9.44
486.932	9.42
487.134	9.42
487.335	9.42
487.536	9.44
487.737	9.5
487.938	9.54
488.139	9.57
488.341	9.57
488.542	9.59
488.743	9.67
488.944	9.67
489.145	9.75
489.346	9.8
489.547	9.82
489.748	9.77
489.949	9.75
490.15	9.73
490.351	9.66
490.552	9.71
490.753	9.73
490.954	9.7
491.155	9.74
491.356	9.72
491.557	9.7
491.758	9.7
491.959	9.75
492.159	9.68
492.36	9.76
492.561	9.81
492.762	9.82
492.963	9.82
493.164	9.8
493.364	9.83
493.565	9.83
493.766	9.87
493.967	9.8
494.167	9.87
494.368	9.97
494.569	9.95
494.769	9.94
494.97	9.92
495.171	9.94
495.371	9.98
495.572	9.97
495.773	9.97
495.973	10.03
496.174	10.12
496.375	10.06
496.575	10
496.776	9.91
496.976	9.93
497.177	9.95
497.377	9.95
497.578	10
497.778	10
497.979	10.07
498.179	10.13
498.38	10.14
498.58	10.14
498.78	10.22
498.981	10.31
499.181	10.22
499.382	10.19
499.582	10.22
499.782	10.22
499.983	10.25
500.183	10.16
500.383	10.08
500.584	10.04
500.784	10.04
500.984	10
501.184	9.96
501.385	10.05
501.585	10.07
501.785	10.08
501.985	10.19
502.185	10.18
502.386	10.23
502.586	10.24
502.786	10.23
502.986	10.18
503.186	10.24
503.386	10.4
503.586	10.47
503.786	10.53
503.987	10.53
504.187	10.42
504.387	10.44
504.587	10.39
504.787	10.36
504.987	10.4
505.187	10.49
505.387	10.48
505.587	10.27
505.786	10.26
505.986	10.24
506.186	10.25
506.386	10.25
506.586	10.16
506.786	10.25
506.986	10.28
507.186	10.28
507.386	10.31
507.585	10.33
507.785	10.41
507.985	10.37
508.185	10.38
508.384	10.46
508.584	10.55
508.784	10.69
508.984	10.73
509.183	10.73
509.383	10.78
509.583	10.81
509.782	10.87
509.982	11
510.182	11.06
510.381	11.12
510.581	11.12
510.781	11.14
510.98	11.19
511.18	11.13
511.379	11.26
511.579	11.33
511.778	11.32
511.978	11.3
512.177	11.34
512.377	11.48
512.576	11.48
512.776	11.41
512.975	11.38
513.175	11.36
513.374	11.47
513.573	11.48
513.773	11.54
513.972	11.57
514.172	11.68
514.371	11.6
514.57	11.53
514.77	11.65
514.969	11.71
515.168	11.75
515.367	11.8
515.567	11.81
515.766	11.81
515.965	11.71
516.164	11.87
516.364	11.78
516.563	11.85
516.762	11.85
516.961	11.83
517.16	11.93
517.359	11.99
517.559	12.09
517.758	12.14
517.957	12.18
518.156	12.27
518.355	12.23
518.554	12.29
518.753	12.31
518.952	12.35
519.151	12.36
519.35	12.45
519.549	12.48
519.748	12.44
519.947	12.53
520.146	12.54
520.345	12.58
520.544	12.64
520.743	12.73
520.942	12.78
521.141	12.89
521.339	12.93
521.538	12.94
521.737	13.01
521.936	13.07
522.135	13.03
522.333	13.09
522.532	13.09
522.731	13.18
522.93	13.23
523.129	13.28
523.327	13.25
523.526	13.37
523.725	13.28
523.923	13.41
524.122	13.49
524.321	13.55
524.519	13.58
524.718	13.66
524.917	13.73
525.115	13.73
525.314	13.8
525.512	13.91
525.711	13.96
525.909	14.09
526.108	14.1
526.306	14.11
526.505	14.13
526.703	14.23
526.902	14.29
527.1	14.37
527.299	14.45
527.497	14.48
527.696	14.45
527.894	14.47
528.092	14.51
528.291	14.5
528.489	14.53
528.688	14.55
528.886	14.59
529.084	14.59
529.283	14.6
529.481	14.62
529.679	14.62
529.877	14.68
530.076	14.7
530.274	14.71
530.472	14.77
530.67	14.84
530.869	14.92
531.067	14.93
531.265	14.97
531.463	15.06
531.661	15.04
531.859	15.18
532.057	15.2
532.255	15.33
532.454	15.39
532.652	15.4
532.85	15.43
533.048	15.44
533.246	15.52
533.444	15.58
533.642	15.54
533.84	15.61
534.038	15.58
534.236	15.65
534.434	15.6
534.632	15.7
534.83	15.8
535.027	15.87
535.225	15.98
535.423	15.98
535.621	16.03
535.819	16.16
536.017	16.22
536.215	16.34
536.412	16.38
536.61	16.44
536.808	16.44
537.006	16.45
537.203	16.49
537.401	16.53
537.599	16.62
537.797	16.71
537.994	16.72
538.192	16.75
538.39	16.83
538.587	16.99
538.785	17.04
538.983	17.12
539.18	17.25
539.378	17.28
539.575	17.37
539.773	17.37
539.97	17.37
540.168	17.35
540.366	17.41
540.563	17.38
540.761	17.4
540.958	17.47
541.155	17.47
541.353	17.46
541.55	17.46
541.748	17.4
541.945	17.45
542.143	17.52
542.34	17.61
542.537	17.6
542.735	17.64
542.932	17.63
543.129	17.64
543.327	17.73
543.524	17.83
543.721	17.99
543.919	18.18
544.116	18.19
544.313	18.29
544.51	18.27
544.708	18.43
544.905	18.56
545.102	18.65
545.299	18.83
545.496	18.96
545.693	18.96
545.891	18.98
546.088	19
546.285	19.03
546.482	18.97
546.679	18.98
546.876	19
547.073	18.99
547.27	18.96
547.467	18.91
547.664	18.79
547.861	18.68
548.058	18.54
548.255	18.5
548.452	18.53
548.649	18.55
548.846	18.59
549.043	18.49
549.24	18.36
549.437	18.25
549.633	18.27
549.83	18.2
550.027	18.35
550.224	18.43
550.421	18.43
550.618	18.38
550.814	18.36
551.011	18.47
551.208	18.53
551.405	18.62
551.601	18.78
551.798	18.84
551.995	18.93
552.191	18.86
552.388	18.94
552.585	18.98
552.781	19.02
552.978	19.04
553.175	18.98
553.371	18.9
553.568	18.87
553.764	18.81
553.961	18.79
554.157	18.86
554.354	18.95
554.55	18.83
554.747	18.82
554.943	18.83
555.14	18.71
555.336	18.77
555.533	18.86
555.729	18.94
555.926	18.94
556.122	18.97
556.318	18.85
556.515	18.85
556.711	19.05
556.907	19.07
557.104	19.09
557.3	19.14
557.496	19.12
557.693	19.2
557.889	19.19
558.085	19.17
558.281	19.03
558.478	19.09
558.674	19.13
558.87	19.04
559.066	18.97
559.262	18.92
559.459	19.09
559.655	19.18
559.851	19.23
560.047	19.35
560.243	19.52
560.439	19.53
560.635	19.55
560.831	19.35
561.027	19.32
561.223	19.42
561.419	19.35
561.615	19.27
561.811	19.24
562.007	19.21
562.203	19.07
562.399	18.94
562.595	19.14
562.791	19.26
562.987	19.31
563.183	19.37
563.379	19.28
563.575	19.54
563.771	19.68
563.966	19.8
564.162	19.86
564.358	19.91
564.554	19.96
564.75	19.89
564.945	19.79
565.141	19.96
565.337	19.86
565.533	19.89
565.728	19.76
565.924	19.78
566.12	19.62
566.315	19.46
566.511	19.41
566.707	19.37
566.902	19.36
567.098	19.28
567.293	19.2
567.489	19.32
567.684	19.37
567.88	19.35
568.076	19.38
568.271	19.53
568.467	19.6
568.662	19.62
568.858	19.81
569.053	19.72
569.248	19.94
569.444	20.04
569.639	20.07
569.835	20.03
570.03	20.12
570.225	20.09
570.421	20.11
570.616	20.19
570.812	20.28
571.007	20.13
571.202	20.16
571.397	20.08
571.593	19.89
571.788	19.76
571.983	19.8
572.178	19.82
572.374	19.72
572.569	19.78
572.764	19.64
572.959	19.55
573.154	19.53
573.35	19.49
573.545	19.44
573.74	19.63
573.935	19.83
574.13	19.74
574.325	19.86
574.52	20
574.715	19.96
574.91	20.13
575.105	20.28
575.3	20.43
575.495	20.54
575.69	20.55
575.885	20.66
576.08	20.6
576.275	20.65
576.47	20.64
576.665	20.56
576.86	20.49
577.055	20.43
577.25	20.42
577.444	20.25
577.639	20.37
577.834	20.41
578.029	20.33
578.224	20.41
578.418	20.5
578.613	20.32
578.808	20.5
579.003	20.66
579.197	20.8
579.392	20.81
579.587	20.8
579.781	20.6
579.976	20.6
580.171	20.63
580.365	20.63
580.56	20.61
580.755	20.76
580.949	20.63
581.144	20.58
581.338	20.52
581.533	20.47
581.727	20.7
581.922	20.74
582.116	20.87
582.311	20.95
582.505	20.9
582.7	20.96
582.894	21.01
583.089	20.92
583.283	20.99
583.478	20.99
583.672	21.04
583.866	21.15
584.061	21.21
584.255	21.1
584.449	21.02
584.644	21.27
584.838	21.31
585.032	21.18
585.226	21.27
585.421	21.12
585.615	21.02
585.809	20.93
586.003	20.92
586.198	20.84
586.392	20.92
586.586	21.04
586.78	20.81
586.974	20.74
587.168	20.92
587.363	21.01
587.557	21.07
587.751	21.15
587.945	21.15
588.139	21.04
588.333	21.02
588.527	20.89
588.721	20.7
588.915	20.67
589.109	20.96
589.303	20.85
589.497	20.85
589.691	20.95
589.885	21.13
590.079	21.15
590.273	21.12
590.466	21.33
590.66	21.36
590.854	21.46
591.048	21.69
591.242	21.53
591.436	21.64
591.629	21.69
591.823	21.61
592.017	21.44
592.211	21.37
592.404	21.4
592.598	21.32
592.792	21.53
592.986	21.56
593.179	21.5
593.373	21.29
593.567	21.15
593.76	21.13
593.954	21.19
594.147	21.23
594.341	21.48
594.535	21.47
594.728	21.56
594.922	21.39
595.115	21.38
595.309	21.35
595.502	21.5
595.696	21.72
595.889	21.55
596.083	21.55
596.276	21.51
596.47	21.45
596.663	21.59
596.856	21.61
597.05	21.72
597.243	21.68
597.437	21.62
597.63	21.68
597.823	21.46
598.017	21.66
598.21	21.67
598.403	21.72
598.596	21.89
598.79	21.79
598.983	21.69
599.176	21.6
599.369	21.64
599.563	21.71
599.756	21.64
599.949	21.83
600.142	21.77
600.335	21.69
600.528	21.74
600.722	21.65
600.915	21.76
601.108	21.82
601.301	22.11
601.494	22.34
601.687	22.48
601.88	22.5
602.073	22.35
602.266	22.28
602.459	22.32
602.652	22.37
602.845	22.25
603.038	21.98
603.231	21.97
603.424	21.73
603.617	21.53
603.809	21.47
604.002	21.44
604.195	21.51
604.388	21.65
604.581	21.64
604.774	21.54
604.966	21.57
605.159	21.64
605.352	21.6
605.545	21.46
605.737	21.46
605.93	21.37
606.123	21.46
606.316	21.47
606.508	21.35
606.701	21.44
606.894	21.58
607.086	21.64
607.279	21.7
607.471	21.86
607.664	22.19
607.857	22.39
608.049	22.67
608.242	22.86
608.434	22.96
608.627	23.37
608.819	23.51
609.012	23.97
609.204	24.41
609.397	24.91
609.589	25.35
609.782	25.73
609.974	26.19
610.166	26.67
610.359	27.06
610.551	27.49
610.743	27.69
610.936	28.28
611.128	28.47
611.32	28.51
611.513	28.66
611.705	28.58
611.897	28.66
612.09	28.58
612.282	28.12
612.474	28.01
612.666	27.84
612.858	27.59
613.051	27.04
613.243	26.84
613.435	26.79
613.627	26.42
613.819	26.25
614.011	25.99
614.203	25.67
614.395	25.66
614.588	25.41
614.78	25.31
614.972	25.22
615.164	25.01
615.356	24.63
615.548	24.33
615.74	24.34
615.932	24.29
616.124	24.08
616.315	24.01
616.507	23.94
616.699	23.7
616.891	23.71
617.083	23.57
617.275	23.58
617.467	23.39
617.659	23.39
617.85	23.29
618.042	23.19
618.234	23.03
618.426	23.01
618.618	22.97
618.809	22.9
619.001	22.66
619.193	22.8
619.384	22.82
619.576	22.87
619.768	22.71
619.959	22.52
620.151	22.38
620.343	22.65
620.534	22.59
620.726	22.29
620.917	22.2
621.109	22.31
621.301	22.18
621.492	22.19
621.684	22.29
621.875	22.5
622.067	22.69
622.258	22.83
622.45	22.59
622.641	22.78
622.832	23.1
623.024	23.44
623.215	23.4
623.407	23.38
623.598	23.41
623.789	23.5
623.981	23.38
624.172	23.28
624.363	23.26
624.555	23.32
624.746	23.21
624.937	23.33
625.129	23.31
625.32	23.15
625.511	23.18
625.702	23.08
625.893	22.95
626.085	22.96
626.276	23.18
626.467	23.07
626.658	23.27
626.849	23.37
627.04	23.28
627.231	23.23
627.422	23.32
627.614	23.34
627.805	23.43
627.996	23.48
628.187	23.46
628.378	23.31
628.569	23.59
628.76	23.44
628.951	23.35
629.142	23.41
629.332	23.5
629.523	23.58
629.714	23.8
629.905	23.92
630.096	24.08
630.287	24.32
630.478	24.45
630.669	24.23
630.859	24.26
631.05	24.11
631.241	23.91
631.432	23.7
631.623	23.68
631.813	23.5
632.004	23.4
632.195	23.24
632.385	23.08
632.576	22.97
632.767	23.06
632.957	23.27
633.148	23.31
633.339	23.47
633.529	23.66
633.72	23.65
633.91	23.38
634.101	23.1
634.292	23.28
634.482	23.31
634.673	23.53
634.863	23.52
635.054	23.36
635.244	23.52
635.435	23.21
635.625	23.14
635.815	23.01
636.006	23.3
636.196	23.39
636.387	23.4
636.577	23.09
636.767	22.74
636.958	22.79
637.148	22.71
637.338	22.62
637.529	22.76
637.719	22.63
637.909	22.76
638.099	22.7
638.29	22.62
638.48	22.39
638.67	22.36
638.86	22.51
639.05	22.3
639.241	22.63
639.431	22.7
639.621	22.93
639.811	23.19
640.001	23.24
640.191	23.12
640.381	23.4
640.571	23.46
640.761	23.81
640.951	23.49
641.141	23.7
641.331	23.51
641.521	23.48
641.711	23.36
641.901	23.23
642.091	23.17
642.281	23.2
642.471	23.32
642.661	23.43
642.851	23.29
643.041	23.72
643.231	23.64
643.42	23.49
643.61	23.43
643.8	23.14
643.99	23.13
644.18	23.44
644.369	23.66
644.559	23.57
644.749	23.55
644.939	23.68
645.128	23.45
645.318	23.66
645.508	23.79
645.697	24.08
645.887	24.19
646.076	24.29
646.266	23.89
646.456	23.78
646.645	24.19
646.835	23.97
647.024	23.81
647.214	24.04
647.403	23.64
647.593	23.66
647.782	23.55
647.972	23.77
648.161	23.7
648.351	24.01
648.54	23.96
648.73	23.46
648.919	23.67
649.108	24
649.298	24.1
649.487	24.52
649.677	24.44
649.866	24.34
650.055	24.01
650.244	24.2
650.434	24.08
650.623	23.99
650.812	24.1
651.002	24.01
651.191	23.64
651.38	23.57
651.569	23.47
651.758	23.33
651.947	23.4
652.137	23.84
652.326	23.57
652.515	23.6
652.704	23.83
652.893	23.87
653.082	24.02
653.271	24.29
653.46	24.14
653.649	24.25
653.838	24.56
654.027	24.62
654.216	24.43
654.405	24.52
654.594	24.34
654.783	24.15
654.972	23.98
655.161	23.9
655.35	23.58
655.539	23.7
655.728	23.51
655.916	23.19
656.105	23.08
656.294	23.29
656.483	23.26
656.672	23.44
656.86	23.51
657.049	23.73
657.238	23.8
657.427	23.98
657.615	23.95
657.804	23.86
657.993	24.09
658.181	23.9
658.37	23.82
658.559	24.21
658.747	24.06
658.936	24.15
659.125	23.81
659.313	23.78
659.502	23.69
659.69	23.6
659.879	23.86
660.067	23.88
660.256	24.25
660.444	24.34
660.633	23.91
660.821	23.96
661.01	24.08
661.198	24.41
661.387	24.33
661.575	24.36
661.763	24.31
661.952	24.14
662.14	24.12
662.328	23.79
662.517	23.67
662.705	23.84
662.893	24.13
663.082	23.95
663.27	23.79
663.458	23.83
663.646	23.97
663.834	24.26
664.023	24.34
664.211	23.99
664.399	23.89
664.587	23.76
664.775	23.79
664.963	23.58
665.152	23.48
665.34	23.5
665.528	23.44
665.716	23.49
665.904	23.45
666.092	23.48
666.28	23.58
666.468	23.98
666.656	24.13
666.844	23.9
667.032	24.05
667.22	24.1
667.408	24.21
667.596	24.33
667.784	24.19
667.971	24.14
668.159	24.12
668.347	24.13
668.535	23.9
668.723	23.81
668.911	23.74
669.098	23.49
669.286	23.48
669.474	23.39
669.662	23.27
669.849	23.17
670.037	23.34
670.225	23.31
670.413	23.73
670.6	23.81
670.788	24.07
670.976	24.28
671.163	24.49
671.351	24.56
671.538	24.44
671.726	24.69
671.913	24.72
672.101	24.49
672.289	24.63
672.476	24.27
672.664	24.41
672.851	24.15
673.039	24.06
673.226	23.76
673.413	23.63
673.601	24.02
673.788	23.78
673.976	24.25
674.163	24.51
674.35	24.48
674.538	24.73
674.725	24.51
674.912	24.86
675.1	24.98
675.287	25.23
675.474	25.27
675.662	25.18
675.849	25.11
676.036	24.52
676.223	24.38
676.411	24.29
676.598	24.05
676.785	24.02
676.972	23.76
677.159	23.74
677.346	23.82
677.533	23.8
677.721	23.75
677.908	23.92
678.095	24.46
678.282	24.35
678.469	24.5
678.656	24.59
678.843	24.74
679.03	24.58
679.217	24.51
679.404	24.37
679.591	24.73
679.778	24.82
679.964	24.67
680.151	24.62
680.338	24.72
680.525	24.44
680.712	24.45
680.899	24.65
681.086	24.86
681.272	24.94
681.459	24.8
681.646	24.61
681.833	24.55
682.02	24.6
682.206	24.36
682.393	24.57
682.58	24.44
682.766	24.52
682.953	23.94
683.14	24.11
683.326	24.36
683.513	24.6
683.7	24.72
683.886	24.86
684.073	24.89
684.259	25.08
684.446	24.99
684.632	25.19
684.819	25.04
685.005	25.58
685.192	25.19
685.378	25.28
685.565	25.32
685.751	24.98
685.938	24.82
686.124	24.59
686.31	24.73
686.497	24.42
686.683	24.69
686.87	24.66
687.056	24.57
687.242	24.61
687.429	24.81
687.615	25.16
687.801	24.88
687.987	25
688.174	25.13
688.36	24.7
688.546	24.79
688.732	24.55
688.918	24.68
689.105	24.9
689.291	25.26
689.477	24.67
689.663	24.09
689.849	24.65
690.035	24.32
690.221	24.56
690.407	24.92
690.593	25.07
690.779	24.89
690.965	25.05
691.151	24.6
691.337	24.04
691.523	24.3
691.709	24.64
691.895	24.69
692.081	25.02
692.267	25.27
692.453	25.31
692.639	25.37
692.825	25.19
693.011	25.01
693.196	25.35
693.382	25.79
693.568	25.7
693.754	25.67
693.94	25.5
694.125	25.55
694.311	25.32
694.497	25.4
694.682	24.86
694.868	25.07
695.054	25.34
695.239	25.24
695.425	25.16
695.611	25.13
695.796	25.34
695.982	24.94
696.168	24.74
696.353	24.78
696.539	24.81
696.724	25.1
696.91	25.51
697.095	25.38
697.281	25.19
697.466	25.18
697.652	25.11
697.837	24.69
698.023	25.07
698.208	24.96
698.393	24.94
698.579	24.69
698.764	24.69
698.949	24.51
699.135	24.49
699.32	24.51
699.505	24.56
699.691	24.75
699.876	24.91
700.061	24.66
700.246	24.9
700.432	24.76
700.617	24.99
700.802	25.08
700.987	25.21
701.172	25.3
701.358	25.75
701.543	25.37
701.728	25.53
701.913	25.55
702.098	25.54
702.283	25.43
702.468	25.62
702.653	25.4
702.838	25.37
703.023	25.14
703.208	25.15
703.393	24.67
703.578	25.16
703.763	24.58
703.948	25.01
704.133	25.34
704.318	25.11
704.503	25.66
704.688	26.47
704.873	26.97
705.057	27.26
705.242	27.03
705.427	27.18
705.612	26.99
705.797	27.3
705.981	27.22
706.166	27.66
706.351	28.06
706.536	27.59
706.72	27.34
706.905	27.42
707.09	27.44
707.274	27.92
707.459	27.94
707.644	27.85
707.828	27.77
708.013	27.71
708.197	27.29
708.382	27.45
708.567	27.64
708.751	27.35
708.936	26.88
709.12	27.05
709.305	26.6
709.489	26.6
709.673	26.82
709.858	27
710.042	26.97
710.227	26.93
710.411	26.81
710.596	26.77
710.78	26.91
710.964	27.09
711.149	27.18
711.333	27.22
711.517	26.94
711.702	26.56
711.886	26.57
712.07	26.67
712.254	26.52
712.438	26.47
712.623	26.37
712.807	26.16
712.991	25.63
713.175	25.45
713.359	25.59
713.544	25.63
713.728	26.28
713.912	25.99
714.096	25.91
714.28	25.92
714.464	26
714.648	25.8
714.832	25.68
715.016	25.99
715.2	26.07
715.384	26.2
715.568	26.59
715.752	26.31
715.936	26.26
716.12	25.78
716.304	25.94
716.488	26.04
716.671	25.95
716.855	25.68
717.039	25.6
717.223	25.35
717.407	25.09
717.59	24.9
717.774	24.98
717.958	24.64
718.142	25.37
718.325	25.1
718.509	24.71
718.693	24.86
718.877	24.94
719.06	25.13
719.244	25.1
719.428	25.03
719.611	25.39
719.795	25.13
719.978	25.76
720.162	25.41
720.345	25.66
720.529	25.84
720.713	26.23
720.896	26.47
721.08	26.27
721.263	26.5
721.446	26.64
721.63	26.04
721.813	25.84
721.997	25.68
722.18	26.06
722.364	26.13
722.547	25.82
722.73	25.73
722.914	25.59
723.097	25.99
723.28	26.74
723.464	26.5
723.647	26.68
723.83	26.6
724.013	26.94
724.197	26.53
724.38	25.99
724.563	26.12
724.746	25.81
724.929	26.05
725.112	26.2
725.296	25.41
725.479	25.71
725.662	25.98
725.845	26.13
726.028	26.15
726.211	25.93
726.394	26.29
726.577	26.34
726.76	26.4
726.943	25.76
727.126	25.1
727.309	25.81
727.492	25.52
727.675	24.63
727.858	24.57
728.041	24.41
728.224	24.01
728.407	23.88
728.589	24.08
728.772	24.02
728.955	24.37
729.138	24.79
729.321	23.94
729.503	24.06
729.686	24.91
729.869	24.96
730.052	24.64
730.234	25.31
730.417	25.1
730.6	24.97
730.782	25.56
730.965	25.85
731.148	25.1
731.33	25.05
731.513	24.93
731.695	24.52
731.878	24.7
732.061	25.15
732.243	25.04
732.426	25.48
732.608	25.8
732.791	25.41
732.973	25.22
733.156	25.54
733.338	25.86
733.52	26.49
733.703	26.62
733.885	26.49
734.068	26.4
734.25	26.23
734.432	26.25
734.615	26.23
734.797	25.99
734.979	25.78
735.162	25.84
735.344	25.69
735.526	24.91
735.708	24.97
735.891	24.98
736.073	25.03
736.255	25.81
736.437	25.92
736.619	25.46
736.802	26.1
736.984	26.16
737.166	26.25
737.348	25.94
737.53	26.16
737.712	25.77
737.894	25.95
738.076	26
738.258	25.39
738.44	25.06
738.622	24.92
738.804	24.26
738.986	25.11
739.168	25.69
739.35	25.4
739.532	25.4
739.714	26.18
739.896	26.58
740.078	26.14
740.259	26.07
740.441	26.19
740.623	26.6
740.805	26.51
740.987	25.79
741.168	24.86
741.35	25.1
741.532	25.24
741.714	25.08
741.895	24.25
742.077	23.72
742.259	23.24
742.44	23.15
742.622	23.07
742.804	23.64
742.985	23.87
743.167	24.1
743.348	24.16
743.53	23.73
743.711	23.95
743.893	24.63
744.075	25.07
744.256	25.5
744.438	25.87
744.619	26.36
744.8	25.37
744.982	24.8
745.163	24.64
745.345	24.82
745.526	25.35
745.707	25.15
745.889	25.09
746.07	25.95
746.252	26.47
746.433	25.83
746.614	24.98
746.795	25.47
746.977	25.38
747.158	25.43
747.339	25.59
747.52	25.37
747.702	24.98
747.883	24.24
748.064	24.52
748.245	24.51
748.426	24.71
748.607	24.85
748.788	24.91
748.97	26.16
749.151	26.97
749.332	27.03
749.513	26.72
749.694	27.67
749.875	27.99
750.056	27.83
750.237	27.18
750.418	27.41
750.599	27.57
750.78	27.11
750.96	26.67
751.141	26.33
751.322	25.74
751.503	26.07
751.684	25.6
751.865	26.09
752.046	25.89
752.226	25.99
752.407	26.06
752.588	25.96
752.769	26.49
752.949	26.56
753.13	25.74
753.311	26.26
753.492	25.58
753.672	25.61
753.853	25.11
754.034	23.71
754.214	23.9
754.395	23.85
754.575	24.15
754.756	24.27
754.937	23.58
755.117	24.32
755.298	23.67
755.478	24.4
755.659	24.42
755.839	24.6
756.02	24.83
756.2	25.13
756.381	24.92
756.561	24.49
756.741	24.16
756.922	24.25
757.102	24.19
757.283	25.23
757.463	25.56
757.643	25.31
757.823	24.94
758.004	25.96
758.184	25.51
758.364	25.62
758.545	26.35
758.725	27.19
758.905	27.19
759.085	27.78
759.265	26.85
759.446	27.02
759.626	26.7
759.806	26.46
759.986	26.25
760.166	26.15
760.346	26.63
760.526	26.72
760.706	25.8
760.886	25.22
761.066	24.94
761.246	25.68
761.426	24.83
761.606	24.49
761.786	25.32
761.966	25.59
762.146	25.56
762.326	24.84
762.506	24.3
762.686	24.51
762.866	25.36
763.046	24.99
763.225	24.66
763.405	24.88
763.585	25.21
763.765	24.69
763.945	24.15
764.124	24.47
764.304	24.84
764.484	24.9
764.664	25.12
764.843	25.24
765.023	25.23
765.203	24.88
765.382	25.29
765.562	25.52
765.741	25.86
765.921	26.31
766.101	26.4
766.28	25.94
766.46	26.49
766.639	26.79
766.819	26.03
766.998	26.28
767.178	26.47
767.357	25.69
767.537	25.28
767.716	25.85
767.896	26.21
768.075	26.21
768.254	27.47
768.434	27.63
768.613	27.58
768.792	28.39
768.972	27.78
769.151	28.21
769.33	28.38
769.51	27.93
769.689	27.11
769.868	25.98
770.047	25.72
770.226	24.63
770.406	23.54
770.585	23.17
770.764	22.88
770.943	24.03
771.122	23.82
771.301	24.31
771.48	24.47
771.66	24.85
771.839	24.86
772.018	24.77
772.197	24.57
772.376	24.86
772.555	25.32
772.734	25.28
772.913	24.94
773.092	24.59
773.271	24.37
773.449	24.7
773.628	25.4
773.807	25.56
773.986	26.04
774.165	26.24
774.344	26.31
774.523	25.37
774.701	25.53
774.88	25.74
775.059	26.62
775.238	26.62
775.417	27.02
775.595	25.96
775.774	27.01
775.953	25.89
776.131	26.21
776.31	25.39
776.489	25.36
776.667	24.34
776.846	24.53
777.025	23.86
777.203	24.32
777.382	24.3
777.56	24.54
777.739	24.41
777.917	24.94
778.096	24.66
778.274	25.24
778.453	26.36
778.631	27.59
778.81	27.28
778.988	27.23
779.166	26.87
779.345	26.59
779.523	26.55
779.702	26.18
779.88	26.67
780.058	27.16
780.237	27.22
780.415	26.14
780.593	27.01
780.771	25.47
780.95	26.15
781.128	25.78
781.306	26.5
781.484	28.12
781.662	28.12
781.841	27.24
782.019	27.4
782.197	27.01
782.375	27.12
782.553	25.47
782.731	27.75
782.909	27.68
783.087	27.37
783.265	26.28
783.443	24.74
783.621	23.59
783.799	23.02
783.977	21.47
784.155	21.35
784.333	21.46
784.511	22.43
784.689	22.42
784.867	23.22
785.045	22.96
785.223	22.97
785.4	23.98
785.578	24.84
785.756	25.21
785.934	26.15
786.112	25.52
786.289	26.21
786.467	25.86
786.645	25.47
786.823	24.9
787	26.46
787.178	27.27
787.356	26.01
787.533	26.22
787.711	26.93
787.889	26.95
788.066	27.29
788.244	26.57
788.421	26.14
788.599	26.14
788.776	26.04
788.954	25.43
789.131	25.17
789.309	25.23
789.486	26.05
789.664	24.75
789.841	24.22
790.019	24.4
790.196	24.43
790.373	24.85
790.551	25.18
790.728	25.76
790.906	26.15
791.083	26.01
791.26	25.71
791.437	24.26
791.615	26.09
791.792	25.4
791.969	25.09
792.146	25.98
792.324	24.32
792.501	23.32
792.678	22.3
792.855	21.26
793.032	21.25
793.209	21.45
793.387	22.21
793.564	21.39
793.741	22.89
793.918	23.7
794.095	22.09
794.272	23.57
794.449	23.24
794.626	24.42
794.803	24.86
794.98	25.52
795.157	27.1
795.334	25.7
795.511	24.5
795.688	24.73
795.864	24.17
796.041	24.72
796.218	24.5
796.395	25.23
796.572	24.11
796.749	23.96
796.925	24.68
797.102	23.86
797.279	24.48
797.456	27.23
797.632	26.22
797.809	26.7
797.986	28.37
798.162	28.06
798.339	27.37
798.516	27.52
798.692	27.9
798.869	26.19
799.046	25.71
799.222	26.35
799.399	24.74
799.575	26.91
799.752	26.84
799.928	25.12
800.105	25.76
800.281	26.05
800.458	26.78
800.634	26.53
800.811	26.54
800.987	26.72
801.163	27.61
801.34	27.4
801.516	26.71
801.692	26.1
801.869	26.4
802.045	25.95
802.221	26.48
802.398	25.21
802.574	22.86
802.75	23.05
802.926	22.45
803.103	21.18
803.279	22.14
803.455	19.07
803.631	19.09
803.807	18.09
803.983	18.03
804.16	16.24
804.336	17.45
804.512	19.39
804.688	18.38
804.864	19.29
805.04	20.35
805.216	18.28
805.392	21.61
805.568	22.7
805.744	22.31
805.92	23.61
806.096	25.62
806.272	26.71
806.448	27.71
806.623	28.67
806.799	27.33
806.975	25.05
807.151	25.04
807.327	24.23
807.503	24.31
807.678	26.36
807.854	24.61
808.03	24.82
808.206	23.48
808.381	22.58
808.557	21.6
808.733	22.85
808.908	23.89
809.084	25.55
809.26	26.29
809.435	27.05
809.611	26.31
809.787	28.79
809.962	27.29
810.138	27.96
810.313	28.79
810.489	29.71
810.664	29.08
810.84	29.23
811.015	28.13
811.191	25.94
811.366	23.91
811.542	24.41
811.717	22.96
811.892	24.69
812.068	23.71
812.243	21.2
812.419	19.6
812.594	19.93
812.769	19.56
812.944	20.86
813.12	22.97
813.295	23.54
813.47	22.47
813.645	21.86
813.821	21.17
813.996	20.45
814.171	22.22
814.346	23.19
814.521	23.31
814.697	25.18
814.872	25.26
815.047	25.78
815.222	26.31
815.397	26.26
815.572	27.25
815.747	27.49
815.922	30.27
816.097	31.54
816.272	31.79
816.447	29.55
816.622	28.74
816.797	27.9
816.972	26.2
817.147	25.26
817.322	24.76
817.496	25.94
817.671	23.94
817.846	21.56
818.021	19.4
818.196	20.21
818.371	21.87
818.545	21.15
818.72	21.42
818.895	22.3
819.069	22.17
819.244	22.47
819.419	20.14
819.594	21.43
819.768	22.26
819.943	22.54
820.117	22.04
820.292	22.38
820.467	22.37
820.641	21.61
820.816	21.63
820.99	21.93
821.165	22.02
821.339	22.46
821.514	22.61
821.688	22.61
821.863	22.61
822.037	22.81
822.212	22.84
822.386	22.89
822.56	23.34
822.735	23.57
822.909	23.57
823.084	23.74
823.258	23.76
823.432	23.37
823.606	23.37
823.781	23.56
823.955	23.57
824.129	23.67
824.303	23.59
824.478	23.53
824.652	23.11
824.826	22.98
825	22.88
825.174	23.02
825.348	23.42
825.523	23.05
825.697	22.87
825.871	22.88
826.045	22.97
826.219	22.92
826.393	23.06
826.567	22.91
826.741	23
826.915	23.38
827.089	23.37
827.263	23.27
827.437	23.73
827.611	23.71
827.784	23.81
827.958	23.68
828.132	24.27
828.306	24.18
828.48	23.69
828.654	23.81
828.827	23.24
829.001	23.33
829.175	23.57
829.349	23.24
829.522	23.86
829.696	23.32
829.87	23.52
830.044	24.17
830.217	23.6
830.391	25.03
830.565	24.84
830.738	25.57
830.912	26.25
831.085	25.66
831.259	25.49
831.432	24.05
831.606	22.81
831.779	22.3
831.953	19.92
832.126	20.83
832.3	21.38
832.473	22.46
832.647	21.38
832.82	21.37
832.994	22.11
833.167	22.92
833.34	23.07
833.514	23.89
833.687	23.57
833.86	23.03
834.034	23.2
834.207	22.32
834.38	22.1
834.553	22.39
834.727	21.92
834.9	21.5
835.073	20.8
835.246	20.43
835.419	20.87
835.593	20.99
835.766	20.85
835.939	19.71
836.112	20.3
836.285	19.99
836.458	19.72
836.631	18.69
836.804	17.98
836.977	17.96
837.15	17.85
837.323	15.88
837.496	15.82
837.669	17.49
837.842	16.07
838.015	16.43
838.188	13.83
838.361	13.39
838.533	13.9
838.706	17.37
838.879	18.64
839.052	20.3
839.225	22.51
839.398	20.93
839.57	21.14
839.743	22.45
839.916	23.1
840.088	27.53
840.261	28.85
840.434	29.29
840.607	26.35
840.779	25.19
840.952	24.72
841.124	21.57
841.297	25
841.47	25.76
841.642	26.74
841.815	27.88
841.987	26.46
842.16	24.65
842.332	24.6
842.505	28.23
842.677	28.57
842.85	27.53
843.022	30.77
843.194	25.48
843.367	24.87
843.539	24.99
843.712	24.64
843.884	20.91
844.056	20.51
844.229	18.53
844.401	14.18
844.573	11.4
844.745	16.23
844.918	17.81
845.09	22.92
845.262	23.69
845.434	23.27
845.606	18.23
845.779	20.54
845.951	21.05
846.123	19.1
846.295	17.43
846.467	16.77
846.639	15.35
846.811	11.4
846.983	9.93
847.155	4.9
847.327	5.41
847.499	3.02
847.671	3.62
847.843	4.57
848.015	12.24
848.187	14.96
848.359	18
848.531	13.89
848.703	12.9
848.875	10.96
849.047	15.2
849.218	15.39
849.39	20.06
849.562	18.3
849.734	17.35
849.905	12.96
850.077	17.4
850.249	14.27
850.421	15.3
850.592	17.48
850.764	19.73
850.936	10.42
851.107	10.44
851.279	2.61
851.451	0.17
851.622	2.47
851.794	-0.31
851.965	-11.66
852.137	-3.43
852.308	-2.26
852.48	-1.32
852.651	-4.1
852.823	6.68
852.994	8.73
853.166	12.32
853.337	15.78
853.509	17.99
853.68	21.55
853.851	26.27
854.023	22.19
854.194	23.43
854.365	21.12
854.537	21.09
854.708	16.68
854.879	11.34
855.05	9.45
855.222	10.88
855.393	7.5
855.564	10.74
855.735	9.18
855.906	9.89
856.078	6.9
856.249	8.4
856.42	8.98
856.591	15.76
856.762	18.1
856.933	19.33
857.104	17.72
857.275	13.63
857.446	11.25
857.617	12.63
857.788	12.15
857.959	14.78
858.13	14.82
858.301	15.03
858.472	11.52
858.643	14.08
858.814	16.26
858.985	16.01
859.155	25.62
859.326	24.74
859.497	26.17
859.668	33.86
859.839	30.3
860.009	33.48
860.18	33.7
860.351	31.44
860.522	27.74
860.692	29.71
860.863	31.59
861.034	24.39
861.204	22.09
861.375	25.52
861.546	19.33
861.716	22.37
861.887	19.05
862.057	23.27
862.228	22.86
862.398	21.93
862.569	16.49
862.739	9.78
862.91	16.55
863.08	12.03
863.251	9.57
863.421	11.93
863.592	12.12
863.762	9.83
863.932	2.88
864.103	7.41
864.273	6.47
864.443	6.25
864.614	13.23
864.784	14.17
864.954	22.38
865.125	18.77
865.295	18.14
865.465	14.88
865.635	17.06
865.805	22.25
865.976	21.04
866.146	24.42
866.316	22.08
866.486	20.84
866.656	15.58
866.826	21.34
866.996	19.7
867.166	10.1
867.336	14.35
867.506	12.93
867.676	3.44
867.846	6.66
868.016	5.58
868.186	15.77
868.356	14.55
868.526	10.2
868.696	-1.95
868.866	-1.5
869.036	2.44
869.206	7.28
869.376	6.01
869.545	15.72
869.715	12.22
869.885	9.38
870.055	5.04
870.224	3.84
870.394	11.04
870.564	17.9
870.734	22.31
870.903	21.61
871.073	11.43
871.243	12.57
871.412	7.33
871.582	11.49
871.751	21.9
871.921	20.61
872.091	22.93
872.26	18.83
872.43	14.75
872.599	11.86
872.769	17.34
872.938	19.35
873.108	15.79
873.277	15.98
873.446	7.87
873.616	-8
873.785	2.3
873.955	4.57
874.124	8.05
874.293	5.57
874.463	4.48
874.632	1.23
874.801	13.36
874.971	18.46
875.14	21.18
875.309	22.75
875.478	26.65
875.647	19.27
875.817	17.58
875.986	12.54
876.155	12.88
876.324	10.24
876.493	13.07
876.662	9.49
876.831	6.25
877	5.69
877.17	3.67
877.339	0.22
877.508	4.31
877.677	0.48
877.846	1.01
878.015	6.61
878.184	7.29
878.352	5.5
878.521	2.02
878.69	7.71
878.859	7.68
879.028	10.13
879.197	12.7
879.366	9.04
879.534	14.04
879.703	16.16
879.872	16.2
880.041	18.66
880.21	19.02
880.378	20.63
880.547	20.16
880.716	19.64
880.884	19.78
881.053	19.12
881.222	20.17
881.39	19.82
881.559	20.29
881.727	19.57
881.896	19.05
882.065	19.69
882.233	19.85
882.402	20
882.57	19.85
882.739	20.24
882.907	20.82
883.076	20.79
883.244	20.49
883.412	20.01
883.581	20.69
883.749	20.15
883.918	18.99
884.086	18.4
884.254	18.65
884.423	18.45
884.591	18.51
884.759	18.89
884.927	18.9
885.096	19.95
885.264	20.21
885.432	19.57
885.6	21.9
885.769	22.18
885.937	22.55
886.105	21.53
886.273	22.49
886.441	21.65
886.609	21.02
886.777	20.56
886.945	19.27
887.113	19.27
887.281	17.94
887.449	17.71
887.617	18.73
887.785	20.12
887.953	17.14
888.121	12.72
888.289	11.63
888.457	10.22
888.625	10
888.793	8.18
888.961	7.7
889.129	10.49
889.296	9.36
889.464	9.52
889.632	4.12
889.8	7.26
889.967	15.6
890.135	17.96
