Data from 2938795__Reflection_01.txt Node
Date: Fri Mar 13 10:42:11 EDT 2015
User: robert
Spectrometer: USB4E03002
Autoset integration time: false
Trigger mode: 4
Integration Time (sec): 1.000000E-1
Scans to average: 10
Electric dark correction enabled: false
Nonlinearity correction enabled: false
Boxcar width: 5
Stray light correction enabled: false
XAxis mode: Wavelengths
Stop averaging: false
Number of Pixels in Spectrum: 3648
>>>>>Begin Spectral Data<<<<<
177.575	494.43
177.794	629.64
178.014	588.71
178.233	840.15
178.452	791.67
178.672	990.21
178.891	1215.6
179.11	1351.75
179.33	1677.42
179.549	1312.65
179.768	2175
179.987	3887.84
180.207	1302.61
180.426	15788.89
180.645	1113.87
180.864	944.67
181.084	845.43
181.303	769.23
181.522	573.65
181.741	491.41
181.96	642.86
182.179	748.01
182.398	1281.58
182.618	18086.67
182.837	732.46
183.056	1123.33
183.275	1107.61
183.494	1279.55
183.713	928.71
183.932	2620.75
184.151	2462.04
184.37	1352.26
184.589	2578.1
184.808	836.63
185.027	836.31
185.246	1062.55
185.465	729.52
185.684	823.17
185.903	668.44
186.122	737.21
186.341	636.19
186.56	607.69
186.779	592.83
186.998	679.19
187.216	825.65
187.435	840.11
187.654	2393.08
187.873	6504.17
188.092	6531.91
188.311	42514.29
188.53	-2566.37
188.748	-3548.81
188.967	-1995.36
189.186	-6984.09
189.405	1842.51
189.623	1423.77
189.842	964.55
190.061	1006.19
190.28	1351.24
190.498	3202.04
190.717	1493.58
190.936	2044.74
191.154	1822.47
191.373	1461.33
191.592	2418.25
191.81	2751.24
192.029	3004.81
192.248	6675
192.466	2214.65
192.685	1987.42
192.904	1668.23
193.122	3600
193.341	1330.12
193.559	6034
193.778	-7607.5
193.996	19625
194.215	15238.1
194.433	-5605
194.652	-20125
194.87	-4429.17
195.089	14387.5
195.307	2216.67
195.526	4654.79
195.744	2132.68
195.963	1073.21
196.181	895.12
196.399	972.29
196.618	1295
196.836	1242.12
197.055	1210.32
197.273	823.8
197.491	1414.91
197.71	1657.84
197.928	1209.7
198.146	1524.88
198.365	1436.24
198.583	1611.7
198.801	957.74
199.019	776.03
199.238	677.05
199.456	782.68
199.674	1252.22
199.892	689.69
200.111	644.2
200.329	638.2
200.547	550.58
200.765	582.35
200.983	471.55
201.202	517.18
201.42	456.54
201.638	450
201.856	493.38
202.074	406.85
202.292	424.93
202.51	439.41
202.728	471.61
202.946	511.45
203.165	496.91
203.383	536.96
203.601	672.5
203.819	1084.62
204.037	1081.23
204.255	1155.99
204.473	1440.68
204.691	1009.44
204.909	1511.34
205.127	1770.53
205.345	2182.76
205.562	4571.6
205.78	4537.5
205.998	1650
206.216	1129.17
206.434	925.52
206.652	554.37
206.87	601.7
207.088	869.75
207.306	738.96
207.523	591.58
207.741	634.75
207.959	631.01
208.177	664.95
208.395	982.72
208.612	1002.69
208.83	1276.37
209.048	5644.23
209.266	1387.89
209.483	1589.76
209.701	1029.84
209.919	1373.91
210.136	734.79
210.354	594.51
210.572	522.32
210.79	562.83
211.007	603.74
211.225	796.6
211.442	618.42
211.66	629.96
211.878	434.41
212.095	431.6
212.313	427.75
212.53	428.14
212.748	464.01
212.966	634.1
213.183	560.45
213.401	391.57
213.618	435.44
213.836	528.33
214.053	785.98
214.271	2181.48
214.488	-1648.52
214.705	-1072.31
214.923	-849.02
215.14	-1427.72
215.358	-2226.96
215.575	-10324
215.793	-936.96
216.01	-2003.25
216.227	-11613.64
216.445	1289.86
216.662	947.01
216.879	551.02
217.097	433.03
217.314	398.44
217.531	380.63
217.749	387.73
217.966	403.27
218.183	391.6
218.4	306.03
218.618	283.84
218.835	306.21
219.052	287.41
219.269	282.49
219.487	284.11
219.704	293.1
219.921	302.79
220.138	291.46
220.355	272.96
220.572	251.04
220.79	260.68
221.007	239.92
221.224	221.71
221.441	183.52
221.658	169.16
221.875	157.03
222.092	148.87
222.309	143.4
222.526	131.69
222.743	136.01
222.96	128.85
223.177	120.6
223.394	120.79
223.611	125.68
223.828	129.34
224.045	121.65
224.262	118.33
224.479	109.72
224.696	105.92
224.913	104.37
225.13	95.81
225.347	92.93
225.564	90.62
225.781	86.56
225.997	75.25
226.214	72.16
226.431	63.43
226.648	58.7
226.865	54.59
227.082	50.63
227.298	45.02
227.515	38.91
227.732	35.55
227.949	31.03
228.165	28.48
228.382	26.75
228.599	24.84
228.816	24.22
229.032	22.68
229.249	22.41
229.466	21.63
229.682	20.83
229.899	22.52
230.116	22.25
230.332	23.15
230.549	24.32
230.765	26.01
230.982	26.97
231.199	28.01
231.415	29.82
231.632	32.19
231.848	33.58
232.065	36.18
232.281	35.54
232.498	36.49
232.714	38.83
232.931	39.07
233.147	39
233.364	40.3
233.58	41.31
233.797	41.54
234.013	39.4
234.23	38.39
234.446	37.18
234.662	36.65
234.879	36.25
235.095	35.48
235.312	36.14
235.528	36.57
235.744	35.58
235.961	36.87
236.177	36.17
236.393	36.12
236.61	35.48
236.826	35.83
237.042	38.16
237.258	39.21
237.475	40.08
237.691	37.06
237.907	37.18
238.123	36.14
238.339	34.89
238.556	36.2
238.772	36.3
238.988	36.02
239.204	34.39
239.42	31.34
239.636	30.56
239.853	28.11
240.069	28.42
240.285	27.18
240.501	25.79
240.717	24.17
240.933	22.58
241.149	20.8
241.365	20.12
241.581	19.23
241.797	18.97
242.013	17.83
242.229	17.07
242.445	16.68
242.661	16.27
242.877	16.2
243.093	15.7
243.309	15.21
243.525	15.98
243.741	16.56
243.957	17.09
244.173	17.23
244.388	17.41
244.604	17.83
244.82	17.61
245.036	17.11
245.252	16.62
245.468	16.69
245.683	16.15
245.899	15.59
246.115	14.12
246.331	13.55
246.547	13.18
246.762	13.07
246.978	12.61
247.194	12.53
247.409	12.27
247.625	12.23
247.841	12.23
248.057	12.57
248.272	12.15
248.488	12.37
248.703	12.52
248.919	12.91
249.135	13.13
249.35	14.05
249.566	14.29
249.782	15.66
249.997	16.78
250.213	16.91
250.428	17.35
250.644	18.37
250.859	19.47
251.075	19.72
251.29	19.25
251.506	18.73
251.721	18.17
251.937	18.65
252.152	18.31
252.368	18.17
252.583	18.67
252.798	18.73
253.014	19
253.229	18.83
253.445	19.99
253.66	20.75
253.875	21.52
254.091	22.92
254.306	22.91
254.521	22.69
254.737	22.52
254.952	23.03
255.167	23.03
255.383	22.95
255.598	23.62
255.813	21.73
256.028	21.96
256.244	22.12
256.459	21.29
256.674	20.37
256.889	19.48
257.104	18.8
257.32	17.97
257.535	16.94
257.75	15.96
257.965	14.89
258.18	14.02
258.395	12.87
258.61	11.89
258.826	10.97
259.041	11.02
259.256	10.63
259.471	10.07
259.686	9.47
259.901	9.07
260.116	9.19
260.331	8.97
260.546	8.92
260.761	8.89
260.976	8.96
261.191	9.28
261.406	9.52
261.621	10.03
261.836	10.59
262.05	11.35
262.265	12.27
262.48	12.55
262.695	13.23
262.91	14.12
263.125	14.87
263.34	15.09
263.555	15.21
263.769	15.46
263.984	15.61
264.199	16.11
264.414	16.46
264.629	16.08
264.843	16.14
265.058	15.96
265.273	15.49
265.488	15.06
265.702	15.02
265.917	15.2
266.132	13.88
266.346	12.94
266.561	12.48
266.776	12.02
266.99	11.86
267.205	11.43
267.42	11.04
267.634	10.85
267.849	11.04
268.063	11.07
268.278	10.75
268.492	11.1
268.707	11.68
268.922	11.59
269.136	11.53
269.351	11.56
269.565	11.39
269.78	11.61
269.994	11.67
270.209	11.13
270.423	11.43
270.637	11.64
270.852	11.58
271.066	11.52
271.281	11.23
271.495	10.9
271.709	11.02
271.924	11.06
272.138	10.89
272.353	10.97
272.567	11.27
272.781	11.07
272.996	10.52
273.21	10.49
273.424	10.74
273.638	10.78
273.853	10.85
274.067	10.75
274.281	10.58
274.495	10.88
274.71	11.31
274.924	11.06
275.138	11.02
275.352	11.59
275.566	11.55
275.781	11.17
275.995	11.91
276.209	12.46
276.423	12.53
276.637	12.75
276.851	12.59
277.065	12.16
277.279	11.88
277.493	11.89
277.707	11.9
277.921	12.18
278.135	12.52
278.349	12.06
278.563	11.5
278.777	11.54
278.991	11.56
279.205	11.45
279.419	11.49
279.633	11.96
279.847	11.76
280.061	11.08
280.275	10.92
280.489	10.29
280.703	9.88
280.917	10.1
281.131	9.66
281.344	9.64
281.558	9.33
281.772	9.05
281.986	9.09
282.2	9.39
282.414	9.67
282.627	9.22
282.841	9.35
283.055	9.55
283.269	9.52
283.482	9.64
283.696	9.57
283.91	9.96
284.123	9.65
284.337	9.84
284.551	9.29
284.764	9.45
284.978	9.71
285.192	9.34
285.405	9.41
285.619	9.33
285.833	9.29
286.046	9.3
286.26	9.21
286.473	9.35
286.687	9.11
286.9	9.2
287.114	9.05
287.327	9.36
287.541	9.91
287.754	9.9
287.968	9.86
288.181	9.98
288.395	10.19
288.608	10.29
288.822	10.28
289.035	10.12
289.248	10.03
289.462	10.26
289.675	9.97
289.889	9.67
290.102	9.53
290.315	9.63
290.529	9.63
290.742	9.25
290.955	8.97
291.169	9.22
291.382	9.38
291.595	9.74
291.808	9.31
292.022	9
292.235	8.89
292.448	8.91
292.661	9.15
292.875	9.42
293.088	9.57
293.301	9.96
293.514	9.86
293.727	9.6
293.94	9.29
294.153	9.8
294.367	9.94
294.58	9.78
294.793	9.98
295.006	9.78
295.219	9.58
295.432	9.89
295.645	9.84
295.858	9.76
296.071	9.8
296.284	10.03
296.497	9.92
296.71	9.78
296.923	9.9
297.136	9.83
297.349	9.66
297.562	9.58
297.775	9.3
297.988	9.38
298.201	9.55
298.414	9.71
298.626	9.62
298.839	9.52
299.052	9.63
299.265	9.92
299.478	9.97
299.691	10.46
299.903	10.63
300.116	10.98
300.329	11.08
300.542	10.95
300.755	10.94
300.967	11.07
301.18	11.16
301.393	11.41
301.605	11.31
301.818	11.42
302.031	11.54
302.243	11.85
302.456	11.82
302.669	11.79
302.881	12.3
303.094	12.31
303.307	12.39
303.519	12.26
303.732	12.3
303.944	12.41
304.157	12.49
304.37	12.16
304.582	11.92
304.795	12.03
305.007	12
305.22	11.86
305.432	11.99
305.645	12.31
305.857	12.66
306.069	12.79
306.282	13.01
306.494	13.04
306.707	13.09
306.919	13.22
307.132	13.27
307.344	13.21
307.556	12.83
307.769	13
307.981	12.39
308.193	12.16
308.406	12.06
308.618	11.7
308.83	11.38
309.043	11.28
309.255	11.24
309.467	11
309.679	10.93
309.892	11.14
310.104	10.83
310.316	11.1
310.528	11.18
310.74	11.31
310.953	11.27
311.165	11.35
311.377	11.4
311.589	11.31
311.801	11.17
312.013	11.23
312.225	11.09
312.437	11.17
312.649	11.43
312.862	11.95
313.074	11.76
313.286	12.51
313.498	12.65
313.71	12.89
313.922	12.68
314.134	13.44
314.346	13.6
314.558	14.19
314.77	14.26
314.982	13.86
315.193	13.27
315.405	13.45
315.617	12.78
315.829	12.97
316.041	12.78
316.253	13.3
316.465	13.16
316.677	13.21
316.888	12.97
317.1	13.01
317.312	13.24
317.524	13.51
317.736	13.54
317.947	13.88
318.159	13.97
318.371	14.54
318.583	14.58
318.794	14.24
319.006	14.1
319.218	14.04
319.43	14.17
319.641	14.42
319.853	14.42
320.064	14.84
320.276	14.81
320.488	14.58
320.699	14.17
320.911	14.4
321.123	14.82
321.334	15.21
321.546	15.41
321.757	15.5
321.969	15.91
322.18	15.93
322.392	15.46
322.603	15.48
322.815	15.7
323.026	15.52
323.238	14.99
323.449	14.82
323.661	14.65
323.872	14.48
324.083	14.22
324.295	13.49
324.506	13.42
324.718	13.46
324.929	13.56
325.14	13.76
325.352	14.01
325.563	14.44
325.774	14.22
325.986	14.17
326.197	14.26
326.408	14.51
326.62	14.58
326.831	14.56
327.042	14.63
327.253	14.45
327.464	14.06
327.676	13.81
327.887	13.39
328.098	13.35
328.309	13.52
328.52	13.66
328.732	13.79
328.943	13.78
329.154	13.83
329.365	13.99
329.576	13.82
329.787	14.3
329.998	14.75
330.209	15.4
330.42	15.67
330.631	15.79
330.842	15.43
331.053	15.33
331.264	15.52
331.475	15.81
331.686	16.01
331.897	16.38
332.108	16.21
332.319	16.08
332.53	16.17
332.741	16.01
332.952	15.89
333.163	15.8
333.374	15.73
333.585	15.69
333.795	15.06
334.006	14.81
334.217	14.57
334.428	14.35
334.639	14.4
334.849	14.21
335.06	14.17
335.271	14.24
335.482	14.34
335.692	14.25
335.903	14.58
336.114	15.03
336.325	15.11
336.535	15.52
336.746	15.74
336.957	15.31
337.167	15.06
337.378	15.29
337.589	15.04
337.799	14.93
338.01	14.94
338.22	14.68
338.431	14.28
338.642	13.95
338.852	13.69
339.063	13.37
339.273	13.08
339.484	12.97
339.694	12.85
339.905	13.34
340.115	13.48
340.326	13.14
340.536	13.34
340.746	13.55
340.957	13.62
341.167	13.48
341.378	14.01
341.588	14.44
341.799	14.75
342.009	14.51
342.219	14.09
342.43	14.11
342.64	14.24
342.85	13.81
343.061	13.73
343.271	14.19
343.481	14.24
343.691	14
343.902	13.66
344.112	13.22
344.322	13.31
344.532	13.55
344.743	13.41
344.953	13.54
345.163	13.64
345.373	13.42
345.583	12.81
345.793	12.78
346.004	12.75
346.214	13.11
346.424	13.09
346.634	13.16
346.844	13.01
347.054	13.08
347.264	12.98
347.474	13.45
347.684	13.61
347.894	13.68
348.104	13.35
348.314	13.08
348.524	13.1
348.734	13.24
348.944	12.96
349.154	12.88
349.364	12.84
349.574	12.74
349.784	12.39
349.994	12.46
350.204	12.61
350.413	12.82
350.623	12.99
350.833	12.81
351.043	13.15
351.253	13.46
351.463	13.32
351.672	13.25
351.882	13.36
352.092	13.33
352.302	13.1
352.511	12.96
352.721	13.1
352.931	13.05
353.141	13.22
353.35	12.86
353.56	12.91
353.77	12.75
353.979	12.78
354.189	12.77
354.399	12.67
354.608	12.95
354.818	13.21
355.027	13.07
355.237	12.89
355.447	12.72
355.656	13.13
355.866	12.96
356.075	12.82
356.285	12.75
356.494	12.66
356.704	12.66
356.913	12.6
357.123	12.36
357.332	12.16
357.542	12.1
357.751	11.87
357.96	11.51
358.17	11.42
358.379	11.33
358.589	11.32
358.798	11.24
359.007	11.09
359.217	10.84
359.426	10.8
359.635	10.68
359.845	10.7
360.054	10.61
360.263	10.51
360.472	10.49
360.682	10.6
360.891	10.4
361.1	10.34
361.309	10.01
361.519	10.03
361.728	9.98
361.937	10.03
362.146	9.93
362.355	10.07
362.564	10.15
362.774	10.11
362.983	10.13
363.192	10.15
363.401	10.23
363.61	10.62
363.819	10.56
364.028	10.49
364.237	10.64
364.446	10.81
364.655	10.85
364.864	10.86
365.073	10.9
365.282	10.94
365.491	11.08
365.7	11.03
365.909	11.08
366.118	11.25
366.327	11.58
366.536	11.54
366.745	11.67
366.954	11.74
367.162	11.76
367.371	11.77
367.58	11.86
367.789	11.72
367.998	11.69
368.207	11.51
368.415	11.55
368.624	11.33
368.833	11.08
369.042	10.91
369.25	10.92
369.459	10.95
369.668	10.8
369.877	10.69
370.085	10.9
370.294	11.05
370.503	11.16
370.711	11
370.92	10.87
371.129	11.12
371.337	11.06
371.546	10.83
371.754	10.75
371.963	10.72
372.171	10.81
372.38	10.59
372.589	10.59
372.797	10.53
373.006	10.59
373.214	10.7
373.423	10.63
373.631	10.74
373.84	10.85
374.048	10.65
374.256	10.78
374.465	10.82
374.673	11.03
374.882	10.8
375.09	10.69
375.298	10.66
375.507	10.38
375.715	10.46
375.923	10.49
376.132	10.35
376.34	10.47
376.548	10.44
376.757	10.21
376.965	10
377.173	9.85
377.381	9.95
377.59	9.83
377.798	10.02
378.006	9.9
378.214	9.78
378.423	9.98
378.631	9.89
378.839	9.98
379.047	10.05
379.255	10.17
379.463	10.44
379.671	10.43
379.879	10.51
380.088	10.64
380.296	10.55
380.504	10.35
380.712	10.41
380.92	10.51
381.128	10.42
381.336	10.45
381.544	10.4
381.752	10.43
381.96	10.3
382.168	9.95
382.376	9.79
382.584	9.83
382.791	9.84
382.999	9.55
383.207	9.39
383.415	9.27
383.623	9.1
383.831	9.03
384.039	8.95
384.247	8.98
384.454	9.26
384.662	9.33
384.87	9.42
385.078	9.57
385.285	9.56
385.493	9.51
385.701	9.42
385.909	9.68
386.116	9.58
386.324	9.39
386.532	9.32
386.739	9.22
386.947	9.02
387.155	9.12
387.362	8.93
387.57	8.98
387.778	8.98
387.985	9.03
388.193	8.76
388.4	8.9
388.608	9.03
388.816	9.09
389.023	9.29
389.231	9.26
389.438	8.99
389.646	9.12
389.853	9
390.061	9.1
390.268	9.12
390.475	9.21
390.683	9.43
390.89	9.38
391.098	9.36
391.305	9.01
391.512	9.08
391.72	9.14
391.927	9.11
392.135	9.13
392.342	9.13
392.549	9.02
392.756	9.03
392.964	8.54
393.171	8.51
393.378	8.31
393.586	8.46
393.793	8.45
394	8.12
394.207	8.06
394.414	8.22
394.622	8.07
394.829	8.12
395.036	8.09
395.243	8.46
395.45	8.47
395.657	8.56
395.864	8.55
396.072	8.46
396.279	8.82
396.486	8.92
396.693	8.63
396.9	8.76
397.107	8.79
397.314	8.73
397.521	8.41
397.728	8.58
397.935	8.59
398.142	8.69
398.349	8.73
398.556	8.62
398.763	8.63
398.97	8.85
399.177	8.75
399.383	8.68
399.59	8.74
399.797	8.82
400.004	8.64
400.211	8.48
400.418	8.54
400.625	8.64
400.831	8.73
401.038	8.83
401.245	8.75
401.452	8.74
401.658	8.79
401.865	8.59
402.072	8.65
402.279	8.59
402.485	8.68
402.692	8.4
402.899	8.18
403.105	8.11
403.312	7.97
403.519	7.85
403.725	7.86
403.932	7.83
404.138	7.83
404.345	7.8
404.552	7.83
404.758	7.66
404.965	7.74
405.171	7.88
405.378	7.79
405.584	7.65
405.791	7.75
405.997	7.68
406.204	7.73
406.41	7.83
406.617	7.83
406.823	7.8
407.029	7.96
407.236	8.05
407.442	8
407.649	8.06
407.855	8.23
408.061	8.07
408.268	8.11
408.474	8.18
408.68	8.05
408.887	8.14
409.093	8.12
409.299	7.98
409.505	7.75
409.712	7.73
409.918	7.62
410.124	7.6
410.33	7.71
410.537	7.6
410.743	7.6
410.949	7.66
411.155	7.55
411.361	7.42
411.567	7.57
411.773	7.63
411.98	7.58
412.186	7.69
412.392	7.58
412.598	7.51
412.804	7.82
413.01	7.7
413.216	7.77
413.422	7.72
413.628	7.99
413.834	8.01
414.04	8.03
414.246	8.08
414.452	8
414.658	8.06
414.864	8.06
415.07	7.78
415.275	7.61
415.481	7.55
415.687	7.6
415.893	7.5
416.099	7.46
416.305	7.43
416.511	7.24
416.716	7.17
416.922	7.04
417.128	6.99
417.334	6.94
417.539	6.91
417.745	6.82
417.951	6.61
418.157	6.42
418.362	6.4
418.568	6.33
418.774	6.34
418.979	6.35
419.185	6.41
419.391	6.38
419.596	6.41
419.802	6.39
420.008	6.32
420.213	5.82
420.419	5.87
420.624	5.84
420.83	5.82
421.035	5.79
421.241	5.79
421.446	5.68
421.652	5.61
421.857	5.51
422.063	5.39
422.268	5.39
422.474	5.83
422.679	5.81
422.885	5.8
423.09	5.78
423.295	5.8
423.501	5.76
423.706	5.81
423.911	5.77
424.117	5.8
424.322	5.9
424.527	5.93
424.733	5.92
424.938	5.91
425.143	5.81
425.349	5.81
425.554	5.82
425.759	5.88
425.964	5.88
426.169	5.93
426.375	5.96
426.58	6.03
426.785	6.07
426.99	6.21
427.195	6.26
427.4	6.41
427.605	6.49
427.811	6.57
428.016	6.52
428.221	6.46
428.426	6.56
428.631	6.7
428.836	6.73
429.041	6.77
429.246	6.7
429.451	6.66
429.656	6.64
429.861	6.83
430.066	6.72
430.271	6.76
430.476	6.82
430.681	6.85
430.886	6.72
431.09	6.64
431.295	6.56
431.5	6.54
431.705	6.6
431.91	6.67
432.115	6.56
432.32	6.63
432.524	6.5
432.729	6.6
432.934	6.56
433.139	6.6
433.343	6.6
433.548	6.56
433.753	6.64
433.958	6.55
434.162	6.52
434.367	6.45
434.572	6.43
434.776	6.55
434.981	6.4
435.186	6.3
435.39	6.27
435.595	6.3
435.799	6.4
436.004	6.4
436.209	6.48
436.413	6.42
436.618	6.43
436.822	6.43
437.027	6.48
437.231	6.51
437.436	6.53
437.64	6.47
437.845	6.4
438.049	6.44
438.253	6.31
438.458	6.26
438.662	6.3
438.867	6.25
439.071	6.15
439.275	6.02
439.48	6.04
439.684	6.07
439.888	6.1
440.093	6.13
440.297	6.01
440.501	6.04
440.706	6.17
440.91	6.16
441.114	6.19
441.318	6.24
441.523	6.25
441.727	6.22
441.931	6.2
442.135	6.23
442.339	6.15
442.543	6.31
442.748	6.25
442.952	6.14
443.156	6.14
443.36	6.09
443.564	6.08
443.768	6.01
443.972	6.09
444.176	6.09
444.38	6.11
444.584	6.12
444.788	5.98
444.992	5.99
445.196	6
445.4	5.89
445.604	5.89
445.808	5.92
446.012	5.98
446.216	5.9
446.42	5.86
446.624	5.83
446.828	5.83
447.032	5.87
447.235	5.87
447.439	5.85
447.643	5.99
447.847	6.04
448.051	6.03
448.254	6.04
448.458	6.15
448.662	6.22
448.866	6.23
449.069	6.28
449.273	6.32
449.477	6.37
449.681	6.37
449.884	6.38
450.088	6.39
450.292	6.29
450.495	6.3
450.699	6.25
450.902	6.24
451.106	6.21
451.31	6.3
451.513	6.22
451.717	6.26
451.92	6.29
452.124	6.24
452.327	6.28
452.531	6.37
452.734	6.52
452.938	6.46
453.141	6.51
453.345	6.46
453.548	6.36
453.752	6.45
453.955	6.44
454.158	6.32
454.362	6.2
454.565	6.24
454.769	6.3
454.972	6.27
455.175	6.21
455.379	6.12
455.582	6.14
455.785	6.17
455.988	6.18
456.192	6.1
456.395	6.35
456.598	6.5
456.801	6.48
457.005	6.48
457.208	6.44
457.411	6.51
457.614	6.48
457.817	6.4
458.021	6.34
458.224	6.26
458.427	6.28
458.63	6.14
458.833	6.05
459.036	5.96
459.239	5.94
459.442	5.89
459.645	5.85
459.848	5.81
460.051	5.87
460.254	5.92
460.457	5.97
460.66	5.92
460.863	5.88
461.066	6.01
461.269	6.06
461.472	6.13
461.675	6.14
461.878	6.21
462.081	6.31
462.284	6.27
462.486	6.22
462.689	6.23
462.892	6.32
463.095	6.42
463.298	6.34
463.5	6.39
463.703	6.31
463.906	6.25
464.109	6.19
464.311	6.23
464.514	6.27
464.717	6.38
464.92	6.38
465.122	6.39
465.325	6.34
465.528	6.37
465.73	6.33
465.933	6.34
466.135	6.4
466.338	6.39
466.541	6.28
466.743	6.23
466.946	6.1
467.148	6.1
467.351	6.09
467.553	6.1
467.756	6.05
467.958	6.12
468.161	6.2
468.363	6.17
468.566	6.2
468.768	6.3
468.971	6.42
469.173	6.47
469.375	6.45
469.578	6.43
469.78	6.39
469.983	6.32
470.185	6.27
470.387	6.07
470.59	6.11
470.792	6.13
470.994	6.19
471.196	6.15
471.399	6.13
471.601	6.17
471.803	6.24
472.005	6.33
472.208	6.53
472.41	6.46
472.612	6.57
472.814	6.62
473.016	6.66
473.218	6.72
473.421	6.74
473.623	6.77
473.825	6.76
474.027	6.72
474.229	6.73
474.431	6.61
474.633	6.66
474.835	6.7
475.037	6.63
475.239	6.62
475.441	6.53
475.643	6.47
475.845	6.52
476.047	6.46
476.249	6.47
476.451	6.38
476.653	6.37
476.855	6.31
477.057	6.21
477.258	6.15
477.46	6.16
477.662	6.05
477.864	6.04
478.066	5.97
478.268	5.92
478.469	5.88
478.671	5.93
478.873	5.97
479.075	6.02
479.276	6.02
479.478	6.03
479.68	5.96
479.882	5.98
480.083	5.98
480.285	6.01
480.487	6.02
480.688	6.05
480.89	6.04
481.091	5.88
481.293	5.76
481.495	5.7
481.696	5.64
481.898	5.54
482.099	5.47
482.301	5.45
482.502	5.38
482.704	5.3
482.905	5.24
483.107	5.13
483.308	5.13
483.51	5.11
483.711	5.08
483.913	5.05
484.114	5.04
484.315	5.03
484.517	5.02
484.718	5.02
484.92	5.03
485.121	5.02
485.322	5.08
485.524	5.08
485.725	5.09
485.926	5.15
486.127	5.16
486.329	5.17
486.53	5.17
486.731	5.13
486.932	5.14
487.134	5.16
487.335	5.15
487.536	5.13
487.737	5.14
487.938	5.13
488.139	5.1
488.341	5.1
488.542	5.11
488.743	5.19
488.944	5.23
489.145	5.26
489.346	5.28
489.547	5.29
489.748	5.3
489.949	5.3
490.15	5.36
490.351	5.34
490.552	5.35
490.753	5.37
490.954	5.32
491.155	5.32
491.356	5.29
491.557	5.28
491.758	5.32
491.959	5.35
492.159	5.4
492.36	5.42
492.561	5.46
492.762	5.49
492.963	5.51
493.164	5.56
493.364	5.56
493.565	5.62
493.766	5.72
493.967	5.75
494.167	5.79
494.368	5.83
494.569	5.86
494.769	5.91
494.97	5.99
495.171	6.07
495.371	6.06
495.572	6.11
495.773	6.11
495.973	6.08
496.174	6.15
496.375	6.2
496.575	6.17
496.776	6.14
496.976	6.15
497.177	6.12
497.377	6.17
497.578	6.22
497.778	6.24
497.979	6.25
498.179	6.22
498.38	6.2
498.58	6.21
498.78	6.22
498.981	6.29
499.181	6.31
499.382	6.37
499.582	6.34
499.782	6.35
499.983	6.35
500.183	6.44
500.383	6.53
500.584	6.57
500.784	6.54
500.984	6.69
501.184	6.72
501.385	6.76
501.585	6.81
501.785	6.76
501.985	6.89
502.185	6.99
502.386	6.88
502.586	6.91
502.786	6.91
502.986	6.97
503.186	6.85
503.386	6.91
503.586	6.95
503.786	6.97
503.987	6.97
504.187	6.86
504.387	6.87
504.587	7
504.787	6.98
504.987	7.06
505.187	7.05
505.387	7.11
505.587	7.14
505.786	7.19
505.986	7.16
506.186	7.21
506.386	7.31
506.586	7.28
506.786	7.22
506.986	7.23
507.186	7.14
507.386	7.16
507.585	7.15
507.785	7.08
507.985	7.04
508.185	7.11
508.384	7.15
508.584	7.08
508.784	7.13
508.984	7.17
509.183	7.21
509.383	7.26
509.583	7.25
509.782	7.28
509.982	7.32
510.182	7.27
510.381	7.34
510.581	7.43
510.781	7.55
510.98	7.56
511.18	7.6
511.379	7.65
511.579	7.72
511.778	7.77
511.978	7.78
512.177	7.78
512.377	7.88
512.576	7.78
512.776	7.76
512.975	7.69
513.175	7.68
513.374	7.66
513.573	7.65
513.773	7.65
513.972	7.62
514.172	7.74
514.371	7.83
514.57	7.87
514.77	8.01
514.969	8.04
515.168	8.03
515.367	8.05
515.567	8.12
515.766	8.08
515.965	8.11
516.164	8.15
516.364	8.07
516.563	8.06
516.762	8.07
516.961	8.06
517.16	8.07
517.359	8.14
517.559	8.13
517.758	8.13
517.957	8.25
518.156	8.27
518.355	8.25
518.554	8.26
518.753	8.2
518.952	8.23
519.151	8.2
519.35	8.24
519.549	8.24
519.748	8.33
519.947	8.4
520.146	8.36
520.345	8.39
520.544	8.42
520.743	8.52
520.942	8.65
521.141	8.69
521.339	8.74
521.538	8.71
521.737	8.8
521.936	8.84
522.135	8.85
522.333	8.87
522.532	8.95
522.731	9.02
522.93	8.97
523.129	8.99
523.327	9
523.526	8.96
523.725	9.01
523.923	8.95
524.122	8.91
524.321	8.9
524.519	8.94
524.718	8.87
524.917	8.88
525.115	8.91
525.314	8.83
525.512	8.81
525.711	8.85
525.909	8.86
526.108	8.84
526.306	8.79
526.505	8.78
526.703	8.73
526.902	8.7
527.1	8.67
527.299	8.62
527.497	8.6
527.696	8.64
527.894	8.62
528.092	8.63
528.291	8.63
528.489	8.65
528.688	8.68
528.886	8.71
529.084	8.79
529.283	8.84
529.481	8.9
529.679	8.94
529.877	8.93
530.076	8.99
530.274	9.06
530.472	9.15
530.67	9.23
530.869	9.26
531.067	9.28
531.265	9.28
531.463	9.29
531.661	9.33
531.859	9.39
532.057	9.48
532.255	9.51
532.454	9.49
532.652	9.51
532.85	9.52
533.048	9.52
533.246	9.54
533.444	9.54
533.642	9.61
533.84	9.65
534.038	9.74
534.236	9.72
534.434	9.77
534.632	9.86
534.83	9.88
535.027	9.93
535.225	10
535.423	10.07
535.621	10.17
535.819	10.18
536.017	10.25
536.215	10.18
536.412	10.26
536.61	10.26
536.808	10.24
537.006	10.31
537.203	10.37
537.401	10.48
537.599	10.61
537.797	10.59
537.994	10.64
538.192	10.66
538.39	10.79
538.587	10.85
538.785	10.89
538.983	10.94
539.18	10.97
539.378	10.91
539.575	10.9
539.773	10.82
539.97	10.89
540.168	10.88
540.366	10.88
540.563	10.85
540.761	10.81
540.958	10.81
541.155	10.81
541.353	10.84
541.55	10.85
541.748	10.82
541.945	10.88
542.143	10.91
542.34	11
542.537	11.05
542.735	11.16
542.932	11.28
543.129	11.4
543.327	11.49
543.524	11.54
543.721	11.7
543.919	11.85
544.116	11.9
544.313	12
544.51	12.04
544.708	12.06
544.905	12.01
545.102	12.03
545.299	12.12
545.496	12.17
545.693	12.27
545.891	12.35
546.088	12.33
546.285	12.45
546.482	12.5
546.679	12.6
546.876	12.68
547.073	12.89
547.27	13.08
547.467	13.12
547.664	13.24
547.861	13.35
548.058	13.38
548.255	13.56
548.452	13.59
548.649	13.65
548.846	13.74
549.043	13.89
549.24	14.01
549.437	13.99
549.633	14.07
549.83	14.12
550.027	14.2
550.224	14.33
550.421	14.38
550.618	14.5
550.814	14.6
551.011	14.63
551.208	14.67
551.405	14.67
551.601	14.73
551.798	14.74
551.995	14.85
552.191	14.9
552.388	14.84
552.585	14.92
552.781	14.94
552.978	14.97
553.175	14.92
553.371	15.09
553.568	15.11
553.764	15.16
553.961	15.31
554.157	15.46
554.354	15.47
554.55	15.66
554.747	15.78
554.943	15.92
555.14	16.02
555.336	16.23
555.533	16.2
555.729	16.31
555.926	16.47
556.122	16.54
556.318	16.44
556.515	16.48
556.711	16.42
556.907	16.59
557.104	16.64
557.3	16.74
557.496	16.76
557.693	16.75
557.889	16.81
558.085	16.85
558.281	16.82
558.478	17.03
558.674	17.22
558.87	17.4
559.066	17.4
559.262	17.48
559.459	17.51
559.655	17.64
559.851	17.82
560.047	17.98
560.243	17.99
560.439	18.19
560.635	18.14
560.831	18.13
561.027	18.17
561.223	18.04
561.419	18.11
561.615	18.23
561.811	18.22
562.007	18.13
562.203	18.05
562.399	18.14
562.595	18.13
562.791	18.29
562.987	18.4
563.183	18.51
563.379	18.68
563.575	18.7
563.771	18.76
563.966	18.88
564.162	19.03
564.358	19.23
564.554	19.19
564.75	19.22
564.945	19.19
565.141	19.17
565.337	19.19
565.533	19.2
565.728	19.22
565.924	19.27
566.12	19.33
566.315	19.38
566.511	19.35
566.707	19.5
566.902	19.68
567.098	19.69
567.293	19.8
567.489	19.87
567.684	20.01
567.88	20.17
568.076	20.27
568.271	20.32
568.467	20.52
568.662	20.59
568.858	20.57
569.053	20.56
569.248	20.77
569.444	20.79
569.639	20.78
569.835	20.72
570.03	20.82
570.225	20.8
570.421	20.79
570.616	20.79
570.812	20.91
571.007	20.97
571.202	21.05
571.397	21.02
571.593	21.14
571.788	21.15
571.983	21.3
572.178	21.24
572.374	21.34
572.569	21.5
572.764	21.5
572.959	21.51
573.154	21.55
573.35	21.51
573.545	21.65
573.74	21.66
573.935	21.74
574.13	21.73
574.325	21.85
574.52	21.88
574.715	21.81
574.91	21.93
575.105	21.95
575.3	22.16
575.495	22.41
575.69	22.57
575.885	22.76
576.08	23
576.275	23.15
576.47	23.23
576.665	23.37
576.86	23.52
577.055	23.58
577.25	23.9
577.444	24.04
577.639	24.15
577.834	24.13
578.029	24.19
578.224	24.16
578.418	24.22
578.613	24.43
578.808	24.39
579.003	24.54
579.197	24.68
579.392	24.63
579.587	24.54
579.781	24.55
579.976	24.63
580.171	24.73
580.365	24.96
580.56	25.05
580.755	24.96
580.949	25.05
581.144	25.2
581.338	25.33
581.533	25.5
581.727	25.61
581.922	25.79
582.116	25.87
582.311	25.9
582.505	25.88
582.7	26
582.894	26.16
583.089	26.36
583.283	26.33
583.478	26.32
583.672	26.25
583.866	26.35
584.061	26.21
584.255	26.38
584.449	26.52
584.644	26.6
584.838	26.59
585.032	26.7
585.226	26.67
585.421	26.75
585.615	26.82
585.809	26.86
586.003	27.03
586.198	27.08
586.392	27.06
586.586	27.03
586.78	26.93
586.974	27.03
587.168	26.94
587.363	26.97
587.557	26.97
587.751	26.98
587.945	27.02
588.139	26.85
588.333	26.81
588.527	26.65
588.721	26.54
588.915	26.7
589.109	26.62
589.303	26.63
589.497	26.63
589.691	26.66
589.885	26.65
590.079	26.58
590.273	26.57
590.466	26.76
590.66	26.89
590.854	26.98
591.048	26.96
591.242	27.15
591.436	27.21
591.629	27.2
591.823	27.41
592.017	27.47
592.211	27.66
592.404	27.85
592.598	27.78
592.792	27.77
592.986	27.86
593.179	27.77
593.373	27.7
593.567	27.75
593.76	27.77
593.954	27.63
594.147	27.67
594.341	27.6
594.535	27.41
594.728	27.36
594.922	27.24
595.115	27.27
595.309	27.3
595.502	27.19
595.696	27.08
595.889	27.21
596.083	27.1
596.276	27
596.47	26.94
596.663	26.91
596.856	26.92
597.05	27.09
597.243	27.09
597.437	27.13
597.63	27.27
597.823	27.4
598.017	27.42
598.21	27.57
598.403	27.75
598.596	27.97
598.79	28.29
598.983	28.39
599.176	28.48
599.369	28.41
599.563	28.64
599.756	28.72
599.949	28.79
600.142	28.8
600.335	28.82
600.528	28.85
600.722	28.8
600.915	28.71
601.108	28.74
601.301	28.74
601.494	28.96
601.687	28.78
601.88	28.66
602.073	28.48
602.266	28.42
602.459	28.35
602.652	28.18
602.845	28.14
603.038	28.02
603.231	28.02
603.424	27.77
603.617	27.64
603.809	27.55
604.002	27.57
604.195	27.6
604.388	27.66
604.581	27.61
604.774	27.65
604.966	27.64
605.159	27.72
605.352	27.64
605.545	27.97
605.737	28.11
605.93	28.29
606.123	28.29
606.316	28.45
606.508	28.53
606.701	28.73
606.894	28.96
607.086	29.18
607.279	29.27
607.471	29.45
607.664	29.47
607.857	29.67
608.049	29.93
608.242	30.36
608.434	30.69
608.627	31.06
608.819	31.45
609.012	31.93
609.204	32.48
609.397	33.3
609.589	34.15
609.782	34.98
609.974	35.87
610.166	36.76
610.359	37.57
610.551	38.4
610.743	39.21
610.936	39.99
611.128	40.51
611.32	40.9
611.513	41.06
611.705	41.29
611.897	41.18
612.09	40.94
612.282	40.69
612.474	40.34
612.666	39.98
612.858	39.62
613.051	39.15
613.243	38.8
613.435	38.71
613.627	38.44
613.819	37.98
614.011	38.14
614.203	37.8
614.395	37.41
614.588	37.1
614.78	36.71
614.972	36.31
615.164	36.2
615.356	35.91
615.548	35.39
615.74	35.19
615.932	35.11
616.124	34.39
616.315	34.35
616.507	34.28
616.699	34.25
616.891	34.24
617.083	33.87
617.275	33.58
617.467	33.48
617.659	33.45
617.85	33.18
618.042	33
618.234	33.04
618.426	32.81
618.618	32.65
618.809	32.5
619.001	32.28
619.193	32.61
619.384	32.77
619.576	32.89
619.768	32.8
619.959	32.94
620.151	32.94
620.343	32.95
620.534	33.04
620.726	33.02
620.917	32.99
621.109	33.09
621.301	33.02
621.492	32.93
621.684	32.92
621.875	33.03
622.067	32.92
622.258	32.79
622.45	32.83
622.641	32.76
622.832	32.95
623.024	32.97
623.215	33.12
623.407	33
623.598	33.03
623.789	32.96
623.981	33.03
624.172	33.05
624.363	33.06
624.555	32.83
624.746	32.7
624.937	32.72
625.129	32.67
625.32	32.69
625.511	32.65
625.702	32.41
625.893	32.31
626.085	32.13
626.276	32.14
626.467	32.09
626.658	32.22
626.849	32.33
627.04	32.13
627.231	32.17
627.422	32.16
627.614	32.23
627.805	32.43
627.996	32.41
628.187	32.57
628.378	32.55
628.569	32.69
628.76	32.96
628.951	33.22
629.142	33.36
629.332	33.43
629.523	33.52
629.714	33.87
629.905	34.01
630.096	34.31
630.287	34.56
630.478	34.8
630.669	34.83
630.859	34.64
631.05	34.51
631.241	34.5
631.432	34.43
631.623	34.21
631.813	33.98
632.004	33.77
632.195	33.54
632.385	33.02
632.576	32.83
632.767	32.59
632.957	32.71
633.148	32.6
633.339	32.65
633.529	32.77
633.72	32.78
633.91	32.4
634.101	32.26
634.292	32.21
634.482	32.3
634.673	32.39
634.863	32.58
635.054	32.36
635.244	32.31
635.435	32.25
635.625	32.14
635.815	32.13
636.006	32.4
636.196	32.53
636.387	32.69
636.577	32.74
636.767	32.81
636.958	32.75
637.148	32.86
637.338	32.88
637.529	33.04
637.719	33.14
637.909	33.32
638.099	33.31
638.29	33.29
638.48	33.33
638.67	33.4
638.86	33.37
639.05	33.38
639.241	33.45
639.431	33.46
639.621	33.39
639.811	33.29
640.001	33.31
640.191	33.46
640.381	33.47
640.571	33.61
640.761	33.62
640.951	33.67
641.141	33.7
641.331	33.77
641.521	33.82
641.711	33.8
641.901	33.87
642.091	33.79
642.281	33.85
642.471	34.1
642.661	34.2
642.851	34.23
643.041	34.03
643.231	34.26
643.42	34.22
643.61	34.32
643.8	34.43
643.99	34.43
644.18	34.57
644.369	34.39
644.559	34.59
644.749	34.49
644.939	34.41
645.128	34.75
645.318	34.64
645.508	34.55
645.697	34.57
645.887	34.55
646.076	34.58
646.266	34.52
646.456	34.67
646.645	34.43
646.835	34.24
647.024	34.39
647.214	34.3
647.403	34.32
647.593	34.42
647.782	34.65
647.972	34.47
648.161	34.73
648.351	34.49
648.54	34.46
648.73	34.36
648.919	34.25
649.108	34.33
649.298	34.36
649.487	34.39
649.677	34.37
649.866	34.15
650.055	34.16
650.244	34.26
650.434	34.38
650.623	34.49
650.812	34.64
651.002	34.74
651.191	34.67
651.38	34.52
651.569	34.41
651.758	34.46
651.947	34.39
652.137	34.54
652.326	34.34
652.515	34.4
652.704	34.68
652.893	34.71
653.082	34.85
653.271	34.97
653.46	35.08
653.649	35.11
653.838	35.01
654.027	35.34
654.216	35.25
654.405	35.08
654.594	35.19
654.783	34.66
654.972	34.51
655.161	34.5
655.35	34.51
655.539	34.39
655.728	34.57
655.916	34.59
656.105	34.35
656.294	34.46
656.483	34.52
656.672	34.47
656.86	34.49
657.049	34.63
657.238	34.47
657.427	34.48
657.615	34.57
657.804	34.39
657.993	34.36
658.181	34.15
658.37	33.84
658.559	33.74
658.747	33.74
658.936	33.86
659.125	33.45
659.313	33.39
659.502	33.25
659.69	33.1
659.879	33.15
660.067	33.21
660.256	33.28
660.444	33.58
660.633	33.84
660.821	33.79
661.01	33.82
661.198	34.3
661.387	34.53
661.575	34.83
661.763	35.16
661.952	35.28
662.14	35.39
662.328	35.58
662.517	35.71
662.705	35.69
662.893	35.69
663.082	36.08
663.27	36.09
663.458	36.23
663.646	36.17
663.834	36.08
664.023	36.22
664.211	36.22
664.399	36.48
664.587	36.5
664.775	36.66
664.963	36.75
665.152	36.7
665.34	36.97
665.528	37.06
665.716	37.16
665.904	37.34
666.092	37.3
666.28	37.4
666.468	37.13
666.656	37.17
666.844	37.27
667.032	37.46
667.22	37.19
667.408	36.87
667.596	36.72
667.784	36.45
667.971	36.6
668.159	36.45
668.347	36.39
668.535	36.84
668.723	36.94
668.911	36.76
669.098	36.62
669.286	36.74
669.474	37.04
669.662	37.19
669.849	37.45
670.037	37.51
670.225	37.99
670.413	38.1
670.6	38.01
670.788	37.98
670.976	37.8
671.163	37.97
671.351	38.02
671.538	38.05
671.726	38.07
671.913	37.86
672.101	37.58
672.289	37.39
672.476	37.43
672.664	37.44
672.851	37.39
673.039	37.82
673.226	38.02
673.413	37.88
673.601	37.8
673.788	37.87
673.976	37.95
674.163	38.18
674.35	38.01
674.538	38.04
674.725	37.89
674.912	38.05
675.1	37.94
675.287	37.74
675.474	37.97
675.662	38.05
675.849	38.25
676.036	38.23
676.223	38.15
676.411	38.11
676.598	38.32
676.785	38.57
676.972	38.77
677.159	38.69
677.346	38.8
677.533	38.78
677.721	38.54
677.908	38.39
678.095	38.29
678.282	38.23
678.469	38.27
678.656	37.99
678.843	37.48
679.03	37.2
679.217	37.3
679.404	37.22
679.591	37.05
679.778	37.07
679.964	37.08
680.151	36.97
680.338	36.94
680.525	36.8
680.712	36.88
680.899	37.13
681.086	37.01
681.272	36.88
681.459	36.82
681.646	36.98
681.833	37.18
682.02	37.17
682.206	37.4
682.393	37.48
682.58	37.72
682.766	37.36
682.953	37.37
683.14	37.68
683.326	38.08
683.513	38.33
683.7	38.4
683.886	38.45
684.073	38.64
684.259	38.54
684.446	38.66
684.632	38.6
684.819	38.93
685.005	38.89
685.192	38.78
685.378	38.45
685.565	38.27
685.751	38.32
685.938	38.36
686.124	38.13
686.31	38.38
686.497	38.47
686.683	38.44
686.87	38.37
687.056	38.23
687.242	38.5
687.429	38.59
687.615	38.69
687.801	38.64
687.987	38.31
688.174	38.12
688.36	38.29
688.546	38.36
688.732	38.67
688.918	38.75
689.105	38.95
689.291	38.67
689.477	38.96
689.663	38.85
689.849	38.73
690.035	39.2
690.221	39.49
690.407	39.61
690.593	39.58
690.779	39.39
690.965	39.42
691.151	39.79
691.337	39.89
691.523	39.8
691.709	39.8
691.895	40.14
692.081	40.11
692.267	40.01
692.453	39.7
692.639	39.66
692.825	39.77
693.011	40.01
693.196	39.86
693.382	39.89
693.568	39.77
693.754	40.05
693.94	40.4
694.125	39.94
694.311	40.07
694.497	40.11
694.682	40.4
694.868	40.12
695.054	40.2
695.239	40.33
695.425	40.29
695.611	40.18
695.796	40.14
695.982	39.29
696.168	39.62
696.353	39.61
696.539	39.47
696.724	38.91
696.91	39.12
697.095	38.58
697.281	38.15
697.466	37.94
697.652	37.62
697.837	37.25
698.023	37.27
698.208	36.83
698.393	36.66
698.579	36.47
698.764	36.32
698.949	36.11
699.135	36.21
699.32	36.06
699.505	36.03
699.691	36.24
699.876	36.46
700.061	36.78
700.246	37.15
700.432	37.12
700.617	37.46
700.802	38.01
700.987	38.48
701.172	39.37
701.358	39.89
701.543	40.32
701.728	40.63
701.913	40.95
702.098	40.93
702.283	41.45
702.468	42.14
702.653	42.38
702.838	42.55
703.023	42.7
703.208	42.55
703.393	43.07
703.578	43.45
703.763	43.76
703.948	43.98
704.133	44.42
704.318	44.66
704.503	44.83
704.688	45.06
704.873	45.24
705.057	45.36
705.242	45.17
705.427	45.56
705.612	45.87
705.797	45.98
705.981	46.09
706.166	46.42
706.351	46.63
706.536	46.72
706.72	47.28
706.905	47.56
707.09	47.68
707.274	47.88
707.459	47.35
707.644	47.04
707.828	46.89
708.013	46.71
708.197	46.66
708.382	46.39
708.567	46.34
708.751	45.99
708.936	45.7
709.12	45.51
709.305	45.12
709.489	45.15
709.673	45.23
709.858	45.09
710.042	44.83
710.227	44.58
710.411	44.67
710.596	44.5
710.78	44.68
710.964	44.64
711.149	45
711.333	45.17
711.517	45.45
711.702	45.33
711.886	45.38
712.07	45.46
712.254	45.3
712.438	44.87
712.623	44.98
712.807	44.37
712.991	44.14
713.175	43.44
713.359	43.55
713.544	42.89
713.728	42.62
713.912	42.34
714.096	42.12
714.28	42
714.464	42.12
714.648	41.65
714.832	41.77
715.016	41.67
715.2	41.81
715.384	41.15
715.568	40.9
715.752	41.02
715.936	41.2
716.12	41.06
716.304	40.95
716.488	40.5
716.671	40.55
716.855	40.42
717.039	40.24
717.223	39.64
717.407	39.53
717.59	39.74
717.774	39.54
717.958	39.26
718.142	40.07
718.325	40.24
718.509	40.63
718.693	40.76
718.877	40.73
719.06	40.98
719.244	41.71
719.428	42.4
719.611	42.89
719.795	43.44
719.978	43.98
720.162	43.34
720.345	43.86
720.529	43.86
720.713	43.87
720.896	44.24
721.08	44.28
721.263	44.57
721.446	44.52
721.63	44.51
721.813	44.05
721.997	43.8
722.18	43.79
722.364	43
722.547	42.84
722.73	42.72
722.914	43.01
723.097	43.18
723.28	43.04
723.464	42.66
723.647	42.71
723.83	42.62
724.013	42.73
724.197	43.37
724.38	43.79
724.563	43.81
724.746	44.36
724.929	44.05
725.112	44.05
725.296	44.08
725.479	44.28
725.662	43.88
725.845	44.12
726.028	44.06
726.211	43.18
726.394	43.08
726.577	43.25
726.76	43.02
726.943	42.3
727.126	41.96
727.309	41.74
727.492	41.92
727.675	41.86
727.858	41.51
728.041	41.32
728.224	41.65
728.407	41.79
728.589	41.31
728.772	40.94
728.955	41.61
729.138	41.55
729.321	41.54
729.503	41.53
729.686	41.61
729.869	41.63
730.052	41.41
730.234	41.94
730.417	41.62
730.6	42.27
730.782	42.52
730.965	42.41
731.148	42.88
731.33	42.94
731.513	42.98
731.695	43.16
731.878	43.25
732.061	43.47
732.243	43.98
732.426	43.93
732.608	43.99
732.791	44.21
732.973	44.01
733.156	44.07
733.338	44.23
733.52	44.52
733.703	44.27
733.885	44.63
734.068	45.01
734.25	44.2
734.432	44.4
734.615	44.27
734.797	44.26
734.979	44.31
735.162	44.42
735.344	44.4
735.526	44.68
735.708	45.1
735.891	44.79
736.073	44.69
736.255	45.13
736.437	44.9
736.619	44.77
736.802	45.07
736.984	45.52
737.166	45.34
737.348	45.8
737.53	45.32
737.712	45.28
737.894	46.15
738.076	46.6
738.258	46.49
738.44	46.84
738.622	47.61
738.804	47.16
738.986	47.39
739.168	47.36
739.35	47.05
739.532	47.19
739.714	47.2
739.896	46.49
740.078	46.18
740.259	46.15
740.441	46.72
740.623	46.18
740.805	46.79
740.987	46.57
741.168	47.23
741.35	47.47
741.532	47.81
741.714	48.22
741.895	48.63
742.077	49.23
742.259	49.83
742.44	50.2
742.622	50.77
742.804	50.64
742.985	51.12
743.167	50.46
743.348	50.86
743.53	50.98
743.711	51.29
743.893	51.82
744.075	51.94
744.256	51.83
744.438	51.81
744.619	51.71
744.8	51.64
744.982	51.42
745.163	51.78
745.345	51.75
745.526	52.08
745.707	52.07
745.889	51.45
746.07	51.14
746.252	51.88
746.433	51.27
746.614	51.23
746.795	51.88
746.977	52.15
747.158	52.39
747.339	52.18
747.52	51.48
747.702	50.82
747.883	51.49
748.064	51.28
748.245	50.56
748.426	51.02
748.607	50.91
748.788	51.1
748.97	51.03
749.151	51.42
749.332	51.58
749.513	51.87
749.694	52.22
749.875	52.34
750.056	52.65
750.237	52.09
750.418	51.49
750.599	51.57
750.78	51.03
750.96	51.32
751.141	51.19
751.322	50.61
751.503	50.63
751.684	51.01
751.865	50.72
752.046	50.94
752.226	51.33
752.407	50.97
752.588	51.08
752.769	51.36
752.949	50.93
753.13	50.75
753.311	51.47
753.492	51.45
753.672	51.25
753.853	51.1
754.034	51.02
754.214	51.36
754.395	51.5
754.575	51.94
754.756	52.2
754.937	53
755.117	53.11
755.298	52.99
755.478	53.3
755.659	53.32
755.839	53.46
756.02	53.4
756.2	53.53
756.381	54.29
756.561	53.89
756.741	53.44
756.922	52.9
757.102	53.4
757.283	52.49
757.463	51.63
757.643	51.66
757.823	51.18
758.004	50.61
758.184	49.87
758.364	49.1
758.545	48.24
758.725	47.59
758.905	46.76
759.085	45.43
759.265	45.11
759.446	44.93
759.626	44.37
759.806	43.58
759.986	43.05
760.166	42.21
760.346	42.36
760.526	42.6
760.706	42.23
760.886	42.3
761.066	42.04
761.246	42.45
761.426	42.43
761.606	42.56
761.786	42.84
761.966	42.96
762.146	43.39
762.326	42.61
762.506	42.14
762.686	42.04
762.866	41.75
763.046	41.37
763.225	41.03
763.405	40.62
763.585	40.08
763.765	40.03
763.945	40.05
764.124	39.73
764.304	40.4
764.484	40.67
764.664	41.23
764.843	41.73
765.023	42.46
765.203	42.88
765.382	43.81
765.562	44.8
765.741	45.45
765.921	46.14
766.101	47.14
766.28	48.08
766.46	48.99
766.639	49.19
766.819	49.47
766.998	49.91
767.178	50.81
767.357	51.18
767.537	51.71
767.716	52.3
767.896	52.76
768.075	53.3
768.254	52.44
768.434	52.34
768.613	52.68
768.792	53.09
768.972	53.65
769.151	53.61
769.33	54.17
769.51	54.21
769.689	55.45
769.868	56.32
770.047	56.73
770.226	57.11
770.406	57.46
770.585	58.22
770.764	58.61
770.943	58.53
771.122	58.86
771.301	59.11
771.48	59.31
771.66	58.57
771.839	58.07
772.018	57.59
772.197	58.54
772.376	59.73
772.555	59.46
772.734	60.35
772.913	60.21
773.092	60.37
773.271	60.18
773.449	59.99
773.628	58.66
773.807	58.54
773.986	58.96
774.165	58.26
774.344	56.99
774.523	57.01
774.701	57.15
774.88	58.12
775.059	57.63
775.238	57.22
775.417	57.36
775.595	59.05
775.774	58.98
775.953	59.35
776.131	60.05
776.31	59.67
776.489	59.65
776.667	59.69
776.846	59.17
777.025	59.54
777.203	59.65
777.382	60.02
777.56	59.65
777.739	59.7
777.917	59.59
778.096	59.46
778.274	60.58
778.453	60.6
778.631	60.27
778.81	60.14
778.988	59.8
779.166	59.91
779.345	59.34
779.523	58.92
779.702	59.29
779.88	58.96
780.058	59.04
780.237	57.82
780.415	58.56
780.593	59.4
780.771	59.83
780.95	60.87
781.128	61.39
781.306	61.98
781.484	62.36
781.662	62.74
781.841	63.33
782.019	63.37
782.197	64.56
782.375	63.34
782.553	61.53
782.731	61.13
782.909	60.03
783.087	60.58
783.265	61.13
783.443	61.13
783.621	61.08
783.799	59.93
783.977	59.83
784.155	59.2
784.333	60.17
784.511	61.2
784.689	60.78
784.867	60.7
785.045	60.67
785.223	59.88
785.4	60.19
785.578	59.56
785.756	60.29
785.934	60.83
786.112	60.75
786.289	61.17
786.467	60.99
786.645	61.31
786.823	62.18
787	61.49
787.178	61.74
787.356	60.23
787.533	60.29
787.711	61.04
787.889	60.44
788.066	60.86
788.244	59.36
788.421	58.34
788.599	58.18
788.776	57.51
788.954	57.53
789.131	56.95
789.309	57.28
789.486	56.69
789.664	55.49
789.841	55.99
790.019	56.92
790.196	57.2
790.373	57
790.551	57.93
790.728	58.35
790.906	57.6
791.083	59.16
791.26	60.15
791.437	60.48
791.615	60.49
791.792	60.81
791.969	59.72
792.146	60.32
792.324	61.41
792.501	61.48
792.678	61.12
792.855	62.45
793.032	60.52
793.209	60.38
793.387	61.81
793.564	62.61
793.741	61.87
793.918	61.51
794.095	61.51
794.272	60.78
794.449	59.88
794.626	60.17
794.803	58.92
794.98	59.64
795.157	58.09
795.334	56.63
795.511	56.84
795.688	56.37
795.864	57.23
796.041	56.81
796.218	57.69
796.395	57.84
796.572	56.93
796.749	57
796.925	56.92
797.102	58.78
797.279	58.68
797.456	58.67
797.632	58.57
797.809	58.58
797.986	59.18
798.162	58.73
798.339	58.84
798.516	59.95
798.692	61.04
798.869	60.91
799.046	60.86
799.222	60.98
799.399	60.13
799.575	61.28
799.752	60.61
799.928	61.02
800.105	60.53
800.281	61.25
800.458	61.15
800.634	61.06
800.811	60.36
800.987	59.09
801.163	59.72
801.34	59.6
801.516	58.73
801.692	60.03
801.869	59.57
802.045	59.84
802.221	59.6
802.398	59.78
802.574	59.65
802.75	60.4
802.926	60.9
803.103	61.37
803.279	63.42
803.455	64.54
803.631	63.93
803.807	64.54
803.983	67.27
804.16	67.28
804.336	65.58
804.512	65.18
804.688	65.65
804.864	66.19
805.04	65.2
805.216	64.29
805.392	64.39
805.568	65.86
805.744	65.34
805.92	63.37
806.096	64.44
806.272	66.86
806.448	68.21
806.623	68.17
806.799	68.75
806.975	68.73
807.151	68.97
807.327	69.87
807.503	68.41
807.678	69.32
807.854	69.27
808.03	67.11
808.206	66.6
808.381	66.24
808.557	66.7
808.733	66.16
808.908	67.7
809.084	67.18
809.26	65
809.435	64.93
809.611	63.61
809.787	63.35
809.962	63.71
810.138	64.23
810.313	63.73
810.489	64.56
810.664	65.25
810.84	64.11
811.015	64.72
811.191	66.15
811.366	65.43
811.542	65.83
811.717	66.2
811.892	66.51
812.068	65.79
812.243	67.08
812.419	66.62
812.594	66.58
812.769	67.42
812.944	66.51
813.12	65.4
813.295	66.01
813.47	66.33
813.645	66.06
813.821	66.5
813.996	65.73
814.171	63.83
814.346	62.92
814.521	63.27
814.697	62.7
814.872	61.82
815.047	63.16
815.222	63.08
815.397	63.36
815.572	63.74
815.747	62.36
815.922	62.31
816.097	62.27
816.272	61.92
816.447	60.75
816.622	60.1
816.797	61
816.972	61.2
817.147	62.44
817.322	61.95
817.496	61.36
817.671	61.05
817.846	60.6
818.021	60.86
818.196	60.76
818.371	60.08
818.545	58.96
818.72	58.14
818.895	56.78
819.069	53.47
819.244	52.73
819.419	51.63
819.594	51.02
819.768	50.2
819.943	48.37
820.117	46.51
820.292	44.77
820.467	44.53
820.641	43.1
820.816	40.97
820.99	40.14
821.165	38.74
821.339	37.4
821.514	36.48
821.688	35.46
821.863	34.66
822.037	34.25
822.212	33.8
822.386	32.88
822.56	32.71
822.735	32.93
822.909	32.79
823.084	32.57
823.258	32.55
823.432	32.39
823.606	32.79
823.781	33.2
823.955	33.19
824.129	33.7
824.303	34.31
824.478	34.76
824.652	34.94
824.826	35.5
825	36.06
825.174	36.93
825.348	37.57
825.523	38.05
825.697	38.01
825.871	38.51
826.045	38.66
826.219	38.31
826.393	38.28
826.567	37.78
826.741	37.55
826.915	37.87
827.089	37.98
827.263	38.22
827.437	37.86
827.611	38.43
827.784	38.4
827.958	38.13
828.132	38.87
828.306	38.68
828.48	39.3
828.654	39.6
828.827	39.87
829.001	40.78
829.175	41.66
829.349	42.94
829.522	43.98
829.696	46.07
829.87	48.57
830.044	50.43
830.217	52.18
830.391	53.83
830.565	56.02
830.738	57.54
830.912	57.32
831.085	57.98
831.259	59.57
831.432	59.75
831.606	59.15
831.779	57.77
831.953	55.66
832.126	55.04
832.3	54.39
832.473	53.07
832.647	50.74
832.82	49.74
832.994	48.07
833.167	47.03
833.34	45.7
833.514	44.48
833.687	43.24
833.86	43.14
834.034	42.65
834.207	42.29
834.38	41.97
834.553	42.93
834.727	42.41
834.9	42.91
835.073	42.17
835.246	41.9
835.419	43.44
835.593	44.77
835.766	45.46
835.939	47.06
836.112	48.05
836.285	48.98
836.458	50.47
836.631	52.56
836.804	55.46
836.977	59.03
837.15	61.38
837.323	62.36
837.496	63.64
837.669	64.82
837.842	65.3
838.015	67.04
838.188	68.49
838.361	67.08
838.533	69.03
838.706	69.4
838.879	66.9
839.052	69.13
839.225	70.01
839.398	69.34
839.57	69.72
839.743	69.23
839.916	68.56
840.088	69.16
840.261	70.02
840.434	67.72
840.607	64.4
840.779	66.59
840.952	66.39
841.124	65.22
841.297	67.7
841.47	69.11
841.642	70.18
841.815	71.58
841.987	72.04
842.16	73.11
842.332	76.8
842.505	80.64
842.677	82.62
842.85	83.91
843.022	88.62
843.194	87.65
843.367	88.64
843.539	90.47
843.712	92.67
843.884	93.18
844.056	95.53
844.229	94.47
844.401	93.72
844.573	92.83
844.745	95.09
844.918	91.06
845.09	96.05
845.262	95.5
845.434	94.42
845.606	90.73
845.779	94.14
845.951	92.45
846.123	97.24
846.295	100.74
846.467	103.96
846.639	104.97
846.811	114.63
846.983	113.67
847.155	116.23
847.327	118.39
847.499	117.21
847.671	118.31
847.843	121.65
848.015	118.74
848.187	120.79
848.359	118.55
848.531	114.2
848.703	109.1
848.875	110.8
849.047	112.17
849.218	108.78
849.39	116.01
849.562	112.33
849.734	114.42
849.905	120.12
850.077	118.16
850.249	119.94
850.421	124.08
850.592	122.16
850.764	120.48
850.936	116.33
851.107	122.17
851.279	121.05
851.451	125.04
851.622	123.4
851.794	117.39
851.965	115.89
852.137	113.07
852.308	111.22
852.48	115
852.651	116.68
852.823	118.84
852.994	118.11
853.166	118.32
853.337	118.91
853.509	119.89
853.68	120.8
853.851	126.88
854.023	126.9
854.194	127.71
854.365	130.47
854.537	134.28
854.708	133.08
854.879	132.27
855.05	130.42
855.222	129.3
855.393	129.01
855.564	129.71
855.735	127.52
855.906	130.3
856.078	131.96
856.249	129.52
856.42	127.36
856.591	133.6
856.762	132.89
856.933	134.4
857.104	130.98
857.275	128.34
857.446	130.15
857.617	130.29
857.788	128.51
857.959	129.98
858.13	131.68
858.301	133.18
858.472	126.53
858.643	133.05
858.814	135.31
858.985	143.52
859.155	151.95
859.326	151.74
859.497	153.65
859.668	156.11
859.839	155.67
860.009	153.94
860.18	154.92
860.351	160.07
860.522	160.68
860.692	155.39
860.863	155.09
861.034	147.29
861.204	148.26
861.375	147.43
861.546	149.38
861.716	145.39
861.887	140.48
862.057	131.5
862.228	129.42
862.398	132.71
862.569	136.56
862.739	137.08
862.91	136.47
863.08	137.21
863.251	137.7
863.421	135.88
863.592	136.36
863.762	138.85
863.932	143.09
864.103	141.57
864.273	135.8
864.443	138.72
864.614	131.2
864.784	133.27
864.954	130.96
865.125	126.61
865.295	128.79
865.465	133.37
865.635	132.19
865.805	134.19
865.976	141.42
866.146	139.82
866.316	142.27
866.486	148.72
866.656	148.27
866.826	147.23
866.996	153.16
867.166	149.45
867.336	144.69
867.506	145.49
867.676	143.39
867.846	138.36
868.016	138.2
868.186	133.95
868.356	135.28
868.526	133.42
868.696	133.76
868.866	133.55
869.036	135.34
869.206	135.37
869.376	132
869.545	133.89
869.715	134.39
869.885	131.44
870.055	133.72
870.224	132.67
870.394	138.76
870.564	139.64
870.734	130.97
870.903	133.89
871.073	128.26
871.243	131.82
871.412	125.31
871.582	122.28
871.751	127.96
871.921	126.75
872.091	123.16
872.26	118.02
872.43	120.77
872.599	129.76
872.769	125.36
872.938	126.43
873.108	126.75
873.277	131.35
873.446	133.84
873.616	133.45
873.785	136.23
873.955	140.79
874.124	139.38
874.293	135.03
874.463	127.78
874.632	130.9
874.801	131.69
874.971	130.86
875.14	133.81
875.309	134.72
875.478	133.67
875.647	127.17
875.817	124.91
875.986	127.28
876.155	130.65
876.324	131.68
876.493	137.04
876.662	140.01
876.831	143.19
877	135.75
877.17	133.22
877.339	129.56
877.508	132.4
877.677	133.37
877.846	132.3
878.015	126.24
878.184	127.03
878.352	116.49
878.521	114.98
878.69	111.51
878.859	110.84
879.028	108.56
879.197	105.93
879.366	100
879.534	95.31
879.703	89.53
879.872	83.01
880.041	76.15
880.21	71.3
880.378	66.27
880.547	61.02
880.716	57.12
880.884	52.54
881.053	49.78
881.222	46.62
881.39	45.22
881.559	43.91
881.727	42.89
881.896	42.19
882.065	41.09
882.233	40.48
882.402	39.38
882.57	38.91
882.739	39.08
882.907	39.41
883.076	39.4
883.244	38.9
883.412	38.93
883.581	39.41
883.749	40.4
883.918	40.83
884.086	41.61
884.254	43.04
884.423	44.09
884.591	44.9
884.759	46.45
884.927	48.49
885.096	49.92
885.264	51.37
885.432	53.28
885.6	55.84
885.769	58.87
885.937	62.05
886.105	66.56
886.273	69.55
886.441	72.66
886.609	77
886.777	81.17
886.945	86.13
887.113	91.93
887.281	93.67
887.449	96.64
887.617	100.75
887.785	103.03
887.953	100.66
888.121	103.48
888.289	107.35
888.457	110.52
888.625	109.75
888.793	110.97
888.961	108.63
889.129	114.35
889.296	112.22
889.464	110.72
889.632	110.71
889.8	117.04
889.967	114.79
890.135	116.02
