Data from 2938726__Reflection_02.txt Node
Date: Sun Mar 15 19:45:28 EDT 2015
User: robert
Spectrometer: USB4E03002
Autoset integration time: false
Trigger mode: 4
Integration Time (sec): 1.000000E-1
Scans to average: 10
Electric dark correction enabled: false
Nonlinearity correction enabled: false
Boxcar width: 5
Stray light correction enabled: false
XAxis mode: Wavelengths
Stop averaging: false
Number of Pixels in Spectrum: 3648
>>>>>Begin Spectral Data<<<<<
177.575	-420
177.794	-16600
178.014	459.37
178.233	-2825
178.452	-404
178.672	-280.83
178.891	-96.41
179.11	-42.19
179.33	-47.23
179.549	-93.98
179.768	-122
179.987	-817.86
180.207	-576.62
180.426	-608.57
180.645	-660.71
180.864	2766.67
181.084	89.81
181.303	70.61
181.522	51.39
181.741	51.76
181.96	64.32
182.179	56.55
182.398	7.63
182.618	-42.34
182.837	-9.48
183.056	-107.29
183.275	-189.13
183.494	-70.73
183.713	-31.18
183.932	-5.48
184.151	-79.78
184.37	-19.75
184.589	21.15
184.808	41.56
185.027	101.82
185.246	35.37
185.465	12.96
185.684	13.32
185.903	-12.91
186.122	-40.57
186.341	-36.96
186.56	-63.09
186.779	-56.91
186.998	-114.45
187.216	-62.91
187.435	-174.52
187.654	-367.39
187.873	-760.56
188.092	1554.29
188.311	-182.11
188.53	-47.15
188.748	-484.62
188.967	74.53
189.186	47.43
189.405	87.87
189.623	108.65
189.842	37.84
190.061	21.62
190.28	51.28
190.498	62.57
190.717	60.73
190.936	-1.71
191.154	22.81
191.373	4.79
191.592	-63.52
191.81	-20.2
192.029	-116.18
192.248	-100.44
192.466	-62.15
192.685	-81.17
192.904	-76.07
193.122	-76.19
193.341	-50.62
193.559	-58.81
193.778	-92.83
193.996	1.19
194.215	-0.28
194.433	27.25
194.652	54.47
194.87	80.34
195.089	52.06
195.307	34.1
195.526	-13.73
195.744	-27.67
195.963	-164.81
196.181	-1111.11
196.399	-753.01
196.618	2830
196.836	1858.33
197.055	-789.39
197.273	-637.89
197.491	-750.65
197.71	2296.15
197.928	-1197.62
198.146	376.87
198.365	-6177.78
198.583	-421.74
198.801	-2161.11
199.019	-125.79
199.238	-120.41
199.456	-188.5
199.674	-55.38
199.892	-77.73
200.111	-296.67
200.329	-65.45
200.547	-21.76
200.765	-17.02
200.983	-18.24
201.202	13.79
201.42	-14.18
201.638	-5.83
201.856	28.82
202.074	34.23
202.292	18.42
202.51	32.05
202.728	21.02
202.946	3.82
203.165	-12.78
203.383	-2.24
203.601	-8.1
203.819	-15.59
204.037	-31.58
204.255	-85.06
204.473	-118.71
204.691	-113.76
204.909	-67.54
205.127	-64.1
205.345	-33.97
205.562	3.85
205.78	16.89
205.998	16.3
206.216	8.14
206.434	11.9
206.652	5.12
206.87	15.41
207.088	51.35
207.306	48.65
207.523	74.35
207.741	36.05
207.959	-37.09
208.177	-95.04
208.395	-128.93
208.612	-90.45
208.83	-247.86
209.048	-85.05
209.266	-71.04
209.483	-253.5
209.701	-104.92
209.919	-166.37
210.136	-44.89
210.354	-31.55
210.572	-98.69
210.79	-119.08
211.007	-230.42
211.225	-126.84
211.442	-158.33
211.66	-137.26
211.878	-58.53
212.095	-185.05
212.313	-203.69
212.53	-248.3
212.748	-309.29
212.966	-170.56
213.183	-151.93
213.401	-111.17
213.618	-100.39
213.836	-95.2
214.053	-117.37
214.271	-130.74
214.488	11.04
214.705	25.14
214.923	32.96
215.14	46.29
215.358	43.08
215.575	34.66
215.793	28.98
216.01	37.37
216.227	28.7
216.445	9.04
216.662	-7.63
216.879	-31.95
217.097	-29.18
217.314	-36.29
217.531	-19.63
217.749	-15.03
217.966	-29.73
218.183	-44.11
218.4	-15.22
218.618	-18.17
218.835	-21.5
219.052	-14.46
219.269	-1.95
219.487	-10.69
219.704	8.66
219.921	17.03
220.138	11.89
220.355	15.43
220.572	22.34
220.79	-5.89
221.007	-8.63
221.224	-1.37
221.441	-16.18
221.658	-31.86
221.875	-39.87
222.092	-54.15
222.309	-51.19
222.526	-44.78
222.743	-42.79
222.96	-44.82
223.177	-43.76
223.394	-32.74
223.611	-33.75
223.828	-28.43
224.045	-22.69
224.262	-13.1
224.479	-19.4
224.696	-15.83
224.913	-9.45
225.13	-15.94
225.347	-15.8
225.564	-9.37
225.781	-11.95
225.997	-13.12
226.214	-9.26
226.431	-4.35
226.648	-7.36
226.865	-3.63
227.082	-3.55
227.298	-5.09
227.515	-2.11
227.732	-0.48
227.949	-2.12
228.165	-2.32
228.382	-2.22
228.599	-3.08
228.816	-3.61
229.032	-2.77
229.249	-3.37
229.466	-3.78
229.682	-3.68
229.899	-3.41
230.116	-4.73
230.332	-4.78
230.549	-5.2
230.765	-4.74
230.982	-3.31
231.199	-1.65
231.415	-3.44
231.632	-3.11
231.848	-4.33
232.065	-5.09
232.281	-6.95
232.498	-5.78
232.714	-4.9
232.931	-4.44
233.147	-5.04
233.364	-5.96
233.58	-8.14
233.797	-5.55
234.013	-5.36
234.23	-4.39
234.446	-4.87
234.662	-5.42
234.879	-5.57
235.095	-6.66
235.312	-5.9
235.528	-6.39
235.744	-7.52
235.961	-6.63
236.177	-7.83
236.393	-7.32
236.61	-8.19
236.826	-7.3
237.042	-4.5
237.258	-4.09
237.475	-1.76
237.691	-2.98
237.907	-3.31
238.123	-1.86
238.339	-3.08
238.556	-1.97
238.772	-1.2
238.988	-0.17
239.204	-1.67
239.42	-4.51
239.636	-4.04
239.853	-5.56
240.069	-5.32
240.285	-4.07
240.501	-4.26
240.717	-2.76
240.933	-2.36
241.149	-1.77
241.365	-0.61
241.581	-0.16
241.797	1.35
242.013	1.16
242.229	1.48
242.445	1.86
242.661	1.9
242.877	2.09
243.093	1.5
243.309	1.13
243.525	0.7
243.741	-0.03
243.957	0.34
244.173	-0.18
244.388	-0.08
244.604	-0.08
244.82	-0.24
245.036	-0.8
245.252	-0.16
245.468	-0.01
245.683	0.74
245.899	1.01
246.115	0.78
246.331	1.13
246.547	1.35
246.762	1.59
246.978	1.63
247.194	1.85
247.409	2.23
247.625	2.29
247.841	2.17
248.057	2.18
248.272	1.87
248.488	2.05
248.703	1.81
248.919	1.35
249.135	0.96
249.35	0.52
249.566	0
249.782	0.04
249.997	-1.49
250.213	-1.33
250.428	-2.4
250.644	-2.14
250.859	-1.6
251.075	-1.79
251.29	-1.71
251.506	-1.81
251.721	-0.6
251.937	-1.07
252.152	-0.94
252.368	-0.65
252.583	-0.33
252.798	0.5
253.014	0.13
253.229	-0.11
253.445	-0.52
253.66	-0.37
253.875	-0.47
254.091	-1.22
254.306	-0.39
254.521	-2.06
254.737	-1.73
254.952	-3.02
255.167	-3.31
255.383	-2.13
255.598	-1.39
255.813	-0.69
256.028	-0.2
256.244	-1.04
256.459	-1.41
256.674	-2.32
256.889	-1.9
257.104	-1.83
257.32	-0.73
257.535	-0.67
257.75	-1.13
257.965	-1.72
258.18	-1.7
258.395	-1.73
258.61	-0.28
258.826	0.23
259.041	0.33
259.256	0.48
259.471	0.59
259.686	0.57
259.901	0.4
260.116	0.62
260.331	0.58
260.546	0.76
260.761	0.83
260.976	0.36
261.191	-0.08
261.406	0.16
261.621	0.57
261.836	0.2
262.05	0.21
262.265	0.09
262.48	-0.09
262.695	-0.24
262.91	0.02
263.125	-0.57
263.34	-0.88
263.555	-0.07
263.769	-1.01
263.984	-2.15
264.199	-0.79
264.414	-1.03
264.629	-1.19
264.843	-0.94
265.058	-0.06
265.273	-0.31
265.488	0.19
265.702	0.8
265.917	0.51
266.132	1.1
266.346	0.93
266.561	0.5
266.776	0.35
266.99	0.68
267.205	0.93
267.42	0.33
267.634	0.24
267.849	0.23
268.063	-0.09
268.278	-0.1
268.492	0.05
268.707	0.39
268.922	0.54
269.136	0.56
269.351	0.52
269.565	0.33
269.78	0.41
269.994	0.35
270.209	0.63
270.423	1.11
270.637	0.92
270.852	1.47
271.066	1.08
271.281	1.08
271.495	1.11
271.709	0.87
271.924	0.71
272.138	0.55
272.353	0.63
272.567	0.23
272.781	0.23
272.996	0.17
273.21	-0.41
273.424	-0.3
273.638	-0.65
273.853	-0.58
274.067	-0.15
274.281	-0.35
274.495	-0.12
274.71	-0.46
274.924	-0.54
275.138	-0.92
275.352	-0.56
275.566	-0.65
275.781	-0.34
275.995	-0.2
276.209	-0.68
276.423	-1
276.637	-0.91
276.851	-1.75
277.065	-1.27
277.279	-1.58
277.493	-1.88
277.707	-2.5
277.921	-2.75
278.135	-3.15
278.349	-3.75
278.563	-3.39
278.777	-3.62
278.991	-3.47
279.205	-1.96
279.419	-2.15
279.633	-1.06
279.847	-0.57
280.061	-0.32
280.275	-0.02
280.489	0.1
280.703	0.58
280.917	0.48
281.131	0.92
281.344	0.89
281.558	-0.08
281.772	-0.33
281.986	-0.67
282.2	-1.13
282.414	-1.2
282.627	-1.16
282.841	-1.12
283.055	-1.47
283.269	-1.34
283.482	-1.6
283.696	-2.08
283.91	-1.82
284.123	-1.78
284.337	-1.52
284.551	-1.41
284.764	-1.09
284.978	-1.29
285.192	-1.08
285.405	-0.64
285.619	-0.88
285.833	-0.74
286.046	-0.37
286.26	-0.71
286.473	-0.52
286.687	-0.91
286.9	-0.54
287.114	-0.72
287.327	-0.57
287.541	-0.81
287.754	-1.24
287.968	-1.19
288.181	-1.37
288.395	-1.19
288.608	-0.24
288.822	-0.43
289.035	-0.28
289.248	-0.46
289.462	-0.01
289.675	0.08
289.889	0.29
290.102	0.4
290.315	0.99
290.529	1.52
290.742	1.43
290.955	1.2
291.169	1.5
291.382	1.64
291.595	1.39
291.808	1.02
292.022	0.73
292.235	0.91
292.448	1.07
292.661	0.32
292.875	-0.41
293.088	-0.35
293.301	0.18
293.514	-0.06
293.727	-0.26
293.94	-0.12
294.153	-0.28
294.367	0.07
294.58	-0.34
294.793	-0.36
295.006	0.05
295.219	0.28
295.432	0.33
295.645	-0.2
295.858	0.08
296.071	0.47
296.284	0.64
296.497	0.66
296.71	0.6
296.923	0.86
297.136	0.89
297.349	0.74
297.562	0.83
297.775	0.68
297.988	0.87
298.201	0.6
298.414	0.25
298.626	0.5
298.839	0.58
299.052	0.73
299.265	0.66
299.478	0.5
299.691	0.73
299.903	0.66
300.116	0.57
300.329	0.31
300.542	0.49
300.755	0.55
300.967	0.19
301.18	-0.24
301.393	-0.15
301.605	-0.55
301.818	-0.34
302.031	-0.55
302.243	-0.69
302.456	-0.53
302.669	-0.52
302.881	-0.59
303.094	-0.48
303.307	-0.38
303.519	0.22
303.732	-0.06
303.944	0.48
304.157	0.24
304.37	0.35
304.582	0.53
304.795	0.2
305.007	0.22
305.22	0.39
305.432	0.5
305.645	0.55
305.857	0.24
306.069	0.25
306.282	0.05
306.494	0.39
306.707	0.37
306.919	0.36
307.132	0.58
307.344	1.01
307.556	1.04
307.769	1.1
307.981	1.24
308.193	1.34
308.406	1.52
308.618	1.55
308.83	1.49
309.043	1.18
309.255	1.32
309.467	1.53
309.679	1.26
309.892	0.91
310.104	0.37
310.316	0.18
310.528	0.38
310.74	0.34
310.953	0.63
311.165	0.39
311.377	0.75
311.589	0.78
311.801	0.77
312.013	0.92
312.225	1.29
312.437	1.81
312.649	1.75
312.862	1.44
313.074	1.46
313.286	1.63
313.498	2.15
313.71	1.91
313.922	1.64
314.134	1.86
314.346	1.64
314.558	1.34
314.77	1.56
314.982	1.64
315.193	1.9
315.405	2.07
315.617	1.74
315.829	1.46
316.041	1.68
316.253	1.98
316.465	1.87
316.677	2.59
316.888	2.51
317.1	2.02
317.312	1.96
317.524	1.58
317.736	1.69
317.947	1.57
318.159	1.47
318.371	1.11
318.583	1.34
318.794	0.88
319.006	0.27
319.218	0.83
319.43	1.28
319.641	1.98
319.853	2.49
320.064	2.51
320.276	2.28
320.488	2.85
320.699	3.88
320.911	3.84
321.123	4.29
321.334	4.16
321.546	4.51
321.757	4.42
321.969	4.63
322.18	4.4
322.392	4.73
322.603	5.14
322.815	5.32
323.026	4.85
323.238	4.33
323.449	4.21
323.661	4.76
323.872	4.65
324.083	4.8
324.295	4.72
324.506	4.98
324.718	4.72
324.929	5.47
325.14	5.54
325.352	5.74
325.563	6.58
325.774	7
325.986	7.59
326.197	7.71
326.408	7.65
326.62	7.56
326.831	7.84
327.042	8.39
327.253	8.26
327.464	8.53
327.676	9.03
327.887	9.31
328.098	9.69
328.309	9.53
328.52	9.88
328.732	10.63
328.943	11.21
329.154	11.36
329.365	11.26
329.576	11.62
329.787	11.4
329.998	11.65
330.209	11.45
330.42	12.01
330.631	12.26
330.842	12.32
331.053	12.11
331.264	12.46
331.475	12.6
331.686	13.17
331.897	13.44
332.108	13.86
332.319	14.04
332.53	14.35
332.741	14.14
332.952	14.71
333.163	14.88
333.374	15.04
333.585	15.41
333.795	15.84
334.006	15.78
334.217	15.62
334.428	15.76
334.639	15.82
334.849	15.82
335.06	16.19
335.271	16.02
335.482	16.11
335.692	16.79
335.903	16.43
336.114	16.53
336.325	16.76
336.535	16.56
336.746	16.67
336.957	17.03
337.167	17.33
337.378	17.08
337.589	17.15
337.799	17.09
338.01	16.9
338.22	17.12
338.431	17.65
338.642	17.69
338.852	17.86
339.063	17.76
339.273	17.32
339.484	17.29
339.694	17.65
339.905	17.34
340.115	17.77
340.326	17.76
340.536	17.42
340.746	16.84
340.957	16.52
341.167	16.84
341.378	17.13
341.588	17.53
341.799	17.5
342.009	16.91
342.219	17.01
342.43	17.11
342.64	16.81
342.85	16.89
343.061	16.98
343.271	17.03
343.481	17.29
343.691	17.12
343.902	16.79
344.112	16.81
344.322	17.34
344.532	17.21
344.743	17.27
344.953	17.33
345.163	17.46
345.373	17.55
345.583	17.67
345.793	17.06
346.004	16.97
346.214	16.83
346.424	16.86
346.634	16.74
346.844	16.85
347.054	16.5
347.264	16.96
347.474	16.7
347.684	16.45
347.894	16.46
348.104	16.56
348.314	16.62
348.524	16.9
348.734	16.61
348.944	16.55
349.154	16.52
349.364	16.39
349.574	15.85
349.784	16.37
349.994	16.63
350.204	16.68
350.413	16.63
350.623	17.03
350.833	17.02
351.043	17.05
351.253	17.06
351.463	17.16
351.672	17.43
351.882	17.75
352.092	17.5
352.302	17.58
352.511	17.54
352.721	17.6
352.931	17.33
353.141	17.19
353.35	17.36
353.56	17.47
353.77	17.08
353.979	17.16
354.189	16.97
354.399	16.78
354.608	16.68
354.818	16.69
355.027	17.11
355.237	17.08
355.447	17.01
355.656	17.19
355.866	16.78
356.075	17.09
356.285	17.05
356.494	17.18
356.704	17.19
356.913	17.24
357.123	17.01
357.332	16.72
357.542	16.45
357.751	16.65
357.96	16.54
358.17	16.81
358.379	16.7
358.589	16.66
358.798	16.63
359.007	16.94
359.217	16.88
359.426	17.12
359.635	17.25
359.845	17.33
360.054	17.02
360.263	16.82
360.472	16.69
360.682	16.56
360.891	16.27
361.1	16.16
361.309	15.94
361.519	15.9
361.728	15.88
361.937	15.87
362.146	15.74
362.355	15.88
362.564	16.02
362.774	15.83
362.983	15.78
363.192	15.86
363.401	15.97
363.61	15.95
363.819	15.75
364.028	15.5
364.237	15.31
364.446	15.49
364.655	15.54
364.864	15.37
365.073	15.68
365.282	15.8
365.491	15.61
365.7	15.45
365.909	15.56
366.118	15.6
366.327	15.68
366.536	15.54
366.745	15.6
366.954	15.19
367.162	15.3
367.371	14.91
367.58	14.67
367.789	15.01
367.998	14.75
368.207	14.83
368.415	15.18
368.624	14.91
368.833	15.19
369.042	15.05
369.25	15.04
369.459	14.9
369.668	15.05
369.877	15.36
370.085	15.11
370.294	15.18
370.503	14.76
370.711	14.53
370.92	14.78
371.129	14.53
371.337	14.53
371.546	14.57
371.754	14.52
371.963	14.49
372.171	14.05
372.38	14.26
372.589	14.18
372.797	14.37
373.006	14.27
373.214	14.15
373.423	14.17
373.631	14.15
373.84	14.33
374.048	14.48
374.256	14.34
374.465	14.64
374.673	14.63
374.882	14.87
375.09	14.8
375.298	14.76
375.507	15.11
375.715	15.02
375.923	15.03
376.132	14.76
376.34	14.82
376.548	14.91
376.757	14.96
376.965	15.06
377.173	14.79
377.381	15.04
377.59	15.16
377.798	14.65
378.006	14.78
378.214	14.74
378.423	15.15
378.631	14.76
378.839	14.95
379.047	14.73
379.255	14.61
379.463	14.85
379.671	14.62
379.879	14.55
380.088	14.88
380.296	14.78
380.504	14.53
380.712	14.57
380.92	14.72
381.128	14.66
381.336	14.88
381.544	14.84
381.752	14.87
381.96	14.89
382.168	14.87
382.376	14.85
382.584	15.01
382.791	15.52
382.999	15.31
383.207	15.46
383.415	15.37
383.623	15.39
383.831	15.53
384.039	15.51
384.247	15.56
384.454	15.54
384.662	15.71
384.87	15.54
385.078	15.2
385.285	15.22
385.493	15.07
385.701	15.16
385.909	15.42
386.116	15.33
386.324	15.42
386.532	15.38
386.739	15.45
386.947	15.26
387.155	15.08
387.362	15.18
387.57	14.98
387.778	14.8
387.985	14.83
388.193	14.38
388.4	14.42
388.608	14.4
388.816	14.2
389.023	14.13
389.231	14.17
389.438	14.31
389.646	14.31
389.853	14.45
390.061	14.53
390.268	14.37
390.475	14.56
390.683	14.28
390.89	14.24
391.098	14.41
391.305	14.47
391.512	14.5
391.72	14.68
391.927	14.52
392.135	14.48
392.342	14.84
392.549	15
392.756	15.02
392.964	15.19
393.171	15.2
393.378	15.27
393.586	15.16
393.793	15.16
394	15.1
394.207	15.33
394.414	15.35
394.622	15.3
394.829	15.1
395.036	15.04
395.243	15.09
395.45	15.2
395.657	15.18
395.864	15.37
396.072	15.26
396.279	15.35
396.486	15.4
396.693	15.43
396.9	15.47
397.107	15.75
397.314	15.75
397.521	15.83
397.728	15.65
397.935	15.64
398.142	15.56
398.349	15.65
398.556	15.52
398.763	15.49
398.97	15.52
399.177	15.36
399.383	15.38
399.59	15.23
399.797	15.14
400.004	15.1
400.211	15.32
400.418	15.34
400.625	15.21
400.831	15.49
401.038	15.43
401.245	15.58
401.452	15.7
401.658	15.63
401.865	16.01
402.072	16.07
402.279	16.27
402.485	16.06
402.692	16.23
402.899	16.32
403.105	16.23
403.312	16.2
403.519	16.26
403.725	16.27
403.932	16.33
404.138	16.34
404.345	16.27
404.552	16.28
404.758	16.33
404.965	16.17
405.171	16.38
405.378	16.44
405.584	16.38
405.791	16.21
405.997	16.3
406.204	16.24
406.41	16.2
406.617	16.13
406.823	16.25
407.029	16.26
407.236	16.35
407.442	16.14
407.649	16.24
407.855	16.59
408.061	16.62
408.268	16.49
408.474	16.6
408.68	16.5
408.887	16.83
409.093	16.85
409.299	17
409.505	17.1
409.712	17.05
409.918	16.83
410.124	16.51
410.33	16.68
410.537	16.77
410.743	16.7
410.949	16.67
411.155	16.39
411.361	16.2
411.567	16.16
411.773	16.2
411.98	16.46
412.186	16.41
412.392	16.65
412.598	16.55
412.804	16.29
413.01	16.55
413.216	16.49
413.422	16.62
413.628	16.7
413.834	16.63
414.04	16.59
414.246	16.41
414.452	16.57
414.658	16.72
414.864	16.67
415.07	16.97
415.275	16.76
415.481	16.84
415.687	16.8
415.893	16.75
416.099	16.75
416.305	16.75
416.511	16.93
416.716	16.95
416.922	16.93
417.128	17.04
417.334	17.13
417.539	17.22
417.745	17.37
417.951	17.44
418.157	17.56
418.362	17.55
418.568	17.66
418.774	17.68
418.979	17.68
419.185	17.63
419.391	17.57
419.596	17.55
419.802	17.58
420.008	17.63
420.213	17.57
420.419	17.55
420.624	17.69
420.83	17.65
421.035	17.64
421.241	17.6
421.446	17.57
421.652	17.68
421.857	17.74
422.063	17.65
422.268	17.71
422.474	17.73
422.679	17.74
422.885	17.61
423.09	17.54
423.295	17.56
423.501	17.65
423.706	17.79
423.911	17.68
424.117	17.67
424.322	17.75
424.527	17.6
424.733	17.68
424.938	17.64
425.143	17.73
425.349	17.72
425.554	17.71
425.759	17.65
425.964	17.6
426.169	17.79
426.375	17.62
426.58	17.67
426.785	17.73
426.99	17.84
427.195	17.94
427.4	17.88
427.605	17.94
427.811	17.95
428.016	17.88
428.221	17.87
428.426	17.79
428.631	17.9
428.836	17.75
429.041	17.79
429.246	17.65
429.451	17.56
429.656	17.53
429.861	17.65
430.066	17.73
430.271	17.81
430.476	17.71
430.681	17.68
430.886	17.77
431.09	17.86
431.295	17.84
431.5	17.96
431.705	18
431.91	17.97
432.115	17.88
432.32	17.82
432.524	17.75
432.729	17.83
432.934	17.9
433.139	17.87
433.343	17.95
433.548	18.06
433.753	18.03
433.958	18.21
434.162	18.49
434.367	18.74
434.572	18.99
434.776	19.38
434.981	19.61
435.186	19.73
435.39	19.91
435.595	20.01
435.799	20.07
436.004	20.18
436.209	20.11
436.413	19.92
436.618	19.72
436.822	19.52
437.027	19.23
437.231	19.04
437.436	18.94
437.64	18.84
437.845	18.71
438.049	18.6
438.253	18.57
438.458	18.55
438.662	18.6
438.867	18.66
439.071	18.63
439.275	18.63
439.48	18.71
439.684	18.64
439.888	18.57
440.093	18.5
440.297	18.57
440.501	18.51
440.706	18.49
440.91	18.5
441.114	18.43
441.318	18.46
441.523	18.45
441.727	18.38
441.931	18.49
442.135	18.6
442.339	18.66
442.543	18.71
442.748	18.73
442.952	18.78
443.156	18.81
443.36	18.81
443.564	18.82
443.768	18.9
443.972	18.88
444.176	18.92
444.38	18.84
444.584	18.91
444.788	18.87
444.992	18.88
445.196	18.82
445.4	18.77
445.604	18.81
445.808	18.8
446.012	18.84
446.216	18.79
446.42	18.74
446.624	18.77
446.828	18.7
447.032	18.64
447.235	18.58
447.439	18.57
447.643	18.58
447.847	18.63
448.051	18.68
448.254	18.6
448.458	18.6
448.662	18.6
448.866	18.53
449.069	18.65
449.273	18.72
449.477	18.81
449.681	18.87
449.884	18.84
450.088	18.78
450.292	18.76
450.495	18.7
450.699	18.76
450.902	18.68
451.106	18.61
451.31	18.49
451.513	18.4
451.717	18.44
451.92	18.39
452.124	18.34
452.327	18.25
452.531	18.15
452.734	18.27
452.938	18.35
453.141	18.38
453.345	18.34
453.548	18.32
453.752	18.22
453.955	18.19
454.158	18.31
454.362	18.34
454.565	18.44
454.769	18.47
454.972	18.35
455.175	18.22
455.379	18.23
455.582	18.39
455.785	18.43
455.988	18.45
456.192	18.34
456.395	18.34
456.598	18.37
456.801	18.42
457.005	18.42
457.208	18.43
457.411	18.53
457.614	18.64
457.817	18.63
458.021	18.67
458.224	18.76
458.427	18.92
458.63	18.86
458.833	18.87
459.036	18.89
459.239	18.89
459.442	18.88
459.645	18.85
459.848	18.79
460.051	18.81
460.254	18.89
460.457	18.88
460.66	18.75
460.863	18.75
461.066	18.8
461.269	18.77
461.472	18.87
461.675	18.94
461.878	19.04
462.081	18.95
462.284	18.95
462.486	18.73
462.689	18.7
462.892	18.72
463.095	18.73
463.298	18.66
463.5	18.71
463.703	18.63
463.906	18.58
464.109	18.47
464.311	18.56
464.514	18.62
464.717	18.61
464.92	18.57
465.122	18.57
465.325	18.53
465.528	18.44
465.73	18.34
465.933	18.3
466.135	18.36
466.338	18.43
466.541	18.52
466.743	18.46
466.946	18.56
467.148	18.65
467.351	18.7
467.553	18.77
467.756	18.92
467.958	18.99
468.161	19.15
468.363	19.06
468.566	18.98
468.768	18.81
468.971	18.86
469.173	18.79
469.375	18.85
469.578	18.7
469.78	18.74
469.983	18.73
470.185	18.59
470.387	18.51
470.59	18.62
470.792	18.61
470.994	18.78
471.196	18.8
471.399	18.97
471.601	18.95
471.803	19.09
472.005	19.04
472.208	19
472.41	18.96
472.612	18.84
472.814	18.84
473.016	18.93
473.218	18.82
473.421	18.82
473.623	18.87
473.825	18.91
474.027	18.9
474.229	19.01
474.431	18.84
474.633	19.03
474.835	19.21
475.037	19.21
475.239	19.17
475.441	19.13
475.643	19.07
475.845	18.98
476.047	19.06
476.249	19.03
476.451	18.99
476.653	19.13
476.855	19.08
477.057	18.97
477.258	18.9
477.46	18.89
477.662	18.98
477.864	19.05
478.066	19.07
478.268	19
478.469	18.96
478.671	18.87
478.873	18.95
479.075	18.96
479.276	19.07
479.478	19.16
479.68	19.19
479.882	19.15
480.083	19.1
480.285	19.11
480.487	19.03
480.688	19.09
480.89	19.12
481.091	19.12
481.293	19.16
481.495	19.15
481.696	19.16
481.898	19.23
482.099	19.34
482.301	19.4
482.502	19.38
482.704	19.39
482.905	19.41
483.107	19.43
483.308	19.46
483.51	19.49
483.711	19.54
483.913	19.53
484.114	19.52
484.315	19.51
484.517	19.55
484.718	19.64
484.92	19.68
485.121	19.66
485.322	19.7
485.524	19.71
485.725	19.73
485.926	19.7
486.127	19.73
486.329	19.83
486.53	19.81
486.731	19.77
486.932	19.68
487.134	19.72
487.335	19.81
487.536	19.82
487.737	19.79
487.938	19.71
488.139	19.74
488.341	19.74
488.542	19.67
488.743	19.69
488.944	19.74
489.145	19.82
489.346	19.83
489.547	19.79
489.748	19.8
489.949	19.83
490.15	19.94
490.351	19.95
490.552	19.96
490.753	19.95
490.954	19.96
491.155	19.96
491.356	19.92
491.557	19.89
491.758	19.91
491.959	19.89
492.159	19.89
492.36	19.84
492.561	19.79
492.762	19.78
492.963	19.86
493.164	19.87
493.364	19.81
493.565	19.75
493.766	19.82
493.967	19.87
494.167	19.78
494.368	19.78
494.569	19.76
494.769	19.81
494.97	19.85
495.171	19.88
495.371	19.98
495.572	19.97
495.773	20.09
495.973	20.06
496.174	20.01
496.375	20.23
496.575	20.38
496.776	20.49
496.976	20.58
497.177	20.58
497.377	20.57
497.578	20.47
497.778	20.51
497.979	20.48
498.179	20.5
498.38	20.56
498.58	20.5
498.78	20.34
498.981	20.29
499.181	20.19
499.382	20.17
499.582	20.11
499.782	20.1
499.983	20.08
500.183	20.19
500.383	20.1
500.584	20.09
500.784	20.06
500.984	20.13
501.184	20.21
501.385	20.28
501.585	20.29
501.785	20.31
501.985	20.42
502.185	20.41
502.386	20.33
502.586	20.44
502.786	20.36
502.986	20.53
503.186	20.42
503.386	20.38
503.586	20.29
503.786	20.42
503.987	20.32
504.187	20.22
504.387	20.34
504.587	20.34
504.787	20.33
504.987	20.26
505.187	20.2
505.387	20.44
505.587	20.37
505.786	20.47
505.986	20.41
506.186	20.53
506.386	20.6
506.586	20.63
506.786	20.61
506.986	20.68
507.186	20.8
507.386	20.8
507.585	20.67
507.785	20.72
507.985	20.74
508.185	20.71
508.384	20.72
508.584	20.76
508.784	20.69
508.984	20.75
509.183	20.74
509.383	20.83
509.583	20.92
509.782	20.91
509.982	20.96
510.182	20.93
510.381	21
510.581	21.03
510.781	21.02
510.98	21.08
511.18	21.05
511.379	21.03
511.579	21.1
511.778	21.07
511.978	21.13
512.177	21.14
512.377	21.17
512.576	21.19
512.776	21.23
512.975	21.24
513.175	21.25
513.374	21.35
513.573	21.33
513.773	21.2
513.972	21.22
514.172	21.26
514.371	21.4
514.57	21.45
514.77	21.46
514.969	21.52
515.168	21.56
515.367	21.51
515.567	21.51
515.766	21.63
515.965	21.68
516.164	21.67
516.364	21.68
516.563	21.63
516.762	21.71
516.961	21.77
517.16	21.69
517.359	21.68
517.559	21.79
517.758	21.89
517.957	21.83
518.156	21.88
518.355	21.91
518.554	21.93
518.753	21.99
518.952	21.98
519.151	22.02
519.35	22.02
519.549	22.03
519.748	22.01
519.947	21.96
520.146	22
520.345	21.95
520.544	21.91
520.743	21.86
520.942	21.83
521.141	21.79
521.339	21.72
521.538	21.83
521.737	21.91
521.936	21.91
522.135	21.91
522.333	21.94
522.532	22.03
522.731	22.12
522.93	22.13
523.129	22.1
523.327	22.14
523.526	22.17
523.725	22.21
523.923	22.23
524.122	22.19
524.321	22.3
524.519	22.34
524.718	22.33
524.917	22.3
525.115	22.35
525.314	22.41
525.512	22.37
525.711	22.37
525.909	22.33
526.108	22.29
526.306	22.36
526.505	22.32
526.703	22.34
526.902	22.39
527.1	22.44
527.299	22.49
527.497	22.49
527.696	22.53
527.894	22.5
528.092	22.51
528.291	22.54
528.489	22.57
528.688	22.56
528.886	22.58
529.084	22.53
529.283	22.54
529.481	22.51
529.679	22.49
529.877	22.47
530.076	22.51
530.274	22.54
530.472	22.57
530.67	22.58
530.869	22.6
531.067	22.6
531.265	22.71
531.463	22.69
531.661	22.71
531.859	22.76
532.057	22.89
532.255	22.96
532.454	23.01
532.652	23.04
532.85	23.02
533.048	23.08
533.246	23.04
533.444	23.03
533.642	23.09
533.84	23.1
534.038	23.11
534.236	23.05
534.434	23.03
534.632	23.01
534.83	23.03
535.027	23.07
535.225	23.09
535.423	23.13
535.621	23.16
535.819	23.21
536.017	23.32
536.215	23.35
536.412	23.49
536.61	23.53
536.808	23.55
537.006	23.54
537.203	23.62
537.401	23.74
537.599	23.96
537.797	24.08
537.994	24.06
538.192	24.24
538.39	24.45
538.587	24.55
538.785	24.8
538.983	25.08
539.18	25.39
539.378	25.54
539.575	25.7
539.773	25.81
539.97	25.97
540.168	26.25
540.366	26.32
540.563	26.36
540.761	26.45
540.958	26.54
541.155	26.57
541.353	26.59
541.55	26.63
541.748	26.65
541.945	26.64
542.143	26.65
542.34	26.64
542.537	26.72
542.735	26.87
542.932	26.92
543.129	26.98
543.327	27.16
543.524	27.41
543.721	27.75
543.919	28.11
544.116	28.6
544.313	29.05
544.51	29.59
544.708	30.06
544.905	30.46
545.102	30.96
545.299	31.37
545.496	31.59
545.693	31.68
545.891	31.62
546.088	31.54
546.285	31.33
546.482	31.06
546.679	30.73
546.876	30.34
547.073	29.95
547.27	29.52
547.467	29.09
547.664	28.81
547.861	28.56
548.058	28.33
548.255	28.09
548.452	27.88
548.649	27.82
548.846	27.62
549.043	27.55
549.24	27.52
549.437	27.43
549.633	27.33
549.83	27.08
550.027	26.85
550.224	26.8
550.421	26.67
550.618	26.51
550.814	26.17
551.011	25.92
551.208	25.7
551.405	25.46
551.601	25.47
551.798	25.47
551.995	25.49
552.191	25.48
552.388	25.4
552.585	25.26
552.781	25.15
552.978	25.11
553.175	25.21
553.371	25.07
553.568	25.15
553.764	25.02
553.961	24.85
554.157	24.76
554.354	24.79
554.55	24.57
554.747	24.61
554.943	24.67
555.14	24.62
555.336	24.59
555.533	24.68
555.729	24.6
555.926	24.57
556.122	24.57
556.318	24.5
556.515	24.34
556.711	24.29
556.907	24.32
557.104	24.28
557.3	24.39
557.496	24.25
557.693	24.08
557.889	24.14
558.085	24.11
558.281	24.12
558.478	24.25
558.674	24.4
558.87	24.57
559.066	24.52
559.262	24.52
559.459	24.52
559.655	24.66
559.851	24.88
560.047	24.77
560.243	24.7
560.439	24.68
560.635	24.68
560.831	24.64
561.027	24.7
561.223	24.67
561.419	24.7
561.615	24.84
561.811	24.7
562.007	24.8
562.203	24.8
562.399	24.86
562.595	24.91
562.791	24.85
562.987	24.82
563.183	24.71
563.379	24.77
563.575	24.66
563.771	24.51
563.966	24.55
564.162	24.52
564.358	24.56
564.554	24.61
564.75	24.63
564.945	24.87
565.141	24.93
565.337	25
565.533	25.01
565.728	25.08
565.924	25.13
566.12	25.24
566.315	25.17
566.511	25.22
566.707	25.21
566.902	25.17
567.098	24.99
567.293	24.83
567.489	24.82
567.684	24.74
567.88	24.83
568.076	24.94
568.271	24.91
568.467	25.08
568.662	25
568.858	25.06
569.053	25.09
569.248	25.08
569.444	25.24
569.639	25.27
569.835	25.37
570.03	25.33
570.225	25.26
570.421	25.21
570.616	25.09
570.812	25.17
571.007	25.14
571.202	25.22
571.397	25.22
571.593	25.26
571.788	25.25
571.983	25.27
572.178	25.3
572.374	25.31
572.569	25.36
572.764	25.38
572.959	25.31
573.154	25.31
573.35	25.33
573.545	25.31
573.74	25.33
573.935	25.32
574.13	25.36
574.325	25.41
574.52	25.43
574.715	25.61
574.91	25.73
575.105	25.94
575.3	26.16
575.495	26.25
575.69	26.4
575.885	26.47
576.08	26.72
576.275	26.77
576.47	26.92
576.665	27.17
576.86	27.27
577.055	27.45
577.25	27.45
577.444	27.51
577.639	27.47
577.834	27.61
578.029	27.8
578.224	27.75
578.418	28.02
578.613	28.03
578.808	28.08
579.003	28.03
579.197	27.89
579.392	28.07
579.587	28.1
579.781	28.28
579.976	28.14
580.171	28.11
580.365	28.17
580.56	28.05
580.755	27.96
580.949	27.93
581.144	27.88
581.338	27.93
581.533	27.88
581.727	27.78
581.922	27.63
582.116	27.81
582.311	27.97
582.505	28.11
582.7	28.24
582.894	28.38
583.089	28.44
583.283	28.56
583.478	28.54
583.672	28.53
583.866	28.63
584.061	28.84
584.255	29.16
584.449	29.08
584.644	28.9
584.838	28.9
585.032	29.1
585.226	29.24
585.421	29.42
585.615	29.67
585.809	29.85
586.003	30.06
586.198	30.36
586.392	30.18
586.586	30.26
586.78	30.44
586.974	30.47
587.168	30.39
587.363	30.16
587.557	29.99
587.751	29.87
587.945	29.79
588.139	29.76
588.333	29.52
588.527	29.48
588.721	29.31
588.915	29.21
589.109	29.14
589.303	29.01
589.497	29.1
589.691	29.17
589.885	29.15
590.079	29.03
590.273	28.76
590.466	28.78
590.66	28.82
590.854	29.09
591.048	29.23
591.242	29.32
591.436	29.5
591.629	29.5
591.823	29.69
592.017	29.86
592.211	30.12
592.404	30.41
592.598	30.4
592.792	30.37
592.986	30.21
593.179	30.26
593.373	30.2
593.567	30.23
593.76	30.21
593.954	30.02
594.147	29.82
594.341	29.75
594.535	29.65
594.728	29.62
594.922	29.59
595.115	29.57
595.309	29.43
595.502	29.47
595.696	29.42
595.889	29.31
596.083	29.48
596.276	29.5
596.47	29.54
596.663	29.44
596.856	29.48
597.05	29.43
597.243	29.51
597.437	29.67
597.63	29.73
597.823	29.7
598.017	30.06
598.21	29.93
598.403	30.12
598.596	30.18
598.79	30.4
598.983	30.42
599.176	30.59
599.369	30.64
599.563	30.63
599.756	30.58
599.949	30.72
600.142	30.43
600.335	30.39
600.528	30.21
600.722	30
600.915	29.89
601.108	29.99
601.301	30.03
601.494	30.16
601.687	30.04
601.88	30.08
602.073	30.2
602.266	30.3
602.459	30.35
602.652	30.33
602.845	30.34
603.038	30.26
603.231	30.24
603.424	30.09
603.617	29.84
603.809	29.78
604.002	29.73
604.195	29.64
604.388	29.64
604.581	29.65
604.774	29.74
604.966	29.81
605.159	29.76
605.352	29.83
605.545	30.03
605.737	30.25
605.93	30.38
606.123	30.49
606.316	30.73
606.508	30.94
606.701	31.11
606.894	31.51
607.086	31.71
607.279	32.22
607.471	32.46
607.664	32.7
607.857	33.01
608.049	33.61
608.242	34.17
608.434	34.83
608.627	35.81
608.819	37.27
609.012	38.58
609.204	40.48
609.397	42.41
609.589	44.47
609.782	46.7
609.974	49.11
610.166	51.44
610.359	53.84
610.551	55.85
610.743	57.74
610.936	59.12
611.128	60.15
611.32	60.81
611.513	61.02
611.705	60.9
611.897	60.48
612.09	59.71
612.282	58.7
612.474	57.48
612.666	56.37
612.858	54.96
613.051	53.64
613.243	52.57
613.435	51.27
613.627	50.28
613.819	49.58
614.011	48.7
614.203	47.74
614.395	46.98
614.588	45.83
614.78	44.71
614.972	43.92
615.164	43.06
615.356	42.33
615.548	41.6
615.74	40.81
615.932	39.81
616.124	39.2
616.315	38.5
616.507	37.82
616.699	37.39
616.891	37.27
617.083	36.83
617.275	36.34
617.467	35.67
617.659	35.46
617.85	35.18
618.042	34.75
618.234	34.49
618.426	34.29
618.618	34.13
618.809	34.12
619.001	33.98
619.193	33.58
619.384	33.61
619.576	33.92
619.768	33.79
619.959	33.82
620.151	33.94
620.343	33.87
620.534	33.9
620.726	33.96
620.917	33.89
621.109	33.73
621.301	34.13
621.492	33.96
621.684	33.89
621.875	34.07
622.067	34.1
622.258	34.25
622.45	34.25
622.641	34.31
622.832	34.12
623.024	34.29
623.215	34.32
623.407	34.27
623.598	34.53
623.789	34.49
623.981	34.31
624.172	34.51
624.363	34.58
624.555	34.72
624.746	34.77
624.937	34.6
625.129	34.61
625.32	34.59
625.511	34.56
625.702	34.4
625.893	34.32
626.085	34.32
626.276	34.28
626.467	34.19
626.658	34.12
626.849	34
627.04	34.06
627.231	34.06
627.422	34.12
627.614	34.05
627.805	34.15
627.996	34.4
628.187	34.73
628.378	34.86
628.569	35.17
628.76	35.24
628.951	35.61
629.142	35.99
629.332	36.34
629.523	36.74
629.714	37.16
629.905	37.49
630.096	37.67
630.287	37.51
630.478	37.51
630.669	37.42
630.859	37.39
631.05	37.1
631.241	36.93
631.432	36.48
631.623	36.11
631.813	35.71
632.004	35.39
632.195	34.69
632.385	34.49
632.576	34.14
632.767	33.65
632.957	33.35
633.148	33.16
633.339	32.96
633.529	32.83
633.72	32.73
633.91	32.54
634.101	32.37
634.292	32.61
634.482	32.54
634.673	32.51
634.863	32.5
635.054	32.51
635.244	32.37
635.435	32.39
635.625	32.45
635.815	32.23
636.006	32.39
636.196	32.31
636.387	32.11
636.577	32.16
636.767	32.08
636.958	32.18
637.148	32.11
637.338	32.19
637.529	32.28
637.719	32.11
637.909	32.18
638.099	32.32
638.29	32.27
638.48	32.01
638.67	31.83
638.86	31.98
639.05	31.91
639.241	32.12
639.431	32.17
639.621	32.17
639.811	32.33
640.001	32.16
640.191	31.92
640.381	31.94
640.571	32.09
640.761	32.17
640.951	31.95
641.141	31.91
641.331	31.64
641.521	31.65
641.711	31.49
641.901	31.42
642.091	31.44
642.281	31.47
642.471	31.63
642.661	31.86
642.851	31.9
643.041	31.93
643.231	32.17
643.42	32.15
643.61	32.2
643.8	32.34
643.99	32.49
644.18	32.69
644.369	32.82
644.559	32.47
644.749	32.68
644.939	32.76
645.128	32.64
645.318	32.37
645.508	32.35
645.697	32.46
645.887	32.55
646.076	32.36
646.266	32.38
646.456	32.5
646.645	32.98
646.835	32.88
647.024	32.97
647.214	33.1
647.403	33.2
647.593	33.61
647.782	33.68
647.972	33.61
648.161	33.83
648.351	33.81
648.54	33.58
648.73	33.59
648.919	33.65
649.108	33.79
649.298	34.14
649.487	34.15
649.677	33.93
649.866	33.93
650.055	33.99
650.244	33.98
650.434	34.19
650.623	34.34
650.812	34.2
651.002	34.18
651.191	34.02
651.38	33.85
651.569	33.77
651.758	33.88
651.947	33.76
652.137	33.66
652.326	33.64
652.515	33.31
652.704	33.31
652.893	33.26
653.082	33.04
653.271	32.96
653.46	33.09
653.649	33.33
653.838	33.18
654.027	33.07
654.216	33.08
654.405	33.12
654.594	33.2
654.783	32.96
654.972	33.09
655.161	33.32
655.35	33.23
655.539	33.17
655.728	33.01
655.916	33.04
656.105	33
656.294	32.91
656.483	32.78
656.672	32.86
656.86	32.79
657.049	32.75
657.238	32.74
657.427	32.83
657.615	32.71
657.804	32.79
657.993	32.94
658.181	32.85
658.37	33.08
658.559	33.07
658.747	33
658.936	32.99
659.125	33.47
659.313	33.33
659.502	33.39
659.69	33.4
659.879	33.46
660.067	33.4
660.256	33.63
660.444	33.51
660.633	33.54
660.821	33.92
661.01	34.26
661.198	33.89
661.387	34.19
661.575	34.26
661.763	34.27
661.952	34.18
662.14	34.28
662.328	34.5
662.517	34.38
662.705	34.12
662.893	34.01
663.082	33.69
663.27	33.61
663.458	33.43
663.646	33.3
663.834	33.47
664.023	33.41
664.211	33.48
664.399	33.16
664.587	33.39
664.775	33.94
664.963	33.64
665.152	33.53
665.34	33.25
665.528	33.34
665.716	33.34
665.904	33.13
666.092	33.1
666.28	33.09
666.468	33.16
666.656	33.14
666.844	32.91
667.032	32.99
667.22	33.54
667.408	33.81
667.596	33.83
667.784	33.79
667.971	33.86
668.159	34.02
668.347	34.07
668.535	33.82
668.723	33.76
668.911	33.82
669.098	33.8
669.286	33.58
669.474	33.52
669.662	33.55
669.849	33.6
670.037	33.5
670.225	33.73
670.413	33.42
670.6	33.77
670.788	33.84
670.976	33.66
671.163	33.77
671.351	33.73
671.538	33.73
671.726	33.64
671.913	33.59
672.101	33.77
672.289	33.51
672.476	33.71
672.664	33.47
672.851	33.4
673.039	33.78
673.226	33.41
673.413	33.36
673.601	33.34
673.788	33.36
673.976	33.64
674.163	33.47
674.35	33.41
674.538	33.03
674.725	33.03
674.912	33.12
675.1	32.6
675.287	32.89
675.474	32.67
675.662	32.49
675.849	32.43
676.036	32.35
676.223	32.64
676.411	32.89
676.598	33.26
676.785	33.12
676.972	32.9
677.159	33
677.346	32.88
677.533	32.9
677.721	33.1
677.908	33.2
678.095	33.1
678.282	32.97
678.469	32.91
678.656	32.91
678.843	33.18
679.03	33.17
679.217	33.29
679.404	33.52
679.591	33.73
679.778	33.59
679.964	33.6
680.151	33.49
680.338	33.65
680.525	33.6
680.712	33.48
680.899	33.62
681.086	33.74
681.272	33.7
681.459	33.44
681.646	33.55
681.833	33.96
682.02	33.93
682.206	34.12
682.393	33.87
682.58	33.89
682.766	34.07
682.953	33.85
683.14	33.92
683.326	33.74
683.513	33.84
683.7	33.46
683.886	32.91
684.073	32.92
684.259	32.89
684.446	33.11
684.632	33.14
684.819	33.24
685.005	33.39
685.192	33.34
685.378	34.03
685.565	34.12
685.751	34.68
685.938	35.04
686.124	35.27
686.31	35.28
686.497	35.21
686.683	35.07
686.87	35.04
687.056	35.16
687.242	35.3
687.429	35.04
687.615	35.18
687.801	34.87
687.987	34.88
688.174	34.73
688.36	34.86
688.546	34.8
688.732	34.65
688.918	34.67
689.105	34.49
689.291	34.48
689.477	34.27
689.663	34.07
689.849	34.13
690.035	34.15
690.221	34.27
690.407	34.16
690.593	34.07
690.779	34.4
690.965	34.33
691.151	34.24
691.337	34.23
691.523	34.12
691.709	34.18
691.895	34
692.081	34.35
692.267	33.86
692.453	33.81
692.639	33.86
692.825	33.79
693.011	33.53
693.196	33.42
693.382	33.09
693.568	33.21
693.754	33.21
693.94	33.44
694.125	32.71
694.311	32.59
694.497	32.41
694.682	32.46
694.868	32.13
695.054	32.09
695.239	32.22
695.425	32.74
695.611	32.97
695.796	33.29
695.982	33.59
696.168	33.71
696.353	34.19
696.539	34.13
696.724	34.09
696.91	34.38
697.095	34.66
697.281	34.62
697.466	34.39
697.652	34.38
697.837	34.23
698.023	33.87
698.208	33.63
698.393	33.42
698.579	33.7
698.764	33.59
698.949	33.38
699.135	33.32
699.32	33.19
699.505	33.1
699.691	32.97
699.876	32.78
700.061	32.93
700.246	33.17
700.432	33.39
700.617	33.41
700.802	33.13
700.987	33.39
701.172	33.39
701.358	33.98
701.543	33.84
701.728	34.09
701.913	34.3
702.098	34.18
702.283	34.51
702.468	34.28
702.653	34.18
702.838	34.74
703.023	34.79
703.208	34.85
703.393	34.56
703.578	35.01
703.763	35.21
703.948	35.34
704.133	35.87
704.318	36.13
704.503	36.74
704.688	37.28
704.873	37.88
705.057	38.39
705.242	38.73
705.427	39.07
705.612	39.48
705.797	39.45
705.981	39.75
706.166	39.62
706.351	39.78
706.536	39.89
706.72	39.73
706.905	39.69
707.09	39.6
707.274	39.68
707.459	39.63
707.644	39.53
707.828	39.92
708.013	39.85
708.197	40.32
708.382	39.88
708.567	39.74
708.751	39.49
708.936	39.36
709.12	39.18
709.305	38.78
709.489	38.71
709.673	38.57
709.858	38.15
710.042	37.97
710.227	37.23
710.411	37.42
710.596	37.35
710.78	37.33
710.964	37.6
711.149	37.43
711.333	37.33
711.517	37.3
711.702	37.46
711.886	37.14
712.07	37.32
712.254	37.46
712.438	37.24
712.623	37.02
712.807	36.82
712.991	35.79
713.175	35.63
713.359	35.63
713.544	35.49
713.728	35.27
713.912	35.39
714.096	34.76
714.28	34.4
714.464	34.23
714.648	34.23
714.832	34.11
715.016	34.33
715.2	33.9
715.384	33.81
715.568	33.34
715.752	32.78
715.936	32.45
716.12	32.79
716.304	32.59
716.488	32.88
716.671	32.79
716.855	33.1
717.039	33.43
717.223	33.95
717.407	33.93
717.59	33.96
717.774	34.14
717.958	33.93
718.142	33.52
718.325	33.95
718.509	33.61
718.693	33.68
718.877	33.34
719.06	32.97
719.244	32.49
719.428	31.83
719.611	32.06
719.795	32.4
719.978	33.26
720.162	33.07
720.345	33.09
720.529	33.15
720.713	33.15
720.896	33.49
721.08	33.56
721.263	34.08
721.446	34.46
721.63	34.74
721.813	34.2
721.997	33.58
722.18	33.49
722.364	33.01
722.547	32.8
722.73	32.76
722.914	31.87
723.097	31.55
723.28	31.19
723.464	30.98
723.647	30.95
723.83	30.7
724.013	30.36
724.197	31.23
724.38	31.49
724.563	31.47
724.746	30.98
724.929	30.83
725.112	30.86
725.296	31.06
725.479	30.96
725.662	30.96
725.845	31.34
726.028	31.75
726.211	31.47
726.394	30.61
726.577	30.77
726.76	31.21
726.943	31.95
727.126	32.26
727.309	31.79
727.492	32.17
727.675	31.84
727.858	31.37
728.041	31.48
728.224	31.09
728.407	31.52
728.589	31.87
728.772	31.61
728.955	31.63
729.138	31.25
729.321	31.65
729.503	31.56
729.686	31.15
729.869	31.38
730.052	31.12
730.234	31.06
730.417	31.08
730.6	30.41
730.782	30.5
730.965	30.17
731.148	30.15
731.33	30
731.513	29.88
731.695	30.44
731.878	30.68
732.061	31.14
732.243	31.28
732.426	31.59
732.608	32.02
732.791	32.12
732.973	32.37
733.156	32.43
733.338	32.65
733.52	32.76
733.703	33.05
733.885	33.17
734.068	32.54
734.25	32.38
734.432	31.86
734.615	31.92
734.797	31.57
734.979	31.2
735.162	31.54
735.344	31.38
735.526	31.59
735.708	30.92
735.891	30.72
736.073	30.98
736.255	31.39
736.437	31.7
736.619	31.45
736.802	31.55
736.984	31.84
737.166	31.81
737.348	31.39
737.53	31.54
737.712	31.37
737.894	30.57
738.076	30.77
738.258	30.66
738.44	30.82
738.622	30.9
738.804	31.62
738.986	31.31
739.168	31.5
739.35	31.7
739.532	31.2
739.714	31.18
739.896	31.52
740.078	31.07
740.259	31.24
740.441	31.55
740.623	31.69
740.805	30.74
740.987	31.36
741.168	30.18
741.35	30.63
741.532	30.74
741.714	31.44
741.895	31.78
742.077	32.19
742.259	31.73
742.44	31.59
742.622	31.03
742.804	31.09
742.985	30.56
743.167	30.92
743.348	30.11
743.53	29.87
743.711	29.85
743.893	30.46
744.075	30.19
744.256	30.24
744.438	30.16
744.619	30.34
744.8	30.63
744.982	30.56
745.163	31.24
745.345	32.4
745.526	33.09
745.707	32.94
745.889	32.26
746.07	31.49
746.252	31.99
746.433	31.82
746.614	31.02
746.795	30.98
746.977	31.11
747.158	30.47
747.339	29.13
747.52	28.78
747.702	28.54
747.883	28.2
748.064	29.5
748.245	28.31
748.426	28.13
748.607	28.4
748.788	27.71
748.97	27.7
749.151	27.36
749.332	27.88
749.513	27.94
749.694	28.23
749.875	28.56
750.056	27.87
750.237	28.36
750.418	28.4
750.599	28.64
750.78	28.51
750.96	28.27
751.141	28.9
751.322	29.57
751.503	29.42
751.684	28.45
751.865	28.75
752.046	28.33
752.226	28.26
752.407	28.72
752.588	28.7
752.769	29.02
752.949	29.58
753.13	29.4
753.311	29
753.492	29.05
753.672	29.49
753.853	29.35
754.034	29.71
754.214	29.39
754.395	28.67
754.575	28.94
754.756	29.01
754.937	28.57
755.117	28.9
755.298	28.67
755.478	29.01
755.659	28.84
755.839	29.17
756.02	29.32
756.2	29.77
756.381	30.31
756.561	29.49
756.741	30.17
756.922	30.56
757.102	30.08
757.283	30.49
757.463	29.33
757.643	29.54
757.823	29.5
758.004	29.34
758.184	29.59
758.364	28.35
758.545	29.24
758.725	28.61
758.905	28.54
759.085	29.34
759.265	28.78
759.446	29.25
759.626	29.81
759.806	29.13
759.986	30.11
760.166	30.5
760.346	32.22
760.526	32.12
760.706	32.62
760.886	31.81
761.066	31.64
761.246	31.98
761.426	31.73
761.606	30.99
761.786	31.57
761.966	31.24
762.146	31.02
762.326	30.33
762.506	30.11
762.686	30.41
762.866	30.58
763.046	30.31
763.225	30.14
763.405	30.37
763.585	30.59
763.765	30.73
763.945	30.19
764.124	30.1
764.304	29.75
764.484	29.67
764.664	29.09
764.843	29.02
765.023	29.09
765.203	29.5
765.382	29.17
765.562	28.82
765.741	28.19
765.921	28.49
766.101	28.5
766.28	28.53
766.46	28.55
766.639	28.29
766.819	28.38
766.998	27.91
767.178	27.11
767.357	27.71
767.537	26.91
767.716	27.11
767.896	27.01
768.075	26.02
768.254	26.27
768.434	26.76
768.613	26.58
768.792	26.13
768.972	26.31
769.151	26.14
769.33	25.06
769.51	26.59
769.689	26.03
769.868	25.96
770.047	27.27
770.226	27.84
770.406	27.04
770.585	27.1
770.764	27.6
770.943	28.29
771.122	28.71
771.301	29.88
771.48	29.43
771.66	29.83
771.839	29.76
772.018	29.23
772.197	28.4
772.376	28.91
772.555	29.32
772.734	29.62
772.913	28.6
773.092	28.29
773.271	27.05
773.449	27.03
773.628	28.67
773.807	27.96
773.986	28.12
774.165	28.41
774.344	27.95
774.523	26.68
774.701	25.97
774.88	27.57
775.059	27.69
775.238	28.59
775.417	27.99
775.595	26.51
775.774	25.67
775.953	25.41
776.131	26.45
776.31	25.35
776.489	26.26
776.667	27.36
776.846	26.54
777.025	25.07
777.203	25.14
777.382	25.89
777.56	24.59
777.739	25.81
777.917	25.42
778.096	25.09
778.274	26.77
778.453	26.61
778.631	27.39
778.81	26.62
778.988	28.98
779.166	29.66
779.345	29.74
779.523	31.84
779.702	31.71
779.88	31.74
780.058	30.61
780.237	29.95
780.415	30.39
780.593	28.42
780.771	29.13
780.95	27.65
781.128	26.89
781.306	26.3
781.484	25.47
781.662	26.08
781.841	26.68
782.019	26.46
782.197	26.74
782.375	27.09
782.553	27.18
782.731	26.01
782.909	27.1
783.087	28.2
783.265	28.66
783.443	28.98
783.621	29.7
783.799	29.15
783.977	29.64
784.155	29.19
784.333	29.19
784.511	29.44
784.689	29.89
784.867	29.07
785.045	28.34
785.223	27.56
785.4	26.93
785.578	25.4
785.756	26.64
785.934	27.37
786.112	27.18
786.289	27.47
786.467	26.96
786.645	27.16
786.823	27.01
787	25.53
787.178	25.66
787.356	25.79
787.533	26
787.711	25.12
787.889	24.45
788.066	24.38
788.244	23.96
788.421	24.18
788.599	23.95
788.776	23.65
788.954	23.78
789.131	23.78
789.309	23.76
789.486	24.59
789.664	23.31
789.841	23.04
790.019	23.3
790.196	22.43
790.373	22.98
790.551	23.32
790.728	22.52
790.906	22.91
791.083	23.57
791.26	24.18
791.437	23.52
791.615	24.16
791.792	24.57
791.969	25.14
792.146	26.35
792.324	26.14
792.501	26.38
792.678	28.69
792.855	28.9
793.032	29.31
793.209	29.05
793.387	28.72
793.564	28.01
793.741	27.45
793.918	26.81
794.095	25.19
794.272	25.61
794.449	25.79
794.626	26.27
794.803	25.87
794.98	26.14
795.157	25.97
795.334	26.56
795.511	28.13
795.688	28
795.864	28.52
796.041	29.12
796.218	28.8
796.395	27.98
796.572	27.96
796.749	29.89
796.925	29.26
797.102	29.43
797.279	29.12
797.456	28.45
797.632	27.72
797.809	27.16
797.986	27.16
798.162	25.99
798.339	25.09
798.516	23.88
798.692	21.45
798.869	20.66
799.046	20.73
799.222	19.98
799.399	19.93
799.575	22.26
799.752	23.07
799.928	22.21
800.105	23.39
800.281	24.04
800.458	23.31
800.634	25.31
800.811	26.16
800.987	24.54
801.163	25.25
801.34	25.92
801.516	24.68
801.692	23.41
801.869	24.39
802.045	24.14
802.221	25.12
802.398	24.49
802.574	24
802.75	23.55
802.926	25.11
803.103	24.74
803.279	25.21
803.455	25.19
803.631	26.38
803.807	27.55
803.983	28.23
804.16	28.63
804.336	29.71
804.512	28.76
804.688	29.69
804.864	27.81
805.04	26.76
805.216	26.3
805.392	27.86
805.568	27.13
805.744	26.4
805.92	25.62
806.096	25.34
806.272	24.96
806.448	24.65
806.623	22.87
806.799	23.15
806.975	24.35
807.151	23.71
807.327	21.53
807.503	20.73
807.678	21.24
807.854	21.47
808.03	21.62
808.206	21.75
808.381	21.35
808.557	21.65
808.733	21.45
808.908	21.62
809.084	21.37
809.26	21.98
809.435	22.45
809.611	21.62
809.787	21.77
809.962	19.11
810.138	20.06
810.313	22.18
810.489	22.76
810.664	23.45
810.84	22.64
811.015	23.81
811.191	24
811.366	24.41
811.542	24.51
811.717	24.89
811.892	27.75
812.068	28.2
812.243	27.16
812.419	26.27
812.594	25.79
812.769	25.89
812.944	24.68
813.12	24.94
813.295	25.05
813.47	25.29
813.645	23.88
813.821	22.08
813.996	20.28
814.171	20.68
814.346	21.83
814.521	22.01
814.697	22.27
814.872	22.53
815.047	22.86
815.222	21.91
815.397	21.31
815.572	21.22
815.747	21.31
815.922	22.65
816.097	22.81
816.272	21.87
816.447	21.79
816.622	20.64
816.797	20.03
816.972	18.79
817.147	20.59
817.322	20.2
817.496	19.97
817.671	21.43
817.846	21.49
818.021	22.79
818.196	22.88
818.371	22.92
818.545	24.58
818.72	25.65
818.895	25.87
819.069	25.22
819.244	25.34
819.419	27.62
819.594	27
819.768	26.91
819.943	25.98
820.117	26.84
820.292	28.25
820.467	27.21
820.641	26.74
820.816	26.81
820.99	26.79
821.165	26.87
821.339	26.05
821.514	25.96
821.688	25.74
821.863	25.98
822.037	26.03
822.212	25.87
822.386	26.27
822.56	26.36
822.735	26.45
822.909	26.52
823.084	26.46
823.258	26.47
823.432	26.2
823.606	26.35
823.781	26.16
823.955	25.88
824.129	25.56
824.303	25.22
824.478	25.21
824.652	24.5
824.826	24.08
825	24.48
825.174	24.09
825.348	24.21
825.523	24.02
825.697	23.79
825.871	23.82
826.045	23.82
826.219	24.13
826.393	24.19
826.567	24.93
826.741	25.12
826.915	24.54
827.089	25.06
827.263	25.4
827.437	24.94
827.611	24.52
827.784	24.61
827.958	24.47
828.132	24.27
828.306	24
828.48	23.84
828.654	23.49
828.827	22.71
829.001	22.46
829.175	21.41
829.349	21.41
829.522	21.59
829.696	20.92
829.87	20.47
830.044	19.17
830.217	19.34
830.391	19.89
830.565	20.99
830.738	21.4
830.912	21.87
831.085	22.99
831.259	22.88
831.432	23.87
831.606	24.47
831.779	26.03
831.953	28.22
832.126	27.4
832.3	26.45
832.473	24.85
832.647	24.97
832.82	25.08
832.994	24.19
833.167	24.74
833.34	24.56
833.514	23.97
833.687	23.42
833.86	22.46
834.034	22.67
834.207	22.51
834.38	23.32
834.553	23.87
834.727	23.78
834.9	24.34
835.073	23.91
835.246	23.45
835.419	23.49
835.593	22.57
835.766	22.18
835.939	21.89
836.112	21.58
836.285	20.72
836.458	19.61
836.631	17.09
836.804	17.35
836.977	17.01
837.15	17.21
837.323	16.27
837.496	18.55
837.669	16.53
837.842	14.69
838.015	13.59
838.188	14.22
838.361	11.73
838.533	14.19
838.706	13.98
838.879	11.84
839.052	10.58
839.225	11.68
839.398	9.93
839.57	12.85
839.743	11.26
839.916	13.5
840.088	12.2
840.261	15.99
840.434	16.22
840.607	15.7
840.779	18.66
840.952	19.23
841.124	17.5
841.297	16.18
841.47	17.72
841.642	21.13
841.815	20.77
841.987	22.57
842.16	20.41
842.332	20.84
842.505	18.44
842.677	17.54
842.85	17.04
843.022	18.26
843.194	22.12
843.367	19.5
843.539	19.36
843.712	18.76
843.884	16.73
844.056	20.1
844.229	18.7
844.401	18.62
844.573	19.56
844.745	20.59
844.918	20
845.09	16.07
845.262	17.33
845.434	15.69
845.606	15.86
845.779	12.58
845.951	12.29
846.123	13.86
846.295	15.97
846.467	15.52
846.639	14.54
846.811	16.08
846.983	17.02
847.155	15.42
847.327	16.54
847.499	16.64
847.671	19.7
847.843	16.91
848.015	15.37
848.187	17.93
848.359	15.76
848.531	13.46
848.703	13.29
848.875	14.03
849.047	16.84
849.218	18.48
849.39	20.2
849.562	21.2
849.734	21.24
849.905	24.44
850.077	28.09
850.249	29.23
850.421	29.99
850.592	26.25
850.764	22.48
850.936	24.12
851.107	21.2
851.279	20.1
851.451	18.02
851.622	20.4
851.794	17.02
851.965	14.03
852.137	14.22
852.308	16.83
852.48	21.36
852.651	24.48
852.823	16.44
852.994	16.01
853.166	11.28
853.337	9.45
853.509	7.96
853.68	5.67
853.851	9.79
854.023	11.31
854.194	10.78
854.365	7.09
854.537	6.09
854.708	15.9
854.879	13.74
855.05	17.87
855.222	15.6
855.393	15.1
855.564	12.25
855.735	4.14
855.906	3.83
856.078	5.31
856.249	4.33
856.42	2.73
856.591	-5.25
856.762	-4.9
856.933	-3.4
857.104	1.01
857.275	4.62
857.446	10.67
857.617	11.57
857.788	9.07
857.959	9.96
858.13	19.01
858.301	21.26
858.472	26.08
858.643	25.13
858.814	23.68
858.985	28.85
859.155	24.8
859.326	25.57
859.497	24.87
859.668	25.61
859.839	24.13
860.009	15.4
860.18	12.84
860.351	11.26
860.522	13.84
860.692	14.92
860.863	7.94
861.034	12.9
861.204	10.97
861.375	15.74
861.546	15.29
861.716	16.43
861.887	25.86
862.057	26.71
862.228	25.94
862.398	23.99
862.569	19.88
862.739	27.55
862.91	27.81
863.08	25.31
863.251	24.13
863.421	26.49
863.592	26.09
863.762	24.07
863.932	20.52
864.103	20.4
864.273	21.05
864.443	24.08
864.614	21.07
864.784	19.74
864.954	17.77
865.125	13.13
865.295	9.57
865.465	8.82
865.635	7.23
865.805	8.87
865.976	11.19
866.146	11.89
866.316	14.26
866.486	10.41
866.656	8.25
866.826	15.17
866.996	13.08
867.166	23.21
867.336	18.91
867.506	22.74
867.676	19.53
867.846	14.01
868.016	16.84
868.186	16.98
868.356	14.11
868.526	11.01
868.696	9.26
868.866	14.45
869.036	11.03
869.206	13.3
869.376	7.4
869.545	16.98
869.715	24.48
869.885	19.65
870.055	12.33
870.224	16.21
870.394	19.9
870.564	20.62
870.734	18.26
870.903	12.03
871.073	10.47
871.243	11.23
871.412	11.82
871.582	6.59
871.751	11.14
871.921	15.31
872.091	11.76
872.26	7.3
872.43	5.13
872.599	12.06
872.769	13.01
872.938	18.99
873.108	21.24
873.277	14.38
873.446	18.04
873.616	12.06
873.785	13.71
873.955	18.95
874.124	23.94
874.293	24.44
874.463	23.37
874.632	26.3
874.801	23.4
874.971	21.39
875.14	29.74
875.309	32.73
875.478	34.96
875.647	33.26
875.817	31.57
875.986	25.29
876.155	27.23
876.324	20.24
876.493	19.22
876.662	17.69
876.831	18.56
877	5.91
877.17	-4.57
877.339	-2.91
877.508	-1.43
877.677	1.42
877.846	5.8
878.015	1.65
878.184	0.67
878.352	-1.73
878.521	-3.13
878.69	-0.27
878.859	3.23
879.028	8.72
879.197	7.26
879.366	8.75
879.534	6.1
879.703	5.1
879.872	9.49
880.041	13.31
880.21	16.67
880.378	16.12
880.547	14.79
880.716	15.67
880.884	17.63
881.053	18.07
881.222	18.07
881.39	19.54
881.559	19.74
881.727	19.29
881.896	18.57
882.065	18.22
882.233	19.14
882.402	19.9
882.57	20
882.739	19.75
882.907	20.05
883.076	20.07
883.244	19.34
883.412	20.07
883.581	20.47
883.749	21.25
883.918	20.67
884.086	19.7
884.254	19.21
884.423	19.3
884.591	18.46
884.759	17.72
884.927	16.92
885.096	16.83
885.264	16.44
885.432	15.17
885.6	15.3
885.769	15.84
885.937	15.83
886.105	15.04
886.273	14.1
886.441	11.54
886.609	11.05
886.777	11.29
886.945	10.96
887.113	10.56
887.281	13.69
887.449	13
887.617	11.6
887.785	15.36
887.953	15.73
888.121	11.16
888.289	11.95
888.457	10.91
888.625	15.05
888.793	19.71
888.961	19.24
889.129	17.18
889.296	17.12
889.464	18.22
889.632	16.15
889.8	17.92
889.967	28.23
890.135	34.92
