Data from 2938752__Reflection_03.txt Node
Date: Sat Mar 14 14:30:11 EDT 2015
User: robert
Spectrometer: USB4E03002
Autoset integration time: false
Trigger mode: 4
Integration Time (sec): 1.000000E-1
Scans to average: 10
Electric dark correction enabled: false
Nonlinearity correction enabled: false
Boxcar width: 5
Stray light correction enabled: false
XAxis mode: Wavelengths
Stop averaging: false
Number of Pixels in Spectrum: 3648
>>>>>Begin Spectral Data<<<<<
177.575	270.14
177.794	367.79
178.014	309.39
178.233	362.84
178.452	439.48
178.672	529.43
178.891	910
179.11	1150.82
179.33	2119.12
179.549	581.4
179.768	679.04
179.987	592.28
180.207	944.51
180.426	7200
180.645	4097.96
180.864	4137.78
181.084	1101.19
181.303	840
181.522	2400
181.741	2653.97
181.96	-1195.74
182.179	-1076.88
182.398	-752.25
182.618	-973.17
182.837	2458.73
183.056	780.63
183.275	1491.51
183.494	4175
183.713	1236.89
183.932	748.28
184.151	848.74
184.37	423.31
184.589	366.46
184.808	385.33
185.027	290.24
185.246	324.57
185.465	546.45
185.684	431.6
185.903	779.52
186.122	5152.5
186.341	-5452.78
186.56	-1585.12
186.779	-1167.59
186.998	-1345.67
187.216	-10643.75
187.435	-1723.71
187.654	-11218.75
187.873	2279.49
188.092	-738.6
188.311	1373.91
188.53	723.87
188.748	1079.75
188.967	1053.52
189.186	1508.74
189.405	872.78
189.623	1204.03
189.842	932.75
190.061	6369.57
190.28	-8982.35
190.498	752.04
190.717	1784.27
190.936	-47666.67
191.154	558.21
191.373	449.74
191.592	446.8
191.81	480.98
192.029	398.15
192.248	345.25
192.466	376.23
192.685	289.87
192.904	225.57
193.122	245.98
193.341	235.45
193.559	252.15
193.778	276.32
193.996	267.52
194.215	300.14
194.433	369.73
194.652	427.08
194.87	396.8
195.089	473.63
195.307	385.74
195.526	355.79
195.744	403.41
195.963	387.02
196.181	361.17
196.399	398.08
196.618	357.19
196.836	301.07
197.055	305.66
197.273	344.44
197.491	435.28
197.71	1020.13
197.928	687.29
198.146	446.76
198.365	504.17
198.583	759.6
198.801	1114.49
199.019	981.48
199.238	6891.3
199.456	1686.32
199.674	2180.28
199.892	775.93
200.111	1491.38
200.329	-1354.7
200.547	-2633.87
200.765	-757.39
200.983	-1897.85
201.202	-1606.6
201.42	-1628.7
201.638	-23200
201.856	7367.86
202.074	1166.67
202.292	1687.6
202.51	2120.43
202.728	1448.85
202.946	838.86
203.165	796.62
203.383	669.55
203.601	477.14
203.819	412.56
204.037	428.99
204.255	430.42
204.473	417.49
204.691	416.21
204.909	503.72
205.127	480.56
205.345	796.04
205.562	471.08
205.78	461.79
205.998	944.32
206.216	1347.9
206.434	1740.66
206.652	2143.84
206.87	10146.67
207.088	1614.71
207.306	582.99
207.523	387.5
207.741	432.55
207.959	446.75
208.177	656.54
208.395	581.14
208.612	484.01
208.83	601.55
209.048	628.73
209.266	510.47
209.483	414.18
209.701	362.03
209.919	464.18
210.136	350.63
210.354	313.38
210.572	249.74
210.79	214.48
211.007	220.27
211.225	228.82
211.442	232.48
211.66	238.13
211.878	233
212.095	245.51
212.313	221.58
212.53	296.07
212.748	400.66
212.966	613.56
213.183	649.71
213.401	1253.68
213.618	378.57
213.836	298.77
214.053	317.15
214.271	353.85
214.488	390.71
214.705	299.78
214.923	207.98
215.14	178.31
215.358	182.78
215.575	175.18
215.793	161.02
216.01	185.1
216.227	189.83
216.445	183.33
216.662	168.79
216.879	169.75
217.097	176.73
217.314	206.02
217.531	212.95
217.749	222.39
217.966	298.93
218.183	277.65
218.4	202.5
218.618	188
218.835	173.53
219.052	169.12
219.269	169.98
219.487	167.28
219.704	157.39
219.921	156.6
220.138	150.81
220.355	120.42
220.572	107.67
220.79	103.55
221.007	105.81
221.224	115.67
221.441	109.02
221.658	105.38
221.875	95.36
222.092	102.27
222.309	99.85
222.526	82.79
222.743	78.02
222.96	78.01
223.177	90.81
223.394	87.77
223.611	78.6
223.828	81.4
224.045	73.6
224.262	77.21
224.479	68.2
224.696	60.1
224.913	58.02
225.13	60.69
225.347	61.57
225.564	60.32
225.781	53.2
225.997	46.36
226.214	44.06
226.431	40.61
226.648	34.62
226.865	27.03
227.082	27.64
227.298	24.55
227.515	20.31
227.732	16.24
227.949	15.83
228.165	14.32
228.382	13.68
228.599	12.2
228.816	11.99
229.032	10.06
229.249	10.12
229.466	9.37
229.682	8.97
229.899	9.13
230.116	10.41
230.332	9
230.549	9.24
230.765	8.8
230.982	9.87
231.199	10.43
231.415	13.81
231.632	16.2
231.848	16.79
232.065	18.55
232.281	19.06
232.498	19.87
232.714	22.94
232.931	23.3
233.147	24.17
233.364	23.28
233.58	22.6
233.797	21.22
234.013	20.43
234.23	20.67
234.446	21.18
234.662	20.73
234.879	19.95
235.095	16.53
235.312	18.42
235.528	20.26
235.744	20.05
235.961	19.41
236.177	19.56
236.393	20.84
236.61	19.72
236.826	20.16
237.042	22
237.258	22.4
237.475	23.01
237.691	22.81
237.907	19.92
238.123	20.64
238.339	19.56
238.556	18.44
238.772	16.7
238.988	17.26
239.204	15.24
239.42	13.01
239.636	10.97
239.853	12.57
240.069	11.04
240.285	10.24
240.501	9.32
240.717	8.96
240.933	8.19
241.149	8.39
241.365	7.28
241.581	7.13
241.797	7.59
242.013	7.48
242.229	5.82
242.445	5.69
242.661	5.54
242.877	5.57
243.093	6.11
243.309	6.93
243.525	7.09
243.741	8.29
243.957	8.6
244.173	8.57
244.388	9.5
244.604	11.12
244.82	11.33
245.036	12.13
245.252	11.78
245.468	10.82
245.683	9.91
245.899	8.76
246.115	7.55
246.331	7.43
246.547	6.67
246.762	6.15
246.978	5.79
247.194	6.09
247.409	5.82
247.625	5.58
247.841	5.76
248.057	5.59
248.272	5.6
248.488	6.22
248.703	6.42
248.919	7.01
249.135	7.3
249.35	7.28
249.566	6.48
249.782	6.3
249.997	6.35
250.213	6.98
250.428	7.95
250.644	8.37
250.859	7.51
251.075	7.12
251.29	7.12
251.506	7.12
251.721	7.97
251.937	8.5
252.152	8.43
252.368	9.07
252.583	9.1
252.798	8.53
253.014	8.04
253.229	8.85
253.445	8.68
253.66	8.53
253.875	8.03
254.091	7.89
254.306	8.52
254.521	9.32
254.737	9.67
254.952	8.61
255.167	9.73
255.383	10.99
255.598	10.14
255.813	10.27
256.028	10.44
256.244	11.88
256.459	12.25
256.674	11.62
256.889	11.11
257.104	10.01
257.32	10.89
257.535	10.52
257.75	9.26
257.965	8.39
258.18	8.4
258.395	7.76
258.61	7.08
258.826	6.38
259.041	5.86
259.256	5.67
259.471	6.03
259.686	5.75
259.901	5.45
260.116	5.58
260.331	5.65
260.546	5.35
260.761	5.31
260.976	4.92
261.191	4.88
261.406	5
261.621	5.26
261.836	4.94
262.05	4.86
262.265	5.54
262.48	5.38
262.695	5.43
262.91	6.26
263.125	6.39
263.34	7.31
263.555	7.55
263.769	7.55
263.984	7.85
264.199	7.72
264.414	6.88
264.629	6.27
264.843	7.35
265.058	8.41
265.273	7.98
265.488	8.14
265.702	6.87
265.917	6.81
266.132	7.23
266.346	6.25
266.561	6.36
266.776	6.47
266.99	6.21
267.205	5.29
267.42	5.02
267.634	4.86
267.849	4.61
268.063	5.86
268.278	6.02
268.492	5.81
268.707	6.43
268.922	6.49
269.136	6.58
269.351	6.91
269.565	6.96
269.78	6.38
269.994	6.55
270.209	7.01
270.423	6.23
270.637	5.75
270.852	5.33
271.066	5.05
271.281	5.14
271.495	5.12
271.709	4.67
271.924	4.59
272.138	4.6
272.353	4.28
272.567	3.92
272.781	4.03
272.996	4.46
273.21	5.19
273.424	5.26
273.638	5.53
273.853	5.5
274.067	5.85
274.281	6.12
274.495	5.9
274.71	6.02
274.924	5.83
275.138	6.16
275.352	5.64
275.566	4.92
275.781	4.71
275.995	3.94
276.209	4.47
276.423	4.69
276.637	4.24
276.851	4.61
277.065	4.81
277.279	5
277.493	4.93
277.707	5.56
277.921	5.68
278.135	6.01
278.349	5.95
278.563	5.55
278.777	5.41
278.991	5.93
279.205	6.22
279.419	6.16
279.633	6.23
279.847	6.51
280.061	6.19
280.275	6.41
280.489	6.17
280.703	6.73
280.917	6.62
281.131	6.03
281.344	5.98
281.558	5.61
281.772	6.1
281.986	6.1
282.2	5.6
282.414	5.5
282.627	5.26
282.841	5.46
283.055	4.98
283.269	5.07
283.482	5.54
283.696	5.51
283.91	5.32
284.123	4.45
284.337	4.6
284.551	4.68
284.764	4.68
284.978	4.72
285.192	4.38
285.405	4.51
285.619	4.31
285.833	4.14
286.046	3.77
286.26	3.97
286.473	4.4
286.687	4.08
286.9	4.23
287.114	3.95
287.327	4.16
287.541	4.52
287.754	4.64
287.968	4.75
288.181	4.71
288.395	5.1
288.608	4.93
288.822	4.67
289.035	4.85
289.248	4.63
289.462	4.85
289.675	4.32
289.889	4.5
290.102	4.06
290.315	4.2
290.529	4.2
290.742	4.27
290.955	4.52
291.169	4.92
291.382	5.13
291.595	5.38
291.808	5.53
292.022	6.25
292.235	6.08
292.448	6.69
292.661	6.62
292.875	6.68
293.088	6.41
293.301	6.2
293.514	5.81
293.727	5.94
293.94	5.89
294.153	6.1
294.367	5.78
294.58	5.23
294.793	4.95
295.006	4.81
295.219	4.36
295.432	4.31
295.645	4.4
295.858	4.17
296.071	3.65
296.284	3.71
296.497	3.54
296.71	3.4
296.923	3.95
297.136	3.93
297.349	4.06
297.562	4.18
297.775	4.38
297.988	4.29
298.201	4.75
298.414	4.71
298.626	4.66
298.839	4.51
299.052	4.91
299.265	4.92
299.478	5.28
299.691	5.51
299.903	5.86
300.116	5.74
300.329	6.24
300.542	6.2
300.755	6.42
300.967	6.34
301.18	6.47
301.393	5.83
301.605	5.69
301.818	5.19
302.031	5.22
302.243	5.39
302.456	5.81
302.669	5.6
302.881	5.32
303.094	5.48
303.307	5.45
303.519	5.25
303.732	5.77
303.944	5.87
304.157	6.14
304.37	5.87
304.582	5.75
304.795	5.22
305.007	5.32
305.22	5.35
305.432	5.56
305.645	6.17
305.857	6.66
306.069	6.46
306.282	5.99
306.494	6.07
306.707	6.11
306.919	5.93
307.132	6.17
307.344	5.93
307.556	6.01
307.769	5.7
307.981	5.13
308.193	5.04
308.406	5.06
308.618	5.49
308.83	5.09
309.043	5.07
309.255	5.21
309.467	5.16
309.679	5.17
309.892	5.24
310.104	5.14
310.316	5.31
310.528	5.26
310.74	5.54
310.953	5.31
311.165	5.84
311.377	5.96
311.589	6.05
311.801	6.12
312.013	6.32
312.225	6.15
312.437	6.47
312.649	6.7
312.862	6.79
313.074	6.52
313.286	7.25
313.498	7.52
313.71	7.77
313.922	8.19
314.134	8.47
314.346	8.5
314.558	9.12
314.77	9.47
314.982	9.38
315.193	9.41
315.405	9.77
315.617	8.88
315.829	8.64
316.041	8.41
316.253	8.22
316.465	8.41
316.677	8.15
316.888	7.99
317.1	7.59
317.312	7.86
317.524	8.4
317.736	8.72
317.947	9.15
318.159	9.19
318.371	9.32
318.583	9.22
318.794	9.54
319.006	9.6
319.218	9.43
319.43	10.14
319.641	9.77
319.853	9.44
320.064	9.48
320.276	9.79
320.488	10.03
320.699	10.77
320.911	10.84
321.123	10.77
321.334	11.39
321.546	11.87
321.757	11.59
321.969	11.37
322.18	11.14
322.392	10.81
322.603	10.49
322.815	10.3
323.026	9.71
323.238	10.08
323.449	10.18
323.661	10.17
323.872	10.4
324.083	10.22
324.295	11.02
324.506	11.71
324.718	11.64
324.929	12.27
325.14	12.24
325.352	12.8
325.563	12.87
325.774	12.75
325.986	13
326.197	12.93
326.408	13.53
326.62	13.75
326.831	13.93
327.042	14.31
327.253	14.45
327.464	15.01
327.676	15.12
327.887	15.42
328.098	15.82
328.309	16.23
328.52	16.73
328.732	16.96
328.943	16.85
329.154	17.12
329.365	17.92
329.576	18.38
329.787	18.95
329.998	19.51
330.209	20.04
330.42	19.98
330.631	20.21
330.842	20.32
331.053	20.81
331.264	21.14
331.475	21.17
331.686	21.07
331.897	21
332.108	20.92
332.319	20.8
332.53	20.8
332.741	21.34
332.952	21.3
333.163	21.35
333.374	21.4
333.585	21.69
333.795	22.01
334.006	21.9
334.217	21.87
334.428	22.35
334.639	22.48
334.849	22.53
335.06	22.68
335.271	22.93
335.482	23.21
335.692	23.27
335.903	23.86
336.114	23.76
336.325	24.32
336.535	24.59
336.746	24.43
336.957	24.74
337.167	24.87
337.378	25.06
337.589	25.17
337.799	25.31
338.01	25.49
338.22	25.28
338.431	25.63
338.642	25.56
338.852	25.07
339.063	25.08
339.273	25.27
339.484	25.83
339.694	25.86
339.905	25.98
340.115	25.93
340.326	25.84
340.536	25.53
340.746	25.46
340.957	25.11
341.167	25.87
341.378	25.78
341.588	25.73
341.799	25.46
342.009	25.46
342.219	25.45
342.43	25.43
342.64	25.55
342.85	25.69
343.061	25.67
343.271	26.27
343.481	26.16
343.691	26
343.902	25.78
344.112	25.75
344.322	25.61
344.532	25.6
344.743	25.42
344.953	25.44
345.163	25.87
345.373	25.79
345.583	25.36
345.793	25.43
346.004	25.76
346.214	25.59
346.424	25.71
346.634	25.74
346.844	25.81
347.054	25.92
347.264	25.86
347.474	25.44
347.684	25.42
347.894	25.57
348.104	25.34
348.314	25.18
348.524	25.48
348.734	25.22
348.944	25.22
349.154	24.86
349.364	24.53
349.574	24.41
349.784	24.25
349.994	24.4
350.204	24.29
350.413	24.42
350.623	24.48
350.833	24.22
351.043	24.36
351.253	24.32
351.463	24.36
351.672	24.49
351.882	24.37
352.092	24.47
352.302	24.39
352.511	24.6
352.721	24.29
352.931	23.96
353.141	24.01
353.35	23.63
353.56	23.76
353.77	23.55
353.979	23.93
354.189	23.77
354.399	23.71
354.608	23.63
354.818	23.36
355.027	23.67
355.237	24.1
355.447	24.38
355.656	24.43
355.866	24.19
356.075	24.29
356.285	23.92
356.494	24.04
356.704	24.11
356.913	23.8
357.123	23.73
357.332	23.43
357.542	23.32
357.751	23.21
357.96	23.1
358.17	22.91
358.379	23.14
358.589	23.1
358.798	23.15
359.007	23.01
359.217	23.44
359.426	23.34
359.635	23.48
359.845	23.32
360.054	22.95
360.263	22.97
360.472	22.94
360.682	22.83
360.891	22.92
361.1	23.01
361.309	23.07
361.519	22.87
361.728	22.86
361.937	22.93
362.146	22.86
362.355	22.97
362.564	22.88
362.774	23.13
362.983	23.06
363.192	23.14
363.401	22.94
363.61	22.8
363.819	22.51
364.028	22.62
364.237	22.43
364.446	22.53
364.655	22.62
364.864	22.77
365.073	22.68
365.282	22.74
365.491	22.66
365.7	22.76
365.909	22.96
366.118	23.16
366.327	23.07
366.536	23.16
366.745	23.2
366.954	23.16
367.162	23.17
367.371	23.35
367.58	23.36
367.789	23.44
367.998	23.38
368.207	23.36
368.415	23.57
368.624	23.43
368.833	23.47
369.042	23.27
369.25	23.37
369.459	23.07
369.668	22.81
369.877	22.73
370.085	22.91
370.294	22.78
370.503	22.2
370.711	21.91
370.92	22.21
371.129	22.38
371.337	22.46
371.546	22.09
371.754	22.26
371.963	22.12
372.171	22.17
372.38	21.93
372.589	22.04
372.797	22.33
373.006	22.37
373.214	22.23
373.423	22.14
373.631	22.14
373.84	22.18
374.048	21.93
374.256	22.24
374.465	22.27
374.673	22.2
374.882	22.22
375.09	22.51
375.298	22.57
375.507	22.64
375.715	22.5
375.923	22.4
376.132	22.74
376.34	22.89
376.548	23.02
376.757	22.91
376.965	22.94
377.173	22.71
377.381	22.21
377.59	22.25
377.798	22.32
378.006	22.22
378.214	22.33
378.423	21.95
378.631	22.11
378.839	21.75
379.047	21.7
379.255	21.77
379.463	21.99
379.671	22.35
379.879	22.49
380.088	22.41
380.296	22.34
380.504	22.41
380.712	22.62
380.92	22.43
381.128	22.6
381.336	22.7
381.544	22.57
381.752	22.72
381.96	22.64
382.168	22.47
382.376	22.66
382.584	22.59
382.791	22.65
382.999	22.54
383.207	22.64
383.415	22.44
383.623	22.39
383.831	22.42
384.039	22.16
384.247	22.19
384.454	22.03
384.662	21.92
384.87	22.01
385.078	21.81
385.285	21.94
385.493	22
385.701	22.07
385.909	22.05
386.116	22.07
386.324	22.2
386.532	22.24
386.739	22.37
386.947	22.27
387.155	22.41
387.362	22.43
387.57	22.24
387.778	22.12
387.985	22.05
388.193	21.93
388.4	21.86
388.608	21.82
388.816	21.71
389.023	21.92
389.231	21.88
389.438	21.78
389.646	21.74
389.853	21.8
390.061	21.84
390.268	22.15
390.475	22.36
390.683	22.28
390.89	22.32
391.098	22.38
391.305	22.31
391.512	22.51
391.72	22.34
391.927	22.39
392.135	22.3
392.342	22.26
392.549	22.22
392.756	22.11
392.964	22.33
393.171	22.29
393.378	22.39
393.586	22.37
393.793	22.19
394	22.36
394.207	22.4
394.414	22.63
394.622	22.71
394.829	22.69
395.036	22.75
395.243	22.57
395.45	22.59
395.657	22.53
395.864	22.43
396.072	22.35
396.279	22.34
396.486	22.5
396.693	22.21
396.9	22.14
397.107	22.19
397.314	22.03
397.521	22.05
397.728	22.05
397.935	22.14
398.142	22
398.349	22.29
398.556	22.32
398.763	22.19
398.97	22.34
399.177	22.49
399.383	22.47
399.59	22.58
399.797	22.56
400.004	22.5
400.211	22.42
400.418	22.38
400.625	22.07
400.831	22.07
401.038	22.1
401.245	22.07
401.452	21.91
401.658	21.84
401.865	21.78
402.072	22.07
402.279	22.1
402.485	22.24
402.692	22.52
402.899	22.68
403.105	22.72
403.312	22.63
403.519	22.76
403.725	22.88
403.932	22.94
404.138	23.01
404.345	22.6
404.552	22.75
404.758	22.67
404.965	22.45
405.171	22.52
405.378	22.36
405.584	22.24
405.791	22.13
405.997	22.07
406.204	21.82
406.41	21.88
406.617	22.15
406.823	21.9
407.029	21.89
407.236	22
407.442	21.86
407.649	22.02
407.855	22.17
408.061	22.17
408.268	22.25
408.474	22.36
408.68	22.26
408.887	22.07
409.093	22.2
409.299	22.1
409.505	22.05
409.712	22.14
409.918	22.06
410.124	22.08
410.33	22.25
410.537	22.05
410.743	22.14
410.949	22.11
411.155	22.3
411.361	22.13
411.567	21.96
411.773	22.03
411.98	21.95
412.186	22.03
412.392	22.15
412.598	22.16
412.804	22.44
413.01	22.42
413.216	22.59
413.422	22.6
413.628	22.83
413.834	23.15
414.04	23.03
414.246	22.99
414.452	22.99
414.658	22.95
414.864	22.82
415.07	22.67
415.275	22.71
415.481	22.49
415.687	22.58
415.893	22.5
416.099	22.36
416.305	22.35
416.511	22.33
416.716	22.31
416.922	22.12
417.128	22.05
417.334	22.01
417.539	21.85
417.745	21.96
417.951	21.8
418.157	21.72
418.362	21.78
418.568	21.81
418.774	21.76
418.979	21.67
419.185	21.77
419.391	21.74
419.596	21.74
419.802	21.79
420.008	21.76
420.213	21.19
420.419	21.24
420.624	21.18
420.83	21.15
421.035	21.21
421.241	21.31
421.446	21.32
421.652	21.37
421.857	21.3
422.063	21.26
422.268	21.27
422.474	21.72
422.679	21.69
422.885	21.67
423.09	21.69
423.295	21.69
423.501	21.62
423.706	21.51
423.911	21.46
424.117	21.54
424.322	21.55
424.527	21.43
424.733	21.54
424.938	21.58
425.143	21.64
425.349	21.66
425.554	21.64
425.759	21.69
425.964	21.84
426.169	21.91
426.375	21.9
426.58	21.97
426.785	22.13
426.99	22.2
427.195	22.25
427.4	22.32
427.605	22.43
427.811	22.59
428.016	22.58
428.221	22.6
428.426	22.68
428.631	22.81
428.836	22.77
429.041	22.79
429.246	22.78
429.451	22.83
429.656	22.86
429.861	22.78
430.066	22.66
430.271	22.66
430.476	22.65
430.681	22.56
430.886	22.52
431.09	22.57
431.295	22.62
431.5	22.59
431.705	22.5
431.91	22.42
432.115	22.54
432.32	22.6
432.524	22.63
432.729	22.69
432.934	22.74
433.139	22.87
433.343	22.96
433.548	23.12
433.753	23.22
433.958	23.5
434.162	23.79
434.367	23.9
434.572	24.18
434.776	24.43
434.981	24.61
435.186	24.79
435.39	24.85
435.595	25.01
435.799	24.93
436.004	25.07
436.209	25.04
436.413	24.94
436.618	24.9
436.822	24.66
437.027	24.51
437.231	24.25
437.436	24.15
437.64	24.01
437.845	23.83
438.049	23.71
438.253	23.6
438.458	23.5
438.662	23.35
438.867	23.29
439.071	23.34
439.275	23.32
439.48	23.51
439.684	23.4
439.888	23.27
440.093	23.17
440.297	23.17
440.501	23.11
440.706	23.07
440.91	23.05
441.114	22.99
441.318	22.88
441.523	22.84
441.727	22.76
441.931	22.8
442.135	22.91
442.339	23.03
442.543	23.14
442.748	23.11
442.952	23.07
443.156	23.17
443.36	23.22
443.564	23.19
443.768	23.27
443.972	23.2
444.176	23.17
444.38	23.2
444.584	23.19
444.788	23.21
444.992	23.19
445.196	23.26
445.4	23.21
445.604	23.16
445.808	23.26
446.012	23.26
446.216	23.2
446.42	23.28
446.624	23.26
446.828	23.2
447.032	23.15
447.235	23.16
447.439	23.15
447.643	23.08
447.847	23.15
448.051	23.17
448.254	23.11
448.458	23.2
448.662	23.18
448.866	23.23
449.069	23.3
449.273	23.3
449.477	23.4
449.681	23.5
449.884	23.62
450.088	23.64
450.292	23.7
450.495	23.79
450.699	23.81
450.902	23.91
451.106	23.9
451.31	24.01
451.513	24.04
451.717	24.01
451.92	23.91
452.124	23.98
452.327	24.03
452.531	24.04
452.734	23.98
452.938	24.03
453.141	23.88
453.345	23.98
453.548	23.94
453.752	24
453.955	24.05
454.158	24.08
454.362	24.03
454.565	24.05
454.769	24
454.972	24.08
455.175	24.09
455.379	24.17
455.582	24.24
455.785	24.25
455.988	24.19
456.192	24.08
456.395	24.08
456.598	24.11
456.801	24.01
457.005	23.93
457.208	23.95
457.411	23.85
457.614	23.82
457.817	23.64
458.021	23.51
458.224	23.53
458.427	23.48
458.63	23.5
458.833	23.47
459.036	23.46
459.239	23.39
459.442	23.28
459.645	23.31
459.848	23.32
460.051	23.35
460.254	23.37
460.457	23.38
460.66	23.46
460.863	23.49
461.066	23.49
461.269	23.44
461.472	23.62
461.675	23.76
461.878	23.79
462.081	23.89
462.284	23.94
462.486	23.97
462.689	24.07
462.892	24.18
463.095	24.2
463.298	24.16
463.5	24.38
463.703	24.22
463.906	24.25
464.109	24.23
464.311	24.16
464.514	24.17
464.717	24.25
464.92	24.25
465.122	24.08
465.325	24.08
465.528	24.18
465.73	24.12
465.933	24.12
466.135	24.08
466.338	24.03
466.541	24.09
466.743	24.01
466.946	23.98
467.148	23.98
467.351	24.08
467.553	24
467.756	23.91
467.958	23.81
468.161	23.8
468.363	23.78
468.566	23.83
468.768	23.7
468.971	23.73
469.173	23.8
469.375	23.83
469.578	23.72
469.78	23.85
469.983	23.85
470.185	24.02
470.387	24.1
470.59	24.13
470.792	24.22
470.994	24.27
471.196	24.42
471.399	24.39
471.601	24.35
471.803	24.46
472.005	24.36
472.208	24.47
472.41	24.51
472.612	24.45
472.814	24.5
473.016	24.51
473.218	24.51
473.421	24.4
473.623	24.4
473.825	24.46
474.027	24.43
474.229	24.44
474.431	24.39
474.633	24.36
474.835	24.42
475.037	24.34
475.239	24.24
475.441	24.31
475.643	24.34
475.845	24.26
476.047	24.13
476.249	24.22
476.451	24.17
476.653	24.29
476.855	24.24
477.057	24.3
477.258	24.26
477.46	24.26
477.662	24.28
477.864	24.3
478.066	24.34
478.268	24.37
478.469	24.29
478.671	24.3
478.873	24.17
479.075	24.15
479.276	24.04
479.478	24.05
479.68	24.02
479.882	23.9
480.083	23.85
480.285	23.83
480.487	23.81
480.688	23.74
480.89	23.74
481.091	23.74
481.293	23.68
481.495	23.66
481.696	23.64
481.898	23.53
482.099	23.48
482.301	23.49
482.502	23.45
482.704	23.34
482.905	23.28
483.107	23.22
483.308	23.14
483.51	23.14
483.711	23.11
483.913	23.07
484.114	23.07
484.315	23.04
484.517	22.99
484.718	22.97
484.92	23.01
485.121	23.02
485.322	23.06
485.524	23.14
485.725	23.19
485.926	23.19
486.127	23.21
486.329	23.25
486.53	23.31
486.731	23.32
486.932	23.31
487.134	23.32
487.335	23.32
487.536	23.29
487.737	23.24
487.938	23.21
488.139	23.24
488.341	23.29
488.542	23.28
488.743	23.31
488.944	23.34
489.145	23.42
489.346	23.47
489.547	23.51
489.748	23.63
489.949	23.68
490.15	23.67
490.351	23.72
490.552	23.75
490.753	23.8
490.954	23.81
491.155	23.75
491.356	23.72
491.557	23.7
491.758	23.74
491.959	23.7
492.159	23.75
492.36	23.81
492.561	23.82
492.762	23.84
492.963	23.85
493.164	23.83
493.364	23.96
493.565	24.06
493.766	24.17
493.967	24.22
494.167	24.27
494.368	24.29
494.569	24.36
494.769	24.4
494.97	24.4
495.171	24.48
495.371	24.5
495.572	24.54
495.773	24.46
495.973	24.4
496.174	24.38
496.375	24.38
496.575	24.35
496.776	24.35
496.976	24.34
497.177	24.4
497.377	24.4
497.578	24.42
497.778	24.39
497.979	24.46
498.179	24.44
498.38	24.46
498.58	24.51
498.78	24.53
498.981	24.49
499.181	24.48
499.382	24.52
499.582	24.55
499.782	24.57
499.983	24.64
500.183	24.64
500.383	24.8
500.584	24.76
500.784	24.83
500.984	24.93
501.184	24.94
501.385	25.14
501.585	25.15
501.785	25.13
501.985	25.16
502.185	25.09
502.386	25.22
502.586	25.25
502.786	25.34
502.986	25.31
503.186	25.33
503.386	25.33
503.586	25.21
503.786	25.24
503.987	25.25
504.187	25.3
504.387	25.38
504.587	25.29
504.787	25.34
504.987	25.32
505.187	25.32
505.387	25.39
505.587	25.4
505.786	25.48
505.986	25.46
506.186	25.49
506.386	25.48
506.586	25.5
506.786	25.59
506.986	25.5
507.186	25.57
507.386	25.63
507.585	25.6
507.785	25.61
507.985	25.48
508.185	25.47
508.384	25.4
508.584	25.48
508.784	25.43
508.984	25.43
509.183	25.39
509.383	25.39
509.583	25.34
509.782	25.27
509.982	25.33
510.182	25.41
510.381	25.43
510.581	25.53
510.781	25.51
510.98	25.55
511.18	25.54
511.379	25.67
511.579	25.7
511.778	25.74
511.978	25.79
512.177	25.81
512.377	25.85
512.576	25.9
512.776	25.96
512.975	25.95
513.175	25.98
513.374	26.03
513.573	26
513.773	25.91
513.972	26.04
514.172	26.07
514.371	26.15
514.57	26.13
514.77	26.16
514.969	26.19
515.168	26.27
515.367	26.34
515.567	26.28
515.766	26.34
515.965	26.43
516.164	26.37
516.364	26.38
516.563	26.36
516.762	26.42
516.961	26.31
517.16	26.23
517.359	26.24
517.559	26.2
517.758	26.25
517.957	26.18
518.156	26.19
518.355	26.19
518.554	26.16
518.753	26.18
518.952	26.17
519.151	26.24
519.35	26.34
519.549	26.34
519.748	26.34
519.947	26.37
520.146	26.49
520.345	26.53
520.544	26.58
520.743	26.74
520.942	26.73
521.141	26.76
521.339	26.85
521.538	26.85
521.737	26.95
521.936	27
522.135	26.99
522.333	26.92
522.532	26.96
522.731	26.9
522.93	26.92
523.129	27.03
523.327	27.1
523.526	26.99
523.725	27.06
523.923	27.04
524.122	27
524.321	27.05
524.519	27.07
524.718	27.04
524.917	27.11
525.115	27.01
525.314	26.93
525.512	26.85
525.711	26.87
525.909	26.78
526.108	26.73
526.306	26.74
526.505	26.7
526.703	26.6
526.902	26.55
527.1	26.44
527.299	26.46
527.497	26.42
527.696	26.44
527.894	26.41
528.092	26.37
528.291	26.36
528.489	26.33
528.688	26.29
528.886	26.35
529.084	26.4
529.283	26.43
529.481	26.42
529.679	26.46
529.877	26.52
530.076	26.61
530.274	26.71
530.472	26.78
530.67	26.84
530.869	26.95
531.067	26.97
531.265	27.09
531.463	27.2
531.661	27.28
531.859	27.3
532.057	27.33
532.255	27.35
532.454	27.36
532.652	27.31
532.85	27.35
533.048	27.36
533.246	27.46
533.444	27.44
533.642	27.41
533.84	27.44
534.038	27.48
534.236	27.47
534.434	27.49
534.632	27.53
534.83	27.68
535.027	27.67
535.225	27.75
535.423	27.79
535.621	27.87
535.819	27.98
536.017	28.1
536.215	28.17
536.412	28.32
536.61	28.45
536.808	28.52
537.006	28.58
537.203	28.83
537.401	28.97
537.599	29.1
537.797	29.26
537.994	29.4
538.192	29.61
538.39	29.87
538.587	30.03
538.785	30.3
538.983	30.65
539.18	30.96
539.378	31.15
539.575	31.38
539.773	31.52
539.97	31.63
540.168	31.78
540.366	31.89
540.563	31.93
540.761	32.08
540.958	32.11
541.155	32.14
541.353	32.18
541.55	32.26
541.748	32.31
541.945	32.42
542.143	32.53
542.34	32.71
542.537	32.91
542.735	33.1
542.932	33.27
543.129	33.53
543.327	33.94
543.524	34.43
543.721	34.97
543.919	35.7
544.116	36.45
544.313	37.29
544.51	38.06
544.708	38.77
544.905	39.56
545.102	40.3
545.299	40.95
545.496	41.39
545.693	41.68
545.891	41.71
546.088	41.5
546.285	41.19
546.482	40.76
546.679	40.25
546.876	39.71
547.073	39.2
547.27	38.63
547.467	38.11
547.664	37.62
547.861	37.08
548.058	36.75
548.255	36.49
548.452	36.26
548.649	36.06
548.846	35.92
549.043	35.82
549.24	35.68
549.437	35.54
549.633	35.27
549.83	35.11
550.027	34.95
550.224	34.82
550.421	34.56
550.618	34.32
550.814	34.11
551.011	33.99
551.208	33.78
551.405	33.53
551.601	33.4
551.798	33.27
551.995	33.04
552.191	33.03
552.388	32.84
552.585	32.74
552.781	32.65
552.978	32.64
553.175	32.52
553.371	32.42
553.568	32.48
553.764	32.41
553.961	32.43
554.157	32.35
554.354	32.16
554.55	32.19
554.747	32.23
554.943	32.34
555.14	32.26
555.336	32.18
555.533	32.14
555.729	32.15
555.926	32.17
556.122	32.21
556.318	32.31
556.515	32.41
556.711	32.38
556.907	32.25
557.104	32.09
557.3	32.07
557.496	31.97
557.693	31.95
557.889	31.95
558.085	31.85
558.281	31.9
558.478	31.86
558.674	31.74
558.87	31.68
559.066	31.69
559.262	31.67
559.459	31.7
559.655	31.88
559.851	31.84
560.047	31.84
560.243	32
560.439	31.87
560.635	31.75
560.831	31.78
561.027	31.77
561.223	31.72
561.419	31.84
561.615	31.86
561.811	31.89
562.007	32.03
562.203	31.96
562.399	31.93
562.595	31.85
562.791	31.87
562.987	31.89
563.183	32.04
563.379	32.13
563.575	32.06
563.771	32.04
563.966	32.04
564.162	32.09
564.358	32.24
564.554	32.23
564.75	32.14
564.945	32.18
565.141	32.15
565.337	31.97
565.533	31.9
565.728	31.9
565.924	31.87
566.12	31.73
566.315	31.65
566.511	31.54
566.707	31.51
566.902	31.46
567.098	31.49
567.293	31.45
567.489	31.62
567.684	31.72
567.88	31.68
568.076	31.87
568.271	31.89
568.467	31.98
568.662	32
568.858	31.96
569.053	32.18
569.248	32.29
569.444	32.26
569.639	32.15
569.835	32.13
570.03	32.17
570.225	32
570.421	32.06
570.616	31.96
570.812	31.94
571.007	31.89
571.202	31.93
571.397	31.83
571.593	31.86
571.788	31.86
571.983	31.77
572.178	31.85
572.374	31.97
572.569	31.98
572.764	32
572.959	31.94
573.154	32
573.35	31.97
573.545	32.02
573.74	31.99
573.935	32
574.13	32.13
574.325	32.09
574.52	32.13
574.715	32.36
574.91	32.51
575.105	32.82
575.3	33.1
575.495	33.38
575.69	33.48
575.885	33.8
576.08	34.15
576.275	34.56
576.47	34.89
576.665	35.15
576.86	35.36
577.055	35.56
577.25	35.82
577.444	36.08
577.639	36.27
577.834	36.59
578.029	36.86
578.224	37.06
578.418	37.16
578.613	37.23
578.808	37.31
579.003	37.31
579.197	37.43
579.392	37.27
579.587	37.27
579.781	37.14
579.976	37.2
580.171	37.15
580.365	37.03
580.56	36.87
580.755	37.02
580.949	37.03
581.144	36.94
581.338	37.06
581.533	37.26
581.727	37.33
581.922	37.42
582.116	37.43
582.311	37.52
582.505	37.66
582.7	37.62
582.894	37.51
583.089	37.55
583.283	37.77
583.478	37.87
583.672	37.76
583.866	37.68
584.061	37.81
584.255	37.89
584.449	37.87
584.644	38.1
584.838	38.28
585.032	38.46
585.226	38.77
585.421	38.9
585.615	38.95
585.809	39.27
586.003	39.48
586.198	39.7
586.392	39.75
586.586	39.95
586.78	39.81
586.974	39.85
587.168	39.8
587.363	39.5
587.557	39.45
587.751	39.25
587.945	38.8
588.139	38.6
588.333	38.29
588.527	38.19
588.721	37.95
588.915	37.69
589.109	37.48
589.303	37.23
589.497	37.02
589.691	36.71
589.885	36.62
590.079	36.8
590.273	36.79
590.466	36.89
590.66	37.04
590.854	37.25
591.048	37.62
591.242	37.93
591.436	38.44
591.629	38.83
591.823	39.4
592.017	39.71
592.211	39.96
592.404	40.21
592.598	40.22
592.792	40.19
592.986	40.01
593.179	39.66
593.373	39.54
593.567	39.17
593.76	39.01
593.954	38.58
594.147	38.42
594.341	38.16
594.535	37.79
594.728	37.67
594.922	37.37
595.115	37.24
595.309	37.2
595.502	37.03
595.696	36.97
595.889	36.83
596.083	36.77
596.276	36.49
596.47	36.4
596.663	36.41
596.856	36.39
597.05	36.5
597.243	36.62
597.437	36.79
597.63	36.95
597.823	37.2
598.017	37.37
598.21	37.47
598.403	37.79
598.596	38.07
598.79	38.23
598.983	38.39
599.176	38.43
599.369	38.4
599.563	38.41
599.756	38.47
599.949	38.45
600.142	38.47
600.335	38.52
600.528	38.43
600.722	38.4
600.915	38.41
601.108	38.11
601.301	38.05
601.494	37.87
601.687	37.74
601.88	37.56
602.073	37.22
602.266	37.11
602.459	36.91
602.652	36.7
602.845	36.44
603.038	36.2
603.231	36.17
603.424	36.01
603.617	36.1
603.809	36.04
604.002	36
604.195	36.05
604.388	36.01
604.581	36
604.774	36.14
604.966	36.22
605.159	36.47
605.352	36.66
605.545	36.92
605.737	37.02
605.93	37.27
606.123	37.54
606.316	37.86
606.508	38.09
606.701	38.65
606.894	38.95
607.086	39.35
607.279	39.79
607.471	40.3
607.664	40.91
607.857	41.77
608.049	42.8
608.242	43.99
608.434	45.45
608.627	47.62
608.819	49.98
609.012	52.89
609.204	56.14
609.397	59.54
609.589	63.4
609.782	67.35
609.974	71.32
610.166	75.29
610.359	79.27
610.551	83.07
610.743	86.17
610.936	88.79
611.128	90.9
611.32	92.19
611.513	92.77
611.705	92.7
611.897	92.14
612.09	91.1
612.282	89.58
612.474	87.87
612.666	85.97
612.858	83.91
613.051	81.81
613.243	79.51
613.435	77.58
613.627	75.9
613.819	74.18
614.011	72.49
614.203	70.6
614.395	68.87
614.588	66.98
614.78	64.99
614.972	63.22
615.164	61.28
615.356	59.72
615.548	58.13
615.74	56.54
615.932	54.78
616.124	53.3
616.315	52.37
616.507	51.29
616.699	50.17
616.891	49.35
617.083	48.54
617.275	47.96
617.467	47.06
617.659	46.48
617.85	45.92
618.042	45.66
618.234	45.33
618.426	44.8
618.618	44.56
618.809	44.19
619.001	44.03
619.193	43.84
619.384	43.49
619.576	43.79
619.768	43.78
619.959	43.79
620.151	43.9
620.343	43.99
620.534	43.91
620.726	43.73
620.917	43.91
621.109	43.8
621.301	43.93
621.492	44.08
621.684	43.96
621.875	43.96
622.067	44.17
622.258	44.24
622.45	44.37
622.641	44.45
622.832	44.74
623.024	44.89
623.215	45.01
623.407	44.99
623.598	45.34
623.789	45.38
623.981	45.39
624.172	45.39
624.363	45.27
624.555	45.2
624.746	45.12
624.937	44.9
625.129	44.83
625.32	44.68
625.511	44.71
625.702	44.18
625.893	44.06
626.085	44.03
626.276	43.98
626.467	43.93
626.658	43.87
626.849	43.89
627.04	43.96
627.231	43.9
627.422	43.79
627.614	43.65
627.805	43.97
627.996	44.08
628.187	44.2
628.378	44.43
628.569	44.75
628.76	45.05
628.951	45.44
629.142	45.82
629.332	46.4
629.523	47.15
629.714	47.77
629.905	48.15
630.096	48.68
630.287	49.04
630.478	49.16
630.669	49.06
630.859	49.01
631.05	48.94
631.241	48.63
631.432	48.23
631.623	47.61
631.813	46.84
632.004	46.13
632.195	45.37
632.385	44.61
632.576	43.97
632.767	43.54
632.957	43.1
633.148	42.61
633.339	42.16
633.529	41.64
633.72	41.27
633.91	41.04
634.101	40.78
634.292	40.56
634.482	40.49
634.673	40.36
634.863	40.22
635.054	40.08
635.244	39.89
635.435	39.62
635.625	39.56
635.815	39.67
636.006	39.76
636.196	39.77
636.387	39.81
636.577	39.77
636.767	39.6
636.958	39.59
637.148	39.52
637.338	39.43
637.529	39.75
637.719	39.86
637.909	39.59
638.099	39.5
638.29	39.67
638.48	39.69
638.67	39.68
638.86	39.9
639.05	39.95
639.241	40.11
639.431	40.45
639.621	40.41
639.811	40.38
640.001	40.61
640.191	40.72
640.381	40.49
640.571	40.62
640.761	40.65
640.951	40.5
641.141	40.57
641.331	40.49
641.521	40.4
641.711	40.44
641.901	40.48
642.091	40.49
642.281	40.58
642.471	40.63
642.661	40.66
642.851	40.77
643.041	40.93
643.231	40.77
643.42	40.88
643.61	41.13
643.8	41.23
643.99	41.54
644.18	41.46
644.369	41.17
644.559	41.39
644.749	41.14
644.939	40.95
645.128	40.98
645.318	41.17
645.508	41.01
645.697	40.97
645.887	40.91
646.076	40.52
646.266	40.64
646.456	40.87
646.645	40.87
646.835	40.95
647.024	41.12
647.214	41.04
647.403	41.13
647.593	41.36
647.782	41.19
647.972	41.43
648.161	41.8
648.351	42.05
648.54	42.37
648.73	42.58
648.919	42.72
649.108	43.19
649.298	43.52
649.487	43.9
649.677	43.94
649.866	44.14
650.055	44.26
650.244	44.02
650.434	43.88
650.623	43.79
650.812	43.62
651.002	43.6
651.191	43.19
651.38	43.03
651.569	42.77
651.758	42.59
651.947	42.25
652.137	42.06
652.326	42.35
652.515	42.67
652.704	42.73
652.893	42.49
653.082	42.38
653.271	42.34
653.46	42.24
653.649	42.13
653.838	42.25
654.027	42.46
654.216	42.32
654.405	42.12
654.594	41.78
654.783	41.54
654.972	41.85
655.161	42.08
655.35	42.24
655.539	42.43
655.728	42.3
655.916	42.25
656.105	42.3
656.294	42.5
656.483	42.17
656.672	42.17
656.86	41.88
657.049	41.83
657.238	41.56
657.427	41.44
657.615	41.18
657.804	41.12
657.993	40.98
658.181	40.73
658.37	40.5
658.559	40.48
658.747	40.37
658.936	40.58
659.125	40.13
659.313	40.24
659.502	40.32
659.69	40.42
659.879	40.47
660.067	40.47
660.256	40.74
660.444	40.9
660.633	41.22
660.821	41.32
661.01	41.6
661.198	42.27
661.387	42.41
661.575	42.44
661.763	42.57
661.952	42.86
662.14	43.31
662.328	43.5
662.517	43.49
662.705	43.87
662.893	43.97
663.082	43.92
663.27	43.64
663.458	43.68
663.646	43.9
663.834	44.04
664.023	43.89
664.211	43.67
664.399	43.46
664.587	43.5
664.775	43.29
664.963	43.27
665.152	43.29
665.34	43.39
665.528	43.4
665.716	43.15
665.904	43.02
666.092	43.23
666.28	43.18
666.468	43.35
666.656	43.32
666.844	43.18
667.032	43.24
667.22	43.18
667.408	43.32
667.596	43.28
667.784	43.4
667.971	43.35
668.159	43.28
668.347	43.34
668.535	43.17
668.723	43.21
668.911	43.43
669.098	43.33
669.286	43.28
669.474	43.01
669.662	43.29
669.849	43.25
670.037	43.51
670.225	43.47
670.413	43.4
670.6	43.18
670.788	43.25
670.976	43.03
671.163	43.29
671.351	43.31
671.538	43.75
671.726	43.58
671.913	43.73
672.101	43.59
672.289	43.65
672.476	43.59
672.664	43.99
672.851	43.89
673.039	43.91
673.226	44.11
673.413	44.02
673.601	43.95
673.788	43.97
673.976	43.98
674.163	43.93
674.35	43.85
674.538	44.07
674.725	44.1
674.912	44.37
675.1	44.26
675.287	43.94
675.474	44.29
675.662	44.45
675.849	44.34
676.036	44.38
676.223	44.34
676.411	44.41
676.598	44.19
676.785	44.01
676.972	44
677.159	44.23
677.346	44.42
677.533	44.51
677.721	43.98
677.908	43.93
678.095	43.81
678.282	43.99
678.469	43.77
678.656	43.81
678.843	43.89
679.03	43.77
679.217	43.64
679.404	43.39
679.591	43.18
679.778	43.5
679.964	43.7
680.151	43.73
680.338	43.54
680.525	43.73
680.712	43.77
680.899	43.77
681.086	43.66
681.272	43.79
681.459	44.13
681.646	44.04
681.833	44.1
682.02	43.95
682.206	43.98
682.393	44.15
682.58	44.25
682.766	44.36
682.953	44.31
683.14	44.64
683.326	44.75
683.513	44.67
683.7	44.55
683.886	44.64
684.073	44.69
684.259	44.87
684.446	44.99
684.632	45.17
684.819	45.28
685.005	45.89
685.192	46.11
685.378	46.23
685.565	46.57
685.751	47.39
685.938	47.53
686.124	47.69
686.31	47.79
686.497	47.76
686.683	48.02
686.87	48.2
687.056	47.63
687.242	47.25
687.429	47.05
687.615	46.99
687.801	46.43
687.987	46.17
688.174	46.36
688.36	46.14
688.546	46.46
688.732	46.23
688.918	46.21
689.105	46.54
689.291	46.92
689.477	47.06
689.663	46.79
689.849	47.11
690.035	47.21
690.221	47.13
690.407	47.35
690.593	47.07
690.779	47.19
690.965	46.87
691.151	46.85
691.337	46.8
691.523	46.66
691.709	46.95
691.895	46.94
692.081	47.41
692.267	47.49
692.453	47.55
692.639	47.9
692.825	48.08
693.011	48.29
693.196	48.13
693.382	48.02
693.568	48.38
693.754	48.45
693.94	48.06
694.125	47.94
694.311	47.95
694.497	47.78
694.682	47.47
694.868	47.31
695.054	47.5
695.239	47.95
695.425	47.76
695.611	47.53
695.796	47.64
695.982	47.89
696.168	47.56
696.353	47.21
696.539	46.87
696.724	46.53
696.91	46
697.095	45.76
697.281	44.77
697.466	44.69
697.652	44.46
697.837	44.21
698.023	43.84
698.208	43.53
698.393	43.64
698.579	43.7
698.764	43.6
698.949	43.63
699.135	43.61
699.32	43.92
699.505	43.88
699.691	44.1
699.876	43.85
700.061	44.13
700.246	44.48
700.432	44.77
700.617	45.04
700.802	45.37
700.987	45.84
701.172	46.25
701.358	46.98
701.543	47.53
701.728	47.88
701.913	48.15
702.098	48.24
702.283	48.61
702.468	48.4
702.653	48.49
702.838	49.09
703.023	49.4
703.208	49.63
703.393	49.56
703.578	50.19
703.763	50.39
703.948	51.21
704.133	51.9
704.318	52.88
704.503	53.55
704.688	54.33
704.873	55.13
705.057	55.83
705.242	56.63
705.427	57.35
705.612	57.6
705.797	58.87
705.981	59.31
706.166	60.39
706.351	61.06
706.536	61.74
706.72	62.09
706.905	62.44
707.09	62.76
707.274	62.57
707.459	62.73
707.644	62.6
707.828	62.22
708.013	62.57
708.197	62.11
708.382	61.03
708.567	60.91
708.751	60.19
708.936	59.61
709.12	59.29
709.305	59.06
709.489	58.81
709.673	58.75
709.858	58.32
710.042	57.78
710.227	57.74
710.411	58.14
710.596	57.81
710.78	58.47
710.964	58.49
711.149	58.62
711.333	59.14
711.517	59.07
711.702	58.98
711.886	59.16
712.07	58.91
712.254	58.33
712.438	57.44
712.623	57.1
712.807	56.39
712.991	55.84
713.175	55.34
713.359	54.22
713.544	53.72
713.728	53.11
713.912	51.9
714.096	51.4
714.28	51.28
714.464	51.06
714.648	50.6
714.832	50.14
715.016	49.8
715.2	48.99
715.384	48.97
715.568	48.6
715.752	48.36
715.936	48.87
716.12	49.06
716.304	49.05
716.488	48.96
716.671	48.67
716.855	48.76
717.039	48.47
717.223	48.58
717.407	48.46
717.59	48.85
717.774	48.81
717.958	48.53
718.142	48.33
718.325	47.75
718.509	48.07
718.693	48.62
718.877	48.97
719.06	49.37
719.244	49.18
719.428	49.34
719.611	49.46
719.795	49.48
719.978	49.86
720.162	50.48
720.345	50.88
720.529	50.94
720.713	51.11
720.896	50.98
721.08	51.1
721.263	51.6
721.446	51.94
721.63	51.77
721.813	51.88
721.997	51.38
722.18	50.77
722.364	51.16
722.547	51.36
722.73	51.35
722.914	51.49
723.097	51.76
723.28	51.9
723.464	51.88
723.647	51.99
723.83	51.87
724.013	52.57
724.197	52.71
724.38	52.26
724.563	51.93
724.746	51.95
724.929	52.22
725.112	51.96
725.296	52.2
725.479	51.79
725.662	51.97
725.845	52.31
726.028	52.14
726.211	51.93
726.394	51.94
726.577	52.02
726.76	52.03
726.943	51.94
727.126	51.53
727.309	51.07
727.492	51.04
727.675	50.9
727.858	50.69
728.041	50.58
728.224	50.76
728.407	51.31
728.589	51.55
728.772	51.31
728.955	50.92
729.138	51
729.321	50.94
729.503	51.04
729.686	51.09
729.869	51.13
730.052	51.14
730.234	50.89
730.417	50.31
730.6	50.09
730.782	50.18
730.965	50.59
731.148	51.04
731.33	51.5
731.513	51.35
731.695	51.33
731.878	52.08
732.061	52.51
732.243	52.96
732.426	52.96
732.608	52.85
732.791	52.66
732.973	52.17
733.156	51.89
733.338	51.77
733.52	51.97
733.703	51.91
733.885	51.79
734.068	51.58
734.25	51.88
734.432	52.26
734.615	52.91
734.797	53.25
734.979	53.76
735.162	54.14
735.344	54.23
735.526	55.18
735.708	55.35
735.891	55.54
736.073	55.29
736.255	55.05
736.437	55.13
736.619	54.63
736.802	54.63
736.984	54.52
737.166	54.72
737.348	54.59
737.53	54.04
737.712	53.88
737.894	52.78
738.076	53.07
738.258	52.9
738.44	52.29
738.622	51.83
738.804	52.61
738.986	53.18
739.168	53.13
739.35	53.35
739.532	53.18
739.714	53.72
739.896	54.54
740.078	55.34
740.259	55.49
740.441	56.85
740.623	57.85
740.805	57.34
740.987	57.04
741.168	57.36
741.35	57.96
741.532	58.3
741.714	58.12
741.895	58.42
742.077	57.82
742.259	58.25
742.44	57.53
742.622	57.57
742.804	57.72
742.985	57.82
743.167	57.55
743.348	57.28
743.53	57.38
743.711	57.87
743.893	58.32
744.075	58.38
744.256	58.54
744.438	58.32
744.619	58.2
744.8	58.83
744.982	59.17
745.163	59.58
745.345	59.85
745.526	60.27
745.707	59.67
745.889	59.18
746.07	58.41
746.252	58.84
746.433	59.45
746.614	59.4
746.795	58.23
746.977	58.12
747.158	57.36
747.339	56.68
747.52	56.48
747.702	56.84
747.883	56.72
748.064	58.51
748.245	57.59
748.426	57.92
748.607	57.62
748.788	58.27
748.97	58.02
749.151	58.47
749.332	58.67
749.513	58.3
749.694	58.46
749.875	58.53
750.056	58.16
750.237	58.5
750.418	58.87
750.599	59.6
750.78	59.94
750.96	59.97
751.141	60.29
751.322	60.27
751.503	60.47
751.684	60.38
751.865	60.25
752.046	59.88
752.226	60.16
752.407	59.54
752.588	59.55
752.769	59.95
752.949	60.15
753.13	59.9
753.311	60.64
753.492	60.42
753.672	60.75
753.853	60.82
754.034	61.02
754.214	60.93
754.395	61.14
754.575	60.51
754.756	59.71
754.937	59.24
755.117	59.99
755.298	59.62
755.478	59.87
755.659	59.52
755.839	60.28
756.02	60.06
756.2	59.68
756.381	59.08
756.561	59.45
756.741	59
756.922	59.25
757.102	58.4
757.283	58.24
757.463	58.12
757.643	57.64
757.823	56.83
758.004	56.01
758.184	55.08
758.364	55.29
758.545	54.67
758.725	54.64
758.905	54.6
759.085	54.46
759.265	53.73
759.446	53.24
759.626	53.07
759.806	52.8
759.986	53.29
760.166	53.71
760.346	53.26
760.526	53.5
760.706	53.61
760.886	53.01
761.066	52.92
761.246	54.02
761.426	54.58
761.606	54.09
761.786	53.75
761.966	52.57
762.146	52.42
762.326	52.3
762.506	52.16
762.686	51.61
762.866	51.21
763.046	51.07
763.225	50.36
763.405	49.93
763.585	50.34
763.765	50.2
763.945	50.71
764.124	50.49
764.304	50.53
764.484	50.18
764.664	50.58
764.843	51.13
765.023	51.39
765.203	51.39
765.382	51.85
765.562	52.01
765.741	52.66
765.921	53.02
766.101	53.63
766.28	53.89
766.46	54.41
766.639	54.87
766.819	55.24
766.998	55.15
767.178	55.91
767.357	56.05
767.537	56.11
767.716	56.8
767.896	57.14
768.075	57.62
768.254	57.98
768.434	59.34
768.613	59.87
768.792	60.29
768.972	60.98
769.151	60.81
769.33	60.7
769.51	60.81
769.689	60.17
769.868	60.12
770.047	61.15
770.226	61.24
770.406	60.94
770.585	60.99
770.764	61.3
770.943	61.01
771.122	61.31
771.301	62.63
771.48	63.52
771.66	64.43
771.839	64.61
772.018	63.46
772.197	64.34
772.376	64.64
772.555	64.45
772.734	65.09
772.913	65.38
773.092	64.98
773.271	64.69
773.449	64.27
773.628	64.52
773.807	65.66
773.986	65.98
774.165	65.63
774.344	65.56
774.523	65.65
774.701	65.21
774.88	66.38
775.059	67.09
775.238	65.99
775.417	65.34
775.595	65.82
775.774	64.68
775.953	65.16
776.131	65.29
776.31	65.04
776.489	64.97
776.667	64.66
776.846	64.62
777.025	63.78
777.203	63.69
777.382	64.75
777.56	63.4
777.739	64.28
777.917	64.38
778.096	64.74
778.274	64.72
778.453	65.55
778.631	66.13
778.81	64.88
778.988	64.95
779.166	65.65
779.345	65.39
779.523	65.97
779.702	64.89
779.88	65.6
780.058	64.3
780.237	65.21
780.415	64.8
780.593	64.24
780.771	64.82
780.95	65.92
781.128	66.32
781.306	65.28
781.484	64.56
781.662	64.68
781.841	64.24
782.019	64.06
782.197	62.39
782.375	61.61
782.553	61.84
782.731	62.26
782.909	61.83
783.087	61.42
783.265	61.93
783.443	62.59
783.621	63.07
783.799	62.46
783.977	63.81
784.155	64.99
784.333	65.89
784.511	66.78
784.689	66.06
784.867	65.42
785.045	66.09
785.223	66.23
785.4	65.74
785.578	64.58
785.756	65.04
785.934	65.01
786.112	64.46
786.289	63.76
786.467	61.69
786.645	62.18
786.823	62.13
787	62.01
787.178	61.38
787.356	60.68
787.533	60.67
787.711	60.13
787.889	58.51
788.066	58.79
788.244	58.26
788.421	58.99
788.599	58.12
788.776	58.87
788.954	58.11
789.131	58.21
789.309	59.15
789.486	59.67
789.664	59.57
789.841	60.99
790.019	60.93
790.196	61.49
790.373	61.44
790.551	62.55
790.728	61.67
790.906	61.79
791.083	63.17
791.26	64.52
791.437	64.85
791.615	64.93
791.792	64.04
791.969	63.8
792.146	64.37
792.324	65.37
792.501	64.68
792.678	66.15
792.855	66.97
793.032	66.76
793.209	65.21
793.387	65.8
793.564	66.47
793.741	67.27
793.918	67.57
794.095	67.76
794.272	67.51
794.449	68.43
794.626	66.67
794.803	66.55
794.98	66.19
795.157	66.91
795.334	65.47
795.511	65.67
795.688	65.22
795.864	65.45
796.041	64.91
796.218	64.84
796.395	64.73
796.572	65.24
796.749	64.21
796.925	64.15
797.102	63.77
797.279	65.1
797.456	64.32
797.632	64.77
797.809	65.02
797.986	65.46
798.162	64.68
798.339	63.09
798.516	63.09
798.692	62.85
798.869	63.22
799.046	63.48
799.222	62.76
799.399	62.63
799.575	62.61
799.752	63.15
799.928	62.67
800.105	62.94
800.281	64.32
800.458	65.2
800.634	66.03
800.811	64.72
800.987	63.43
801.163	64.01
801.34	64.81
801.516	64.63
801.692	63.77
801.869	64.81
802.045	65.53
802.221	65.78
802.398	65.82
802.574	65.67
802.75	66.95
802.926	67.21
803.103	67.11
803.279	66.24
803.455	65.4
803.631	65.06
803.807	65.62
803.983	65.93
804.16	64.81
804.336	64.03
804.512	64.75
804.688	64.5
804.864	65.66
805.04	66.04
805.216	64.81
805.392	65
805.568	64.09
805.744	62.39
805.92	61.88
806.096	62.34
806.272	62.88
806.448	62.92
806.623	63.45
806.799	62.95
806.975	63.14
807.151	65.62
807.327	66.72
807.503	68.39
807.678	68.93
807.854	68.47
808.03	68.75
808.206	67.66
808.381	67.68
808.557	67.03
808.733	65.67
808.908	66.52
809.084	66.48
809.26	66.41
809.435	65.89
809.611	65.14
809.787	65.89
809.962	65.14
810.138	67.04
810.313	66.35
810.489	65.92
810.664	67.73
810.84	65.2
811.015	63.8
811.191	65.01
811.366	65.44
811.542	66.56
811.717	65.5
811.892	68.54
812.068	68.51
812.243	68.32
812.419	68.11
812.594	66.97
812.769	68.39
812.944	68.15
813.12	66.48
813.295	66.11
813.47	64.22
813.645	64.55
813.821	61.94
813.996	61.75
814.171	61
814.346	62.25
814.521	64.11
814.697	63.88
814.872	65.81
815.047	64.84
815.222	64.29
815.397	65.1
815.572	64.71
815.747	63.38
815.922	62.54
816.097	63.59
816.272	63.65
816.447	63.13
816.622	62.24
816.797	60.3
816.972	60.65
817.147	60.74
817.322	61.7
817.496	61.64
817.671	62.42
817.846	63.26
818.021	62.79
818.196	61.39
818.371	60.8
818.545	61.09
818.72	62.56
818.895	63.77
819.069	62.75
819.244	60.14
819.419	60.12
819.594	60.51
819.768	58.81
819.943	57.67
820.117	57.14
820.292	55.6
820.467	54.18
820.641	52.35
820.816	50.44
820.99	49.68
821.165	49.25
821.339	48.39
821.514	47.3
821.688	46.82
821.863	46.49
822.037	46.23
822.212	45.85
822.386	45.44
822.56	45.01
822.735	45.01
822.909	44.74
823.084	44.78
823.258	44.82
823.432	44.93
823.606	44.88
823.781	44.86
823.955	44.81
824.129	44.83
824.303	44.99
824.478	45.58
824.652	45.92
824.826	46.37
825	46.69
825.174	46.81
825.348	47
825.523	47.41
825.697	47.67
825.871	48
826.045	48.76
826.219	49.74
826.393	49.1
826.567	48.87
826.741	48.68
826.915	48.32
827.089	47.74
827.263	48.19
827.437	48.5
827.611	48.6
827.784	48.88
827.958	48.85
828.132	48.51
828.306	49.09
828.48	48.94
828.654	49.63
828.827	50.15
829.001	51.22
829.175	50.33
829.349	50.4
829.522	50.64
829.696	51.24
829.87	51.72
830.044	52.05
830.217	53.3
830.391	54.2
830.565	54.11
830.738	55.09
830.912	55.73
831.085	57.88
831.259	58.3
831.432	58.88
831.606	56.84
831.779	56.68
831.953	57.04
832.126	56.77
832.3	57.46
832.473	57.43
832.647	56.4
832.82	55.85
832.994	54.71
833.167	53.57
833.34	54.01
833.514	53.71
833.687	53.47
833.86	52.96
834.034	52.24
834.207	51.12
834.38	50.72
834.553	50.22
834.727	50.03
834.9	50.15
835.073	50.27
835.246	49.72
835.419	50.2
835.593	49.87
835.766	50.57
835.939	50.83
836.112	51.14
836.285	51.06
836.458	53
836.631	53.64
836.804	55.6
836.977	56.29
837.15	57.44
837.323	59.97
837.496	61.13
837.669	62.9
837.842	64.48
838.015	67.55
838.188	68
838.361	66.62
838.533	66.51
838.706	65.95
838.879	65.42
839.052	65.67
839.225	64.06
839.398	63.99
839.57	64.24
839.743	65.41
839.916	67.1
840.088	69.56
840.261	69.27
840.434	69.06
840.607	69.72
840.779	69.97
840.952	67.92
841.124	68.83
841.297	68.08
841.47	66.43
841.642	67.86
841.815	66.66
841.987	66.04
842.16	68.13
842.332	70.18
842.505	70.95
842.677	72.05
842.85	76.8
843.022	78.07
843.194	82.8
843.367	85.25
843.539	82.15
843.712	81.37
843.884	82.31
844.056	84.09
844.229	84.18
844.401	83.42
844.573	83.85
844.745	82.97
844.918	81.95
845.09	80.62
845.262	79.36
845.434	76.97
845.606	76.85
845.779	78.46
845.951	76.53
846.123	75.69
846.295	76.73
846.467	83.13
846.639	85.54
846.811	87
846.983	86.76
847.155	84.2
847.327	92.44
847.499	94.64
847.671	95.28
847.843	93.81
848.015	94.46
848.187	93.54
848.359	88.37
848.531	87.05
848.703	88.34
848.875	87.93
849.047	93.54
849.218	88.65
849.39	93.07
849.562	96.56
849.734	94.88
849.905	97.6
850.077	99.79
850.249	102.8
850.421	98.87
850.592	95.43
850.764	99.54
850.936	97.96
851.107	96.3
851.279	89.09
851.451	84.62
851.622	88.28
851.794	91.06
851.965	93.19
852.137	90.76
852.308	94.26
852.48	97.45
852.651	93.12
852.823	91.38
852.994	93.49
853.166	101.5
853.337	102.97
853.509	99.76
853.68	96.5
853.851	89.46
854.023	87.44
854.194	86.36
854.365	84.77
854.537	87.13
854.708	89.16
854.879	91.4
855.05	89.44
855.222	86.91
855.393	91.25
855.564	90.88
855.735	92.18
855.906	94.31
856.078	93.19
856.249	91.06
856.42	90.75
856.591	89.59
856.762	87.6
856.933	87.92
857.104	89.51
857.275	85.57
857.446	81.08
857.617	80.64
857.788	83.32
857.959	84.25
858.13	87.55
858.301	91.74
858.472	88.96
858.643	86.37
858.814	84.1
858.985	88.55
859.155	91.09
859.326	89.26
859.497	91.86
859.668	86.49
859.839	85.13
860.009	84.06
860.18	80.26
860.351	78.81
860.522	85.49
860.692	90.22
860.863	88.09
861.034	86.5
861.204	95.99
861.375	96.18
861.546	98.69
861.716	100.35
861.887	100.77
862.057	96.76
862.228	99.1
862.398	98.86
862.569	98.26
862.739	95.39
862.91	92.9
863.08	92.56
863.251	95.06
863.421	97.16
863.592	93.34
863.762	91.3
863.932	90.89
864.103	93.14
864.273	92.1
864.443	86.05
864.614	85.08
864.784	88.07
864.954	87.23
865.125	86.79
865.295	80.05
865.465	81.76
865.635	85.09
865.805	88.5
865.976	89.31
866.146	93.1
866.316	92.63
866.486	96.07
866.656	93.72
866.826	95.62
866.996	97.2
867.166	98.03
867.336	103.17
867.506	102.27
867.676	102.76
867.846	105.57
868.016	99.58
868.186	98.86
868.356	100.42
868.526	100
868.696	96.58
868.866	91.75
869.036	101.03
869.206	96.99
869.376	94.95
869.545	92.55
869.715	91.97
869.885	89.29
870.055	95.67
870.224	97.91
870.394	99.97
870.564	102.5
870.734	103.64
870.903	96.47
871.073	94.34
871.243	99.96
871.412	106.55
871.582	100.79
871.751	108.64
871.921	108.39
872.091	95.59
872.26	91.83
872.43	89.71
872.599	93.29
872.769	94.9
872.938	100.52
873.108	98.12
873.277	92.5
873.446	93.6
873.616	91.62
873.785	88.06
873.955	92.74
874.124	98.15
874.293	99.66
874.463	96.38
874.632	97.73
874.801	92.53
874.971	87.86
875.14	90.88
875.309	88.13
875.478	87.04
875.647	86.25
875.817	88.61
875.986	88.21
876.155	85.68
876.324	81.83
876.493	82.62
876.662	79.47
876.831	86.88
877	82.22
877.17	82.25
877.339	84.52
877.508	86.91
877.677	85.65
877.846	85.71
878.015	84.86
878.184	89.94
878.352	87.24
878.521	91.58
878.69	83.9
878.859	81.78
879.028	80.79
879.197	74.44
879.366	67.67
879.534	65.28
879.703	63.2
879.872	59.44
880.041	56.12
880.21	53.04
880.378	51.18
880.547	50.39
880.716	49.89
880.884	49.48
881.053	48.56
881.222	47.67
881.39	46.2
881.559	44.27
881.727	44.14
881.896	42.71
882.065	42.43
882.233	41.84
882.402	41.79
882.57	41.54
882.739	40.12
882.907	39.99
883.076	40.33
883.244	41.31
883.412	41.68
883.581	41.73
883.749	42.26
883.918	43.12
884.086	43.46
884.254	43.16
884.423	44.19
884.591	45.95
884.759	47.15
884.927	47.86
885.096	47.64
885.264	49.92
885.432	50.19
885.6	52.3
885.769	52.88
885.937	56.35
886.105	59.79
886.273	62.13
886.441	62.99
886.609	64.81
886.777	64.16
886.945	64.75
887.113	64.82
887.281	68.98
887.449	66.85
887.617	66.86
887.785	66.13
887.953	67.95
888.121	70.28
888.289	70.81
888.457	74.12
888.625	78.57
888.793	81.24
888.961	79.74
889.129	82.88
889.296	91.13
889.464	95.13
889.632	95.21
889.8	92.7
889.967	88.16
890.135	94.73
