Data from 2938715__Reflection_03.txt Node
Date: Tue Mar 17 19:01:55 EDT 2015
User: robert
Spectrometer: USB4E03002
Autoset integration time: false
Trigger mode: 4
Integration Time (sec): 1.000000E-1
Scans to average: 10
Electric dark correction enabled: false
Nonlinearity correction enabled: false
Boxcar width: 5
Stray light correction enabled: false
XAxis mode: Wavelengths
Stop averaging: false
Number of Pixels in Spectrum: 3648
>>>>>Begin Spectral Data<<<<<
177.575	39.58
177.794	48.56
178.014	15.71
178.233	-23.35
178.452	-0.84
178.672	-91.19
178.891	-238.27
179.11	-316.39
179.33	-380
179.549	301.98
179.768	564.06
179.987	118.41
180.207	107.33
180.426	77.46
180.645	86.06
180.864	53.36
181.084	-12.79
181.303	-39.53
181.522	-23.4
181.741	8.06
181.96	4.04
182.179	-5.19
182.398	-52.7
182.618	-139.71
182.837	-193.58
183.056	-117.6
183.275	-38.56
183.494	-164.86
183.713	-126.09
183.932	-116.87
184.151	-147.13
184.37	-166.06
184.589	-463.64
184.808	406.78
185.027	-68.18
185.246	-56.92
185.465	-24.78
185.684	-136.36
185.903	-39.29
186.122	-21.5
186.341	-10.57
186.56	-263
186.779	-120.63
186.998	-49.42
187.216	-11.99
187.435	-25.25
187.654	68.65
187.873	42.74
188.092	292.31
188.311	-403.57
188.53	-264.58
188.748	-650
188.967	208.26
189.186	264.53
189.405	513.04
189.623	278.63
189.842	269.92
190.061	123.23
190.28	165.95
190.498	85.76
190.717	107.38
190.936	127.47
191.154	174.1
191.373	678
191.592	687.18
191.81	-390.24
192.029	-121.59
192.248	529.41
192.466	-50
192.685	490
192.904	-336.67
193.122	31.44
193.341	17.27
193.559	6.51
193.778	105.77
193.996	14.29
194.215	43.33
194.433	56.85
194.652	69.77
194.87	40.8
195.089	36.71
195.307	38.8
195.526	18.26
195.744	19.06
195.963	11.48
196.181	-23.24
196.399	-59.56
196.618	-166.17
196.836	-340.68
197.055	-10500
197.273	-1208.57
197.491	-11233.33
197.71	243.13
197.928	57100
198.146	-276
198.365	1610.81
198.583	-6042.86
198.801	-456.06
199.019	-437.78
199.238	-890.63
199.456	-18.44
199.674	65.33
199.892	-11.01
200.111	8.26
200.329	-42.25
200.547	-60.53
200.765	56.04
200.983	262.5
201.202	-400
201.42	444.44
201.638	148.8
201.856	-529.17
202.074	169.03
202.292	94.57
202.51	189.29
202.728	60.05
202.946	85.54
203.165	126.3
203.383	67.95
203.601	64.78
203.819	63.01
204.037	86.52
204.255	66.22
204.473	85.27
204.691	86.58
204.909	85.14
205.127	114.25
205.345	58.08
205.562	20.75
205.78	65.63
205.998	51.19
206.216	54.05
206.434	27.04
206.652	20.56
206.87	-41.67
207.088	27.04
207.306	6.08
207.523	-887.5
207.741	-77.05
207.959	-64.86
208.177	-11.33
208.395	-3.47
208.612	17.85
208.83	-123.33
209.048	770.59
209.266	-1174.19
209.483	1328.57
209.701	-277.48
209.919	-50.11
210.136	-73.5
210.354	-134.05
210.572	-166.57
210.79	-125.07
211.007	-203.52
211.225	-82.86
211.442	-44.1
211.66	-6.35
211.878	-31.96
212.095	-56.75
212.313	-52.93
212.53	-68.86
212.748	-15.09
212.966	-14.19
213.183	-57.96
213.401	-41.61
213.618	-67.6
213.836	-68.19
214.053	-121.84
214.271	-106.92
214.488	-23.76
214.705	-18
214.923	-6.17
215.14	-10.99
215.358	-67.04
215.575	-3.6
215.793	-29.03
216.01	9.21
216.227	-24.6
216.445	31.43
216.662	26.97
216.879	12.42
217.097	0.47
217.314	-4.03
217.531	11.35
217.749	42.16
217.966	22.18
218.183	24.48
218.4	28.6
218.618	20.75
218.835	17.28
219.052	19.89
219.269	13.9
219.487	2.8
219.704	-1
219.921	-2.71
220.138	-9.75
220.355	-17.91
220.572	-26.84
220.79	-21.82
221.007	-12.46
221.224	-22.5
221.441	-21.38
221.658	-17.11
221.875	2.81
222.092	7.98
222.309	9.79
222.526	4.85
222.743	11.04
222.96	11.79
223.177	9.56
223.394	7.88
223.611	13.85
223.828	13.15
224.045	10.76
224.262	-1.26
224.479	-2.27
224.696	-5.31
224.913	-0.07
225.13	0.51
225.347	-6.83
225.564	-6.95
225.781	-12.59
225.997	-13.37
226.214	-14.12
226.431	-12.78
226.648	-8.34
226.865	-5.32
227.082	-5.33
227.298	-3.82
227.515	-4.11
227.732	-0.86
227.949	-0.02
228.165	2.19
228.382	2
228.599	1.97
228.816	2.63
229.032	2.68
229.249	2.51
229.466	2.2
229.682	2.02
229.899	2.46
230.116	1.55
230.332	1.65
230.549	1.68
230.765	2.2
230.982	2
231.199	2.32
231.415	3.21
231.632	2.52
231.848	2.82
232.065	1.79
232.281	1.37
232.498	1.57
232.714	1.36
232.931	0.84
233.147	-0.62
233.364	1.5
233.58	1.01
233.797	0.66
234.013	1.46
234.23	0.61
234.446	2.15
234.662	2.4
234.879	3.67
235.095	4.1
235.312	4.24
235.528	3.6
235.744	4.24
235.961	4.5
236.177	2.83
236.393	4.29
236.61	6.52
236.826	5.28
237.042	5.68
237.258	5
237.475	5.28
237.691	5.12
237.907	6.54
238.123	3.38
238.339	3.45
238.556	6.26
238.772	4.73
238.988	4.35
239.204	3.68
239.42	3.91
239.636	3.49
239.853	3.15
240.069	3.12
240.285	2.97
240.501	4.25
240.717	3.62
240.933	3.19
241.149	3.34
241.365	3.27
241.581	4.42
241.797	4.44
242.013	4.63
242.229	4.73
242.445	4.76
242.661	4.5
242.877	4.45
243.093	4.74
243.309	4.44
243.525	3.96
243.741	4.08
243.957	3.47
244.173	3
244.388	3.13
244.604	3.29
244.82	2.77
245.036	3.11
245.252	3.23
245.468	3.11
245.683	2.87
245.899	3.35
246.115	2.97
246.331	3.18
246.547	3.2
246.762	2.83
246.978	3.2
247.194	3.3
247.409	3.21
247.625	3.12
247.841	2.94
248.057	3.02
248.272	2.8
248.488	2.73
248.703	2.84
248.919	2.83
249.135	2.99
249.35	2.33
249.566	2.89
249.782	3.44
249.997	3.4
250.213	3.12
250.428	2.94
250.644	2.62
250.859	3.39
251.075	3.43
251.29	3.34
251.506	3.58
251.721	3.21
251.937	2.59
252.152	2.3
252.368	2.04
252.583	2.28
252.798	1.73
253.014	2.01
253.229	1.61
253.445	0.58
253.66	0.08
253.875	-0.68
254.091	-0.58
254.306	-0.88
254.521	-1.57
254.737	-1.67
254.952	-1.46
255.167	-0.41
255.383	0.12
255.598	0.89
255.813	1.52
256.028	1.52
256.244	1.84
256.459	1.63
256.674	0.56
256.889	0.73
257.104	0.88
257.32	1.04
257.535	0.95
257.75	0.98
257.965	0.66
258.18	1.57
258.395	2.22
258.61	2.42
258.826	2.68
259.041	3.09
259.256	3.18
259.471	3.21
259.686	3.25
259.901	3.27
260.116	3.45
260.331	3.74
260.546	3.3
260.761	3.37
260.976	3.5
261.191	3.35
261.406	3.56
261.621	3.83
261.836	3.97
262.05	3.99
262.265	4.03
262.48	3.54
262.695	3.15
262.91	3.56
263.125	2.59
263.34	1.99
263.555	2.05
263.769	1.9
263.984	0.71
264.199	0.12
264.414	-0.56
264.629	-0.21
264.843	0.13
265.058	0.18
265.273	0.12
265.488	0.24
265.702	0.59
265.917	0.44
266.132	0.58
266.346	0.99
266.561	1.58
266.776	1.98
266.99	1.63
267.205	1.74
267.42	1.57
267.634	1.33
267.849	1.63
268.063	1.65
268.278	1.7
268.492	1.5
268.707	1.42
268.922	1.25
269.136	0.94
269.351	1.06
269.565	1.05
269.78	1.1
269.994	0.92
270.209	0.88
270.423	0.52
270.637	1.1
270.852	1.02
271.066	1.36
271.281	1.63
271.495	2.02
271.709	1.95
271.924	1.64
272.138	1.64
272.353	1.97
272.567	2.05
272.781	2.23
272.996	2.12
273.21	2.34
273.424	2.03
273.638	1.79
273.853	1.64
274.067	1.66
274.281	1.66
274.495	1.56
274.71	1.07
274.924	1.24
275.138	1.06
275.352	0.79
275.566	0.39
275.781	0.74
275.995	0.59
276.209	0.63
276.423	0.78
276.637	1.08
276.851	1.22
277.065	1.73
277.279	1.45
277.493	2.35
277.707	2.88
277.921	2.88
278.135	2.65
278.349	2.94
278.563	2.19
278.777	1.93
278.991	2.01
279.205	1.61
279.419	1.4
279.633	1.42
279.847	0.76
280.061	0.18
280.275	0.26
280.489	0.77
280.703	0.87
280.917	1.36
281.131	1.6
281.344	1.38
281.558	1.6
281.772	1.8
281.986	2.03
282.2	2.05
282.414	2.36
282.627	2.59
282.841	2.4
283.055	2.16
283.269	2.48
283.482	2.54
283.696	2.84
283.91	2.88
284.123	2.74
284.337	2.63
284.551	2.69
284.764	2.36
284.978	2.35
285.192	2.34
285.405	2.62
285.619	2.41
285.833	2.27
286.046	1.98
286.26	2.01
286.473	2.08
286.687	2.08
286.9	2.08
287.114	2.33
287.327	2.24
287.541	2.43
287.754	2.19
287.968	2.1
288.181	2.21
288.395	2.65
288.608	3.16
288.822	3.08
289.035	3.59
289.248	3.67
289.462	3.52
289.675	3.68
289.889	3.54
290.102	3.45
290.315	3.58
290.529	3.34
290.742	3.04
290.955	2.89
291.169	3.04
291.382	2.5
291.595	2.41
291.808	2.25
292.022	2.11
292.235	2.28
292.448	2.35
292.661	2.45
292.875	2.71
293.088	2.9
293.301	3.27
293.514	3.46
293.727	3.69
293.94	3.58
294.153	3.94
294.367	3.74
294.58	3.51
294.793	3.76
295.006	3.65
295.219	3.86
295.432	3.73
295.645	3.37
295.858	3.21
296.071	3.39
296.284	3.76
296.497	3.82
296.71	3.96
296.923	3.91
297.136	3.9
297.349	4.16
297.562	4.11
297.775	4.2
297.988	4.32
298.201	4.49
298.414	4.63
298.626	4.63
298.839	4.63
299.052	5.16
299.265	5.29
299.478	5.6
299.691	5.48
299.903	5.46
300.116	5.49
300.329	5.69
300.542	5.33
300.755	5.07
300.967	5.11
301.18	5.2
301.393	4.74
301.605	4.88
301.818	4.57
302.031	4.98
302.243	5.14
302.456	5.39
302.669	5.05
302.881	5.57
303.094	5.9
303.307	5.89
303.519	5.93
303.732	6.27
303.944	6.31
304.157	6.52
304.37	6.55
304.582	6.57
304.795	6.42
305.007	6.73
305.22	6.77
305.432	6.57
305.645	6.8
305.857	7
306.069	6.97
306.282	7.27
306.494	7.34
306.707	7.25
306.919	7.28
307.132	7.52
307.344	7.38
307.556	7.5
307.769	7.62
307.981	7.26
308.193	6.9
308.406	7.2
308.618	6.91
308.83	7.05
309.043	6.72
309.255	7.1
309.467	6.8
309.679	6.8
309.892	6.64
310.104	6.82
310.316	6.86
310.528	7.11
310.74	7.01
310.953	7.1
311.165	6.97
311.377	7.15
311.589	7.01
311.801	7.15
312.013	7.51
312.225	7.53
312.437	7.47
312.649	7.59
312.862	7.47
313.074	7.51
313.286	7.47
313.498	7.54
313.71	7.44
313.922	6.96
314.134	7.08
314.346	6.7
314.558	6.82
314.77	6.66
314.982	6.91
315.193	6.94
315.405	6.71
315.617	6.9
315.829	6.59
316.041	6.65
316.253	6.98
316.465	7.15
316.677	7.48
316.888	7.6
317.1	7.66
317.312	7.23
317.524	7.23
317.736	7.33
317.947	7.57
318.159	8.01
318.371	8.08
318.583	8.19
318.794	8.09
319.006	7.55
319.218	7.15
319.43	7.32
319.641	7.58
319.853	7.59
320.064	7.69
320.276	7.8
320.488	7.98
320.699	7.84
320.911	7.66
321.123	7.96
321.334	8.47
321.546	8.87
321.757	8.99
321.969	8.86
322.18	8.86
322.392	8.54
322.603	7.92
322.815	7.77
323.026	8.07
323.238	8.49
323.449	8.24
323.661	8.22
323.872	8.14
324.083	7.37
324.295	7.64
324.506	7.84
324.718	8.12
324.929	8.64
325.14	8.82
325.352	9.04
325.563	8.91
325.774	8.69
325.986	8.9
326.197	8.94
326.408	9.4
326.62	9.37
326.831	9.68
327.042	9.58
327.253	9.74
327.464	9.59
327.676	9.62
327.887	9.88
328.098	10.12
328.309	10.22
328.52	10.13
328.732	10.74
328.943	10.73
329.154	10.24
329.365	10.54
329.576	10.33
329.787	10.42
329.998	10.3
330.209	10.16
330.42	10.59
330.631	10.5
330.842	10.64
331.053	10.38
331.264	10.26
331.475	10.64
331.686	10.61
331.897	10.44
332.108	10.75
332.319	11.35
332.53	11.22
332.741	10.86
332.952	10.84
333.163	11.02
333.374	10.83
333.585	11.19
333.795	11.26
334.006	11.07
334.217	10.82
334.428	10.28
334.639	9.89
334.849	9.74
335.06	9.89
335.271	9.7
335.482	9.88
335.692	9.71
335.903	9.43
336.114	9.16
336.325	9.49
336.535	9.93
336.746	10.3
336.957	10.14
337.167	10.52
337.378	10.27
337.589	10.07
337.799	9.92
338.01	9.99
338.22	10.26
338.431	10.24
338.642	10.15
338.852	10.25
339.063	10.06
339.273	10.16
339.484	10.36
339.694	10.44
339.905	10.65
340.115	10.51
340.326	10.67
340.536	10.61
340.746	10.79
340.957	11.01
341.167	10.68
341.378	10.61
341.588	10.55
341.799	10.41
342.009	10.47
342.219	10.42
342.43	10.49
342.64	10.63
342.85	10.41
343.061	10.33
343.271	9.81
343.481	10.14
343.691	10.21
343.902	10.18
344.112	9.72
344.322	9.67
344.532	9.59
344.743	9.66
344.953	9.23
345.163	9.39
345.373	9.28
345.583	9.5
345.793	9.28
346.004	9.57
346.214	9.42
346.424	9.68
346.634	9.7
346.844	9.74
347.054	9.56
347.264	9.91
347.474	9.93
347.684	10.07
347.894	10.14
348.104	10.05
348.314	9.87
348.524	9.7
348.734	9.52
348.944	9.65
349.154	9.71
349.364	9.7
349.574	9.66
349.784	9.56
349.994	9.67
350.204	9.78
350.413	10.02
350.623	9.82
350.833	9.98
351.043	9.89
351.253	9.88
351.463	9.63
351.672	9.87
351.882	9.7
352.092	9.97
352.302	9.98
352.511	9.73
352.721	9.61
352.931	9.69
353.141	9.81
353.35	9.91
353.56	9.83
353.77	9.98
353.979	10.15
354.189	10.25
354.399	9.97
354.608	9.9
354.818	9.9
355.027	9.68
355.237	9.76
355.447	9.73
355.656	9.63
355.866	9.52
356.075	9.68
356.285	9.57
356.494	9.79
356.704	9.88
356.913	9.93
357.123	9.91
357.332	9.98
357.542	9.85
357.751	9.74
357.96	9.93
358.17	10.03
358.379	9.97
358.589	9.92
358.798	9.79
359.007	9.66
359.217	9.4
359.426	9.46
359.635	9.41
359.845	9.4
360.054	9.61
360.263	9.44
360.472	9.29
360.682	9.36
360.891	9.3
361.1	9.1
361.309	9.17
361.519	9.36
361.728	9.33
361.937	9.34
362.146	9.45
362.355	9.35
362.564	9.42
362.774	9.47
362.983	9.34
363.192	9.31
363.401	9.4
363.61	9.32
363.819	9.3
364.028	9.45
364.237	9.31
364.446	9.13
364.655	9.1
364.864	9.01
365.073	9.01
365.282	9.07
365.491	8.95
365.7	8.91
365.909	8.7
366.118	8.51
366.327	8.32
366.536	8.36
366.745	8.31
366.954	8.17
367.162	8.28
367.371	8.15
367.58	8.06
367.789	8.08
367.998	8.04
368.207	8.33
368.415	8.37
368.624	8.33
368.833	8.38
369.042	8.37
369.25	8.47
369.459	8.47
369.668	8.59
369.877	8.63
370.085	8.55
370.294	8.51
370.503	8.43
370.711	8.43
370.92	8.65
371.129	8.44
371.337	8.25
371.546	8.11
371.754	7.88
371.963	7.91
372.171	7.67
372.38	7.74
372.589	7.56
372.797	7.29
373.006	6.99
373.214	6.69
373.423	6.85
373.631	6.85
373.84	6.68
374.048	6.59
374.256	6.53
374.465	6.79
374.673	6.57
374.882	6.59
375.09	6.63
375.298	6.68
375.507	6.55
375.715	6.48
375.923	6.62
376.132	6.79
376.34	6.74
376.548	6.64
376.757	6.48
376.965	6.5
377.173	6.65
377.381	6.6
377.59	6.61
377.798	6.38
378.006	6.4
378.214	6.08
378.423	6.04
378.631	6.11
378.839	6.05
379.047	6.02
379.255	6.07
379.463	5.79
379.671	5.87
379.879	5.72
380.088	6.06
380.296	6.02
380.504	6.08
380.712	5.85
380.92	5.69
381.128	5.65
381.336	5.52
381.544	5.38
381.752	5.55
381.96	5.4
382.168	5.5
382.376	5.24
382.584	5.04
382.791	5.05
382.999	5.04
383.207	4.87
383.415	4.79
383.623	4.56
383.831	4.29
384.039	4.16
384.247	4.18
384.454	4.3
384.662	4.48
384.87	4.6
385.078	4.68
385.285	4.69
385.493	4.86
385.701	4.82
385.909	4.94
386.116	5.17
386.324	5.26
386.532	5.14
386.739	4.8
386.947	4.74
387.155	4.58
387.362	4.53
387.57	4.51
387.778	4.49
387.985	4.62
388.193	4.66
388.4	4.53
388.608	4.42
388.816	4.45
389.023	4.55
389.231	4.35
389.438	4.35
389.646	4.46
389.853	4.26
390.061	4.24
390.268	4.05
390.475	3.91
390.683	3.93
390.89	3.97
391.098	4.08
391.305	4.08
391.512	4.13
391.72	4.2
391.927	3.93
392.135	4.11
392.342	4.21
392.549	4.3
392.756	4.36
392.964	4.33
393.171	4.19
393.378	4.1
393.586	4.18
393.793	4.16
394	4.06
394.207	4.23
394.414	4.24
394.622	4.18
394.829	4.14
395.036	4.17
395.243	4.12
395.45	4.12
395.657	4.12
395.864	3.94
396.072	3.83
396.279	3.74
396.486	3.54
396.693	3.64
396.9	3.43
397.107	3.4
397.314	3.33
397.521	3.32
397.728	3.32
397.935	3.25
398.142	3.27
398.349	3.41
398.556	3.48
398.763	3.47
398.97	3.26
399.177	3.24
399.383	3.04
399.59	3.09
399.797	3.2
400.004	3.17
400.211	3.06
400.418	3.2
400.625	3.17
400.831	3.05
401.038	3.17
401.245	3.19
401.452	3.25
401.658	3.43
401.865	3.34
402.072	3.29
402.279	3.36
402.485	3.38
402.692	3.1
402.899	2.96
403.105	3.16
403.312	3.01
403.519	2.9
403.725	2.83
403.932	2.84
404.138	2.77
404.345	2.76
404.552	2.63
404.758	2.7
404.965	2.8
405.171	2.88
405.378	2.92
405.584	3.1
405.791	3.06
405.997	3.21
406.204	3.18
406.41	3.04
406.617	2.96
406.823	3.06
407.029	2.91
407.236	2.98
407.442	3.1
407.649	3.13
407.855	3.01
408.061	3.11
408.268	3.07
408.474	3.11
408.68	3.34
408.887	3.58
409.093	3.45
409.299	3.49
409.505	3.32
409.712	3.09
409.918	2.92
410.124	2.93
410.33	3
410.537	2.93
410.743	2.93
410.949	2.97
411.155	2.68
411.361	2.77
411.567	2.73
411.773	2.82
411.98	2.87
412.186	2.78
412.392	2.85
412.598	2.75
412.804	2.8
413.01	2.7
413.216	2.66
413.422	2.88
413.628	2.88
413.834	3.12
414.04	3.18
414.246	3.15
414.452	3.2
414.658	3.16
414.864	3.25
415.07	3.16
415.275	3.16
415.481	3
415.687	2.93
415.893	2.89
416.099	2.74
416.305	2.71
416.511	2.72
416.716	2.67
416.922	2.64
417.128	2.61
417.334	2.7
417.539	2.69
417.745	2.83
417.951	2.68
418.157	2.73
418.362	2.75
418.568	2.73
418.774	2.75
418.979	2.8
419.185	2.79
419.391	2.82
419.596	2.82
419.802	2.86
420.008	2.81
420.213	2.88
420.419	2.77
420.624	2.78
420.83	2.82
421.035	2.8
421.241	2.75
421.446	2.75
421.652	2.69
421.857	2.6
422.063	2.59
422.268	2.57
422.474	2.58
422.679	2.63
422.885	2.57
423.09	2.53
423.295	2.54
423.501	2.51
423.706	2.55
423.911	2.58
424.117	2.63
424.322	2.61
424.527	2.63
424.733	2.62
424.938	2.59
425.143	2.6
425.349	2.6
425.554	2.64
425.759	2.69
425.964	2.63
426.169	2.59
426.375	2.6
426.58	2.59
426.785	2.58
426.99	2.57
427.195	2.6
427.4	2.6
427.605	2.53
427.811	2.54
428.016	2.51
428.221	2.49
428.426	2.48
428.631	2.46
428.836	2.44
429.041	2.43
429.246	2.51
429.451	2.56
429.656	2.49
429.861	2.51
430.066	2.31
430.271	2.37
430.476	2.32
430.681	2.38
430.886	2.35
431.09	2.35
431.295	2.44
431.5	2.3
431.705	2.27
431.91	2.34
432.115	2.43
432.32	2.47
432.524	2.44
432.729	2.49
432.934	2.44
433.139	2.4
433.343	2.42
433.548	2.39
433.753	2.4
433.958	2.46
434.162	2.41
434.367	2.37
434.572	2.4
434.776	2.38
434.981	2.37
435.186	2.43
435.39	2.5
435.595	2.38
435.799	2.42
436.004	2.51
436.209	2.51
436.413	2.59
436.618	2.52
436.822	2.55
437.027	2.55
437.231	2.56
437.436	2.52
437.64	2.34
437.845	2.43
438.049	2.35
438.253	2.32
438.458	2.27
438.662	2.28
438.867	2.39
439.071	2.3
439.275	2.33
439.48	2.41
439.684	2.44
439.888	2.55
440.093	2.54
440.297	2.48
440.501	2.48
440.706	2.5
440.91	2.49
441.114	2.44
441.318	2.47
441.523	2.42
441.727	2.4
441.931	2.28
442.135	2.29
442.339	2.28
442.543	2.31
442.748	2.21
442.952	2.23
443.156	2.16
443.36	2.1
443.564	2.19
443.768	2.21
443.972	2.16
444.176	2.25
444.38	2.22
444.584	2.16
444.788	2.3
444.992	2.39
445.196	2.36
445.4	2.39
445.604	2.42
445.808	2.35
446.012	2.4
446.216	2.41
446.42	2.41
446.624	2.39
446.828	2.45
447.032	2.31
447.235	2.24
447.439	2.22
447.643	2.29
447.847	2.27
448.051	2.25
448.254	2.19
448.458	2.16
448.662	2.15
448.866	2.16
449.069	2.12
449.273	2.15
449.477	2.24
449.681	2.25
449.884	2.25
450.088	2.22
450.292	2.29
450.495	2.28
450.699	2.2
450.902	2.19
451.106	2.2
451.31	2.14
451.513	2.14
451.717	2.11
451.92	2.09
452.124	2.06
452.327	2.11
452.531	2.01
452.734	2
452.938	2.08
453.141	2.05
453.345	2.07
453.548	2.12
453.752	2.18
453.955	2.17
454.158	2.23
454.362	2.13
454.565	2.03
454.769	2.07
454.972	2.13
455.175	2.13
455.379	2.14
455.582	2.21
455.785	2.25
455.988	2.23
456.192	2.24
456.395	2.17
456.598	2.23
456.801	2.34
457.005	2.37
457.208	2.29
457.411	2.27
457.614	2.35
457.817	2.34
458.021	2.37
458.224	2.39
458.427	2.3
458.63	2.35
458.833	2.3
459.036	2.29
459.239	2.27
459.442	2.29
459.645	2.2
459.848	2.11
460.051	2.02
460.254	2.04
460.457	2.01
460.66	2.01
460.863	2.03
461.066	2.04
461.269	2.08
461.472	2.1
461.675	2.14
461.878	2.29
462.081	2.38
462.284	2.42
462.486	2.44
462.689	2.47
462.892	2.63
463.095	2.56
463.298	2.62
463.5	2.47
463.703	2.54
463.906	2.6
464.109	2.6
464.311	2.62
464.514	2.53
464.717	2.54
464.92	2.52
465.122	2.42
465.325	2.49
465.528	2.55
465.73	2.59
465.933	2.55
466.135	2.44
466.338	2.4
466.541	2.4
466.743	2.49
466.946	2.29
467.148	2.26
467.351	2.25
467.553	2.33
467.756	2.26
467.958	2.28
468.161	2.33
468.363	2.35
468.566	2.27
468.768	2.15
468.971	2.12
469.173	2.19
469.375	2.22
469.578	2.27
469.78	2.08
469.983	2.11
470.185	2.11
470.387	2.08
470.59	2.1
470.792	2.14
470.994	2.31
471.196	2.34
471.399	2.32
471.601	2.36
471.803	2.3
472.005	2.34
472.208	2.28
472.41	2.33
472.612	2.35
472.814	2.38
473.016	2.43
473.218	2.41
473.421	2.47
473.623	2.47
473.825	2.44
474.027	2.47
474.229	2.43
474.431	2.46
474.633	2.45
474.835	2.4
475.037	2.41
475.239	2.4
475.441	2.38
475.643	2.29
475.845	2.32
476.047	2.29
476.249	2.28
476.451	2.3
476.653	2.36
476.855	2.35
477.057	2.36
477.258	2.31
477.46	2.27
477.662	2.26
477.864	2.2
478.066	2.18
478.268	2.22
478.469	2.31
478.671	2.26
478.873	2.17
479.075	2.15
479.276	2.15
479.478	2.18
479.68	2.15
479.882	2.17
480.083	2.24
480.285	2.32
480.487	2.38
480.688	2.32
480.89	2.35
481.091	2.38
481.293	2.48
481.495	2.48
481.696	2.44
481.898	2.49
482.099	2.49
482.301	2.47
482.502	2.45
482.704	2.43
482.905	2.44
483.107	2.42
483.308	2.39
483.51	2.36
483.711	2.36
483.913	2.4
484.114	2.39
484.315	2.39
484.517	2.41
484.718	2.38
484.92	2.38
485.121	2.37
485.322	2.37
485.524	2.4
485.725	2.41
485.926	2.39
486.127	2.38
486.329	2.37
486.53	2.37
486.731	2.38
486.932	2.44
487.134	2.42
487.335	2.45
487.536	2.48
487.737	2.49
487.938	2.49
488.139	2.5
488.341	2.48
488.542	2.49
488.743	2.49
488.944	2.48
489.145	2.43
489.346	2.45
489.547	2.39
489.748	2.36
489.949	2.33
490.15	2.36
490.351	2.35
490.552	2.39
490.753	2.41
490.954	2.43
491.155	2.39
491.356	2.39
491.557	2.36
491.758	2.4
491.959	2.43
492.159	2.42
492.36	2.38
492.561	2.4
492.762	2.35
492.963	2.32
493.164	2.29
493.364	2.32
493.565	2.37
493.766	2.42
493.967	2.43
494.167	2.37
494.368	2.42
494.569	2.42
494.769	2.43
494.97	2.47
495.171	2.52
495.371	2.51
495.572	2.5
495.773	2.52
495.973	2.57
496.174	2.5
496.375	2.59
496.575	2.6
496.776	2.67
496.976	2.68
497.177	2.68
497.377	2.74
497.578	2.82
497.778	2.88
497.979	2.85
498.179	2.73
498.38	2.75
498.58	2.7
498.78	2.71
498.981	2.66
499.181	2.68
499.382	2.67
499.582	2.57
499.782	2.58
499.983	2.6
500.183	2.61
500.383	2.7
500.584	2.77
500.784	2.81
500.984	2.81
501.184	2.79
501.385	2.84
501.585	2.82
501.785	2.88
501.985	2.93
502.185	2.93
502.386	2.87
502.586	2.94
502.786	2.96
502.986	2.97
503.186	2.97
503.386	3.02
503.586	3.04
503.786	3.18
503.987	3.17
504.187	3.11
504.387	3.13
504.587	3.28
504.787	3.32
504.987	3.4
505.187	3.46
505.387	3.53
505.587	3.54
505.786	3.58
505.986	3.59
506.186	3.67
506.386	3.72
506.586	3.82
506.786	3.78
506.986	3.78
507.186	3.76
507.386	3.76
507.585	3.9
507.785	3.93
507.985	3.99
508.185	4.07
508.384	4.12
508.584	4.18
508.784	4.17
508.984	4.25
509.183	4.27
509.383	4.3
509.583	4.36
509.782	4.32
509.982	4.38
510.182	4.36
510.381	4.34
510.581	4.33
510.781	4.28
510.98	4.31
511.18	4.34
511.379	4.38
511.579	4.45
511.778	4.45
511.978	4.47
512.177	4.51
512.377	4.65
512.576	4.73
512.776	4.82
512.975	4.94
513.175	5.06
513.374	5.2
513.573	5.28
513.773	5.35
513.972	5.47
514.172	5.57
514.371	5.61
514.57	5.64
514.77	5.8
514.969	5.89
515.168	5.94
515.367	5.99
515.567	5.98
515.766	6.1
515.965	6.21
516.164	6.3
516.364	6.43
516.563	6.66
516.762	6.72
516.961	6.75
517.16	6.84
517.359	6.94
517.559	7.02
517.758	7.15
517.957	7.27
518.156	7.33
518.355	7.44
518.554	7.53
518.753	7.54
518.952	7.62
519.151	7.68
519.35	7.75
519.549	7.86
519.748	7.89
519.947	7.95
520.146	8.02
520.345	8.11
520.544	8.15
520.743	8.22
520.942	8.31
521.141	8.39
521.339	8.47
521.538	8.59
521.737	8.65
521.936	8.8
522.135	8.96
522.333	9.05
522.532	9.18
522.731	9.34
522.93	9.48
523.129	9.66
523.327	9.76
523.526	9.97
523.725	10.1
523.923	10.26
524.122	10.36
524.321	10.4
524.519	10.5
524.718	10.63
524.917	10.68
525.115	10.79
525.314	10.85
525.512	11
525.711	11.06
525.909	11.13
526.108	11.22
526.306	11.41
526.505	11.57
526.703	11.66
526.902	11.76
527.1	11.93
527.299	12
527.497	12.11
527.696	12.19
527.894	12.29
528.092	12.39
528.291	12.51
528.489	12.55
528.688	12.6
528.886	12.69
529.084	12.73
529.283	12.75
529.481	12.82
529.679	12.89
529.877	12.95
530.076	12.99
530.274	13.11
530.472	13.18
530.67	13.28
530.869	13.42
531.067	13.54
531.265	13.71
531.463	13.86
531.661	14.03
531.859	14.18
532.057	14.32
532.255	14.49
532.454	14.53
532.652	14.62
532.85	14.72
533.048	14.76
533.246	14.84
533.444	14.92
533.642	14.98
533.84	15.05
534.038	15.11
534.236	15.2
534.434	15.29
534.632	15.41
534.83	15.55
535.027	15.62
535.225	15.75
535.423	15.88
535.621	15.98
535.819	16.16
536.017	16.25
536.215	16.33
536.412	16.42
536.61	16.52
536.808	16.6
537.006	16.65
537.203	16.73
537.401	16.86
537.599	16.85
537.797	16.97
537.994	17.03
538.192	17.15
538.39	17.2
538.587	17.26
538.785	17.31
538.983	17.42
539.18	17.53
539.378	17.69
539.575	17.83
539.773	18.06
539.97	18.22
540.168	18.32
540.366	18.39
540.563	18.56
540.761	18.68
540.958	18.8
541.155	18.92
541.353	19.03
541.55	19.09
541.748	19.14
541.945	19.15
542.143	19.18
542.34	19.3
542.537	19.4
542.735	19.47
542.932	19.55
543.129	19.57
543.327	19.67
543.524	19.74
543.721	19.85
543.919	20.02
544.116	20.22
544.313	20.34
544.51	20.42
544.708	20.61
544.905	20.76
545.102	20.92
545.299	21.03
545.496	21.04
545.693	21.15
545.891	21.21
546.088	21.21
546.285	21.15
546.482	21.22
546.679	21.21
546.876	21.17
547.073	21.15
547.27	21.16
547.467	21.14
547.664	21.11
547.861	21.04
548.058	21
548.255	21.09
548.452	21.19
548.649	21.22
548.846	21.19
549.043	21.17
549.24	21.19
549.437	21.08
549.633	21.22
549.83	21.3
550.027	21.35
550.224	21.43
550.421	21.31
550.618	21.3
550.814	21.33
551.011	21.4
551.208	21.33
551.405	21.31
551.601	21.43
551.798	21.39
551.995	21.47
552.191	21.51
552.388	21.53
552.585	21.62
552.781	21.65
552.978	21.59
553.175	21.59
553.371	21.67
553.568	21.73
553.764	21.67
553.961	21.8
554.157	21.81
554.354	21.84
554.55	21.88
554.747	21.89
554.943	21.93
555.14	21.97
555.336	22.01
555.533	22.06
555.729	22.08
555.926	22.18
556.122	22.08
556.318	22.1
556.515	22.03
556.711	22.1
556.907	22.11
557.104	22.1
557.3	22.07
557.496	22.15
557.693	22.22
557.889	22.28
558.085	22.29
558.281	22.35
558.478	22.37
558.674	22.58
558.87	22.66
559.066	22.72
559.262	22.71
559.459	22.73
559.655	22.74
559.851	22.7
560.047	22.67
560.243	22.69
560.439	22.68
560.635	22.71
560.831	22.61
561.027	22.55
561.223	22.48
561.419	22.58
561.615	22.75
561.811	22.77
562.007	22.77
562.203	22.9
562.399	22.87
562.595	22.99
562.791	23.03
562.987	23
563.183	23.05
563.379	23.19
563.575	23.14
563.771	23.21
563.966	23.22
564.162	23.35
564.358	23.34
564.554	23.44
564.75	23.41
564.945	23.5
565.141	23.58
565.337	23.62
565.533	23.6
565.728	23.63
565.924	23.52
566.12	23.6
566.315	23.59
566.511	23.62
566.707	23.63
566.902	23.63
567.098	23.6
567.293	23.66
567.489	23.69
567.684	23.71
567.88	23.81
568.076	23.84
568.271	23.86
568.467	23.89
568.662	23.86
568.858	23.92
569.053	23.94
569.248	23.97
569.444	23.97
569.639	23.97
569.835	24.03
570.03	23.97
570.225	23.99
570.421	23.89
570.616	23.93
570.812	23.97
571.007	24.03
571.202	24.13
571.397	24.16
571.593	24.1
571.788	24.1
571.983	24.17
572.178	24.26
572.374	24.35
572.569	24.41
572.764	24.4
572.959	24.41
573.154	24.4
573.35	24.39
573.545	24.35
573.74	24.47
573.935	24.55
574.13	24.53
574.325	24.66
574.52	24.71
574.715	24.72
574.91	24.75
575.105	24.78
575.3	24.83
575.495	24.92
575.69	25.01
575.885	25.08
576.08	25.14
576.275	25.15
576.47	24.98
576.665	24.98
576.86	25.09
577.055	25.19
577.25	25.23
577.444	25.32
577.639	25.33
577.834	25.41
578.029	25.47
578.224	25.55
578.418	25.56
578.613	25.76
578.808	25.8
579.003	25.92
579.197	25.96
579.392	26.01
579.587	25.96
579.781	26.03
579.976	25.97
580.171	25.92
580.365	25.94
580.56	26.04
580.755	25.99
580.949	25.89
581.144	25.93
581.338	25.85
581.533	25.86
581.727	25.86
581.922	25.86
582.116	25.97
582.311	26.06
582.505	26.03
582.7	26.06
582.894	26.05
583.089	26.11
583.283	26.05
583.478	26.22
583.672	26.19
583.866	26.13
584.061	26.14
584.255	26.03
584.449	25.94
584.644	25.82
584.838	25.72
585.032	25.87
585.226	25.89
585.421	25.95
585.615	25.91
585.809	26
586.003	26.07
586.198	26.03
586.392	26.08
586.586	26.22
586.78	26.3
586.974	26.42
587.168	26.33
587.363	26.32
587.557	26.29
587.751	26.37
587.945	26.3
588.139	26.39
588.333	26.49
588.527	26.54
588.721	26.48
588.915	26.46
589.109	26.39
589.303	26.46
589.497	26.56
589.691	26.37
589.885	26.43
590.079	26.41
590.273	26.41
590.466	26.39
590.66	26.37
590.854	26.33
591.048	26.37
591.242	26.47
591.436	26.5
591.629	26.58
591.823	26.82
592.017	26.69
592.211	26.79
592.404	26.8
592.598	26.92
592.792	26.87
592.986	26.9
593.179	27.06
593.373	27.11
593.567	27.01
593.76	26.9
593.954	26.96
594.147	27
594.341	26.96
594.535	27.07
594.728	26.91
594.922	26.98
595.115	27.04
595.309	26.94
595.502	26.96
595.696	27
595.889	27.06
596.083	27.12
596.276	27.08
596.47	27.14
596.663	27.08
596.856	27.11
597.05	27.16
597.243	27.17
597.437	27.15
597.63	27.15
597.823	27.16
598.017	27.13
598.21	26.93
598.403	26.96
598.596	26.97
598.79	26.99
598.983	27
599.176	27.04
599.369	26.97
599.563	26.96
599.756	26.72
599.949	26.58
600.142	26.53
600.335	26.56
600.528	26.58
600.722	26.55
600.915	26.52
601.108	26.53
601.301	26.52
601.494	26.53
601.687	26.51
601.88	26.77
602.073	26.8
602.266	26.84
602.459	26.96
602.652	26.97
602.845	27.07
603.038	27.11
603.231	27.11
603.424	27.11
603.617	27.12
603.809	27.17
604.002	27.12
604.195	27.31
604.388	27.27
604.581	27.23
604.774	27.2
604.966	27.1
605.159	27.01
605.352	27.15
605.545	27.12
605.737	27.11
605.93	27.06
606.123	27.09
606.316	27.03
606.508	27.2
606.701	27.33
606.894	27.39
607.086	27.46
607.279	27.56
607.471	27.57
607.664	27.79
607.857	27.93
608.049	28.13
608.242	28.32
608.434	28.57
608.627	28.84
608.819	29.14
609.012	29.68
609.204	30.21
609.397	30.83
609.589	31.5
609.782	32.14
609.974	32.9
610.166	33.56
610.359	34.11
610.551	34.69
610.743	35.16
610.936	35.64
611.128	35.99
611.32	36.33
611.513	36.3
611.705	36.19
611.897	35.93
612.09	35.63
612.282	35.45
612.474	35.37
612.666	35.07
612.858	34.82
613.051	34.47
613.243	34.09
613.435	33.58
613.627	33.49
613.819	33.15
614.011	33.01
614.203	32.83
614.395	32.56
614.588	31.94
614.78	31.62
614.972	31.23
615.164	30.96
615.356	30.63
615.548	30.47
615.74	30.12
615.932	30.07
616.124	29.78
616.315	29.62
616.507	29.44
616.699	29.49
616.891	29.43
617.083	29.36
617.275	29.07
617.467	28.92
617.659	28.81
617.85	28.76
618.042	28.58
618.234	28.52
618.426	28.47
618.618	28.37
618.809	28.3
619.001	28.16
619.193	28.31
619.384	28.41
619.576	28.59
619.768	28.61
619.959	28.69
620.151	28.49
620.343	28.61
620.534	28.64
620.726	28.69
620.917	28.57
621.109	28.62
621.301	28.54
621.492	28.68
621.684	28.61
621.875	28.62
622.067	28.57
622.258	28.88
622.45	28.86
622.641	28.94
622.832	28.94
623.024	29.02
623.215	29.16
623.407	29.14
623.598	29.18
623.789	29.23
623.981	29.26
624.172	29.17
624.363	29.11
624.555	29.11
624.746	28.88
624.937	28.94
625.129	29.11
625.32	29.12
625.511	29.1
625.702	28.89
625.893	28.81
626.085	28.84
626.276	28.96
626.467	29.1
626.658	29
626.849	29.02
627.04	28.95
627.231	28.96
627.422	29.01
627.614	29.04
627.805	29.14
627.996	29.14
628.187	29.26
628.378	29.42
628.569	29.38
628.76	29.58
628.951	29.66
629.142	29.92
629.332	29.94
629.523	29.84
629.714	30.07
629.905	30.15
630.096	30.23
630.287	30.19
630.478	30.09
630.669	30
630.859	30.01
631.05	29.99
631.241	29.86
631.432	29.73
631.623	29.79
631.813	29.51
632.004	29.36
632.195	29.4
632.385	29.33
632.576	29.32
632.767	29.17
632.957	28.95
633.148	28.85
633.339	28.59
633.529	28.66
633.72	28.43
633.91	28.36
634.101	28.3
634.292	28.13
634.482	28.09
634.673	27.98
634.863	28.04
635.054	28.11
635.244	28.12
635.435	28.07
635.625	27.92
635.815	28.07
636.006	28.01
636.196	28.08
636.387	28.22
636.577	28.2
636.767	28.09
636.958	28.19
637.148	28.11
637.338	28.11
637.529	28.21
637.719	28.26
637.909	28.19
638.099	28.11
638.29	28.14
638.48	28.15
638.67	28.02
638.86	28.13
639.05	28.24
639.241	28.43
639.431	28.53
639.621	28.6
639.811	28.71
640.001	28.8
640.191	29.02
640.381	28.96
640.571	28.91
640.761	29.06
640.951	29.07
641.141	28.82
641.331	28.74
641.521	28.57
641.711	28.49
641.901	28.33
642.091	28.2
642.281	28.24
642.471	28.42
642.661	28.38
642.851	28.4
643.041	28.29
643.231	28.15
643.42	28.05
643.61	28.41
643.8	28.59
643.99	28.88
644.18	28.84
644.369	28.81
644.559	28.77
644.749	29.03
644.939	28.96
645.128	28.96
645.318	29.31
645.508	29.53
645.697	29.4
645.887	29.39
646.076	29.27
646.266	29.39
646.456	29.62
646.645	29.59
646.835	29.4
647.024	29.24
647.214	29.51
647.403	29.22
647.593	29.07
647.782	29.02
647.972	28.95
648.161	28.94
648.351	29.06
648.54	28.99
648.73	28.91
648.919	28.86
649.108	29.33
649.298	29.1
649.487	29.07
649.677	29.14
649.866	28.93
650.055	29.09
650.244	28.89
650.434	28.78
650.623	28.61
650.812	28.73
651.002	28.79
651.191	28.54
651.38	28.67
651.569	29
651.758	28.9
651.947	29.08
652.137	29
652.326	29.02
652.515	29
652.704	29.07
652.893	28.98
653.082	29.06
653.271	28.99
653.46	28.8
653.649	28.61
653.838	28.71
654.027	28.76
654.216	28.58
654.405	28.89
654.594	28.73
654.783	28.68
654.972	28.71
655.161	28.5
655.35	28.55
655.539	28.6
655.728	28.55
655.916	28.27
656.105	28.15
656.294	28.33
656.483	28.08
656.672	28.21
656.86	28.29
657.049	28.35
657.238	28.5
657.427	28.35
657.615	28.42
657.804	28.75
657.993	29
658.181	29.13
658.37	29.21
658.559	29.22
658.747	29.2
658.936	29.13
659.125	28.89
659.313	28.7
659.502	28.74
659.69	28.82
659.879	28.6
660.067	28.61
660.256	28.57
660.444	28.48
660.633	28.65
660.821	28.75
661.01	28.91
661.198	29.21
661.387	29.6
661.575	29.76
661.763	29.54
661.952	29.74
662.14	29.63
662.328	29.65
662.517	29.54
662.705	29.32
662.893	29.2
663.082	29.11
663.27	29.05
663.458	28.95
663.646	29.02
663.834	29.03
664.023	28.89
664.211	28.92
664.399	29.02
664.587	29.35
664.775	29.55
664.963	29.54
665.152	29.63
665.34	29.65
665.528	29.45
665.716	29.47
665.904	29.79
666.092	29.85
666.28	29.79
666.468	29.68
666.656	29.58
666.844	29.69
667.032	29.86
667.22	29.96
667.408	29.7
667.596	29.64
667.784	29.41
667.971	29.55
668.159	29.64
668.347	29.82
668.535	30.04
668.723	29.8
668.911	29.67
669.098	29.65
669.286	29.73
669.474	30.01
669.662	30.17
669.849	30.25
670.037	29.81
670.225	29.45
670.413	29.18
670.6	28.96
670.788	29.26
670.976	29.22
671.163	29.34
671.351	29.13
671.538	29.25
671.726	29.48
671.913	29.59
672.101	29.67
672.289	29.9
672.476	29.97
672.664	30.19
672.851	29.98
673.039	30.16
673.226	29.81
673.413	29.77
673.601	29.53
673.788	29.32
673.976	28.96
674.163	29.04
674.35	28.81
674.538	29.1
674.725	28.7
674.912	28.88
675.1	28.72
675.287	28.78
675.474	28.74
675.662	28.97
675.849	28.56
676.036	28.89
676.223	28.95
676.411	29.19
676.598	28.93
676.785	29.19
676.972	29.24
677.159	29.25
677.346	29.28
677.533	29.42
677.721	29.2
677.908	29.54
678.095	29.32
678.282	29.42
678.469	29.52
678.656	29.54
678.843	29.49
679.03	29.53
679.217	29.56
679.404	29.62
679.591	29.6
679.778	29.71
679.964	29.76
680.151	29.94
680.338	29.59
680.525	29.53
680.712	29.66
680.899	29.8
681.086	29.61
681.272	29.56
681.459	29.55
681.646	29.31
681.833	29.35
682.02	29.35
682.206	29.21
682.393	29.4
682.58	29.38
682.766	29.28
682.953	29.29
683.14	29.29
683.326	29.41
683.513	29.54
683.7	29.67
683.886	29.44
684.073	29.52
684.259	29.68
684.446	30.01
684.632	29.66
684.819	29.9
685.005	29.77
685.192	29.99
685.378	29.89
685.565	29.78
685.751	29.89
685.938	30.02
686.124	29.69
686.31	29.7
686.497	29.4
686.683	29.83
686.87	29.88
687.056	29.85
687.242	29.67
687.429	29.58
687.615	29.64
687.801	29.68
687.987	29.84
688.174	30.06
688.36	30.17
688.546	30.43
688.732	30.29
688.918	29.83
689.105	29.84
689.291	30
689.477	30.47
689.663	30.46
689.849	30.48
690.035	30.24
690.221	30.24
690.407	30.3
690.593	30
690.779	30.09
690.965	30.62
691.151	30.66
691.337	30.47
691.523	30.07
691.709	29.96
691.895	29.92
692.081	30.08
692.267	30.38
692.453	30.07
692.639	30.16
692.825	29.99
693.011	29.63
693.196	29.68
693.382	29.74
693.568	30
693.754	30.1
693.94	30.17
694.125	30.34
694.311	29.99
694.497	30.21
694.682	30.31
694.868	30.53
695.054	30.6
695.239	30.59
695.425	30.83
695.611	30.87
695.796	30.66
695.982	30.37
696.168	30.11
696.353	30.18
696.539	30.13
696.724	29.98
696.91	29.88
697.095	29.79
697.281	29.76
697.466	29.35
697.652	29.06
697.837	29.29
698.023	29.41
698.208	29.45
698.393	29.41
698.579	29.53
698.764	29.67
698.949	29.85
699.135	29.83
699.32	29.88
699.505	30.05
699.691	30.11
699.876	29.99
700.061	30
700.246	29.97
700.432	30.02
700.617	29.72
700.802	29.69
700.987	29.44
701.172	29.51
701.358	29.31
701.543	29.4
701.728	29.41
701.913	29.52
702.098	29.49
702.283	29.59
702.468	29.69
702.653	29.79
702.838	29.7
703.023	29.87
703.208	30.02
703.393	30.19
703.578	29.96
703.763	30.36
703.948	30.44
704.133	30.54
704.318	30.59
704.503	30.49
704.688	30.99
704.873	31.17
705.057	31.35
705.242	31.53
705.427	32.02
705.612	32.09
705.797	31.87
705.981	32
706.166	32.3
706.351	32.54
706.536	32.71
706.72	32.55
706.905	32.66
707.09	32.84
707.274	32.87
707.459	32.55
707.644	32.56
707.828	32.52
708.013	32.48
708.197	32.24
708.382	32.51
708.567	32.54
708.751	32.5
708.936	32.43
709.12	32.16
709.305	31.82
709.489	31.64
709.673	31.91
709.858	31.69
710.042	31.64
710.227	31.56
710.411	31.38
710.596	31.39
710.78	31.52
710.964	31.65
711.149	31.81
711.333	32.24
711.517	32.25
711.702	32.58
711.886	33.1
712.07	33
712.254	33.05
712.438	32.82
712.623	32.86
712.807	32.72
712.991	32.37
713.175	31.95
713.359	31.54
713.544	31.28
713.728	30.87
713.912	30.53
714.096	30.46
714.28	30.33
714.464	30.08
714.648	29.48
714.832	29.11
715.016	29.02
715.2	29.12
715.384	29.23
715.568	29.26
715.752	29.28
715.936	29.24
716.12	29.26
716.304	29.29
716.488	29.57
716.671	29.88
716.855	30.18
717.039	30.56
717.223	30.37
717.407	30.15
717.59	30.59
717.774	30.24
717.958	30.17
718.142	30.27
718.325	30.09
718.509	29.79
718.693	29.89
718.877	29.53
719.06	29.18
719.244	29.64
719.428	29.91
719.611	29.2
719.795	29.32
719.978	29.26
720.162	29.37
720.345	29.6
720.529	29.83
720.713	29.56
720.896	29.85
721.08	29.57
721.263	29.07
721.446	29.13
721.63	29.52
721.813	29.57
721.997	29.74
722.18	29.99
722.364	29.95
722.547	30.11
722.73	30.36
722.914	30.23
723.097	30.47
723.28	30.73
723.464	30.73
723.647	30.11
723.83	30.34
724.013	30.39
724.197	29.66
724.38	29.75
724.563	29.44
724.746	29.55
724.929	29.64
725.112	29.5
725.296	29.24
725.479	28.56
725.662	29.06
725.845	28.94
726.028	28.92
726.211	29.29
726.394	29.18
726.577	29.08
726.76	29.02
726.943	29.31
727.126	29.69
727.309	29.48
727.492	29.59
727.675	29.58
727.858	29.45
728.041	29.07
728.224	29.01
728.407	29.11
728.589	29.57
728.772	29.85
728.955	29.88
729.138	29.81
729.321	30.29
729.503	30.52
729.686	30.77
729.869	31.04
730.052	31.6
730.234	31.32
730.417	31.46
730.6	31.19
730.782	30.85
730.965	30.05
731.148	29.99
731.33	29.68
731.513	29.69
731.695	29.53
731.878	29.36
732.061	29.12
732.243	29.66
732.426	29.7
732.608	29.7
732.791	29.79
732.973	30.58
733.156	30.13
733.338	30.42
733.52	30.4
733.703	30.62
733.885	30.47
734.068	30.21
734.25	29.68
734.432	29.42
734.615	29.55
734.797	29.44
734.979	29.32
735.162	29.84
735.344	30.15
735.526	29.98
735.708	30.04
735.891	30.45
736.073	30.39
736.255	30.63
736.437	30.71
736.619	30.29
736.802	30.12
736.984	30.1
737.166	30.33
737.348	30
737.53	30.32
737.712	29.81
737.894	29.49
738.076	29.71
738.258	29.8
738.44	29.69
738.622	29.88
738.804	29.89
738.986	29.9
739.168	29.78
739.35	29.95
739.532	30
739.714	30.03
739.896	29.44
740.078	29.94
740.259	29.78
740.441	29.73
740.623	29.99
740.805	29.64
740.987	29.2
741.168	29.46
741.35	29.22
741.532	29.12
741.714	29.55
741.895	30.04
742.077	29.64
742.259	29.89
742.44	30.32
742.622	30.17
742.804	30.45
742.985	30.06
743.167	29.58
743.348	29.65
743.53	29.77
743.711	29.27
743.893	29.63
744.075	29.84
744.256	29.82
744.438	29.55
744.619	29.34
744.8	29.01
744.982	29.52
745.163	29.44
745.345	29.63
745.526	29.27
745.707	29.14
745.889	29.3
746.07	29.34
746.252	29.06
746.433	29.45
746.614	29.81
746.795	30.72
746.977	30.51
747.158	30.34
747.339	29.99
747.52	30.06
747.702	30.62
747.883	30.52
748.064	29.77
748.245	29.53
748.426	28.7
748.607	28.23
748.788	27.68
748.97	27.88
749.151	28.35
749.332	28.27
749.513	28.62
749.694	28.54
749.875	28.46
750.056	28.26
750.237	28.29
750.418	28.71
750.599	28.67
750.78	28.49
750.96	28.27
751.141	27.84
751.322	28.08
751.503	28.31
751.684	28.22
751.865	28.18
752.046	29.12
752.226	29.12
752.407	29.43
752.588	29.02
752.769	30.07
752.949	30.71
753.13	31.1
753.311	30.92
753.492	30.95
753.672	30.53
753.853	30.23
754.034	29.96
754.214	30.51
754.395	29.65
754.575	30.46
754.756	30.15
754.937	29.36
755.117	29.77
755.298	29.1
755.478	28.96
755.659	29.33
755.839	29.97
756.02	30.27
756.2	30.09
756.381	30.6
756.561	30.56
756.741	30.04
756.922	30.45
757.102	29.75
757.283	29.92
757.463	30.24
757.643	29.88
757.823	29.85
758.004	29.69
758.184	29.41
758.364	28.99
758.545	28.94
758.725	29.23
758.905	29.32
759.085	29.7
759.265	30.13
759.446	29.56
759.626	30.02
759.806	29.73
759.986	29.73
760.166	29.66
760.346	29.86
760.526	29.54
760.706	29.78
760.886	29.35
761.066	29.12
761.246	29.27
761.426	28.86
761.606	28.92
761.786	28.89
761.966	28.97
762.146	29.35
762.326	29.28
762.506	29.35
762.686	29.25
762.866	29.49
763.046	29.56
763.225	29.65
763.405	30.07
763.585	29.73
763.765	29.87
763.945	29.73
764.124	29.68
764.304	29.91
764.484	29.73
764.664	29.63
764.843	29.84
765.023	30.19
765.203	29.98
765.382	29.68
765.562	29.27
765.741	28.92
765.921	29.42
766.101	29.18
766.28	28.68
766.46	29.19
766.639	29.27
766.819	28.97
766.998	28.66
767.178	28.66
767.357	28.59
767.537	29.41
767.716	29.35
767.896	28.81
768.075	28.92
768.254	30.18
768.434	30.76
768.613	30.67
768.792	30.67
768.972	30.66
769.151	30.91
769.33	30.99
769.51	30.65
769.689	31.03
769.868	31.07
770.047	31.05
770.226	29.88
770.406	29.4
770.585	28.78
770.764	29.05
770.943	28.46
771.122	27.99
771.301	28.28
771.48	28.91
771.66	29.21
771.839	28.81
772.018	28.55
772.197	28.79
772.376	28.66
772.555	30.2
772.734	30.1
772.913	29.43
773.092	29.03
773.271	28.32
773.449	27.25
773.628	26.79
773.807	27.08
773.986	28.03
774.165	27.84
774.344	27.59
774.523	26.59
774.701	26.42
774.88	27.27
775.059	27.46
775.238	27.46
775.417	28.76
775.595	29.42
775.774	29.27
775.953	29
776.131	29.18
776.31	28.66
776.489	28.77
776.667	29.17
776.846	29.61
777.025	30.43
777.203	30.5
777.382	30.16
777.56	29.06
777.739	29.17
777.917	28.67
778.096	29.26
778.274	30.14
778.453	30.32
778.631	30.09
778.81	30.12
778.988	30.31
779.166	30.52
779.345	30.56
779.523	31
779.702	30.86
779.88	31.63
780.058	30.69
780.237	30.47
780.415	30.72
780.593	31.13
780.771	31.04
780.95	30.84
781.128	31.13
781.306	31.48
781.484	31.26
781.662	31.77
781.841	31.06
782.019	32.25
782.197	32.43
782.375	30.99
782.553	29.7
782.731	29.28
782.909	28.54
783.087	28.76
783.265	28.35
783.443	28.47
783.621	28.01
783.799	28.86
783.977	27.87
784.155	26.84
784.333	27.17
784.511	28.32
784.689	29.21
784.867	29.39
785.045	29.22
785.223	28.91
785.4	29.77
785.578	29.9
785.756	29.1
785.934	29.57
786.112	30.43
786.289	29.93
786.467	29.39
786.645	28.05
786.823	28.87
787	28.77
787.178	29.42
787.356	28.43
787.533	27.74
787.711	27.75
787.889	27.29
788.066	26.84
788.244	27.42
788.421	28.19
788.599	29.12
788.776	28.22
788.954	28.56
789.131	28.11
789.309	28.79
789.486	29.23
789.664	28.93
789.841	29.27
790.019	29.68
790.196	29.41
790.373	29.28
790.551	28.72
790.728	29.14
790.906	27.83
791.083	27.53
791.26	27.16
791.437	27.42
791.615	27.69
791.792	28.54
791.969	28.53
792.146	29.76
792.324	28.84
792.501	30.04
792.678	30.43
792.855	31.29
793.032	31.56
793.209	30.42
793.387	30.11
793.564	30.58
793.741	29.57
793.918	29.72
794.095	29.32
794.272	29.29
794.449	27.66
794.626	27.35
794.803	28.42
794.98	27.93
795.157	29.1
795.334	28.83
795.511	28.3
795.688	28.12
795.864	28.46
796.041	28.11
796.218	28.59
796.395	29.55
796.572	29.11
796.749	29.14
796.925	29.04
797.102	28.34
797.279	29.12
797.456	29.25
797.632	30.02
797.809	29.37
797.986	30.12
798.162	30.24
798.339	30.35
798.516	30.33
798.692	29.56
798.869	29.88
799.046	30.59
799.222	29.83
799.399	29.94
799.575	29.49
799.752	29.1
799.928	29.26
800.105	28.87
800.281	27.69
800.458	27.66
800.634	28.47
800.811	28.37
800.987	27.62
801.163	27.41
801.34	27.81
801.516	27.65
801.692	28.17
801.869	27.09
802.045	27.17
802.221	27.69
802.398	27.55
802.574	26.44
802.75	27.81
802.926	28.3
803.103	29.38
803.279	28.04
803.455	27.01
803.631	25.78
803.807	25.89
803.983	25.82
804.16	25.5
804.336	25.6
804.512	25.27
804.688	23.78
804.864	22.36
805.04	21.6
805.216	22.74
805.392	23.08
805.568	24.21
805.744	24.06
805.92	23.74
806.096	24.37
806.272	24.88
806.448	24.89
806.623	25.7
806.799	27.38
806.975	28.6
807.151	27.11
807.327	26.66
807.503	26.15
807.678	26.14
807.854	26.3
808.03	26.65
808.206	26.85
808.381	26.93
808.557	25.14
808.733	24.7
808.908	23.81
809.084	24.25
809.26	24.95
809.435	24.15
809.611	26.36
809.787	27.03
809.962	26.77
810.138	27.24
810.313	28.09
810.489	28.73
810.664	30.26
810.84	30.2
811.015	32.08
811.191	32.94
811.366	34.41
811.542	31.39
811.717	31.16
811.892	29.69
812.068	28.12
812.243	27.25
812.419	29.01
812.594	27.4
812.769	27.07
812.944	26.1
813.12	25.32
813.295	23.55
813.47	24.59
813.645	24.45
813.821	24.53
813.996	24.3
814.171	26.68
814.346	25.81
814.521	26.86
814.697	26.62
814.872	25.2
815.047	26.91
815.222	28.97
815.397	27.45
815.572	27.27
815.747	27.48
815.922	29.18
816.097	28.89
816.272	29.92
816.447	28.6
816.622	28.46
816.797	29.85
816.972	27.25
817.147	27.29
817.322	28.82
817.496	29.35
817.671	30.91
817.846	30.73
818.021	28.51
818.196	27.98
818.371	28.05
818.545	27.55
818.72	27
818.895	28.15
819.069	27.56
819.244	27.85
819.419	27.97
819.594	27.56
819.768	27.59
819.943	28.34
820.117	27.39
820.292	28.23
820.467	28.8
820.641	28.86
820.816	28.9
820.99	28.65
821.165	28.87
821.339	28.77
821.514	28.94
821.688	28.94
821.863	29.15
822.037	29.55
822.212	29.36
822.386	29.43
822.56	29.41
822.735	29.61
822.909	29.73
823.084	29.66
823.258	29.65
823.432	29.33
823.606	29.13
823.781	28.97
823.955	28.86
824.129	28.95
824.303	28.74
824.478	28.66
824.652	28.33
824.826	28.58
825	28.26
825.174	27.98
825.348	28.38
825.523	28.5
825.697	28.5
825.871	28.51
826.045	28.75
826.219	29.13
826.393	29.24
826.567	28.91
826.741	28.36
826.915	28.55
827.089	28.85
827.263	29.11
827.437	29.28
827.611	29.38
827.784	29.42
827.958	29.24
828.132	28.69
828.306	28.68
828.48	29.28
828.654	29.72
828.827	29.61
829.001	29.45
829.175	29.5
829.349	28.6
829.522	27.96
829.696	27.87
829.87	27.16
830.044	28.18
830.217	27.89
830.391	28.1
830.565	28.03
830.738	27.61
830.912	27.57
831.085	27.3
831.259	30.07
831.432	31.38
831.606	30.78
831.779	30.94
831.953	30.83
832.126	31.38
832.3	30.55
832.473	29.04
832.647	29.57
832.82	28.95
832.994	28.05
833.167	27.29
833.34	27.31
833.514	27.97
833.687	27.7
833.86	26.69
834.034	26.65
834.207	26.9
834.38	27.75
834.553	27.75
834.727	28.13
834.9	29.08
835.073	28.71
835.246	28.39
835.419	28.86
835.593	29.41
835.766	29.88
835.939	30.07
836.112	29.85
836.285	29.32
836.458	28.82
836.631	28.73
836.804	28.6
836.977	28.76
837.15	28.59
837.323	27.25
837.496	27.49
837.669	28.76
837.842	28.3
838.015	27.58
838.188	26.98
838.361	29.05
838.533	28.21
838.706	28.13
838.879	27.02
839.052	27.66
839.225	27.64
839.398	27.66
839.57	27.04
839.743	27.42
839.916	27.55
840.088	28.7
840.261	26.81
840.434	28.29
840.607	27.9
840.779	29.22
840.952	28.18
841.124	27.76
841.297	27.69
841.47	26.89
841.642	25.96
841.815	26.31
841.987	27.15
842.16	27.06
842.332	26.76
842.505	27.39
842.677	27.77
842.85	26.08
843.022	25.43
843.194	24.05
843.367	23.49
843.539	22.95
843.712	23.69
843.884	24.31
844.056	24.03
844.229	23.53
844.401	20.62
844.573	19
844.745	21.35
844.918	20.49
845.09	20.79
845.262	21.27
845.434	20.53
845.606	20.21
845.779	19.27
845.951	23.44
846.123	23.39
846.295	24.25
846.467	27.56
846.639	29.71
846.811	29.5
846.983	30.57
847.155	34.96
847.327	38.57
847.499	38.31
847.671	39.28
847.843	34.09
848.015	36.38
848.187	34.25
848.359	32.34
848.531	30.7
848.703	31.15
848.875	29.66
849.047	28.32
849.218	28.25
849.39	24.55
849.562	19.51
849.734	25.75
849.905	25.14
850.077	26.62
850.249	28.86
850.421	30.83
850.592	33.14
850.764	33.38
850.936	27.79
851.107	24.71
851.279	24.92
851.451	29.04
851.622	23.06
851.794	21.69
851.965	19.39
852.137	20.31
852.308	15.76
852.48	15.27
852.651	16.87
852.823	19.85
852.994	20.9
853.166	21.62
853.337	21.75
853.509	22.64
853.68	23.35
853.851	25.4
854.023	23
854.194	25.21
854.365	25.47
854.537	27.61
854.708	29.06
854.879	31.01
855.05	33.54
855.222	32.09
855.393	33.9
855.564	30.62
855.735	31.01
855.906	31.43
856.078	31.03
856.249	30.37
856.42	27.51
856.591	27.84
856.762	26.82
856.933	26.39
857.104	25.5
857.275	26.52
857.446	28.11
857.617	27.17
857.788	26.83
857.959	26.55
858.13	26.93
858.301	25.92
858.472	25.41
858.643	25.25
858.814	24.24
858.985	24.15
859.155	15.82
859.326	12.92
859.497	14.34
859.668	14.8
859.839	12.53
860.009	11.99
860.18	16.84
860.351	17.82
860.522	19.19
860.692	23.07
860.863	23.18
861.034	30.92
861.204	29.79
861.375	28.7
861.546	27.31
861.716	27.92
861.887	29.01
862.057	21.23
862.228	18.34
862.398	13.53
862.569	9.79
862.739	10.6
862.91	9.47
863.08	12.14
863.251	18.53
863.421	20.08
863.592	21.79
863.762	19.5
863.932	23.19
864.103	22.87
864.273	27.14
864.443	25.74
864.614	24.72
864.784	25.19
864.954	28.16
865.125	23.45
865.295	18.3
865.465	20.62
865.635	20.82
865.805	23.14
865.976	23.46
866.146	24.31
866.316	27.96
866.486	27.47
866.656	30.44
866.826	29.94
866.996	31.67
867.166	36.68
867.336	36.3
867.506	39.97
867.676	37.61
867.846	40.52
868.016	40.05
868.186	41.05
868.356	42.42
868.526	34.22
868.696	31.92
868.866	30.76
869.036	27.64
869.206	26.74
869.376	24.85
869.545	27.01
869.715	28.2
869.885	27.88
870.055	23.74
870.224	22.93
870.394	27.49
870.564	26.22
870.734	24.45
870.903	23.87
871.073	22.66
871.243	24.57
871.412	22.55
871.582	21.45
871.751	18.13
871.921	24.8
872.091	23.47
872.26	24.81
872.43	27.39
872.599	34.16
872.769	37.04
872.938	37.6
873.108	33.72
873.277	34.07
873.446	33.61
873.616	32.4
873.785	29.83
873.955	33.28
874.124	29.13
874.293	28.79
874.463	19.78
874.632	14.69
874.801	18.11
874.971	25.75
875.14	25.24
875.309	23.28
875.478	25.21
875.647	22.55
875.817	20.15
875.986	21.4
876.155	22.06
876.324	24.19
876.493	27.46
876.662	25.2
876.831	22.23
877	21.1
877.17	20.94
877.339	16.76
877.508	18.67
877.677	22.37
877.846	23.1
878.015	23.86
878.184	25.16
878.352	25.96
878.521	24.84
878.69	23.08
878.859	26.35
879.028	28.32
879.197	29.54
879.366	27.44
879.534	27.25
879.703	26.2
879.872	25.75
880.041	24.25
880.21	24.16
880.378	24.19
880.547	24.55
880.716	24.75
880.884	24.88
881.053	25.98
881.222	26.14
881.39	26.01
881.559	26.35
881.727	26.21
881.896	26.65
882.065	27.42
882.233	27.77
882.402	28.24
882.57	27.76
882.739	27.02
882.907	27.29
883.076	27.63
883.244	27.69
883.412	27.64
883.581	27.87
883.749	27.93
883.918	27.58
884.086	27.4
884.254	27.15
884.423	26.98
884.591	27.58
884.759	25.56
884.927	25.19
885.096	25.06
885.264	25.28
885.432	24.98
885.6	24.99
885.769	24.68
885.937	23.87
886.105	23.62
886.273	25.01
886.441	25.88
886.609	29.67
886.777	30.55
886.945	32.86
887.113	32.29
887.281	32.62
887.449	34.74
887.617	34.75
887.785	37.64
887.953	35.08
888.121	34.36
888.289	32.97
888.457	34.37
888.625	32.6
888.793	28.1
888.961	25.99
889.129	24.7
889.296	22.57
889.464	22.01
889.632	19.76
889.8	21.88
889.967	20.92
890.135	21.72
