Data from 2938788__Reflection_02.txt Node
Date: Fri Mar 13 11:42:47 EDT 2015
User: robert
Spectrometer: USB4E03002
Autoset integration time: false
Trigger mode: 4
Integration Time (sec): 1.000000E-1
Scans to average: 10
Electric dark correction enabled: false
Nonlinearity correction enabled: false
Boxcar width: 5
Stray light correction enabled: false
XAxis mode: Wavelengths
Stop averaging: false
Number of Pixels in Spectrum: 3648
>>>>>Begin Spectral Data<<<<<
177.575	-785
177.794	-8371.43
178.014	-1379.13
178.233	-956.04
178.452	-614.61
178.672	-457.08
178.891	-503.6
179.11	-514.02
179.33	-496.35
179.549	-577.25
179.768	-650
179.987	-1025.74
180.207	-650.57
180.426	-982.72
180.645	-1953.85
180.864	-7517.07
181.084	2282.09
181.303	3356.18
181.522	1718.08
181.741	4021.62
181.96	1715.34
182.179	752.07
182.398	641.28
182.618	534.48
182.837	584.14
183.056	412.86
183.275	407.29
183.494	448.15
183.713	424.76
183.932	410.11
184.151	376.66
184.37	434.18
184.589	538.8
184.808	632.98
185.027	613.39
185.246	651.54
185.465	2250.43
185.684	1134.32
185.903	1315.76
186.122	1420.11
186.341	4956.86
186.56	2312.07
186.779	3255.42
186.998	1597.13
187.216	-4090.63
187.435	-993.82
187.654	-1025.9
187.873	-1470.45
188.092	-3781.16
188.311	21630.77
188.53	-3444.44
188.748	8968.75
188.967	-1381.03
189.186	-1570.93
189.405	-780.12
189.623	-2763.73
189.842	6365.96
190.061	2236.92
190.28	3054.35
190.498	-1724.12
190.717	-1298.17
190.936	-1024.44
191.154	-649.28
191.373	-1859.73
191.592	-1509.3
191.81	-1196.67
192.029	-970.4
192.248	-929.32
192.466	-3616.9
192.685	-18657.14
192.904	-914.34
193.122	-4576.36
193.341	1109.6
193.559	657.78
193.778	739.43
193.996	584.69
194.215	659.58
194.433	630.17
194.652	545.15
194.87	1060.43
195.089	817.57
195.307	421.52
195.526	452.02
195.744	509.29
195.963	420.4
196.181	405.01
196.399	439.92
196.618	349.32
196.836	414.85
197.055	491.92
197.273	490.94
197.491	594.29
197.71	563.76
197.928	807.65
198.146	902.89
198.365	8437.5
198.583	-4830.19
198.801	-1971.21
199.019	-2160.16
199.238	-5494
199.456	1936.24
199.674	1062.07
199.892	817.6
200.111	1274.68
200.329	1183.54
200.547	990.11
200.765	703.71
200.983	628.31
201.202	619.72
201.42	787.98
201.638	822.56
201.856	1311.73
202.074	1578.98
202.292	-3741.94
202.51	15050
202.728	8458.62
202.946	-3137.66
203.165	-3041.25
203.383	5030.77
203.601	2097.04
203.819	5010.91
204.037	1006.12
204.255	1131.2
204.473	1314.29
204.691	757.25
204.909	670.26
205.127	693.35
205.345	765.85
205.562	944.52
205.78	1132.39
205.998	1113.19
206.216	637.62
206.434	1003.8
206.652	583.26
206.87	614.46
207.088	578.54
207.306	870.39
207.523	735.81
207.741	582.66
207.959	536.31
208.177	765.71
208.395	814.13
208.612	1155.38
208.83	800.81
209.048	938.8
209.266	1192.34
209.483	1056.84
209.701	1087.06
209.919	1624.24
210.136	1240.81
210.354	992.88
210.572	704.23
210.79	517.24
211.007	543.45
211.225	666.59
211.442	707.34
211.66	492.94
211.878	517.93
212.095	-1282.38
212.313	-3256.38
212.53	-1985.33
212.748	-1477.56
212.966	-2581.2
213.183	-1777.71
213.401	-2638.39
213.618	5258.18
213.836	-16341.18
214.053	-8993.55
214.271	10742.31
214.488	265.09
214.705	268.97
214.923	233.51
215.14	254.12
215.358	289.93
215.575	324.44
215.793	313.5
216.01	486.35
216.227	451.05
216.445	462.84
216.662	527.2
216.879	704.48
217.097	618.6
217.314	560.67
217.531	366.76
217.749	304.05
217.966	262.1
218.183	226.83
218.4	216.01
218.618	222.6
218.835	209.65
219.052	213.37
219.269	190.26
219.487	188.65
219.704	198.03
219.921	190.47
220.138	195.33
220.355	195.78
220.572	187.83
220.79	166.14
221.007	162.83
221.224	169.49
221.441	164.89
221.658	162.46
221.875	161.11
222.092	153.84
222.309	149.81
222.526	145.05
222.743	144.98
222.96	145.29
223.177	143.92
223.394	131.83
223.611	125.16
223.828	117.53
224.045	111.66
224.262	109.55
224.479	105.55
224.696	109.71
224.913	101.03
225.13	93.07
225.347	85.41
225.564	81.15
225.781	78.86
225.997	70.69
226.214	62.29
226.431	56.32
226.648	49.92
226.865	45.69
227.082	40.5
227.298	36.12
227.515	30.63
227.732	28.14
227.949	24.23
228.165	21.92
228.382	21.59
228.599	21.74
228.816	21.72
229.032	20.53
229.249	19.52
229.466	18.35
229.682	18.85
229.899	19.64
230.116	19.33
230.332	20.36
230.549	21.71
230.765	22.63
230.982	22.8
231.199	23.3
231.415	24.73
231.632	27.22
231.848	29.03
232.065	31.02
232.281	31.88
232.498	33.7
232.714	34.96
232.931	34.17
233.147	35.14
233.364	35.65
233.58	35.1
233.797	35.23
234.013	35.14
234.23	34.69
234.446	33.65
234.662	32.59
234.879	31.37
235.095	30.17
235.312	29.6
235.528	29.45
235.744	29.13
235.961	29.24
236.177	29.91
236.393	29.69
236.61	29.39
236.826	27.55
237.042	30.09
237.258	31.05
237.475	31.76
237.691	33.8
237.907	32.66
238.123	32.23
238.339	32.46
238.556	33.15
238.772	31.62
238.988	31.05
239.204	32.38
239.42	29.74
239.636	28.41
239.853	26.76
240.069	24.56
240.285	23.08
240.501	21.67
240.717	20.34
240.933	17.88
241.149	16.7
241.365	15.45
241.581	14.94
241.797	14.52
242.013	13.67
242.229	13.43
242.445	13.21
242.661	13.39
242.877	13.3
243.093	13.13
243.309	13.29
243.525	13.51
243.741	13.69
243.957	13.63
244.173	14.24
244.388	14.81
244.604	15.58
244.82	15.67
245.036	14.92
245.252	14.44
245.468	14.39
245.683	14.04
245.899	13.46
246.115	13.19
246.331	12.48
246.547	11.76
246.762	11.28
246.978	10.39
247.194	10.01
247.409	9.87
247.625	9.82
247.841	9.29
248.057	9.47
248.272	9.43
248.488	9.33
248.703	9.23
248.919	9.65
249.135	9.83
249.35	10.97
249.566	11.87
249.782	12.23
249.997	12.77
250.213	13.83
250.428	13.97
250.644	15.08
250.859	15.12
251.075	15.75
251.29	15.93
251.506	15.35
251.721	15.18
251.937	14.85
252.152	15.07
252.368	15.57
252.583	15.35
252.798	15.35
253.014	15.34
253.229	15.98
253.445	16.13
253.66	15.74
253.875	17.06
254.091	17.93
254.306	18.15
254.521	19.47
254.737	19.59
254.952	19.69
255.167	19.34
255.383	19.02
255.598	18.72
255.813	18.24
256.028	18.2
256.244	17.23
256.459	16.35
256.674	15.48
256.889	14.12
257.104	13.85
257.32	13.81
257.535	13.37
257.75	12.68
257.965	12.31
258.18	11.81
258.395	11.26
258.61	11
258.826	10.14
259.041	9.99
259.256	9.65
259.471	8.95
259.686	8.61
259.901	8.28
260.116	8.03
260.331	7.66
260.546	7.84
260.761	7.81
260.976	7.73
261.191	7.66
261.406	7.67
261.621	7.95
261.836	8.03
262.05	8.46
262.265	9.07
262.48	9.55
262.695	10.2
262.91	10.96
263.125	11.29
263.34	11.68
263.555	12.91
263.769	13.47
263.984	13.59
264.199	14.18
264.414	13.94
264.629	13.83
264.843	14.42
265.058	14.13
265.273	12.96
265.488	12.78
265.702	12.77
265.917	12.07
266.132	11.47
266.346	11.08
266.561	11.16
266.776	11.24
266.99	11.42
267.205	10.91
267.42	10.98
267.634	10.52
267.849	10.5
268.063	10.5
268.278	10.14
268.492	10.22
268.707	10.15
268.922	9.8
269.136	9.89
269.351	9.06
269.565	8.88
269.78	8.81
269.994	9.14
270.209	9.06
270.423	8.66
270.637	8.64
270.852	8.61
271.066	8.71
271.281	8.75
271.495	8.56
271.709	8.97
271.924	9
272.138	9.28
272.353	9.14
272.567	9.26
272.781	9.67
272.996	9.58
273.21	9.72
273.424	9.51
273.638	9.37
273.853	9.51
274.067	9.55
274.281	9.72
274.495	9.42
274.71	10.05
274.924	10.2
275.138	10.06
275.352	10.26
275.566	10.45
275.781	10.7
275.995	11.29
276.209	11.32
276.423	11.09
276.637	11.19
276.851	11.41
277.065	11
277.279	10.6
277.493	10.34
277.707	10.76
277.921	10.37
278.135	9.96
278.349	9.67
278.563	9.73
278.777	9.86
278.991	9.87
279.205	9.9
279.419	9.79
279.633	10.03
279.847	10.08
280.061	9.74
280.275	9.45
280.489	9.96
280.703	9.77
280.917	9.35
281.131	9.42
281.344	9.2
281.558	8.75
281.772	9.15
281.986	9.08
282.2	9.2
282.414	9
282.627	8.99
282.841	9.04
283.055	9.34
283.269	9.62
283.482	9.41
283.696	9.24
283.91	9.4
284.123	8.5
284.337	8.06
284.551	7.68
284.764	7.74
284.978	7.52
285.192	6.99
285.405	7.14
285.619	6.8
285.833	6.84
286.046	6.7
286.26	6.5
286.473	7.04
286.687	7.15
286.9	7.44
287.114	7.47
287.327	7.74
287.541	8.12
287.754	7.56
287.968	7.8
288.181	7.99
288.395	8.28
288.608	8.47
288.822	8.55
289.035	8.73
289.248	8.42
289.462	8.24
289.675	8.23
289.889	8.41
290.102	8.32
290.315	8.15
290.529	7.9
290.742	7.82
290.955	7.94
291.169	7.85
291.382	7.79
291.595	8.01
291.808	8.5
292.022	8.76
292.235	8.74
292.448	8.93
292.661	9.21
292.875	9.37
293.088	9.72
293.301	9.49
293.514	9.38
293.727	9.44
293.94	9.29
294.153	8.77
294.367	8.59
294.58	8.46
294.793	8.57
295.006	8.44
295.219	8.13
295.432	8.03
295.645	8.08
295.858	8
296.071	7.71
296.284	7.77
296.497	7.84
296.71	7.96
296.923	7.95
297.136	7.98
297.349	7.87
297.562	8.09
297.775	7.82
297.988	7.93
298.201	8.02
298.414	8.25
298.626	8.22
298.839	8.19
299.052	8.2
299.265	8.46
299.478	8.51
299.691	9
299.903	9.25
300.116	9.7
300.329	9.76
300.542	9.79
300.755	9.84
300.967	10.07
301.18	10.51
301.393	10.69
301.605	10.55
301.818	10.67
302.031	10.7
302.243	10.43
302.456	10.39
302.669	10.57
302.881	10.86
303.094	11.27
303.307	10.96
303.519	10.78
303.732	11.04
303.944	11.06
304.157	11.31
304.37	10.98
304.582	11.21
304.795	11.29
305.007	11.21
305.22	11.33
305.432	11.12
305.645	11.21
305.857	11.45
306.069	11.19
306.282	11.1
306.494	10.9
306.707	11.11
306.919	11.04
307.132	10.95
307.344	10.79
307.556	10.76
307.769	11.13
307.981	11.21
308.193	10.91
308.406	10.82
308.618	10.92
308.83	11.13
309.043	11.12
309.255	11.04
309.467	11.15
309.679	11.15
309.892	11.07
310.104	10.69
310.316	10.77
310.528	10.62
310.74	10.77
310.953	10.76
311.165	10.77
311.377	10.92
311.589	11.07
311.801	11.02
312.013	11.12
312.225	11.12
312.437	11.32
312.649	11.71
312.862	12.21
313.074	12.14
313.286	12.23
313.498	12.23
313.71	12.12
313.922	12.1
314.134	12.49
314.346	12.67
314.558	12.96
314.77	13.49
314.982	13.55
315.193	13.66
315.405	13.9
315.617	14.14
315.829	14.33
316.041	14.99
316.253	15.32
316.465	15.43
316.677	15.8
316.888	15.7
317.1	15.48
317.312	15.76
317.524	16.3
317.736	16.56
317.947	16.74
318.159	16.92
318.371	16.84
318.583	16.68
318.794	17.11
319.006	17.25
319.218	17.59
319.43	17.99
319.641	17.93
319.853	17.59
320.064	18
320.276	17.89
320.488	18.19
320.699	17.97
320.911	18.52
321.123	18.59
321.334	18.29
321.546	18.38
321.757	18.34
321.969	18.78
322.18	19.14
322.392	18.83
322.603	19.26
322.815	19.09
323.026	19.3
323.238	19.23
323.449	18.6
323.661	18.81
323.872	18.86
324.083	18.84
324.295	18.49
324.506	18.03
324.718	17.82
324.929	17.74
325.14	17.93
325.352	17.67
325.563	18.11
325.774	18.29
325.986	18.28
326.197	18.03
326.408	18.34
326.62	18.61
326.831	18.9
327.042	19.46
327.253	20
327.464	19.91
327.676	20.13
327.887	19.99
328.098	20.3
328.309	20.47
328.52	20.53
328.732	20.15
328.943	20.33
329.154	20.8
329.365	20.72
329.576	20.68
329.787	20.97
329.998	21.74
330.209	21.8
330.42	22.04
330.631	22.22
330.842	22.66
331.053	23
331.264	22.76
331.475	22.69
331.686	22.84
331.897	22.64
332.108	22.94
332.319	22.72
332.53	22.82
332.741	22.8
332.952	23
333.163	23.03
333.374	22.82
333.585	22.97
333.795	22.98
334.006	23.16
334.217	22.96
334.428	22.7
334.639	23.05
334.849	22.72
335.06	22.87
335.271	22.71
335.482	23.18
335.692	23.35
335.903	23.29
336.114	22.99
336.325	22.76
336.535	23.15
336.746	23.08
336.957	22.68
337.167	22.96
337.378	23.15
337.589	23.31
337.799	22.88
338.01	22.72
338.22	22.52
338.431	22.48
338.642	22.44
338.852	21.99
339.063	21.84
339.273	21.79
339.484	21.54
339.694	21.08
339.905	21.03
340.115	21.12
340.326	21.05
340.536	21.22
340.746	21.4
340.957	21.48
341.167	21.67
341.378	21.66
341.588	21.57
341.799	21.82
342.009	21.45
342.219	21.13
342.43	21.02
342.64	21.24
342.85	21.1
343.061	21.05
343.271	21.11
343.481	20.9
343.691	20.78
343.902	20.95
344.112	20.75
344.322	21.03
344.532	21.1
344.743	21.08
344.953	20.86
345.163	20.65
345.373	20.28
345.583	20.18
345.793	20.3
346.004	20.5
346.214	20.33
346.424	20.34
346.634	20.29
346.844	20.63
347.054	20.9
347.264	20.94
347.474	21.01
347.684	21.56
347.894	21.59
348.104	21.54
348.314	21.35
348.524	21.36
348.734	21.48
348.944	21.72
349.154	21.32
349.364	20.86
349.574	21.09
349.784	21.38
349.994	21.13
350.204	20.9
350.413	20.86
350.623	20.82
350.833	20.75
351.043	20.71
351.253	20.54
351.463	20.5
351.672	20.88
351.882	20.85
352.092	20.54
352.302	20.62
352.511	20.77
352.721	20.7
352.931	20.79
353.141	20.8
353.35	20.61
353.56	20.33
353.77	20.4
353.979	19.94
354.189	19.71
354.399	19.89
354.608	19.83
354.818	19.48
355.027	19.46
355.237	19.55
355.447	19.7
355.656	19.69
355.866	19.83
356.075	19.82
356.285	19.95
356.494	20.06
356.704	19.77
356.913	19.71
357.123	19.76
357.332	19.66
357.542	19.25
357.751	18.8
357.96	18.93
358.17	18.81
358.379	18.62
358.589	18.54
358.798	18.32
359.007	18.52
359.217	18.51
359.426	18.25
359.635	18.35
359.845	18.51
360.054	18.35
360.263	18.01
360.472	17.88
360.682	17.65
360.891	17.62
361.1	17.41
361.309	17.26
361.519	17.16
361.728	17.24
361.937	17.13
362.146	17.04
362.355	17.25
362.564	17.44
362.774	17.55
362.983	17.64
363.192	17.76
363.401	17.75
363.61	17.72
363.819	18.1
364.028	18.3
364.237	18.36
364.446	18.44
364.655	18.49
364.864	18.18
365.073	18.1
365.282	18.17
365.491	18
365.7	18.19
365.909	18.16
366.118	17.86
366.327	17.9
366.536	17.92
366.745	17.91
366.954	17.76
367.162	17.95
367.371	17.87
367.58	17.82
367.789	17.86
367.998	17.77
368.207	17.71
368.415	17.59
368.624	17.55
368.833	17.5
369.042	17.57
369.25	17.64
369.459	17.63
369.668	17.72
369.877	17.42
370.085	17.22
370.294	17.4
370.503	17.6
370.711	17.67
370.92	17.57
371.129	17.67
371.337	17.31
371.546	17.51
371.754	17.67
371.963	17.31
372.171	17.65
372.38	17.83
372.589	17.62
372.797	17.39
373.006	17.21
373.214	16.95
373.423	16.82
373.631	16.89
373.84	16.5
374.048	16.29
374.256	16.6
374.465	16.62
374.673	16.56
374.882	16.75
375.09	16.95
375.298	17.04
375.507	17.36
375.715	17.37
375.923	17.44
376.132	17.43
376.34	17.38
376.548	17.19
376.757	17.05
376.965	17.06
377.173	16.86
377.381	16.56
377.59	16.71
377.798	16.59
378.006	16.36
378.214	16.29
378.423	16.28
378.631	16.15
378.839	16.22
379.047	16.2
379.255	16
379.463	16
379.671	16.1
379.879	15.8
380.088	15.59
380.296	15.58
380.504	15.62
380.712	15.6
380.92	15.65
381.128	15.73
381.336	15.66
381.544	15.48
381.752	15.59
381.96	15.5
382.168	15.46
382.376	15.54
382.584	15.61
382.791	15.84
382.999	15.67
383.207	15.55
383.415	15.59
383.623	15.47
383.831	15.47
384.039	15.34
384.247	15.41
384.454	15.44
384.662	15.33
384.87	15.27
385.078	14.99
385.285	15.07
385.493	15.02
385.701	14.63
385.909	14.74
386.116	14.78
386.324	14.65
386.532	14.5
386.739	14.41
386.947	14.5
387.155	14.58
387.362	14.62
387.57	14.49
387.778	14.52
387.985	14.7
388.193	14.61
388.4	14.73
388.608	14.83
388.816	14.93
389.023	15.01
389.231	14.94
389.438	14.91
389.646	15.01
389.853	15.15
390.061	15.15
390.268	15.3
390.475	15.27
390.683	15.11
390.89	15.03
391.098	14.97
391.305	14.76
391.512	14.63
391.72	14.57
391.927	14.38
392.135	14.43
392.342	14.34
392.549	14.31
392.756	14.18
392.964	14.13
393.171	14.27
393.378	14.21
393.586	14.28
393.793	14.35
394	14.27
394.207	14.29
394.414	14.08
394.622	14.12
394.829	14.01
395.036	14.17
395.243	14.14
395.45	13.96
395.657	13.95
395.864	14.07
396.072	13.86
396.279	14.03
396.486	13.89
396.693	14.07
396.9	14.11
397.107	14.01
397.314	14.15
397.521	14.2
397.728	14.24
397.935	14.15
398.142	13.95
398.349	14.06
398.556	13.92
398.763	14.13
398.97	13.95
399.177	13.82
399.383	13.81
399.59	13.64
399.797	13.6
400.004	13.43
400.211	13.63
400.418	13.64
400.625	13.61
400.831	13.5
401.038	13.55
401.245	13.59
401.452	13.7
401.658	13.79
401.865	13.82
402.072	13.81
402.279	13.88
402.485	13.64
402.692	13.58
402.899	13.56
403.105	13.6
403.312	13.37
403.519	13.12
403.725	13.05
403.932	12.84
404.138	12.69
404.345	12.65
404.552	12.52
404.758	12.47
404.965	12.47
405.171	12.46
405.378	12.46
405.584	12.42
405.791	12.65
405.997	12.63
406.204	12.84
406.41	12.89
406.617	12.96
406.823	13.21
407.029	13.42
407.236	13.52
407.442	13.66
407.649	13.75
407.855	13.89
408.061	13.87
408.268	13.96
408.474	13.72
408.68	13.83
408.887	13.92
409.093	13.72
409.299	13.61
409.505	13.6
409.712	13.39
409.918	13.28
410.124	13.13
410.33	13.13
410.537	13
410.743	13.23
410.949	13.16
411.155	13.03
411.361	13.07
411.567	13.05
411.773	12.99
411.98	13
412.186	12.97
412.392	13.18
412.598	13.15
412.804	13
413.01	12.85
413.216	12.78
413.422	12.73
413.628	12.7
413.834	12.86
414.04	12.79
414.246	12.88
414.452	12.92
414.658	12.67
414.864	12.59
415.07	12.82
415.275	12.74
415.481	12.69
415.687	12.67
415.893	12.77
416.099	12.63
416.305	12.64
416.511	12.57
416.716	12.35
416.922	12.31
417.128	12.36
417.334	12.22
417.539	12.26
417.745	12.21
417.951	12.16
418.157	12.13
418.362	12.06
418.568	11.94
418.774	11.85
418.979	11.89
419.185	11.84
419.391	11.74
419.596	11.71
419.802	11.58
420.008	11.56
420.213	12.2
420.419	12.07
420.624	12.05
420.83	12.09
421.035	12.12
421.241	12.15
421.446	12.15
421.652	12.12
421.857	12.11
422.063	12.15
422.268	12.14
422.474	11.48
422.679	11.52
422.885	11.51
423.09	11.49
423.295	11.39
423.501	11.39
423.706	11.46
423.911	11.48
424.117	11.49
424.322	11.49
424.527	11.48
424.733	11.49
424.938	11.53
425.143	11.55
425.349	11.6
425.554	11.67
425.759	11.73
425.964	11.73
426.169	11.81
426.375	11.89
426.58	12
426.785	12.12
426.99	12.25
427.195	12.32
427.4	12.34
427.605	12.36
427.811	12.48
428.016	12.57
428.221	12.76
428.426	12.75
428.631	12.77
428.836	12.85
429.041	12.76
429.246	12.71
429.451	12.69
429.656	12.82
429.861	12.87
430.066	12.8
430.271	12.73
430.476	12.65
430.681	12.72
430.886	12.69
431.09	12.68
431.295	12.78
431.5	12.84
431.705	12.83
431.91	12.9
432.115	12.98
432.32	13.07
432.524	12.98
432.729	13.04
432.934	12.98
433.139	12.93
433.343	12.89
433.548	12.92
433.753	12.94
433.958	12.93
434.162	12.9
434.367	12.77
434.572	12.75
434.776	12.84
434.981	12.82
435.186	12.91
435.39	13.12
435.595	13.12
435.799	13.02
436.004	13.06
436.209	13.08
436.413	13.13
436.618	13.17
436.822	13.16
437.027	13.13
437.231	13
437.436	13.02
437.64	12.95
437.845	12.96
438.049	13.07
438.253	13
438.458	13.03
438.662	12.93
438.867	12.95
439.071	12.97
439.275	12.9
439.48	12.96
439.684	12.87
439.888	12.84
440.093	12.8
440.297	12.73
440.501	12.77
440.706	12.72
440.91	12.7
441.114	12.74
441.318	12.82
441.523	12.88
441.727	12.89
441.931	12.97
442.135	12.96
442.339	12.94
442.543	13.11
442.748	13.05
442.952	13.04
443.156	13.07
443.36	13.03
443.564	12.95
443.768	13.02
443.972	12.98
444.176	12.9
444.38	12.9
444.584	12.9
444.788	12.76
444.992	12.84
445.196	12.84
445.4	12.81
445.604	12.84
445.808	12.85
446.012	12.74
446.216	12.8
446.42	12.82
446.624	12.78
446.828	12.71
447.032	12.71
447.235	12.66
447.439	12.68
447.643	12.73
447.847	12.7
448.051	12.71
448.254	12.77
448.458	12.73
448.662	12.81
448.866	12.9
449.069	13.16
449.273	13.19
449.477	13.31
449.681	13.36
449.884	13.46
450.088	13.64
450.292	13.61
450.495	13.73
450.699	13.81
450.902	13.72
451.106	13.7
451.31	13.62
451.513	13.67
451.717	13.55
451.92	13.56
452.124	13.52
452.327	13.34
452.531	13.35
452.734	13.19
452.938	13.24
453.141	13.28
453.345	13.4
453.548	13.39
453.752	13.28
453.955	13.4
454.158	13.35
454.362	13.38
454.565	13.38
454.769	13.44
454.972	13.51
455.175	13.46
455.379	13.51
455.582	13.45
455.785	13.48
455.988	13.58
456.192	13.51
456.395	13.51
456.598	13.51
456.801	13.7
457.005	13.61
457.208	13.71
457.411	13.62
457.614	13.49
457.817	13.39
458.021	13.32
458.224	13.24
458.427	13.1
458.63	13.09
458.833	13.01
459.036	12.89
459.239	12.94
459.442	12.8
459.645	12.84
459.848	12.83
460.051	12.87
460.254	12.89
460.457	12.96
460.66	13.1
460.863	13.18
461.066	13.17
461.269	13.18
461.472	13.24
461.675	13.27
461.878	13.34
462.081	13.39
462.284	13.39
462.486	13.44
462.689	13.42
462.892	13.46
463.095	13.47
463.298	13.61
463.5	13.85
463.703	13.67
463.906	13.78
464.109	13.76
464.311	13.8
464.514	13.89
464.717	13.9
464.92	13.99
465.122	14
465.325	13.97
465.528	13.91
465.73	13.73
465.933	13.78
466.135	13.82
466.338	13.69
466.541	13.71
466.743	13.59
466.946	13.62
467.148	13.59
467.351	13.53
467.553	13.57
467.756	13.54
467.958	13.45
468.161	13.6
468.363	13.58
468.566	13.73
468.768	13.74
468.971	13.77
469.173	13.77
469.375	13.82
469.578	13.87
469.78	13.85
469.983	13.96
470.185	14.13
470.387	14.1
470.59	14.01
470.792	13.92
470.994	14.03
471.196	14.05
471.399	14.02
471.601	14.08
471.803	13.98
472.005	13.88
472.208	13.81
472.41	13.79
472.612	13.77
472.814	13.84
473.016	13.99
473.218	13.94
473.421	13.95
473.623	13.94
473.825	13.91
474.027	14.06
474.229	14.2
474.431	14.21
474.633	14.16
474.835	14.21
475.037	14.26
475.239	14.11
475.441	14.14
475.643	14.13
475.845	14.05
476.047	13.98
476.249	13.86
476.451	13.8
476.653	13.76
476.855	13.77
477.057	13.66
477.258	13.62
477.46	13.57
477.662	13.46
477.864	13.49
478.066	13.64
478.268	13.71
478.469	13.74
478.671	13.77
478.873	13.72
479.075	13.62
479.276	13.59
479.478	13.6
479.68	13.71
479.882	13.74
480.083	13.76
480.285	13.55
480.487	13.47
480.688	13.44
480.89	13.39
481.091	13.43
481.293	13.43
481.495	13.36
481.696	13.32
481.898	13.17
482.099	13.08
482.301	12.94
482.502	12.94
482.704	12.88
482.905	12.83
483.107	12.76
483.308	12.72
483.51	12.66
483.711	12.67
483.913	12.58
484.114	12.59
484.315	12.58
484.517	12.6
484.718	12.59
484.92	12.61
485.121	12.61
485.322	12.66
485.524	12.67
485.725	12.73
485.926	12.74
486.127	12.77
486.329	12.77
486.53	12.79
486.731	12.78
486.932	12.75
487.134	12.72
487.335	12.7
487.536	12.68
487.737	12.67
487.938	12.65
488.139	12.66
488.341	12.73
488.542	12.76
488.743	12.74
488.944	12.74
489.145	12.81
489.346	12.87
489.547	12.89
489.748	12.91
489.949	12.94
490.15	12.97
490.351	12.96
490.552	12.96
490.753	12.95
490.954	12.95
491.155	12.98
491.356	13
491.557	13.01
491.758	13.08
491.959	13.09
492.159	13.11
492.36	13.11
492.561	13.17
492.762	13.2
492.963	13.25
493.164	13.33
493.364	13.37
493.565	13.39
493.766	13.4
493.967	13.37
494.167	13.47
494.368	13.5
494.569	13.61
494.769	13.67
494.97	13.71
495.171	13.87
495.371	13.92
495.572	13.95
495.773	13.99
495.973	14.01
496.174	14.1
496.375	14.06
496.575	14.12
496.776	14.2
496.976	14.2
497.177	14.19
497.377	14.03
497.578	14.07
497.778	14.11
497.979	14.17
498.179	14.2
498.38	14.26
498.58	14.32
498.78	14.33
498.981	14.26
499.181	14.29
499.382	14.38
499.582	14.54
499.782	14.63
499.983	14.7
500.183	14.77
500.383	14.85
500.584	14.81
500.784	14.8
500.984	14.82
501.184	14.92
501.385	14.97
501.585	15
501.785	15.01
501.985	14.97
502.185	15.03
502.386	15.07
502.586	15.05
502.786	15.19
502.986	15.29
503.186	15.39
503.386	15.37
503.586	15.34
503.786	15.33
503.987	15.43
504.187	15.47
504.387	15.42
504.587	15.47
504.787	15.53
504.987	15.63
505.187	15.61
505.387	15.66
505.587	15.8
505.786	15.89
505.986	15.96
506.186	15.97
506.386	16.02
506.586	16.24
506.786	16.21
506.986	16.31
507.186	16.24
507.386	16.35
507.585	16.38
507.785	16.42
507.985	16.5
508.185	16.55
508.384	16.57
508.584	16.59
508.784	16.46
508.984	16.54
509.183	16.61
509.383	16.63
509.583	16.72
509.782	16.7
509.982	16.79
510.182	16.78
510.381	16.9
510.581	16.99
510.781	17.1
510.98	17.35
511.18	17.33
511.379	17.31
511.579	17.44
511.778	17.43
511.978	17.52
512.177	17.53
512.377	17.53
512.576	17.54
512.776	17.58
512.975	17.67
513.175	17.66
513.374	17.79
513.573	17.9
513.773	18.06
513.972	18.2
514.172	18.3
514.371	18.42
514.57	18.61
514.77	18.7
514.969	18.7
515.168	18.81
515.367	18.87
515.567	18.97
515.766	19.06
515.965	19.06
516.164	18.98
516.364	19.06
516.563	18.99
516.762	18.97
516.961	18.95
517.16	19.04
517.359	19.04
517.559	19.1
517.758	19.14
517.957	19.17
518.156	19.22
518.355	19.28
518.554	19.25
518.753	19.34
518.952	19.4
519.151	19.52
519.35	19.59
519.549	19.65
519.748	19.66
519.947	19.7
520.146	19.71
520.345	19.74
520.544	19.9
520.743	20.02
520.942	20.14
521.141	20.21
521.339	20.31
521.538	20.36
521.737	20.43
521.936	20.5
522.135	20.59
522.333	20.7
522.532	20.82
522.731	20.83
522.93	20.88
523.129	20.9
523.327	20.96
523.526	20.97
523.725	21
523.923	20.95
524.122	21.02
524.321	21.07
524.519	21.11
524.718	21.07
524.917	21.07
525.115	21.07
525.314	21.1
525.512	21.16
525.711	21.17
525.909	21.26
526.108	21.29
526.306	21.3
526.505	21.31
526.703	21.36
526.902	21.33
527.1	21.35
527.299	21.4
527.497	21.43
527.696	21.46
527.894	21.46
528.092	21.46
528.291	21.49
528.489	21.51
528.688	21.51
528.886	21.52
529.084	21.58
529.283	21.62
529.481	21.63
529.679	21.63
529.877	21.63
530.076	21.68
530.274	21.7
530.472	21.8
530.67	21.88
530.869	21.94
531.067	22.02
531.265	22.08
531.463	22.16
531.661	22.22
531.859	22.22
532.057	22.26
532.255	22.29
532.454	22.34
532.652	22.27
532.85	22.26
533.048	22.27
533.246	22.29
533.444	22.31
533.642	22.35
533.84	22.34
534.038	22.42
534.236	22.43
534.434	22.48
534.632	22.47
534.83	22.56
535.027	22.58
535.225	22.62
535.423	22.67
535.621	22.68
535.819	22.67
536.017	22.75
536.215	22.76
536.412	22.81
536.61	22.84
536.808	22.86
537.006	22.91
537.203	23.01
537.401	23.09
537.599	23.1
537.797	23.17
537.994	23.25
538.192	23.3
538.39	23.44
538.587	23.55
538.785	23.6
538.983	23.69
539.18	23.68
539.378	23.67
539.575	23.68
539.773	23.73
539.97	23.72
540.168	23.73
540.366	23.73
540.563	23.69
540.761	23.64
540.958	23.62
541.155	23.64
541.353	23.69
541.55	23.64
541.748	23.62
541.945	23.56
542.143	23.6
542.34	23.64
542.537	23.68
542.735	23.71
542.932	23.71
543.129	23.87
543.327	23.85
543.524	23.89
543.721	23.96
543.919	24.07
544.116	24.2
544.313	24.27
544.51	24.27
544.708	24.33
544.905	24.42
545.102	24.64
545.299	24.59
545.496	24.76
545.693	24.77
545.891	24.83
546.088	24.86
546.285	24.82
546.482	24.82
546.679	24.84
546.876	24.84
547.073	24.84
547.27	24.76
547.467	24.79
547.664	24.71
547.861	24.69
548.058	24.76
548.255	24.77
548.452	24.83
548.649	24.87
548.846	24.92
549.043	24.91
549.24	24.92
549.437	24.92
549.633	24.99
549.83	25.14
550.027	25.25
550.224	25.13
550.421	25.1
550.618	25.07
550.814	25.09
551.011	24.98
551.208	25.1
551.405	25.15
551.601	25.23
551.798	25.12
551.995	25.1
552.191	25.09
552.388	25.3
552.585	25.28
552.781	25.33
552.978	25.34
553.175	25.44
553.371	25.36
553.568	25.2
553.764	25.13
553.961	25.11
554.157	25.03
554.354	25.04
554.55	24.91
554.747	25.02
554.943	25.08
555.14	25.12
555.336	25.12
555.533	25.09
555.729	25.28
555.926	25.43
556.122	25.63
556.318	25.77
556.515	25.8
556.711	25.89
556.907	25.93
557.104	25.96
557.3	25.9
557.496	25.94
557.693	26.06
557.889	26.05
558.085	26.12
558.281	26.15
558.478	26.05
558.674	26.03
558.87	26.06
559.066	25.96
559.262	25.98
559.459	25.81
559.655	25.89
559.851	25.9
560.047	26.01
560.243	25.99
560.439	25.94
560.635	26.07
560.831	26.05
561.027	26.15
561.223	26.11
561.419	26.09
561.615	26.3
561.811	26.36
562.007	26.28
562.203	26.34
562.399	26.25
562.595	26.22
562.791	26.24
562.987	26.37
563.183	26.29
563.379	26.24
563.575	26.21
563.771	26.17
563.966	26.08
564.162	26.15
564.358	25.92
564.554	25.97
564.75	25.89
564.945	25.78
565.141	25.68
565.337	25.72
565.533	25.92
565.728	25.8
565.924	25.88
566.12	25.83
566.315	25.79
566.511	25.9
566.707	25.86
566.902	25.97
567.098	26.14
567.293	26.21
567.489	26.27
567.684	26.2
567.88	26.24
568.076	26.26
568.271	26.41
568.467	26.56
568.662	26.57
568.858	26.6
569.053	26.48
569.248	26.34
569.444	26.35
569.639	26.25
569.835	26.23
570.03	26.39
570.225	26.35
570.421	26.26
570.616	26.11
570.812	26.15
571.007	26.21
571.202	26.2
571.397	26.23
571.593	26.1
571.788	26.19
571.983	26.34
572.178	26.28
572.374	26.26
572.569	26.32
572.764	26.47
572.959	26.44
573.154	26.37
573.35	26.46
573.545	26.44
573.74	26.49
573.935	26.42
574.13	26.27
574.325	26.27
574.52	26.38
574.715	26.53
574.91	26.49
575.105	26.5
575.3	26.57
575.495	26.64
575.69	26.8
575.885	26.9
576.08	26.93
576.275	27.06
576.47	27.21
576.665	27.13
576.86	27
577.055	27.01
577.25	27.12
577.444	27.2
577.639	27.31
577.834	27.28
578.029	27.42
578.224	27.51
578.418	27.53
578.613	27.53
578.808	27.6
579.003	27.76
579.197	27.76
579.392	27.69
579.587	27.59
579.781	27.45
579.976	27.42
580.171	27.34
580.365	27.33
580.56	27.34
580.755	27.42
580.949	27.36
581.144	27.27
581.338	27.28
581.533	27.54
581.727	27.84
581.922	27.86
582.116	28.08
582.311	28.1
582.505	28.07
582.7	28.18
582.894	28.27
583.089	28.47
583.283	28.51
583.478	28.59
583.672	28.44
583.866	28.36
584.061	28.47
584.255	28.26
584.449	28.32
584.644	28.54
584.838	28.67
585.032	28.55
585.226	28.62
585.421	28.62
585.615	28.82
585.809	28.83
586.003	28.79
586.198	28.76
586.392	28.92
586.586	28.89
586.78	28.86
586.974	28.73
587.168	28.64
587.363	28.52
587.557	28.46
587.751	28.37
587.945	28.27
588.139	28.21
588.333	28.11
588.527	28.15
588.721	28.14
588.915	27.97
589.109	28.01
589.303	28.05
589.497	28.06
589.691	28.11
589.885	28.04
590.079	28.21
590.273	28.13
590.466	28.4
590.66	28.32
590.854	28.52
591.048	28.5
591.242	28.47
591.436	28.63
591.629	28.73
591.823	28.89
592.017	29.01
592.211	29.04
592.404	29.17
592.598	29.05
592.792	29.23
592.986	29.15
593.179	29.13
593.373	29.07
593.567	29.06
593.76	28.91
593.954	28.72
594.147	28.58
594.341	28.38
594.535	28.41
594.728	28.39
594.922	28.17
595.115	28.18
595.309	28.21
595.502	28.21
595.696	28.17
595.889	28.29
596.083	28.37
596.276	28.45
596.47	28.62
596.663	28.54
596.856	28.62
597.05	28.68
597.243	28.65
597.437	28.85
597.63	29.02
597.823	29.04
598.017	29.12
598.21	29.14
598.403	29.22
598.596	29.3
598.79	29.48
598.983	29.46
599.176	29.64
599.369	29.68
599.563	29.61
599.756	29.49
599.949	29.45
600.142	29.45
600.335	29.56
600.528	29.47
600.722	29.42
600.915	29.37
601.108	29.39
601.301	29.27
601.494	29.33
601.687	29.44
601.88	29.44
602.073	29.5
602.266	29.47
602.459	29.35
602.652	29.35
602.845	29.14
603.038	29.06
603.231	29.12
603.424	29.05
603.617	29
603.809	28.77
604.002	28.67
604.195	28.54
604.388	28.58
604.581	28.59
604.774	28.51
604.966	28.6
605.159	28.71
605.352	28.62
605.545	28.79
605.737	28.78
605.93	28.99
606.123	29.11
606.316	29.33
606.508	29.36
606.701	29.42
606.894	29.59
607.086	29.71
607.279	29.82
607.471	29.83
607.664	29.84
607.857	29.98
608.049	30.14
608.242	30.34
608.434	30.38
608.627	30.5
608.819	30.65
609.012	30.9
609.204	31.3
609.397	31.69
609.589	32.25
609.782	32.79
609.974	33.35
610.166	33.81
610.359	34.31
610.551	34.89
610.743	35.39
610.936	35.88
611.128	36.28
611.32	36.55
611.513	36.64
611.705	36.65
611.897	36.48
612.09	36.32
612.282	36.13
612.474	36.02
612.666	35.88
612.858	35.64
613.051	35.46
613.243	35.08
613.435	34.8
613.627	34.67
613.819	34.37
614.011	34.26
614.203	34.06
614.395	33.89
614.588	33.59
614.78	33.46
614.972	33.18
615.164	33.03
615.356	32.99
615.548	32.87
615.74	32.73
615.932	32.88
616.124	32.8
616.315	32.59
616.507	32.62
616.699	32.59
616.891	32.16
617.083	32.33
617.275	32.14
617.467	32.12
617.659	31.74
617.85	31.56
618.042	31.31
618.234	31.18
618.426	31.18
618.618	30.98
618.809	30.92
619.001	31.25
619.193	31.1
619.384	31.22
619.576	31.26
619.768	31.54
619.959	31.52
620.151	31.56
620.343	31.56
620.534	31.6
620.726	31.7
620.917	31.69
621.109	31.68
621.301	31.72
621.492	31.71
621.684	31.68
621.875	31.63
622.067	31.66
622.258	31.83
622.45	32.01
622.641	31.78
622.832	31.68
623.024	31.84
623.215	31.62
623.407	31.69
623.598	31.66
623.789	31.65
623.981	31.63
624.172	31.76
624.363	31.67
624.555	31.47
624.746	31.73
624.937	31.86
625.129	31.65
625.32	31.69
625.511	31.74
625.702	31.7
625.893	31.77
626.085	31.75
626.276	31.69
626.467	31.6
626.658	31.59
626.849	31.52
627.04	31.38
627.231	31.46
627.422	31.51
627.614	31.34
627.805	31.36
627.996	31.19
628.187	31.38
628.378	31.36
628.569	31.44
628.76	31.52
628.951	31.52
629.142	31.65
629.332	31.69
629.523	31.75
629.714	31.91
629.905	32.04
630.096	32.18
630.287	32.14
630.478	32.16
630.669	32.32
630.859	32.4
631.05	32.49
631.241	32.37
631.432	32.24
631.623	32.19
631.813	32.19
632.004	32.05
632.195	31.85
632.385	31.63
632.576	31.8
632.767	31.67
632.957	31.59
633.148	31.43
633.339	31.39
633.529	31.34
633.72	31.27
633.91	31.12
634.101	31.08
634.292	31.21
634.482	31.29
634.673	31.22
634.863	31.13
635.054	31.14
635.244	31.19
635.435	31.33
635.625	31.37
635.815	31.43
636.006	31.55
636.196	31.4
636.387	31.44
636.577	31.61
636.767	31.66
636.958	31.6
637.148	31.6
637.338	31.68
637.529	31.78
637.719	31.89
637.909	31.98
638.099	31.88
638.29	32.12
638.48	32.19
638.67	32.1
638.86	31.97
639.05	32.07
639.241	32.17
639.431	32.18
639.621	32.06
639.811	32
640.001	31.92
640.191	32.1
640.381	32.09
640.571	32.08
640.761	32.04
640.951	32.06
641.141	31.9
641.331	31.94
641.521	31.9
641.711	32.01
641.901	32.13
642.091	32.08
642.281	31.95
642.471	31.95
642.661	31.97
642.851	31.97
643.041	31.95
643.231	32.23
643.42	32.14
643.61	32.26
643.8	32.24
643.99	32.25
644.18	32.21
644.369	32.39
644.559	32.58
644.749	32.56
644.939	32.39
645.128	32.64
645.318	32.46
645.508	32.39
645.697	32.29
645.887	32.47
646.076	32.52
646.266	32.66
646.456	32.63
646.645	32.35
646.835	32.36
647.024	32.62
647.214	32.56
647.403	32.73
647.593	32.8
647.782	32.87
647.972	32.69
648.161	32.73
648.351	32.86
648.54	32.74
648.73	32.86
648.919	32.88
649.108	32.9
649.298	32.85
649.487	32.96
649.677	32.99
649.866	32.97
650.055	33.1
650.244	32.99
650.434	32.99
650.623	32.86
650.812	32.98
651.002	33.03
651.191	33.09
651.38	33.26
651.569	33.24
651.758	33.35
651.947	33.51
652.137	33.34
652.326	33.38
652.515	33.17
652.704	33.36
652.893	33.31
653.082	33.19
653.271	33.07
653.46	33.04
653.649	33.15
653.838	33.01
654.027	32.77
654.216	32.73
654.405	32.8
654.594	32.87
654.783	32.96
654.972	33.11
655.161	33.18
655.35	33.04
655.539	32.86
655.728	32.5
655.916	32.68
656.105	32.81
656.294	33.12
656.483	32.96
656.672	33.04
656.86	32.91
657.049	32.59
657.238	32.34
657.427	32.57
657.615	32.46
657.804	32.53
657.993	32.29
658.181	32.3
658.37	32.05
658.559	32.29
658.747	32.27
658.936	32.27
659.125	32.05
659.313	32.26
659.502	32.26
659.69	32.32
659.879	32.24
660.067	32.34
660.256	32.28
660.444	32.37
660.633	32.35
660.821	32.31
661.01	32.38
661.198	32.74
661.387	32.63
661.575	32.61
661.763	32.74
661.952	32.95
662.14	33.05
662.328	33.12
662.517	33.03
662.705	32.88
662.893	32.88
663.082	32.89
663.27	33.06
663.458	33.21
663.646	33.45
663.834	33.4
664.023	33.39
664.211	33.37
664.399	33.32
664.587	33.34
664.775	33.22
664.963	33.38
665.152	33.48
665.34	33.35
665.528	33.54
665.716	33.35
665.904	33.37
666.092	33.57
666.28	33.55
666.468	33.54
666.656	33.79
666.844	34.02
667.032	34.06
667.22	33.88
667.408	34.26
667.596	34.28
667.784	34.24
667.971	34.2
668.159	33.78
668.347	33.79
668.535	33.78
668.723	33.77
668.911	33.59
669.098	33.46
669.286	33.86
669.474	33.42
669.662	33.19
669.849	33.39
670.037	33.53
670.225	33.88
670.413	33.83
670.6	34.03
670.788	33.9
670.976	34.15
671.163	34.4
671.351	33.89
671.538	34.14
671.726	34.24
671.913	34.12
672.101	33.94
672.289	33.93
672.476	33.78
672.664	33.86
672.851	34.11
673.039	33.95
673.226	33.57
673.413	33.7
673.601	33.46
673.788	33.52
673.976	33.35
674.163	33.54
674.35	33.69
674.538	33.89
674.725	33.7
674.912	33.48
675.1	33.74
675.287	34.22
675.474	34.36
675.662	34.73
675.849	34.94
676.036	34.97
676.223	34.93
676.411	34.75
676.598	34.62
676.785	34.48
676.972	34.5
677.159	34.03
677.346	33.63
677.533	33.71
677.721	33.44
677.908	33.01
678.095	32.99
678.282	32.89
678.469	32.74
678.656	32.94
678.843	33
679.03	33.03
679.217	33.36
679.404	33.61
679.591	33.37
679.778	33.33
679.964	33.45
680.151	33.62
680.338	33.56
680.525	33.66
680.712	33.51
680.899	33.66
681.086	33.77
681.272	33.61
681.459	33.41
681.646	33.48
681.833	33.6
682.02	33.68
682.206	33.6
682.393	33.88
682.58	33.95
682.766	34.2
682.953	34.26
683.14	34.06
683.326	34.66
683.513	35.04
683.7	35.11
683.886	35.13
684.073	35.19
684.259	34.93
684.446	34.96
684.632	34.95
684.819	34.95
685.005	35.07
685.192	35.39
685.378	35.06
685.565	34.74
685.751	34.77
685.938	34.9
686.124	34.95
686.31	35.45
686.497	35.38
686.683	35.36
686.87	35.24
687.056	35.04
687.242	34.83
687.429	34.77
687.615	34.89
687.801	34.79
687.987	34.61
688.174	34.56
688.36	34.42
688.546	34.62
688.732	34.76
688.918	34.63
689.105	34.88
689.291	34.9
689.477	35
689.663	35.06
689.849	35.25
690.035	35.59
690.221	35.66
690.407	35.43
690.593	35.18
690.779	35.08
690.965	35.25
691.151	35.01
691.337	35.27
691.523	35.25
691.709	35.04
691.895	35.19
692.081	34.99
692.267	34.97
692.453	35.22
692.639	35.27
692.825	35.24
693.011	35.42
693.196	35.33
693.382	35.34
693.568	35.37
693.754	35.47
693.94	35.34
694.125	35.37
694.311	35.66
694.497	35.66
694.682	35.6
694.868	35.81
695.054	35.88
695.239	36.23
695.425	36.06
695.611	36.09
695.796	36.1
695.982	36.02
696.168	35.57
696.353	34.97
696.539	35.05
696.724	34.49
696.91	34.34
697.095	34.11
697.281	34.24
697.466	34.21
697.652	34.01
697.837	33.62
698.023	33.53
698.208	33.64
698.393	33.82
698.579	33.73
698.764	34.08
698.949	33.95
699.135	33.81
699.32	33.67
699.505	33.46
699.691	33.31
699.876	33.51
700.061	33.73
700.246	33.7
700.432	33.76
700.617	33.73
700.802	33.77
700.987	33.99
701.172	33.81
701.358	33.9
701.543	34
701.728	34.4
701.913	34.65
702.098	34.69
702.283	35.3
702.468	35.33
702.653	35.66
702.838	35.98
703.023	36.15
703.208	37.06
703.393	37.14
703.578	37.39
703.763	37.79
703.948	38.2
704.133	37.68
704.318	37.58
704.503	37.66
704.688	37.77
704.873	37.97
705.057	38.01
705.242	37.95
705.427	37.99
705.612	38.29
705.797	37.97
705.981	37.8
706.166	38.44
706.351	38.76
706.536	38.66
706.72	38.33
706.905	38.21
707.09	38.06
707.274	38.04
707.459	37.85
707.644	37.8
707.828	37.85
708.013	37.64
708.197	37.56
708.382	37.27
708.567	37.52
708.751	37.66
708.936	37.15
709.12	37.31
709.305	37.19
709.489	36.97
709.673	36.68
709.858	36.21
710.042	36.6
710.227	36.79
710.411	36.8
710.596	36.83
710.78	36.85
710.964	37.33
711.149	37.52
711.333	37.69
711.517	37.67
711.702	38.02
711.886	38.2
712.07	37.41
712.254	37.35
712.438	37.3
712.623	37.41
712.807	37.42
712.991	37.29
713.175	36.73
713.359	36.62
713.544	36.73
713.728	36.78
713.912	36.72
714.096	36.99
714.28	36.7
714.464	36.89
714.648	36.42
714.832	36.32
715.016	36.3
715.2	36.5
715.384	36.38
715.568	36.71
715.752	36.45
715.936	36.56
716.12	36.56
716.304	36.85
716.488	36.71
716.671	37
716.855	37.01
717.039	36.71
717.223	36.52
717.407	36.34
717.59	35.89
717.774	36.07
717.958	36.29
718.142	36.55
718.325	36.41
718.509	36.17
718.693	36.21
718.877	36.25
719.06	36.37
719.244	36.68
719.428	37.26
719.611	37.52
719.795	37.35
719.978	37.33
720.162	37.15
720.345	37.55
720.529	37.9
720.713	37.73
720.896	37.53
721.08	38.26
721.263	38.31
721.446	37.97
721.63	38.22
721.813	38.33
721.997	38.26
722.18	38.41
722.364	38.23
722.547	37.82
722.73	38.09
722.914	38.49
723.097	37.9
723.28	38.04
723.464	38.13
723.647	37.94
723.83	38.02
724.013	38.01
724.197	37.89
724.38	37.45
724.563	37.84
724.746	37.6
724.929	37.58
725.112	37.35
725.296	37.04
725.479	37.23
725.662	37.47
725.845	37.36
726.028	37.57
726.211	37.61
726.394	37.7
726.577	37.8
726.76	37.49
726.943	37.72
727.126	37.8
727.309	37.76
727.492	37.21
727.675	37.22
727.858	36.8
728.041	36.36
728.224	36.52
728.407	36.87
728.589	36.6
728.772	36.97
728.955	37.02
729.138	37.05
729.321	36.82
729.503	37.71
729.686	37.19
729.869	37.54
730.052	37.83
730.234	37.8
730.417	37.77
730.6	37.58
730.782	37.36
730.965	36.83
731.148	36.97
731.33	37.7
731.513	37.01
731.695	37.15
731.878	37.58
732.061	37.46
732.243	37.78
732.426	37.8
732.608	38.3
732.791	38.23
732.973	38.36
733.156	38.49
733.338	38.15
733.52	38.31
733.703	38.13
733.885	37.78
734.068	37.74
734.25	37.74
734.432	37.54
734.615	37.31
734.797	37.71
734.979	37.85
735.162	38
735.344	37.63
735.526	37.95
735.708	38.75
735.891	38.9
736.073	39.02
736.255	39.17
736.437	38.63
736.619	38.84
736.802	38.85
736.984	38.81
737.166	39.07
737.348	39.97
737.53	39.36
737.712	38.95
737.894	38.72
738.076	38.91
738.258	38.44
738.44	39.05
738.622	38.88
738.804	38.8
738.986	38.73
739.168	38.31
739.35	38.52
739.532	39.13
739.714	39.18
739.896	38.94
740.078	39.1
740.259	39.19
740.441	39.27
740.623	39.33
740.805	39.15
740.987	38.87
741.168	39.15
741.35	38.61
741.532	38.45
741.714	38.67
741.895	38.45
742.077	38.19
742.259	38.49
742.44	38.66
742.622	38.53
742.804	38.72
742.985	39.42
743.167	39.49
743.348	39.51
743.53	39.93
743.711	39.87
743.893	40.59
744.075	41.38
744.256	41.45
744.438	41.86
744.619	42.21
744.8	42.81
744.982	43.15
745.163	43.4
745.345	43.96
745.526	43.94
745.707	44.37
745.889	45.02
746.07	44.74
746.252	44.56
746.433	43.78
746.614	43.1
746.795	42.12
746.977	42.07
747.158	41.58
747.339	41.07
747.52	40.77
747.702	40.29
747.883	39.73
748.064	39.68
748.245	40.13
748.426	40.39
748.607	41.33
748.788	41.8
748.97	41.47
749.151	41.55
749.332	41.54
749.513	41.03
749.694	41.07
749.875	41.42
750.056	41.23
750.237	41.05
750.418	40.77
750.599	39.97
750.78	40.66
750.96	40.86
751.141	41.16
751.322	41.61
751.503	41.95
751.684	41.38
751.865	41.14
752.046	41.11
752.226	40.19
752.407	40.48
752.588	40.48
752.769	40.05
752.949	39.99
753.13	39.44
753.311	38.62
753.492	38.85
753.672	39.74
753.853	40.17
754.034	40.52
754.214	41.4
754.395	41.6
754.575	42.06
754.756	42.26
754.937	42.55
755.117	42.61
755.298	43.42
755.478	43.45
755.659	43.29
755.839	42.64
756.02	42.36
756.2	41.81
756.381	41.3
756.561	41.49
756.741	40.91
756.922	40.4
757.102	40.43
757.283	40.23
757.463	40.93
757.643	41.14
757.823	40.91
758.004	41.03
758.184	41.56
758.364	42.13
758.545	41.56
758.725	41.01
758.905	40.74
759.085	41.16
759.265	40.97
759.446	40.43
759.626	39.74
759.806	40.51
759.986	40.42
760.166	40.17
760.346	39.18
760.526	39.89
760.706	40.33
760.886	40.6
761.066	40.62
761.246	40.7
761.426	40.63
761.606	41.1
761.786	40.11
761.966	39.72
762.146	39.05
762.326	39.3
762.506	38.8
762.686	39
762.866	38.47
763.046	38.22
763.225	37.82
763.405	37.36
763.585	36.72
763.765	36.8
763.945	36.36
764.124	36.29
764.304	36.32
764.484	36.52
764.664	36.33
764.843	36.46
765.023	36.39
765.203	36.77
765.382	37.07
765.562	37.71
765.741	37.79
765.921	38.26
766.101	39.47
766.28	39.95
766.46	39.82
766.639	39.86
766.819	40.65
766.998	40.25
767.178	39.87
767.357	40.31
767.537	39.87
767.716	40.47
767.896	40.97
768.075	40.5
768.254	40.05
768.434	40.4
768.613	40.55
768.792	40.55
768.972	41.55
769.151	41.98
769.33	41.27
769.51	41.28
769.689	41.65
769.868	41.84
770.047	42.65
770.226	43.57
770.406	43.4
770.585	44.06
770.764	43.6
770.943	43.31
771.122	42.74
771.301	43.29
771.48	44.05
771.66	43.52
771.839	43.13
772.018	42.58
772.197	41.8
772.376	42.34
772.555	42.47
772.734	42.68
772.913	42.64
773.092	43.18
773.271	43.59
773.449	43.9
773.628	44.95
773.807	45.17
773.986	45.84
774.165	46.15
774.344	46.1
774.523	45.56
774.701	45.58
774.88	46.02
775.059	46.23
775.238	45.52
775.417	45.79
775.595	45.12
775.774	44.93
775.953	44.03
776.131	44.08
776.31	43.8
776.489	43.8
776.667	43.35
776.846	43.28
777.025	43.36
777.203	43.75
777.382	43.13
777.56	43.09
777.739	43.21
777.917	42.57
778.096	43.23
778.274	42.81
778.453	42.85
778.631	43.35
778.81	43.63
778.988	43.38
779.166	42.54
779.345	42.26
779.523	41.55
779.702	42.16
779.88	42.95
780.058	42.16
780.237	43.79
780.415	44.7
780.593	45.02
780.771	45.31
780.95	45.39
781.128	47.11
781.306	48.35
781.484	49.34
781.662	48.1
781.841	48.37
782.019	48.42
782.197	47.6
782.375	47.24
782.553	47.04
782.731	46.94
782.909	48.44
783.087	47.38
783.265	46.14
783.443	44.95
783.621	46.41
783.799	46.32
783.977	46.68
784.155	46.54
784.333	46.83
784.511	47.15
784.689	47.01
784.867	47.06
785.045	47.42
785.223	48.09
785.4	49.33
785.578	49.23
785.756	49.38
785.934	48.74
786.112	48.92
786.289	48.91
786.467	49.26
786.645	49.12
786.823	48.2
787	47.74
787.178	47.95
787.356	46.6
787.533	45.65
787.711	45.69
787.889	45.41
788.066	44.39
788.244	43.22
788.421	42.02
788.599	41.38
788.776	41.57
788.954	42.45
789.131	42.02
789.309	43.07
789.486	43.35
789.664	43.35
789.841	44.11
790.019	44.41
790.196	45.31
790.373	46.09
790.551	46.85
790.728	46.8
790.906	46.32
791.083	46.4
791.26	45.76
791.437	46.06
791.615	45.63
791.792	46.65
791.969	47.67
792.146	46.76
792.324	47.11
792.501	46.51
792.678	46.43
792.855	47.13
793.032	47.21
793.209	47.13
793.387	47.47
793.564	48.08
793.741	48.83
793.918	48.02
794.095	48.84
794.272	48.93
794.449	48.45
794.626	47.97
794.803	47.23
794.98	47.92
795.157	47.75
795.334	47.45
795.511	46.64
795.688	44.72
795.864	44.91
796.041	44.84
796.218	44.51
796.395	46.42
796.572	47.07
796.749	47.27
796.925	47.24
797.102	47.49
797.279	47.51
797.456	47.76
797.632	47.08
797.809	47.74
797.986	48.32
798.162	48.78
798.339	46.42
798.516	46.63
798.692	47.04
798.869	46.9
799.046	47.53
799.222	47.48
799.399	47.84
799.575	49.94
799.752	48.79
799.928	48.45
800.105	48.98
800.281	50.76
800.458	50.36
800.634	49.98
800.811	50.55
800.987	50.78
801.163	50.83
801.34	51.5
801.516	50.95
801.692	50.91
801.869	51.08
802.045	49.84
802.221	50.05
802.398	50.26
802.574	49.86
802.75	48.81
802.926	49.93
803.103	50.15
803.279	50.09
803.455	49.52
803.631	51.8
803.807	52.6
803.983	53.63
804.16	54.16
804.336	53.92
804.512	54.87
804.688	56.73
804.864	54.34
805.04	55.11
805.216	54.75
805.392	55.74
805.568	55.26
805.744	53.79
805.92	53.23
806.096	53.05
806.272	53.22
806.448	52.71
806.623	52.23
806.799	52.84
806.975	53.96
807.151	54.19
807.327	53.77
807.503	53.7
807.678	55.46
807.854	54.32
808.03	54.95
808.206	55.21
808.381	55.08
808.557	55.22
808.733	55.53
808.908	53.86
809.084	53.36
809.26	52.73
809.435	52.8
809.611	52.09
809.787	52.41
809.962	52.52
810.138	53.03
810.313	54.07
810.489	54.51
810.664	54.62
810.84	54.16
811.015	54.33
811.191	54.79
811.366	54.02
811.542	54.72
811.717	55.16
811.892	53.5
812.068	53.51
812.243	52.73
812.419	51.65
812.594	52.3
812.769	52.89
812.944	53.19
813.12	52.27
813.295	52.44
813.47	51.13
813.645	51.89
813.821	53.14
813.996	52.95
814.171	53.15
814.346	53.18
814.521	53.56
814.697	53.71
814.872	53.29
815.047	54.45
815.222	55.1
815.397	55.05
815.572	55.48
815.747	53.82
815.922	52.66
816.097	51.3
816.272	51.25
816.447	50.68
816.622	52.22
816.797	52.58
816.972	52.03
817.147	52.12
817.322	51.5
817.496	49.81
817.671	50.98
817.846	51.71
818.021	51.56
818.196	51.7
818.371	50.95
818.545	49.3
818.72	49.21
818.895	49.13
819.069	48.01
819.244	47.29
819.419	47.17
819.594	45.43
819.768	44.63
819.943	44.17
820.117	42.69
820.292	41.45
820.467	40.02
820.641	38.57
820.816	36.87
820.99	35.14
821.165	33.95
821.339	33.37
821.514	32.79
821.688	32.21
821.863	31.67
822.037	31.05
822.212	30.52
822.386	30.12
822.56	29.82
822.735	29.99
822.909	30.2
823.084	30.33
823.258	30.15
823.432	30.24
823.606	30.04
823.781	30.28
823.955	30.62
824.129	31.07
824.303	31.3
824.478	31.41
824.652	31.26
824.826	31.08
825	31.77
825.174	32.15
825.348	32.7
825.523	33.06
825.697	32.86
825.871	32.84
826.045	33.14
826.219	33.37
826.393	33.98
826.567	34.2
826.741	34.39
826.915	34.01
827.089	34.2
827.263	33.92
827.437	34.3
827.611	34.42
827.784	34.47
827.958	34.37
828.132	34.64
828.306	34.41
828.48	34.69
828.654	35.73
828.827	36.31
829.001	36.75
829.175	37.93
829.349	39.44
829.522	41.17
829.696	42.15
829.87	43.4
830.044	45.11
830.217	46.44
830.391	47.73
830.565	48.14
830.738	48.51
830.912	49.41
831.085	49.13
831.259	48.23
831.432	47.95
831.606	48.68
831.779	47.12
831.953	46.3
832.126	45.55
832.3	44.6
832.473	43.32
832.647	42.67
832.82	42.01
832.994	41.34
833.167	42.02
833.34	41.42
833.514	40.65
833.687	40.58
833.86	40.08
834.034	40.23
834.207	40.28
834.38	40.77
834.553	40.75
834.727	40.52
834.9	40.26
835.073	39.5
835.246	39.68
835.419	40.6
835.593	41.32
835.766	41.73
835.939	42.82
836.112	43.37
836.285	43.13
836.458	44.66
836.631	45.9
836.804	47.55
836.977	48.72
837.15	49.4
837.323	49.89
837.496	51.63
837.669	52.08
837.842	51.78
838.015	52.8
838.188	55.2
838.361	55.97
838.533	56.93
838.706	57.21
838.879	57.4
839.052	58.96
839.225	59.32
839.398	60.17
839.57	60.7
839.743	61.69
839.916	62.45
840.088	62.87
840.261	62.36
840.434	61.94
840.607	62.9
840.779	61.35
840.952	60.59
841.124	59.18
841.297	57.74
841.47	58.99
841.642	59
841.815	58.75
841.987	58.2
842.16	59.53
842.332	61.02
842.505	61.26
842.677	63.87
842.85	65.73
843.022	67.44
843.194	70.47
843.367	71.97
843.539	72.84
843.712	73.73
843.884	74.59
844.056	72.71
844.229	70.85
844.401	70.01
844.573	71.8
844.745	72.78
844.918	75.01
845.09	71.24
845.262	72.83
845.434	75.43
845.606	75.96
845.779	78.62
845.951	79.37
846.123	80.78
846.295	83.58
846.467	83.35
846.639	85.46
846.811	85.04
846.983	93.12
847.155	90.75
847.327	92.49
847.499	94.77
847.671	95.17
847.843	95.37
848.015	96.71
848.187	93.08
848.359	89.63
848.531	89.68
848.703	87.84
848.875	85.21
849.047	86.06
849.218	84.35
849.39	85.01
849.562	83.58
849.734	86.08
849.905	82.49
850.077	84.74
850.249	87.91
850.421	84.76
850.592	88.34
850.764	90.13
850.936	87.84
851.107	91.53
851.279	91.29
851.451	91.69
851.622	91.18
851.794	98.29
851.965	102.48
852.137	104.58
852.308	103.62
852.48	102.74
852.651	99.2
852.823	100.32
852.994	96.05
853.166	94.14
853.337	96.22
853.509	96.89
853.68	94.79
853.851	89.99
854.023	89.45
854.194	92.01
854.365	91.75
854.537	94.87
854.708	94.78
854.879	98.14
855.05	101.22
855.222	97.65
855.393	99.68
855.564	98.11
855.735	102.5
855.906	105.82
856.078	105.51
856.249	100.77
856.42	96.42
856.591	98.37
856.762	97.32
856.933	94.75
857.104	97.87
857.275	95.59
857.446	94.3
857.617	92.73
857.788	92.19
857.959	91.41
858.13	101.04
858.301	106.1
858.472	102.26
858.643	99.03
858.814	101.22
858.985	101.83
859.155	103.92
859.326	108.12
859.497	109.72
859.668	107.01
859.839	114.35
860.009	108.26
860.18	103.31
860.351	104.24
860.522	110.56
860.692	105.02
860.863	96.07
861.034	98.83
861.204	98.99
861.375	96.99
861.546	100.15
861.716	98.6
861.887	101.31
862.057	104
862.228	105.89
862.398	103.16
862.569	107.18
862.739	118.04
862.91	114.47
863.08	108.82
863.251	107
863.421	105.04
863.592	101.85
863.762	104
863.932	103.11
864.103	105.84
864.273	103.33
864.443	103.01
864.614	99.52
864.784	98.12
864.954	103.38
865.125	104.96
865.295	102.99
865.465	102.94
865.635	104.41
865.805	101.2
865.976	95.98
866.146	93.49
866.316	93.64
866.486	98.79
866.656	99.01
866.826	100.48
866.996	107.06
867.166	106.84
867.336	108.98
867.506	109.58
867.676	111.73
867.846	118.8
868.016	124.65
868.186	117.43
868.356	110.1
868.526	109.67
868.696	109.48
868.866	103.53
869.036	105.88
869.206	107.65
869.376	99.34
869.545	101.84
869.715	101.39
869.885	103.51
870.055	110.03
870.224	113.24
870.394	115.22
870.564	112.76
870.734	116.59
870.903	118.75
871.073	115.9
871.243	119.84
871.412	117.07
871.582	117.01
871.751	112.41
871.921	112.44
872.091	109.03
872.26	106.16
872.43	107.1
872.599	102.1
872.769	103.33
872.938	104.36
873.108	98.36
873.277	97.04
873.446	94.52
873.616	94.11
873.785	94.55
873.955	94.49
874.124	95.13
874.293	93.2
874.463	93.38
874.632	90.04
874.801	89.68
874.971	94.83
875.14	98.05
875.309	92.73
875.478	99.07
875.647	96.59
875.817	104.81
875.986	102.79
876.155	105.32
876.324	101.18
876.493	103.49
876.662	101.55
876.831	100.9
877	97.74
877.17	102.58
877.339	103.21
877.508	103.27
877.677	96.01
877.846	99.77
878.015	92.88
878.184	94.77
878.352	92.33
878.521	91.09
878.69	90
878.859	89.47
879.028	89.82
879.197	82.62
879.366	78.59
879.534	77.06
879.703	72.16
879.872	68.49
880.041	65.22
880.21	61.31
880.378	57.35
880.547	54.46
880.716	51.55
880.884	47.83
881.053	45.84
881.222	43.31
881.39	40.95
881.559	38.99
881.727	37.82
881.896	37.58
882.065	36.78
882.233	36.15
882.402	35.36
882.57	34.83
882.739	35.17
882.907	34.46
883.076	34.92
883.244	35.38
883.412	36.29
883.581	37.06
883.749	36.99
883.918	37.01
884.086	37.75
884.254	38.65
884.423	39.85
884.591	40.22
884.759	41.88
884.927	43.62
885.096	43.79
885.264	44.42
885.432	46.49
885.6	48.97
885.769	52.19
885.937	55.25
886.105	58.64
886.273	61.7
886.441	66.18
886.609	67.54
886.777	70.27
886.945	75.84
887.113	79.88
887.281	77.97
887.449	79.84
887.617	83.47
887.785	86.69
887.953	87.82
888.121	87.4
888.289	88.45
888.457	92.4
888.625	93.57
888.793	95.37
888.961	97.33
889.129	105.95
889.296	103.09
889.464	100.54
889.632	98.86
889.8	97.72
889.967	101.84
890.135	103.14
