Data from 2938807__Reflection_01.txt Node
Date: Thu Mar 12 22:03:04 EDT 2015
User: robert
Spectrometer: USB4E03002
Autoset integration time: false
Trigger mode: 4
Integration Time (sec): 1.000000E-1
Scans to average: 10
Electric dark correction enabled: false
Nonlinearity correction enabled: false
Boxcar width: 5
Stray light correction enabled: false
XAxis mode: Wavelengths
Stop averaging: false
Number of Pixels in Spectrum: 3648
>>>>>Begin Spectral Data<<<<<
177.575	14.52
177.794	-10.83
178.014	19.7
178.233	34.16
178.452	20.95
178.672	6.25
178.891	72.27
179.11	183.09
179.33	170.74
179.549	551.04
179.768	6657.14
179.987	-519.57
180.207	-566.13
180.426	-35.24
180.645	-28.82
180.864	-80.66
181.084	-369.57
181.303	-215.38
181.522	-472.55
181.741	-146.56
181.96	-75
182.179	348.57
182.398	-657.14
182.618	1017.65
182.837	304.88
183.056	210.37
183.275	522.39
183.494	706.12
183.713	948.08
183.932	-538.75
184.151	-303.92
184.37	-373.83
184.589	-172.51
184.808	-419.32
185.027	-185.35
185.246	-657.14
185.465	-960
185.684	1750
185.903	506.25
186.122	158.13
186.341	184.85
186.56	141.06
186.779	154.97
186.998	169.64
187.216	119.65
187.435	68.28
187.654	-8.78
187.873	9.14
188.092	49.83
188.311	44.12
188.53	-41.76
188.748	281.25
188.967	164.49
189.186	164.82
189.405	280.74
189.623	279.61
189.842	424.07
190.061	733.33
190.28	-472.09
190.498	227.56
190.717	-420.75
190.936	43.81
191.154	30.74
191.373	76.02
191.592	93.73
191.81	101.02
192.029	141.55
192.248	140.85
192.466	110
192.685	107.16
192.904	96.77
193.122	81.27
193.341	47.79
193.559	118.01
193.778	81.8
193.996	69.86
194.215	60.41
194.433	22
194.652	57.95
194.87	-220.97
195.089	39.58
195.307	28.12
195.526	-338.46
195.744	-125.79
195.963	84.15
196.181	132.8
196.399	131.28
196.618	143.28
196.836	145.83
197.055	234.16
197.273	124.21
197.491	458.9
197.71	166.53
197.928	249.77
198.146	218.25
198.365	235.64
198.583	222.73
198.801	62.3
199.019	13.79
199.238	2500
199.456	-82.42
199.674	-78.79
199.892	21.6
200.111	46.02
200.329	77.78
200.547	66.51
200.765	65.8
200.983	55.76
201.202	75.12
201.42	113.6
201.638	84.76
201.856	105.47
202.074	78.24
202.292	147.2
202.51	179.75
202.728	136.87
202.946	208.82
203.165	207.74
203.383	265.79
203.601	183.69
203.819	339.58
204.037	303.88
204.255	176.19
204.473	185.71
204.691	228.57
204.909	188.3
205.127	162.33
205.345	89.11
205.562	54.44
205.78	53.65
205.998	50.76
206.216	27.89
206.434	35.11
206.652	17.22
206.87	4.7
207.088	1.27
207.306	13.15
207.523	4.29
207.741	30.7
207.959	48.58
208.177	43.09
208.395	39.67
208.612	37.37
208.83	35.97
209.048	58.17
209.266	77.98
209.483	79.73
209.701	-172.73
209.919	51.39
210.136	237.84
210.354	169.7
210.572	7.78
210.79	-11.45
211.007	34.78
211.225	82.69
211.442	-343.14
211.66	30.43
211.878	48.57
212.095	90.77
212.313	31.71
212.53	-4.67
212.748	-1.89
212.966	-2.18
213.183	-37.45
213.401	-25.05
213.618	-4.58
213.836	-3.48
214.053	13.27
214.271	-8.72
214.488	-8.4
214.705	-4.39
214.923	-12.38
215.14	-26.66
215.358	-57.91
215.575	-23.8
215.793	-17.3
216.01	-2.87
216.227	-76.5
216.445	-74.16
216.662	-48.85
216.879	-12.21
217.097	-37.23
217.314	-42.14
217.531	-16.47
217.749	-12.76
217.966	-15.93
218.183	-29.84
218.4	-33.93
218.618	-56.61
218.835	-28.25
219.052	-0.81
219.269	-5.34
219.487	12.81
219.704	17.12
219.921	21.51
220.138	33.77
220.355	22.65
220.572	13.74
220.79	15.74
221.007	17.96
221.224	16.72
221.441	9.13
221.658	3.39
221.875	6.85
222.092	11.26
222.309	12.69
222.526	13.07
222.743	19.38
222.96	26.35
223.177	26.49
223.394	30.99
223.611	29.53
223.828	23.37
224.045	22.28
224.262	17.18
224.479	12.28
224.696	9.19
224.913	3.54
225.13	5.59
225.347	2.2
225.564	1.91
225.781	0.21
225.997	2.01
226.214	3.79
226.431	4.1
226.648	3.95
226.865	3.13
227.082	2.93
227.298	3.26
227.515	3.04
227.732	3.64
227.949	3.81
228.165	3.48
228.382	3.01
228.599	2.18
228.816	2.26
229.032	1.54
229.249	1.02
229.466	1
229.682	1.08
229.899	0.18
230.116	0.42
230.332	0.23
230.549	0.16
230.765	0.54
230.982	0.84
231.199	0.16
231.415	1.76
231.632	1.84
231.848	1.38
232.065	0.82
232.281	1.37
232.498	1.66
232.714	2.09
232.931	3.65
233.147	2.9
233.364	2.49
233.58	2.98
233.797	2.37
234.013	4.33
234.23	3.9
234.446	4.4
234.662	5.69
234.879	4.34
235.095	4.27
235.312	3.18
235.528	4.32
235.744	4.59
235.961	4.48
236.177	4.96
236.393	3.3
236.61	4.48
236.826	4.97
237.042	5.14
237.258	5.86
237.475	5.21
237.691	6.24
237.907	4.11
238.123	6.27
238.339	4.93
238.556	3.92
238.772	4.67
238.988	4.54
239.204	3.78
239.42	3.29
239.636	2.86
239.853	2.09
240.069	0.87
240.285	1.68
240.501	0.67
240.717	0.63
240.933	0.61
241.149	0.89
241.365	0.21
241.581	0.85
241.797	1.22
242.013	1.34
242.229	1.33
242.445	1.74
242.661	2.34
242.877	2.71
243.093	3.13
243.309	3.19
243.525	3.41
243.741	3.51
243.957	2.89
244.173	2.55
244.388	2.42
244.604	2.91
244.82	2.76
245.036	2.91
245.252	2.06
245.468	2.6
245.683	2.74
245.899	2.34
246.115	2.92
246.331	3.23
246.547	2.94
246.762	3.35
246.978	3.35
247.194	3.43
247.409	3.23
247.625	3.52
247.841	3.39
248.057	3.84
248.272	3.96
248.488	3.76
248.703	3.95
248.919	4.38
249.135	4.36
249.35	4.69
249.566	4.65
249.782	4.8
249.997	4.81
250.213	4.55
250.428	4.14
250.644	4.15
250.859	3.88
251.075	3.4
251.29	2.62
251.506	2.43
251.721	1.64
251.937	1.82
252.152	1.69
252.368	1.6
252.583	2.16
252.798	2.9
253.014	3.26
253.229	3.7
253.445	3.55
253.66	4.56
253.875	4.65
254.091	4.84
254.306	4.85
254.521	5.26
254.737	5.47
254.952	4.55
255.167	2.18
255.383	1.56
255.598	1.85
255.813	1.25
256.028	0.42
256.244	0.59
256.459	1.68
256.674	2.05
256.889	0.91
257.104	0.87
257.32	0.89
257.535	1.61
257.75	1.82
257.965	1.65
258.18	2.45
258.395	2.52
258.61	2.11
258.826	1.65
259.041	1.61
259.256	1.66
259.471	1.91
259.686	2.11
259.901	2.07
260.116	2.14
260.331	1.94
260.546	1.99
260.761	1.87
260.976	1.87
261.191	2.03
261.406	2.17
261.621	2.54
261.836	2.07
262.05	2.09
262.265	1.87
262.48	1.63
262.695	1.89
262.91	1.75
263.125	2.21
263.34	2.68
263.555	3.08
263.769	2.47
263.984	2.27
264.199	2.54
264.414	2.66
264.629	3.05
264.843	2.94
265.058	3.2
265.273	3.27
265.488	3.64
265.702	3.32
265.917	2.94
266.132	3.03
266.346	3.36
266.561	3.2
266.776	2.97
266.99	2.98
267.205	3.11
267.42	2.67
267.634	2.39
267.849	1.84
268.063	1.82
268.278	1.71
268.492	2.26
268.707	2.14
268.922	2.72
269.136	2.8
269.351	2.51
269.565	2.33
269.78	2.88
269.994	2.89
270.209	2.92
270.423	3.13
270.637	3.24
270.852	2.57
271.066	1.9
271.281	1.53
271.495	1.67
271.709	1.63
271.924	1.67
272.138	1.58
272.353	1.51
272.567	1.4
272.781	1.07
272.996	0.99
273.21	1.13
273.424	1.59
273.638	1.68
273.853	1.48
274.067	1.48
274.281	1.48
274.495	1.56
274.71	1.68
274.924	1.98
275.138	2.12
275.352	2.44
275.566	2.34
275.781	1.95
275.995	1.67
276.209	1.7
276.423	1.82
276.637	1.62
276.851	1.3
277.065	1.32
277.279	1.03
277.493	0.99
277.707	0.84
277.921	0.55
278.135	0.65
278.349	0.77
278.563	1.13
278.777	1.28
278.991	1.5
279.205	1.57
279.419	1.47
279.633	1.76
279.847	1.89
280.061	1.46
280.275	1.54
280.489	1.37
280.703	1.56
280.917	1.26
281.131	1.08
281.344	1.27
281.558	1.33
281.772	1.75
281.986	1.42
282.2	1.58
282.414	1.84
282.627	2.2
282.841	2.22
283.055	1.99
283.269	2.1
283.482	2.18
283.696	2.11
283.91	2.38
284.123	1.98
284.337	1.97
284.551	1.7
284.764	1.73
284.978	1.44
285.192	1.57
285.405	1.59
285.619	1.59
285.833	1.6
286.046	1.41
286.26	1.21
286.473	1.03
286.687	1.32
286.9	1.43
287.114	1.48
287.327	1.68
287.541	1.89
287.754	2.36
287.968	2.26
288.181	2.27
288.395	2.52
288.608	2.59
288.822	3.24
289.035	3.32
289.248	2.99
289.462	2.81
289.675	2.82
289.889	2.7
290.102	2.26
290.315	2.57
290.529	2.71
290.742	2.45
290.955	2.46
291.169	2.23
291.382	1.85
291.595	2.17
291.808	2.39
292.022	2.28
292.235	2.23
292.448	2.3
292.661	2.19
292.875	2.28
293.088	2.83
293.301	2.63
293.514	2.67
293.727	2.64
293.94	2.84
294.153	2.39
294.367	2.58
294.58	2.59
294.793	2.66
295.006	2.56
295.219	2.38
295.432	2.09
295.645	2.09
295.858	2.17
296.071	2.26
296.284	2.25
296.497	2.55
296.71	2.37
296.923	2.24
297.136	2.08
297.349	2.22
297.562	2.31
297.775	2.29
297.988	2.06
298.201	1.96
298.414	2.27
298.626	2.07
298.839	2.12
299.052	2.11
299.265	2.28
299.478	2.92
299.691	3.13
299.903	3.1
300.116	3.23
300.329	3.43
300.542	3.65
300.755	3.85
300.967	3.9
301.18	3.86
301.393	4.12
301.605	4.23
301.818	3.39
302.031	3.04
302.243	3.21
302.456	3.09
302.669	3.47
302.881	3.29
303.094	3.04
303.307	3.17
303.519	3.37
303.732	3.06
303.944	3.26
304.157	3.88
304.37	3.63
304.582	3.82
304.795	3.8
305.007	3.6
305.22	3.4
305.432	2.89
305.645	2.89
305.857	2.72
306.069	3.21
306.282	2.74
306.494	2.51
306.707	2.84
306.919	2.66
307.132	2.79
307.344	3.26
307.556	3.66
307.769	3.98
307.981	3.94
308.193	3.97
308.406	3.85
308.618	3.94
308.83	4.02
309.043	4.17
309.255	4.08
309.467	4.1
309.679	3.74
309.892	3.44
310.104	3.43
310.316	3.29
310.528	3.33
310.74	3.28
310.953	3.62
311.165	3.41
311.377	3.31
311.589	3.22
311.801	3.21
312.013	3.2
312.225	3.32
312.437	3.33
312.649	3.68
312.862	3.47
313.074	3.39
313.286	3.33
313.498	3.69
313.71	3.51
313.922	3.37
314.134	3.78
314.346	3.92
314.558	4.39
314.77	4.49
314.982	4.39
315.193	4.65
315.405	4.89
315.617	4.83
315.829	4.7
316.041	5.09
316.253	5.18
316.465	5.12
316.677	5.55
316.888	5.11
317.1	5.33
317.312	5.14
317.524	4.64
317.736	4.5
317.947	4.38
318.159	4.72
318.371	4.57
318.583	4.43
318.794	4.54
319.006	4.17
319.218	4.11
319.43	4.31
319.641	4.39
319.853	4.97
320.064	5.12
320.276	5.3
320.488	4.93
320.699	5.34
320.911	6.3
321.123	5.89
321.334	6.12
321.546	6.1
321.757	5.69
321.969	5.6
322.18	5.36
322.392	5.81
322.603	5.51
322.815	5.8
323.026	5.5
323.238	5.32
323.449	5.62
323.661	5.47
323.872	5.81
324.083	5.96
324.295	6.1
324.506	6.42
324.718	5.92
324.929	6.24
325.14	6.58
325.352	6.88
325.563	6.68
325.774	6.55
325.986	6.75
326.197	6.74
326.408	7.37
326.62	7.7
326.831	8.02
327.042	8.46
327.253	8.6
327.464	8.61
327.676	8.68
327.887	8.75
328.098	9.47
328.309	9.12
328.52	9.35
328.732	9.16
328.943	9.17
329.154	9.26
329.365	9.51
329.576	9.83
329.787	9.87
329.998	9.74
330.209	10.11
330.42	9.73
330.631	10.3
330.842	10.2
331.053	9.99
331.264	10.39
331.475	10.44
331.686	10.6
331.897	10.51
332.108	10.74
332.319	11.07
332.53	11.2
332.741	11.25
332.952	11.29
333.163	11.45
333.374	11.55
333.585	11.06
333.795	10.75
334.006	10.46
334.217	10.41
334.428	10.58
334.639	10.47
334.849	10.39
335.06	10.46
335.271	10.57
335.482	10.57
335.692	10.96
335.903	10.9
336.114	11.27
336.325	11.69
336.535	12.06
336.746	11.93
336.957	11.77
337.167	11.88
337.378	12.13
337.589	12.2
337.799	12.02
338.01	11.86
338.22	12.33
338.431	12.48
338.642	12.07
338.852	11.79
339.063	11.75
339.273	12.16
339.484	11.91
339.694	11.64
339.905	11.65
340.115	12.1
340.326	11.99
340.536	11.75
340.746	11.48
340.957	11.55
341.167	11.48
341.378	11.49
341.588	11.13
341.799	11.07
342.009	11.03
342.219	11.12
342.43	10.85
342.64	10.81
342.85	10.82
343.061	10.82
343.271	10.73
343.481	10.76
343.691	10.62
343.902	10.76
344.112	11.11
344.322	11.23
344.532	11.35
344.743	11.41
344.953	11.57
345.163	11.39
345.373	11.38
345.583	11.41
345.793	11.23
346.004	11.15
346.214	11.18
346.424	10.97
346.634	10.91
346.844	10.65
347.054	10.63
347.264	10.5
347.474	10.89
347.684	10.9
347.894	10.75
348.104	11.07
348.314	11.14
348.524	11.2
348.734	10.97
348.944	10.99
349.154	11.1
349.364	11.29
349.574	11.1
349.784	11.14
349.994	11.2
350.204	11.13
350.413	10.89
350.623	10.81
350.833	10.69
351.043	10.75
351.253	10.78
351.463	10.69
351.672	10.04
351.882	10.29
352.092	10.06
352.302	9.7
352.511	9.88
352.721	10.18
352.931	10.06
353.141	10.12
353.35	10.05
353.56	10.01
353.77	9.9
353.979	10.39
354.189	10.08
354.399	9.85
354.608	10.18
354.818	10.1
355.027	10
355.237	10.05
355.447	10.07
355.656	10.27
355.866	10.11
356.075	10.11
356.285	10.05
356.494	10.32
356.704	10.61
356.913	10.47
357.123	10.56
357.332	10.45
357.542	10.35
357.751	10.1
357.96	10.15
358.17	10.4
358.379	10.48
358.589	10.43
358.798	10.3
359.007	10.2
359.217	10.01
359.426	10.1
359.635	10.14
359.845	10.3
360.054	10.3
360.263	10.21
360.472	10.04
360.682	10.02
360.891	10.18
361.1	10.1
361.309	10.04
361.519	10.26
361.728	10.21
361.937	10.05
362.146	9.84
362.355	9.96
362.564	9.86
362.774	9.75
362.983	9.61
363.192	9.36
363.401	9.52
363.61	9.51
363.819	9.39
364.028	9.22
364.237	9.24
364.446	9.38
364.655	9.19
364.864	9.24
365.073	9.42
365.282	9.56
365.491	9.42
365.7	9.18
365.909	9.15
366.118	9.07
366.327	9.12
366.536	9.11
366.745	9.28
366.954	9.41
367.162	9.27
367.371	8.91
367.58	8.64
367.789	8.81
367.998	8.74
368.207	8.54
368.415	8.74
368.624	9.03
368.833	9.11
369.042	8.74
369.25	8.66
369.459	8.78
369.668	8.86
369.877	9.09
370.085	9.17
370.294	9.42
370.503	9.84
370.711	9.48
370.92	9.27
371.129	9.16
371.337	9.44
371.546	9.51
371.754	9.48
371.963	9.59
372.171	9.63
372.38	9.55
372.589	9.62
372.797	9.49
373.006	9.9
373.214	10.1
373.423	10.27
373.631	10.08
373.84	10.02
374.048	9.82
374.256	9.97
374.465	9.86
374.673	9.96
374.882	9.83
375.09	9.77
375.298	9.69
375.507	9.32
375.715	9.1
375.923	9.37
376.132	9.23
376.34	9.36
376.548	9.36
376.757	9.22
376.965	9.06
377.173	8.87
377.381	8.8
377.59	8.77
377.798	8.76
378.006	8.75
378.214	8.6
378.423	8.86
378.631	8.96
378.839	9.04
379.047	9.17
379.255	9.28
379.463	9.43
379.671	9.57
379.879	9.34
380.088	9.67
380.296	9.77
380.504	9.66
380.712	9.57
380.92	9.3
381.128	9.16
381.336	8.96
381.544	8.9
381.752	8.97
381.96	8.7
382.168	8.84
382.376	8.46
382.584	8.42
382.791	8.45
382.999	8.48
383.207	8.69
383.415	8.69
383.623	8.97
383.831	8.97
384.039	8.73
384.247	8.87
384.454	8.9
384.662	9.06
384.87	9.18
385.078	9.26
385.285	9.27
385.493	9.37
385.701	9.18
385.909	8.97
386.116	8.86
386.324	9.05
386.532	8.95
386.739	8.88
386.947	8.76
387.155	8.7
387.362	8.78
387.57	8.65
387.778	8.6
387.985	8.7
388.193	8.94
388.4	9.05
388.608	9.03
388.816	8.99
389.023	9.01
389.231	9.11
389.438	8.88
389.646	8.73
389.853	8.81
390.061	8.72
390.268	8.86
390.475	8.82
390.683	8.89
390.89	8.87
391.098	9.09
391.305	9.12
391.512	8.98
391.72	9.16
391.927	9.25
392.135	9.34
392.342	9.36
392.549	9.37
392.756	9.35
392.964	9.25
393.171	9.33
393.378	9.34
393.586	9.26
393.793	9.43
394	9.48
394.207	9.33
394.414	9.16
394.622	9.13
394.829	9.01
395.036	9.01
395.243	8.89
395.45	8.7
395.657	8.62
395.864	8.64
396.072	8.41
396.279	8.36
396.486	8.57
396.693	8.64
396.9	8.67
397.107	8.67
397.314	8.66
397.521	8.79
397.728	8.67
397.935	8.56
398.142	8.6
398.349	8.81
398.556	8.87
398.763	8.82
398.97	8.74
399.177	8.81
399.383	8.84
399.59	8.76
399.797	8.8
400.004	9.11
400.211	9.14
400.418	9.15
400.625	9.14
400.831	9.11
401.038	9.2
401.245	9.22
401.452	9.21
401.658	9.19
401.865	9.18
402.072	9.02
402.279	9.15
402.485	9.05
402.692	9.04
402.899	9.01
403.105	9.09
403.312	8.96
403.519	8.91
403.725	8.69
403.932	8.73
404.138	8.76
404.345	9.03
404.552	8.66
404.758	8.76
404.965	8.63
405.171	8.72
405.378	8.69
405.584	8.71
405.791	8.81
405.997	8.83
406.204	8.81
406.41	8.9
406.617	8.68
406.823	8.97
407.029	9.05
407.236	9.25
407.442	9.29
407.649	9.2
407.855	9.22
408.061	9.13
408.268	9.36
408.474	9.4
408.68	9.41
408.887	9.59
409.093	9.42
409.299	9.26
409.505	9.24
409.712	9.13
409.918	9.28
410.124	9.31
410.33	9.35
410.537	9.36
410.743	9.35
410.949	9.14
411.155	9.08
411.361	9.17
411.567	9.18
411.773	9.15
411.98	9.24
412.186	9.16
412.392	9
412.598	8.98
412.804	8.95
413.01	8.96
413.216	9.15
413.422	9.15
413.628	9.11
413.834	9.23
414.04	9.2
414.246	9.01
414.452	8.82
414.658	8.97
414.864	8.95
415.07	8.91
415.275	8.82
415.481	8.77
415.687	8.78
415.893	8.79
416.099	8.8
416.305	8.93
416.511	9.09
416.716	9.27
416.922	9.28
417.128	9.4
417.334	9.4
417.539	9.5
417.745	9.52
417.951	9.53
418.157	9.54
418.362	9.48
418.568	9.34
418.774	9.2
418.979	9.12
419.185	9.12
419.391	9.07
419.596	9.01
419.802	8.98
420.008	8.96
420.213	9.34
420.419	9.32
420.624	9.31
420.83	9.36
421.035	9.39
421.241	9.4
421.446	9.38
421.652	9.4
421.857	9.4
422.063	9.38
422.268	9.35
422.474	8.99
422.679	8.98
422.885	9.04
423.09	8.99
423.295	8.98
423.501	9.05
423.706	9
423.911	8.94
424.117	8.99
424.322	9
424.527	9.06
424.733	9.03
424.938	8.99
425.143	8.83
425.349	8.87
425.554	8.8
425.759	8.79
425.964	8.73
426.169	8.82
426.375	8.88
426.58	8.83
426.785	8.89
426.99	8.83
427.195	8.88
427.4	9.01
427.605	8.97
427.811	9.05
428.016	8.9
428.221	8.99
428.426	8.85
428.631	8.69
428.836	8.57
429.041	8.41
429.246	8.53
429.451	8.5
429.656	8.62
429.861	8.68
430.066	8.59
430.271	8.59
430.476	8.53
430.681	8.54
430.886	8.67
431.09	8.85
431.295	8.82
431.5	8.77
431.705	8.85
431.91	8.75
432.115	8.72
432.32	8.8
432.524	8.83
432.729	8.87
432.934	8.94
433.139	8.92
433.343	8.91
433.548	8.96
433.753	9.03
433.958	8.99
434.162	9.09
434.367	9.15
434.572	9.13
434.776	9.23
434.981	9.26
435.186	9.28
435.39	9.24
435.595	9.17
435.799	9.2
436.004	9.18
436.209	9.09
436.413	9.02
436.618	8.92
436.822	8.91
437.027	8.85
437.231	8.91
437.436	8.8
437.64	8.79
437.845	8.91
438.049	8.88
438.253	8.91
438.458	9.02
438.662	8.93
438.867	8.88
439.071	8.93
439.275	9
439.48	8.94
439.684	8.96
439.888	8.94
440.093	8.87
440.297	8.89
440.501	8.84
440.706	8.79
440.91	8.89
441.114	8.98
441.318	8.94
441.523	8.85
441.727	8.86
441.931	8.86
442.135	8.84
442.339	8.83
442.543	8.83
442.748	8.82
442.952	8.82
443.156	8.94
443.36	8.88
443.564	8.95
443.768	9.04
443.972	9.07
444.176	9.09
444.38	9.2
444.584	9.23
444.788	9.15
444.992	9.18
445.196	9.18
445.4	9.05
445.604	9.09
445.808	9.06
446.012	9.01
446.216	8.96
446.42	8.95
446.624	8.89
446.828	8.88
447.032	8.99
447.235	9.01
447.439	8.99
447.643	9
447.847	8.95
448.051	8.99
448.254	9
448.458	9.03
448.662	9.1
448.866	9.1
449.069	9.13
449.273	9.05
449.477	9
449.681	9.06
449.884	9.15
450.088	9.21
450.292	9.24
450.495	9.11
450.699	9.12
450.902	9.09
451.106	9.13
451.31	9.08
451.513	9.06
451.717	9.11
451.92	9.1
452.124	9.01
452.327	9.02
452.531	8.92
452.734	9.05
452.938	9.04
453.141	9
453.345	9.04
453.548	9.09
453.752	9.08
453.955	9.02
454.158	9
454.362	8.95
454.565	8.94
454.769	8.91
454.972	8.89
455.175	8.96
455.379	8.96
455.582	8.87
455.785	8.82
455.988	8.88
456.192	8.9
456.395	8.87
456.598	8.88
456.801	8.79
457.005	8.89
457.208	8.91
457.411	8.87
457.614	8.99
457.817	9.02
458.021	8.98
458.224	9.04
458.427	9.11
458.63	9.15
458.833	9.16
459.036	9.21
459.239	9.2
459.442	9.23
459.645	9.27
459.848	9.24
460.051	9.2
460.254	9.21
460.457	9.2
460.66	9.17
460.863	9.18
461.066	9.11
461.269	9.14
461.472	9.08
461.675	9.07
461.878	9
462.081	8.92
462.284	8.92
462.486	8.93
462.689	8.84
462.892	8.89
463.095	8.91
463.298	9.02
463.5	9.11
463.703	9.15
463.906	9.04
464.109	9.06
464.311	9.08
464.514	9.22
464.717	9.28
464.92	9.34
465.122	9.25
465.325	9.08
465.528	9.06
465.73	8.96
465.933	8.99
466.135	9.14
466.338	9.18
466.541	9.27
466.743	9.24
466.946	9.26
467.148	9.21
467.351	9.17
467.553	9.36
467.756	9.34
467.958	9.35
468.161	9.38
468.363	9.34
468.566	9.23
468.768	9.13
468.971	9.06
469.173	8.99
469.375	8.99
469.578	9.05
469.78	8.93
469.983	8.9
470.185	8.96
470.387	8.88
470.59	8.81
470.792	8.93
470.994	8.98
471.196	9.01
471.399	8.96
471.601	8.99
471.803	8.96
472.005	8.96
472.208	9.11
472.41	9.03
472.612	9.07
472.814	9.06
473.016	8.99
473.218	8.93
473.421	8.88
473.623	8.9
473.825	8.88
474.027	8.92
474.229	8.94
474.431	8.85
474.633	8.9
474.835	8.89
475.037	8.95
475.239	8.99
475.441	9.03
475.643	9.09
475.845	9.16
476.047	9.2
476.249	9.17
476.451	9.25
476.653	9.23
476.855	9.2
477.057	9.12
477.258	9.14
477.46	9.15
477.662	9.19
477.864	9.11
478.066	9.18
478.268	9.09
478.469	9.06
478.671	8.97
478.873	8.98
479.075	9
479.276	9.08
479.478	9.11
479.68	9.08
479.882	9.13
480.083	9.16
480.285	9.14
480.487	9.23
480.688	9.23
480.89	9.27
481.091	9.29
481.293	9.24
481.495	9.22
481.696	9.22
481.898	9.23
482.099	9.15
482.301	9.17
482.502	9.15
482.704	9.12
482.905	9.14
483.107	9.11
483.308	9.12
483.51	9.11
483.711	9.14
483.913	9.11
484.114	9.13
484.315	9.11
484.517	9.08
484.718	9.06
484.92	9.07
485.121	9.05
485.322	9.09
485.524	9.08
485.725	9.11
485.926	9.1
486.127	9.11
486.329	9.04
486.53	9.09
486.731	9.14
486.932	9.19
487.134	9.21
487.335	9.23
487.536	9.19
487.737	9.2
487.938	9.19
488.139	9.15
488.341	9.15
488.542	9.17
488.743	9.13
488.944	9.1
489.145	9.04
489.346	8.99
489.547	8.99
489.748	8.93
489.949	8.89
490.15	8.94
490.351	8.97
490.552	8.99
490.753	9.06
490.954	9.05
491.155	9.06
491.356	9.14
491.557	9.13
491.758	9.13
491.959	9.16
492.159	9.19
492.36	9.13
492.561	9.1
492.762	9.1
492.963	9.08
493.164	9.12
493.364	9.13
493.565	9.02
493.766	9.07
493.967	9.14
494.167	9.14
494.368	9.11
494.569	9.22
494.769	9.33
494.97	9.32
495.171	9.31
495.371	9.26
495.572	9.2
495.773	9.27
495.973	9.24
496.174	9.23
496.375	9.34
496.575	9.31
496.776	9.28
496.976	9.26
497.177	9.33
497.377	9.37
497.578	9.44
497.778	9.52
497.979	9.54
498.179	9.53
498.38	9.49
498.58	9.51
498.78	9.62
498.981	9.52
499.181	9.53
499.382	9.51
499.582	9.53
499.782	9.54
499.983	9.57
500.183	9.59
500.383	9.63
500.584	9.67
500.784	9.6
500.984	9.65
501.184	9.73
501.385	9.71
501.585	9.66
501.785	9.66
501.985	9.58
502.185	9.52
502.386	9.46
502.586	9.51
502.786	9.51
502.986	9.51
503.186	9.44
503.386	9.4
503.586	9.48
503.786	9.56
503.987	9.5
504.187	9.6
504.387	9.57
504.587	9.62
504.787	9.54
504.987	9.51
505.187	9.57
505.387	9.64
505.587	9.73
505.786	9.73
505.986	9.67
506.186	9.68
506.386	9.69
506.586	9.77
506.786	9.79
506.986	9.77
507.186	9.8
507.386	9.79
507.585	9.69
507.785	9.7
507.985	9.67
508.185	9.8
508.384	9.82
508.584	9.76
508.784	9.82
508.984	9.83
509.183	9.85
509.383	9.82
509.583	9.77
509.782	9.83
509.982	9.81
510.182	9.84
510.381	9.75
510.581	9.83
510.781	9.89
510.98	9.86
511.18	9.92
511.379	9.96
511.579	10.02
511.778	10.06
511.978	10.05
512.177	10.1
512.377	10.09
512.576	10.15
512.776	10.13
512.975	10.24
513.175	10.31
513.374	10.28
513.573	10.33
513.773	10.33
513.972	10.33
514.172	10.45
514.371	10.44
514.57	10.46
514.77	10.45
514.969	10.48
515.168	10.41
515.367	10.35
515.567	10.33
515.766	10.32
515.965	10.4
516.164	10.45
516.364	10.35
516.563	10.36
516.762	10.36
516.961	10.37
517.16	10.35
517.359	10.37
517.559	10.39
517.758	10.46
517.957	10.49
518.156	10.44
518.355	10.48
518.554	10.49
518.753	10.47
518.952	10.47
519.151	10.52
519.35	10.54
519.549	10.6
519.748	10.63
519.947	10.61
520.146	10.6
520.345	10.61
520.544	10.58
520.743	10.64
520.942	10.72
521.141	10.73
521.339	10.68
521.538	10.63
521.737	10.55
521.936	10.6
522.135	10.68
522.333	10.68
522.532	10.78
522.731	10.81
522.93	10.9
523.129	10.88
523.327	10.9
523.526	10.94
523.725	10.95
523.923	10.96
524.122	10.9
524.321	10.87
524.519	10.87
524.718	10.87
524.917	10.84
525.115	10.82
525.314	10.82
525.512	10.83
525.711	10.83
525.909	10.88
526.108	10.91
526.306	10.91
526.505	10.91
526.703	10.94
526.902	10.96
527.1	11
527.299	11.01
527.497	11.06
527.696	11.09
527.894	11.08
528.092	11.07
528.291	11.07
528.489	11.08
528.688	11.07
528.886	11.07
529.084	11.08
529.283	11.05
529.481	11.06
529.679	11.01
529.877	11
530.076	11.02
530.274	11.03
530.472	11.06
530.67	11.08
530.869	11.16
531.067	11.16
531.265	11.17
531.463	11.22
531.661	11.27
531.859	11.28
532.057	11.33
532.255	11.34
532.454	11.33
532.652	11.35
532.85	11.34
533.048	11.29
533.246	11.29
533.444	11.27
533.642	11.27
533.84	11.29
534.038	11.3
534.236	11.32
534.434	11.35
534.632	11.41
534.83	11.4
535.027	11.44
535.225	11.49
535.423	11.55
535.621	11.6
535.819	11.63
536.017	11.59
536.215	11.63
536.412	11.61
536.61	11.63
536.808	11.58
537.006	11.61
537.203	11.62
537.401	11.66
537.599	11.67
537.797	11.71
537.994	11.76
538.192	11.74
538.39	11.79
538.587	11.75
538.785	11.81
538.983	11.92
539.18	11.98
539.378	11.98
539.575	11.91
539.773	11.99
539.97	11.93
540.168	11.92
540.366	11.96
540.563	12
540.761	12.02
540.958	12.01
541.155	11.99
541.353	12.01
541.55	12.02
541.748	12.12
541.945	12.1
542.143	12.12
542.34	12.08
542.537	12.1
542.735	12.03
542.932	12.08
543.129	12.12
543.327	12.16
543.524	12.15
543.721	12.17
543.919	12.13
544.116	12.14
544.313	12.17
544.51	12.26
544.708	12.34
544.905	12.41
545.102	12.45
545.299	12.42
545.496	12.42
545.693	12.44
545.891	12.51
546.088	12.5
546.285	12.49
546.482	12.49
546.679	12.51
546.876	12.51
547.073	12.5
547.27	12.42
547.467	12.41
547.664	12.46
547.861	12.49
548.058	12.4
548.255	12.4
548.452	12.41
548.649	12.45
548.846	12.36
549.043	12.32
549.24	12.31
549.437	12.28
549.633	12.32
549.83	12.23
550.027	12.28
550.224	12.36
550.421	12.31
550.618	12.42
550.814	12.42
551.011	12.45
551.208	12.42
551.405	12.43
551.601	12.56
551.798	12.61
551.995	12.64
552.191	12.58
552.388	12.46
552.585	12.52
552.781	12.4
552.978	12.33
553.175	12.43
553.371	12.45
553.568	12.55
553.764	12.58
553.961	12.55
554.157	12.57
554.354	12.52
554.55	12.58
554.747	12.54
554.943	12.57
555.14	12.54
555.336	12.49
555.533	12.5
555.729	12.35
555.926	12.31
556.122	12.34
556.318	12.39
556.515	12.34
556.711	12.37
556.907	12.51
557.104	12.52
557.3	12.7
557.496	12.7
557.693	12.76
557.889	12.86
558.085	12.78
558.281	12.6
558.478	12.58
558.674	12.65
558.87	12.71
559.066	12.72
559.262	12.71
559.459	12.64
559.655	12.67
559.851	12.71
560.047	12.73
560.243	12.79
560.439	13.05
560.635	13.15
560.831	13.08
561.027	13
561.223	12.9
561.419	12.91
561.615	12.82
561.811	12.78
562.007	12.79
562.203	12.8
562.399	12.8
562.595	12.59
562.791	12.37
562.987	12.44
563.183	12.57
563.379	12.64
563.575	12.79
563.771	12.89
563.966	12.84
564.162	12.91
564.358	12.89
564.554	12.91
564.75	13
564.945	13.06
565.141	13.07
565.337	13.02
565.533	13.06
565.728	12.92
565.924	12.99
566.12	12.92
566.315	12.83
566.511	12.84
566.707	12.83
566.902	12.89
567.098	12.87
567.293	12.95
567.489	12.94
567.684	12.88
567.88	12.97
568.076	12.9
568.271	13.14
568.467	13.16
568.662	13.12
568.858	13.16
569.053	13.07
569.248	13.18
569.444	13.16
569.639	13.25
569.835	13.23
570.03	13.16
570.225	13.14
570.421	13.03
570.616	13.05
570.812	13.04
571.007	12.96
571.202	13.06
571.397	12.94
571.593	12.98
571.788	12.85
571.983	12.88
572.178	12.95
572.374	12.99
572.569	13.07
572.764	13.09
572.959	13.17
573.154	13.2
573.35	13.15
573.545	13.33
573.74	13.34
573.935	13.35
574.13	13.34
574.325	13.37
574.52	13.4
574.715	13.38
574.91	13.36
575.105	13.41
575.3	13.44
575.495	13.52
575.69	13.47
575.885	13.43
576.08	13.56
576.275	13.58
576.47	13.55
576.665	13.61
576.86	13.72
577.055	13.74
577.25	13.72
577.444	13.68
577.639	13.61
577.834	13.64
578.029	13.78
578.224	13.74
578.418	13.79
578.613	13.81
578.808	13.72
579.003	13.51
579.197	13.47
579.392	13.47
579.587	13.69
579.781	13.78
579.976	13.72
580.171	13.62
580.365	13.66
580.56	13.67
580.755	13.64
580.949	13.64
581.144	13.66
581.338	13.71
581.533	13.6
581.727	13.48
581.922	13.46
582.116	13.5
582.311	13.42
582.505	13.43
582.7	13.49
582.894	13.58
583.089	13.62
583.283	13.65
583.478	13.63
583.672	13.72
583.866	13.65
584.061	13.54
584.255	13.55
584.449	13.62
584.644	13.66
584.838	13.62
585.032	13.67
585.226	13.74
585.421	13.84
585.615	13.97
585.809	14.02
586.003	14.15
586.198	14.31
586.392	14.23
586.586	14.24
586.78	14.25
586.974	14.32
587.168	14.3
587.363	14.25
587.557	14.25
587.751	14.2
587.945	14.19
588.139	14.16
588.333	14.06
588.527	14.13
588.721	14.2
588.915	14.07
589.109	14.04
589.303	13.97
589.497	13.97
589.691	13.88
589.885	13.89
590.079	13.87
590.273	13.97
590.466	14.13
590.66	14.06
590.854	13.99
591.048	14.09
591.242	14.13
591.436	14.15
591.629	14.28
591.823	14.46
592.017	14.43
592.211	14.59
592.404	14.55
592.598	14.55
592.792	14.64
592.986	14.68
593.179	14.66
593.373	14.67
593.567	14.65
593.76	14.57
593.954	14.53
594.147	14.57
594.341	14.46
594.535	14.34
594.728	14.32
594.922	14.35
595.115	14.32
595.309	14.3
595.502	14.21
595.696	14.31
595.889	14.34
596.083	14.43
596.276	14.43
596.47	14.55
596.663	14.62
596.856	14.64
597.05	14.77
597.243	14.76
597.437	14.84
597.63	14.92
597.823	14.79
598.017	14.81
598.21	14.79
598.403	14.85
598.596	14.6
598.79	14.68
598.983	14.61
599.176	14.5
599.369	14.62
599.563	14.57
599.756	14.59
599.949	14.83
600.142	14.63
600.335	14.7
600.528	14.66
600.722	14.93
600.915	14.91
601.108	14.97
601.301	14.86
601.494	14.9
601.687	15.01
601.88	15
602.073	15
602.266	15.19
602.459	15.06
602.652	15.03
602.845	14.97
603.038	14.97
603.231	15.03
603.424	15.04
603.617	15.1
603.809	15.09
604.002	15.08
604.195	15.08
604.388	15.1
604.581	15.17
604.774	15.22
604.966	15.28
605.159	15.34
605.352	15.26
605.545	15.33
605.737	15.26
605.93	15.25
606.123	15.24
606.316	15.2
606.508	15.15
606.701	15.17
606.894	15.13
607.086	15.05
607.279	15.03
607.471	15.14
607.664	15.22
607.857	15.23
608.049	15.44
608.242	15.57
608.434	15.56
608.627	15.62
608.819	15.6
609.012	15.85
609.204	16.03
609.397	16.2
609.589	16.49
609.782	16.65
609.974	16.91
610.166	16.91
610.359	17.2
610.551	17.48
610.743	17.83
610.936	18.14
611.128	18.3
611.32	18.43
611.513	18.52
611.705	18.55
611.897	18.68
612.09	18.59
612.282	18.67
612.474	18.67
612.666	18.69
612.858	18.56
613.051	18.32
613.243	17.96
613.435	17.81
613.627	17.68
613.819	17.22
614.011	17.19
614.203	17.14
614.395	17.15
614.588	16.88
614.78	16.63
614.972	16.51
615.164	16.55
615.356	16.7
615.548	16.74
615.74	16.6
615.932	16.78
616.124	16.57
616.315	16.48
616.507	16.43
616.699	16.31
616.891	16.37
617.083	16.33
617.275	16.25
617.467	16.21
617.659	15.99
617.85	16.14
618.042	16.15
618.234	16.2
618.426	16.17
618.618	15.95
618.809	16.04
619.001	16.06
619.193	16.19
619.384	16.2
619.576	16.04
619.768	16.1
619.959	16.03
620.151	16.03
620.343	15.92
620.534	16.01
620.726	15.95
620.917	15.91
621.109	15.89
621.301	15.74
621.492	15.66
621.684	15.81
621.875	15.72
622.067	15.71
622.258	15.69
622.45	15.57
622.641	15.62
622.832	15.81
623.024	15.89
623.215	15.85
623.407	16.12
623.598	16.34
623.789	16.29
623.981	16.41
624.172	16.43
624.363	16.46
624.555	16.67
624.746	16.74
624.937	16.88
625.129	16.95
625.32	16.89
625.511	16.75
625.702	16.57
625.893	16.73
626.085	16.8
626.276	16.76
626.467	16.73
626.658	16.67
626.849	16.5
627.04	16.48
627.231	16.39
627.422	16.44
627.614	16.47
627.805	16.56
627.996	16.47
628.187	16.51
628.378	16.53
628.569	16.44
628.76	16.36
628.951	16.5
629.142	16.33
629.332	16.31
629.523	16.34
629.714	16.24
629.905	16.21
630.096	16.18
630.287	16.04
630.478	15.97
630.669	16.2
630.859	16.32
631.05	16.23
631.241	16.28
631.432	16.17
631.623	16.1
631.813	16.08
632.004	16.15
632.195	16.11
632.385	16.32
632.576	16.46
632.767	16.32
632.957	16.3
633.148	16.27
633.339	16.22
633.529	16.37
633.72	16.33
633.91	16.4
634.101	16.21
634.292	16.3
634.482	16.21
634.673	16.12
634.863	16.05
635.054	15.96
635.244	16.18
635.435	16.2
635.625	16.34
635.815	16.32
636.006	16.23
636.196	16.55
636.387	16.3
636.577	16.27
636.767	16.39
636.958	16.43
637.148	16.51
637.338	16.35
637.529	16.45
637.719	16.26
637.909	16.54
638.099	16.55
638.29	16.2
638.48	16.4
638.67	16.32
638.86	16.16
639.05	16.09
639.241	16.18
639.431	16.22
639.621	16.03
639.811	16.09
640.001	15.97
640.191	16.01
640.381	16.19
640.571	16.29
640.761	16.37
640.951	16.46
641.141	16.57
641.331	16.39
641.521	16.21
641.711	16.35
641.901	16.45
642.091	16.43
642.281	16.4
642.471	16.32
642.661	16.16
642.851	16.34
643.041	16.58
643.231	16.53
643.42	16.71
643.61	16.89
643.8	16.86
643.99	16.44
644.18	16.51
644.369	16.61
644.559	16.71
644.749	16.67
644.939	16.53
645.128	16.29
645.318	16.43
645.508	16.33
645.697	16.32
645.887	16.51
646.076	16.78
646.266	16.79
646.456	16.93
646.645	17.07
646.835	17.13
647.024	17.18
647.214	17.15
647.403	17.2
647.593	17.34
647.782	17.37
647.972	17.4
648.161	17.5
648.351	17.45
648.54	17.3
648.73	17.19
648.919	17.34
649.108	17.26
649.298	17.22
649.487	17.23
649.677	17.24
649.866	17.38
650.055	17.34
650.244	17.35
650.434	17.28
650.623	17.45
650.812	17.36
651.002	17.52
651.191	17.84
651.38	17.86
651.569	17.76
651.758	17.57
651.947	17.56
652.137	17.54
652.326	17.48
652.515	17.58
652.704	17.45
652.893	17.65
653.082	17.5
653.271	17
653.46	17.09
653.649	17.24
653.838	17.17
654.027	16.97
654.216	16.79
654.405	16.78
654.594	17.05
654.783	17.14
654.972	17.21
655.161	17.24
655.35	17.64
655.539	17.57
655.728	17.48
655.916	17.69
656.105	17.76
656.294	17.9
656.483	17.94
656.672	17.61
656.86	17.64
657.049	17.54
657.238	17.57
657.427	17.33
657.615	17.41
657.804	17.42
657.993	17.67
658.181	17.7
658.37	17.62
658.559	17.72
658.747	17.89
658.936	17.83
659.125	17.83
659.313	17.72
659.502	17.92
659.69	17.97
659.879	17.87
660.067	17.63
660.256	17.67
660.444	17.84
660.633	17.74
660.821	17.48
661.01	17.5
661.198	17.5
661.387	17.38
661.575	17.22
661.763	17.27
661.952	17.32
662.14	17.71
662.328	17.64
662.517	17.49
662.705	17.48
662.893	17.55
663.082	17.51
663.27	17.7
663.458	17.8
663.646	17.95
663.834	18.01
664.023	18.12
664.211	17.76
664.399	17.91
664.587	18.22
664.775	18.14
664.963	18.35
665.152	18.31
665.34	18.22
665.528	18.04
665.716	17.77
665.904	17.68
666.092	17.57
666.28	17.49
666.468	17.46
666.656	17.12
666.844	17.09
667.032	16.94
667.22	17.1
667.408	16.93
667.596	17.37
667.784	17.58
667.971	17.63
668.159	17.75
668.347	17.89
668.535	17.95
668.723	17.83
668.911	18
669.098	18.12
669.286	17.92
669.474	17.87
669.662	17.85
669.849	17.84
670.037	17.65
670.225	17.51
670.413	17.67
670.6	17.52
670.788	17.75
670.976	17.8
671.163	17.77
671.351	17.72
671.538	17.75
671.726	17.5
671.913	17.19
672.101	17.02
672.289	17.06
672.476	16.68
672.664	16.6
672.851	16.3
673.039	16.28
673.226	16.33
673.413	16.58
673.601	16.74
673.788	16.73
673.976	16.95
674.163	17.44
674.35	17.42
674.538	17.71
674.725	17.75
674.912	18.17
675.1	18.07
675.287	18.08
675.474	18.08
675.662	18
675.849	18.23
676.036	18.26
676.223	17.88
676.411	17.64
676.598	17.79
676.785	17.9
676.972	17.82
677.159	17.58
677.346	17.64
677.533	17.77
677.721	17.6
677.908	17.45
678.095	17.59
678.282	17.59
678.469	17.79
678.656	17.73
678.843	17.73
679.03	17.53
679.217	17.74
679.404	17.74
679.591	17.63
679.778	18.09
679.964	18.38
680.151	18.25
680.338	18.49
680.525	18.71
680.712	18.63
680.899	18.86
681.086	19.13
681.272	19.19
681.459	19.22
681.646	19.17
681.833	18.91
682.02	18.69
682.206	18.66
682.393	18.79
682.58	18.73
682.766	18.58
682.953	18.46
683.14	18.23
683.326	18.22
683.513	18.11
683.7	18.28
683.886	18.37
684.073	18.32
684.259	18.36
684.446	18.37
684.632	18.32
684.819	18.59
685.005	18.39
685.192	18.38
685.378	18.49
685.565	18.66
685.751	18.84
685.938	18.7
686.124	18.88
686.31	18.93
686.497	18.53
686.683	18.64
686.87	18.64
687.056	18.73
687.242	18.96
687.429	18.95
687.615	19.15
687.801	18.74
687.987	19
688.174	18.93
688.36	19.03
688.546	18.94
688.732	18.85
688.918	18.52
689.105	18.49
689.291	18.52
689.477	18.51
689.663	18.22
689.849	18.46
690.035	18.29
690.221	18.26
690.407	18.24
690.593	18.64
690.779	18.86
690.965	19.25
691.151	19.22
691.337	19
691.523	18.85
691.709	18.91
691.895	18.6
692.081	18.67
692.267	19
692.453	19.1
692.639	18.85
692.825	18.72
693.011	18.81
693.196	18.77
693.382	18.82
693.568	18.8
693.754	18.87
693.94	19.56
694.125	19.38
694.311	19.09
694.497	19.04
694.682	19.41
694.868	19.47
695.054	19.01
695.239	19.48
695.425	19.4
695.611	19.63
695.796	19.45
695.982	18.88
696.168	19.13
696.353	19.32
696.539	19.1
696.724	18.95
696.91	18.92
697.095	19.18
697.281	18.95
697.466	19.02
697.652	18.9
697.837	18.95
698.023	18.92
698.208	18.86
698.393	18.77
698.579	18.89
698.764	19.07
698.949	19.04
699.135	18.89
699.32	18.72
699.505	18.77
699.691	18.67
699.876	18.52
700.061	18.96
700.246	19.01
700.432	18.96
700.617	18.96
700.802	18.75
700.987	18.78
701.172	19.09
701.358	19.37
701.543	19.26
701.728	19.5
701.913	19.65
702.098	19.29
702.283	18.97
702.468	18.82
702.653	18.78
702.838	18.65
703.023	18.21
703.208	18.12
703.393	18.13
703.578	18.11
703.763	18.18
703.948	18.08
704.133	17.96
704.318	18.19
704.503	18.46
704.688	18.57
704.873	18.9
705.057	19.55
705.242	19.54
705.427	19.23
705.612	19.26
705.797	19.38
705.981	19.74
706.166	20.04
706.351	20.28
706.536	20.34
706.72	20.61
706.905	20.52
707.09	20.3
707.274	20.28
707.459	20.56
707.644	20.89
707.828	20.72
708.013	20.64
708.197	20.69
708.382	20.31
708.567	20.4
708.751	20.18
708.936	20.06
709.12	19.95
709.305	19.58
709.489	19.77
709.673	19.41
709.858	19.27
710.042	19.24
710.227	19.43
710.411	19.69
710.596	19.72
710.78	19.48
710.964	19.71
711.149	19.65
711.333	20.04
711.517	19.84
711.702	19.97
711.886	20.55
712.07	20.48
712.254	19.85
712.438	19.94
712.623	19.89
712.807	20.16
712.991	19.9
713.175	19.9
713.359	19.68
713.544	19.46
713.728	19.57
713.912	19.27
714.096	19.18
714.28	19.49
714.464	19.64
714.648	19.49
714.832	19.63
715.016	19.62
715.2	19.69
715.384	19.87
715.568	20.09
715.752	20.07
715.936	19.88
716.12	19.81
716.304	19.51
716.488	19.32
716.671	19.38
716.855	19.17
717.039	19.34
717.223	19.13
717.407	19.34
717.59	19.15
717.774	19.18
717.958	19.42
718.142	19.56
718.325	19.96
718.509	19.78
718.693	19.48
718.877	19.65
719.06	19.43
719.244	19.68
719.428	19.78
719.611	19.98
719.795	20.17
719.978	19.77
720.162	20.16
720.345	20.03
720.529	19.76
720.713	20.44
720.896	19.85
721.08	19.79
721.263	19.77
721.446	19.29
721.63	19.15
721.813	18.89
721.997	19.12
722.18	18.69
722.364	18.86
722.547	19.18
722.73	18.63
722.914	19.03
723.097	18.98
723.28	18.63
723.464	18.83
723.647	18.58
723.83	18.79
724.013	18.66
724.197	18.6
724.38	18.2
724.563	18.58
724.746	18.41
724.929	18.69
725.112	19.12
725.296	19.49
725.479	19.06
725.662	19.02
725.845	18.75
726.028	18.37
726.211	18.64
726.394	19.07
726.577	18.83
726.76	19.06
726.943	18.4
727.126	18.18
727.309	18.18
727.492	18.33
727.675	18.17
727.858	18.07
728.041	18.79
728.224	18.96
728.407	18.85
728.589	18.93
728.772	18.52
728.955	19.44
729.138	19.32
729.321	19.35
729.503	19.35
729.686	19.64
729.869	20.11
730.052	19.78
730.234	19.53
730.417	19.52
730.6	18.89
730.782	19.31
730.965	18.57
731.148	18.82
731.33	19.41
731.513	19.42
731.695	19.46
731.878	19.23
732.061	19.51
732.243	19.56
732.426	19.38
732.608	19.74
732.791	20.54
732.973	20.6
733.156	20.75
733.338	19.83
733.52	20.15
733.703	20.36
733.885	20.54
734.068	20.42
734.25	20.13
734.432	20.63
734.615	20.53
734.797	19.63
734.979	20.16
735.162	19.42
735.344	19.9
735.526	19.52
735.708	19.66
735.891	19.48
736.073	19.64
736.255	19.88
736.437	19.41
736.619	19.53
736.802	19.55
736.984	18.99
737.166	19.21
737.348	19.13
737.53	18.94
737.712	18.84
737.894	18.86
738.076	18.9
738.258	18.65
738.44	18.55
738.622	18.61
738.804	18.95
738.986	19.48
739.168	20.04
739.35	20.35
739.532	20.59
739.714	20.59
739.896	20.17
740.078	20.08
740.259	20.35
740.441	20.48
740.623	20.8
740.805	21.11
740.987	20.42
741.168	20.06
741.35	19.71
741.532	19.61
741.714	19.13
741.895	19.21
742.077	19.11
742.259	19.28
742.44	19.01
742.622	18.37
742.804	18.08
742.985	18.74
743.167	18.76
743.348	18.37
743.53	18.3
743.711	18.02
743.893	18.75
744.075	18.67
744.256	18.04
744.438	18.27
744.619	18.31
744.8	17.95
744.982	17.27
745.163	17.57
745.345	18.46
745.526	19.56
745.707	19.78
745.889	19.81
746.07	19.95
746.252	20.93
746.433	20.89
746.614	21.61
746.795	21.46
746.977	21.66
747.158	20.74
747.339	20.34
747.52	19.48
747.702	19.81
747.883	19.38
748.064	19.84
748.245	18.97
748.426	19.26
748.607	18.85
748.788	19.34
748.97	19.28
749.151	20.05
749.332	19.83
749.513	20.3
749.694	20.47
749.875	20.33
750.056	19.58
750.237	20.14
750.418	19.87
750.599	19.71
750.78	19.27
750.96	19.08
751.141	19.28
751.322	19.69
751.503	19.74
751.684	19.29
751.865	19.18
752.046	18.89
752.226	18.52
752.407	18.48
752.588	19.15
752.769	19.11
752.949	18.77
753.13	18.17
753.311	17.65
753.492	17.01
753.672	17.82
753.853	17.33
754.034	17.32
754.214	17.74
754.395	18.31
754.575	17.83
754.756	18.15
754.937	18.66
755.117	19.68
755.298	20.18
755.478	21.3
755.659	20.92
755.839	21.17
756.02	22.02
756.2	21.51
756.381	20.59
756.561	20.61
756.741	20.47
756.922	20.12
757.102	19.51
757.283	19.62
757.463	18.95
757.643	19.28
757.823	19.64
758.004	19.16
758.184	19.33
758.364	20.22
758.545	19.9
758.725	19.79
758.905	20.39
759.085	20.62
759.265	20.12
759.446	20.05
759.626	19.94
759.806	19.31
759.986	19.16
760.166	19.03
760.346	18.37
760.526	18.44
760.706	18.68
760.886	18.55
761.066	17.91
761.246	17.69
761.426	18.02
761.606	17.86
761.786	18.13
761.966	18.57
762.146	19.09
762.326	19.97
762.506	19.73
762.686	19.39
762.866	19.28
763.046	19.45
763.225	19.96
763.405	19.43
763.585	18.92
763.765	19.04
763.945	18.92
764.124	18.65
764.304	18.11
764.484	18.47
764.664	18.77
764.843	19.08
765.023	18.96
765.203	18.81
765.382	18.92
765.562	19.61
765.741	19.87
765.921	20.38
766.101	20.68
766.28	21.05
766.46	21.11
766.639	20.54
766.819	20.45
766.998	20.37
767.178	20.03
767.357	20.61
767.537	20.09
767.716	19.95
767.896	19.21
768.075	18.32
768.254	17.52
768.434	17.98
768.613	18.13
768.792	17.79
768.972	18.08
769.151	18.05
769.33	17.64
769.51	18.14
769.689	18.15
769.868	18.37
770.047	19.12
770.226	20.27
770.406	19.3
770.585	19.59
770.764	19.82
770.943	20.32
771.122	20.05
771.301	19.7
771.48	19.32
771.66	19.34
771.839	19.37
772.018	18.73
772.197	18.18
772.376	18.87
772.555	19.18
772.734	19.26
772.913	17.87
773.092	18.5
773.271	17.81
773.449	17.92
773.628	17.67
773.807	16.95
773.986	17.68
774.165	16.94
774.344	15.73
774.523	15.4
774.701	15.1
774.88	15.01
775.059	15.43
775.238	16.11
775.417	15.92
775.595	16.09
775.774	16.53
775.953	15.63
776.131	16.63
776.31	17.21
776.489	16.9
776.667	17.63
776.846	18.87
777.025	18.92
777.203	18.84
777.382	19.39
777.56	19.13
777.739	19.54
777.917	20.24
778.096	20.63
778.274	20.46
778.453	20.73
778.631	19.38
778.81	19.44
778.988	19.28
779.166	19.95
779.345	19.79
779.523	19.66
779.702	19.75
779.88	20.05
780.058	18.86
780.237	20.13
780.415	19.61
780.593	20.01
780.771	20.25
780.95	20.16
781.128	18.91
781.306	18.72
781.484	18.92
781.662	18.4
781.841	17.72
782.019	16.78
782.197	15.79
782.375	16.14
782.553	16.42
782.731	16.25
782.909	15.97
783.087	17.45
783.265	18.07
783.443	18.85
783.621	20.05
783.799	19.89
783.977	20.66
784.155	20.37
784.333	21.39
784.511	21.08
784.689	21.19
784.867	20.29
785.045	20.5
785.223	20.64
785.4	20.39
785.578	19.75
785.756	19.4
785.934	19.84
786.112	19.86
786.289	18.48
786.467	19.21
786.645	17.89
786.823	18.28
787	17.88
787.178	16.85
787.356	16.63
787.533	16.82
787.711	17.72
787.889	17.39
788.066	18.39
788.244	18.38
788.421	18.24
788.599	19.67
788.776	20.57
788.954	19.98
789.131	21.27
789.309	20.85
789.486	20.85
789.664	19.97
789.841	20.07
790.019	19.45
790.196	19.65
790.373	19.55
790.551	19.22
790.728	19.33
790.906	19.96
791.083	19.12
791.26	19.18
791.437	18.43
791.615	19.46
791.792	20.64
791.969	20.64
792.146	21.74
792.324	21.76
792.501	20.93
792.678	19.74
792.855	20.2
793.032	19.23
793.209	19.99
793.387	19.65
793.564	19.37
793.741	18.01
793.918	17.7
794.095	17.17
794.272	16.94
794.449	17.06
794.626	17.97
794.803	17.37
794.98	17.22
795.157	16.86
795.334	17.24
795.511	16.34
795.688	16.79
795.864	16
796.041	16.52
796.218	15.79
796.395	16.68
796.572	16.6
796.749	16.05
796.925	16.69
797.102	16.79
797.279	17.06
797.456	18.13
797.632	18.87
797.809	19.43
797.986	19.9
798.162	21.29
798.339	20.68
798.516	21.84
798.692	21.93
798.869	21.9
799.046	21.44
799.222	21.77
799.399	21.33
799.575	21.69
799.752	21.99
799.928	22.17
800.105	22.09
800.281	21.37
800.458	19.43
800.634	20.33
800.811	21.01
800.987	21.7
801.163	20.97
801.34	20.76
801.516	19.59
801.692	19.34
801.869	17.63
802.045	16.26
802.221	17.35
802.398	18.17
802.574	17.54
802.75	16.84
802.926	17.18
803.103	16.99
803.279	17.2
803.455	17.67
803.631	16.56
803.807	16.95
803.983	18.07
804.16	18.1
804.336	17.54
804.512	17.26
804.688	17.27
804.864	16.83
805.04	17.76
805.216	17.76
805.392	18.36
805.568	20.52
805.744	20.3
805.92	19.7
806.096	18.99
806.272	18.53
806.448	17.88
806.623	18.07
806.799	18.23
806.975	18.36
807.151	18.77
807.327	17.07
807.503	16.25
807.678	15.37
807.854	15.54
808.03	16.65
808.206	17.59
808.381	18.29
808.557	18.13
808.733	17.25
808.908	15.82
809.084	15.73
809.26	16.47
809.435	15.59
809.611	15.59
809.787	17.13
809.962	15.59
810.138	15.86
810.313	16.46
810.489	15.72
810.664	17.21
810.84	17.78
811.015	18.51
811.191	17.75
811.366	19.45
811.542	19.11
811.717	19.2
811.892	20.87
812.068	20.76
812.243	21.59
812.419	23.49
812.594	21.61
812.769	21.85
812.944	20.83
813.12	21.51
813.295	21.26
813.47	21.3
813.645	20.13
813.821	18.21
813.996	18.94
814.171	17.55
814.346	16.5
814.521	18.61
814.697	19.18
814.872	17.76
815.047	18.04
815.222	18.18
815.397	21.73
815.572	22.84
815.747	25.05
815.922	23.37
816.097	22.13
816.272	21.67
816.447	20.96
816.622	19.95
816.797	21.23
816.972	20.68
817.147	21.33
817.322	18.55
817.496	16.92
817.671	15.3
817.846	15.64
818.021	17.79
818.196	18.23
818.371	18.23
818.545	19.26
818.72	18.27
818.895	18.26
819.069	17.43
819.244	17.59
819.419	17.61
819.594	17.69
819.768	18.77
819.943	17.66
820.117	17.11
820.292	16.91
820.467	16.9
820.641	18.12
820.816	17.78
820.99	17.62
821.165	18.28
821.339	18.02
821.514	18.04
821.688	17.46
821.863	17.53
822.037	17.58
822.212	17.61
822.386	17.6
822.56	17.41
822.735	17.55
822.909	17.44
823.084	16.97
823.258	17.04
823.432	16.93
823.606	17.14
823.781	17
823.955	17.21
824.129	17.13
824.303	17
824.478	17.03
824.652	16.97
824.826	17.21
825	17.54
825.174	17.51
825.348	17.72
825.523	17.32
825.697	17.9
825.871	17.23
826.045	17.46
826.219	17.22
826.393	17.01
826.567	17.02
826.741	16.92
826.915	16.65
827.089	17.01
827.263	16.67
827.437	16.65
827.611	16.92
827.784	17.28
827.958	17.05
828.132	17.56
828.306	17.97
828.48	17.51
828.654	17.6
828.827	18.29
829.001	18.11
829.175	18.2
829.349	19.25
829.522	18.58
829.696	18.96
829.87	19.23
830.044	19.3
830.217	19.42
830.391	20.71
830.565	20.46
830.738	19.39
830.912	19.27
831.085	19.87
831.259	18.16
831.432	17.68
831.606	18.14
831.779	18.66
831.953	18.68
832.126	18.34
832.3	17.97
832.473	18.37
832.647	17.89
832.82	18.7
832.994	18.13
833.167	18.38
833.34	18.24
833.514	17.61
833.687	16.96
833.86	16.2
834.034	16
834.207	16.1
834.38	15.53
834.553	15.95
834.727	15.57
834.9	15.76
835.073	15.77
835.246	16.6
835.419	17.15
835.593	16.87
835.766	16.68
835.939	16.48
836.112	16.25
836.285	17.66
836.458	18.06
836.631	18.34
836.804	18.25
836.977	18.31
837.15	17.85
837.323	16.28
837.496	17.57
837.669	19.21
837.842	19.97
838.015	20.82
838.188	20.43
838.361	20.11
838.533	18.24
838.706	19.48
838.879	19.1
839.052	19.64
839.225	20.52
839.398	20.79
839.57	21.26
839.743	21.56
839.916	21.06
840.088	21.07
840.261	21.15
840.434	22.81
840.607	21.72
840.779	21.68
840.952	21.56
841.124	21.3
841.297	20.52
841.47	17.71
841.642	16.75
841.815	17.83
841.987	17.59
842.16	17.56
842.332	18.49
842.505	20.85
842.677	23.56
842.85	22.42
843.022	22.15
843.194	22.44
843.367	25.16
843.539	26.72
843.712	25.38
843.884	23.93
844.056	22.1
844.229	22.18
844.401	19.99
844.573	17.01
844.745	17.83
844.918	18.28
845.09	14.91
845.262	15.28
845.434	11.48
845.606	14.06
845.779	16.97
845.951	19.19
846.123	17.03
846.295	19.13
846.467	17.29
846.639	20.39
846.811	19.55
846.983	24.39
847.155	24.71
847.327	27.11
847.499	25.09
847.671	22.39
847.843	22.82
848.015	24.5
848.187	25.1
848.359	26.01
848.531	21.28
848.703	23.78
848.875	22.21
849.047	20.45
849.218	18.04
849.39	17.92
849.562	18.72
849.734	19.39
849.905	18.45
850.077	18.35
850.249	18.43
850.421	20.3
850.592	21.21
850.764	23.33
850.936	26.74
851.107	28.17
851.279	23.62
851.451	24.92
851.622	27.85
851.794	27.82
851.965	29.08
852.137	30.72
852.308	31.75
852.48	27.54
852.651	24.09
852.823	23.22
852.994	24.38
853.166	29.33
853.337	29.06
853.509	24.98
853.68	22.73
853.851	18.53
854.023	18.01
854.194	20.1
854.365	25.42
854.537	29.75
854.708	28.13
854.879	32.84
855.05	33.21
855.222	32.08
855.393	30.36
855.564	28.51
855.735	26.54
855.906	23.91
856.078	19.76
856.249	18.87
856.42	12.61
856.591	16.26
856.762	15.04
856.933	11.82
857.104	12.5
857.275	14.13
857.446	18.84
857.617	20.33
857.788	22.9
857.959	22.63
858.13	21.94
858.301	26.66
858.472	27.31
858.643	23.46
858.814	18.98
858.985	15.23
859.155	12.01
859.326	11.62
859.497	12.75
859.668	6.42
859.839	8.14
860.009	11.22
860.18	12.83
860.351	7.84
860.522	8.12
860.692	16.42
860.863	14.44
861.034	17.64
861.204	20.38
861.375	13.49
861.546	20.05
861.716	18.33
861.887	15.86
862.057	14.78
862.228	15.32
862.398	14.62
862.569	9.51
862.739	15.24
862.91	19.49
863.08	16.34
863.251	22.1
863.421	19.31
863.592	22.09
863.762	18.77
863.932	15.82
864.103	18.01
864.273	20.3
864.443	21.19
864.614	19.55
864.784	16.78
864.954	13.71
865.125	16.74
865.295	8.93
865.465	12.17
865.635	14.62
865.805	16.62
865.976	16.75
866.146	19.96
866.316	20.87
866.486	21.11
866.656	22.51
866.826	25.84
866.996	22.69
867.166	30.69
867.336	22.15
867.506	20.18
867.676	23.15
867.846	23.17
868.016	20.18
868.186	18.7
868.356	21.28
868.526	20.43
868.696	17.59
868.866	16.24
869.036	17.38
869.206	22.93
869.376	22.67
869.545	20.18
869.715	21.54
869.885	25.29
870.055	26.35
870.224	26.39
870.394	25.53
870.564	28.87
870.734	34.02
870.903	35.61
871.073	34.24
871.243	38.04
871.412	39.37
871.582	35.08
871.751	28.12
871.921	23.53
872.091	21.54
872.26	19.68
872.43	16.71
872.599	15.18
872.769	11.65
872.938	8.63
873.108	4.64
873.277	4.2
873.446	5.4
873.616	5.43
873.785	12.41
873.955	10.8
874.124	6.42
874.293	6.52
874.463	6.16
874.632	6.87
874.801	11.48
874.971	11.54
875.14	4.42
875.309	0.12
875.478	10.54
875.647	7.56
875.817	15.99
875.986	15.01
876.155	13.37
876.324	14.41
876.493	10.35
876.662	10.6
876.831	12.93
877	15.56
877.17	19.33
877.339	14.38
877.508	14.81
877.677	7.77
877.846	15.14
878.015	15.44
878.184	14.98
878.352	15.88
878.521	19.51
878.69	20.22
878.859	19.15
879.028	19.02
879.197	20.55
879.366	18.92
879.534	18.73
879.703	16.61
879.872	17.14
880.041	15.03
880.21	14.97
880.378	14.3
880.547	14.28
880.716	14.18
880.884	13.66
881.053	12.25
881.222	14.14
881.39	13.82
881.559	13.92
881.727	14.13
881.896	15.24
882.065	15.99
882.233	15.46
882.402	14.61
882.57	14.42
882.739	14.86
882.907	15.89
883.076	14.37
883.244	14.79
883.412	15.07
883.581	15.31
883.749	14.91
883.918	14.71
884.086	14.85
884.254	15.74
884.423	16.14
884.591	15.89
884.759	14.67
884.927	16.66
885.096	16.11
885.264	15.65
885.432	16.26
885.6	15.85
885.769	15.68
885.937	15.44
886.105	15.19
886.273	16.8
886.441	16.79
886.609	18.66
886.777	15.61
886.945	17.13
887.113	17.37
887.281	16.57
887.449	16.47
887.617	20.32
887.785	22.47
887.953	24.7
888.121	23.96
888.289	22.58
888.457	23.66
888.625	26.29
888.793	31.87
888.961	32.93
889.129	30.61
889.296	28.34
889.464	24.88
889.632	24.54
889.8	21.95
889.967	21.45
890.135	26.82
