Data from 2938805__Reflection_01.txt Node
Date: Thu Mar 12 22:16:54 EDT 2015
User: robert
Spectrometer: USB4E03002
Autoset integration time: false
Trigger mode: 4
Integration Time (sec): 1.000000E-1
Scans to average: 10
Electric dark correction enabled: false
Nonlinearity correction enabled: false
Boxcar width: 5
Stray light correction enabled: false
XAxis mode: Wavelengths
Stop averaging: false
Number of Pixels in Spectrum: 3648
>>>>>Begin Spectral Data<<<<<
177.575	286.96
177.794	318.18
178.014	112.79
178.233	-16.67
178.452	-18.8
178.672	-125.2
178.891	2960
179.11	409.94
179.33	438.65
179.549	272.87
179.768	647.5
179.987	387.5
180.207	624.68
180.426	650
180.645	371.72
180.864	220.19
181.084	178.08
181.303	192.16
181.522	183.07
181.741	129.48
181.96	187.6
182.179	189.49
182.398	216.31
182.618	278.74
182.837	338.54
183.056	-1437.5
183.275	-51.55
183.494	-101.22
183.713	-114.87
183.932	-108.21
184.151	-57.04
184.37	-88.93
184.589	-196.89
184.808	-224.15
185.027	508.09
185.246	281.48
185.465	231.78
185.684	161.3
185.903	124.43
186.122	152.05
186.341	495.87
186.56	284.02
186.779	184.28
186.998	205.93
187.216	195.32
187.435	322.64
187.654	222.03
187.873	197.19
188.092	209.85
188.311	180.54
188.53	196.59
188.748	139.18
188.967	154.94
189.186	176.18
189.405	154.41
189.623	149.75
189.842	195.31
190.061	307.21
190.28	-1152.17
190.498	-2705.88
190.717	-844.44
190.936	765.63
191.154	659.52
191.373	414.14
191.592	246.62
191.81	295.97
192.029	269.53
192.248	280.55
192.466	224.75
192.685	244.26
192.904	350.36
193.122	415.43
193.341	472.32
193.559	283.33
193.778	5836.36
193.996	-260.24
194.215	-413.16
194.433	-543.09
194.652	-658.82
194.87	-277.86
195.089	-509.15
195.307	-1017.05
195.526	-15266.67
195.744	-630.3
195.963	-526.59
196.181	-634.07
196.399	-1017.78
196.618	-339.08
196.836	-168.99
197.055	-245.54
197.273	-1914.63
197.491	890.32
197.71	342.49
197.928	534.71
198.146	196.02
198.365	159.86
198.583	143.48
198.801	123.19
199.019	93.16
199.238	91.05
199.456	115.85
199.674	134.18
199.892	156.2
200.111	200.59
200.329	206.45
200.547	216.67
200.765	288.93
200.983	566.12
201.202	1825.71
201.42	914.12
201.638	1172.97
201.856	217.79
202.074	169.98
202.292	206.59
202.51	178.75
202.728	162.45
202.946	184.88
203.165	156.47
203.383	162.73
203.601	164.39
203.819	196.4
204.037	178.45
204.255	347.66
204.473	520
204.691	279.1
204.909	203.03
205.127	173.23
205.345	139.61
205.562	146.47
205.78	140.32
205.998	127.08
206.216	164.33
206.434	178.75
206.652	166.19
206.87	164.05
207.088	181.51
207.306	131.31
207.523	177.43
207.741	214.64
207.959	185.02
208.177	162.87
208.395	123.52
208.612	97.64
208.83	97.14
209.048	91.49
209.266	95.33
209.483	100.9
209.701	143.35
209.919	141.61
210.136	139.32
210.354	146.87
210.572	130.29
210.79	146.17
211.007	116.78
211.225	92.58
211.442	83.62
211.66	94.04
211.878	82.34
212.095	10.77
212.313	-2.88
212.53	-2.94
212.748	-0.14
212.966	5.9
213.183	14.04
213.401	28.8
213.618	20.67
213.836	28.33
214.053	14.7
214.271	15.09
214.488	82.97
214.705	91.81
214.923	86.39
215.14	90.11
215.358	95.91
215.575	103.67
215.793	90.5
216.01	94.07
216.227	96.87
216.445	95.26
216.662	83.95
216.879	96.2
217.097	87.65
217.314	74.73
217.531	91.75
217.749	89.33
217.966	81.45
218.183	76.7
218.4	84.68
218.618	79.19
218.835	77.76
219.052	75.08
219.269	72.22
219.487	74.89
219.704	70.16
219.921	54.99
220.138	34.79
220.355	31.51
220.572	33.1
220.79	31.18
221.007	33.62
221.224	35.68
221.441	40.72
221.658	37.35
221.875	35.76
222.092	38.03
222.309	38.69
222.526	43.63
222.743	52.75
222.96	50.25
223.177	43.32
223.394	41.84
223.611	39.51
223.828	34.19
224.045	30.95
224.262	34.11
224.479	33.54
224.696	29.93
224.913	32.99
225.13	22.92
225.347	24.48
225.564	21.21
225.781	21.13
225.997	18.57
226.214	18.92
226.431	17.57
226.648	13.92
226.865	14.36
227.082	14.56
227.298	10.38
227.515	12.37
227.732	9.71
227.949	10.92
228.165	10.2
228.382	9.72
228.599	9.88
228.816	10.51
229.032	10.41
229.249	10.22
229.466	10.41
229.682	11.11
229.899	10.67
230.116	11.95
230.332	11.7
230.549	11.75
230.765	13.38
230.982	13.38
231.199	13.17
231.415	13.08
231.632	13.16
231.848	12.38
232.065	13.18
232.281	13.35
232.498	11.85
232.714	10.62
232.931	12.63
233.147	9.88
233.364	9.56
233.58	9.37
233.797	9.54
234.013	8.75
234.23	8.87
234.446	8.97
234.662	10
234.879	10.31
235.095	10.93
235.312	9.89
235.528	11.62
235.744	11.7
235.961	11.99
236.177	11.56
236.393	11.74
236.61	12.31
236.826	10.79
237.042	10.18
237.258	9.44
237.475	10.45
237.691	9.56
237.907	8.72
238.123	8.69
238.339	9.06
238.556	10.34
238.772	11.23
238.988	11.86
239.204	12.12
239.42	12.61
239.636	13.46
239.853	11.91
240.069	11.59
240.285	11.12
240.501	10.48
240.717	9.65
240.933	9.13
241.149	9.46
241.365	9.28
241.581	9.46
241.797	8.99
242.013	8.88
242.229	9.35
242.445	9.39
242.661	9.55
242.877	9.68
243.093	9.94
243.309	10.32
243.525	10.13
243.741	9.82
243.957	9.76
244.173	10.11
244.388	10.03
244.604	10.42
244.82	10.5
245.036	10.6
245.252	9.98
245.468	9.33
245.683	8.58
245.899	7.96
246.115	7.66
246.331	7.48
246.547	7.11
246.762	7.45
246.978	6.77
247.194	6.68
247.409	6.49
247.625	6.83
247.841	6.89
248.057	7.18
248.272	7.35
248.488	7.54
248.703	7.71
248.919	7.72
249.135	7.27
249.35	8.33
249.566	8.36
249.782	8.23
249.997	8.04
250.213	8.67
250.428	7.64
250.644	7.4
250.859	8
251.075	7.92
251.29	8.33
251.506	8.85
251.721	8.31
251.937	8.79
252.152	9.27
252.368	8.88
252.583	9.08
252.798	9.6
253.014	9.85
253.229	9.33
253.445	9.68
253.66	9.82
253.875	9.41
254.091	9.13
254.306	8.68
254.521	8.08
254.737	8.71
254.952	7.69
255.167	8.36
255.383	8.52
255.598	8.18
255.813	6.87
256.028	7
256.244	7.37
256.459	8.13
256.674	8.29
256.889	7.77
257.104	7.82
257.32	8.07
257.535	7.62
257.75	6.99
257.965	6.93
258.18	7.2
258.395	7.11
258.61	6.59
258.826	6.16
259.041	5.94
259.256	6.31
259.471	6.25
259.686	6.15
259.901	6.1
260.116	6.18
260.331	6.09
260.546	6.1
260.761	6.08
260.976	6.45
261.191	6.47
261.406	6.5
261.621	6.46
261.836	6.3
262.05	6.25
262.265	6.19
262.48	6.75
262.695	6.72
262.91	6.91
263.125	6.61
263.34	6.12
263.555	6.85
263.769	7.17
263.984	7.79
264.199	8
264.414	7.86
264.629	7.3
264.843	6.48
265.058	6.75
265.273	6.57
265.488	7.11
265.702	7.16
265.917	6.74
266.132	6.52
266.346	6.15
266.561	6.1
266.776	6.92
266.99	7.07
267.205	7.3
267.42	7.28
267.634	6.73
267.849	6.39
268.063	5.89
268.278	6.07
268.492	6.39
268.707	6.39
268.922	6.39
269.136	5.75
269.351	5.73
269.565	5.64
269.78	5.9
269.994	6.57
270.209	6.68
270.423	7.3
270.637	6.79
270.852	6.32
271.066	5.87
271.281	5.85
271.495	5.46
271.709	6.01
271.924	6.05
272.138	5.85
272.353	5.52
272.567	5.5
272.781	5.22
272.996	5.39
273.21	5.51
273.424	5.86
273.638	6.2
273.853	6.42
274.067	5.75
274.281	5.6
274.495	5.38
274.71	5.54
274.924	5.22
275.138	5.39
275.352	5.39
275.566	4.96
275.781	5
275.995	4.86
276.209	5.28
276.423	5.47
276.637	5.12
276.851	5.4
277.065	5.22
277.279	5.44
277.493	5.56
277.707	5.41
277.921	6.06
278.135	5.9
278.349	5.53
278.563	5.51
278.777	5.83
278.991	6.49
279.205	6.33
279.419	6.47
279.633	6.31
279.847	5.95
280.061	6.16
280.275	6.13
280.489	6.47
280.703	6.62
280.917	6.36
281.131	6.42
281.344	6.17
281.558	6.08
281.772	6.39
281.986	6.41
282.2	6.6
282.414	6.53
282.627	6.23
282.841	5.93
283.055	5.52
283.269	5.4
283.482	5.41
283.696	5.37
283.91	5.66
284.123	5.35
284.337	5.39
284.551	5.41
284.764	5.25
284.978	5.05
285.192	5.12
285.405	5.46
285.619	5.51
285.833	5.31
286.046	5.34
286.26	5.46
286.473	5.61
286.687	5.67
286.9	5.47
287.114	5.43
287.327	5.61
287.541	5.6
287.754	5.51
287.968	5.77
288.181	5.78
288.395	5.48
288.608	5.26
288.822	5.2
289.035	4.93
289.248	5.22
289.462	5.49
289.675	5.61
289.889	5.51
290.102	5.39
290.315	5.4
290.529	5.34
290.742	5.88
290.955	5.79
291.169	5.62
291.382	5.58
291.595	5.4
291.808	5.42
292.022	5.42
292.235	5.71
292.448	5.75
292.661	5.78
292.875	6.14
293.088	5.9
293.301	5.72
293.514	5.97
293.727	6.29
293.94	6.37
294.153	6.09
294.367	6.29
294.58	6.28
294.793	6.48
295.006	6.42
295.219	6.05
295.432	6.33
295.645	6.58
295.858	6.35
296.071	6.54
296.284	6.32
296.497	6.55
296.71	6.4
296.923	6.02
297.136	5.96
297.349	5.92
297.562	6.1
297.775	5.74
297.988	6.05
298.201	6.2
298.414	6.05
298.626	6.21
298.839	6.15
299.052	5.96
299.265	6.17
299.478	6.01
299.691	6.16
299.903	6.06
300.116	6.11
300.329	5.68
300.542	5.61
300.755	5.49
300.967	5.47
301.18	5.39
301.393	5.73
301.605	5.91
301.818	6.15
302.031	6.04
302.243	6.29
302.456	6.68
302.669	6.76
302.881	7.01
303.094	7.1
303.307	7.05
303.519	7.13
303.732	7.17
303.944	6.84
304.157	6.61
304.37	6.81
304.582	6.69
304.795	6.68
305.007	6.99
305.22	6.99
305.432	7.03
305.645	7.37
305.857	7.51
306.069	7.51
306.282	7.71
306.494	7.8
306.707	7.71
306.919	7.7
307.132	7.44
307.344	7.26
307.556	7.34
307.769	7.32
307.981	6.96
308.193	7.04
308.406	7.18
308.618	7.12
308.83	7.21
309.043	7.15
309.255	6.99
309.467	7.06
309.679	6.98
309.892	7
310.104	7.05
310.316	7.16
310.528	7.31
310.74	7.2
310.953	7.5
311.165	7.61
311.377	7.76
311.589	7.86
311.801	7.75
312.013	7.67
312.225	7.52
312.437	7.52
312.649	7.58
312.862	7.22
313.074	7.44
313.286	7.06
313.498	7.09
313.71	7.1
313.922	7.09
314.134	7.29
314.346	7.2
314.558	7.2
314.77	7.35
314.982	7.49
315.193	7.3
315.405	7.07
315.617	7.54
315.829	7.48
316.041	7.51
316.253	7.7
316.465	7.76
316.677	7.88
316.888	7.99
317.1	7.74
317.312	7.43
317.524	7.99
317.736	8
317.947	8.13
318.159	8.31
318.371	8.26
318.583	8.4
318.794	8.51
319.006	8.81
319.218	9.19
319.43	9.65
319.641	9.98
319.853	10.04
320.064	10.24
320.276	10.12
320.488	9.67
320.699	10.05
320.911	9.78
321.123	9.5
321.334	9.64
321.546	9.62
321.757	9.53
321.969	9.81
322.18	9.65
322.392	9.67
322.603	9.17
322.815	9.86
323.026	9.26
323.238	9.78
323.449	10.21
323.661	9.77
323.872	9.53
324.083	9.48
324.295	9.12
324.506	8.77
324.718	8.51
324.929	9
325.14	8.68
325.352	8.81
325.563	8.47
325.774	8.32
325.986	8.53
326.197	8.59
326.408	8.69
326.62	9.23
326.831	9.44
327.042	9.68
327.253	9.66
327.464	9.65
327.676	9.96
327.887	10.43
328.098	10.6
328.309	10.45
328.52	10.69
328.732	10.42
328.943	10.23
329.154	10.28
329.365	10.41
329.576	10.44
329.787	10.62
329.998	10.47
330.209	10.59
330.42	10.74
330.631	11.08
330.842	11.08
331.053	11.46
331.264	11.56
331.475	11.84
331.686	11.87
331.897	11.85
332.108	11.99
332.319	11.86
332.53	11.65
332.741	11.73
332.952	11.64
333.163	11.56
333.374	11.73
333.585	11.36
333.795	11.41
334.006	10.93
334.217	11.03
334.428	11.19
334.639	11.19
334.849	10.85
335.06	10.78
335.271	10.91
335.482	11.12
335.692	11.04
335.903	11.28
336.114	11.25
336.325	11.76
336.535	11.63
336.746	11.73
336.957	11.91
337.167	12.08
337.378	12.1
337.589	12.14
337.799	12
338.01	11.89
338.22	11.73
338.431	11.88
338.642	11.46
338.852	11.27
339.063	11.1
339.273	10.75
339.484	10.6
339.694	10.26
339.905	9.72
340.115	9.58
340.326	9.65
340.536	9.89
340.746	9.66
340.957	9.82
341.167	10.01
341.378	10.02
341.588	10.26
341.799	10.39
342.009	10.6
342.219	11.17
342.43	11.03
342.64	10.66
342.85	10.63
343.061	10.58
343.271	10.67
343.481	10.6
343.691	10.37
343.902	10.18
344.112	10.17
344.322	10.1
344.532	9.93
344.743	10.02
344.953	10.31
345.163	10.18
345.373	10.24
345.583	9.99
345.793	9.93
346.004	10.26
346.214	10.35
346.424	10.11
346.634	10.18
346.844	10.38
347.054	10.23
347.264	10.38
347.474	10.3
347.684	9.95
347.894	10.33
348.104	10.71
348.314	10.36
348.524	10.38
348.734	10.6
348.944	10.47
349.154	9.96
349.364	10.24
349.574	10.14
349.784	10.41
349.994	10.58
350.204	10.39
350.413	10.29
350.623	10.55
350.833	10.59
351.043	10.5
351.253	10.44
351.463	10.76
351.672	10.51
351.882	10.34
352.092	9.88
352.302	10.06
352.511	10.2
352.721	10.09
352.931	9.88
353.141	9.87
353.35	10
353.56	9.82
353.77	9.85
353.979	10.03
354.189	10.28
354.399	10.5
354.608	10.31
354.818	10.43
355.027	10.27
355.237	10.31
355.447	10.16
355.656	10.1
355.866	10.19
356.075	10.01
356.285	9.88
356.494	9.59
356.704	9.48
356.913	9.5
357.123	9.14
357.332	9.29
357.542	9.25
357.751	9.42
357.96	9.56
358.17	9.38
358.379	9.6
358.589	9.77
358.798	9.68
359.007	9.83
359.217	9.8
359.426	9.73
359.635	9.53
359.845	9.56
360.054	9.33
360.263	8.92
360.472	9.21
360.682	8.87
360.891	8.61
361.1	8.65
361.309	8.45
361.519	8.62
361.728	8.85
361.937	8.67
362.146	8.43
362.355	8.48
362.564	8.61
362.774	8.48
362.983	8.47
363.192	8.65
363.401	8.69
363.61	8.69
363.819	8.4
364.028	8.35
364.237	8.56
364.446	8.65
364.655	8.69
364.864	8.75
365.073	8.64
365.282	8.86
365.491	8.8
365.7	8.83
365.909	8.82
366.118	8.82
366.327	8.76
366.536	8.72
366.745	8.84
366.954	8.64
367.162	8.58
367.371	8.64
367.58	8.64
367.789	8.52
367.998	8.49
368.207	8.71
368.415	8.82
368.624	8.79
368.833	9.04
369.042	8.97
369.25	9.11
369.459	9.06
369.668	8.88
369.877	8.74
370.085	8.6
370.294	8.5
370.503	8.46
370.711	8.64
370.92	8.87
371.129	8.56
371.337	8.54
371.546	8.53
371.754	8.49
371.963	8.55
372.171	8.69
372.38	8.84
372.589	8.66
372.797	8.43
373.006	8.29
373.214	7.94
373.423	8.02
373.631	8.06
373.84	8.26
374.048	8.38
374.256	8.41
374.465	8.42
374.673	8.29
374.882	8.55
375.09	8.62
375.298	8.25
375.507	8.14
375.715	8.17
375.923	8.14
376.132	7.85
376.34	7.83
376.548	7.87
376.757	7.94
376.965	7.97
377.173	7.7
377.381	7.83
377.59	7.95
377.798	8.02
378.006	8.08
378.214	7.92
378.423	7.98
378.631	7.87
378.839	7.82
379.047	7.63
379.255	7.68
379.463	7.82
379.671	7.68
379.879	7.82
380.088	7.92
380.296	7.9
380.504	7.86
380.712	7.7
380.92	7.8
381.128	7.96
381.336	7.91
381.544	7.89
381.752	7.98
381.96	7.88
382.168	7.9
382.376	7.93
382.584	7.71
382.791	7.84
382.999	7.95
383.207	7.79
383.415	7.62
383.623	7.57
383.831	7.41
384.039	7.39
384.247	7.76
384.454	7.59
384.662	7.5
384.87	7.5
385.078	7.41
385.285	7.39
385.493	7.45
385.701	7.46
385.909	7.35
386.116	7.29
386.324	7.17
386.532	6.9
386.739	6.95
386.947	6.9
387.155	7.01
387.362	7.02
387.57	6.92
387.778	6.96
387.985	7.09
388.193	7.03
388.4	7.24
388.608	7.25
388.816	7.19
389.023	7.24
389.231	7.28
389.438	6.97
389.646	6.81
389.853	7
390.061	6.95
390.268	6.76
390.475	6.93
390.683	6.95
390.89	6.99
391.098	6.84
391.305	6.65
391.512	6.55
391.72	6.74
391.927	6.73
392.135	6.71
392.342	6.64
392.549	6.61
392.756	6.47
392.964	6.44
393.171	6.51
393.378	6.55
393.586	6.63
393.793	6.74
394	6.62
394.207	6.85
394.414	6.73
394.622	6.97
394.829	6.99
395.036	7.03
395.243	6.91
395.45	6.99
395.657	7.12
395.864	7.08
396.072	6.74
396.279	6.77
396.486	6.7
396.693	6.66
396.9	6.39
397.107	6.46
397.314	6.44
397.521	6.43
397.728	6.29
397.935	6.17
398.142	6.02
398.349	6.3
398.556	6.3
398.763	6.18
398.97	6.28
399.177	6.27
399.383	6.17
399.59	6.29
399.797	6.33
400.004	6.24
400.211	6.29
400.418	6.54
400.625	6.5
400.831	6.66
401.038	6.7
401.245	6.7
401.452	6.69
401.658	6.78
401.865	6.64
402.072	6.57
402.279	6.68
402.485	6.61
402.692	6.57
402.899	6.7
403.105	6.61
403.312	6.62
403.519	6.47
403.725	6.49
403.932	6.48
404.138	6.48
404.345	6.42
404.552	6.24
404.758	6.33
404.965	6.23
405.171	6.12
405.378	5.92
405.584	5.9
405.791	5.97
405.997	5.94
406.204	5.93
406.41	6.04
406.617	6.06
406.823	6.24
407.029	6.2
407.236	6.1
407.442	6.1
407.649	6.33
407.855	6.33
408.061	6.46
408.268	6.47
408.474	6.44
408.68	6.23
408.887	6.32
409.093	6.26
409.299	6.34
409.505	6.45
409.712	6.44
409.918	6.43
410.124	6.48
410.33	6.35
410.537	6.46
410.743	6.38
410.949	6.62
411.155	6.57
411.361	6.55
411.567	6.47
411.773	6.46
411.98	6.42
412.186	6.2
412.392	6.14
412.598	6.28
412.804	6.25
413.01	6.31
413.216	6.07
413.422	6.06
413.628	5.9
413.834	5.98
414.04	5.94
414.246	5.89
414.452	6.05
414.658	6
414.864	5.92
415.07	5.8
415.275	5.77
415.481	5.9
415.687	5.99
415.893	6.09
416.099	5.97
416.305	5.94
416.511	6.04
416.716	5.9
416.922	5.9
417.128	5.79
417.334	5.83
417.539	5.78
417.745	5.7
417.951	5.64
418.157	5.55
418.362	5.54
418.568	5.55
418.774	5.46
418.979	5.52
419.185	5.46
419.391	5.48
419.596	5.44
419.802	5.43
420.008	5.39
420.213	5.9
420.419	5.93
420.624	5.86
420.83	5.88
421.035	5.89
421.241	5.92
421.446	5.98
421.652	5.91
421.857	5.93
422.063	5.98
422.268	6.03
422.474	5.54
422.679	5.56
422.885	5.62
423.09	5.63
423.295	5.55
423.501	5.51
423.706	5.47
423.911	5.51
424.117	5.5
424.322	5.49
424.527	5.49
424.733	5.44
424.938	5.4
425.143	5.35
425.349	5.35
425.554	5.45
425.759	5.41
425.964	5.45
426.169	5.43
426.375	5.44
426.58	5.45
426.785	5.44
426.99	5.59
427.195	5.62
427.4	5.72
427.605	5.64
427.811	5.73
428.016	5.84
428.221	5.77
428.426	5.8
428.631	5.87
428.836	5.81
429.041	5.76
429.246	5.67
429.451	5.77
429.656	5.66
429.861	5.79
430.066	5.76
430.271	5.76
430.476	5.91
430.681	5.96
430.886	5.83
431.09	5.89
431.295	5.91
431.5	5.89
431.705	5.94
431.91	5.96
432.115	5.94
432.32	5.9
432.524	5.85
432.729	5.7
432.934	5.64
433.139	5.66
433.343	5.67
433.548	5.63
433.753	5.66
433.958	5.59
434.162	5.62
434.367	5.61
434.572	5.61
434.776	5.6
434.981	5.71
435.186	5.65
435.39	5.65
435.595	5.64
435.799	5.73
436.004	5.68
436.209	5.59
436.413	5.55
436.618	5.4
436.822	5.31
437.027	5.22
437.231	5.19
437.436	5.21
437.64	5.32
437.845	5.32
438.049	5.29
438.253	5.26
438.458	5.31
438.662	5.32
438.867	5.37
439.071	5.34
439.275	5.44
439.48	5.42
439.684	5.49
439.888	5.34
440.093	5.28
440.297	5.32
440.501	5.32
440.706	5.29
440.91	5.25
441.114	5.26
441.318	5.28
441.523	5.27
441.727	5.3
441.931	5.38
442.135	5.48
442.339	5.49
442.543	5.49
442.748	5.44
442.952	5.55
443.156	5.64
443.36	5.63
443.564	5.7
443.768	5.7
443.972	5.63
444.176	5.53
444.38	5.47
444.584	5.5
444.788	5.49
444.992	5.5
445.196	5.4
445.4	5.38
445.604	5.37
445.808	5.39
446.012	5.28
446.216	5.27
446.42	5.23
446.624	5.29
446.828	5.21
447.032	5.28
447.235	5.32
447.439	5.32
447.643	5.3
447.847	5.34
448.051	5.3
448.254	5.33
448.458	5.32
448.662	5.28
448.866	5.27
449.069	5.38
449.273	5.25
449.477	5.31
449.681	5.35
449.884	5.37
450.088	5.35
450.292	5.35
450.495	5.46
450.699	5.5
450.902	5.65
451.106	5.65
451.31	5.59
451.513	5.65
451.717	5.6
451.92	5.64
452.124	5.65
452.327	5.62
452.531	5.64
452.734	5.7
452.938	5.68
453.141	5.62
453.345	5.58
453.548	5.57
453.752	5.49
453.955	5.5
454.158	5.47
454.362	5.49
454.565	5.56
454.769	5.62
454.972	5.6
455.175	5.6
455.379	5.51
455.582	5.48
455.785	5.51
455.988	5.6
456.192	5.64
456.395	5.65
456.598	5.67
456.801	5.6
457.005	5.52
457.208	5.4
457.411	5.37
457.614	5.38
457.817	5.43
458.021	5.36
458.224	5.29
458.427	5.23
458.63	5.2
458.833	5.18
459.036	5.26
459.239	5.19
459.442	5.27
459.645	5.27
459.848	5.36
460.051	5.32
460.254	5.38
460.457	5.38
460.66	5.39
460.863	5.41
461.066	5.38
461.269	5.32
461.472	5.45
461.675	5.54
461.878	5.63
462.081	5.62
462.284	5.64
462.486	5.65
462.689	5.62
462.892	5.65
463.095	5.66
463.298	5.62
463.5	5.66
463.703	5.59
463.906	5.54
464.109	5.5
464.311	5.55
464.514	5.66
464.717	5.69
464.92	5.79
465.122	5.81
465.325	5.74
465.528	5.87
465.73	5.82
465.933	5.85
466.135	5.7
466.338	5.7
466.541	5.64
466.743	5.68
466.946	5.59
467.148	5.68
467.351	5.69
467.553	5.84
467.756	5.82
467.958	5.77
468.161	5.82
468.363	5.84
468.566	5.91
468.768	5.96
468.971	5.89
469.173	5.87
469.375	5.84
469.578	5.68
469.78	5.62
469.983	5.55
470.185	5.65
470.387	5.62
470.59	5.65
470.792	5.61
470.994	5.67
471.196	5.64
471.399	5.69
471.601	5.76
471.803	5.86
472.005	5.78
472.208	5.78
472.41	5.81
472.612	5.73
472.814	5.78
473.016	5.7
473.218	5.62
473.421	5.62
473.623	5.62
473.825	5.47
474.027	5.5
474.229	5.49
474.431	5.62
474.633	5.76
474.835	5.76
475.037	5.71
475.239	5.77
475.441	5.74
475.643	5.84
475.845	5.86
476.047	5.9
476.249	5.94
476.451	5.9
476.653	5.84
476.855	5.6
477.057	5.71
477.258	5.76
477.46	5.7
477.662	5.67
477.864	5.5
478.066	5.54
478.268	5.52
478.469	5.44
478.671	5.57
478.873	5.45
479.075	5.56
479.276	5.47
479.478	5.43
479.68	5.45
479.882	5.52
480.083	5.55
480.285	5.52
480.487	5.53
480.688	5.49
480.89	5.37
481.091	5.42
481.293	5.37
481.495	5.36
481.696	5.36
481.898	5.31
482.099	5.31
482.301	5.34
482.502	5.32
482.704	5.3
482.905	5.27
483.107	5.25
483.308	5.25
483.51	5.25
483.711	5.23
483.913	5.2
484.114	5.25
484.315	5.23
484.517	5.23
484.718	5.2
484.92	5.2
485.121	5.24
485.322	5.26
485.524	5.28
485.725	5.28
485.926	5.3
486.127	5.31
486.329	5.27
486.53	5.25
486.731	5.2
486.932	5.23
487.134	5.21
487.335	5.2
487.536	5.23
487.737	5.22
487.938	5.25
488.139	5.26
488.341	5.29
488.542	5.29
488.743	5.32
488.944	5.38
489.145	5.38
489.346	5.42
489.547	5.41
489.748	5.41
489.949	5.44
490.15	5.41
490.351	5.38
490.552	5.38
490.753	5.4
490.954	5.34
491.155	5.36
491.356	5.41
491.557	5.41
491.758	5.44
491.959	5.43
492.159	5.42
492.36	5.44
492.561	5.45
492.762	5.51
492.963	5.59
493.164	5.72
493.364	5.78
493.565	5.78
493.766	5.87
493.967	5.85
494.167	5.88
494.368	5.89
494.569	5.95
494.769	5.96
494.97	5.9
495.171	5.87
495.371	5.79
495.572	5.8
495.773	5.78
495.973	5.65
496.174	5.69
496.375	5.77
496.575	5.71
496.776	5.7
496.976	5.76
497.177	5.75
497.377	5.7
497.578	5.66
497.778	5.61
497.979	5.59
498.179	5.77
498.38	5.74
498.58	5.67
498.78	5.77
498.981	5.74
499.181	5.75
499.382	5.84
499.582	5.9
499.782	6.07
499.983	6.12
500.183	6.18
500.383	6.11
500.584	6.22
500.784	6.3
500.984	6.36
501.184	6.44
501.385	6.45
501.585	6.37
501.785	6.32
501.985	6.26
502.185	6.24
502.386	6.32
502.586	6.3
502.786	6.24
502.986	6.22
503.186	6.19
503.386	6.09
503.586	6.12
503.786	6.3
503.987	6.4
504.187	6.36
504.387	6.31
504.587	6.27
504.787	6.31
504.987	6.4
505.187	6.38
505.387	6.33
505.587	6.41
505.786	6.46
505.986	6.3
506.186	6.29
506.386	6.31
506.586	6.39
506.786	6.42
506.986	6.43
507.186	6.36
507.386	6.39
507.585	6.46
507.785	6.46
507.985	6.45
508.185	6.47
508.384	6.43
508.584	6.47
508.784	6.57
508.984	6.58
509.183	6.62
509.383	6.7
509.583	6.75
509.782	6.75
509.982	6.82
510.182	6.84
510.381	6.93
510.581	7.02
510.781	7.02
510.98	6.94
511.18	6.96
511.379	6.96
511.579	6.88
511.778	6.91
511.978	6.95
512.177	6.98
512.377	6.98
512.576	6.96
512.776	6.98
512.975	7.02
513.175	7.07
513.374	7.12
513.573	7.22
513.773	7.44
513.972	7.52
514.172	7.58
514.371	7.59
514.57	7.69
514.77	7.71
514.969	7.79
515.168	7.78
515.367	7.83
515.567	7.8
515.766	7.73
515.965	7.64
516.164	7.6
516.364	7.64
516.563	7.71
516.762	7.72
516.961	7.79
517.16	7.76
517.359	7.81
517.559	7.76
517.758	7.81
517.957	7.82
518.156	7.88
518.355	7.91
518.554	7.87
518.753	7.87
518.952	7.88
519.151	7.92
519.35	7.89
519.549	7.96
519.748	8.04
519.947	8.07
520.146	8.17
520.345	8.2
520.544	8.26
520.743	8.37
520.942	8.46
521.141	8.49
521.339	8.52
521.538	8.66
521.737	8.57
521.936	8.65
522.135	8.63
522.333	8.63
522.532	8.8
522.731	8.85
522.93	8.86
523.129	8.93
523.327	8.93
523.526	8.94
523.725	8.91
523.923	9.01
524.122	8.99
524.321	9.07
524.519	9.1
524.718	9.06
524.917	9.08
525.115	9.08
525.314	9.12
525.512	9.22
525.711	9.21
525.909	9.26
526.108	9.29
526.306	9.3
526.505	9.34
526.703	9.38
526.902	9.37
527.1	9.34
527.299	9.39
527.497	9.41
527.696	9.39
527.894	9.44
528.092	9.48
528.291	9.5
528.489	9.54
528.688	9.59
528.886	9.61
529.084	9.64
529.283	9.72
529.481	9.77
529.679	9.8
529.877	9.91
530.076	10
530.274	10.08
530.472	10.15
530.67	10.22
530.869	10.28
531.067	10.39
531.265	10.51
531.463	10.59
531.661	10.65
531.859	10.69
532.057	10.69
532.255	10.69
532.454	10.73
532.652	10.82
532.85	10.86
533.048	10.9
533.246	10.91
533.444	10.89
533.642	10.9
533.84	10.95
534.038	11.02
534.236	11.06
534.434	11.14
534.632	11.19
534.83	11.22
535.027	11.32
535.225	11.38
535.423	11.45
535.621	11.52
535.819	11.58
536.017	11.59
536.215	11.62
536.412	11.66
536.61	11.72
536.808	11.7
537.006	11.8
537.203	11.9
537.401	12.01
537.599	12.06
537.797	12.16
537.994	12.29
538.192	12.43
538.39	12.47
538.587	12.6
538.785	12.63
538.983	12.78
539.18	12.81
539.378	12.78
539.575	12.79
539.773	12.87
539.97	12.87
540.168	12.9
540.366	12.96
540.563	13.03
540.761	13
540.958	13.02
541.155	13.01
541.353	13.08
541.55	13.17
541.748	13.18
541.945	13.26
542.143	13.35
542.34	13.46
542.537	13.46
542.735	13.54
542.932	13.67
543.129	13.8
543.327	13.95
543.524	14.02
543.721	14.12
543.919	14.22
544.116	14.33
544.313	14.46
544.51	14.54
544.708	14.69
544.905	14.79
545.102	14.92
545.299	15.01
545.496	15.14
545.693	15.25
545.891	15.31
546.088	15.37
546.285	15.43
546.482	15.42
546.679	15.47
546.876	15.48
547.073	15.55
547.27	15.6
547.467	15.65
547.664	15.68
547.861	15.73
548.058	15.8
548.255	15.95
548.452	16.06
548.649	16.18
548.846	16.26
549.043	16.37
549.24	16.52
549.437	16.55
549.633	16.65
549.83	16.67
550.027	16.68
550.224	16.8
550.421	16.84
550.618	16.84
550.814	16.93
551.011	16.97
551.208	17.05
551.405	17.08
551.601	17.26
551.798	17.38
551.995	17.55
552.191	17.64
552.388	17.7
552.585	17.74
552.781	17.79
552.978	17.84
553.175	17.91
553.371	18.07
553.568	18.1
553.764	18.18
553.961	18.34
554.157	18.42
554.354	18.53
554.55	18.57
554.747	18.74
554.943	18.8
555.14	19.01
555.336	19.14
555.533	19.16
555.729	19.31
555.926	19.39
556.122	19.34
556.318	19.38
556.515	19.46
556.711	19.5
556.907	19.62
557.104	19.8
557.3	19.74
557.496	19.72
557.693	19.82
557.889	19.84
558.085	19.94
558.281	20.09
558.478	20.06
558.674	20.12
558.87	20.23
559.066	20.27
559.262	20.35
559.459	20.54
559.655	20.71
559.851	20.84
560.047	20.91
560.243	21.01
560.439	21.15
560.635	21.27
560.831	21.25
561.027	21.44
561.223	21.56
561.419	21.61
561.615	21.56
561.811	21.57
562.007	21.61
562.203	21.68
562.399	21.66
562.595	21.52
562.791	21.7
562.987	21.96
563.183	21.95
563.379	21.99
563.575	22.08
563.771	22.14
563.966	22.27
564.162	22.41
564.358	22.57
564.554	22.7
564.75	22.91
564.945	22.97
565.141	23.12
565.337	23.18
565.533	23.24
565.728	23.32
565.924	23.48
566.12	23.58
566.315	23.66
566.511	23.7
566.707	23.65
566.902	23.78
567.098	23.9
567.293	23.85
567.489	23.99
567.684	24.11
567.88	24.18
568.076	24.35
568.271	24.33
568.467	24.33
568.662	24.6
568.858	24.81
569.053	24.81
569.248	24.72
569.444	24.84
569.639	24.86
569.835	24.92
570.03	25.02
570.225	24.96
570.421	25.04
570.616	25.09
570.812	25.06
571.007	25.13
571.202	25.22
571.397	25.27
571.593	25.37
571.788	25.5
571.983	25.63
572.178	25.63
572.374	25.73
572.569	25.77
572.764	25.94
572.959	25.9
573.154	25.94
573.35	26.09
573.545	26.26
573.74	26.27
573.935	26.3
574.13	26.43
574.325	26.47
574.52	26.61
574.715	26.67
574.91	26.69
575.105	26.72
575.3	26.81
575.495	26.82
575.69	26.93
575.885	27.06
576.08	27.18
576.275	27.15
576.47	27.37
576.665	27.36
576.86	27.56
577.055	27.64
577.25	27.91
577.444	27.99
577.639	27.99
577.834	28.04
578.029	28.19
578.224	28.23
578.418	28.29
578.613	28.3
578.808	28.4
579.003	28.46
579.197	28.5
579.392	28.54
579.587	28.61
579.781	28.75
579.976	28.83
580.171	28.74
580.365	28.73
580.56	28.94
580.755	29.06
580.949	29.1
581.144	29.15
581.338	29.17
581.533	29.21
581.727	29.12
581.922	29.11
582.116	29.11
582.311	29.15
582.505	29.11
582.7	29.12
582.894	29
583.089	29.1
583.283	29.16
583.478	29.32
583.672	29.3
583.866	29.51
584.061	29.54
584.255	29.59
584.449	29.73
584.644	29.83
584.838	29.73
585.032	29.91
585.226	29.79
585.421	29.96
585.615	29.92
585.809	30.09
586.003	30.15
586.198	30.18
586.392	30.27
586.586	30.23
586.78	30.41
586.974	30.58
587.168	30.45
587.363	30.46
587.557	30.37
587.751	30.42
587.945	30.22
588.139	30.36
588.333	30.46
588.527	30.45
588.721	30.42
588.915	30.43
589.109	30.47
589.303	30.66
589.497	30.78
589.691	30.8
589.885	30.79
590.079	30.96
590.273	30.82
590.466	30.82
590.66	30.8
590.854	30.94
591.048	30.96
591.242	30.99
591.436	31.05
591.629	31.12
591.823	31.05
592.017	31.24
592.211	31.31
592.404	31.49
592.598	31.52
592.792	31.61
592.986	31.56
593.179	31.66
593.373	31.57
593.567	31.42
593.76	31.52
593.954	31.57
594.147	31.58
594.341	31.56
594.535	31.31
594.728	31.29
594.922	31.26
595.115	31.35
595.309	31.23
595.502	31.22
595.696	31.3
595.889	31.31
596.083	31.37
596.276	31.33
596.47	31.24
596.663	31.35
596.856	31.43
597.05	31.51
597.243	31.56
597.437	31.69
597.63	31.76
597.823	31.71
598.017	31.67
598.21	31.73
598.403	31.7
598.596	31.84
598.79	32.06
598.983	32
599.176	32.05
599.369	32.03
599.563	31.94
599.756	31.98
599.949	32.12
600.142	32.13
600.335	32.1
600.528	32.13
600.722	32.1
600.915	31.97
601.108	32.14
601.301	32.13
601.494	32.11
601.687	32.07
601.88	32.03
602.073	32.07
602.266	32.07
602.459	32.04
602.652	32.04
602.845	32.21
603.038	32.23
603.231	32.15
603.424	32.05
603.617	32.03
603.809	32.13
604.002	32.11
604.195	32.1
604.388	32.22
604.581	32.37
604.774	32.5
604.966	32.42
605.159	32.44
605.352	32.36
605.545	32.43
605.737	32.46
605.93	32.45
606.123	32.61
606.316	32.68
606.508	32.63
606.701	32.64
606.894	32.67
607.086	32.8
607.279	33.03
607.471	33.25
607.664	33.48
607.857	33.77
608.049	33.96
608.242	34.14
608.434	34.35
608.627	34.58
608.819	34.78
609.012	35.02
609.204	35.4
609.397	35.68
609.589	36.18
609.782	36.58
609.974	37.06
610.166	37.6
610.359	38.11
610.551	38.49
610.743	38.86
610.936	39.32
611.128	39.52
611.32	39.61
611.513	39.64
611.705	39.64
611.897	39.57
612.09	39.44
612.282	39.11
612.474	38.82
612.666	38.69
612.858	38.4
613.051	38.06
613.243	37.91
613.435	37.64
613.627	37.6
613.819	37.42
614.011	37.33
614.203	37.07
614.395	37.03
614.588	36.87
614.78	36.64
614.972	36.55
615.164	36.32
615.356	36.15
615.548	36.12
615.74	35.95
615.932	35.62
616.124	35.42
616.315	35.18
616.507	35.03
616.699	34.8
616.891	34.54
617.083	34.34
617.275	34.14
617.467	34.08
617.659	34.23
617.85	34.19
618.042	34.33
618.234	34.27
618.426	34.21
618.618	34.13
618.809	34.03
619.001	34.17
619.193	34.19
619.384	34.24
619.576	34
619.768	33.82
619.959	33.51
620.151	33.46
620.343	33.45
620.534	33.66
620.726	33.67
620.917	33.76
621.109	33.8
621.301	33.99
621.492	34.29
621.684	34.62
621.875	34.63
622.067	34.81
622.258	34.74
622.45	34.82
622.641	34.74
622.832	34.71
623.024	34.87
623.215	34.81
623.407	34.67
623.598	34.52
623.789	34.45
623.981	34.4
624.172	34.4
624.363	34.53
624.555	34.57
624.746	34.4
624.937	34.4
625.129	34.29
625.32	34.32
625.511	34.23
625.702	34.15
625.893	34.04
626.085	33.97
626.276	33.94
626.467	33.93
626.658	33.79
626.849	33.92
627.04	33.9
627.231	33.92
627.422	33.95
627.614	34.1
627.805	34.19
627.996	34.28
628.187	34.4
628.378	34.38
628.569	34.49
628.76	34.65
628.951	34.77
629.142	34.9
629.332	34.88
629.523	34.92
629.714	35.03
629.905	35.25
630.096	35.4
630.287	35.58
630.478	35.66
630.669	35.6
630.859	35.71
631.05	35.56
631.241	35.54
631.432	35.51
631.623	35.5
631.813	35.34
632.004	34.99
632.195	34.88
632.385	34.56
632.576	34.61
632.767	34.48
632.957	34.17
633.148	34.26
633.339	34.29
633.529	34.36
633.72	34.33
633.91	34.32
634.101	34.3
634.292	34.12
634.482	34.22
634.673	34
634.863	34.08
635.054	34.09
635.244	33.88
635.435	33.69
635.625	33.68
635.815	33.85
636.006	33.82
636.196	34.01
636.387	34.07
636.577	34.13
636.767	34.42
636.958	34.4
637.148	34.41
637.338	34.58
637.529	34.63
637.719	34.55
637.909	34.35
638.099	34.35
638.29	34.17
638.48	34.35
638.67	34.26
638.86	34.23
639.05	34.32
639.241	34.46
639.431	34.3
639.621	34.31
639.811	34.41
640.001	34.32
640.191	34.35
640.381	34.47
640.571	34.31
640.761	34.43
640.951	34
641.141	33.98
641.331	33.85
641.521	33.82
641.711	33.84
641.901	33.86
642.091	33.96
642.281	34.07
642.471	33.94
642.661	33.86
642.851	33.63
643.041	34.04
643.231	33.99
643.42	34.03
643.61	34.34
643.8	34.31
643.99	34.18
644.18	34.06
644.369	33.97
644.559	34.04
644.749	34.11
644.939	34.08
645.128	34.09
645.318	34.02
645.508	34.33
645.697	34.13
645.887	34.24
646.076	34.37
646.266	34.31
646.456	34.54
646.645	34.65
646.835	34.81
647.024	34.89
647.214	34.98
647.403	35.03
647.593	34.87
647.782	34.76
647.972	34.77
648.161	34.72
648.351	34.77
648.54	34.7
648.73	34.66
648.919	34.6
649.108	34.77
649.298	34.56
649.487	34.7
649.677	34.49
649.866	34.65
650.055	34.54
650.244	34.4
650.434	34.51
650.623	34.53
650.812	34.73
651.002	34.83
651.191	34.72
651.38	34.82
651.569	34.89
651.758	34.98
651.947	35.17
652.137	35.13
652.326	35.43
652.515	35.37
652.704	35.24
652.893	34.77
653.082	34.58
653.271	34.82
653.46	34.71
653.649	34.41
653.838	34.37
654.027	34.15
654.216	34.21
654.405	33.92
654.594	33.95
654.783	34
654.972	34.17
655.161	34.45
655.35	34.13
655.539	34.34
655.728	34.25
655.916	34.33
656.105	34.37
656.294	34.47
656.483	34.75
656.672	34.87
656.86	34.52
657.049	34.66
657.238	34.39
657.427	34.44
657.615	34.07
657.804	34.1
657.993	34.15
658.181	33.99
658.37	33.68
658.559	33.61
658.747	33.54
658.936	33.69
659.125	33.61
659.313	33.76
659.502	33.73
659.69	34.05
659.879	34.15
660.067	34.18
660.256	34.32
660.444	34.39
660.633	34.63
660.821	34.61
661.01	34.86
661.198	34.72
661.387	34.7
661.575	34.78
661.763	34.55
661.952	34.47
662.14	34.32
662.328	34.46
662.517	34.75
662.705	34.38
662.893	34.33
663.082	34.19
663.27	34.72
663.458	34.55
663.646	34.43
663.834	34.69
664.023	34.86
664.211	34.93
664.399	34.8
664.587	34.75
664.775	34.64
664.963	34.75
665.152	34.67
665.34	34.28
665.528	34.31
665.716	34.64
665.904	34.55
666.092	34.67
666.28	34.57
666.468	34.34
666.656	34.29
666.844	34.7
667.032	34.53
667.22	34.62
667.408	34.7
667.596	34.66
667.784	34.43
667.971	34.39
668.159	34.14
668.347	34.43
668.535	34.71
668.723	34.81
668.911	34.36
669.098	34.41
669.286	34.38
669.474	34.24
669.662	34.5
669.849	34.65
670.037	34.71
670.225	34.88
670.413	34.71
670.6	34.3
670.788	34.25
670.976	34.65
671.163	34.63
671.351	34.61
671.538	34.88
671.726	34.69
671.913	34.55
672.101	34.21
672.289	33.95
672.476	33.63
672.664	34.04
672.851	34.07
673.039	33.91
673.226	34.05
673.413	34.17
673.601	33.94
673.788	34.03
673.976	33.95
674.163	34.15
674.35	34.51
674.538	34.86
674.725	34.76
674.912	34.65
675.1	34.53
675.287	34.32
675.474	34.19
675.662	34.11
675.849	34.16
676.036	34.2
676.223	34.09
676.411	33.97
676.598	33.93
676.785	33.91
676.972	33.69
677.159	33.86
677.346	33.91
677.533	33.84
677.721	33.73
677.908	33.65
678.095	33.89
678.282	33.96
678.469	33.82
678.656	33.77
678.843	33.81
679.03	33.97
679.217	34.03
679.404	34.19
679.591	34.09
679.778	34.23
679.964	34.12
680.151	34.12
680.338	34.16
680.525	33.99
680.712	33.99
680.899	34.04
681.086	33.91
681.272	33.6
681.459	33.36
681.646	33.46
681.833	33.42
682.02	33.38
682.206	33.09
682.393	33.04
682.58	33.25
682.766	33.48
682.953	33.6
683.14	33.78
683.326	34.26
683.513	34.35
683.7	34.21
683.886	34.18
684.073	34.22
684.259	34.5
684.446	34.47
684.632	34.31
684.819	33.85
685.005	33.98
685.192	34.05
685.378	33.92
685.565	34.13
685.751	34.52
685.938	34.61
686.124	34.45
686.31	34.46
686.497	34.57
686.683	34.8
686.87	35.19
687.056	34.82
687.242	34.93
687.429	34.72
687.615	34.69
687.801	34.68
687.987	34.85
688.174	35.16
688.36	35.04
688.546	35.08
688.732	35.3
688.918	35.22
689.105	35.06
689.291	34.89
689.477	34.81
689.663	34.88
689.849	34.88
690.035	34.81
690.221	34.71
690.407	34.76
690.593	34.63
690.779	34.24
690.965	34.29
691.151	34.28
691.337	34.36
691.523	34.58
691.709	34.46
691.895	34.55
692.081	34.62
692.267	34.6
692.453	34.24
692.639	34.1
692.825	34.57
693.011	34.36
693.196	34.65
693.382	34.7
693.568	34.5
693.754	34.31
693.94	34.16
694.125	33.79
694.311	33.95
694.497	34.05
694.682	34.28
694.868	34.1
695.054	34.17
695.239	34.21
695.425	34.13
695.611	34.28
695.796	34.34
695.982	34.2
696.168	34.5
696.353	34.28
696.539	34.13
696.724	33.98
696.91	33.9
697.095	33.88
697.281	33.88
697.466	33.93
697.652	33.66
697.837	33.57
698.023	33.39
698.208	33.15
698.393	32.9
698.579	32.93
698.764	32.87
698.949	32.76
699.135	32.69
699.32	32.55
699.505	32.38
699.691	32.47
699.876	32.7
700.061	32.94
700.246	33.07
700.432	33.43
700.617	33.5
700.802	33.59
700.987	33.74
701.172	33.8
701.358	33.96
701.543	33.69
701.728	33.73
701.913	33.4
702.098	33.19
702.283	33.25
702.468	33.37
702.653	33.62
702.838	33.81
703.023	33.46
703.208	33.3
703.393	33.39
703.578	33.62
703.763	33.79
703.948	34.02
704.133	34.35
704.318	34.39
704.503	33.97
704.688	34.18
704.873	34.1
705.057	34.4
705.242	34.2
705.427	34.22
705.612	34.92
705.797	35.1
705.981	34.93
706.166	34.61
706.351	34.82
706.536	35.28
706.72	35.2
706.905	35.2
707.09	35.15
707.274	35.63
707.459	35.48
707.644	35.39
707.828	35.4
708.013	35.78
708.197	35.99
708.382	36.42
708.567	36.16
708.751	35.83
708.936	36.13
709.12	36.36
709.305	36.31
709.489	36.35
709.673	35.89
709.858	35.77
710.042	35.63
710.227	35.8
710.411	35.17
710.596	35.47
710.78	35.4
710.964	35.06
711.149	34.98
711.333	34.89
711.517	34.86
711.702	34.95
711.886	34.92
712.07	34.85
712.254	34.58
712.438	34.7
712.623	34.45
712.807	34.53
712.991	34.83
713.175	34.76
713.359	34.7
713.544	34.39
713.728	34.52
713.912	34.22
714.096	34.35
714.28	34.3
714.464	34.22
714.648	33.96
714.832	33.88
715.016	33.27
715.2	33.27
715.384	33.13
715.568	33.33
715.752	33.07
715.936	33.31
716.12	33.07
716.304	33.39
716.488	33.01
716.671	33.39
716.855	33.33
717.039	33.69
717.223	33.52
717.407	34.1
717.59	34.24
717.774	34.49
717.958	34.7
718.142	34.55
718.325	33.72
718.509	34.27
718.693	34
718.877	34.19
719.06	33.82
719.244	33.35
719.428	32.43
719.611	32.06
719.795	31.77
719.978	31.17
720.162	31.47
720.345	31.87
720.529	31.36
720.713	31.39
720.896	31.19
721.08	31.35
721.263	31.76
721.446	32.25
721.63	32.47
721.813	32.32
721.997	32.34
722.18	32.48
722.364	32.23
722.547	32.9
722.73	32.93
722.914	33.14
723.097	33.26
723.28	33.43
723.464	33.23
723.647	32.95
723.83	33.12
724.013	33.53
724.197	32.98
724.38	33.2
724.563	33.04
724.746	32.47
724.929	32.31
725.112	32.18
725.296	32.34
725.479	32.53
725.662	32.67
725.845	32.81
726.028	32.98
726.211	32.89
726.394	33.09
726.577	32.8
726.76	33.41
726.943	33.48
727.126	33.54
727.309	33.26
727.492	33.35
727.675	33.22
727.858	33.13
728.041	32.47
728.224	32.67
728.407	32.67
728.589	32.24
728.772	31.96
728.955	32.13
729.138	32.58
729.321	32.76
729.503	32.58
729.686	32.68
729.869	32.65
730.052	32.74
730.234	32.61
730.417	32.61
730.6	33.02
730.782	33.11
730.965	32.33
731.148	32.03
731.33	31.84
731.513	32.3
731.695	32.07
731.878	32.14
732.061	32.07
732.243	32.53
732.426	32.31
732.608	32.31
732.791	32.7
732.973	33.25
733.156	33.1
733.338	33.19
733.52	32.75
733.703	32.96
733.885	33.12
734.068	33.3
734.25	32.86
734.432	33.2
734.615	33.32
734.797	33.09
734.979	32.62
735.162	32.41
735.344	32.36
735.526	32.51
735.708	32.63
735.891	32.09
736.073	32.57
736.255	33.15
736.437	33
736.619	32.52
736.802	32.61
736.984	33.52
737.166	33.82
737.348	34.07
737.53	34.18
737.712	34.12
737.894	34.65
738.076	34.47
738.258	34.33
738.44	34.08
738.622	34.3
738.804	34.42
738.986	33.99
739.168	34.16
739.35	33.63
739.532	33.32
739.714	33.28
739.896	33.53
740.078	33.32
740.259	33.27
740.441	33.18
740.623	33.31
740.805	33.06
740.987	33.31
741.168	33.22
741.35	34.12
741.532	34.24
741.714	33.89
741.895	33.4
742.077	33.44
742.259	33.11
742.44	33.86
742.622	33.75
742.804	33.61
742.985	33.16
743.167	32.67
743.348	32.07
743.53	32.27
743.711	32.36
743.893	31.9
744.075	31.82
744.256	31.93
744.438	31.22
744.619	31.17
744.8	31.1
744.982	31.39
745.163	31.51
745.345	31.14
745.526	30.75
745.707	31.66
745.889	32.24
746.07	31.95
746.252	31.72
746.433	32.22
746.614	32.71
746.795	32.27
746.977	32.38
747.158	32.75
747.339	32.77
747.52	32.64
747.702	31.57
747.883	30.81
748.064	31.67
748.245	32.28
748.426	31.98
748.607	31.24
748.788	31.4
748.97	31.09
749.151	31.13
749.332	31.34
749.513	32.4
749.694	32.79
749.875	33.34
750.056	33.71
750.237	33.43
750.418	33.99
750.599	34.5
750.78	35.07
750.96	35.14
751.141	34.78
751.322	34.53
751.503	34.25
751.684	34.66
751.865	34.35
752.046	33.7
752.226	33.18
752.407	32.52
752.588	31.89
752.769	31.49
752.949	31.8
753.13	32.41
753.311	33.06
753.492	32.14
753.672	31.4
753.853	32.49
754.034	32.13
754.214	32.59
754.395	32.85
754.575	33.14
754.756	33.43
754.937	32.9
755.117	33.18
755.298	33.3
755.478	32.98
755.659	33.25
755.839	32.6
756.02	32.87
756.2	32.81
756.381	32
756.561	31.9
756.741	31.81
756.922	32.32
757.102	31.66
757.283	30.94
757.463	31.64
757.643	31.89
757.823	31.7
758.004	31.21
758.184	31.35
758.364	31.8
758.545	32.08
758.725	32.44
758.905	31.4
759.085	31.25
759.265	31.26
759.446	31.04
759.626	31.06
759.806	31.3
759.986	31.76
760.166	31.65
760.346	32.3
760.526	31.99
760.706	31.65
760.886	32.27
761.066	32.41
761.246	32.7
761.426	33.02
761.606	32.8
761.786	33.01
761.966	32.67
762.146	32.5
762.326	32.24
762.506	32.21
762.686	31.97
762.866	32.15
763.046	32.07
763.225	32.13
763.405	31.93
763.585	31.83
763.765	31.24
763.945	31.14
764.124	30.83
764.304	30.7
764.484	30.7
764.664	30.59
764.843	30.59
765.023	30.71
765.203	30.74
765.382	30.85
765.562	30.97
765.741	31.31
765.921	31.55
766.101	32.21
766.28	32
766.46	31.69
766.639	31.94
766.819	32.62
766.998	32.71
767.178	32.15
767.357	32.12
767.537	31.85
767.716	31.9
767.896	32.27
768.075	32.36
768.254	32.71
768.434	33.65
768.613	33.05
768.792	31.83
768.972	31.23
769.151	31.82
769.33	31.37
769.51	31.55
769.689	31.4
769.868	30.59
770.047	30.7
770.226	31.17
770.406	30.98
770.585	31.9
770.764	32.23
770.943	32.85
771.122	32.76
771.301	33.26
771.48	34.09
771.66	33.75
771.839	34.15
772.018	33.64
772.197	32.78
772.376	33.24
772.555	32.78
772.734	33.34
772.913	33.1
773.092	33.36
773.271	33.24
773.449	32.17
773.628	32.67
773.807	32.42
773.986	33.11
774.165	33.39
774.344	32.81
774.523	32.84
774.701	33.81
774.88	33.67
775.059	33.17
775.238	33.31
775.417	33.57
775.595	33.46
775.774	34.1
775.953	34.03
776.131	34.15
776.31	33.28
776.489	33.24
776.667	31.73
776.846	31.64
777.025	32.25
777.203	31.92
777.382	32.13
777.56	32.84
777.739	33.4
777.917	32.6
778.096	32.21
778.274	33.92
778.453	34.35
778.631	34.71
778.81	34.58
778.988	34.04
779.166	33.86
779.345	33.57
779.523	32.59
779.702	32.16
779.88	32.3
780.058	32.16
780.237	31.31
780.415	31.32
780.593	30.78
780.771	31.26
780.95	30.59
781.128	31.16
781.306	31.85
781.484	31.66
781.662	31.13
781.841	30.96
782.019	31.99
782.197	31.98
782.375	32.51
782.553	32.03
782.731	31.96
782.909	33.29
783.087	33.46
783.265	33.42
783.443	33.97
783.621	33.97
783.799	33.28
783.977	33.28
784.155	34.32
784.333	33.8
784.511	34.18
784.689	34.32
784.867	34.23
785.045	33.44
785.223	33.13
785.4	33.41
785.578	33.89
785.756	34.89
785.934	34.16
786.112	32.63
786.289	32.46
786.467	33.53
786.645	32.15
786.823	31.43
787	31.32
787.178	31.23
787.356	30.67
787.533	29.76
787.711	29.65
787.889	29.91
788.066	30.02
788.244	30.63
788.421	29.72
788.599	31.24
788.776	31.14
788.954	31.49
789.131	31.38
789.309	32.29
789.486	32.16
789.664	32.29
789.841	32.42
790.019	32.37
790.196	31.61
790.373	31
790.551	31.27
790.728	31.86
790.906	31.08
791.083	31.01
791.26	30.51
791.437	31.01
791.615	30.52
791.792	30.55
791.969	31.12
792.146	31.92
792.324	33.31
792.501	31.94
792.678	31.73
792.855	32.51
793.032	33.2
793.209	33.62
793.387	33.05
793.564	33.74
793.741	33.5
793.918	33.06
794.095	32.52
794.272	33.18
794.449	33.69
794.626	33.62
794.803	34.3
794.98	33.66
795.157	32.23
795.334	31.85
795.511	31.59
795.688	32.15
795.864	32.79
796.041	31.47
796.218	31.33
796.395	31.76
796.572	32.79
796.749	32.82
796.925	33.61
797.102	34.39
797.279	34.92
797.456	34.71
797.632	33.43
797.809	32.64
797.986	33.57
798.162	32.57
798.339	32.31
798.516	30.06
798.692	30.58
798.869	29.48
799.046	29.01
799.222	30.66
799.399	31.1
799.575	32.4
799.752	32.1
799.928	31.63
800.105	31.77
800.281	32.2
800.458	32.64
800.634	30.4
800.811	29.98
800.987	30.41
801.163	28.95
801.34	29.69
801.516	29.62
801.692	30.07
801.869	31.16
802.045	31.53
802.221	31.27
802.398	32.85
802.574	34
802.75	33.91
802.926	33.52
803.103	34.25
803.279	33.55
803.455	33.43
803.631	33.09
803.807	33.03
803.983	31.98
804.16	30.67
804.336	30.74
804.512	31.13
804.688	31.78
804.864	32.99
805.04	31.6
805.216	31.46
805.392	30.51
805.568	31.44
805.744	30.99
805.92	32.53
806.096	33.41
806.272	32.34
806.448	32.26
806.623	33.94
806.799	31.74
806.975	33.17
807.151	34.01
807.327	34.28
807.503	33.53
807.678	34.06
807.854	31.87
808.03	32.58
808.206	32.97
808.381	32.29
808.557	32.12
808.733	33.99
808.908	32.93
809.084	32.65
809.26	33.29
809.435	33.48
809.611	32.93
809.787	34.56
809.962	33.6
810.138	34.09
810.313	34.98
810.489	33.97
810.664	33.55
810.84	35.42
811.015	34.87
811.191	35
811.366	35.34
811.542	36.24
811.717	36.03
811.892	37.94
812.068	37.62
812.243	36.47
812.419	37.52
812.594	38.29
812.769	37.07
812.944	38.38
813.12	37.02
813.295	37.68
813.47	36.31
813.645	37.04
813.821	36.31
813.996	35.74
814.171	36.61
814.346	35.65
814.521	34.87
814.697	34.5
814.872	32.36
815.047	32.93
815.222	32.62
815.397	33.23
815.572	32.35
815.747	31.8
815.922	32.22
816.097	31.92
816.272	31.05
816.447	30.6
816.622	30.3
816.797	31.87
816.972	31.65
817.147	31.71
817.322	31.59
817.496	31.57
817.671	31
817.846	31.65
818.021	32.35
818.196	33.66
818.371	34.43
818.545	33.6
818.72	33.4
818.895	33.54
819.069	33.37
819.244	32.68
819.419	32.01
819.594	31.26
819.768	29.38
819.943	29.24
820.117	28.63
820.292	27.95
820.467	28.29
820.641	27.66
820.816	27.5
820.99	26.96
821.165	27.1
821.339	26.96
821.514	27.06
821.688	27.52
821.863	27.33
822.037	27.25
822.212	27.01
822.386	26.88
822.56	26.93
822.735	27.01
822.909	27.06
823.084	27
823.258	27.12
823.432	27.17
823.606	27.23
823.781	27.12
823.955	27.46
824.129	27.81
824.303	27.88
824.478	27.7
824.652	27.72
824.826	28.03
825	28.28
825.174	28.37
825.348	28.11
825.523	27.72
825.697	28.24
825.871	28.02
826.045	27.87
826.219	27.77
826.393	28.48
826.567	28.24
826.741	27.88
826.915	27.52
827.089	26.83
827.263	27.12
827.437	27.25
827.611	26.84
827.784	26.37
827.958	26.8
828.132	27.21
828.306	27.02
828.48	27.04
828.654	27.23
828.827	27.26
829.001	28.41
829.175	28.7
829.349	29.05
829.522	29.4
829.696	30.04
829.87	29.57
830.044	29.63
830.217	30.31
830.391	30.49
830.565	30.64
830.738	31.48
830.912	31.63
831.085	32.27
831.259	31.95
831.432	31.06
831.606	30.56
831.779	30.95
831.953	31.19
832.126	29.62
832.3	29.7
832.473	29.25
832.647	28.76
832.82	28.42
832.994	27.68
833.167	28.05
833.34	29.34
833.514	29.05
833.687	29.11
833.86	28.64
834.034	28.98
834.207	29.51
834.38	29.47
834.553	29.84
834.727	30.04
834.9	30.02
835.073	30
835.246	29.58
835.419	30.54
835.593	30.48
835.766	31.08
835.939	30.96
836.112	31.05
836.285	31.04
836.458	31.31
836.631	31.52
836.804	33.16
836.977	33.4
837.15	32.3
837.323	31.08
837.496	31.01
837.669	31.07
837.842	33.27
838.015	31.85
838.188	32.43
838.361	33.4
838.533	33.63
838.706	33.32
838.879	30.59
839.052	34.32
839.225	35.84
839.398	35.97
839.57	36.61
839.743	34.94
839.916	33.98
840.088	34.11
840.261	31.88
840.434	32.53
840.607	31.98
840.779	33.7
840.952	31.45
841.124	31.19
841.297	30.37
841.47	28.87
841.642	27.55
841.815	31.29
841.987	31.12
842.16	33.35
842.332	33.42
842.505	34.3
842.677	35.56
842.85	35.12
843.022	35.17
843.194	37.97
843.367	38.43
843.539	40.91
843.712	38.85
843.884	38.94
844.056	38.3
844.229	39.47
844.401	38.69
844.573	35.97
844.745	37.98
844.918	37.77
845.09	37.33
845.262	40.86
845.434	43.05
845.606	43.13
845.779	42.58
845.951	43.38
846.123	43.21
846.295	41.45
846.467	46.01
846.639	45.88
846.811	44.9
846.983	44.49
847.155	42.05
847.327	41.14
847.499	44.06
847.671	46.24
847.843	48.4
848.015	45.3
848.187	46.5
848.359	42.89
848.531	45.56
848.703	46.95
848.875	40.37
849.047	38.99
849.218	37.66
849.39	33.73
849.562	34.31
849.734	34.79
849.905	35.71
850.077	35.73
850.249	38.01
850.421	33.37
850.592	33.93
850.764	37.94
850.936	42.98
851.107	43.01
851.279	42.55
851.451	42.44
851.622	39.13
851.794	39.97
851.965	41.02
852.137	39.87
852.308	44.41
852.48	44.73
852.651	48.53
852.823	47.58
852.994	46.72
853.166	50.88
853.337	53.38
853.509	56.79
853.68	54.93
853.851	51.25
854.023	50.47
854.194	48.6
854.365	49.03
854.537	49.14
854.708	48.54
854.879	50.81
855.05	48.6
855.222	46.65
855.393	41.35
855.564	44.21
855.735	50.17
855.906	52.71
856.078	54.91
856.249	56.28
856.42	55.02
856.591	55.26
856.762	58.27
856.933	59
857.104	58.68
857.275	61.04
857.446	58.98
857.617	54.97
857.788	49.89
857.959	47.05
858.13	43.23
858.301	46.42
858.472	50.43
858.643	44.64
858.814	43.42
858.985	44.6
859.155	47.44
859.326	51
859.497	51.68
859.668	56.65
859.839	55.74
860.009	55.77
860.18	56.91
860.351	50.2
860.522	58.74
860.692	59.22
860.863	57.69
861.034	56.93
861.204	54.62
861.375	55.97
861.546	55.02
861.716	56.8
861.887	60.77
862.057	59.91
862.228	63.44
862.398	58.55
862.569	57.18
862.739	54.69
862.91	53.01
863.08	55.6
863.251	51.27
863.421	50.89
863.592	48.65
863.762	50.47
863.932	49.06
864.103	45.68
864.273	44.92
864.443	41.8
864.614	44.15
864.784	42.38
864.954	38.42
865.125	42.86
865.295	43.02
865.465	42.59
865.635	36.09
865.805	36.47
865.976	44.77
866.146	44.02
866.316	49.42
866.486	49.33
866.656	52.64
866.826	52.16
866.996	50.53
867.166	52.67
867.336	49.75
867.506	50.69
867.676	48.04
867.846	42.39
868.016	45.09
868.186	41.92
868.356	39.75
868.526	37.94
868.696	41.01
868.866	40.52
869.036	38.7
869.206	46.51
869.376	44.63
869.545	44.35
869.715	44.89
869.885	42.6
870.055	45.01
870.224	47.78
870.394	50.84
870.564	55.81
870.734	58.09
870.903	58.42
871.073	55.32
871.243	60.16
871.412	62.67
871.582	55.93
871.751	58.36
871.921	56.62
872.091	56.61
872.26	50.67
872.43	44.28
872.599	46.18
872.769	43.96
872.938	44.09
873.108	47.74
873.277	48.25
873.446	54.35
873.616	53.08
873.785	56.68
873.955	52.96
874.124	54.95
874.293	56.22
874.463	52.56
874.632	53.38
874.801	53.17
874.971	49.37
875.14	47.87
875.309	46.03
875.478	48.33
875.647	49.79
875.817	52.56
875.986	55.75
876.155	57.63
876.324	56.61
876.493	56.09
876.662	56.67
876.831	56.94
877	56.71
877.17	54.48
877.339	51.24
877.508	45.33
877.677	42.78
877.846	41.01
878.015	39.7
878.184	42.43
878.352	42.4
878.521	42.9
878.69	39.72
878.859	41.52
879.028	45.5
879.197	45.8
879.366	47.18
879.534	47.68
879.703	44.62
879.872	42.65
880.041	38.41
880.21	36.65
880.378	35.93
880.547	35.35
880.716	33.56
880.884	31.94
881.053	30.99
881.222	29.62
881.39	28.97
881.559	28.51
881.727	27.36
881.896	28.02
882.065	28.39
882.233	27.89
882.402	27.91
882.57	27.33
882.739	27.17
882.907	27.5
883.076	27.46
883.244	27.45
883.412	28.17
883.581	29.34
883.749	29.04
883.918	28.15
884.086	29.02
884.254	28.67
884.423	28.71
884.591	28.86
884.759	28.69
884.927	28.66
885.096	28.86
885.264	28.03
885.432	27.45
885.6	28.86
885.769	31.72
885.937	29.09
886.105	29.97
886.273	31.86
886.441	32.73
886.609	33.34
886.777	33.52
886.945	37.36
887.113	39.5
887.281	41.07
887.449	39.03
887.617	37.46
887.785	38.78
887.953	37.52
888.121	39.03
888.289	38.8
888.457	42.73
888.625	43.37
888.793	35.32
888.961	37.56
889.129	38.74
889.296	39.14
889.464	40
889.632	40.96
889.8	44.8
889.967	45.07
890.135	44.5
