Data from 2938796__Reflection_02.txt Node
Date: Fri Mar 13 10:36:15 EDT 2015
User: robert
Spectrometer: USB4E03002
Autoset integration time: false
Trigger mode: 4
Integration Time (sec): 1.000000E-1
Scans to average: 10
Electric dark correction enabled: false
Nonlinearity correction enabled: false
Boxcar width: 5
Stray light correction enabled: false
XAxis mode: Wavelengths
Stop averaging: false
Number of Pixels in Spectrum: 3648
>>>>>Begin Spectral Data<<<<<
177.575	79.57
177.794	143.97
178.014	180.65
178.233	264.23
178.452	292.63
178.672	373.43
178.891	491.6
179.11	561.84
179.33	824.73
179.549	662.45
179.768	1140.97
179.987	2052.7
180.207	673.04
180.426	7150
180.645	536.5
180.864	432.54
181.084	383.87
181.303	381.28
181.522	339.81
181.741	278.77
181.96	333.05
182.179	349
182.398	587.72
182.618	7946.67
182.837	363.48
183.056	502.22
183.275	432.61
183.494	491.36
183.713	368.71
183.932	845.28
184.151	811.11
184.37	470.85
184.589	888.57
184.808	285.76
185.027	295.1
185.246	338.22
185.465	234.57
185.684	361
185.903	299.79
186.122	335.58
186.341	309.14
186.56	296.52
186.779	310.75
186.998	353.08
187.216	446.11
187.435	450.4
187.654	1309.23
187.873	3941.67
188.092	3342.55
188.311	23185.71
188.53	-1342.48
188.748	-1680.95
188.967	-947.02
189.186	-3413.64
189.405	965.27
189.623	786.1
189.842	561.82
190.061	562.54
190.28	667.36
190.498	1694.9
190.717	742.66
190.936	968.42
191.154	830.34
191.373	689.78
191.592	1129.2
191.81	1241.32
192.029	1218.27
192.248	2450
192.466	855.41
192.685	800
192.904	672.92
193.122	1425.58
193.341	544.18
193.559	2738
193.778	-3440
193.996	8681.25
194.215	6614.29
194.433	-2688.33
194.652	-10006.25
194.87	-2159.72
195.089	6854.17
195.307	1032.72
195.526	2176.71
195.744	974.51
195.963	462.62
196.181	367.1
196.399	366
196.618	531.54
196.836	470.7
197.055	430.96
197.273	285.58
197.491	476.75
197.71	550.81
197.928	413.81
198.146	529.11
198.365	496.33
198.583	543.62
198.801	313.23
199.019	236.6
199.238	193.68
199.456	248.32
199.674	435.96
199.892	259.79
200.111	255.31
200.329	251.58
200.547	227.04
200.765	269.54
200.983	204.43
201.202	249.23
201.42	215.44
201.638	219.54
201.856	232.06
202.074	185.45
202.292	191.39
202.51	199.41
202.728	217.67
202.946	243.64
203.165	233.51
203.383	256.82
203.601	283.75
203.819	443.81
204.037	453.24
204.255	473.59
204.473	591.95
204.691	415.28
204.909	596.64
205.127	713.04
205.345	847.7
205.562	1454.32
205.78	1676.25
205.998	695.91
206.216	491.03
206.434	401.55
206.652	260.16
206.87	267.8
207.088	340.05
207.306	278.6
207.523	230.47
207.741	243.64
207.959	275.75
208.177	269.46
208.395	360.47
208.612	380.13
208.83	491.56
209.048	1784.62
209.266	418.39
209.483	591.22
209.701	415.56
209.919	547.83
210.136	303.28
210.354	272.38
210.572	245.08
210.79	267.03
211.007	295.25
211.225	371.43
211.442	313.32
211.66	339.36
211.878	229.21
212.095	217.72
212.313	202.75
212.53	206.91
212.748	207.97
212.966	266.47
213.183	243.52
213.401	156.15
213.618	171.01
213.836	218.72
214.053	317.46
214.271	899.26
214.488	-573.37
214.705	-343.8
214.923	-238.56
215.14	-382.07
215.358	-540
215.575	-2464
215.793	-231.52
216.01	-534.96
216.227	-2804.55
216.445	330.92
216.662	182.84
216.879	166.94
217.097	160.24
217.314	164.16
217.531	157.97
217.749	163.18
217.966	169.17
218.183	174.05
218.4	135.6
218.618	122.35
218.835	134.37
219.052	145.09
219.269	142.16
219.487	129.34
219.704	139.19
219.921	152.23
220.138	152.89
220.355	145.58
220.572	127.25
220.79	128.35
221.007	123.62
221.224	120.12
221.441	99.38
221.658	86.15
221.875	84.86
222.092	75.57
222.309	68.18
222.526	65.59
222.743	62.96
222.96	60.17
223.177	59
223.394	61.88
223.611	58.9
223.828	57.3
224.045	59.05
224.262	55.24
224.479	55.99
224.696	56.92
224.913	54.19
225.13	56.01
225.347	51.38
225.564	51.87
225.781	48.39
225.997	43.21
226.214	38.13
226.431	35.04
226.648	32.06
226.865	25.13
227.082	20.59
227.298	16.88
227.515	14.96
227.732	14.31
227.949	11.97
228.165	10.84
228.382	10.51
228.599	10.48
228.816	10.82
229.032	10.31
229.249	11.07
229.466	11.8
229.682	11.69
229.899	11.62
230.116	11.73
230.332	12.01
230.549	11.93
230.765	12.89
230.982	13.28
231.199	12.7
231.415	14.24
231.632	14.7
231.848	14.72
232.065	16.13
232.281	16.2
232.498	15.77
232.714	16.89
232.931	18.06
233.147	16.63
233.364	17.02
233.58	17.62
233.797	16.68
234.013	17.15
234.23	17.42
234.446	16.28
234.662	15.48
234.879	15.55
235.095	15.85
235.312	16.55
235.528	18.87
235.744	18.3
235.961	17.85
236.177	19.2
236.393	18.5
236.61	16.72
236.826	17.5
237.042	18.36
237.258	19.44
237.475	19.06
237.691	16.07
237.907	14.78
238.123	16.12
238.339	17.5
238.556	16.99
238.772	18.75
238.988	19.8
239.204	19.14
239.42	18.6
239.636	18.92
239.853	18.31
240.069	19.32
240.285	19.03
240.501	17.16
240.717	15.35
240.933	14.85
241.149	13.18
241.365	12.33
241.581	11.62
241.797	11.39
242.013	9.92
242.229	9.39
242.445	8.94
242.661	8.2
242.877	8.47
243.093	8.65
243.309	7.9
243.525	8.22
243.741	8.89
243.957	9.84
244.173	9.48
244.388	10.04
244.604	10.5
244.82	10.89
245.036	10.9
245.252	10.22
245.468	9.44
245.683	9.32
245.899	9.21
246.115	8.36
246.331	7.96
246.547	8.09
246.762	8.09
246.978	7.97
247.194	7.54
247.409	7.29
247.625	7.31
247.841	7.49
248.057	7.73
248.272	7.23
248.488	6.98
248.703	6.88
248.919	7.01
249.135	7.36
249.35	7.24
249.566	7.59
249.782	8.51
249.997	9.33
250.213	9.3
250.428	9.81
250.644	10.93
250.859	12.58
251.075	12.62
251.29	11.99
251.506	10.82
251.721	10.78
251.937	10.74
252.152	10.09
252.368	9.55
252.583	9.84
252.798	9.77
253.014	9.78
253.229	8.97
253.445	9.59
253.66	10.33
253.875	11.37
254.091	11.99
254.306	12
254.521	12.09
254.737	11.95
254.952	11.99
255.167	10.87
255.383	10.97
255.598	10.74
255.813	9.83
256.028	9.59
256.244	10.24
256.459	9.32
256.674	8.94
256.889	9.46
257.104	10.33
257.32	10
257.535	9.99
257.75	9
257.965	9.01
258.18	8.07
258.395	7.28
258.61	6.09
258.826	5.88
259.041	6.23
259.256	6.04
259.471	5.39
259.686	5.07
259.901	4.92
260.116	5.16
260.331	4.96
260.546	4.93
260.761	5.24
260.976	5.42
261.191	5.82
261.406	5.76
261.621	5.76
261.836	6.16
262.05	6.61
262.265	6.88
262.48	6.76
262.695	6.71
262.91	7.04
263.125	6.61
263.34	6.89
263.555	6.69
263.769	6.82
263.984	6.82
264.199	6.97
264.414	7.19
264.629	6.95
264.843	7.29
265.058	7.95
265.273	8.09
265.488	8.82
265.702	8.73
265.917	8.12
266.132	7.33
266.346	7.11
266.561	6.93
266.776	6.6
266.99	6.56
267.205	6.02
267.42	5.8
267.634	5.55
267.849	5.44
268.063	5.59
268.278	5.77
268.492	6.06
268.707	6.5
268.922	6.66
269.136	6.44
269.351	6.51
269.565	6.48
269.78	6.64
269.994	7.1
270.209	6.84
270.423	6.77
270.637	7.11
270.852	6.69
271.066	6.62
271.281	6.56
271.495	6.68
271.709	6.51
271.924	6.64
272.138	6.29
272.353	6.36
272.567	6.43
272.781	6.6
272.996	6.28
273.21	6.47
273.424	6.35
273.638	5.97
273.853	5.83
274.067	5.99
274.281	5.93
274.495	6.25
274.71	6.02
274.924	5.56
275.138	5.52
275.352	5.75
275.566	5.92
275.781	5.92
275.995	6.48
276.209	6.77
276.423	7.01
276.637	7.29
276.851	7.33
277.065	7.21
277.279	7.45
277.493	7.01
277.707	6.89
277.921	6.76
278.135	6.92
278.349	6.83
278.563	6.76
278.777	6.72
278.991	6.52
279.205	6.28
279.419	6.21
279.633	6.21
279.847	6.44
280.061	6.14
280.275	6.18
280.489	6.12
280.703	5.76
280.917	5.77
281.131	5.55
281.344	5.4
281.558	5.64
281.772	5.52
281.986	5.82
282.2	5.7
282.414	6.04
282.627	5.83
282.841	5.61
283.055	5.86
283.269	5.92
283.482	6.19
283.696	6.17
283.91	6.17
284.123	6.27
284.337	6
284.551	5.98
284.764	5.87
284.978	6
285.192	5.85
285.405	5.6
285.619	5.28
285.833	4.97
286.046	5.08
286.26	4.94
286.473	4.52
286.687	4.62
286.9	4.7
287.114	4.56
287.327	4.75
287.541	5.01
287.754	5.1
287.968	5.38
288.181	5.48
288.395	5.46
288.608	5.58
288.822	5.87
289.035	5.66
289.248	5.58
289.462	5.74
289.675	5.63
289.889	5.19
290.102	5.35
290.315	5.39
290.529	5.43
290.742	5.3
290.955	5
291.169	5.49
291.382	5.77
291.595	5.78
291.808	5.63
292.022	5.27
292.235	5.82
292.448	5.65
292.661	5.8
292.875	5.64
293.088	5.94
293.301	6.08
293.514	6.05
293.727	5.54
293.94	5.2
294.153	5.5
294.367	5.71
294.58	5.51
294.793	5.55
295.006	5.43
295.219	5.52
295.432	5.49
295.645	5.7
295.858	5.19
296.071	5.58
296.284	5.97
296.497	5.99
296.71	5.88
296.923	5.77
297.136	5.9
297.349	5.85
297.562	5.86
297.775	5.8
297.988	5.7
298.201	5.99
298.414	5.74
298.626	5.8
298.839	5.74
299.052	5.74
299.265	6.08
299.478	5.81
299.691	6.1
299.903	6.4
300.116	6.7
300.329	7
300.542	7.13
300.755	7.33
300.967	7.14
301.18	7.15
301.393	7.38
301.605	7.32
301.818	7.67
302.031	7.6
302.243	7.84
302.456	7.75
302.669	7.87
302.881	7.83
303.094	8.05
303.307	8.37
303.519	7.93
303.732	7.9
303.944	7.86
304.157	7.83
304.37	7.79
304.582	7.23
304.795	6.92
305.007	6.71
305.22	6.87
305.432	6.45
305.645	6.4
305.857	7.01
306.069	6.9
306.282	6.65
306.494	6.56
306.707	6.29
306.919	6.64
307.132	6.94
307.344	6.93
307.556	6.81
307.769	7.48
307.981	7.6
308.193	7.55
308.406	7.42
308.618	7.75
308.83	7.75
309.043	7.63
309.255	7.59
309.467	7.87
309.679	7.97
309.892	7.93
310.104	7.46
310.316	7.27
310.528	7.37
310.74	7.75
310.953	7.51
311.165	7.64
311.377	7.99
311.589	8.02
311.801	7.57
312.013	7.53
312.225	7.62
312.437	8.03
312.649	8.24
312.862	8.16
313.074	8.13
313.286	8.74
313.498	8.83
313.71	8.92
313.922	8.75
314.134	9.25
314.346	9.33
314.558	9.49
314.77	9.29
314.982	8.95
315.193	9.01
315.405	9.11
315.617	8.42
315.829	8.55
316.041	7.89
316.253	8.11
316.465	8.02
316.677	7.68
316.888	7.4
317.1	7.4
317.312	7.82
317.524	7.74
317.736	7.62
317.947	8.06
318.159	8.35
318.371	8.94
318.583	9.28
318.794	9.23
319.006	9.39
319.218	9.53
319.43	9.09
319.641	9.24
319.853	9.03
320.064	9.39
320.276	9.59
320.488	9.16
320.699	9.02
320.911	8.85
321.123	8.69
321.334	8.65
321.546	8.59
321.757	9.07
321.969	9.37
322.18	9.84
322.392	9.27
322.603	9.25
322.815	9.27
323.026	9.28
323.238	8.98
323.449	9.14
323.661	9.23
323.872	9.4
324.083	9.33
324.295	8.57
324.506	8.49
324.718	8.69
324.929	8.77
325.14	8.93
325.352	9.2
325.563	9.33
325.774	9.19
325.986	9.17
326.197	9.46
326.408	9.62
326.62	9.94
326.831	9.87
327.042	9.97
327.253	9.85
327.464	9.38
327.676	9.08
327.887	8.92
328.098	8.89
328.309	9.38
328.52	9.3
328.732	9.3
328.943	8.97
329.154	9.03
329.365	9.11
329.576	9.19
329.787	9.66
329.998	10.07
330.209	10.25
330.42	10.62
330.631	10.56
330.842	10.27
331.053	10.01
331.264	10.3
331.475	10.95
331.686	11.22
331.897	11.21
332.108	11.17
332.319	11.33
332.53	11.55
332.741	11.37
332.952	10.96
333.163	10.82
333.374	11.2
333.585	11.1
333.795	10.49
334.006	10.13
334.217	9.88
334.428	9.79
334.639	9.6
334.849	9.59
335.06	9.64
335.271	10.12
335.482	10.26
335.692	10.1
335.903	10.39
336.114	10.6
336.325	10.64
336.535	11.06
336.746	11.23
336.957	10.87
337.167	10.71
337.378	10.56
337.589	10.35
337.799	10.28
338.01	10.3
338.22	9.83
338.431	9.18
338.642	8.99
338.852	8.84
339.063	8.66
339.273	8.45
339.484	8.56
339.694	8.76
339.905	8.97
340.115	8.88
340.326	8.41
340.536	8.82
340.746	9.3
340.957	9.27
341.167	8.93
341.378	8.88
341.588	9.01
341.799	8.92
342.009	8.78
342.219	8.48
342.43	8.57
342.64	8.66
342.85	8.29
343.061	8.13
343.271	8.27
343.481	8.47
343.691	8.58
343.902	8.77
344.112	8.44
344.322	8.37
344.532	8.48
344.743	8.45
344.953	8.9
345.163	9.33
345.373	9.17
345.583	8.89
345.793	8.72
346.004	8.77
346.214	8.88
346.424	9.1
346.634	9.41
346.844	9.09
347.054	8.96
347.264	8.62
347.474	8.89
347.684	9.06
347.894	9.25
348.104	9.12
348.314	8.91
348.524	8.8
348.734	8.8
348.944	8.17
349.154	8.22
349.364	8.5
349.574	8.34
349.784	7.71
349.994	7.64
350.204	7.84
350.413	8.18
350.623	8.06
350.833	8.02
351.043	8.01
351.253	8.56
351.463	8.61
351.672	8.55
351.882	8.61
352.092	8.62
352.302	8.61
352.511	8.75
352.721	8.61
352.931	8.71
353.141	8.74
353.35	8.85
353.56	8.38
353.77	8.13
353.979	8.11
354.189	8.33
354.399	8.45
354.608	8.61
354.818	8.45
355.027	8.33
355.237	8.26
355.447	8.14
355.656	8.41
355.866	8.71
356.075	8.73
356.285	8.46
356.494	8.56
356.704	8.69
356.913	8.69
357.123	8.72
357.332	8.61
357.542	8.75
357.751	8.83
357.96	8.91
358.17	8.84
358.379	8.75
358.589	8.93
358.798	8.48
359.007	8.44
359.217	8.32
359.426	8.25
359.635	8.15
359.845	8.26
360.054	7.93
360.263	7.37
360.472	7.27
360.682	7.4
360.891	7.25
361.1	7.34
361.309	6.91
361.519	7.05
361.728	7
361.937	6.97
362.146	6.57
362.355	6.9
362.564	7.24
362.774	7.35
362.983	7.35
363.192	7.31
363.401	7.58
363.61	7.88
363.819	7.7
364.028	7.74
364.237	7.83
364.446	7.88
364.655	7.76
364.864	7.41
365.073	7.27
365.282	7.38
365.491	7.41
365.7	7.17
365.909	7.26
366.118	7.37
366.327	7.19
366.536	7.46
366.745	7.64
366.954	7.57
367.162	7.84
367.371	7.81
367.58	7.6
367.789	7.64
367.998	7.49
368.207	7.37
368.415	7.03
368.624	7.14
368.833	6.72
369.042	6.58
369.25	6.69
369.459	6.72
369.668	6.68
369.877	6.85
370.085	7.05
370.294	7.32
370.503	7.21
370.711	7.35
370.92	7.24
371.129	7.52
371.337	7.62
371.546	7.53
371.754	7.34
371.963	7.39
372.171	7.54
372.38	7.2
372.589	7.11
372.797	7.24
373.006	7.31
373.214	7.36
373.423	7.37
373.631	7.31
373.84	7.31
374.048	7.04
374.256	7.1
374.465	6.74
374.673	6.95
374.882	6.89
375.09	6.88
375.298	6.8
375.507	6.75
375.715	6.74
375.923	6.82
376.132	6.76
376.34	6.83
376.548	6.69
376.757	6.72
376.965	6.7
377.173	6.45
377.381	6.41
377.59	6.51
377.798	6.42
378.006	6.27
378.214	6.13
378.423	6.25
378.631	6.3
378.839	6.34
379.047	6.41
379.255	6.41
379.463	6.52
379.671	6.52
379.879	6.5
380.088	6.68
380.296	6.63
380.504	6.58
380.712	6.67
380.92	6.84
381.128	6.79
381.336	6.6
381.544	6.4
381.752	6.63
381.96	6.43
382.168	6.08
382.376	6.14
382.584	6.03
382.791	6.15
382.999	5.75
383.207	5.45
383.415	5.49
383.623	5.59
383.831	5.74
384.039	5.65
384.247	6
384.454	6.16
384.662	6.03
384.87	6.24
385.078	6.24
385.285	6.43
385.493	6.53
385.701	6.6
385.909	6.6
386.116	6.56
386.324	6.37
386.532	6.21
386.739	6.26
386.947	6.22
387.155	6.19
387.362	6.02
387.57	5.88
387.778	5.67
387.985	5.5
388.193	5.57
388.4	5.63
388.608	5.76
388.816	5.62
389.023	5.67
389.231	5.66
389.438	5.62
389.646	5.66
389.853	5.7
390.061	5.94
390.268	5.94
390.475	5.91
390.683	6.22
390.89	6.24
391.098	6.39
391.305	6.21
391.512	6.24
391.72	6.08
391.927	6.14
392.135	6.28
392.342	6.32
392.549	6.24
392.756	6.08
392.964	5.51
393.171	5.36
393.378	5.22
393.586	5.3
393.793	5.31
394	5.47
394.207	5.43
394.414	5.22
394.622	5.18
394.829	5.24
395.036	5.37
395.243	5.6
395.45	5.69
395.657	5.65
395.864	5.49
396.072	5.34
396.279	5.32
396.486	5.41
396.693	5.39
396.9	5.3
397.107	5.26
397.314	5.3
397.521	5.29
397.728	5.38
397.935	5.61
398.142	5.77
398.349	5.75
398.556	5.72
398.763	5.73
398.97	5.82
399.177	5.84
399.383	5.9
399.59	5.76
399.797	5.74
400.004	5.49
400.211	5.22
400.418	5.2
400.625	5.3
400.831	5.45
401.038	5.31
401.245	5.33
401.452	4.99
401.658	4.94
401.865	4.79
402.072	4.77
402.279	4.88
402.485	4.93
402.692	5.01
402.899	4.97
403.105	4.91
403.312	4.91
403.519	4.93
403.725	5.04
403.932	4.95
404.138	4.99
404.345	5.11
404.552	5.11
404.758	5.05
404.965	5.07
405.171	5.12
405.378	4.99
405.584	4.98
405.791	4.89
405.997	5.04
406.204	5.29
406.41	5.37
406.617	5.28
406.823	5.3
407.029	5.37
407.236	5.27
407.442	5.19
407.649	5.23
407.855	5.2
408.061	5.21
408.268	5.23
408.474	5.14
408.68	5.13
408.887	5.24
409.093	5.18
409.299	5.08
409.505	4.92
409.712	5.11
409.918	5.05
410.124	4.97
410.33	5.03
410.537	4.99
410.743	5.03
410.949	5.06
411.155	4.88
411.361	4.82
411.567	5
411.773	5.04
411.98	4.88
412.186	5.18
412.392	5.41
412.598	5.31
412.804	5.37
413.01	5.32
413.216	5.27
413.422	5.33
413.628	5.53
413.834	5.48
414.04	5.44
414.246	5.45
414.452	5.23
414.658	5.12
414.864	5.31
415.07	5.19
415.275	5.18
415.481	5.23
415.687	5.2
415.893	5.04
416.099	5.11
416.305	5.15
416.511	5.04
416.716	5.03
416.922	4.97
417.128	4.82
417.334	4.86
417.539	4.82
417.745	4.71
417.951	4.67
418.157	4.7
418.362	4.6
418.568	4.61
418.774	4.62
418.979	4.56
419.185	4.58
419.391	4.54
419.596	4.59
419.802	4.57
420.008	4.57
420.213	4.07
420.419	4.03
420.624	4.03
420.83	4.05
421.035	4.04
421.241	4.04
421.446	4.02
421.652	4.03
421.857	3.95
422.063	3.93
422.268	3.98
422.474	4.4
422.679	4.48
422.885	4.49
423.09	4.44
423.295	4.4
423.501	4.45
423.706	4.49
423.911	4.53
424.117	4.57
424.322	4.56
424.527	4.57
424.733	4.55
424.938	4.51
425.143	4.47
425.349	4.54
425.554	4.63
425.759	4.58
425.964	4.57
426.169	4.51
426.375	4.52
426.58	4.58
426.785	4.58
426.99	4.64
427.195	4.64
427.4	4.7
427.605	4.68
427.811	4.61
428.016	4.68
428.221	4.66
428.426	4.8
428.631	4.82
428.836	4.85
429.041	4.87
429.246	4.9
429.451	4.91
429.656	4.92
429.861	4.86
430.066	4.85
430.271	4.68
430.476	4.68
430.681	4.64
430.886	4.59
431.09	4.6
431.295	4.53
431.5	4.51
431.705	4.48
431.91	4.51
432.115	4.64
432.32	4.72
432.524	4.91
432.729	5
432.934	5.03
433.139	4.97
433.343	4.93
433.548	4.84
433.753	4.85
433.958	4.77
434.162	4.68
434.367	4.55
434.572	4.47
434.776	4.3
434.981	4.21
435.186	4.08
435.39	4.19
435.595	4.24
435.799	4.36
436.004	4.34
436.209	4.36
436.413	4.37
436.618	4.43
436.822	4.49
437.027	4.65
437.231	4.73
437.436	4.73
437.64	4.66
437.845	4.56
438.049	4.59
438.253	4.63
438.458	4.68
438.662	4.79
438.867	4.75
439.071	4.74
439.275	4.74
439.48	4.71
439.684	4.76
439.888	4.69
440.093	4.7
440.297	4.64
440.501	4.56
440.706	4.59
440.91	4.57
441.114	4.61
441.318	4.6
441.523	4.56
441.727	4.59
441.931	4.57
442.135	4.65
442.339	4.67
442.543	4.8
442.748	4.84
442.952	4.86
443.156	4.79
443.36	4.83
443.564	4.84
443.768	4.82
443.972	4.82
444.176	4.86
444.38	4.8
444.584	4.82
444.788	4.73
444.992	4.79
445.196	4.78
445.4	4.73
445.604	4.64
445.808	4.68
446.012	4.64
446.216	4.53
446.42	4.47
446.624	4.5
446.828	4.46
447.032	4.42
447.235	4.36
447.439	4.3
447.643	4.37
447.847	4.39
448.051	4.32
448.254	4.32
448.458	4.43
448.662	4.49
448.866	4.52
449.069	4.57
449.273	4.61
449.477	4.65
449.681	4.62
449.884	4.65
450.088	4.66
450.292	4.66
450.495	4.7
450.699	4.63
450.902	4.49
451.106	4.47
451.31	4.47
451.513	4.4
451.717	4.36
451.92	4.47
452.124	4.4
452.327	4.42
452.531	4.45
452.734	4.49
452.938	4.48
453.141	4.48
453.345	4.46
453.548	4.45
453.752	4.59
453.955	4.68
454.158	4.55
454.362	4.51
454.565	4.51
454.769	4.54
454.972	4.59
455.175	4.51
455.379	4.62
455.582	4.63
455.785	4.64
455.988	4.58
456.192	4.59
456.395	4.76
456.598	4.81
456.801	4.79
457.005	4.8
457.208	4.77
457.411	4.86
457.614	4.78
457.817	4.7
458.021	4.66
458.224	4.61
458.427	4.58
458.63	4.53
458.833	4.54
459.036	4.5
459.239	4.51
459.442	4.55
459.645	4.51
459.848	4.5
460.051	4.48
460.254	4.53
460.457	4.62
460.66	4.6
460.863	4.6
461.066	4.66
461.269	4.73
461.472	4.76
461.675	4.74
461.878	4.88
462.081	4.99
462.284	5.13
462.486	5.03
462.689	5.02
462.892	5.06
463.095	5.09
463.298	4.97
463.5	4.9
463.703	4.85
463.906	4.74
464.109	4.63
464.311	4.55
464.514	4.55
464.717	4.59
464.92	4.56
465.122	4.62
465.325	4.59
465.528	4.66
465.73	4.75
465.933	4.82
466.135	4.9
466.338	4.89
466.541	4.85
466.743	4.79
466.946	4.8
467.148	4.8
467.351	4.76
467.553	4.78
467.756	4.83
467.958	4.92
468.161	4.88
468.363	4.85
468.566	4.91
468.768	5
468.971	5.09
469.173	5.13
469.375	5.12
469.578	5.06
469.78	5.04
469.983	4.97
470.185	4.91
470.387	4.89
470.59	4.82
470.792	4.79
470.994	4.84
471.196	4.9
471.399	4.85
471.601	4.81
471.803	4.86
472.005	4.87
472.208	5
472.41	4.95
472.612	5.02
472.814	5.11
473.016	5.11
473.218	5.17
473.421	5.12
473.623	5.1
473.825	5.18
474.027	5.21
474.229	5.18
474.431	5.08
474.633	5.11
474.835	5.01
475.037	5.07
475.239	5.13
475.441	5.03
475.643	4.99
475.845	5.05
476.047	4.99
476.249	4.88
476.451	5.05
476.653	5.03
476.855	4.98
477.057	4.97
477.258	4.87
477.46	4.87
477.662	4.77
477.864	4.75
478.066	4.72
478.268	4.65
478.469	4.72
478.671	4.64
478.873	4.62
479.075	4.64
479.276	4.6
479.478	4.63
479.68	4.52
479.882	4.52
480.083	4.57
480.285	4.62
480.487	4.67
480.688	4.66
480.89	4.66
481.091	4.61
481.293	4.55
481.495	4.54
481.696	4.48
481.898	4.43
482.099	4.44
482.301	4.41
482.502	4.31
482.704	4.28
482.905	4.27
483.107	4.22
483.308	4.23
483.51	4.23
483.711	4.25
483.913	4.23
484.114	4.26
484.315	4.26
484.517	4.25
484.718	4.3
484.92	4.3
485.121	4.3
485.322	4.34
485.524	4.34
485.725	4.33
485.926	4.33
486.127	4.32
486.329	4.3
486.53	4.31
486.731	4.3
486.932	4.27
487.134	4.28
487.335	4.26
487.536	4.25
487.737	4.28
487.938	4.29
488.139	4.31
488.341	4.36
488.542	4.37
488.743	4.41
488.944	4.44
489.145	4.46
489.346	4.47
489.547	4.48
489.748	4.48
489.949	4.46
490.15	4.46
490.351	4.44
490.552	4.44
490.753	4.43
490.954	4.37
491.155	4.38
491.356	4.36
491.557	4.39
491.758	4.44
491.959	4.48
492.159	4.53
492.36	4.56
492.561	4.56
492.762	4.56
492.963	4.59
493.164	4.66
493.364	4.66
493.565	4.71
493.766	4.76
493.967	4.76
494.167	4.72
494.368	4.68
494.569	4.68
494.769	4.71
494.97	4.75
495.171	4.77
495.371	4.75
495.572	4.77
495.773	4.75
495.973	4.69
496.174	4.75
496.375	4.79
496.575	4.79
496.776	4.81
496.976	4.84
497.177	4.81
497.377	4.87
497.578	4.91
497.778	4.92
497.979	5
498.179	5.01
498.38	4.97
498.58	5
498.78	4.99
498.981	4.98
499.181	4.97
499.382	4.99
499.582	4.95
499.782	4.93
499.983	4.97
500.183	4.95
500.383	4.94
500.584	4.98
500.784	5.02
500.984	5.12
501.184	5.11
501.385	5.18
501.585	5.31
501.785	5.26
501.985	5.42
502.185	5.42
502.386	5.38
502.586	5.53
502.786	5.55
502.986	5.53
503.186	5.49
503.386	5.55
503.586	5.53
503.786	5.52
503.987	5.64
504.187	5.54
504.387	5.58
504.587	5.69
504.787	5.58
504.987	5.64
505.187	5.63
505.387	5.73
505.587	5.78
505.786	5.83
505.986	5.82
506.186	5.8
506.386	5.81
506.586	5.85
506.786	5.85
506.986	5.93
507.186	5.92
507.386	6.01
507.585	6.01
507.785	5.97
507.985	5.92
508.185	5.99
508.384	5.98
508.584	6
508.784	5.97
508.984	6.03
509.183	6.03
509.383	6.03
509.583	6.03
509.782	5.99
509.982	5.99
510.182	6.07
510.381	6.15
510.581	6.19
510.781	6.29
510.98	6.37
511.18	6.36
511.379	6.44
511.579	6.54
511.778	6.52
511.978	6.56
512.177	6.62
512.377	6.6
512.576	6.56
512.776	6.62
512.975	6.6
513.175	6.62
513.374	6.61
513.573	6.63
513.773	6.64
513.972	6.71
514.172	6.85
514.371	7
514.57	7.05
514.77	7.09
514.969	7.13
515.168	7.07
515.367	7.03
515.567	7.12
515.766	7.12
515.965	7.17
516.164	7.23
516.364	7.19
516.563	7.13
516.762	7.28
516.961	7.38
517.16	7.47
517.359	7.6
517.559	7.72
517.758	7.75
517.957	7.8
518.156	7.84
518.355	7.86
518.554	7.91
518.753	7.94
518.952	8
519.151	8.06
519.35	8.03
519.549	8.1
519.748	8.13
519.947	8.3
520.146	8.38
520.345	8.44
520.544	8.45
520.743	8.52
520.942	8.67
521.141	8.66
521.339	8.67
521.538	8.73
521.737	8.81
521.936	8.87
522.135	8.85
522.333	8.9
522.532	8.89
522.731	9
522.93	9.05
523.129	9
523.327	9.02
523.526	9.01
523.725	9.07
523.923	9.14
524.122	9.24
524.321	9.16
524.519	9.2
524.718	9.28
524.917	9.38
525.115	9.46
525.314	9.52
525.512	9.57
525.711	9.72
525.909	9.81
526.108	9.81
526.306	9.78
526.505	9.9
526.703	9.9
526.902	9.92
527.1	9.95
527.299	10
527.497	10.05
527.696	10.12
527.894	10.1
528.092	10.15
528.291	10.15
528.489	10.25
528.688	10.29
528.886	10.39
529.084	10.45
529.283	10.51
529.481	10.58
529.679	10.67
529.877	10.7
530.076	10.82
530.274	10.91
530.472	11.07
530.67	11.12
530.869	11.21
531.067	11.26
531.265	11.32
531.463	11.34
531.661	11.37
531.859	11.4
532.057	11.49
532.255	11.52
532.454	11.59
532.652	11.6
532.85	11.7
533.048	11.72
533.246	11.8
533.444	11.88
533.642	11.96
533.84	12.05
534.038	12.15
534.236	12.21
534.434	12.32
534.632	12.35
534.83	12.41
535.027	12.48
535.225	12.6
535.423	12.66
535.621	12.75
535.819	12.87
536.017	12.91
536.215	12.92
536.412	12.95
536.61	12.99
536.808	13.05
537.006	13.16
537.203	13.24
537.401	13.33
537.599	13.44
537.797	13.41
537.994	13.48
538.192	13.63
538.39	13.74
538.587	13.9
538.785	13.96
538.983	14.04
539.18	14.09
539.378	14.13
539.575	14.18
539.773	14.19
539.97	14.31
540.168	14.34
540.366	14.42
540.563	14.44
540.761	14.45
540.958	14.49
541.155	14.5
541.353	14.57
541.55	14.59
541.748	14.62
541.945	14.68
542.143	14.73
542.34	14.78
542.537	14.78
542.735	14.93
542.932	15.03
543.129	15.12
543.327	15.22
543.524	15.29
543.721	15.47
543.919	15.62
544.116	15.72
544.313	15.83
544.51	15.99
544.708	16.09
544.905	16.14
545.102	16.23
545.299	16.34
545.496	16.44
545.693	16.46
545.891	16.5
546.088	16.51
546.285	16.64
546.482	16.71
546.679	16.72
546.876	16.8
547.073	16.84
547.27	16.95
547.467	16.99
547.664	17.02
547.861	17.21
548.058	17.32
548.255	17.45
548.452	17.45
548.649	17.53
548.846	17.63
549.043	17.84
549.24	18.04
549.437	18.16
549.633	18.24
549.83	18.36
550.027	18.32
550.224	18.37
550.421	18.38
550.618	18.43
550.814	18.48
551.011	18.5
551.208	18.35
551.405	18.27
551.601	18.16
551.798	18.16
551.995	18.2
552.191	18.29
552.388	18.25
552.585	18.27
552.781	18.31
552.978	18.43
553.175	18.37
553.371	18.46
553.568	18.48
553.764	18.63
553.961	18.73
554.157	18.91
554.354	18.91
554.55	19
554.747	19.15
554.943	19.22
555.14	19.19
555.336	19.39
555.533	19.51
555.729	19.54
555.926	19.66
556.122	19.82
556.318	19.65
556.515	19.75
556.711	19.71
556.907	19.72
557.104	19.76
557.3	19.83
557.496	19.89
557.693	19.92
557.889	20.05
558.085	20.04
558.281	19.95
558.478	20.18
558.674	20.26
558.87	20.44
559.066	20.48
559.262	20.61
559.459	20.71
559.655	20.73
559.851	20.81
560.047	20.84
560.243	20.76
560.439	20.8
560.635	20.8
560.831	20.73
561.027	20.82
561.223	20.9
561.419	20.94
561.615	20.96
561.811	20.98
562.007	20.98
562.203	20.9
562.399	21.12
562.595	21.19
562.791	21.25
562.987	21.36
563.183	21.43
563.379	21.45
563.575	21.48
563.771	21.49
563.966	21.62
564.162	21.73
564.358	21.88
564.554	21.77
564.75	21.69
564.945	21.64
565.141	21.7
565.337	21.68
565.533	21.71
565.728	21.69
565.924	21.64
566.12	21.62
566.315	21.66
566.511	21.64
566.707	21.75
566.902	21.98
567.098	21.96
567.293	22.01
567.489	22.12
567.684	22.17
567.88	22.32
568.076	22.48
568.271	22.51
568.467	22.52
568.662	22.55
568.858	22.54
569.053	22.55
569.248	22.74
569.444	22.72
569.639	22.7
569.835	22.62
570.03	22.56
570.225	22.56
570.421	22.61
570.616	22.59
570.812	22.66
571.007	22.68
571.202	22.67
571.397	22.7
571.593	22.76
571.788	22.74
571.983	22.81
572.178	22.86
572.374	22.86
572.569	22.9
572.764	22.93
572.959	23.02
573.154	23.12
573.35	23.16
573.545	23.16
573.74	23.14
573.935	23.19
574.13	23.25
574.325	23.4
574.52	23.45
574.715	23.49
574.91	23.52
575.105	23.45
575.3	23.57
575.495	23.64
575.69	23.74
575.885	23.93
576.08	24.07
576.275	24.17
576.47	24.12
576.665	24.3
576.86	24.43
577.055	24.59
577.25	24.74
577.444	24.7
577.639	24.92
577.834	24.93
578.029	24.93
578.224	25.02
578.418	25.14
578.613	25.33
578.808	25.25
579.003	25.34
579.197	25.25
579.392	25.4
579.587	25.41
579.781	25.28
579.976	25.36
580.171	25.44
580.365	25.45
580.56	25.39
580.755	25.41
580.949	25.43
581.144	25.37
581.338	25.58
581.533	25.65
581.727	25.73
581.922	25.82
582.116	25.84
582.311	25.91
582.505	26.01
582.7	26.1
582.894	26.13
583.089	26.21
583.283	26.27
583.478	26.25
583.672	26.21
583.866	26.23
584.061	26.18
584.255	26.35
584.449	26.3
584.644	26.23
584.838	26.32
585.032	26.27
585.226	26.4
585.421	26.47
585.615	26.54
585.809	26.44
586.003	26.61
586.198	26.92
586.392	26.82
586.586	26.86
586.78	26.89
586.974	26.86
587.168	26.9
587.363	26.89
587.557	26.81
587.751	26.87
587.945	26.93
588.139	26.85
588.333	26.57
588.527	26.5
588.721	26.41
588.915	26.44
589.109	26.34
589.303	26.47
589.497	26.57
589.691	26.66
589.885	26.65
590.079	26.61
590.273	26.66
590.466	26.73
590.66	26.94
590.854	27
591.048	26.94
591.242	27.19
591.436	27.08
591.629	26.92
591.823	27.08
592.017	27.16
592.211	27.31
592.404	27.26
592.598	27.34
592.792	27.21
592.986	27.33
593.179	27.37
593.373	27.33
593.567	27.35
593.76	27.41
593.954	27.36
594.147	27.34
594.341	27.33
594.535	27.36
594.728	27.25
594.922	27.17
595.115	27.26
595.309	27.29
595.502	27.24
595.696	27.19
595.889	27.19
596.083	26.98
596.276	26.78
596.47	26.74
596.663	26.75
596.856	26.81
597.05	26.99
597.243	26.87
597.437	26.9
597.63	26.94
597.823	26.96
598.017	26.92
598.21	27.06
598.403	27.27
598.596	27.44
598.79	27.52
598.983	27.48
599.176	27.41
599.369	27.5
599.563	27.61
599.756	27.7
599.949	27.75
600.142	27.83
600.335	27.76
600.528	27.67
600.722	27.52
600.915	27.57
601.108	27.58
601.301	27.57
601.494	27.62
601.687	27.59
601.88	27.55
602.073	27.63
602.266	27.65
602.459	27.63
602.652	27.73
602.845	27.72
603.038	27.62
603.231	27.63
603.424	27.69
603.617	27.62
603.809	27.49
604.002	27.42
604.195	27.3
604.388	27.31
604.581	27.34
604.774	27.39
604.966	27.38
605.159	27.42
605.352	27.4
605.545	27.45
605.737	27.61
605.93	27.73
606.123	27.79
606.316	27.99
606.508	28.06
606.701	28.2
606.894	28.28
607.086	28.36
607.279	28.53
607.471	28.64
607.664	28.81
607.857	28.73
608.049	29.02
608.242	29.25
608.434	29.62
608.627	30.01
608.819	30.39
609.012	30.77
609.204	31.27
609.397	31.77
609.589	32.55
609.782	33.12
609.974	34
610.166	34.61
610.359	35.41
610.551	35.96
610.743	36.5
610.936	36.99
611.128	37.42
611.32	37.8
611.513	38.02
611.705	38.24
611.897	38.2
612.09	37.95
612.282	37.81
612.474	37.43
612.666	36.99
612.858	36.72
613.051	36.48
613.243	36.26
613.435	36.03
613.627	35.78
613.819	35.22
614.011	35.2
614.203	35.08
614.395	34.9
614.588	34.72
614.78	34.45
614.972	34.07
615.164	33.91
615.356	33.44
615.548	33.18
615.74	32.8
615.932	32.85
616.124	32.26
616.315	32
616.507	31.54
616.699	31.4
616.891	31.55
617.083	31.45
617.275	31.18
617.467	31.24
617.659	31.04
617.85	31.05
618.042	30.77
618.234	30.85
618.426	30.69
618.618	30.81
618.809	30.83
619.001	30.53
619.193	30.64
619.384	30.7
619.576	30.73
619.768	30.73
619.959	30.83
620.151	30.91
620.343	31.01
620.534	31.13
620.726	31.05
620.917	31.05
621.109	31.24
621.301	31.1
621.492	31.17
621.684	31.11
621.875	31.15
622.067	31.15
622.258	30.95
622.45	30.83
622.641	30.78
622.832	30.77
623.024	30.79
623.215	30.78
623.407	30.96
623.598	31.07
623.789	31.13
623.981	31.3
624.172	31.2
624.363	31.13
624.555	31.08
624.746	31.1
624.937	31.13
625.129	30.92
625.32	30.9
625.511	30.85
625.702	30.67
625.893	30.71
626.085	30.54
626.276	30.63
626.467	30.89
626.658	30.9
626.849	30.93
627.04	30.89
627.231	30.94
627.422	30.98
627.614	30.88
627.805	30.92
627.996	30.88
628.187	30.97
628.378	30.97
628.569	30.94
628.76	31
628.951	31.19
629.142	31.4
629.332	31.46
629.523	31.64
629.714	31.97
629.905	31.99
630.096	32.15
630.287	32.28
630.478	32.32
630.669	32.38
630.859	32.47
631.05	32.26
631.241	32.23
631.432	32.24
631.623	31.93
631.813	31.73
632.004	31.57
632.195	31.37
632.385	31.2
632.576	31.09
632.767	30.86
632.957	30.66
633.148	30.56
633.339	30.51
633.529	30.49
633.72	30.55
633.91	30.22
634.101	30.22
634.292	30.35
634.482	30.41
634.673	30.51
634.863	30.68
635.054	30.58
635.244	30.62
635.435	30.69
635.625	30.76
635.815	30.75
636.006	30.91
636.196	31.01
636.387	30.92
636.577	30.73
636.767	30.73
636.958	30.68
637.148	30.79
637.338	30.71
637.529	30.76
637.719	30.61
637.909	30.54
638.099	30.68
638.29	30.73
638.48	30.9
638.67	31.2
638.86	31.18
639.05	31.16
639.241	31.35
639.431	31.43
639.621	31.23
639.811	31.2
640.001	31.48
640.191	31.51
640.381	31.65
640.571	31.5
640.761	31.54
640.951	31.42
641.141	31.49
641.331	31.59
641.521	31.65
641.711	31.84
641.901	32.03
642.091	32
642.281	32.17
642.471	32.15
642.661	32.25
642.851	32.13
643.041	32.24
643.231	32.24
643.42	32.12
643.61	32.16
643.8	32.33
643.99	32.37
644.18	32.32
644.369	32.21
644.559	32.3
644.749	32.28
644.939	32.27
645.128	32.38
645.318	32.46
645.508	32.35
645.697	32.59
645.887	32.3
646.076	32.04
646.266	31.98
646.456	31.95
646.645	31.8
646.835	31.64
647.024	31.62
647.214	31.58
647.403	31.48
647.593	31.48
647.782	31.29
647.972	31.12
648.161	31.43
648.351	31.6
648.54	31.61
648.73	31.74
648.919	31.81
649.108	31.95
649.298	32
649.487	32.15
649.677	32.31
649.866	32.54
650.055	32.63
650.244	32.75
650.434	32.79
650.623	33.11
650.812	33.04
651.002	33.08
651.191	33.03
651.38	32.91
651.569	32.79
651.758	32.86
651.947	32.74
652.137	32.85
652.326	32.76
652.515	32.76
652.704	32.71
652.893	32.67
653.082	32.64
653.271	32.68
653.46	32.79
653.649	32.72
653.838	32.67
654.027	32.58
654.216	32.6
654.405	32.45
654.594	32.43
654.783	31.91
654.972	31.98
655.161	32.07
655.35	32.17
655.539	31.99
655.728	32.19
655.916	32.31
656.105	32.38
656.294	32.44
656.483	32.52
656.672	32.35
656.86	32.6
657.049	32.39
657.238	32.24
657.427	32.21
657.615	32.27
657.804	32.1
657.993	31.98
658.181	31.9
658.37	31.75
658.559	31.46
658.747	31.45
658.936	31.47
659.125	31.66
659.313	31.7
659.502	31.66
659.69	31.66
659.879	31.85
660.067	31.68
660.256	31.71
660.444	31.9
660.633	32.18
660.821	32.33
661.01	32.52
661.198	32.52
661.387	32.58
661.575	32.67
661.763	32.89
661.952	32.97
662.14	33.23
662.328	33.18
662.517	33.32
662.705	33.25
662.893	33.2
663.082	33.03
663.27	33.11
663.458	33.26
663.646	33.43
663.834	33.29
664.023	32.94
664.211	32.86
664.399	33.11
664.587	32.98
664.775	33.25
664.963	33.18
665.152	33.2
665.34	33.41
665.528	33.38
665.716	33.24
665.904	33.18
666.092	33.33
666.28	33.59
666.468	33.35
666.656	33.53
666.844	33.55
667.032	33.58
667.22	33.58
667.408	33.23
667.596	33.2
667.784	33.15
667.971	33.45
668.159	33.44
668.347	33.14
668.535	33.39
668.723	33.28
668.911	33.22
669.098	33.16
669.286	33.29
669.474	33.37
669.662	33.43
669.849	33.45
670.037	33.38
670.225	33.61
670.413	33.9
670.6	33.84
670.788	33.79
670.976	33.72
671.163	34
671.351	34.24
671.538	34.54
671.726	34.64
671.913	34.7
672.101	34.77
672.289	34.67
672.476	34.72
672.664	34.88
672.851	34.67
673.039	34.85
673.226	34.67
673.413	34.43
673.601	34.19
673.788	33.85
673.976	33.92
674.163	33.79
674.35	33.81
674.538	33.65
674.725	33.54
674.912	33.88
675.1	33.66
675.287	33.7
675.474	33.66
675.662	33.74
675.849	33.86
676.036	33.74
676.223	33.83
676.411	34.05
676.598	34.19
676.785	34.33
676.972	34.41
677.159	34.46
677.346	34.41
677.533	34.51
677.721	34.42
677.908	34.55
678.095	34.41
678.282	34.17
678.469	34.03
678.656	34.13
678.843	33.86
679.03	33.66
679.217	33.78
679.404	33.82
679.591	33.73
679.778	33.65
679.964	33.28
680.151	33.23
680.338	33.48
680.525	33.45
680.712	33.25
680.899	33.25
681.086	33.17
681.272	33.08
681.459	32.88
681.646	33
681.833	32.99
682.02	33.34
682.206	33.51
682.393	33.34
682.58	33.41
682.766	33.33
682.953	33.33
683.14	33.77
683.326	33.87
683.513	34.22
683.7	34.35
683.886	34.48
684.073	34.76
684.259	34.86
684.446	34.93
684.632	34.92
684.819	35.01
685.005	35.36
685.192	34.94
685.378	34.93
685.565	34.73
685.751	34.54
685.938	34.57
686.124	34.5
686.31	34.68
686.497	34.59
686.683	34.51
686.87	34.46
687.056	34.25
687.242	34.55
687.429	34.65
687.615	34.74
687.801	34.74
687.987	34.88
688.174	34.39
688.36	34.08
688.546	34.24
688.732	34.6
688.918	34.89
689.105	34.91
689.291	34.67
689.477	34.92
689.663	34.96
689.849	34.92
690.035	34.74
690.221	34.9
690.407	34.99
690.593	34.92
690.779	34.61
690.965	34.65
691.151	34.6
691.337	35.01
691.523	34.82
691.709	34.67
691.895	34.74
692.081	34.91
692.267	35.2
692.453	35.22
692.639	35.29
692.825	35.3
693.011	35.35
693.196	35.4
693.382	35.15
693.568	35.2
693.754	35.42
693.94	35.48
694.125	35.06
694.311	35.08
694.497	35.29
694.682	35.49
694.868	35.39
695.054	35.14
695.239	35.17
695.425	35.2
695.611	34.94
695.796	34.97
695.982	34.38
696.168	34.88
696.353	34.83
696.539	34.17
696.724	33.89
696.91	33.68
697.095	33.52
697.281	33.48
697.466	33.26
697.652	33.19
697.837	33.03
698.023	33.2
698.208	32.85
698.393	32.52
698.579	32.82
698.764	32.61
698.949	32.76
699.135	32.97
699.32	32.83
699.505	32.72
699.691	32.65
699.876	32.6
700.061	32.65
700.246	32.84
700.432	32.89
700.617	32.98
700.802	33.47
700.987	33.51
701.172	33.84
701.358	34.17
701.543	34.75
701.728	35.06
701.913	35.58
702.098	35.68
702.283	35.92
702.468	36.35
702.653	36.53
702.838	36.33
703.023	36.55
703.208	36.32
703.393	36.5
703.578	36.22
703.763	36.27
703.948	36.28
704.133	36.61
704.318	36.57
704.503	36.79
704.688	36.99
704.873	37.33
705.057	37.58
705.242	37.7
705.427	37.97
705.612	38.33
705.797	38.93
705.981	39.24
706.166	39.25
706.351	39.73
706.536	39.82
706.72	40.12
706.905	39.99
707.09	39.66
707.274	39.71
707.459	39.37
707.644	39.54
707.828	39.18
708.013	38.69
708.197	38.39
708.382	37.79
708.567	37.82
708.751	37.24
708.936	37.19
709.12	37.2
709.305	37.05
709.489	37.12
709.673	36.97
709.858	37
710.042	37.14
710.227	37.5
710.411	37.86
710.596	37.74
710.78	37.95
710.964	38.04
711.149	38.2
711.333	38.17
711.517	38.16
711.702	38.39
711.886	37.79
712.07	37.6
712.254	37.4
712.438	37.32
712.623	37.13
712.807	37.01
712.991	36.96
713.175	36.79
713.359	36.72
713.544	36.49
713.728	36.12
713.912	36.43
714.096	36.07
714.28	35.86
714.464	35.58
714.648	35.48
714.832	35.13
715.016	35.01
715.2	35.26
715.384	35
715.568	34.8
715.752	34.76
715.936	34.34
716.12	34.34
716.304	34.32
716.488	34.37
716.671	34.49
716.855	34.78
717.039	34.4
717.223	33.85
717.407	33.73
717.59	33.62
717.774	33.34
717.958	33.54
718.142	34.1
718.325	34.16
718.509	34.38
718.693	34.13
718.877	33.96
719.06	34.4
719.244	35.09
719.428	35.47
719.611	35.83
719.795	36.31
719.978	36.69
720.162	36.38
720.345	36.72
720.529	36.41
720.713	36.61
720.896	36.83
721.08	36.6
721.263	36.33
721.446	36.28
721.63	36.09
721.813	36
721.997	35.83
722.18	36.1
722.364	35.56
722.547	35.73
722.73	35.51
722.914	35.36
723.097	35.44
723.28	35.18
723.464	35.15
723.647	35.39
723.83	35.05
724.013	34.95
724.197	34.83
724.38	35.19
724.563	34.84
724.746	35.18
724.929	35.03
725.112	34.83
725.296	35.21
725.479	35.24
725.662	35.15
725.845	35.24
726.028	35.27
726.211	35.51
726.394	35.71
726.577	36.19
726.76	36.14
726.943	36.16
727.126	36.12
727.309	35.54
727.492	35.52
727.675	35.49
727.858	35.28
728.041	35.05
728.224	34.99
728.407	34.76
728.589	34.48
728.772	34.26
728.955	34.37
729.138	34.37
729.321	34.84
729.503	34.84
729.686	34.58
729.869	34.93
730.052	34.98
730.234	34.99
730.417	35
730.6	34.92
730.782	34.76
730.965	34.84
731.148	35.15
731.33	34.79
731.513	34.8
731.695	34.94
731.878	34.68
732.061	34.85
732.243	34.91
732.426	34.85
732.608	34.96
732.791	35.33
732.973	35.06
733.156	35.2
733.338	35.4
733.52	35.59
733.703	35.58
733.885	35.6
734.068	35.64
734.25	35.17
734.432	35.22
734.615	35.43
734.797	35.43
734.979	35.54
735.162	35.32
735.344	35.32
735.526	35.23
735.708	35.51
735.891	35.81
736.073	35.89
736.255	36.62
736.437	36.53
736.619	36.32
736.802	36.57
736.984	36.82
737.166	36.87
737.348	37.24
737.53	37.15
737.712	37.41
737.894	37.65
738.076	37.79
738.258	36.89
738.44	37.18
738.622	37.69
738.804	37.47
738.986	37.42
739.168	37.19
739.35	36.59
739.532	36.94
739.714	36.83
739.896	36.43
740.078	36.31
740.259	36.9
740.441	37.41
740.623	37.17
740.805	37.19
740.987	37.02
741.168	37.42
741.35	38.18
741.532	37.94
741.714	37.72
741.895	37.93
742.077	37.89
742.259	38.38
742.44	38.29
742.622	38.15
742.804	38.08
742.985	38.49
743.167	38.37
743.348	38.22
743.53	38.48
743.711	38.85
743.893	38.83
744.075	39.27
744.256	38.8
744.438	38.33
744.619	39.04
744.8	39.08
744.982	38.9
745.163	39.26
745.345	39.63
745.526	39.16
745.707	38.95
745.889	38.83
746.07	38.44
746.252	38.67
746.433	38.31
746.614	37.4
746.795	37.88
746.977	37.91
747.158	38.44
747.339	38.39
747.52	38.29
747.702	38.48
747.883	38.4
748.064	38.73
748.245	38.39
748.426	38.74
748.607	39.11
748.788	39.39
748.97	39.19
749.151	38.88
749.332	38.85
749.513	39.22
749.694	39.09
749.875	39.11
750.056	39.01
750.237	39.35
750.418	39.44
750.599	39.81
750.78	39.66
750.96	40.37
751.141	40.23
751.322	39.94
751.503	40.21
751.684	41.14
751.865	41.19
752.046	41.03
752.226	41.35
752.407	41.03
752.588	40.07
752.769	39.72
752.949	39.48
753.13	39.58
753.311	39
753.492	38.99
753.672	38.68
753.853	38.62
754.034	39.08
754.214	38.7
754.395	39.13
754.575	39.97
754.756	39.52
754.937	39.84
755.117	39.27
755.298	40.06
755.478	40.29
755.659	39.63
755.839	40.31
756.02	39.68
756.2	40.19
756.381	40.43
756.561	39.96
756.741	40.3
756.922	40.12
757.102	40.06
757.283	38.98
757.463	38.09
757.643	38.66
757.823	38.84
758.004	39.02
758.184	38.76
758.364	38.67
758.545	38.2
758.725	38.2
758.905	37.2
759.085	37.44
759.265	38.07
759.446	37.86
759.626	37.22
759.806	36.11
759.986	35.22
760.166	34.26
760.346	33.14
760.526	33.42
760.706	33.16
760.886	33.34
761.066	32.73
761.246	32.5
761.426	32.89
761.606	32.87
761.786	32.87
761.966	33.54
762.146	33.52
762.326	33.79
762.506	33.84
762.686	33.73
762.866	33.55
763.046	33.53
763.225	33.23
763.405	32.73
763.585	32.36
763.765	32.54
763.945	32.39
764.124	32.62
764.304	32.81
764.484	32.74
764.664	32.91
764.843	33.29
765.023	33.54
765.203	33.91
765.382	34.62
765.562	35.32
765.741	35.59
765.921	36.11
766.101	36.57
766.28	37.16
766.46	38.36
766.639	38.49
766.819	38.85
766.998	39.49
767.178	39.84
767.357	39.7
767.537	39.59
767.716	39.59
767.896	39.81
768.075	39.31
768.254	39.38
768.434	38.76
768.613	39.16
768.792	39.37
768.972	39.12
769.151	39.11
769.33	39.73
769.51	39.57
769.689	40.25
769.868	40.7
770.047	41.78
770.226	41.37
770.406	41.35
770.585	41.55
770.764	41.49
770.943	42
771.122	41.84
771.301	41.4
771.48	42.19
771.66	42.37
771.839	42.08
772.018	41.77
772.197	42.27
772.376	42.3
772.555	42.01
772.734	42.44
772.913	42.02
773.092	42.64
773.271	43.4
773.449	43.55
773.628	42.49
773.807	42.62
773.986	42.5
774.165	42.82
774.344	43.42
774.523	43.73
774.701	43.48
774.88	43.4
775.059	43.72
775.238	43.23
775.417	42.99
775.595	43.38
775.774	42.61
775.953	43.03
776.131	42.6
776.31	41.57
776.489	42.12
776.667	42.1
776.846	42.07
777.025	41.76
777.203	42.02
777.382	41.85
777.56	42.09
777.739	42.79
777.917	42.66
778.096	42.32
778.274	42.89
778.453	41.88
778.631	42.32
778.81	42.56
778.988	42.3
779.166	41.97
779.345	41.87
779.523	41.51
779.702	40.96
779.88	40.38
780.058	40.54
780.237	40.31
780.415	41.02
780.593	41.85
780.771	41.87
780.95	42.21
781.128	42.63
781.306	42.76
781.484	42.88
781.662	42.92
781.841	43.05
782.019	42.45
782.197	42.64
782.375	42.42
782.553	41.87
782.731	42.49
782.909	42.32
783.087	41.88
783.265	41.74
783.443	42.18
783.621	42.96
783.799	43.94
783.977	45.09
784.155	45.15
784.333	44.4
784.511	43.84
784.689	43.55
784.867	42.98
785.045	43.31
785.223	43.86
785.4	43.59
785.578	42.99
785.756	40.97
785.934	40.47
786.112	39.85
786.289	41.07
786.467	41.03
786.645	40.63
786.823	40.97
787	41.06
787.178	41.71
787.356	40.93
787.533	41.88
787.711	42.98
787.889	42.77
788.066	43.07
788.244	42.03
788.421	41.8
788.599	41.21
788.776	41.68
788.954	41.5
789.131	40.56
789.309	40.75
789.486	39.91
789.664	39.96
789.841	40.11
790.019	40.17
790.196	39.84
790.373	39.64
790.551	40.37
790.728	39.84
790.906	40.2
791.083	40.15
791.26	41.23
791.437	41.7
791.615	41.77
791.792	42.43
791.969	41.81
792.146	43.38
792.324	43.49
792.501	44.16
792.678	43.5
792.855	44.21
793.032	44.71
793.209	44.19
793.387	44.27
793.564	44.01
793.741	43.49
793.918	44.28
794.095	42.94
794.272	43.17
794.449	42.69
794.626	42.9
794.803	41.7
794.98	41.44
795.157	42.2
795.334	41.92
795.511	42.54
795.688	42.65
795.864	42.67
796.041	42.89
796.218	42.56
796.395	42.66
796.572	42.65
796.749	42.23
796.925	41.74
797.102	42.41
797.279	41.78
797.456	41.92
797.632	41.53
797.809	40.5
797.986	40.35
798.162	40.29
798.339	40.11
798.516	40.78
798.692	42.22
798.869	42.4
799.046	40.55
799.222	41.25
799.399	40.94
799.575	41.98
799.752	42.92
799.928	42.99
800.105	43.72
800.281	44.36
800.458	43.96
800.634	42.17
800.811	42.02
800.987	42.21
801.163	42.34
801.34	42.65
801.516	41.97
801.692	42.43
801.869	43.11
802.045	41.98
802.221	41.11
802.398	41.53
802.574	42.18
802.75	43.13
802.926	42.53
803.103	42.13
803.279	42.6
803.455	42.42
803.631	42.12
803.807	42.74
803.983	45.06
804.16	45.85
804.336	45.69
804.512	44.85
804.688	43.5
804.864	45.58
805.04	45.48
805.216	45.64
805.392	46.07
805.568	46.35
805.744	45.34
805.92	43.6
806.096	42.32
806.272	42.26
806.448	45.22
806.623	46.16
806.799	44.63
806.975	43.89
807.151	42.99
807.327	42.65
807.503	42.3
807.678	42.4
807.854	43.84
808.03	44.53
808.206	46.53
808.381	45.23
808.557	46.02
808.733	46.57
808.908	47.89
809.084	46.79
809.26	47.2
809.435	46.84
809.611	47.01
809.787	47.63
809.962	47.68
810.138	46.95
810.313	46.11
810.489	45.01
810.664	44.95
810.84	44.25
811.015	46.29
811.191	46.48
811.366	45.94
811.542	46.94
811.717	44.84
811.892	44.62
812.068	44.45
812.243	44.58
812.419	44.64
812.594	44.58
812.769	44
812.944	43.13
813.12	41.33
813.295	41.48
813.47	40.37
813.645	40.7
813.821	41.19
813.996	41.45
814.171	40.49
814.346	41.2
814.521	40.41
814.697	42.64
814.872	40.95
815.047	41.99
815.222	43.05
815.397	42.23
815.572	42.57
815.747	43.24
815.922	41.07
816.097	42.29
816.272	41.45
816.447	42.17
816.622	40.95
816.797	41.46
816.972	43.13
817.147	42.94
817.322	43.45
817.496	43.72
817.671	41.85
817.846	41.37
818.021	41.24
818.196	41.55
818.371	40.73
818.545	40.5
818.72	40.69
818.895	37.97
819.069	36.95
819.244	36.68
819.419	36.38
819.594	37.2
819.768	37.39
819.943	36.01
820.117	35.06
820.292	34.87
820.467	34.15
820.641	33.68
820.816	33.4
820.99	32.8
821.165	31.93
821.339	31.25
821.514	30.59
821.688	30.16
821.863	30.04
822.037	29.8
822.212	29.22
822.386	28.62
822.56	28.62
822.735	28.7
822.909	28.64
823.084	28.63
823.258	28.63
823.432	28.59
823.606	28.78
823.781	29.09
823.955	29.1
824.129	29.51
824.303	30.07
824.478	30.2
824.652	30.53
824.826	30.66
825	31.07
825.174	31.4
825.348	31.96
825.523	32.26
825.697	32
825.871	32.24
826.045	32.25
826.219	32.04
826.393	31.81
826.567	31.5
826.741	31.97
826.915	31.69
827.089	32.15
827.263	31.91
827.437	31.63
827.611	31.88
827.784	32.22
827.958	32.24
828.132	32.64
828.306	32.89
828.48	32.68
828.654	32.53
828.827	32.69
829.001	32.37
829.175	32.55
829.349	32.8
829.522	32.99
829.696	33.83
829.87	34.95
830.044	35.84
830.217	35.3
830.391	36.54
830.565	37.16
830.738	38.58
830.912	38.6
831.085	38.98
831.259	40.2
831.432	41.11
831.606	40.08
831.779	39.7
831.953	39.93
832.126	40.75
832.3	40.85
832.473	39.27
832.647	38.28
832.82	37.32
832.994	36.89
833.167	36.72
833.34	35.72
833.514	35.88
833.687	35.08
833.86	33.98
834.034	34.31
834.207	34.04
834.38	34.48
834.553	35.08
834.727	34.69
834.9	34.83
835.073	34.46
835.246	34.49
835.419	34.25
835.593	34.83
835.766	35.15
835.939	34.83
836.112	35.76
836.285	35.27
836.458	34.97
836.631	37.04
836.804	37.66
836.977	38.5
837.15	39.68
837.323	40.17
837.496	40.95
837.669	40.81
837.842	41.32
838.015	39.56
838.188	41.44
838.361	42.07
838.533	41.68
838.706	41.75
838.879	41.27
839.052	41.35
839.225	42.55
839.398	42.34
839.57	43.5
839.743	42.7
839.916	42.41
840.088	42.37
840.261	41.71
840.434	41.25
840.607	41.19
840.779	42.51
840.952	42.23
841.124	41.07
841.297	40.68
841.47	40.62
841.642	42.28
841.815	44.52
841.987	46.9
842.16	49.06
842.332	50.29
842.505	51.59
842.677	52.6
842.85	52.91
843.022	55.28
843.194	58.74
843.367	59.38
843.539	60.32
843.712	61.58
843.884	58.61
844.056	56.15
844.229	53.79
844.401	52.32
844.573	49.93
844.745	52.44
844.918	50.52
845.09	52.89
845.262	54.37
845.434	55.73
845.606	53.1
845.779	57.38
845.951	58.96
846.123	60.67
846.295	60.14
846.467	62.76
846.639	60.35
846.811	65.62
846.983	60.69
847.155	60.59
847.327	57.36
847.499	60.54
847.671	59.47
847.843	60.98
848.015	63
848.187	65.54
848.359	64.63
848.531	67.97
848.703	66.29
848.875	68.06
849.047	70.06
849.218	73.38
849.39	71.22
849.562	72.12
849.734	73.2
849.905	75.99
850.077	77.47
850.249	77.84
850.421	79.2
850.592	76.15
850.764	74.53
850.936	73.73
851.107	73.89
851.279	77.89
851.451	75.01
851.622	71.36
851.794	70.77
851.965	72.05
852.137	71.76
852.308	67.72
852.48	67.11
852.651	66.33
852.823	65.1
852.994	58.91
853.166	53.34
853.337	57.12
853.509	61.22
853.68	62.81
853.851	63.37
854.023	61.08
854.194	63.08
854.365	65.85
854.537	69.59
854.708	75.31
854.879	80.75
855.05	87.29
855.222	85.56
855.393	84.23
855.564	81.17
855.735	80.37
855.906	83.1
856.078	84.63
856.249	82.35
856.42	82.11
856.591	80.54
856.762	75.98
856.933	75.85
857.104	73.82
857.275	71.21
857.446	73.04
857.617	70.28
857.788	69.12
857.959	67.06
858.13	70.4
858.301	69.8
858.472	66.18
858.643	74.3
858.814	74.11
858.985	74.5
859.155	78.38
859.326	77.16
859.497	80.22
859.668	81.97
859.839	84.04
860.009	84.46
860.18	86.99
860.351	88.34
860.522	85.36
860.692	86.57
860.863	92.38
861.034	88.9
861.204	89.14
861.375	86.11
861.546	87.93
861.716	87.7
861.887	81.17
862.057	71.39
862.228	74.79
862.398	78.4
862.569	76.27
862.739	75.26
862.91	75.79
863.08	75.2
863.251	73.61
863.421	74.06
863.592	72.05
863.762	73.76
863.932	79.02
864.103	74.57
864.273	72.78
864.443	71.37
864.614	68.92
864.784	69.96
864.954	72.26
865.125	76.97
865.295	75.38
865.465	77.33
865.635	78.38
865.805	81.79
865.976	86.89
866.146	85.3
866.316	87.44
866.486	94.1
866.656	95.87
866.826	92.48
866.996	94.48
867.166	91.77
867.336	90.55
867.506	92.72
867.676	91.84
867.846	87.31
868.016	86.17
868.186	85.98
868.356	81.25
868.526	82.58
868.696	84.22
868.866	83.35
869.036	85.52
869.206	86.66
869.376	87.4
869.545	85.27
869.715	84.4
869.885	82.91
870.055	80.89
870.224	79.75
870.394	76.74
870.564	75.34
870.734	71.31
870.903	72.65
871.073	69.44
871.243	61
871.412	57.18
871.582	59.42
871.751	65.74
871.921	69.99
872.091	70.5
872.26	68.82
872.43	68.12
872.599	69.93
872.769	70.08
872.938	69.31
873.108	73.33
873.277	76.29
873.446	75.68
873.616	72.21
873.785	73.46
873.955	75.65
874.124	76.01
874.293	72.79
874.463	70.39
874.632	67.46
874.801	67.02
874.971	67.08
875.14	68.44
875.309	69.24
875.478	69.07
875.647	61.99
875.817	60.93
875.986	61.16
876.155	65.98
876.324	67.28
876.493	71.92
876.662	74.2
876.831	74.4
877	75.09
877.17	72.03
877.339	71.62
877.508	76.99
877.677	74.45
877.846	78.81
878.015	75.26
878.184	75.47
878.352	67.87
878.521	70.42
878.69	69.01
878.859	67.22
879.028	67.53
879.197	65.45
879.366	63.27
879.534	62.95
879.703	56.73
879.872	54.77
880.041	51.99
880.21	49.72
880.378	45
880.547	42.45
880.716	40.2
880.884	38.66
881.053	37.3
881.222	35.78
881.39	34.7
881.559	34.21
881.727	33.37
881.896	32.7
882.065	32.39
882.233	32.38
882.402	32.16
882.57	31.77
882.739	31.71
882.907	31.73
883.076	31.22
883.244	30.65
883.412	30.63
883.581	31.43
883.749	32.34
883.918	32.49
884.086	32.42
884.254	33.33
884.423	33.93
884.591	34.05
884.759	34.8
884.927	35.9
885.096	38.97
885.264	39.06
885.432	39.48
885.6	39.83
885.769	42.32
885.937	44.82
886.105	45.49
886.273	47.16
886.441	50.64
886.609	51.51
886.777	54.26
886.945	55.31
887.113	63.21
887.281	64.63
887.449	66.46
887.617	65.23
887.785	66.86
887.953	64.91
888.121	67.37
888.289	63.01
888.457	65.03
888.625	63.6
888.793	60.84
888.961	55.85
889.129	58.41
889.296	61.67
889.464	63.15
889.632	61.36
889.8	65.57
889.967	62.7
890.135	70.41
