Data from 2938827__Reflection_02.txt Node
Date: Thu Mar 12 13:26:13 EDT 2015
User: robert
Spectrometer: USB4E03002
Autoset integration time: false
Trigger mode: 4
Integration Time (sec): 1.000000E-1
Scans to average: 10
Electric dark correction enabled: false
Nonlinearity correction enabled: false
Boxcar width: 5
Stray light correction enabled: false
XAxis mode: Wavelengths
Stop averaging: false
Number of Pixels in Spectrum: 3648
>>>>>Begin Spectral Data<<<<<
177.575	-715.44
177.794	-1752
178.014	-4076.74
178.233	-1640
178.452	-1477.85
178.672	-1532.91
178.891	-2106.56
179.11	-3337.8
179.33	4891.67
179.549	-3014.71
179.768	-2482.54
179.987	2778.81
180.207	1578.92
180.426	1837.72
180.645	1517.97
180.864	717.51
181.084	532.86
181.303	605.1
181.522	506.04
181.741	615.06
181.96	515.81
182.179	483.42
182.398	460.17
182.618	624.59
182.837	686.68
183.056	688.65
183.275	1140.37
183.494	2417.14
183.713	1428.05
183.932	4084.34
184.151	-3218.81
184.37	-4451.39
184.589	-1840.59
184.808	-1885.38
185.027	-7785.37
185.246	3921.69
185.465	2787.07
185.684	1840.35
185.903	1480.62
186.122	1391.42
186.341	829.57
186.56	453.35
186.779	560.62
186.998	502.47
187.216	485.78
187.435	574.49
187.654	584.12
187.873	490.94
188.092	487.21
188.311	501.8
188.53	452.19
188.748	534.29
188.967	677.34
189.186	538.65
189.405	548.84
189.623	690.73
189.842	535.96
190.061	585.81
190.28	581.79
190.498	473.68
190.717	494.28
190.936	675.82
191.154	755.23
191.373	862.56
191.592	708.75
191.81	734.18
192.029	605.79
192.248	1006.85
192.466	1323.46
192.685	2862.9
192.904	-8666.67
193.122	-19817.65
193.341	7275.56
193.559	3564.21
193.778	25976.92
193.996	-2947.9
194.215	-1598.7
194.433	-855.69
194.652	-1014.61
194.87	-1577.68
195.089	-1250.53
195.307	-1030.56
195.526	-807.33
195.744	-790.91
195.963	-811.42
196.181	-975
196.399	-1071.3
196.618	-2077.4
196.836	-2546.21
197.055	-1860.8
197.273	-1069.82
197.491	-1675
197.71	-2371.24
197.928	-2058.38
198.146	-3406.73
198.365	-3178.57
198.583	-38988.89
198.801	9591.43
199.019	3697.78
199.238	1523.39
199.456	1136.4
199.674	1066.21
199.892	961.59
200.111	1611.7
200.329	649.69
200.547	554.72
200.765	588.43
200.983	617.97
201.202	620.12
201.42	1061.76
201.638	2000.61
201.856	2381.38
202.074	1305.53
202.292	1354.24
202.51	860.52
202.728	1811.9
202.946	1889.87
203.165	1634.92
203.383	1600
203.601	1165.43
203.819	608.98
204.037	577.97
204.255	537.5
204.473	467.96
204.691	516.77
204.909	556.37
205.127	582.86
205.345	1058.75
205.562	1126.81
205.78	1489.72
205.998	1284.52
206.216	3009.17
206.434	2523.53
206.652	-3203.92
206.87	-2848.72
207.088	-2072.05
207.306	-2198.73
207.523	-3605
207.741	-8079.55
207.959	5496.88
208.177	2107.1
208.395	1668.1
208.612	1271.93
208.83	1334.48
209.048	659.67
209.266	692.16
209.483	575.37
209.701	411.25
209.919	354.21
210.136	334.6
210.354	338.22
210.572	374.82
210.79	578.06
211.007	478.62
211.225	474.52
211.442	414.91
211.66	417.33
211.878	422.18
212.095	510.76
212.313	568.66
212.53	544.88
212.748	476.2
212.966	535.62
213.183	404.55
213.401	450.26
213.618	411.5
213.836	506.68
214.053	586.49
214.271	661.83
214.488	825
214.705	768.01
214.923	739.61
215.14	1031.65
215.358	551.31
215.575	626.76
215.793	511.66
216.01	507.33
216.227	448.4
216.445	391.58
216.662	352.9
216.879	336.15
217.097	319.88
217.314	305.06
217.531	325.49
217.749	380.15
217.966	302.16
218.183	291.89
218.4	278.02
218.618	274.51
218.835	242.59
219.052	250.45
219.269	245.9
219.487	252.55
219.704	230.43
219.921	208.32
220.138	205.65
220.355	214.06
220.572	221.88
220.79	201.5
221.007	188.17
221.224	209.58
221.441	202.25
221.658	193.98
221.875	186.18
222.092	176.79
222.309	173.24
222.526	168.37
222.743	162.8
222.96	156.44
223.177	168.19
223.394	158.38
223.611	145.88
223.828	137
224.045	127.19
224.262	115.68
224.479	107.47
224.696	102.06
224.913	95.58
225.13	94.83
225.347	90.83
225.564	83.12
225.781	80.98
225.997	77.58
226.214	72.12
226.431	65.22
226.648	62.58
226.865	60.73
227.082	54.38
227.298	47.18
227.515	39.65
227.732	34.57
227.949	31.38
228.165	28.47
228.382	26.04
228.599	24.26
228.816	23.65
229.032	21.76
229.249	20.6
229.466	20.1
229.682	19.74
229.899	20.93
230.116	21.73
230.332	22.26
230.549	23.36
230.765	25.31
230.982	26.63
231.199	28.1
231.415	30.1
231.632	31.47
231.848	32.14
232.065	32.96
232.281	34.89
232.498	35.87
232.714	38.02
232.931	37.22
233.147	35.96
233.364	36.41
233.58	35.66
233.797	34.92
234.013	34.3
234.23	34.73
234.446	35.44
234.662	33.46
234.879	32.67
235.095	31.6
235.312	32.16
235.528	32.95
235.744	33.54
235.961	34.2
236.177	35.52
236.393	35.46
236.61	36.67
236.826	36.71
237.042	37.84
237.258	38.05
237.475	39.2
237.691	39.42
237.907	37.94
238.123	36.23
238.339	37.6
238.556	36.78
238.772	37.05
238.988	34.53
239.204	33.62
239.42	32.2
239.636	31.85
239.853	28.97
240.069	27.07
240.285	26.15
240.501	24.91
240.717	22.34
240.933	21.28
241.149	20.03
241.365	18.9
241.581	17.89
241.797	16.82
242.013	15.64
242.229	14.85
242.445	15.35
242.661	14.99
242.877	15.65
243.093	15.82
243.309	15.69
243.525	15.19
243.741	16.02
243.957	16.84
244.173	17.01
244.388	17.52
244.604	18.23
244.82	17.54
245.036	17.2
245.252	15.81
245.468	14.96
245.683	14.37
245.899	14.06
246.115	13.16
246.331	12.61
246.547	11.88
246.762	11.5
246.978	11.24
247.194	10.88
247.409	10.41
247.625	10.36
247.841	10.11
248.057	10.12
248.272	10.5
248.488	11.13
248.703	10.79
248.919	11.34
249.135	11.78
249.35	12.12
249.566	12.75
249.782	13.77
249.997	14.34
250.213	15.26
250.428	16.05
250.644	15.43
250.859	15.62
251.075	16.06
251.29	16.13
251.506	16.33
251.721	16.28
251.937	16.51
252.152	16.79
252.368	16.32
252.583	17.07
252.798	16.35
253.014	16.86
253.229	17.03
253.445	18.19
253.66	19.17
253.875	20.28
254.091	21.53
254.306	21.86
254.521	22.44
254.737	23.27
254.952	22.96
255.167	24.58
255.383	24.37
255.598	23.75
255.813	22.64
256.028	21.8
256.244	20.63
256.459	20.04
256.674	18.9
256.889	17.8
257.104	17.37
257.32	16.38
257.535	14.98
257.75	14.52
257.965	13.93
258.18	13.46
258.395	12.44
258.61	11.53
258.826	10.28
259.041	9.92
259.256	9.61
259.471	9.08
259.686	8.65
259.901	8.3
260.116	7.98
260.331	7.89
260.546	7.72
260.761	7.54
260.976	7.55
261.191	7.78
261.406	8.09
261.621	8.52
261.836	8.94
262.05	9.61
262.265	10.4
262.48	11.45
262.695	11.9
262.91	12.86
263.125	13.94
263.34	14.1
263.555	14.75
263.769	14.73
263.984	14.36
264.199	14.23
264.414	14.26
264.629	14.6
264.843	14.09
265.058	13.77
265.273	13.14
265.488	12.84
265.702	12.88
265.917	12.43
266.132	12.54
266.346	13.03
266.561	12.92
266.776	12.66
266.99	11.97
267.205	11.96
267.42	11.67
267.634	11.33
267.849	11.3
268.063	11.28
268.278	11.25
268.492	11.09
268.707	10.5
268.922	10.33
269.136	10.15
269.351	10.27
269.565	9.72
269.78	9.85
269.994	10.08
270.209	10.04
270.423	10.03
270.637	10.26
270.852	10.33
271.066	10.38
271.281	10.8
271.495	10.83
271.709	10.65
271.924	10.92
272.138	10.56
272.353	10.28
272.567	10.14
272.781	10.13
272.996	9.93
273.21	9.96
273.424	10.03
273.638	9.84
273.853	9.96
274.067	9.88
274.281	10.13
274.495	10.88
274.71	11.17
274.924	11.29
275.138	11.67
275.352	11.73
275.566	12.04
275.781	12.03
275.995	11.97
276.209	12.5
276.423	13.25
276.637	12.6
276.851	12.1
277.065	12.02
277.279	12.17
277.493	11.81
277.707	12.11
277.921	11.69
278.135	11.77
278.349	11.79
278.563	11.49
278.777	11.04
278.991	11.37
279.205	11.68
279.419	11.53
279.633	11.35
279.847	11.27
280.061	10.92
280.275	11.1
280.489	10.7
280.703	10.63
280.917	9.91
281.131	9.99
281.344	10.11
281.558	9.82
281.772	9.88
281.986	9.72
282.2	9.82
282.414	9.91
282.627	9.74
282.841	9.92
283.055	9.93
283.269	10.32
283.482	10.39
283.696	9.85
283.91	9.54
284.123	9.33
284.337	9.36
284.551	9.05
284.764	8.84
284.978	8.57
285.192	8.34
285.405	8.41
285.619	8.47
285.833	8.24
286.046	8.48
286.26	8.66
286.473	8.89
286.687	9.04
286.9	8.83
287.114	9.11
287.327	9.2
287.541	9.51
287.754	9.42
287.968	9.39
288.181	9.3
288.395	9.23
288.608	9.4
288.822	9.27
289.035	9.42
289.248	9.56
289.462	9.28
289.675	9.15
289.889	9.08
290.102	9.06
290.315	8.94
290.529	8.96
290.742	9.08
290.955	9.26
291.169	9.22
291.382	9.21
291.595	9.94
291.808	10.08
292.022	10.47
292.235	10.48
292.448	10.8
292.661	10.91
292.875	11.5
293.088	11.6
293.301	11.55
293.514	11.76
293.727	11.55
293.94	10.85
294.153	10.78
294.367	10.52
294.58	10.46
294.793	10.39
295.006	9.96
295.219	9.62
295.432	9.81
295.645	9.71
295.858	9.21
296.071	9.16
296.284	9.17
296.497	8.99
296.71	9.01
296.923	8.94
297.136	8.82
297.349	9.09
297.562	9.03
297.775	8.98
297.988	8.95
298.201	9.42
298.414	9.59
298.626	9.73
298.839	10.01
299.052	10.52
299.265	10.87
299.478	11.1
299.691	11.4
299.903	11.79
300.116	12.05
300.329	12.24
300.542	12.16
300.755	12.37
300.967	12.67
301.18	12.76
301.393	12.64
301.605	12.74
301.818	12.79
302.031	12.71
302.243	12.86
302.456	12.9
302.669	13.27
302.881	13.44
303.094	13.23
303.307	13.03
303.519	13.01
303.732	13.01
303.944	12.79
304.157	12.9
304.37	13.2
304.582	13.02
304.795	13.05
305.007	12.74
305.22	13.13
305.432	13.37
305.645	13.93
305.857	14.4
306.069	14.62
306.282	14.88
306.494	15.01
306.707	14.91
306.919	15.05
307.132	14.87
307.344	15.01
307.556	14.98
307.769	15.26
307.981	14.79
308.193	14.62
308.406	14.34
308.618	14.32
308.83	13.94
309.043	13.93
309.255	13.51
309.467	13.28
309.679	13.49
309.892	13.02
310.104	12.75
310.316	12.75
310.528	12.53
310.74	12.37
310.953	12.12
311.165	12.22
311.377	12.29
311.589	12.72
311.801	12.81
312.013	12.49
312.225	12.99
312.437	13.06
312.649	13.3
312.862	13.72
313.074	14.33
313.286	14.68
313.498	14.52
313.71	14.71
313.922	14.85
314.134	15.15
314.346	15.3
314.558	14.78
314.77	15.03
314.982	15.48
315.193	15.4
315.405	15.22
315.617	15.69
315.829	16.08
316.041	15.54
316.253	15.17
316.465	15.45
316.677	15.7
316.888	16.23
317.1	16.06
317.312	15.64
317.524	15.66
317.736	15.97
317.947	16.29
318.159	16.56
318.371	16.9
318.583	17.2
318.794	17.1
319.006	17.2
319.218	17.03
319.43	17.39
319.641	17.28
319.853	17.21
320.064	17.41
320.276	16.9
320.488	17.25
320.699	17.86
320.911	18.14
321.123	17.95
321.334	18.1
321.546	18.18
321.757	18.78
321.969	18.93
322.18	19.45
322.392	19.13
322.603	19.14
322.815	18.47
323.026	17.93
323.238	17.66
323.449	17.63
323.661	17.4
323.872	17.26
324.083	16.83
324.295	17
324.506	16.59
324.718	16.31
324.929	16.21
325.14	16.82
325.352	16.71
325.563	16.59
325.774	16.71
325.986	16.73
326.197	16.9
326.408	16.7
326.62	16.61
326.831	16.69
327.042	16.77
327.253	16.77
327.464	16.43
327.676	16.17
327.887	16.42
328.098	16.3
328.309	16.39
328.52	16.56
328.732	16.29
328.943	16.25
329.154	16
329.365	16.01
329.576	15.98
329.787	16
329.998	16.31
330.209	16.39
330.42	16.57
330.631	16.75
330.842	16.83
331.053	17.2
331.264	17.35
331.475	17.42
331.686	17.4
331.897	17.49
332.108	17.64
332.319	18.13
332.53	17.84
332.741	17.8
332.952	17.62
333.163	16.83
333.374	16.46
333.585	16.42
333.795	16.53
334.006	16.65
334.217	16.49
334.428	16.26
334.639	16.26
334.849	16.57
335.06	16.36
335.271	16.39
335.482	16.92
335.692	17.12
335.903	16.91
336.114	16.66
336.325	16.91
336.535	16.71
336.746	16.76
336.957	16.11
337.167	16.28
337.378	16.52
337.589	16.58
337.799	16.43
338.01	16.54
338.22	16.44
338.431	16.75
338.642	16.29
338.852	16.66
339.063	16.73
339.273	16.89
339.484	16.59
339.694	16.57
339.905	16.04
340.115	16.24
340.326	16.17
340.536	16.19
340.746	15.69
340.957	15.93
341.167	16.02
341.378	16.04
341.588	16.11
341.799	16.13
342.009	15.88
342.219	15.76
342.43	15.73
342.64	15.78
342.85	16
343.061	16.5
343.271	16.42
343.481	16.18
343.691	15.79
343.902	15.7
344.112	15.67
344.322	15.6
344.532	15.82
344.743	15.54
344.953	15.37
345.163	15.27
345.373	15.02
345.583	14.89
345.793	14.93
346.004	15.45
346.214	15.48
346.424	15.37
346.634	15.52
346.844	15.54
347.054	15.11
347.264	15.33
347.474	15.39
347.684	15.59
347.894	15.73
348.104	15.59
348.314	14.94
348.524	14.79
348.734	15.03
348.944	15.18
349.154	14.91
349.364	15.23
349.574	14.95
349.784	14.62
349.994	14.71
350.204	14.67
350.413	14.78
350.623	15
350.833	15.22
351.043	15
351.253	14.77
351.463	15.31
351.672	15.5
351.882	15.77
352.092	15.97
352.302	15.84
352.511	15.97
352.721	15.54
352.931	15.21
353.141	14.99
353.35	14.71
353.56	14.78
353.77	14.3
353.979	14.1
354.189	13.55
354.399	13.39
354.608	13.1
354.818	13.09
355.027	13.44
355.237	13.54
355.447	13.61
355.656	13.79
355.866	13.4
356.075	13.3
356.285	13.37
356.494	13.45
356.704	13.34
356.913	13.31
357.123	12.96
357.332	12.85
357.542	13.18
357.751	13.02
357.96	13.03
358.17	13.32
358.379	13.44
358.589	13.47
358.798	13.26
359.007	13.27
359.217	13.16
359.426	13.18
359.635	13.16
359.845	12.76
360.054	12.63
360.263	12.19
360.472	12
360.682	12.03
360.891	11.85
361.1	11.93
361.309	11.92
361.519	11.95
361.728	11.74
361.937	11.75
362.146	11.74
362.355	12.01
362.564	12.16
362.774	12.44
362.983	12.3
363.192	12.23
363.401	12.38
363.61	12.32
363.819	12.46
364.028	12.81
364.237	12.82
364.446	12.69
364.655	12.45
364.864	12.48
365.073	12.16
365.282	12.22
365.491	12.37
365.7	12.3
365.909	12.68
366.118	12.55
366.327	12.38
366.536	12.23
366.745	12.49
366.954	12.6
367.162	12.7
367.371	12.67
367.58	12.98
367.789	13.05
367.998	13
368.207	12.9
368.415	13.26
368.624	13.2
368.833	13.2
369.042	13.01
369.25	12.97
369.459	13.01
369.668	12.85
369.877	12.71
370.085	12.67
370.294	12.65
370.503	12.27
370.711	11.9
370.92	12.08
371.129	11.83
371.337	11.82
371.546	11.76
371.754	11.55
371.963	11.62
372.171	11.62
372.38	11.43
372.589	11.46
372.797	11.44
373.006	11.48
373.214	11.21
373.423	11.62
373.631	11.62
373.84	11.43
374.048	11.62
374.256	11.54
374.465	11.23
374.673	11.34
374.882	11.36
375.09	11.67
375.298	11.55
375.507	11.46
375.715	11.12
375.923	11.03
376.132	11.01
376.34	10.85
376.548	10.87
376.757	10.81
376.965	10.61
377.173	10.51
377.381	10.2
377.59	10.28
377.798	10.46
378.006	10.46
378.214	10.55
378.423	10.64
378.631	10.8
378.839	10.79
379.047	10.8
379.255	10.89
379.463	10.79
379.671	10.7
379.879	10.42
380.088	10.25
380.296	10.59
380.504	10.58
380.712	10.56
380.92	10.37
381.128	10.5
381.336	10.68
381.544	10.59
381.752	10.63
381.96	10.91
382.168	11.12
382.376	11.37
382.584	10.99
382.791	10.95
382.999	10.87
383.207	10.72
383.415	10.44
383.623	10.26
383.831	10.4
384.039	10.24
384.247	10.14
384.454	9.94
384.662	9.62
384.87	9.61
385.078	9.49
385.285	9.26
385.493	9.39
385.701	9.31
385.909	9.19
386.116	9.26
386.324	9.27
386.532	9.24
386.739	9.23
386.947	9.31
387.155	9.23
387.362	9.26
387.57	9.6
387.778	9.43
387.985	9.75
388.193	9.71
388.4	9.41
388.608	9.6
388.816	9.52
389.023	9.54
389.231	9.47
389.438	9.65
389.646	9.62
389.853	9.24
390.061	9.23
390.268	9.15
390.475	9.17
390.683	9.22
390.89	8.99
391.098	9.02
391.305	8.96
391.512	8.83
391.72	8.61
391.927	8.59
392.135	8.65
392.342	8.62
392.549	8.56
392.756	8.57
392.964	8.41
393.171	8.39
393.378	8.2
393.586	8.04
393.793	8.05
394	7.94
394.207	7.9
394.414	7.93
394.622	7.9
394.829	8.03
395.036	8.12
395.243	8.21
395.45	8.23
395.657	8.45
395.864	8.7
396.072	8.75
396.279	8.9
396.486	9.03
396.693	9.09
396.9	8.91
397.107	8.58
397.314	8.56
397.521	8.65
397.728	8.64
397.935	8.61
398.142	8.44
398.349	8.48
398.556	8.48
398.763	8.34
398.97	8.25
399.177	8.42
399.383	8.37
399.59	8.26
399.797	8.31
400.004	8.27
400.211	8.24
400.418	8.21
400.625	8.34
400.831	8.47
401.038	8.51
401.245	8.61
401.452	8.49
401.658	8.71
401.865	8.83
402.072	8.69
402.279	8.72
402.485	8.64
402.692	8.55
402.899	8.39
403.105	8.35
403.312	8.36
403.519	8.12
403.725	8.17
403.932	8.01
404.138	7.67
404.345	7.57
404.552	7.58
404.758	7.56
404.965	7.66
405.171	7.61
405.378	7.45
405.584	7.29
405.791	7.32
405.997	7.34
406.204	7.42
406.41	7.55
406.617	7.66
406.823	7.61
407.029	7.64
407.236	7.63
407.442	7.6
407.649	7.79
407.855	7.78
408.061	7.81
408.268	7.71
408.474	7.52
408.68	7.51
408.887	7.44
409.093	7.5
409.299	7.34
409.505	7.17
409.712	7.05
409.918	6.99
410.124	7.11
410.33	7.07
410.537	7.25
410.743	7.45
410.949	7.4
411.155	7.54
411.361	7.57
411.567	7.76
411.773	7.75
411.98	7.89
412.186	7.7
412.392	7.72
412.598	7.9
412.804	7.96
413.01	7.96
413.216	8.14
413.422	8.02
413.628	7.85
413.834	7.8
414.04	7.93
414.246	7.85
414.452	7.83
414.658	7.71
414.864	7.52
415.07	7.37
415.275	7.3
415.481	7.13
415.687	7.08
415.893	7.05
416.099	6.9
416.305	6.85
416.511	6.94
416.716	6.78
416.922	6.87
417.128	6.78
417.334	6.66
417.539	6.62
417.745	6.46
417.951	6.28
418.157	6.18
418.362	6.11
418.568	6.09
418.774	5.87
418.979	5.84
419.185	5.66
419.391	5.66
419.596	5.7
419.802	5.63
420.008	5.71
420.213	6.39
420.419	6.46
420.624	6.53
420.83	6.43
421.035	6.51
421.241	6.57
421.446	6.58
421.652	6.62
421.857	6.45
422.063	6.38
422.268	6.39
422.474	5.72
422.679	5.57
422.885	5.53
423.09	5.57
423.295	5.56
423.501	5.47
423.706	5.46
423.911	5.37
424.117	5.47
424.322	5.49
424.527	5.45
424.733	5.56
424.938	5.68
425.143	5.66
425.349	5.61
425.554	5.55
425.759	5.68
425.964	5.74
426.169	5.84
426.375	5.95
426.58	6.06
426.785	6.09
426.99	6.08
427.195	6.07
427.4	6.05
427.605	6.28
427.811	6.43
428.016	6.53
428.221	6.54
428.426	6.49
428.631	6.3
428.836	6.27
429.041	6.27
429.246	6.35
429.451	6.43
429.656	6.53
429.861	6.39
430.066	6.28
430.271	6.1
430.476	6.02
430.681	5.99
430.886	6.08
431.09	6.16
431.295	6.15
431.5	6.1
431.705	5.99
431.91	5.95
432.115	6
432.32	5.95
432.524	5.86
432.729	5.98
432.934	5.97
433.139	5.98
433.343	6.04
433.548	6.05
433.753	5.98
433.958	6.03
434.162	6.01
434.367	6.02
434.572	6.16
434.776	6.29
434.981	6.26
435.186	6.25
435.39	6.28
435.595	6.16
435.799	6.3
436.004	6.27
436.209	6.33
436.413	6.27
436.618	6.24
436.822	6.16
437.027	6.14
437.231	6.1
437.436	6.12
437.64	6.05
437.845	6.03
438.049	5.94
438.253	6
438.458	5.93
438.662	5.89
438.867	5.87
439.071	5.74
439.275	5.81
439.48	5.78
439.684	5.82
439.888	5.76
440.093	5.66
440.297	5.59
440.501	5.54
440.706	5.56
440.91	5.59
441.114	5.56
441.318	5.71
441.523	5.68
441.727	5.76
441.931	5.7
442.135	5.75
442.339	5.84
442.543	5.89
442.748	6.02
442.952	6.04
443.156	6.03
443.36	6.1
443.564	6.06
443.768	6.05
443.972	5.97
444.176	6.03
444.38	6
444.584	5.92
444.788	5.87
444.992	5.78
445.196	5.66
445.4	5.52
445.604	5.46
445.808	5.38
446.012	5.37
446.216	5.36
446.42	5.29
446.624	5.3
446.828	5.34
447.032	5.26
447.235	5.2
447.439	5.26
447.643	5.4
447.847	5.48
448.051	5.5
448.254	5.49
448.458	5.51
448.662	5.55
448.866	5.59
449.069	5.49
449.273	5.65
449.477	5.76
449.681	5.75
449.884	5.74
450.088	5.75
450.292	5.69
450.495	5.66
450.699	5.76
450.902	5.75
451.106	5.72
451.31	5.88
451.513	5.88
451.717	5.85
451.92	5.9
452.124	5.9
452.327	5.8
452.531	6.05
452.734	6.04
452.938	5.87
453.141	5.9
453.345	5.94
453.548	5.96
453.752	5.98
453.955	6.03
454.158	5.93
454.362	5.94
454.565	6.05
454.769	5.92
454.972	5.97
455.175	6.07
455.379	6.12
455.582	6.18
455.785	6.01
455.988	6.02
456.192	5.85
456.395	5.92
456.598	5.95
456.801	5.96
457.005	6.05
457.208	6.11
457.411	6.07
457.614	5.97
457.817	5.89
458.021	5.9
458.224	5.81
458.427	5.8
458.63	5.76
458.833	5.64
459.036	5.44
459.239	5.23
459.442	5.13
459.645	5.13
459.848	5.09
460.051	5.1
460.254	5.16
460.457	5.2
460.66	5.24
460.863	5.28
461.066	5.37
461.269	5.48
461.472	5.74
461.675	5.77
461.878	5.84
462.081	5.91
462.284	5.91
462.486	5.92
462.689	5.84
462.892	5.86
463.095	5.72
463.298	5.79
463.5	5.83
463.703	5.68
463.906	5.75
464.109	5.75
464.311	5.87
464.514	5.98
464.717	6.09
464.92	6.35
465.122	6.35
465.325	6.45
465.528	6.45
465.73	6.59
465.933	6.6
466.135	6.54
466.338	6.45
466.541	6.44
466.743	6.22
466.946	6.04
467.148	5.83
467.351	5.85
467.553	5.79
467.756	5.76
467.958	5.74
468.161	5.6
468.363	5.66
468.566	5.65
468.768	5.64
468.971	5.79
469.173	5.87
469.375	5.93
469.578	6
469.78	6.07
469.983	6.12
470.185	6.09
470.387	6.22
470.59	6.2
470.792	6.3
470.994	6.32
471.196	6.28
471.399	6.26
471.601	6.22
471.803	6.18
472.005	6.2
472.208	6.18
472.41	6.1
472.612	6.15
472.814	6.15
473.016	6.06
473.218	5.93
473.421	5.98
473.623	6.02
473.825	6.05
474.027	6.13
474.229	6.07
474.431	5.99
474.633	5.94
474.835	5.88
475.037	5.83
475.239	5.87
475.441	5.83
475.643	5.83
475.845	5.7
476.047	5.73
476.249	5.6
476.451	5.67
476.653	5.62
476.855	5.63
477.057	5.65
477.258	5.64
477.46	5.63
477.662	5.71
477.864	5.62
478.066	5.61
478.268	5.65
478.469	5.65
478.671	5.56
478.873	5.62
479.075	5.63
479.276	5.54
479.478	5.53
479.68	5.48
479.882	5.49
480.083	5.54
480.285	5.53
480.487	5.4
480.688	5.38
480.89	5.41
481.091	5.28
481.293	5.26
481.495	5.22
481.696	5.1
481.898	4.98
482.099	4.89
482.301	4.78
482.502	4.78
482.704	4.72
482.905	4.69
483.107	4.62
483.308	4.6
483.51	4.53
483.711	4.5
483.913	4.49
484.114	4.51
484.315	4.49
484.517	4.5
484.718	4.45
484.92	4.44
485.121	4.4
485.322	4.4
485.524	4.41
485.725	4.42
485.926	4.42
486.127	4.41
486.329	4.41
486.53	4.4
486.731	4.36
486.932	4.36
487.134	4.4
487.335	4.43
487.536	4.41
487.737	4.39
487.938	4.41
488.139	4.44
488.341	4.47
488.542	4.45
488.743	4.44
488.944	4.49
489.145	4.52
489.346	4.52
489.547	4.53
489.748	4.61
489.949	4.64
490.15	4.63
490.351	4.61
490.552	4.62
490.753	4.61
490.954	4.64
491.155	4.68
491.356	4.67
491.557	4.65
491.758	4.66
491.959	4.63
492.159	4.66
492.36	4.71
492.561	4.71
492.762	4.73
492.963	4.85
493.164	4.91
493.364	4.94
493.565	5.05
493.766	5.17
493.967	5.22
494.167	5.29
494.368	5.33
494.569	5.33
494.769	5.43
494.97	5.52
495.171	5.42
495.371	5.52
495.572	5.48
495.773	5.46
495.973	5.42
496.174	5.42
496.375	5.38
496.575	5.41
496.776	5.48
496.976	5.47
497.177	5.47
497.377	5.58
497.578	5.54
497.778	5.61
497.979	5.58
498.179	5.61
498.38	5.66
498.58	5.69
498.78	5.75
498.981	5.73
499.181	5.81
499.382	5.83
499.582	5.77
499.782	5.75
499.983	5.78
500.183	5.86
500.383	5.87
500.584	5.88
500.784	6.04
500.984	5.96
501.184	6
501.385	6.06
501.585	6.08
501.785	6.12
501.985	6.23
502.185	6.3
502.386	6.31
502.586	6.4
502.786	6.49
502.986	6.45
503.186	6.51
503.386	6.58
503.586	6.54
503.786	6.62
503.987	6.71
504.187	6.62
504.387	6.7
504.587	6.76
504.787	6.69
504.987	6.67
505.187	6.67
505.387	6.68
505.587	6.6
505.786	6.64
505.986	6.66
506.186	6.61
506.386	6.62
506.586	6.48
506.786	6.42
506.986	6.51
507.186	6.51
507.386	6.53
507.585	6.58
507.785	6.72
507.985	6.76
508.185	6.82
508.384	6.92
508.584	7.02
508.784	7.13
508.984	7.27
509.183	7.27
509.383	7.31
509.583	7.34
509.782	7.31
509.982	7.34
510.182	7.41
510.381	7.38
510.581	7.39
510.781	7.42
510.98	7.46
511.18	7.42
511.379	7.53
511.579	7.62
511.778	7.69
511.978	7.73
512.177	7.76
512.377	7.71
512.576	7.76
512.776	7.78
512.975	7.81
513.175	7.8
513.374	7.89
513.573	7.88
513.773	7.84
513.972	7.86
514.172	8.03
514.371	8.16
514.57	8.29
514.77	8.33
514.969	8.52
515.168	8.59
515.367	8.6
515.567	8.67
515.766	8.69
515.965	8.85
516.164	8.9
516.364	8.88
516.563	8.85
516.762	8.78
516.961	8.78
517.16	8.68
517.359	8.71
517.559	8.79
517.758	8.72
517.957	8.83
518.156	8.85
518.355	8.88
518.554	8.93
518.753	8.96
518.952	9.06
519.151	9.17
519.35	9.23
519.549	9.29
519.748	9.32
519.947	9.49
520.146	9.49
520.345	9.57
520.544	9.59
520.743	9.66
520.942	9.67
521.141	9.77
521.339	9.78
521.538	9.85
521.737	9.88
521.936	10.06
522.135	10.14
522.333	10.33
522.532	10.29
522.731	10.44
522.93	10.53
523.129	10.65
523.327	10.74
523.526	10.84
523.725	10.95
523.923	10.97
524.122	10.91
524.321	10.92
524.519	10.86
524.718	10.88
524.917	10.91
525.115	10.83
525.314	10.9
525.512	10.88
525.711	10.88
525.909	10.88
526.108	10.94
526.306	10.99
526.505	10.97
526.703	10.98
526.902	11.01
527.1	11.01
527.299	11.02
527.497	10.92
527.696	10.9
527.894	10.94
528.092	10.97
528.291	10.99
528.489	10.97
528.688	11
528.886	11.01
529.084	11.05
529.283	11.09
529.481	11.18
529.679	11.29
529.877	11.33
530.076	11.38
530.274	11.41
530.472	11.47
530.67	11.57
530.869	11.62
531.067	11.7
531.265	11.76
531.463	11.84
531.661	11.88
531.859	11.93
532.057	12.03
532.255	12.08
532.454	12.14
532.652	12.17
532.85	12.21
533.048	12.26
533.246	12.29
533.444	12.33
533.642	12.41
533.84	12.46
534.038	12.51
534.236	12.59
534.434	12.61
534.632	12.62
534.83	12.63
535.027	12.67
535.225	12.73
535.423	12.83
535.621	12.9
535.819	12.85
536.017	12.87
536.215	12.91
536.412	12.93
536.61	13.03
536.808	13.13
537.006	13.25
537.203	13.36
537.401	13.43
537.599	13.39
537.797	13.47
537.994	13.56
538.192	13.67
538.39	13.7
538.587	13.77
538.785	13.74
538.983	13.73
539.18	13.7
539.378	13.74
539.575	13.75
539.773	13.81
539.97	13.76
540.168	13.8
540.366	13.8
540.563	13.79
540.761	13.81
540.958	13.85
541.155	13.86
541.353	13.91
541.55	13.93
541.748	13.91
541.945	13.98
542.143	14.01
542.34	14.02
542.537	14.07
542.735	14.16
542.932	14.22
543.129	14.23
543.327	14.34
543.524	14.44
543.721	14.45
543.919	14.6
544.116	14.63
544.313	14.76
544.51	14.84
544.708	14.93
544.905	14.99
545.102	15.12
545.299	15.23
545.496	15.28
545.693	15.29
545.891	15.34
546.088	15.35
546.285	15.4
546.482	15.39
546.679	15.41
546.876	15.46
547.073	15.51
547.27	15.49
547.467	15.47
547.664	15.49
547.861	15.53
548.058	15.69
548.255	15.79
548.452	15.9
548.649	16
548.846	16.15
549.043	16.17
549.24	16.24
549.437	16.38
549.633	16.52
549.83	16.62
550.027	16.74
550.224	16.63
550.421	16.62
550.618	16.58
550.814	16.59
551.011	16.61
551.208	16.7
551.405	16.74
551.601	16.6
551.798	16.75
551.995	16.78
552.191	16.78
552.388	16.86
552.585	16.94
552.781	16.99
552.978	17.07
553.175	17.03
553.371	17.04
553.568	16.98
553.764	17.09
553.961	17.03
554.157	17.12
554.354	17.18
554.55	17.35
554.747	17.43
554.943	17.43
555.14	17.45
555.336	17.64
555.533	17.64
555.729	17.76
555.926	17.86
556.122	17.92
556.318	17.88
556.515	17.98
556.711	17.97
556.907	17.96
557.104	18.17
557.3	18.16
557.496	18.1
557.693	18.08
557.889	18.14
558.085	18.25
558.281	18.26
558.478	18.31
558.674	18.2
558.87	18.24
559.066	18.36
559.262	18.2
559.459	18.29
559.655	18.31
559.851	18.56
560.047	18.59
560.243	18.6
560.439	18.82
560.635	18.86
560.831	19
561.027	19.04
561.223	18.85
561.419	19.04
561.615	19.15
561.811	19.35
562.007	19.31
562.203	19.3
562.399	19.3
562.595	19.23
562.791	19.4
562.987	19.47
563.183	19.43
563.379	19.6
563.575	19.53
563.771	19.57
563.966	19.5
564.162	19.55
564.358	19.53
564.554	19.5
564.75	19.42
564.945	19.28
565.141	19.22
565.337	19.27
565.533	19.33
565.728	19.38
565.924	19.34
566.12	19.38
566.315	19.49
566.511	19.58
566.707	19.58
566.902	19.72
567.098	19.85
567.293	19.87
567.489	19.89
567.684	19.9
567.88	20.12
568.076	20.16
568.271	20.12
568.467	20.14
568.662	20.15
568.858	20.26
569.053	20.18
569.248	20.23
569.444	20.19
569.639	20.31
569.835	20.3
570.03	20.23
570.225	20.23
570.421	20.26
570.616	20.27
570.812	20.29
571.007	20.22
571.202	20.26
571.397	20.37
571.593	20.5
571.788	20.5
571.983	20.61
572.178	20.67
572.374	20.78
572.569	20.8
572.764	20.81
572.959	20.77
573.154	20.89
573.35	21.04
573.545	21.07
573.74	21.16
573.935	21.24
574.13	21.25
574.325	21.21
574.52	21.3
574.715	21.35
574.91	21.33
575.105	21.55
575.3	21.59
575.495	21.53
575.69	21.48
575.885	21.61
576.08	21.69
576.275	21.76
576.47	21.8
576.665	21.7
576.86	21.83
577.055	22.07
577.25	21.93
577.444	22.07
577.639	22.18
577.834	22.34
578.029	22.37
578.224	22.43
578.418	22.51
578.613	22.58
578.808	22.78
579.003	22.73
579.197	22.69
579.392	23
579.587	22.89
579.781	23.04
579.976	22.99
580.171	22.84
580.365	22.87
580.56	22.94
580.755	23.1
580.949	23.08
581.144	23.18
581.338	23.12
581.533	23.06
581.727	23.22
581.922	23.13
582.116	23.1
582.311	23.24
582.505	23.12
582.7	23.13
582.894	23.08
583.089	23.09
583.283	23.13
583.478	23.32
583.672	23.42
583.866	23.33
584.061	23.3
584.255	23.32
584.449	23.23
584.644	23.35
584.838	23.41
585.032	23.37
585.226	23.58
585.421	23.57
585.615	23.52
585.809	23.45
586.003	23.62
586.198	23.75
586.392	23.99
586.586	24.07
586.78	23.9
586.974	23.91
587.168	23.97
587.363	23.94
587.557	23.95
587.751	23.83
587.945	23.79
588.139	23.78
588.333	23.74
588.527	23.58
588.721	23.5
588.915	23.66
589.109	23.58
589.303	23.71
589.497	23.57
589.691	23.63
589.885	23.65
590.079	23.73
590.273	23.73
590.466	23.8
590.66	23.85
590.854	24.08
591.048	24.03
591.242	24.18
591.436	24.06
591.629	24.26
591.823	24.43
592.017	24.54
592.211	24.71
592.404	24.55
592.598	24.44
592.792	24.51
592.986	24.35
593.179	24.48
593.373	24.4
593.567	24.34
593.76	24.17
593.954	24.03
594.147	24.03
594.341	23.77
594.535	23.97
594.728	24.06
594.922	23.84
595.115	23.9
595.309	23.74
595.502	23.9
595.696	23.97
595.889	23.99
596.083	23.92
596.276	23.94
596.47	23.96
596.663	23.8
596.856	23.83
597.05	23.99
597.243	24.02
597.437	24.12
597.63	24
597.823	24.06
598.017	24.08
598.21	24.14
598.403	24.1
598.596	24.16
598.79	24.36
598.983	24.3
599.176	24.31
599.369	24.46
599.563	24.62
599.756	24.61
599.949	24.54
600.142	24.56
600.335	24.71
600.528	24.89
600.722	25.02
600.915	25.03
601.108	25.08
601.301	25.26
601.494	25.2
601.687	25.14
601.88	25.1
602.073	24.97
602.266	24.88
602.459	24.7
602.652	24.57
602.845	24.43
603.038	24.4
603.231	24.39
603.424	24.14
603.617	23.97
603.809	23.95
604.002	24.04
604.195	24.25
604.388	24.2
604.581	24.19
604.774	24.2
604.966	24.23
605.159	24.12
605.352	24.06
605.545	24.16
605.737	24.25
605.93	24.28
606.123	24.4
606.316	24.36
606.508	24.55
606.701	24.66
606.894	24.75
607.086	24.96
607.279	25.12
607.471	25.31
607.664	25.4
607.857	25.54
608.049	25.58
608.242	25.57
608.434	25.63
608.627	25.73
608.819	25.94
609.012	26.17
609.204	26.35
609.397	26.65
609.589	26.97
609.782	27.14
609.974	27.49
610.166	27.83
610.359	28.23
610.551	28.58
610.743	28.95
610.936	29.31
611.128	29.43
611.32	29.55
611.513	29.65
611.705	29.77
611.897	30.03
612.09	29.93
612.282	29.71
612.474	29.62
612.666	29.65
612.858	29.62
613.051	29.44
613.243	29.44
613.435	29.25
613.627	29.21
613.819	28.97
614.011	28.99
614.203	28.86
614.395	29.06
614.588	28.99
614.78	28.69
614.972	28.49
615.164	28.33
615.356	28.11
615.548	28.07
615.74	27.79
615.932	27.74
616.124	27.48
616.315	27.62
616.507	27.49
616.699	27.24
616.891	27.41
617.083	27.32
617.275	27.25
617.467	27.23
617.659	27.17
617.85	27.41
618.042	27.43
618.234	27.34
618.426	27.19
618.618	27.13
618.809	27.14
619.001	26.85
619.193	26.85
619.384	27.08
619.576	27.23
619.768	27.24
619.959	27.08
620.151	27.01
620.343	26.93
620.534	26.93
620.726	26.94
620.917	26.95
621.109	26.96
621.301	26.9
621.492	26.66
621.684	26.77
621.875	26.74
622.067	26.71
622.258	26.76
622.45	27.03
622.641	27.1
622.832	27.26
623.024	27.34
623.215	27.43
623.407	27.37
623.598	27.37
623.789	27.18
623.981	27.23
624.172	27.41
624.363	27.39
624.555	27.25
624.746	27.09
624.937	26.87
625.129	26.85
625.32	26.83
625.511	26.96
625.702	27.03
625.893	26.99
626.085	26.96
626.276	26.85
626.467	26.79
626.658	26.67
626.849	26.8
627.04	26.79
627.231	26.69
627.422	26.71
627.614	26.63
627.805	26.65
627.996	26.74
628.187	26.74
628.378	26.77
628.569	26.8
628.76	26.96
628.951	26.96
629.142	27.06
629.332	27.12
629.523	27.11
629.714	27.21
629.905	27.25
630.096	27.33
630.287	27.58
630.478	27.51
630.669	27.58
630.859	27.67
631.05	27.78
631.241	27.88
631.432	27.74
631.623	27.86
631.813	27.86
632.004	27.59
632.195	27.38
632.385	27.09
632.576	27.15
632.767	27.17
632.957	27.03
633.148	26.78
633.339	26.7
633.529	26.89
633.72	26.72
633.91	26.6
634.101	26.7
634.292	26.77
634.482	26.94
634.673	26.88
634.863	26.89
635.054	27
635.244	27.14
635.435	27.22
635.625	27.14
635.815	27.3
636.006	27.43
636.196	27.57
636.387	27.53
636.577	27.55
636.767	27.76
636.958	27.56
637.148	27.67
637.338	27.58
637.529	27.57
637.719	27.47
637.909	27.37
638.099	27.2
638.29	27.03
638.48	26.99
638.67	27.09
638.86	27.03
639.05	27.19
639.241	26.97
639.431	27.11
639.621	27.07
639.811	27.43
640.001	27.35
640.191	27.59
640.381	27.77
640.571	28.13
640.761	27.95
640.951	28.1
641.141	28.15
641.331	28.19
641.521	28.17
641.711	28.42
641.901	28.23
642.091	28.52
642.281	28.35
642.471	28.43
642.661	28.29
642.851	28.51
643.041	28.53
643.231	28.58
643.42	28.94
643.61	28.85
643.8	28.78
643.99	28.9
644.18	28.59
644.369	28.61
644.559	28.59
644.749	28.56
644.939	28.68
645.128	28.39
645.318	28.48
645.508	28.11
645.697	28.31
645.887	28.25
646.076	28.22
646.266	28.27
646.456	28.45
646.645	28.42
646.835	28.21
647.024	28
647.214	28.02
647.403	27.95
647.593	28.18
647.782	28.1
647.972	28.06
648.161	27.95
648.351	28.23
648.54	28.13
648.73	28.11
648.919	28.33
649.108	28.33
649.298	28.54
649.487	28.47
649.677	28.44
649.866	28.6
650.055	28.84
650.244	29.09
650.434	29.15
650.623	29.33
650.812	29.35
651.002	29.18
651.191	29.32
651.38	29.42
651.569	29.44
651.758	29.37
651.947	29.23
652.137	29.07
652.326	28.84
652.515	28.86
652.704	28.64
652.893	28.57
653.082	28.91
653.271	28.84
653.46	28.49
653.649	28.46
653.838	28.47
654.027	28.5
654.216	28.49
654.405	28.54
654.594	28.53
654.783	28.61
654.972	28.91
655.161	28.83
655.35	28.74
655.539	29.17
655.728	29.18
655.916	29.39
656.105	29.38
656.294	29.4
656.483	29.25
656.672	28.92
656.86	28.9
657.049	28.74
657.238	28.67
657.427	28.84
657.615	28.69
657.804	28.82
657.993	28.6
658.181	28.71
658.37	28.79
658.559	28.98
658.747	29.11
658.936	29.19
659.125	29.07
659.313	29.01
659.502	28.9
659.69	28.72
659.879	28.72
660.067	28.74
660.256	28.76
660.444	28.62
660.633	28.69
660.821	28.75
661.01	28.75
661.198	28.66
661.387	28.96
661.575	28.91
661.763	29.18
661.952	29.23
662.14	29.36
662.328	29.2
662.517	29.55
662.705	29.67
662.893	29.48
663.082	29.81
663.27	30.23
663.458	30.27
663.646	30.6
663.834	30.68
664.023	30.85
664.211	30.96
664.399	31.02
664.587	31.01
664.775	30.82
664.963	30.93
665.152	30.77
665.34	30.67
665.528	30.37
665.716	30.32
665.904	29.93
666.092	29.87
666.28	29.92
666.468	30.19
666.656	29.9
666.844	30.01
667.032	30.2
667.22	30.15
667.408	30.21
667.596	30.44
667.784	30.17
667.971	30.49
668.159	30.21
668.347	30.1
668.535	30.06
668.723	30.4
668.911	30.55
669.098	30.72
669.286	30.77
669.474	30.94
669.662	30.9
669.849	31.18
670.037	31.37
670.225	31.46
670.413	31.42
670.6	31.43
670.788	31.32
670.976	31.35
671.163	31.4
671.351	31.3
671.538	31.03
671.726	31.09
671.913	30.88
672.101	30.55
672.289	30.48
672.476	30.72
672.664	30.91
672.851	31
673.039	30.84
673.226	30.57
673.413	30.6
673.601	30.89
673.788	31.11
673.976	31.43
674.163	31.49
674.35	31.59
674.538	31.23
674.725	31.18
674.912	31
675.1	30.92
675.287	31.17
675.474	30.88
675.662	30.68
675.849	30.63
676.036	30.47
676.223	30.38
676.411	30.56
676.598	30.8
676.785	30.6
676.972	30.85
677.159	30.87
677.346	30.65
677.533	30.99
677.721	30.95
677.908	30.69
678.095	30.51
678.282	30.61
678.469	30.56
678.656	30.19
678.843	30.07
679.03	29.87
679.217	30.03
679.404	30.08
679.591	29.95
679.778	30.06
679.964	30.15
680.151	30.25
680.338	30.22
680.525	30.18
680.712	30.35
680.899	30.39
681.086	30.34
681.272	30.28
681.459	30.49
681.646	30.57
681.833	30.84
682.02	30.97
682.206	31.06
682.393	31.55
682.58	31.69
682.766	31.89
682.953	32.13
683.14	32.51
683.326	32.86
683.513	32.85
683.7	32.82
683.886	32.41
684.073	32.39
684.259	32.36
684.446	32.13
684.632	32.05
684.819	32.15
685.005	32.14
685.192	32.31
685.378	32.09
685.565	31.74
685.751	31.75
685.938	32.13
686.124	32.03
686.31	32.11
686.497	32.07
686.683	32.12
686.87	32.13
687.056	31.76
687.242	31.29
687.429	31.62
687.615	31.52
687.801	31.89
687.987	31.75
688.174	31.76
688.36	31.95
688.546	31.61
688.732	31.59
688.918	31.64
689.105	31.78
689.291	31.76
689.477	31.57
689.663	31.84
689.849	31.91
690.035	31.67
690.221	31.88
690.407	32.03
690.593	32.36
690.779	32.6
690.965	32.58
691.151	33.16
691.337	33.34
691.523	33.25
691.709	33.47
691.895	33.33
692.081	33.34
692.267	33.39
692.453	33.3
692.639	33.33
692.825	33.22
693.011	33.53
693.196	33.03
693.382	33.43
693.568	33.77
693.754	33.93
693.94	34.02
694.125	34.33
694.311	34.42
694.497	34.17
694.682	34.34
694.868	34.72
695.054	34.16
695.239	34.59
695.425	34.1
695.611	33.73
695.796	33.33
695.982	33.26
696.168	33.13
696.353	32.86
696.539	32.77
696.724	32.31
696.91	31.72
697.095	31.94
697.281	31.61
697.466	31.61
697.652	31.55
697.837	31.54
698.023	31.3
698.208	31.04
698.393	30.92
698.579	30.97
698.764	30.99
698.949	31.03
699.135	31.1
699.32	30.89
699.505	30.98
699.691	30.96
699.876	30.92
700.061	31
700.246	31.24
700.432	31.3
700.617	31.52
700.802	31.73
700.987	32.13
701.172	32.29
701.358	33.11
701.543	33.35
701.728	33.59
701.913	33.84
702.098	34.43
702.283	34.94
702.468	35.46
702.653	35.34
702.838	35.59
703.023	35.5
703.208	35.18
703.393	34.62
703.578	34.68
703.763	34.9
703.948	34.9
704.133	34.74
704.318	34.83
704.503	34.99
704.688	35.36
704.873	35.48
705.057	35.71
705.242	35.91
705.427	36.42
705.612	36.55
705.797	36.74
705.981	37.28
706.166	37.39
706.351	37.39
706.536	37.37
706.72	37.37
706.905	37.51
707.09	37.69
707.274	38.15
707.459	37.99
707.644	38.43
707.828	38.41
708.013	37.82
708.197	37.77
708.382	37.99
708.567	38.09
708.751	38.04
708.936	37.64
709.12	37.84
709.305	37.63
709.489	37.79
709.673	37.21
709.858	37.03
710.042	37.4
710.227	37.24
710.411	36.89
710.596	36.76
710.78	36.86
710.964	37.12
711.149	36.99
711.333	36.86
711.517	36.56
711.702	36.5
711.886	36.36
712.07	36.2
712.254	36.24
712.438	36.27
712.623	35.99
712.807	35.73
712.991	35.74
713.175	35.21
713.359	35.18
713.544	35.04
713.728	34.86
713.912	34.7
714.096	34.65
714.28	34.54
714.464	34.2
714.648	33.9
714.832	34.13
715.016	34.14
715.2	34.08
715.384	34.15
715.568	34.4
715.752	34.5
715.936	34.53
716.12	34.47
716.304	34.45
716.488	34.49
716.671	34.67
716.855	34.35
717.039	34.48
717.223	34.48
717.407	34.48
717.59	34.62
717.774	34.87
717.958	35.11
718.142	34.93
718.325	35.34
718.509	35.6
718.693	35.9
718.877	36.49
719.06	36.13
719.244	36.2
719.428	36.51
719.611	36.56
719.795	36.44
719.978	36.5
720.162	36.54
720.345	36.54
720.529	36.76
720.713	36.66
720.896	36.45
721.08	36.83
721.263	37.46
721.446	36.99
721.63	36.57
721.813	36.78
721.997	37.12
722.18	37.41
722.364	37.18
722.547	37.25
722.73	37.82
722.914	38
723.097	37.86
723.28	37.64
723.464	37.89
723.647	38.35
723.83	38.11
724.013	38.09
724.197	38.51
724.38	38.47
724.563	38.18
724.746	37.62
724.929	37.65
725.112	38.17
725.296	37.99
725.479	37.77
725.662	37.47
725.845	37.57
726.028	37.14
726.211	36.59
726.394	37.11
726.577	37.12
726.76	36.95
726.943	36.76
727.126	36.08
727.309	35.86
727.492	36.14
727.675	35.95
727.858	35.8
728.041	35.83
728.224	36.51
728.407	36.11
728.589	36.33
728.772	36.78
728.955	36.74
729.138	37.03
729.321	37.1
729.503	37.15
729.686	37.61
729.869	37.65
730.052	37.8
730.234	37.22
730.417	37.35
730.6	36.84
730.782	37.17
730.965	37.5
731.148	37.47
731.33	38.12
731.513	38.03
731.695	37.84
731.878	37.89
732.061	37.48
732.243	38.07
732.426	37.66
732.608	38.34
732.791	38.01
732.973	37.73
733.156	37.89
733.338	37.54
733.52	37.97
733.703	37.97
733.885	38.11
734.068	38.69
734.25	38.37
734.432	38.41
734.615	37.99
734.797	38.45
734.979	38.86
735.162	38.73
735.344	38.41
735.526	37.61
735.708	37.99
735.891	38.42
736.073	38.26
736.255	38.75
736.437	39.05
736.619	39.64
736.802	39.15
736.984	38.64
737.166	38.64
737.348	38.87
737.53	39.34
737.712	38.77
737.894	38.95
738.076	38.88
738.258	38.56
738.44	38.5
738.622	38.43
738.804	38.47
738.986	38.42
739.168	38.42
739.35	38.46
739.532	38.89
739.714	39.47
739.896	38.36
740.078	38.85
740.259	38.83
740.441	39.25
740.623	39.46
740.805	39.25
740.987	39.3
741.168	39.33
741.35	40.29
741.532	39.99
741.714	39.82
741.895	40.29
742.077	39.82
742.259	40.07
742.44	40.82
742.622	41.06
742.804	41.26
742.985	41.74
743.167	41.88
743.348	41.53
743.53	41.82
743.711	41.81
743.893	42.13
744.075	42.96
744.256	43.23
744.438	43.23
744.619	42.92
744.8	43.56
744.982	43.91
745.163	43.99
745.345	43.88
745.526	43.59
745.707	44.25
745.889	44.2
746.07	43.6
746.252	43.44
746.433	42.76
746.614	42.41
746.795	42.72
746.977	42.8
747.158	43.03
747.339	43.69
747.52	43.73
747.702	43.11
747.883	43.52
748.064	43.84
748.245	43.02
748.426	43.29
748.607	43.65
748.788	42.7
748.97	41.84
749.151	42.16
749.332	41.85
749.513	42.33
749.694	42.82
749.875	43.34
750.056	43.1
750.237	43.25
750.418	43.03
750.599	42.76
750.78	43.23
750.96	43.76
751.141	43.44
751.322	42.91
751.503	42.57
751.684	42.57
751.865	42.51
752.046	42.77
752.226	43.36
752.407	43.52
752.588	43.3
752.769	42.56
752.949	42.69
753.13	42.85
753.311	42.88
753.492	42.87
753.672	42.59
753.853	41.59
754.034	41.2
754.214	41.58
754.395	41.08
754.575	41.68
754.756	43.12
754.937	43.2
755.117	42.99
755.298	43.84
755.478	43.59
755.659	43.18
755.839	43.34
756.02	43.77
756.2	43.67
756.381	43.95
756.561	43.61
756.741	42.29
756.922	42.33
757.102	42.34
757.283	41.76
757.463	42.13
757.643	42.94
757.823	43.96
758.004	43.96
758.184	43.46
758.364	44.19
758.545	44.39
758.725	44.12
758.905	43.45
759.085	43.48
759.265	43.5
759.446	43.12
759.626	42.73
759.806	41.71
759.986	41.59
760.166	42.02
760.346	40.96
760.526	40.89
760.706	41.18
760.886	41.8
761.066	40.98
761.246	40.54
761.426	40.27
761.606	39.88
761.786	39.39
761.966	39.12
762.146	38.3
762.326	38.5
762.506	37.91
762.686	37.68
762.866	37.09
763.046	37.3
763.225	37.48
763.405	37.32
763.585	37.19
763.765	37.24
763.945	37.09
764.124	37.34
764.304	37.44
764.484	37.24
764.664	37.48
764.843	37.97
765.023	38.29
765.203	38.32
765.382	38.41
765.562	38.59
765.741	39.02
765.921	40.03
766.101	40.46
766.28	40.65
766.46	42.09
766.639	42.41
766.819	42.58
766.998	42.38
767.178	42.88
767.357	42.97
767.537	43.56
767.716	43.46
767.896	43.67
768.075	43.89
768.254	44.08
768.434	43.79
768.613	44.03
768.792	44.32
768.972	45.77
769.151	45.83
769.33	46.89
769.51	47.37
769.689	47.98
769.868	47.63
770.047	47.84
770.226	47.77
770.406	47.09
770.585	47.2
770.764	47.08
770.943	46.61
771.122	46.68
771.301	46.67
771.48	46.53
771.66	47.01
771.839	47.05
772.018	46.62
772.197	47.23
772.376	48.24
772.555	48.23
772.734	48.4
772.913	47.18
773.092	47.34
773.271	47.77
773.449	47.7
773.628	47.89
773.807	47.31
773.986	47.71
774.165	47.32
774.344	47.29
774.523	46.9
774.701	46.88
774.88	47.15
775.059	47.29
775.238	46.82
775.417	47.65
775.595	47.78
775.774	48.75
775.953	48.67
776.131	48.72
776.31	48.38
776.489	48.59
776.667	48.88
776.846	49.69
777.025	49.11
777.203	49.39
777.382	48.91
777.56	48.51
777.739	47.7
777.917	48.57
778.096	49.77
778.274	50.72
778.453	51.28
778.631	51.48
778.81	51.96
778.988	52.22
779.166	51.73
779.345	51.39
779.523	51.03
779.702	52.08
779.88	51.49
780.058	50.48
780.237	49.25
780.415	49.55
780.593	49.29
780.771	49.32
780.95	49.86
781.128	50.91
781.306	50.35
781.484	51.19
781.662	50.88
781.841	51.31
782.019	51.94
782.197	52.89
782.375	51.98
782.553	51.55
782.731	50.99
782.909	50.03
783.087	49.22
783.265	50.63
783.443	50.17
783.621	50.4
783.799	49.38
783.977	49.16
784.155	48.67
784.333	50.15
784.511	50.41
784.689	50.1
784.867	52.04
785.045	53.65
785.223	53.69
785.4	53.39
785.578	52.64
785.756	53.73
785.934	53.48
786.112	54.23
786.289	53.37
786.467	53.04
786.645	53.69
786.823	52.4
787	51.71
787.178	50.68
787.356	50.74
787.533	50.26
787.711	49.11
787.889	48.33
788.066	48.16
788.244	47.72
788.421	47.4
788.599	47.27
788.776	48.13
788.954	47.99
789.131	48.14
789.309	48.25
789.486	48.59
789.664	49.58
789.841	50.13
790.019	49.87
790.196	50.31
790.373	51.19
790.551	51.94
790.728	51.19
790.906	51.58
791.083	51.14
791.26	51.02
791.437	52.24
791.615	52.45
791.792	53.1
791.969	52.88
792.146	53.62
792.324	53.41
792.501	53.01
792.678	53.88
792.855	54.34
793.032	55.2
793.209	55.24
793.387	54.36
793.564	54.76
793.741	54.63
793.918	54.66
794.095	54.7
794.272	54.23
794.449	54.83
794.626	53.94
794.803	52.54
794.98	52.48
795.157	51.37
795.334	51.84
795.511	50.73
795.688	51.76
795.864	51.61
796.041	51.49
796.218	52.89
796.395	52.96
796.572	52.92
796.749	53.21
796.925	53.48
797.102	54.74
797.279	54.04
797.456	53.85
797.632	52.49
797.809	53.24
797.986	52.78
798.162	51.74
798.339	51.56
798.516	51.24
798.692	51.96
798.869	51.84
799.046	52.23
799.222	53.94
799.399	53.63
799.575	54.23
799.752	54.05
799.928	54.92
800.105	55.71
800.281	54.88
800.458	55.05
800.634	55.41
800.811	54.74
800.987	54.54
801.163	53.41
801.34	53.92
801.516	54.14
801.692	54.39
801.869	53.2
802.045	51.44
802.221	51.74
802.398	52.64
802.574	53.27
802.75	54.5
802.926	54.84
803.103	55.08
803.279	54.62
803.455	54.11
803.631	55.57
803.807	57.48
803.983	60.49
804.16	61.49
804.336	60.9
804.512	60.29
804.688	60.43
804.864	60.97
805.04	61.55
805.216	62.83
805.392	63.82
805.568	63.5
805.744	62.18
805.92	60.71
806.096	60.15
806.272	62.79
806.448	63.44
806.623	63.4
806.799	63.65
806.975	62.91
807.151	63.32
807.327	61.73
807.503	61.42
807.678	61.06
807.854	61.16
808.03	60.64
808.206	58.83
808.381	57.5
808.557	57.36
808.733	57.65
808.908	57.23
809.084	56.44
809.26	55.72
809.435	54.66
809.611	54.95
809.787	53.09
809.962	53.41
810.138	54.44
810.313	55.69
810.489	57.42
810.664	55.6
810.84	55.62
811.015	57.15
811.191	60.18
811.366	61.34
811.542	63.35
811.717	63.43
811.892	64.66
812.068	64.06
812.243	62.46
812.419	62.67
812.594	62.53
812.769	62.19
812.944	61.21
813.12	58.56
813.295	57.18
813.47	55.35
813.645	56.9
813.821	56.5
813.996	55.5
814.171	56.36
814.346	54.44
814.521	56.47
814.697	58.06
814.872	57.52
815.047	57.97
815.222	61.09
815.397	60.82
815.572	61.46
815.747	62.51
815.922	62.54
816.097	62.98
816.272	64.47
816.447	63.95
816.622	63.1
816.797	64.51
816.972	65.34
817.147	63.12
817.322	62.61
817.496	61.06
817.671	59.95
817.846	59.7
818.021	57.32
818.196	55.85
818.371	55.82
818.545	56.42
818.72	54.79
818.895	53.51
819.069	52.42
819.244	50.81
819.419	50.14
819.594	48.72
819.768	48.75
819.943	48.86
820.117	46.17
820.292	44.34
820.467	42.23
820.641	40.82
820.816	39.47
820.99	37.46
821.165	36.37
821.339	35.24
821.514	34.27
821.688	32.85
821.863	32.14
822.037	31.94
822.212	31.18
822.386	30.63
822.56	30.38
822.735	30.36
822.909	30.52
823.084	30.97
823.258	31.24
823.432	31.52
823.606	31.84
823.781	31.6
823.955	31.92
824.129	32.45
824.303	33.24
824.478	33.09
824.652	33.04
824.826	33.42
825	33.59
825.174	33.46
825.348	33.84
825.523	34.29
825.697	35.5
825.871	35.62
826.045	35.57
826.219	35.16
826.393	36.5
826.567	36.54
826.741	36.96
826.915	36.37
827.089	36.97
827.263	36.71
827.437	36.4
827.611	36.64
827.784	36.84
827.958	37
828.132	37.41
828.306	37.54
828.48	38.34
828.654	38.37
828.827	39.04
829.001	38.91
829.175	39.82
829.349	42.21
829.522	42.83
829.696	43.82
829.87	46.26
830.044	47.86
830.217	47.94
830.391	48
830.565	48.64
830.738	51.33
830.912	52.07
831.085	53.62
831.259	53.82
831.432	52.91
831.606	53.07
831.779	51.81
831.953	50.82
832.126	51.91
832.3	52.66
832.473	52.1
832.647	50.22
832.82	49.54
832.994	47.79
833.167	45.72
833.34	46.11
833.514	44.84
833.687	43.4
833.86	43.16
834.034	42.06
834.207	41.91
834.38	42.19
834.553	42.55
834.727	43.44
834.9	43.85
835.073	44.34
835.246	44.56
835.419	45.96
835.593	47.35
835.766	48.21
835.939	50.15
836.112	50.86
836.285	52.32
836.458	52.63
836.631	53.21
836.804	53.1
836.977	54.27
837.15	54.93
837.323	55.8
837.496	57.5
837.669	59.8
837.842	60.62
838.015	62.54
838.188	62.54
838.361	65.28
838.533	66.1
838.706	68.6
838.879	70.3
839.052	71.15
839.225	71.33
839.398	70.49
839.57	69.35
839.743	68.3
839.916	67.34
840.088	69.4
840.261	66.91
840.434	64.98
840.607	63.7
840.779	63.57
840.952	64.93
841.124	65.17
841.297	65.47
841.47	65.26
841.642	65.92
841.815	67.34
841.987	67
842.16	69.35
842.332	73.18
842.505	75.5
842.677	77.5
842.85	79.57
843.022	78.31
843.194	81.86
843.367	84.93
843.539	88.52
843.712	89.2
843.884	88.8
844.056	91.45
844.229	91.96
844.401	90.85
844.573	91.28
844.745	90.91
844.918	92.63
845.09	92.76
845.262	95.74
845.434	94.77
845.606	90.58
845.779	93.01
845.951	93.35
846.123	94.13
846.295	93.8
846.467	92.99
846.639	93.68
846.811	96.24
846.983	97.14
847.155	93.24
847.327	90
847.499	95.62
847.671	95.16
847.843	93.96
848.015	97.19
848.187	100.53
848.359	104.54
848.531	103.06
848.703	105.38
848.875	102.79
849.047	102.53
849.218	104.15
849.39	105.74
849.562	105.96
849.734	101.81
849.905	94.8
850.077	97.68
850.249	95.2
850.421	93.42
850.592	88.32
850.764	91.58
850.936	95.27
851.107	101.09
851.279	101.15
851.451	102.81
851.622	105.67
851.794	115.62
851.965	108.74
852.137	108.04
852.308	111.96
852.48	122.04
852.651	120.76
852.823	120.13
852.994	115.56
853.166	115.09
853.337	115.27
853.509	116.72
853.68	112.1
853.851	113.29
854.023	111.37
854.194	109.39
854.365	103.41
854.537	105.19
854.708	102.2
854.879	106.56
855.05	103.95
855.222	100.55
855.393	102.38
855.564	108.02
855.735	108.81
855.906	112.56
856.078	115.71
856.249	121.78
856.42	117.56
856.591	118.81
856.762	115.44
856.933	116.33
857.104	116.19
857.275	115.55
857.446	111.63
857.617	113.52
857.788	113.36
857.959	113.58
858.13	111.4
858.301	117.41
858.472	115.8
858.643	116.25
858.814	118.4
858.985	123.37
859.155	126.71
859.326	126.24
859.497	128.45
859.668	126.93
859.839	126.52
860.009	123.06
860.18	122.22
860.351	127.02
860.522	126.15
860.692	127.18
860.863	126.33
861.034	125.8
861.204	128.6
861.375	127.7
861.546	124.13
861.716	120.53
861.887	130.54
862.057	134.85
862.228	137.28
862.398	132.93
862.569	130.09
862.739	133.67
862.91	134.86
863.08	132.92
863.251	129.72
863.421	135.75
863.592	140.83
863.762	133.38
863.932	124.5
864.103	119.99
864.273	120.1
864.443	116.7
864.614	114.76
864.784	113.54
864.954	110.7
865.125	113.16
865.295	116.28
865.465	114.75
865.635	113.74
865.805	121.89
865.976	128.96
866.146	127.86
866.316	127.34
866.486	124.47
866.656	127.55
866.826	135.01
866.996	136.09
867.166	137.38
867.336	133.1
867.506	131.86
867.676	122.72
867.846	122.15
868.016	123.81
868.186	130.78
868.356	133.6
868.526	122.77
868.696	114.29
868.866	116.73
869.036	115.71
869.206	120.2
869.376	124.45
869.545	133.6
869.715	138.46
869.885	138.69
870.055	132.57
870.224	133.75
870.394	144.75
870.564	147.73
870.734	140.75
870.903	136.74
871.073	134.64
871.243	129.4
871.412	130.92
871.582	122.84
871.751	125.07
871.921	126.74
872.091	129.29
872.26	122.25
872.43	117.21
872.599	116.38
872.769	113.02
872.938	114.79
873.108	119.56
873.277	112.01
873.446	111.95
873.616	113.17
873.785	109.81
873.955	102.25
874.124	107.22
874.293	109.98
874.463	116.41
874.632	116.71
874.801	116.4
874.971	111.97
875.14	116.76
875.309	116.95
875.478	118.99
875.647	126.07
875.817	124.31
875.986	119.04
876.155	122.12
876.324	118.24
876.493	126.22
876.662	122.54
876.831	120.41
877	119.86
877.17	122.33
877.339	118.76
877.508	117.98
877.677	122.78
877.846	122.63
878.015	120.47
878.184	117.29
878.352	112.1
878.521	114.43
878.69	113.15
878.859	109.47
879.028	102.85
879.197	98.78
879.366	92.22
879.534	86.64
879.703	82.49
879.872	75.33
880.041	70
880.21	65.4
880.378	59.37
880.547	57.14
880.716	54.32
880.884	52.9
881.053	49.34
881.222	48.12
881.39	46.42
881.559	45.18
881.727	43.96
881.896	43.03
882.065	41.78
882.233	42.11
882.402	41.54
882.57	41.05
882.739	39.67
882.907	40.23
883.076	40.67
883.244	40.75
883.412	40.65
883.581	41.38
883.749	42.5
883.918	43.94
884.086	44.27
884.254	46.32
884.423	47.37
884.591	49.64
884.759	50.47
884.927	51.36
885.096	52.64
885.264	55.57
885.432	58.32
885.6	58.98
885.769	60.35
885.937	64.59
886.105	65.05
886.273	68.08
886.441	70.91
886.609	75.87
886.777	77.72
886.945	82.57
887.113	86.14
887.281	85.33
887.449	93.45
887.617	93.39
887.785	92.09
887.953	94.37
888.121	95.47
888.289	98.92
888.457	99.86
888.625	99.04
888.793	104.54
888.961	102.82
889.129	107.68
889.296	102.05
889.464	107.2
889.632	106.99
889.8	109.5
889.967	109.78
890.135	106.69
