Data from 2938800__Reflection_01.txt Node
Date: Thu Mar 12 22:52:50 EDT 2015
User: robert
Spectrometer: USB4E03002
Autoset integration time: false
Trigger mode: 4
Integration Time (sec): 1.000000E-1
Scans to average: 10
Electric dark correction enabled: false
Nonlinearity correction enabled: false
Boxcar width: 5
Stray light correction enabled: false
XAxis mode: Wavelengths
Stop averaging: false
Number of Pixels in Spectrum: 3648
>>>>>Begin Spectral Data<<<<<
177.575	390.65
177.794	1219.44
178.014	393.59
178.233	467.33
178.452	275.8
178.672	269.25
178.891	353.09
179.11	329.37
179.33	337.56
179.549	364.57
179.768	274.56
179.987	245.26
180.207	215.95
180.426	256.83
180.645	291.58
180.864	277.46
181.084	327.82
181.303	218.85
181.522	197.87
181.741	162.28
181.96	166.29
182.179	178.52
182.398	177.68
182.618	180.36
182.837	168.65
183.056	167.98
183.275	166.04
183.494	146.4
183.713	153.36
183.932	146.65
184.151	153.33
184.37	141.46
184.589	132.54
184.808	129.52
185.027	126.33
185.246	129.32
185.465	105.59
185.684	118.56
185.903	116.38
186.122	113.27
186.341	141.09
186.56	148.99
186.779	148.45
186.998	148.84
187.216	149.46
187.435	149.66
187.654	144.77
187.873	161.05
188.092	156.53
188.311	172.18
188.53	172.91
188.748	155.12
188.967	149.01
189.186	153.2
189.405	160.09
189.623	159.14
189.842	145.26
190.061	139.36
190.28	147.36
190.498	131.43
190.717	121.23
190.936	125.42
191.154	123.57
191.373	124.99
191.592	112.37
191.81	117.37
192.029	114.65
192.248	117.57
192.466	115.53
192.685	109.83
192.904	125.95
193.122	133.27
193.341	135.94
193.559	153.18
193.778	155.82
193.996	172.08
194.215	163
194.433	188.73
194.652	223.35
194.87	262.43
195.089	293.06
195.307	250.23
195.526	221.77
195.744	228.47
195.963	202.3
196.181	236.02
196.399	252.19
196.618	220.59
196.836	202.75
197.055	188.99
197.273	177.68
197.491	162.77
197.71	170.66
197.928	199.24
198.146	173.04
198.365	157.26
198.583	144.11
198.801	137.47
199.019	166.41
199.238	156.47
199.456	145.44
199.674	166.37
199.892	153.92
200.111	150.33
200.329	141.11
200.547	183.57
200.765	210.95
200.983	188.45
201.202	174.59
201.42	154.69
201.638	166.47
201.856	174.44
202.074	155.88
202.292	153.13
202.51	139.12
202.728	148.42
202.946	130.46
203.165	134.36
203.383	149.04
203.601	163.76
203.819	174.62
204.037	184.63
204.255	194.06
204.473	186.32
204.691	208.68
204.909	211.79
205.127	201.83
205.345	196.27
205.562	168.28
205.78	158.48
205.998	161.74
206.216	146.51
206.434	151.62
206.652	136.33
206.87	135.85
207.088	122.75
207.306	136.86
207.523	132.05
207.741	137.51
207.959	155.04
208.177	150.69
208.395	140.16
208.612	153.92
208.83	136.87
209.048	145.17
209.266	139.37
209.483	151.64
209.701	134.97
209.919	131.62
210.136	134.02
210.354	121.28
210.572	122.63
210.79	121.85
211.007	118.67
211.225	119.79
211.442	116.23
211.66	121.3
211.878	105.95
212.095	106.95
212.313	105.55
212.53	106.22
212.748	114.38
212.966	111.69
213.183	112.74
213.401	113.75
213.618	112.03
213.836	111.61
214.053	114.5
214.271	123.81
214.488	125.86
214.705	125.24
214.923	132.86
215.14	134.57
215.358	144.77
215.575	157.7
215.793	139.74
216.01	135.34
216.227	125.5
216.445	125.52
216.662	142.46
216.879	131.32
217.097	146.77
217.314	116.23
217.531	106.76
217.749	105.62
217.966	102.88
218.183	112.5
218.4	108.02
218.618	113.76
218.835	104.56
219.052	99.06
219.269	98.56
219.487	86.92
219.704	91.85
219.921	93
220.138	87.97
220.355	83.38
220.572	82.72
220.79	81.7
221.007	79.47
221.224	78.94
221.441	75.77
221.658	72.87
221.875	66.94
222.092	63.64
222.309	60.86
222.526	61.08
222.743	60.16
222.96	60.42
223.177	57.73
223.394	54.58
223.611	54.24
223.828	54.47
224.045	54.88
224.262	56.74
224.479	52.44
224.696	47.4
224.913	46.3
225.13	44.4
225.347	38.89
225.564	38.61
225.781	37.58
225.997	35.67
226.214	32.1
226.431	29.43
226.648	26.28
226.865	27.09
227.082	26.64
227.298	21.72
227.515	20.58
227.732	19.71
227.949	17.76
228.165	16.79
228.382	15.52
228.599	14.77
228.816	14.17
229.032	13.22
229.249	12.42
229.466	11.7
229.682	12.23
229.899	11.76
230.116	11.47
230.332	11.66
230.549	11.15
230.765	12.2
230.982	12.84
231.199	13.11
231.415	14.83
231.632	16.26
231.848	17.93
232.065	19.79
232.281	20.82
232.498	20.61
232.714	21.06
232.931	23.29
233.147	21.79
233.364	21.25
233.58	22.49
233.797	22.74
234.013	21.48
234.23	20.36
234.446	19.4
234.662	19.34
234.879	20.73
235.095	21.06
235.312	19.91
235.528	21.07
235.744	22.05
235.961	21.18
236.177	20.9
236.393	21.25
236.61	21.65
236.826	22.18
237.042	22.64
237.258	22.13
237.475	22.33
237.691	22.81
237.907	22.88
238.123	22.58
238.339	22.04
238.556	21.47
238.772	20.7
238.988	20.94
239.204	20.47
239.42	20.14
239.636	19.53
239.853	18.99
240.069	17.85
240.285	16.59
240.501	15.26
240.717	14.39
240.933	13.54
241.149	12.63
241.365	11.77
241.581	11.59
241.797	11.01
242.013	11.17
242.229	10.86
242.445	10.52
242.661	10.51
242.877	10.44
243.093	10.45
243.309	10.88
243.525	10.86
243.741	11.01
243.957	11.07
244.173	11.09
244.388	11.09
244.604	10.75
244.82	11.32
245.036	11.02
245.252	11.25
245.468	10.59
245.683	10.06
245.899	10.28
246.115	9.74
246.331	9.25
246.547	9.13
246.762	8.46
246.978	8.24
247.194	7.88
247.409	7.91
247.625	7.86
247.841	7.94
248.057	7.59
248.272	7.3
248.488	7.47
248.703	7.86
248.919	7.96
249.135	8.64
249.35	9.19
249.566	10.27
249.782	10.43
249.997	11.09
250.213	11.82
250.428	13.06
250.644	14.01
250.859	14.2
251.075	13.94
251.29	13.36
251.506	13.03
251.721	12.78
251.937	11.92
252.152	12.31
252.368	11.53
252.583	11.18
252.798	11.14
253.014	10.67
253.229	10.59
253.445	10.31
253.66	10.58
253.875	10.36
254.091	10.72
254.306	11.65
254.521	11.05
254.737	11.33
254.952	11.14
255.167	10.94
255.383	10.9
255.598	10.62
255.813	10.77
256.028	11.32
256.244	11.63
256.459	12.08
256.674	11.5
256.889	11.53
257.104	11.3
257.32	11.4
257.535	10.82
257.75	10.81
257.965	10.73
258.18	10.26
258.395	9.47
258.61	8.77
258.826	8.02
259.041	7.49
259.256	7.08
259.471	6.99
259.686	6.8
259.901	6.88
260.116	6.55
260.331	6.41
260.546	6.53
260.761	6.67
260.976	6.86
261.191	6.92
261.406	6.99
261.621	7.4
261.836	7.67
262.05	8.05
262.265	7.94
262.48	8.58
262.695	8.69
262.91	8.45
263.125	8.71
263.34	9.24
263.555	9.68
263.769	9.81
263.984	9.19
264.199	8.69
264.414	8.51
264.629	9.06
264.843	9.08
265.058	9.6
265.273	9.08
265.488	9.26
265.702	8.75
265.917	8.7
266.132	8.73
266.346	8.94
266.561	9.02
266.776	9.28
266.99	8.83
267.205	8.3
267.42	7.72
267.634	8.35
267.849	8.02
268.063	8.07
268.278	7.92
268.492	8.44
268.707	8.8
268.922	9.17
269.136	8.53
269.351	8.57
269.565	8.53
269.78	8.98
269.994	8.51
270.209	8.58
270.423	8.4
270.637	8.02
270.852	7.29
271.066	6.98
271.281	6.45
271.495	6.82
271.709	6.86
271.924	6.99
272.138	6.66
272.353	6.8
272.567	6.73
272.781	6.86
272.996	7.07
273.21	7.48
273.424	7.64
273.638	8.15
273.853	7.99
274.067	8.03
274.281	8.24
274.495	8.43
274.71	8.5
274.924	8.58
275.138	8.34
275.352	8.51
275.566	8.41
275.781	8.25
275.995	8.19
276.209	8.39
276.423	8.87
276.637	8.77
276.851	8.68
277.065	8.72
277.279	8.52
277.493	8.69
277.707	8.33
277.921	8.53
278.135	8.86
278.349	8.76
278.563	8.77
278.777	8.22
278.991	8.1
279.205	8.52
279.419	8.27
279.633	8.38
279.847	8.55
280.061	8.69
280.275	8.47
280.489	7.93
280.703	7.71
280.917	7.61
281.131	7.61
281.344	7.51
281.558	7.1
281.772	6.76
281.986	6.54
282.2	6.34
282.414	6.24
282.627	6.35
282.841	6.88
283.055	6.88
283.269	6.97
283.482	6.92
283.696	6.87
283.91	6.97
284.123	7.43
284.337	7.4
284.551	7.27
284.764	7.33
284.978	7.25
285.192	6.6
285.405	6.58
285.619	6.25
285.833	6.24
286.046	6.28
286.26	6.27
286.473	6.22
286.687	6.11
286.9	6.07
287.114	5.96
287.327	5.95
287.541	6.16
287.754	6.28
287.968	6.37
288.181	6.33
288.395	6.23
288.608	5.98
288.822	6.13
289.035	6.22
289.248	6.55
289.462	6.63
289.675	6.4
289.889	6.29
290.102	5.96
290.315	6.18
290.529	6.33
290.742	6.48
290.955	6.73
291.169	6.62
291.382	7.08
291.595	6.89
291.808	7.11
292.022	7.15
292.235	7.78
292.448	8.1
292.661	7.64
292.875	7.39
293.088	7.44
293.301	7.72
293.514	7.38
293.727	6.91
293.94	7.1
294.153	6.91
294.367	7.1
294.58	6.44
294.793	6.48
295.006	6.86
295.219	6.97
295.432	7.07
295.645	6.79
295.858	6.79
296.071	6.76
296.284	6.63
296.497	6.35
296.71	6.35
296.923	6.57
297.136	6.33
297.349	6.19
297.562	6.17
297.775	5.91
297.988	5.59
298.201	5.68
298.414	5.64
298.626	5.42
298.839	5.66
299.052	5.53
299.265	5.45
299.478	5.5
299.691	5.4
299.903	5.3
300.116	5.32
300.329	5.84
300.542	6.13
300.755	6.25
300.967	6.69
301.18	6.94
301.393	7.04
301.605	7.2
301.818	7.56
302.031	7.87
302.243	8.17
302.456	8.71
302.669	8.93
302.881	8.79
303.094	8.68
303.307	8.4
303.519	8.06
303.732	7.82
303.944	7.91
304.157	8.04
304.37	7.94
304.582	8.07
304.795	7.6
305.007	7.48
305.22	7.52
305.432	7.59
305.645	7.75
305.857	7.99
306.069	8.32
306.282	8.29
306.494	8.08
306.707	8.12
306.919	7.76
307.132	7.95
307.344	7.74
307.556	7.42
307.769	7.61
307.981	7.1
308.193	6.86
308.406	6.68
308.618	6.82
308.83	6.75
309.043	6.61
309.255	6.57
309.467	6.68
309.679	6.64
309.892	6.86
310.104	6.59
310.316	6.85
310.528	6.96
310.74	6.9
310.953	6.62
311.165	6.62
311.377	6.84
311.589	6.8
311.801	6.56
312.013	6.57
312.225	6.48
312.437	6.98
312.649	7.05
312.862	6.93
313.074	7.27
313.286	7.63
313.498	7.66
313.71	7.73
313.922	7.97
314.134	8.3
314.346	8.37
314.558	8.77
314.77	8.5
314.982	8.61
315.193	8.89
315.405	8.67
315.617	8.46
315.829	8.31
316.041	8.31
316.253	8.23
316.465	8.36
316.677	8.43
316.888	8.5
317.1	8.61
317.312	8.6
317.524	8.46
317.736	8.26
317.947	8.42
318.159	9.12
318.371	9.16
318.583	9.44
318.794	9.29
319.006	9.47
319.218	9.62
319.43	9.73
319.641	10.26
319.853	10.36
320.064	10.97
320.276	11.19
320.488	10.95
320.699	11.59
320.911	11.21
321.123	11.32
321.334	11.41
321.546	11.62
321.757	12.04
321.969	11.89
322.18	12.36
322.392	12.48
322.603	12.36
322.815	12.65
323.026	11.91
323.238	12.22
323.449	12.31
323.661	12.12
323.872	12
324.083	11.76
324.295	11.91
324.506	11.85
324.718	11.89
324.929	12.41
325.14	12.34
325.352	12.7
325.563	13.31
325.774	13.64
325.986	14.22
326.197	14.38
326.408	14.66
326.62	14.99
326.831	15.35
327.042	15.61
327.253	15.77
327.464	16.02
327.676	16.37
327.887	16.71
328.098	17
328.309	17.34
328.52	17.55
328.732	17.65
328.943	17.84
329.154	18.08
329.365	18.43
329.576	18.6
329.787	19.25
329.998	19.68
330.209	19.81
330.42	20.11
330.631	20.17
330.842	20.18
331.053	20.74
331.264	21.02
331.475	21.3
331.686	21.25
331.897	21.26
332.108	21.1
332.319	21.22
332.53	21.03
332.741	20.86
332.952	20.64
333.163	21.07
333.374	21.3
333.585	21.36
333.795	21.56
334.006	22.06
334.217	22.51
334.428	22.69
334.639	22.45
334.849	22.67
335.06	22.9
335.271	23.34
335.482	23.41
335.692	23.24
335.903	23.27
336.114	23.31
336.325	23.21
336.535	23.1
336.746	23.18
336.957	23.17
337.167	23.48
337.378	23.57
337.589	23.34
337.799	23.51
338.01	23.74
338.22	23.6
338.431	23.34
338.642	23.37
338.852	23.19
339.063	22.86
339.273	23.32
339.484	22.98
339.694	22.94
339.905	23.31
340.115	22.85
340.326	22.53
340.536	22.91
340.746	23.01
340.957	22.71
341.167	22.77
341.378	22.96
341.588	22.88
341.799	22.78
342.009	22.46
342.219	22.25
342.43	22.4
342.64	22.43
342.85	22.1
343.061	22.03
343.271	22.46
343.481	22.3
343.691	22.19
343.902	22.07
344.112	22.24
344.322	22.48
344.532	22.43
344.743	22.47
344.953	22.32
345.163	22.32
345.373	22.36
345.583	21.79
345.793	21.94
346.004	21.84
346.214	21.85
346.424	21.67
346.634	21.8
346.844	22.14
347.054	22.23
347.264	22.75
347.474	22.94
347.684	22.84
347.894	23.26
348.104	23.19
348.314	23.59
348.524	23.34
348.734	23.63
348.944	23.54
349.154	23.02
349.364	22.87
349.574	22.56
349.784	22.27
349.994	22.41
350.204	22.22
350.413	22.41
350.623	21.99
350.833	22.01
351.043	21.93
351.253	22.09
351.463	22.33
351.672	22.26
351.882	22.26
352.092	22.22
352.302	22.1
352.511	22.19
352.721	22.07
352.931	22.27
353.141	22.27
353.35	22.09
353.56	21.56
353.77	21.37
353.979	21.5
354.189	21.63
354.399	21.7
354.608	21.71
354.818	21.5
355.027	21.49
355.237	21.34
355.447	21.33
355.656	21.41
355.866	21.57
356.075	21.65
356.285	21.44
356.494	21.12
356.704	21.06
356.913	20.95
357.123	20.96
357.332	20.64
357.542	20.49
357.751	20.58
357.96	20.28
358.17	20.27
358.379	19.91
358.589	19.84
358.798	20.07
359.007	20.1
359.217	19.98
359.426	19.88
359.635	20.13
359.845	20.29
360.054	20.11
360.263	20.31
360.472	20.16
360.682	20.42
360.891	20.42
361.1	20.19
361.309	20.05
361.519	20.11
361.728	20.21
361.937	19.98
362.146	19.88
362.355	20.03
362.564	19.99
362.774	20.1
362.983	20.06
363.192	20.2
363.401	20.07
363.61	20.16
363.819	20.29
364.028	20.12
364.237	20.33
364.446	20.38
364.655	20.26
364.864	20.26
365.073	20.22
365.282	20.17
365.491	19.79
365.7	19.98
365.909	20.07
366.118	20.06
366.327	20.21
366.536	20.1
366.745	20.15
366.954	20.16
367.162	20.26
367.371	20.25
367.58	20.27
367.789	20.64
367.998	20.62
368.207	20.68
368.415	20.73
368.624	20.69
368.833	20.57
369.042	20.33
369.25	20.35
369.459	20.39
369.668	20.39
369.877	20.3
370.085	20.21
370.294	20.05
370.503	19.91
370.711	19.62
370.92	19.39
371.129	19.63
371.337	19.85
371.546	19.86
371.754	19.62
371.963	19.56
372.171	19.59
372.38	19.51
372.589	19.77
372.797	19.63
373.006	19.59
373.214	19.79
373.423	19.43
373.631	19.33
373.84	19.27
374.048	19.28
374.256	19.22
374.465	19.25
374.673	19.32
374.882	19.24
375.09	19.29
375.298	19.3
375.507	19.4
375.715	19.67
375.923	19.7
376.132	19.49
376.34	19.38
376.548	19.26
376.757	19.11
376.965	19.16
377.173	19.09
377.381	18.87
377.59	18.75
377.798	18.54
378.006	18.34
378.214	18.36
378.423	18.43
378.631	18.47
378.839	18.6
379.047	18.67
379.255	18.55
379.463	18.57
379.671	18.83
379.879	18.93
380.088	19.17
380.296	19.28
380.504	18.99
380.712	18.93
380.92	18.86
381.128	18.73
381.336	18.82
381.544	18.56
381.752	18.48
381.96	18.36
382.168	18.18
382.376	18.08
382.584	17.99
382.791	18.08
382.999	18.01
383.207	18.09
383.415	18.06
383.623	18.05
383.831	18.12
384.039	18.13
384.247	18.16
384.454	18.27
384.662	18.08
384.87	18.05
385.078	18.05
385.285	18.11
385.493	18.33
385.701	18.47
385.909	18.21
386.116	18.18
386.324	18.36
386.532	18.45
386.739	18.63
386.947	18.63
387.155	18.94
387.362	19.1
387.57	19.12
387.778	18.83
387.985	18.76
388.193	19.06
388.4	19.04
388.608	19.05
388.816	18.83
389.023	18.7
389.231	18.65
389.438	18.34
389.646	18.1
389.853	17.84
390.061	17.78
390.268	17.77
390.475	17.4
390.683	17.37
390.89	17.13
391.098	17.26
391.305	17.22
391.512	17.31
391.72	17.43
391.927	17.29
392.135	17.43
392.342	17.45
392.549	17.42
392.756	17.35
392.964	17.33
393.171	17.35
393.378	17.01
393.586	16.98
393.793	16.79
394	16.7
394.207	16.82
394.414	17.05
394.622	17.05
394.829	17.21
395.036	17.33
395.243	17.5
395.45	17.67
395.657	17.98
395.864	18.06
396.072	18.28
396.279	18.25
396.486	18.29
396.693	18.27
396.9	18.24
397.107	18.05
397.314	18.08
397.521	17.99
397.728	17.72
397.935	17.82
398.142	17.71
398.349	17.62
398.556	17.62
398.763	17.63
398.97	17.43
399.177	17.44
399.383	17.45
399.59	17.41
399.797	17.47
400.004	17.5
400.211	17.42
400.418	17.45
400.625	17.49
400.831	17.5
401.038	17.56
401.245	17.31
401.452	17.46
401.658	17.44
401.865	17.52
402.072	17.42
402.279	17.33
402.485	17.2
402.692	17.12
402.899	17.12
403.105	17.12
403.312	17
403.519	17.24
403.725	17.08
403.932	17.13
404.138	17.14
404.345	17.19
404.552	17.25
404.758	17.35
404.965	17.43
405.171	17.35
405.378	17.33
405.584	17.33
405.791	17.32
405.997	17.38
406.204	17.46
406.41	17.45
406.617	17.51
406.823	17.47
407.029	17.46
407.236	17.46
407.442	17.55
407.649	17.48
407.855	17.5
408.061	17.45
408.268	17.24
408.474	17.31
408.68	17.27
408.887	17.12
409.093	17.19
409.299	17.13
409.505	17.07
409.712	17
409.918	17.07
410.124	17.14
410.33	17.12
410.537	17.03
410.743	16.99
410.949	17.01
411.155	17.13
411.361	16.91
411.567	16.99
411.773	17.03
411.98	17.05
412.186	17.08
412.392	17.09
412.598	17.04
412.804	17.16
413.01	16.97
413.216	16.96
413.422	16.87
413.628	17.1
413.834	17.1
414.04	17.22
414.246	17.13
414.452	16.99
414.658	16.96
414.864	17.16
415.07	17.32
415.275	17.36
415.481	17.29
415.687	17.26
415.893	17.29
416.099	17.12
416.305	17.05
416.511	16.97
416.716	16.93
416.922	16.97
417.128	16.74
417.334	16.74
417.539	16.75
417.745	16.69
417.951	16.61
418.157	16.5
418.362	16.57
418.568	16.48
418.774	16.5
418.979	16.53
419.185	16.47
419.391	16.52
419.596	16.36
419.802	16.29
420.008	16.36
420.213	15.75
420.419	15.79
420.624	15.7
420.83	15.68
421.035	15.65
421.241	15.65
421.446	15.6
421.652	15.44
421.857	15.48
422.063	15.47
422.268	15.43
422.474	16.03
422.679	16.01
422.885	16.05
423.09	16.07
423.295	16.09
423.501	16.13
423.706	16.14
423.911	16.27
424.117	16.25
424.322	16.3
424.527	16.23
424.733	16.2
424.938	16.18
425.143	16.21
425.349	16.27
425.554	16.31
425.759	16.31
425.964	16.39
426.169	16.46
426.375	16.54
426.58	16.54
426.785	16.61
426.99	16.69
427.195	16.8
427.4	16.86
427.605	16.88
427.811	16.91
428.016	16.83
428.221	16.78
428.426	16.82
428.631	16.82
428.836	16.87
429.041	16.99
429.246	16.91
429.451	16.88
429.656	16.8
429.861	16.71
430.066	16.88
430.271	16.8
430.476	16.81
430.681	16.77
430.886	16.76
431.09	16.8
431.295	16.7
431.5	16.8
431.705	16.73
431.91	16.68
432.115	16.67
432.32	16.53
432.524	16.63
432.729	16.65
432.934	16.59
433.139	16.63
433.343	16.52
433.548	16.46
433.753	16.52
433.958	16.66
434.162	16.72
434.367	16.73
434.572	16.76
434.776	16.72
434.981	16.72
435.186	16.75
435.39	16.82
435.595	16.79
435.799	16.84
436.004	16.63
436.209	16.53
436.413	16.5
436.618	16.56
436.822	16.56
437.027	16.63
437.231	16.54
437.436	16.47
437.64	16.38
437.845	16.43
438.049	16.52
438.253	16.62
438.458	16.64
438.662	16.63
438.867	16.63
439.071	16.58
439.275	16.54
439.48	16.59
439.684	16.6
439.888	16.59
440.093	16.55
440.297	16.53
440.501	16.52
440.706	16.52
440.91	16.55
441.114	16.5
441.318	16.53
441.523	16.54
441.727	16.5
441.931	16.54
442.135	16.52
442.339	16.58
442.543	16.51
442.748	16.46
442.952	16.47
443.156	16.43
443.36	16.48
443.564	16.48
443.768	16.49
443.972	16.56
444.176	16.57
444.38	16.57
444.584	16.51
444.788	16.52
444.992	16.54
445.196	16.44
445.4	16.44
445.604	16.41
445.808	16.33
446.012	16.28
446.216	16.18
446.42	16.18
446.624	16.16
446.828	16.18
447.032	16.18
447.235	16.1
447.439	16.17
447.643	16.19
447.847	16.15
448.051	16.18
448.254	16.21
448.458	16.25
448.662	16.23
448.866	16.19
449.069	16.14
449.273	16.1
449.477	16.22
449.681	16.2
449.884	16.26
450.088	16.38
450.292	16.46
450.495	16.43
450.699	16.42
450.902	16.46
451.106	16.53
451.31	16.63
451.513	16.71
451.717	16.66
451.92	16.66
452.124	16.61
452.327	16.58
452.531	16.52
452.734	16.59
452.938	16.69
453.141	16.66
453.345	16.69
453.548	16.67
453.752	16.68
453.955	16.81
454.158	16.76
454.362	16.73
454.565	16.65
454.769	16.65
454.972	16.7
455.175	16.76
455.379	16.72
455.582	16.83
455.785	16.78
455.988	16.75
456.192	16.65
456.395	16.72
456.598	16.73
456.801	16.84
457.005	16.85
457.208	16.83
457.411	16.72
457.614	16.7
457.817	16.52
458.021	16.49
458.224	16.54
458.427	16.53
458.63	16.51
458.833	16.46
459.036	16.41
459.239	16.35
459.442	16.29
459.645	16.21
459.848	16.2
460.051	16.26
460.254	16.24
460.457	16.23
460.66	16.19
460.863	16.16
461.066	16.18
461.269	16.1
461.472	16.16
461.675	16.25
461.878	16.29
462.081	16.36
462.284	16.44
462.486	16.46
462.689	16.49
462.892	16.48
463.095	16.6
463.298	16.69
463.5	16.87
463.703	16.98
463.906	16.92
464.109	17.03
464.311	16.99
464.514	16.92
464.717	17.02
464.92	17.02
465.122	17.12
465.325	17.13
465.528	17.05
465.73	16.98
465.933	16.93
466.135	16.87
466.338	16.83
466.541	16.81
466.743	16.82
466.946	16.83
467.148	16.72
467.351	16.68
467.553	16.62
467.756	16.6
467.958	16.62
468.161	16.54
468.363	16.61
468.566	16.56
468.768	16.68
468.971	16.62
469.173	16.65
469.375	16.67
469.578	16.76
469.78	16.69
469.983	16.78
470.185	16.81
470.387	16.79
470.59	16.89
470.792	17
470.994	16.91
471.196	16.89
471.399	16.91
471.601	16.97
471.803	16.83
472.005	16.96
472.208	16.92
472.41	16.84
472.612	16.85
472.814	16.78
473.016	16.8
473.218	16.85
473.421	16.9
473.623	16.98
473.825	16.99
474.027	17.07
474.229	17.02
474.431	16.97
474.633	17.01
474.835	17.05
475.037	17.04
475.239	17
475.441	16.93
475.643	16.93
475.845	16.85
476.047	16.77
476.249	16.78
476.451	16.76
476.653	16.8
476.855	16.78
477.057	16.82
477.258	16.82
477.46	16.79
477.662	16.85
477.864	16.82
478.066	16.78
478.268	16.81
478.469	16.77
478.671	16.76
478.873	16.82
479.075	16.75
479.276	16.79
479.478	16.83
479.68	16.85
479.882	16.81
480.083	16.81
480.285	16.79
480.487	16.77
480.688	16.74
480.89	16.73
481.091	16.57
481.293	16.57
481.495	16.47
481.696	16.4
481.898	16.35
482.099	16.29
482.301	16.21
482.502	16.15
482.704	16.06
482.905	16.03
483.107	15.96
483.308	15.98
483.51	15.95
483.711	15.92
483.913	15.9
484.114	15.87
484.315	15.86
484.517	15.85
484.718	15.86
484.92	15.91
485.121	15.92
485.322	15.97
485.524	15.98
485.725	15.97
485.926	15.96
486.127	15.97
486.329	15.95
486.53	15.97
486.731	16.03
486.932	16.01
487.134	16.02
487.335	16.02
487.536	15.99
487.737	15.96
487.938	15.99
488.139	16.04
488.341	16
488.542	16.04
488.743	16.02
488.944	16
489.145	16.03
489.346	16.01
489.547	16.03
489.748	16.05
489.949	16.11
490.15	16.14
490.351	16.15
490.552	16.16
490.753	16.16
490.954	16.19
491.155	16.18
491.356	16.21
491.557	16.15
491.758	16.14
491.959	16.17
492.159	16.17
492.36	16.14
492.561	16.15
492.762	16.22
492.963	16.24
493.164	16.22
493.364	16.25
493.565	16.28
493.766	16.38
493.967	16.42
494.167	16.39
494.368	16.46
494.569	16.54
494.769	16.57
494.97	16.58
495.171	16.61
495.371	16.72
495.572	16.75
495.773	16.77
495.973	16.81
496.174	16.89
496.375	16.95
496.575	16.97
496.776	16.95
496.976	16.93
497.177	16.92
497.377	16.96
497.578	16.94
497.778	16.94
497.979	16.93
498.179	16.99
498.38	16.92
498.58	16.93
498.78	16.93
498.981	16.94
499.181	16.96
499.382	16.97
499.582	16.94
499.782	16.98
499.983	17.04
500.183	17.02
500.383	16.94
500.584	17.07
500.784	17.09
500.984	17.06
501.184	17.2
501.385	17.24
501.585	17.3
501.785	17.33
501.985	17.33
502.185	17.25
502.386	17.29
502.586	17.34
502.786	17.36
502.986	17.32
503.186	17.38
503.386	17.27
503.586	17.33
503.786	17.38
503.987	17.44
504.187	17.45
504.387	17.58
504.587	17.65
504.787	17.65
504.987	17.63
505.187	17.67
505.387	17.72
505.587	17.76
505.786	17.72
505.986	17.76
506.186	17.78
506.386	17.73
506.586	17.67
506.786	17.65
506.986	17.71
507.186	17.73
507.386	17.81
507.585	17.81
507.785	17.84
507.985	17.85
508.185	17.77
508.384	17.74
508.584	17.81
508.784	17.8
508.984	17.8
509.183	17.84
509.383	17.85
509.583	17.86
509.782	17.78
509.982	17.75
510.182	17.84
510.381	17.91
510.581	17.95
510.781	18.05
510.98	18.18
511.18	18.22
511.379	18.23
511.579	18.2
511.778	18.18
511.978	18.26
512.177	18.32
512.377	18.34
512.576	18.34
512.776	18.37
512.975	18.34
513.175	18.28
513.374	18.31
513.573	18.38
513.773	18.51
513.972	18.68
514.172	18.79
514.371	18.88
514.57	18.92
514.77	19.04
514.969	19.07
515.168	19.13
515.367	19.19
515.567	19.2
515.766	19.21
515.965	19.27
516.164	19.22
516.364	19.11
516.563	19.07
516.762	19.08
516.961	19.08
517.16	19.19
517.359	19.27
517.559	19.32
517.758	19.34
517.957	19.36
518.156	19.38
518.355	19.41
518.554	19.49
518.753	19.54
518.952	19.52
519.151	19.53
519.35	19.49
519.549	19.48
519.748	19.46
519.947	19.62
520.146	19.65
520.345	19.69
520.544	19.71
520.743	19.81
520.942	19.84
521.141	19.97
521.339	20.08
521.538	20.22
521.737	20.26
521.936	20.36
522.135	20.31
522.333	20.34
522.532	20.34
522.731	20.45
522.93	20.47
523.129	20.55
523.327	20.59
523.526	20.62
523.725	20.63
523.923	20.67
524.122	20.68
524.321	20.71
524.519	20.73
524.718	20.79
524.917	20.8
525.115	20.85
525.314	20.89
525.512	20.97
525.711	20.98
525.909	20.98
526.108	21.03
526.306	21.09
526.505	21.13
526.703	21.17
526.902	21.21
527.1	21.2
527.299	21.22
527.497	21.21
527.696	21.17
527.894	21.14
528.092	21.17
528.291	21.18
528.489	21.22
528.688	21.25
528.886	21.26
529.084	21.28
529.283	21.35
529.481	21.38
529.679	21.48
529.877	21.59
530.076	21.72
530.274	21.79
530.472	21.87
530.67	21.9
530.869	21.96
531.067	22.06
531.265	22.1
531.463	22.15
531.661	22.23
531.859	22.27
532.057	22.29
532.255	22.36
532.454	22.42
532.652	22.48
532.85	22.53
533.048	22.56
533.246	22.63
533.444	22.69
533.642	22.73
533.84	22.83
534.038	22.85
534.236	22.93
534.434	22.94
534.632	22.99
534.83	23.05
535.027	23.12
535.225	23.21
535.423	23.28
535.621	23.33
535.819	23.38
536.017	23.35
536.215	23.41
536.412	23.44
536.61	23.47
536.808	23.58
537.006	23.68
537.203	23.72
537.401	23.85
537.599	23.91
537.797	23.96
537.994	24.05
538.192	24.16
538.39	24.3
538.587	24.4
538.785	24.52
538.983	24.59
539.18	24.74
539.378	24.9
539.575	24.99
539.773	25.09
539.97	25.25
540.168	25.3
540.366	25.44
540.563	25.46
540.761	25.5
540.958	25.57
541.155	25.56
541.353	25.5
541.55	25.5
541.748	25.48
541.945	25.53
542.143	25.54
542.34	25.61
542.537	25.61
542.735	25.64
542.932	25.74
543.129	25.79
543.327	25.9
543.524	26.12
543.721	26.28
543.919	26.49
544.116	26.61
544.313	26.75
544.51	26.92
544.708	27.06
544.905	27.3
545.102	27.44
545.299	27.61
545.496	27.74
545.693	27.78
545.891	27.82
546.088	27.82
546.285	27.81
546.482	27.75
546.679	27.76
546.876	27.7
547.073	27.57
547.27	27.47
547.467	27.4
547.664	27.35
547.861	27.36
548.058	27.42
548.255	27.4
548.452	27.39
548.649	27.47
548.846	27.37
549.043	27.38
549.24	27.45
549.437	27.53
549.633	27.43
549.83	27.45
550.027	27.32
550.224	27.17
550.421	27.14
550.618	27.13
550.814	27.13
551.011	27.18
551.208	27.16
551.405	27.22
551.601	27.05
551.798	27.07
551.995	27.04
552.191	27.13
552.388	27.07
552.585	27.1
552.781	27.12
552.978	27.06
553.175	27.1
553.371	27.2
553.568	27.09
553.764	27.16
553.961	27.14
554.157	27.2
554.354	27.17
554.55	27.25
554.747	27.27
554.943	27.36
555.14	27.43
555.336	27.55
555.533	27.62
555.729	27.65
555.926	27.7
556.122	27.72
556.318	27.7
556.515	27.73
556.711	27.61
556.907	27.58
557.104	27.62
557.3	27.75
557.496	27.62
557.693	27.46
557.889	27.49
558.085	27.63
558.281	27.75
558.478	27.78
558.674	27.79
558.87	27.92
559.066	27.9
559.262	27.86
559.459	27.83
559.655	27.88
559.851	28.01
560.047	27.98
560.243	27.85
560.439	27.77
560.635	27.75
560.831	27.77
561.027	27.77
561.223	27.77
561.419	27.67
561.615	27.63
561.811	27.63
562.007	27.57
562.203	27.59
562.399	27.74
562.595	27.62
562.791	27.7
562.987	27.73
563.183	27.73
563.379	27.84
563.575	27.98
563.771	28
563.966	27.95
564.162	28.04
564.358	28.21
564.554	28.11
564.75	28.31
564.945	28.26
565.141	28.29
565.337	28.24
565.533	28.19
565.728	28.09
565.924	28.11
566.12	28.17
566.315	28.14
566.511	28.09
566.707	28.11
566.902	28.11
567.098	28.16
567.293	28.03
567.489	28.15
567.684	28.22
567.88	28.39
568.076	28.32
568.271	28.23
568.467	28.26
568.662	28.24
568.858	28.19
569.053	28.23
569.248	28.2
569.444	28.4
569.639	28.46
569.835	28.43
570.03	28.24
570.225	28.36
570.421	28.49
570.616	28.52
570.812	28.55
571.007	28.74
571.202	28.76
571.397	28.84
571.593	28.74
571.788	28.76
571.983	28.71
572.178	28.83
572.374	28.85
572.569	28.72
572.764	28.67
572.959	28.63
573.154	28.54
573.35	28.51
573.545	28.44
573.74	28.44
573.935	28.36
574.13	28.39
574.325	28.33
574.52	28.4
574.715	28.48
574.91	28.54
575.105	28.62
575.3	28.66
575.495	28.65
575.69	28.82
575.885	28.94
576.08	29.13
576.275	29.26
576.47	29.42
576.665	29.51
576.86	29.69
577.055	29.78
577.25	29.84
577.444	29.88
577.639	30.09
577.834	29.97
578.029	30.06
578.224	29.99
578.418	30.08
578.613	30.13
578.808	30.03
579.003	30.04
579.197	30.03
579.392	30.14
579.587	30.25
579.781	30.11
579.976	30.09
580.171	30.04
580.365	30.16
580.56	30.15
580.755	30.14
580.949	30.21
581.144	30.13
581.338	30.12
581.533	30.09
581.727	30.03
581.922	30.13
582.116	30.21
582.311	30.25
582.505	30.23
582.7	30.26
582.894	30.35
583.089	30.26
583.283	30.22
583.478	30.34
583.672	30.25
583.866	30.39
584.061	30.31
584.255	30.45
584.449	30.36
584.644	30.35
584.838	30.3
585.032	30.27
585.226	30.34
585.421	30.57
585.615	30.34
585.809	30.51
586.003	30.43
586.198	30.68
586.392	30.85
586.586	30.94
586.78	30.99
586.974	31.01
587.168	30.89
587.363	30.89
587.557	30.82
587.751	30.94
587.945	30.84
588.139	30.95
588.333	30.74
588.527	30.52
588.721	30.43
588.915	30.47
589.109	30.42
589.303	30.58
589.497	30.55
589.691	30.55
589.885	30.58
590.079	30.64
590.273	30.55
590.466	30.62
590.66	30.6
590.854	30.74
591.048	30.71
591.242	30.74
591.436	30.73
591.629	30.77
591.823	30.81
592.017	30.77
592.211	30.71
592.404	30.69
592.598	30.66
592.792	30.81
592.986	30.76
593.179	30.77
593.373	30.7
593.567	30.7
593.76	30.72
593.954	30.63
594.147	30.78
594.341	30.85
594.535	30.74
594.728	30.79
594.922	30.64
595.115	30.64
595.309	30.53
595.502	30.54
595.696	30.44
595.889	30.44
596.083	30.35
596.276	30.38
596.47	30.22
596.663	30.31
596.856	30.24
597.05	30.26
597.243	30.2
597.437	30.21
597.63	30.23
597.823	30.31
598.017	30.4
598.21	30.63
598.403	30.59
598.596	30.67
598.79	30.77
598.983	30.75
599.176	30.78
599.369	30.91
599.563	31.06
599.756	31.08
599.949	31.08
600.142	31.01
600.335	30.98
600.528	30.88
600.722	30.9
600.915	30.88
601.108	30.96
601.301	30.96
601.494	31.03
601.687	30.95
601.88	30.94
602.073	30.92
602.266	30.86
602.459	30.83
602.652	30.95
602.845	30.81
603.038	30.74
603.231	30.79
603.424	30.62
603.617	30.48
603.809	30.54
604.002	30.64
604.195	30.57
604.388	30.51
604.581	30.53
604.774	30.47
604.966	30.54
605.159	30.54
605.352	30.52
605.545	30.72
605.737	30.77
605.93	30.71
606.123	30.62
606.316	30.75
606.508	30.95
606.701	30.97
606.894	31.07
607.086	31.26
607.279	31.53
607.471	31.64
607.664	31.82
607.857	31.99
608.049	32.22
608.242	32.63
608.434	33.03
608.627	33.4
608.819	33.98
609.012	34.56
609.204	35.2
609.397	35.87
609.589	36.86
609.782	37.73
609.974	38.75
610.166	39.76
610.359	40.64
610.551	41.46
610.743	42.24
610.936	42.92
611.128	43.43
611.32	43.91
611.513	44.13
611.705	44.01
611.897	43.94
612.09	43.76
612.282	43.33
612.474	42.96
612.666	42.44
612.858	41.86
613.051	41.32
613.243	40.83
613.435	40.27
613.627	39.78
613.819	39.27
614.011	38.92
614.203	38.28
614.395	38.01
614.588	37.68
614.78	37.23
614.972	36.72
615.164	36.32
615.356	35.93
615.548	35.59
615.74	35.4
615.932	35.26
616.124	34.76
616.315	34.68
616.507	34.42
616.699	34.25
616.891	34.21
617.083	34.35
617.275	34.09
617.467	33.98
617.659	33.85
617.85	33.55
618.042	33.32
618.234	33.25
618.426	33.25
618.618	33.37
618.809	33.05
619.001	32.87
619.193	32.79
619.384	32.95
619.576	33.06
619.768	33.01
619.959	33.1
620.151	33.31
620.343	33.53
620.534	33.4
620.726	33.05
620.917	33.18
621.109	33.28
621.301	33.38
621.492	33.33
621.684	33.17
621.875	33.15
622.067	33.23
622.258	32.93
622.45	32.92
622.641	32.9
622.832	33.09
623.024	33.22
623.215	33.34
623.407	33.04
623.598	32.98
623.789	33.19
623.981	33.23
624.172	33.29
624.363	33.39
624.555	33.36
624.746	33.28
624.937	33.35
625.129	33.19
625.32	33.05
625.511	33.24
625.702	33.31
625.893	33.13
626.085	33.05
626.276	33.02
626.467	33.06
626.658	32.98
626.849	33.09
627.04	33.06
627.231	33.14
627.422	33.15
627.614	33.04
627.805	33.06
627.996	33.27
628.187	33.42
628.378	33.43
628.569	33.68
628.76	33.83
628.951	33.86
629.142	33.9
629.332	34.04
629.523	34.1
629.714	34.36
629.905	34.53
630.096	34.51
630.287	34.7
630.478	34.73
630.669	34.65
630.859	34.67
631.05	34.61
631.241	34.59
631.432	34.31
631.623	34.41
631.813	34.16
632.004	33.78
632.195	33.81
632.385	33.58
632.576	33.32
632.767	33.18
632.957	32.87
633.148	32.78
633.339	32.62
633.529	32.55
633.72	32.3
633.91	32.29
634.101	32.22
634.292	32
634.482	31.83
634.673	31.91
634.863	31.86
635.054	32.07
635.244	32.12
635.435	31.9
635.625	32.04
635.815	31.98
636.006	31.96
636.196	31.96
636.387	32.08
636.577	32.17
636.767	32.22
636.958	32.04
637.148	31.97
637.338	32.11
637.529	32.15
637.719	32.06
637.909	32.3
638.099	32.11
638.29	32.12
638.48	32.04
638.67	32.03
638.86	31.95
639.05	32.22
639.241	32.16
639.431	31.93
639.621	32
639.811	31.9
640.001	31.67
640.191	31.78
640.381	31.95
640.571	31.97
640.761	31.96
640.951	32.05
641.141	31.94
641.331	32.18
641.521	32.23
641.711	32.3
641.901	32.36
642.091	32.48
642.281	32.76
642.471	32.84
642.661	32.76
642.851	32.79
643.041	32.95
643.231	33.06
643.42	33.13
643.61	33.2
643.8	33.37
643.99	33.4
644.18	33.32
644.369	33.19
644.559	33.18
644.749	33.27
644.939	33.29
645.128	33.16
645.318	33.06
645.508	32.74
645.697	32.63
645.887	32.52
646.076	32.48
646.266	32.59
646.456	32.79
646.645	32.83
646.835	33.03
647.024	33.14
647.214	33.22
647.403	33.22
647.593	33.25
647.782	33.27
647.972	33.25
648.161	33.53
648.351	33.5
648.54	33.21
648.73	33.18
648.919	32.98
649.108	32.88
649.298	32.88
649.487	32.88
649.677	33.11
649.866	33.14
650.055	33.37
650.244	33.23
650.434	33.37
650.623	33.51
650.812	33.46
651.002	33.43
651.191	33.41
651.38	33.4
651.569	33.5
651.758	33.37
651.947	33.55
652.137	33.47
652.326	33.36
652.515	33.49
652.704	33.49
652.893	33.48
653.082	33.54
653.271	33.69
653.46	33.68
653.649	33.64
653.838	33.83
654.027	33.9
654.216	34.03
654.405	34.11
654.594	33.7
654.783	33.77
654.972	33.74
655.161	33.79
655.35	33.85
655.539	33.73
655.728	33.72
655.916	33.54
656.105	33.29
656.294	33.07
656.483	33.01
656.672	33.18
656.86	33.13
657.049	33.21
657.238	32.98
657.427	32.79
657.615	32.89
657.804	32.72
657.993	32.6
658.181	32.57
658.37	32.65
658.559	32.77
658.747	32.66
658.936	32.69
659.125	32.74
659.313	32.84
659.502	32.88
659.69	32.76
659.879	32.86
660.067	32.98
660.256	33.16
660.444	33.16
660.633	33.26
660.821	33.25
661.01	33.32
661.198	32.94
661.387	32.81
661.575	32.77
661.763	32.92
661.952	33.15
662.14	33.15
662.328	33.17
662.517	33.08
662.705	33.2
662.893	33.49
663.082	33.52
663.27	33.82
663.458	33.83
663.646	33.94
663.834	33.98
664.023	33.93
664.211	34.07
664.399	33.92
664.587	34.02
664.775	33.84
664.963	33.82
665.152	34
665.34	34.27
665.528	34.41
665.716	34.6
665.904	34.6
666.092	34.5
666.28	34.52
666.468	34.4
666.656	34.6
666.844	34.41
667.032	34.23
667.22	34.19
667.408	34.09
667.596	34.28
667.784	33.98
667.971	33.93
668.159	33.82
668.347	33.71
668.535	34.07
668.723	33.83
668.911	34.03
669.098	34.33
669.286	34.24
669.474	34.04
669.662	34.1
669.849	34.3
670.037	34.35
670.225	34.41
670.413	34.6
670.6	34.57
670.788	34.8
670.976	34.7
671.163	34.59
671.351	34.47
671.538	34.53
671.726	34.45
671.913	34.37
672.101	34.18
672.289	33.96
672.476	33.81
672.664	33.76
672.851	33.52
673.039	33.48
673.226	33.45
673.413	33.36
673.601	33.4
673.788	33.48
673.976	33.53
674.163	33.39
674.35	33.85
674.538	33.73
674.725	33.69
674.912	33.74
675.1	33.82
675.287	33.84
675.474	34.06
675.662	34.28
675.849	33.88
676.036	33.89
676.223	34.27
676.411	34.15
676.598	34.2
676.785	34.12
676.972	34.3
677.159	34.26
677.346	33.98
677.533	34.02
677.721	33.96
677.908	34.16
678.095	34.14
678.282	34.29
678.469	34.43
678.656	34.41
678.843	34.52
679.03	34.19
679.217	34.19
679.404	34.38
679.591	34.14
679.778	33.87
679.964	33.96
680.151	34.06
680.338	34.03
680.525	33.84
680.712	33.96
680.899	33.86
681.086	33.99
681.272	33.84
681.459	33.94
681.646	34.17
681.833	34.51
682.02	34.48
682.206	34.51
682.393	34.37
682.58	34.56
682.766	34.32
682.953	34.34
683.14	34.32
683.326	34.74
683.513	34.71
683.7	34.79
683.886	34.95
684.073	34.95
684.259	34.98
684.446	35.34
684.632	35.22
684.819	35.12
685.005	35.17
685.192	35.5
685.378	35.42
685.565	35.63
685.751	35.44
685.938	35.14
686.124	35.28
686.31	34.93
686.497	34.75
686.683	34.86
686.87	35.05
687.056	35.22
687.242	34.88
687.429	35.06
687.615	34.74
687.801	34.86
687.987	34.87
688.174	34.59
688.36	34.98
688.546	34.97
688.732	34.89
688.918	35.09
689.105	35.01
689.291	35.16
689.477	34.89
689.663	35.02
689.849	34.54
690.035	34.49
690.221	34.75
690.407	34.8
690.593	34.47
690.779	34.64
690.965	34.57
691.151	34.5
691.337	34.79
691.523	35.11
691.709	35.16
691.895	35.51
692.081	35.88
692.267	35.96
692.453	35.9
692.639	36.21
692.825	36
693.011	36.32
693.196	36.5
693.382	36.36
693.568	35.88
693.754	35.91
693.94	35.98
694.125	35.88
694.311	36.02
694.497	36.06
694.682	36.15
694.868	35.88
695.054	35.51
695.239	35.26
695.425	35.23
695.611	35.4
695.796	35.33
695.982	35.31
696.168	34.97
696.353	34.79
696.539	34.37
696.724	34.26
696.91	34.51
697.095	34.56
697.281	34.55
697.466	34.34
697.652	34.16
697.837	34.12
698.023	34.05
698.208	34.18
698.393	33.9
698.579	34.05
698.764	34
698.949	33.88
699.135	33.92
699.32	33.89
699.505	33.92
699.691	34.16
699.876	33.93
700.061	34
700.246	33.89
700.432	34.01
700.617	33.95
700.802	33.96
700.987	34
701.172	34.1
701.358	34.24
701.543	34.44
701.728	34.34
701.913	34.88
702.098	34.71
702.283	35.14
702.468	35.21
702.653	35.3
702.838	35.32
703.023	35.34
703.208	35.37
703.393	35.33
703.578	35.46
703.763	35.42
703.948	35.55
704.133	36.48
704.318	36.26
704.503	36.66
704.688	36.92
704.873	37.72
705.057	38.5
705.242	38.56
705.427	38.92
705.612	38.98
705.797	39.5
705.981	39.79
706.166	39.44
706.351	39.75
706.536	39.96
706.72	40.19
706.905	40.12
707.09	39.93
707.274	40.28
707.459	40.53
707.644	40.93
707.828	41.09
708.013	41.2
708.197	41.36
708.382	41.85
708.567	41.9
708.751	41.7
708.936	41.29
709.12	41.13
709.305	40.72
709.489	40.26
709.673	40.16
709.858	39.73
710.042	39.64
710.227	39.6
710.411	39.07
710.596	38.94
710.78	38.75
710.964	38.96
711.149	39.35
711.333	39.8
711.517	39.99
711.702	40.03
711.886	40.22
712.07	39.52
712.254	39.25
712.438	39.05
712.623	38.83
712.807	38.89
712.991	38.04
713.175	37.25
713.359	36.7
713.544	36.43
713.728	35.73
713.912	35.36
714.096	35.49
714.28	35.53
714.464	35.56
714.648	35.58
714.832	35.6
715.016	35.96
715.2	36.12
715.384	36.12
715.568	36.42
715.752	36.45
715.936	36.39
716.12	36.46
716.304	36.51
716.488	36.58
716.671	36.16
716.855	36.52
717.039	36.67
717.223	36.53
717.407	36.48
717.59	36.27
717.774	36.39
717.958	36.38
718.142	36.59
718.325	36.45
718.509	36.47
718.693	37.15
718.877	36.62
719.06	36.75
719.244	36.92
719.428	36.8
719.611	36.63
719.795	36.94
719.978	37.27
720.162	36.9
720.345	37.24
720.529	37.28
720.713	37.02
720.896	37.26
721.08	37.1
721.263	37.27
721.446	37.42
721.63	37.74
721.813	37.76
721.997	37.79
722.18	37.66
722.364	37.43
722.547	37.38
722.73	37.61
722.914	37.35
723.097	37.55
723.28	37.78
723.464	37.98
723.647	38.17
723.83	38.3
724.013	38.28
724.197	38.7
724.38	38.58
724.563	38.57
724.746	38.29
724.929	37.96
725.112	37.55
725.296	37.08
725.479	37.08
725.662	37.18
725.845	37.11
726.028	37.08
726.211	36.81
726.394	37
726.577	36.92
726.76	37.11
726.943	37.62
727.126	38.14
727.309	38.71
727.492	38.61
727.675	38.19
727.858	38.05
728.041	37.93
728.224	37.85
728.407	37.16
728.589	37.48
728.772	37.3
728.955	36.99
729.138	37.08
729.321	36.53
729.503	36.59
729.686	36.88
729.869	36.84
730.052	37.08
730.234	37.13
730.417	37.43
730.6	37.11
730.782	37.35
730.965	37.36
731.148	37.1
731.33	37.19
731.513	37.11
731.695	37.08
731.878	36.83
732.061	36.41
732.243	36.68
732.426	36.74
732.608	36.72
732.791	36.4
732.973	36.6
733.156	36.34
733.338	36.32
733.52	36.53
733.703	36.06
733.885	36.1
734.068	36.38
734.25	36.07
734.432	36.63
734.615	36.71
734.797	36.97
734.979	37.12
735.162	37.32
735.344	37.51
735.526	37.42
735.708	38.3
735.891	38.57
736.073	38.31
736.255	38.52
736.437	37.83
736.619	38.22
736.802	38.54
736.984	38.79
737.166	39.09
737.348	39.04
737.53	39
737.712	38.07
737.894	37.95
738.076	38.63
738.258	38.75
738.44	38.63
738.622	38.19
738.804	38.05
738.986	38.35
739.168	38.26
739.35	38.06
739.532	38.16
739.714	38.35
739.896	38.37
740.078	37.75
740.259	37.84
740.441	38.56
740.623	39.01
740.805	38.78
740.987	38.3
741.168	38.35
741.35	39
741.532	39.06
741.714	39.45
741.895	39.57
742.077	40.17
742.259	40.08
742.44	39.88
742.622	39.84
742.804	39.79
742.985	39.73
743.167	38.89
743.348	39
743.53	38.76
743.711	38.43
743.893	38.02
744.075	37.13
744.256	37.29
744.438	37.34
744.619	36.85
744.8	37.12
744.982	37.04
745.163	37.9
745.345	37.49
745.526	38.3
745.707	38.17
745.889	38.19
746.07	38.99
746.252	39
746.433	38.42
746.614	38.84
746.795	38.21
746.977	38.25
747.158	38.41
747.339	38.18
747.52	38.19
747.702	38.86
747.883	39.35
748.064	39.2
748.245	38.82
748.426	38.67
748.607	38.61
748.788	38.76
748.97	38.45
749.151	38.42
749.332	38.71
749.513	38.19
749.694	37.73
749.875	38.45
750.056	38.27
750.237	38.86
750.418	39.54
750.599	39.66
750.78	40.16
750.96	40.57
751.141	40.39
751.322	39.88
751.503	40.07
751.684	40.81
751.865	40.04
752.046	40.38
752.226	39.99
752.407	40.73
752.588	41.13
752.769	40.82
752.949	40.65
753.13	40.55
753.311	40.74
753.492	40.55
753.672	39.87
753.853	40.18
754.034	39.96
754.214	40.71
754.395	40.37
754.575	39.78
754.756	40.3
754.937	40.2
755.117	40.07
755.298	40.62
755.478	40.8
755.659	41.3
755.839	40.89
756.02	40.69
756.2	40.01
756.381	39.83
756.561	39.92
756.741	39.91
756.922	40.96
757.102	41.07
757.283	40.82
757.463	40.54
757.643	40.27
757.823	40.23
758.004	39.9
758.184	39.62
758.364	40.01
758.545	40.03
758.725	39.75
758.905	38.88
759.085	39.27
759.265	38.92
759.446	38.76
759.626	38.6
759.806	39.31
759.986	39.62
760.166	39.58
760.346	39.34
760.526	39.37
760.706	39.84
760.886	39.97
761.066	39.37
761.246	39.63
761.426	39.93
761.606	39.49
761.786	38.66
761.966	38.93
762.146	38.69
762.326	38.39
762.506	38.04
762.686	37.55
762.866	37.53
763.046	37.73
763.225	37.79
763.405	37.54
763.585	37.74
763.765	37.75
763.945	37.62
764.124	37.66
764.304	37.6
764.484	38.07
764.664	38.45
764.843	38.31
765.023	38.29
765.203	38.16
765.382	38.14
765.562	38.5
765.741	38.87
765.921	39.67
766.101	40.33
766.28	40.77
766.46	40.5
766.639	40.7
766.819	40.88
766.998	40.59
767.178	40.62
767.357	40.99
767.537	40.77
767.716	41.06
767.896	40.06
768.075	39.3
768.254	39.04
768.434	39.37
768.613	38.65
768.792	39.16
768.972	39.66
769.151	39.63
769.33	39.08
769.51	39.46
769.689	39.22
769.868	39.64
770.047	40.27
770.226	40.62
770.406	40.02
770.585	39.95
770.764	39.63
770.943	39.99
771.122	39.81
771.301	40.43
771.48	39.81
771.66	39.91
771.839	40.31
772.018	39.85
772.197	38.87
772.376	39.57
772.555	40.15
772.734	39.83
772.913	39.62
773.092	40.02
773.271	39.79
773.449	40.38
773.628	40.18
773.807	39.57
773.986	40.2
774.165	39.91
774.344	40.08
774.523	39.61
774.701	40.31
774.88	39.72
775.059	40.39
775.238	39.78
775.417	39.1
775.595	39.47
775.774	39.08
775.953	38.78
776.131	40.4
776.31	39.92
776.489	39.88
776.667	40.17
776.846	40.75
777.025	40.03
777.203	40.38
777.382	41.02
777.56	40.14
777.739	40.25
777.917	41.08
778.096	40.11
778.274	40.54
778.453	41.49
778.631	40.81
778.81	39.91
778.988	40.11
779.166	40.38
779.345	39.76
779.523	40.41
779.702	41.3
779.88	40.55
780.058	40.47
780.237	40.56
780.415	39.94
780.593	40.69
780.771	42.27
780.95	43.43
781.128	43.9
781.306	45.53
781.484	45.68
781.662	45.58
781.841	46.15
782.019	46.68
782.197	45.84
782.375	45.01
782.553	43.68
782.731	42.97
782.909	41.7
783.087	41.68
783.265	40.33
783.443	40.36
783.621	40.8
783.799	40.69
783.977	40.49
784.155	40.59
784.333	41.96
784.511	43.23
784.689	42.9
784.867	43.54
785.045	43.31
785.223	43.59
785.4	43.22
785.578	42.69
785.756	42.98
785.934	43.73
786.112	43.53
786.289	43.31
786.467	43.02
786.645	43.49
786.823	43.45
787	44.11
787.178	44.56
787.356	44.8
787.533	45.2
787.711	45.09
787.889	44.86
788.066	45.73
788.244	45.51
788.421	45.43
788.599	46.3
788.776	45.78
788.954	44.97
789.131	44.81
789.309	44.18
789.486	44.19
789.664	43.55
789.841	44.03
790.019	43.29
790.196	43.09
790.373	43.05
790.551	41.94
790.728	41
790.906	42.38
791.083	42.03
791.26	42.7
791.437	42.65
791.615	44.03
791.792	43.44
791.969	43.99
792.146	44.03
792.324	44.46
792.501	43.52
792.678	45.29
792.855	44.55
793.032	45.79
793.209	46.32
793.387	45.44
793.564	44.66
793.741	44.22
793.918	45.06
794.095	44.37
794.272	43.39
794.449	44.78
794.626	43.89
794.803	44.29
794.98	43.75
795.157	44.37
795.334	43.76
795.511	43.43
795.688	43.49
795.864	42.13
796.041	43.92
796.218	43.77
796.395	42.38
796.572	41.93
796.749	41.62
796.925	40.84
797.102	39.81
797.279	40.69
797.456	40.52
797.632	40.36
797.809	40.87
797.986	39.95
798.162	41.04
798.339	41.63
798.516	43.35
798.692	43.43
798.869	43.88
799.046	44.39
799.222	43.75
799.399	44.17
799.575	44.33
799.752	44.08
799.928	43.57
800.105	43.34
800.281	43.66
800.458	43.06
800.634	42.19
800.811	42.2
800.987	42.24
801.163	44.39
801.34	44.05
801.516	43.04
801.692	43.51
801.869	43.37
802.045	43.49
802.221	43.98
802.398	42.79
802.574	44.04
802.75	44.59
802.926	43.85
803.103	43.06
803.279	43.33
803.455	44.1
803.631	44.59
803.807	45.18
803.983	46.19
804.16	46.06
804.336	46.58
804.512	46.65
804.688	46.37
804.864	47
805.04	46.45
805.216	46.62
805.392	48.15
805.568	48.39
805.744	49.37
805.92	47.67
806.096	47.9
806.272	48.63
806.448	47.51
806.623	46.08
806.799	46.19
806.975	46.22
807.151	45.81
807.327	45.28
807.503	45.07
807.678	44.29
807.854	44.95
808.03	45.47
808.206	45.2
808.381	45.59
808.557	46.77
808.733	46.23
808.908	46.85
809.084	47.14
809.26	47.34
809.435	46.22
809.611	46.05
809.787	45.96
809.962	46.84
810.138	46.39
810.313	46.58
810.489	45.9
810.664	45.74
810.84	44.65
811.015	45.3
811.191	44.06
811.366	44.87
811.542	45.86
811.717	46.89
811.892	45.51
812.068	45.86
812.243	44.69
812.419	46.59
812.594	46.38
812.769	46.47
812.944	45.95
813.12	47.22
813.295	46.93
813.47	47.47
813.645	46.16
813.821	45.96
813.996	47.3
814.171	47.48
814.346	46.48
814.521	46.8
814.697	48.17
814.872	48.33
815.047	46.92
815.222	48.07
815.397	47.21
815.572	46.94
815.747	46.7
815.922	44.97
816.097	46.35
816.272	46.03
816.447	47.25
816.622	45.75
816.797	44.93
816.972	44.98
817.147	44.72
817.322	43.73
817.496	45.67
817.671	46.29
817.846	46.78
818.021	45.52
818.196	45.03
818.371	44.21
818.545	45.87
818.72	46.27
818.895	46.89
819.069	45.86
819.244	45.84
819.419	45.1
819.594	44.23
819.768	43.7
819.943	43.57
820.117	42.53
820.292	40.94
820.467	39.75
820.641	38.92
820.816	37.63
820.99	36.96
821.165	36.05
821.339	35.02
821.514	34.39
821.688	33.87
821.863	33.62
822.037	33.34
822.212	33.35
822.386	32.94
822.56	32.66
822.735	32.73
822.909	32.7
823.084	32.82
823.258	32.76
823.432	32.89
823.606	33
823.781	33.03
823.955	33.1
824.129	33.17
824.303	33.46
824.478	33.67
824.652	33.83
824.826	33.75
825	33.82
825.174	33.95
825.348	34.11
825.523	34.09
825.697	33.87
825.871	34.13
826.045	34.22
826.219	34.16
826.393	34.24
826.567	33.98
826.741	34.12
826.915	34.21
827.089	34.44
827.263	34.57
827.437	35.12
827.611	35.51
827.784	35.51
827.958	35.67
828.132	35.57
828.306	35.71
828.48	36.07
828.654	36.84
828.827	37.33
829.001	37.58
829.175	37.98
829.349	37.6
829.522	37.66
829.696	38.44
829.87	39.01
830.044	39.55
830.217	40.36
830.391	40.85
830.565	40.66
830.738	40.24
830.912	40.51
831.085	41.74
831.259	42.92
831.432	43.52
831.606	45.01
831.779	44.22
831.953	44.93
832.126	43.62
832.3	42.88
832.473	41.7
832.647	42.38
832.82	41.49
832.994	40.02
833.167	39.41
833.34	39.1
833.514	38.19
833.687	38.22
833.86	38.26
834.034	38.19
834.207	38.65
834.38	38.45
834.553	38.21
834.727	38.95
834.9	38.83
835.073	39.66
835.246	39.99
835.419	40.02
835.593	40.63
835.766	40.49
835.939	41.5
836.112	41.19
836.285	42.15
836.458	41.67
836.631	41.66
836.804	42.67
836.977	41.77
837.15	42.16
837.323	42.83
837.496	43.43
837.669	43.24
837.842	43.64
838.015	44.88
838.188	46.1
838.361	46.95
838.533	47.77
838.706	46.94
838.879	45.96
839.052	45.12
839.225	45.27
839.398	45.18
839.57	46.06
839.743	46.69
839.916	48.16
840.088	46.91
840.261	48.04
840.434	47.21
840.607	48.13
840.779	48.89
840.952	47.76
841.124	47.94
841.297	47.1
841.47	47.14
841.642	47.06
841.815	45.14
841.987	46.83
842.16	47.68
842.332	48.19
842.505	48.47
842.677	50.07
842.85	53.04
843.022	53.65
843.194	56.38
843.367	58.25
843.539	58.36
843.712	61.39
843.884	60.9
844.056	61.21
844.229	64.46
844.401	65.78
844.573	64.93
844.745	64.77
844.918	62.95
845.09	61.55
845.262	61.29
845.434	60.95
845.606	58.27
845.779	57.41
845.951	58.56
846.123	56.41
846.295	56.3
846.467	58.35
846.639	58.14
846.811	59.81
846.983	58.99
847.155	55.13
847.327	53.78
847.499	55.25
847.671	57.65
847.843	57.74
848.015	56.75
848.187	54.27
848.359	55.14
848.531	57.61
848.703	58.93
848.875	63.23
849.047	65.92
849.218	71.16
849.39	72.82
849.562	71.47
849.734	68.66
849.905	72.05
850.077	74.51
850.249	72.79
850.421	69.57
850.592	67.34
850.764	64.33
850.936	64.45
851.107	62.56
851.279	62.65
851.451	63.01
851.622	63.72
851.794	62.73
851.965	65.24
852.137	64.34
852.308	66.33
852.48	67.94
852.651	66.57
852.823	65.77
852.994	65.44
853.166	66.74
853.337	66.81
853.509	68.18
853.68	69.73
853.851	66.32
854.023	67.21
854.194	65.02
854.365	64.73
854.537	66.14
854.708	67.31
854.879	65.5
855.05	63.91
855.222	64.41
855.393	65.3
855.564	64.7
855.735	63.95
855.906	60.35
856.078	58.03
856.249	59.25
856.42	60.64
856.591	63.35
856.762	65.65
856.933	63.28
857.104	62.63
857.275	59.37
857.446	57.38
857.617	61.62
857.788	64.44
857.959	68.03
858.13	65.81
858.301	65.42
858.472	61.28
858.643	60.8
858.814	61.64
858.985	62.12
859.155	62.96
859.326	64.62
859.497	63.38
859.668	62.74
859.839	63.84
860.009	65.54
860.18	65.57
860.351	68
860.522	67.02
860.692	68.91
860.863	65.15
861.034	69.77
861.204	68.06
861.375	70.6
861.546	72.63
861.716	68.48
861.887	66.99
862.057	67.23
862.228	71.44
862.398	71.59
862.569	71.78
862.739	77.02
862.91	71.2
863.08	72.4
863.251	67.72
863.421	66.84
863.592	68.32
863.762	71.14
863.932	68.7
864.103	65.26
864.273	65.64
864.443	63.11
864.614	60.81
864.784	63.84
864.954	62.01
865.125	65.68
865.295	67.59
865.465	68.13
865.635	66.43
865.805	67.43
865.976	68.67
866.146	68.56
866.316	70.08
866.486	71
866.656	70.58
866.826	74.4
866.996	71.03
867.166	69.51
867.336	69.84
867.506	71.75
867.676	72.18
867.846	72.77
868.016	72.21
868.186	70.37
868.356	73.92
868.526	71.5
868.696	70.06
868.866	71.44
869.036	73.63
869.206	74.1
869.376	73.53
869.545	73.71
869.715	73.36
869.885	70.65
870.055	75.07
870.224	73.47
870.394	74.28
870.564	73.37
870.734	75.11
870.903	74.07
871.073	71.23
871.243	70.09
871.412	72.25
871.582	70.34
871.751	74.17
871.921	73.12
872.091	74.01
872.26	74.93
872.43	72.53
872.599	72.01
872.769	70.77
872.938	72.8
873.108	73.79
873.277	73.85
873.446	75.01
873.616	73.15
873.785	71.71
873.955	68.78
874.124	67.04
874.293	70.69
874.463	71.18
874.632	70.55
874.801	69.44
874.971	67.55
875.14	63.92
875.309	63.08
875.478	60.56
875.647	60.62
875.817	62.96
875.986	62.38
876.155	60.57
876.324	58.24
876.493	59.13
876.662	61.62
876.831	59.76
877	63.63
877.17	65
877.339	70.94
877.508	74.04
877.677	72.37
877.846	74.63
878.015	75.86
878.184	74.97
878.352	73.01
878.521	72.11
878.69	75.29
878.859	74.88
879.028	71.31
879.197	66.66
879.366	59.87
879.534	57.14
879.703	55.28
879.872	51.47
880.041	50.5
880.21	49.37
880.378	46.42
880.547	43.1
880.716	39.34
880.884	38.96
881.053	39.04
881.222	39.53
881.39	39.5
881.559	38.31
881.727	37.54
881.896	36.74
882.065	36.36
882.233	35.49
882.402	35.88
882.57	36.37
882.739	35.62
882.907	35.08
883.076	34.34
883.244	34.09
883.412	34.09
883.581	34.82
883.749	35.19
883.918	35.57
884.086	36.57
884.254	35.86
884.423	36.69
884.591	37.61
884.759	39.31
884.927	40.1
885.096	40.67
885.264	42.3
885.432	42.83
885.6	43.28
885.769	43.32
885.937	45.93
886.105	50.02
886.273	52.44
886.441	54.25
886.609	55.07
886.777	57.3
886.945	56.66
887.113	56.3
887.281	59.27
887.449	60.71
887.617	61.51
887.785	60.69
887.953	60.35
888.121	55.17
888.289	57.89
888.457	56.73
888.625	56.25
888.793	59.64
888.961	59.26
889.129	58.43
889.296	61.06
889.464	61.84
889.632	60.84
889.8	60.83
889.967	66.18
890.135	64.52
