Data from 2938794__Reflection_03.txt Node
Date: Fri Mar 13 10:51:40 EDT 2015
User: robert
Spectrometer: USB4E03002
Autoset integration time: false
Trigger mode: 4
Integration Time (sec): 1.000000E-1
Scans to average: 10
Electric dark correction enabled: false
Nonlinearity correction enabled: false
Boxcar width: 5
Stray light correction enabled: false
XAxis mode: Wavelengths
Stop averaging: false
Number of Pixels in Spectrum: 3648
>>>>>Begin Spectral Data<<<<<
177.575	31.67
177.794	200
178.014	-20
178.233	0.55
178.452	19.81
178.672	43.81
178.891	60
179.11	54.81
179.33	32.12
179.549	13.73
179.768	29.49
179.987	20.96
180.207	10.11
180.426	3.68
180.645	-73.08
180.864	-141.46
181.084	34.33
181.303	59.55
181.522	12.43
181.741	-248.65
181.96	-93.75
182.179	-16.06
182.398	-14.68
182.618	-9.95
182.837	-16.04
183.056	-16.6
183.275	-6.07
183.494	8.15
183.713	11.43
183.932	10.39
184.151	21.77
184.37	2.53
184.589	-1.28
184.808	7.92
185.027	-39.51
185.246	-39.24
185.465	-110.26
185.684	-16.95
185.903	-79.31
186.122	-18.44
186.341	54.9
186.56	11.21
186.779	32.53
186.998	51.15
187.216	4.69
187.435	-36.29
187.654	-26.29
187.873	-7.39
188.092	82.61
188.311	1253.85
188.53	-18.52
188.748	115.62
188.967	11.79
189.186	-82.56
189.405	-10.54
189.623	-108.82
189.842	572.34
190.061	213.85
190.28	348.91
190.498	-240
190.717	-151.38
190.936	-109.26
191.154	-44.2
191.373	-214.77
191.592	-67.44
191.81	-35.24
192.029	44.8
192.248	71.49
192.466	211.27
192.685	1964.29
192.904	180.62
193.122	901.82
193.341	-120
193.559	-47.56
193.778	-57.73
193.996	-25.19
194.215	-17.89
194.433	32.44
194.652	37.57
194.87	10.43
195.089	22.7
195.307	37.3
195.526	50.14
195.744	45.78
195.963	43.48
196.181	27.63
196.399	18.66
196.618	21.82
196.836	10.21
197.055	1.9
197.273	-6.54
197.491	-17.76
197.71	-25.54
197.928	-38.24
198.146	-29.26
198.365	-687.5
198.583	464.15
198.801	66.67
199.019	-21.87
199.238	114
199.456	18.79
199.674	78.62
199.892	53.07
200.111	24.46
200.329	-58.65
200.547	-45.94
200.765	-5.69
200.983	29.22
201.202	-18.56
201.42	-75.66
201.638	-74.09
201.856	-87.24
202.074	-195.54
202.292	490.32
202.51	-731.25
202.728	-210.34
202.946	136.36
203.165	96.25
203.383	-121.15
203.601	97.78
203.819	158.18
204.037	47.48
204.255	-0.4
204.473	25.81
204.691	25
204.909	-8.15
205.127	3.99
205.345	3.41
205.562	-26.13
205.78	-68.83
205.998	-135.74
206.216	-59.41
206.434	-94.68
206.652	-47.17
206.87	-59.76
207.088	-75
207.306	-34.54
207.523	25.73
207.741	4.65
207.959	10.38
208.177	-6.75
208.395	-12.53
208.612	-9.62
208.83	4.05
209.048	32.81
209.266	-10.89
209.483	21.75
209.701	-33.33
209.919	-194.55
210.136	-132.29
210.354	-67.04
210.572	-11.64
210.79	2.49
211.007	-3.17
211.225	-25.96
211.442	-45.82
211.66	17.31
211.878	34.62
212.095	-105.74
212.313	-431.91
212.53	-393.33
212.748	-248.78
212.966	-364.1
213.183	-262.65
213.401	-373.21
213.618	972.73
213.836	-3417.65
214.053	-2296.77
214.271	3030.77
214.488	71.78
214.705	79.05
214.923	50.66
215.14	44.73
215.358	53.94
215.575	55.58
215.793	51.06
216.01	64.39
216.227	20.53
216.445	-1.26
216.662	-56.69
216.879	-67.79
217.097	-68.36
217.314	-66.89
217.531	-37.07
217.749	-37.07
217.966	-18.51
218.183	-10.79
218.4	-12.15
218.618	-15.93
218.835	-33.62
219.052	-27.65
219.269	-25.09
219.487	-21.83
219.704	-9.28
219.921	-3.6
220.138	-1.38
220.355	-13.76
220.572	-11.77
220.79	-11.85
221.007	2.57
221.224	0.27
221.441	-2.26
221.658	0.15
221.875	-9.36
222.092	-17.96
222.309	-22.77
222.526	-20.33
222.743	-16.65
222.96	-15.01
223.177	-11.9
223.394	-17.34
223.611	-8.54
223.828	-2.83
224.045	-3.75
224.262	0.04
224.479	4.55
224.696	7.34
224.913	8.2
225.13	10.7
225.347	8.08
225.564	9.13
225.781	9.85
225.997	9.11
226.214	5.73
226.431	5.91
226.648	4.73
226.865	3.85
227.082	3.91
227.298	3.54
227.515	2.12
227.732	3.14
227.949	3.86
228.165	4
228.382	3.99
228.599	4.82
228.816	4.81
229.032	4.99
229.249	4.69
229.466	4.22
229.682	4.5
229.899	5.48
230.116	4.24
230.332	3.76
230.549	3.15
230.765	3.45
230.982	2.65
231.199	2.05
231.415	2.83
231.632	3.82
231.848	4.62
232.065	4.52
232.281	3.36
232.498	3.79
232.714	2.5
232.931	2.68
233.147	2.51
233.364	3.21
233.58	4
233.797	2.12
234.013	2.26
234.23	2.6
234.446	2.44
234.662	1.68
234.879	2.2
235.095	2.75
235.312	2.85
235.528	3.03
235.744	2.46
235.961	0.57
236.177	1.13
236.393	0.07
236.61	1.4
236.826	-0.19
237.042	1.48
237.258	2.05
237.475	2.46
237.691	2.79
237.907	2.2
238.123	2.59
238.339	3.81
238.556	4.66
238.772	6.09
238.988	3.64
239.204	5.1
239.42	3.6
239.636	4.2
239.853	5.18
240.069	4.78
240.285	5.36
240.501	4.39
240.717	5.36
240.933	5.21
241.149	4.6
241.365	4.53
241.581	4.98
241.797	5.24
242.013	5.16
242.229	5.25
242.445	5.48
242.661	5.03
242.877	5.55
243.093	5.34
243.309	5.14
243.525	4.91
243.741	4.92
243.957	4.2
244.173	4.77
244.388	4.58
244.604	4.37
244.82	4.63
245.036	4.9
245.252	4.61
245.468	4.13
245.683	5.24
245.899	5.17
246.115	5.64
246.331	5.7
246.547	5.81
246.762	5.51
246.978	5.23
247.194	5.12
247.409	4.78
247.625	5.07
247.841	4.92
248.057	4.47
248.272	4.63
248.488	3.97
248.703	3.78
248.919	3.15
249.135	3.07
249.35	3.4
249.566	3.2
249.782	3.54
249.997	2.7
250.213	2.91
250.428	3.09
250.644	3.27
250.859	3.78
251.075	4.3
251.29	4.86
251.506	4.84
251.721	4.09
251.937	3.64
252.152	3.23
252.368	3.59
252.583	3.23
252.798	2.88
253.014	2.73
253.229	2.79
253.445	2.24
253.66	1.64
253.875	1.79
254.091	2.49
254.306	2.3
254.521	3.77
254.737	4.39
254.952	4.56
255.167	4.51
255.383	4.15
255.598	4
255.813	3.83
256.028	3.61
256.244	3.01
256.459	2.86
256.674	3.42
256.889	2.53
257.104	2.22
257.32	2.6
257.535	2.62
257.75	2.55
257.965	2.88
258.18	3.05
258.395	3.45
258.61	3.6
258.826	3.37
259.041	3.73
259.256	3.68
259.471	3.66
259.686	3.77
259.901	3.76
260.116	3.76
260.331	3.7
260.546	3.8
260.761	3.58
260.976	3.54
261.191	3.28
261.406	2.65
261.621	2.69
261.836	2.23
262.05	2.17
262.265	1.78
262.48	1.71
262.695	1.77
262.91	1.69
263.125	1.79
263.34	1.37
263.555	1.51
263.769	2.38
263.984	2.02
264.199	2.33
264.414	1.89
264.629	1.88
264.843	2.16
265.058	1.73
265.273	1.33
265.488	1.09
265.702	1.51
265.917	2.02
266.132	1.89
266.346	2.36
266.561	2.43
266.776	2.82
266.99	3.06
267.205	2.67
267.42	2.96
267.634	2.87
267.849	3.17
268.063	3.74
268.278	3.53
268.492	3.28
268.707	2.72
268.922	2.34
269.136	2.16
269.351	1.84
269.565	2.05
269.78	1.87
269.994	1.83
270.209	1.83
270.423	1.11
270.637	0.98
270.852	1.5
271.066	1.9
271.281	2.43
271.495	2.52
271.709	2.84
271.924	2.84
272.138	2.71
272.353	2.76
272.567	2.95
272.781	3.44
272.996	3.44
273.21	3.24
273.424	3.3
273.638	2.85
273.853	2.63
274.067	2.24
274.281	2.35
274.495	2.56
274.71	2.94
274.924	2.76
275.138	2.7
275.352	2.86
275.566	3.01
275.781	2.92
275.995	3.47
276.209	3.19
276.423	3.33
276.637	3.37
276.851	3.66
277.065	3.58
277.279	3.7
277.493	3.39
277.707	3.19
277.921	2.98
278.135	2.61
278.349	2.11
278.563	2.43
278.777	2.45
278.991	2.19
279.205	1.83
279.419	1.55
279.633	0.95
279.847	1.41
280.061	2.02
280.275	1.69
280.489	2.08
280.703	2.3
280.917	2.12
281.131	2.19
281.344	2.2
281.558	2.45
281.772	2.98
281.986	3.49
282.2	3.47
282.414	3.32
282.627	3.31
282.841	3.23
283.055	3.56
283.269	4.03
283.482	3.74
283.696	3.73
283.91	3.82
284.123	3.15
284.337	2.85
284.551	2.64
284.764	2.33
284.978	2.2
285.192	2.35
285.405	2.4
285.619	2.09
285.833	2.37
286.046	2.39
286.26	2.23
286.473	2.6
286.687	2.72
286.9	2.67
287.114	2.7
287.327	2.9
287.541	2.94
287.754	2.88
287.968	3.21
288.181	3.45
288.395	3.59
288.608	3.66
288.822	3.57
289.035	3.4
289.248	3.51
289.462	3.32
289.675	3.41
289.889	3.29
290.102	2.99
290.315	2.88
290.529	2.77
290.742	2.49
290.955	2.62
291.169	2.73
291.382	2.88
291.595	2.67
291.808	3.12
292.022	3.35
292.235	3.29
292.448	3.34
292.661	3.3
292.875	3.11
293.088	3.29
293.301	2.91
293.514	2.88
293.727	2.86
293.94	3.3
294.153	3.03
294.367	2.86
294.58	2.97
294.793	3.18
295.006	2.97
295.219	2.92
295.432	3.11
295.645	3.23
295.858	3.33
296.071	3.45
296.284	3.42
296.497	3.5
296.71	3.54
296.923	3.77
297.136	3.9
297.349	4.18
297.562	4.43
297.775	4.39
297.988	4.52
298.201	4.39
298.414	4.35
298.626	4.22
298.839	3.98
299.052	3.89
299.265	3.9
299.478	3.73
299.691	3.89
299.903	4.08
300.116	4.31
300.329	4.26
300.542	4.27
300.755	4.33
300.967	4.66
301.18	5.13
301.393	5.41
301.605	5.34
301.818	5.56
302.031	5.41
302.243	4.98
302.456	4.92
302.669	5.26
302.881	5.3
303.094	5.44
303.307	5.12
303.519	4.98
303.732	5.13
303.944	4.76
304.157	4.76
304.37	4.58
304.582	4.74
304.795	4.81
305.007	4.47
305.22	4.72
305.432	4.68
305.645	4.73
305.857	5.09
306.069	4.99
306.282	4.95
306.494	4.93
306.707	5.12
306.919	5.22
307.132	5.18
307.344	5.4
307.556	5.34
307.769	5.53
307.981	5.67
308.193	5.52
308.406	5.48
308.618	5.57
308.83	5.67
309.043	5.5
309.255	5.35
309.467	5.29
309.679	5.12
309.892	5.18
310.104	4.78
310.316	4.85
310.528	4.93
310.74	5.06
310.953	4.99
311.165	5.01
311.377	5.3
311.589	5.75
311.801	5.76
312.013	5.82
312.225	5.47
312.437	5.42
312.649	5.3
312.862	5.3
313.074	5.2
313.286	5.38
313.498	5.66
313.71	5.3
313.922	4.81
314.134	5.02
314.346	4.93
314.558	5.48
314.77	5.86
314.982	6.05
315.193	5.98
315.405	5.92
315.617	6
315.829	5.73
316.041	6.28
316.253	6.39
316.465	6.31
316.677	6.38
316.888	6.11
317.1	6.21
317.312	6.1
317.524	6.48
317.736	6.4
317.947	6.78
318.159	6.34
318.371	6.06
318.583	5.92
318.794	6.02
319.006	6.17
319.218	6.09
319.43	6.14
319.641	6.31
319.853	5.84
320.064	6.18
320.276	5.78
320.488	6.3
320.699	6.02
320.911	6.48
321.123	6.08
321.334	5.47
321.546	5.74
321.757	6.34
321.969	6.43
322.18	6.74
322.392	6.58
322.603	6.76
322.815	6.16
323.026	6.55
323.238	5.96
323.449	5.96
323.661	6.47
323.872	6.4
324.083	5.67
324.295	5.53
324.506	5.38
324.718	5.03
324.929	5.21
325.14	5.62
325.352	5.51
325.563	6.27
325.774	6.53
325.986	6.62
326.197	6.89
326.408	7.26
326.62	7.51
326.831	7.43
327.042	7.82
327.253	7.89
327.464	8.08
327.676	7.92
327.887	7.75
328.098	7.84
328.309	7.65
328.52	7.34
328.732	7.04
328.943	7.05
329.154	7.32
329.365	7.37
329.576	7.22
329.787	7.02
329.998	7.79
330.209	7.55
330.42	7.22
330.631	7.28
330.842	7.32
331.053	7.72
331.264	7.47
331.475	7.47
331.686	7.62
331.897	7.54
332.108	7.77
332.319	7.31
332.53	7.21
332.741	7.74
332.952	8.12
333.163	8.09
333.374	8.03
333.585	8.2
333.795	8.28
334.006	7.96
334.217	7.7
334.428	7.49
334.639	7.51
334.849	7.51
335.06	7.63
335.271	7.39
335.482	7.9
335.692	7.79
335.903	7.78
336.114	7.4
336.325	7.6
336.535	7.87
336.746	7.68
336.957	7.78
337.167	8.02
337.378	7.72
337.589	7.98
337.799	7.54
338.01	7.5
338.22	7.5
338.431	7.4
338.642	7.37
338.852	7.33
339.063	7.54
339.273	7.43
339.484	7.37
339.694	7.01
339.905	7.05
340.115	7.14
340.326	7.23
340.536	7.27
340.746	7.37
340.957	7.44
341.167	7.63
341.378	7.8
341.588	7.69
341.799	7.83
342.009	7.93
342.219	7.66
342.43	7.73
342.64	7.79
342.85	7.59
343.061	7.72
343.271	7.71
343.481	7.66
343.691	7.33
343.902	7.32
344.112	7.2
344.322	7.12
344.532	7.36
344.743	7.06
344.953	6.85
345.163	7
345.373	6.66
345.583	6.71
345.793	6.73
346.004	6.96
346.214	7.21
346.424	7.27
346.634	7.56
346.844	7.18
347.054	7.57
347.264	7.5
347.474	7.06
347.684	7.21
347.894	7.08
348.104	6.86
348.314	6.61
348.524	6.44
348.734	6.45
348.944	6.4
349.154	6.59
349.364	6.67
349.574	6.75
349.784	7.17
349.994	7.29
350.204	7.47
350.413	7.53
350.623	7.42
350.833	7.39
351.043	7.23
351.253	7.3
351.463	7.04
351.672	6.97
351.882	6.87
352.092	6.7
352.302	6.73
352.511	6.78
352.721	6.97
352.931	7.19
353.141	7.26
353.35	7.3
353.56	7.23
353.77	7.56
353.979	7.45
354.189	7.54
354.399	7.58
354.608	7.61
354.818	7.21
355.027	6.89
355.237	6.97
355.447	7.1
355.656	6.99
355.866	6.96
356.075	6.96
356.285	6.96
356.494	6.86
356.704	6.82
356.913	6.8
357.123	6.98
357.332	7.17
357.542	7.17
357.751	6.97
357.96	7.37
358.17	7.29
358.379	7.03
358.589	7.11
358.798	7.51
359.007	7.65
359.217	7.81
359.426	7.71
359.635	7.62
359.845	7.6
360.054	7.52
360.263	7.2
360.472	7.31
360.682	7.32
360.891	7.29
361.1	7.04
361.309	6.92
361.519	6.91
361.728	6.89
361.937	6.9
362.146	6.83
362.355	6.94
362.564	7.2
362.774	7.1
362.983	7.16
363.192	7.21
363.401	7.26
363.61	7.31
363.819	7.37
364.028	7.4
364.237	7.5
364.446	7.43
364.655	7.28
364.864	6.8
365.073	6.9
365.282	6.72
365.491	6.56
365.7	6.31
365.909	6.14
366.118	6.09
366.327	6.16
366.536	6.01
366.745	6.06
366.954	6.12
367.162	6.37
367.371	6.19
367.58	6.54
367.789	6.31
367.998	6.43
368.207	6.28
368.415	6.04
368.624	6.21
368.833	6
369.042	6.09
369.25	6.08
369.459	6.04
369.668	6.15
369.877	5.75
370.085	5.87
370.294	5.92
370.503	6.23
370.711	6.28
370.92	5.88
371.129	6.1
371.337	5.93
371.546	5.96
371.754	5.99
371.963	5.99
372.171	6.08
372.38	6.34
372.589	6.24
372.797	6.11
373.006	6.11
373.214	6.2
373.423	5.86
373.631	5.89
373.84	5.79
374.048	5.58
374.256	5.38
374.465	5.42
374.673	5.22
374.882	5.38
375.09	5.6
375.298	5.45
375.507	5.48
375.715	5.65
375.923	5.59
376.132	5.74
376.34	5.69
376.548	5.67
376.757	5.55
376.965	5.55
377.173	5.43
377.381	5.17
377.59	5.59
377.798	5.64
378.006	5.63
378.214	5.5
378.423	5.41
378.631	5.51
378.839	5.59
379.047	5.59
379.255	5.46
379.463	5.46
379.671	5.37
379.879	4.97
380.088	4.74
380.296	4.52
380.504	4.65
380.712	4.4
380.92	4.4
381.128	4.22
381.336	4.41
381.544	4.29
381.752	4.18
381.96	4.16
382.168	4.15
382.376	4.26
382.584	4.31
382.791	4.44
382.999	4.5
383.207	4.36
383.415	4.43
383.623	4.39
383.831	4.3
384.039	4.21
384.247	4.31
384.454	4.29
384.662	4.3
384.87	4.32
385.078	4.12
385.285	4.08
385.493	4.17
385.701	4.14
385.909	3.96
386.116	4.17
386.324	4.2
386.532	4.19
386.739	4.16
386.947	4.18
387.155	4.33
387.362	4.35
387.57	4.24
387.778	4.07
387.985	4.09
388.193	4.09
388.4	3.95
388.608	4.16
388.816	4.23
389.023	4.22
389.231	4.17
389.438	4.11
389.646	4.06
389.853	4.36
390.061	4.39
390.268	4.39
390.475	4.32
390.683	4.39
390.89	4.12
391.098	4.11
391.305	4.2
391.512	4.1
391.72	4.08
391.927	4.09
392.135	4.02
392.342	4.08
392.549	4.04
392.756	4.17
392.964	4.09
393.171	4.2
393.378	4.15
393.586	4.02
393.793	3.99
394	3.97
394.207	3.92
394.414	3.77
394.622	3.59
394.829	3.75
395.036	3.65
395.243	3.68
395.45	3.7
395.657	3.56
395.864	3.6
396.072	3.59
396.279	3.68
396.486	3.7
396.693	3.76
396.9	4.01
397.107	3.79
397.314	3.91
397.521	3.85
397.728	3.72
397.935	3.74
398.142	3.7
398.349	3.75
398.556	3.62
398.763	3.4
398.97	3.36
399.177	3.09
399.383	3.06
399.59	3.07
399.797	3.09
400.004	3.05
400.211	3.05
400.418	3.09
400.625	3.06
400.831	3.15
401.038	3.48
401.245	3.49
401.452	3.63
401.658	3.64
401.865	3.66
402.072	3.68
402.279	3.76
402.485	3.65
402.692	3.63
402.899	3.69
403.105	3.63
403.312	3.57
403.519	3.36
403.725	3.34
403.932	3.16
404.138	3
404.345	3.12
404.552	3.03
404.758	3.21
404.965	2.95
405.171	2.97
405.378	2.89
405.584	2.73
405.791	2.98
405.997	2.88
406.204	3.06
406.41	3.08
406.617	3.09
406.823	3.13
407.029	2.97
407.236	3.22
407.442	3.1
407.649	3.08
407.855	3.36
408.061	3.42
408.268	3.51
408.474	3.48
408.68	3.52
408.887	3.54
409.093	3.54
409.299	3.68
409.505	3.7
409.712	3.61
409.918	3.69
410.124	3.44
410.33	3.39
410.537	3.35
410.743	3.3
410.949	3.32
411.155	3.1
411.361	3.05
411.567	2.96
411.773	2.89
411.98	2.96
412.186	2.73
412.392	2.85
412.598	2.83
412.804	2.67
413.01	2.73
413.216	2.79
413.422	2.91
413.628	3.04
413.834	2.98
414.04	3.16
414.246	3.27
414.452	3.31
414.658	3.13
414.864	2.97
415.07	3.2
415.275	3.11
415.481	3.07
415.687	2.93
415.893	2.89
416.099	2.89
416.305	2.82
416.511	2.71
416.716	2.8
416.922	2.95
417.128	3.01
417.334	2.97
417.539	3.09
417.745	2.93
417.951	3
418.157	3
418.362	3.01
418.568	2.98
418.774	2.97
418.979	2.96
419.185	2.88
419.391	2.93
419.596	2.87
419.802	2.78
420.008	2.85
420.213	2.85
420.419	2.84
420.624	2.85
420.83	2.84
421.035	2.89
421.241	2.86
421.446	2.84
421.652	2.79
421.857	2.78
422.063	2.85
422.268	2.84
422.474	2.81
422.679	2.81
422.885	2.77
423.09	2.69
423.295	2.59
423.501	2.61
423.706	2.65
423.911	2.71
424.117	2.78
424.322	2.68
424.527	2.7
424.733	2.66
424.938	2.65
425.143	2.61
425.349	2.72
425.554	2.76
425.759	2.72
425.964	2.72
426.169	2.67
426.375	2.6
426.58	2.66
426.785	2.62
426.99	2.76
427.195	2.8
427.4	2.85
427.605	2.71
427.811	2.81
428.016	2.89
428.221	3.02
428.426	2.92
428.631	2.87
428.836	2.92
429.041	2.87
429.246	2.74
429.451	2.65
429.656	2.72
429.861	2.87
430.066	2.76
430.271	2.72
430.476	2.58
430.681	2.73
430.886	2.78
431.09	2.74
431.295	2.75
431.5	2.84
431.705	2.82
431.91	2.86
432.115	2.83
432.32	2.87
432.524	2.82
432.729	2.87
432.934	2.81
433.139	2.77
433.343	2.79
433.548	2.84
433.753	2.77
433.958	2.85
434.162	2.79
434.367	2.72
434.572	2.65
434.776	2.72
434.981	2.66
435.186	2.64
435.39	2.7
435.595	2.65
435.799	2.6
436.004	2.57
436.209	2.52
436.413	2.52
436.618	2.51
436.822	2.56
437.027	2.5
437.231	2.42
437.436	2.55
437.64	2.53
437.845	2.53
438.049	2.6
438.253	2.55
438.458	2.56
438.662	2.54
438.867	2.5
439.071	2.56
439.275	2.52
439.48	2.62
439.684	2.53
439.888	2.57
440.093	2.55
440.297	2.45
440.501	2.55
440.706	2.54
440.91	2.57
441.114	2.73
441.318	2.7
441.523	2.82
441.727	2.8
441.931	2.86
442.135	2.9
442.339	2.99
442.543	3.11
442.748	3.09
442.952	3.1
443.156	3.1
443.36	2.87
443.564	2.85
443.768	2.86
443.972	2.93
444.176	2.83
444.38	2.72
444.584	2.73
444.788	2.68
444.992	2.7
445.196	2.69
445.4	2.67
445.604	2.88
445.808	2.88
446.012	2.81
446.216	2.77
446.42	2.81
446.624	2.84
446.828	2.74
447.032	2.65
447.235	2.64
447.439	2.6
447.643	2.63
447.847	2.52
448.051	2.5
448.254	2.51
448.458	2.5
448.662	2.45
448.866	2.42
449.069	2.54
449.273	2.59
449.477	2.52
449.681	2.54
449.884	2.55
450.088	2.68
450.292	2.66
450.495	2.7
450.699	2.67
450.902	2.65
451.106	2.64
451.31	2.67
451.513	2.74
451.717	2.79
451.92	2.77
452.124	2.73
452.327	2.48
452.531	2.45
452.734	2.33
452.938	2.32
453.141	2.48
453.345	2.53
453.548	2.45
453.752	2.31
453.955	2.35
454.158	2.34
454.362	2.3
454.565	2.34
454.769	2.37
454.972	2.49
455.175	2.43
455.379	2.33
455.582	2.23
455.785	2.25
455.988	2.4
456.192	2.37
456.395	2.42
456.598	2.56
456.801	2.62
457.005	2.56
457.208	2.56
457.411	2.58
457.614	2.48
457.817	2.53
458.021	2.47
458.224	2.5
458.427	2.51
458.63	2.47
458.833	2.35
459.036	2.31
459.239	2.39
459.442	2.34
459.645	2.37
459.848	2.39
460.051	2.4
460.254	2.46
460.457	2.44
460.66	2.43
460.863	2.47
461.066	2.48
461.269	2.47
461.472	2.48
461.675	2.53
461.878	2.62
462.081	2.66
462.284	2.7
462.486	2.61
462.689	2.54
462.892	2.49
463.095	2.45
463.298	2.52
463.5	2.64
463.703	2.55
463.906	2.51
464.109	2.45
464.311	2.39
464.514	2.28
464.717	2.39
464.92	2.44
465.122	2.49
465.325	2.51
465.528	2.47
465.73	2.5
465.933	2.55
466.135	2.59
466.338	2.52
466.541	2.49
466.743	2.55
466.946	2.49
467.148	2.57
467.351	2.6
467.553	2.67
467.756	2.66
467.958	2.51
468.161	2.65
468.363	2.63
468.566	2.63
468.768	2.74
468.971	2.74
469.173	2.76
469.375	2.66
469.578	2.67
469.78	2.65
469.983	2.66
470.185	2.73
470.387	2.64
470.59	2.68
470.792	2.66
470.994	2.63
471.196	2.56
471.399	2.57
471.601	2.63
471.803	2.59
472.005	2.52
472.208	2.55
472.41	2.47
472.612	2.52
472.814	2.56
473.016	2.65
473.218	2.71
473.421	2.79
473.623	2.75
473.825	2.79
474.027	2.8
474.229	2.83
474.431	2.86
474.633	2.94
474.835	2.99
475.037	2.98
475.239	2.83
475.441	2.86
475.643	2.81
475.845	2.82
476.047	2.74
476.249	2.73
476.451	2.77
476.653	2.66
476.855	2.72
477.057	2.59
477.258	2.53
477.46	2.59
477.662	2.52
477.864	2.58
478.066	2.65
478.268	2.68
478.469	2.7
478.671	2.65
478.873	2.78
479.075	2.68
479.276	2.76
479.478	2.87
479.68	2.84
479.882	2.86
480.083	2.85
480.285	2.75
480.487	2.74
480.688	2.64
480.89	2.66
481.091	2.61
481.293	2.65
481.495	2.55
481.696	2.51
481.898	2.51
482.099	2.52
482.301	2.49
482.502	2.55
482.704	2.56
482.905	2.64
483.107	2.62
483.308	2.62
483.51	2.61
483.711	2.66
483.913	2.65
484.114	2.66
484.315	2.64
484.517	2.63
484.718	2.62
484.92	2.62
485.121	2.58
485.322	2.57
485.524	2.57
485.725	2.59
485.926	2.57
486.127	2.57
486.329	2.6
486.53	2.59
486.731	2.64
486.932	2.62
487.134	2.61
487.335	2.61
487.536	2.59
487.737	2.57
487.938	2.54
488.139	2.53
488.341	2.55
488.542	2.49
488.743	2.49
488.944	2.45
489.145	2.44
489.346	2.49
489.547	2.48
489.748	2.55
489.949	2.63
490.15	2.64
490.351	2.65
490.552	2.66
490.753	2.72
490.954	2.73
491.155	2.72
491.356	2.76
491.557	2.73
491.758	2.76
491.959	2.71
492.159	2.69
492.36	2.72
492.561	2.69
492.762	2.67
492.963	2.67
493.164	2.7
493.364	2.66
493.565	2.67
493.766	2.61
493.967	2.56
494.167	2.58
494.368	2.59
494.569	2.59
494.769	2.66
494.97	2.71
495.171	2.76
495.371	2.74
495.572	2.79
495.773	2.74
495.973	2.83
496.174	2.87
496.375	2.92
496.575	2.89
496.776	2.97
496.976	2.95
497.177	2.91
497.377	2.86
497.578	2.91
497.778	2.96
497.979	3.06
498.179	3.05
498.38	3.08
498.58	3.13
498.78	3.11
498.981	3.05
499.181	2.96
499.382	3.01
499.582	3
499.782	3.01
499.983	3.02
500.183	2.99
500.383	3.01
500.584	2.98
500.784	2.92
500.984	2.95
501.184	2.96
501.385	2.98
501.585	2.97
501.785	3.02
501.985	3.06
502.185	3.05
502.386	3.09
502.586	3.13
502.786	3.11
502.986	3.16
503.186	3.21
503.386	3.27
503.586	3.4
503.786	3.45
503.987	3.42
504.187	3.42
504.387	3.48
504.587	3.49
504.787	3.52
504.987	3.69
505.187	3.72
505.387	3.7
505.587	3.69
505.786	3.62
505.986	3.53
506.186	3.61
506.386	3.62
506.586	3.7
506.786	3.68
506.986	3.75
507.186	3.67
507.386	3.7
507.585	3.82
507.785	3.87
507.985	4
508.185	4.13
508.384	4.1
508.584	4.1
508.784	4.09
508.984	4.16
509.183	4.13
509.383	4.2
509.583	4.3
509.782	4.23
509.982	4.27
510.182	4.25
510.381	4.27
510.581	4.36
510.781	4.41
510.98	4.43
511.18	4.43
511.379	4.51
511.579	4.56
511.778	4.53
511.978	4.59
512.177	4.69
512.377	4.74
512.576	4.78
512.776	4.78
512.975	4.88
513.175	4.94
513.374	5.04
513.573	4.99
513.773	5.03
513.972	5.1
514.172	5.19
514.371	5.31
514.57	5.37
514.77	5.33
514.969	5.32
515.168	5.35
515.367	5.4
515.567	5.37
515.766	5.49
515.965	5.53
516.164	5.54
516.364	5.53
516.563	5.4
516.762	5.51
516.961	5.6
517.16	5.72
517.359	5.83
517.559	5.91
517.758	5.99
517.957	6.04
518.156	6.06
518.355	6.13
518.554	6.1
518.753	6.17
518.952	6.17
519.151	6.15
519.35	6.21
519.549	6.16
519.748	6.17
519.947	6.17
520.146	6.26
520.345	6.27
520.544	6.33
520.743	6.47
520.942	6.49
521.141	6.49
521.339	6.66
521.538	6.65
521.737	6.73
521.936	6.75
522.135	6.88
522.333	6.84
522.532	6.96
522.731	6.98
522.93	7.02
523.129	7.11
523.327	7.18
523.526	7.23
523.725	7.33
523.923	7.35
524.122	7.5
524.321	7.59
524.519	7.67
524.718	7.65
524.917	7.73
525.115	7.78
525.314	7.82
525.512	7.93
525.711	7.97
525.909	8.04
526.108	8.12
526.306	8.06
526.505	8.1
526.703	8.16
526.902	8.26
527.1	8.32
527.299	8.4
527.497	8.49
527.696	8.52
527.894	8.59
528.092	8.62
528.291	8.68
528.489	8.77
528.688	8.8
528.886	8.87
529.084	8.9
529.283	8.93
529.481	8.96
529.679	8.98
529.877	8.99
530.076	9.03
530.274	9.06
530.472	9.12
530.67	9.19
530.869	9.27
531.067	9.25
531.265	9.32
531.463	9.37
531.661	9.47
531.859	9.52
532.057	9.65
532.255	9.67
532.454	9.74
532.652	9.72
532.85	9.77
533.048	9.78
533.246	9.91
533.444	9.89
533.642	9.96
533.84	9.92
534.038	9.99
534.236	10.02
534.434	10.09
534.632	10.13
534.83	10.23
535.027	10.22
535.225	10.24
535.423	10.3
535.621	10.44
535.819	10.41
536.017	10.54
536.215	10.53
536.412	10.6
536.61	10.61
536.808	10.61
537.006	10.6
537.203	10.67
537.401	10.77
537.599	10.72
537.797	10.77
537.994	10.84
538.192	10.84
538.39	10.89
538.587	10.98
538.785	11.08
538.983	11.19
539.18	11.28
539.378	11.37
539.575	11.45
539.773	11.61
539.97	11.64
540.168	11.81
540.366	11.84
540.563	11.92
540.761	11.93
540.958	11.96
541.155	12.03
541.353	12.08
541.55	12.13
541.748	12.14
541.945	12.12
542.143	12.17
542.34	12.17
542.537	12.25
542.735	12.29
542.932	12.32
543.129	12.46
543.327	12.47
543.524	12.59
543.721	12.67
543.919	12.81
544.116	12.94
544.313	13.05
544.51	13.17
544.708	13.33
544.905	13.49
545.102	13.65
545.299	13.67
545.496	13.79
545.693	13.84
545.891	13.93
546.088	14.01
546.285	14.09
546.482	14.1
546.679	14.12
546.876	14.09
547.073	14.06
547.27	13.95
547.467	13.97
547.664	13.96
547.861	13.94
548.058	13.89
548.255	13.84
548.452	13.8
548.649	13.87
548.846	13.86
549.043	13.9
549.24	14.02
549.437	14.09
549.633	14.2
549.83	14.33
550.027	14.36
550.224	14.33
550.421	14.36
550.618	14.39
550.814	14.37
551.011	14.41
551.208	14.45
551.405	14.3
551.601	14.46
551.798	14.4
551.995	14.42
552.191	14.5
552.388	14.61
552.585	14.59
552.781	14.56
552.978	14.67
553.175	14.64
553.371	14.75
553.568	14.89
553.764	14.77
553.961	14.77
554.157	14.73
554.354	14.78
554.55	14.76
554.747	14.9
554.943	15.01
555.14	15.05
555.336	15.16
555.533	15.01
555.729	14.99
555.926	15.15
556.122	15.33
556.318	15.47
556.515	15.44
556.711	15.56
556.907	15.51
557.104	15.6
557.3	15.65
557.496	15.69
557.693	15.85
557.889	16
558.085	16.12
558.281	16.01
558.478	16.03
558.674	16.12
558.87	16.16
559.066	16.24
559.262	16.3
559.459	16.22
559.655	16.28
559.851	16.38
560.047	16.39
560.243	16.26
560.439	16.33
560.635	16.4
560.831	16.33
561.027	16.38
561.223	16.33
561.419	16.24
561.615	16.23
561.811	16.33
562.007	16.27
562.203	16.42
562.399	16.5
562.595	16.51
562.791	16.49
562.987	16.49
563.183	16.43
563.379	16.48
563.575	16.59
563.771	16.79
563.966	16.77
564.162	16.82
564.358	16.57
564.554	16.72
564.75	16.81
564.945	16.83
565.141	16.93
565.337	16.95
565.533	17.05
565.728	17.02
565.924	17.09
566.12	17.07
566.315	17.01
566.511	17.23
566.707	17.16
566.902	17.07
567.098	17.2
567.293	17.25
567.489	17.3
567.684	17.3
567.88	17.34
568.076	17.3
568.271	17.37
568.467	17.5
568.662	17.46
568.858	17.64
569.053	17.74
569.248	17.61
569.444	17.64
569.639	17.66
569.835	17.77
570.03	17.87
570.225	17.81
570.421	17.9
570.616	17.96
570.812	17.91
571.007	17.83
571.202	17.82
571.397	17.92
571.593	17.92
571.788	18.01
571.983	18.02
572.178	17.92
572.374	17.9
572.569	17.91
572.764	17.94
572.959	18.03
573.154	18.07
573.35	18.09
573.545	18.06
573.74	18.11
573.935	18.08
574.13	17.94
574.325	18.09
574.52	18.33
574.715	18.41
574.91	18.37
575.105	18.41
575.3	18.39
575.495	18.43
575.69	18.51
575.885	18.52
576.08	18.54
576.275	18.71
576.47	18.71
576.665	18.62
576.86	18.46
577.055	18.48
577.25	18.57
577.444	18.67
577.639	18.74
577.834	18.84
578.029	18.93
578.224	18.98
578.418	18.97
578.613	19.04
578.808	19.11
579.003	19.25
579.197	19.3
579.392	19.17
579.587	19.14
579.781	19.2
579.976	19.13
580.171	19.1
580.365	19.16
580.56	19.27
580.755	19.32
580.949	19.26
581.144	19.26
581.338	19.34
581.533	19.41
581.727	19.58
581.922	19.57
582.116	19.68
582.311	19.76
582.505	19.79
582.7	19.8
582.894	19.78
583.089	19.8
583.283	19.85
583.478	19.82
583.672	19.97
583.866	19.93
584.061	20.01
584.255	19.92
584.449	20.04
584.644	20.18
584.838	20.37
585.032	20.34
585.226	20.33
585.421	20.37
585.615	20.55
585.809	20.45
586.003	20.37
586.198	20.45
586.392	20.6
586.586	20.56
586.78	20.54
586.974	20.31
587.168	20.36
587.363	20.54
587.557	20.44
587.751	20.28
587.945	20.24
588.139	20.35
588.333	20.34
588.527	20.28
588.721	20.18
588.915	20.19
589.109	20.25
589.303	20.15
589.497	20.04
589.691	20.04
589.885	20.07
590.079	20.15
590.273	20.15
590.466	20.14
590.66	20.1
590.854	20.24
591.048	20.12
591.242	20.24
591.436	20.34
591.629	20.48
591.823	20.75
592.017	20.89
592.211	20.89
592.404	20.89
592.598	20.86
592.792	21.05
592.986	21
593.179	21.01
593.373	20.93
593.567	21.04
593.76	21
593.954	20.83
594.147	20.79
594.341	20.92
594.535	20.93
594.728	20.93
594.922	20.82
595.115	20.8
595.309	20.75
595.502	20.7
595.696	20.68
595.889	20.59
596.083	20.63
596.276	20.62
596.47	20.61
596.663	20.55
596.856	20.57
597.05	20.61
597.243	20.66
597.437	20.77
597.63	20.81
597.823	20.83
598.017	20.92
598.21	20.95
598.403	21.01
598.596	21
598.79	21.09
598.983	21.27
599.176	21.32
599.369	21.35
599.563	21.55
599.756	21.75
599.949	21.67
600.142	21.72
600.335	21.78
600.528	21.65
600.722	21.71
600.915	21.87
601.108	21.7
601.301	21.65
601.494	21.56
601.687	21.31
601.88	21.14
602.073	21.14
602.266	21.2
602.459	21.12
602.652	21.13
602.845	20.88
603.038	20.71
603.231	20.75
603.424	20.79
603.617	20.87
603.809	20.88
604.002	20.89
604.195	20.98
604.388	21.04
604.581	21.14
604.774	21.17
604.966	21.41
605.159	21.62
605.352	21.64
605.545	21.74
605.737	21.86
605.93	21.91
606.123	21.99
606.316	22.06
606.508	22.01
606.701	21.98
606.894	22.08
607.086	22.11
607.279	22.15
607.471	22.22
607.664	22.18
607.857	22.24
608.049	22.44
608.242	22.77
608.434	23.08
608.627	23.51
608.819	24.07
609.012	24.62
609.204	25.29
609.397	25.95
609.589	26.76
609.782	27.67
609.974	28.6
610.166	29.57
610.359	30.28
610.551	31.16
610.743	31.64
610.936	32.09
611.128	32.62
611.32	32.92
611.513	32.95
611.705	32.88
611.897	32.75
612.09	32.5
612.282	32.12
612.474	31.78
612.666	31.31
612.858	31.13
613.051	30.7
613.243	30.12
613.435	29.65
613.627	29.36
613.819	29.05
614.011	28.64
614.203	28.24
614.395	27.82
614.588	27.49
614.78	27.21
614.972	26.79
615.164	26.64
615.356	26.52
615.548	26.26
615.74	26.11
615.932	25.91
616.124	25.64
616.315	25.48
616.507	25.19
616.699	24.93
616.891	24.68
617.083	24.61
617.275	24.23
617.467	24.16
617.659	23.91
617.85	23.7
618.042	23.46
618.234	23.5
618.426	23.31
618.618	23.16
618.809	23.05
619.001	23.01
619.193	22.77
619.384	23.02
619.576	23.02
619.768	23.15
619.959	23.06
620.151	23.11
620.343	23.08
620.534	23.25
620.726	23.45
620.917	23.55
621.109	23.53
621.301	23.81
621.492	23.74
621.684	23.61
621.875	23.6
622.067	23.8
622.258	24.04
622.45	24.03
622.641	23.82
622.832	24
623.024	24.18
623.215	24.11
623.407	24.03
623.598	24.03
623.789	24.12
623.981	24.11
624.172	24.1
624.363	24
624.555	23.95
624.746	24.03
624.937	23.93
625.129	23.79
625.32	23.8
625.511	23.81
625.702	23.73
625.893	23.73
626.085	23.74
626.276	23.7
626.467	23.6
626.658	23.71
626.849	23.58
627.04	23.41
627.231	23.51
627.422	23.59
627.614	23.59
627.805	23.64
627.996	23.63
628.187	23.67
628.378	23.61
628.569	23.75
628.76	23.78
628.951	24.03
629.142	24.35
629.332	24.28
629.523	24.3
629.714	24.39
629.905	24.59
630.096	24.65
630.287	24.68
630.478	24.87
630.669	24.87
630.859	24.88
631.05	24.77
631.241	24.52
631.432	24.41
631.623	24.32
631.813	24.26
632.004	23.99
632.195	23.87
632.385	23.8
632.576	23.7
632.767	23.67
632.957	23.68
633.148	23.58
633.339	23.5
633.529	23.48
633.72	23.46
633.91	23.43
634.101	23.53
634.292	23.61
634.482	23.53
634.673	23.37
634.863	23.3
635.054	23.17
635.244	23.12
635.435	23.25
635.625	23.26
635.815	23.18
636.006	23.16
636.196	23.08
636.387	22.92
636.577	23
636.767	23.07
636.958	23.03
637.148	22.92
637.338	23.08
637.529	23.23
637.719	23.3
637.909	23.39
638.099	23.3
638.29	23.31
638.48	23.53
638.67	23.36
638.86	23.25
639.05	23.42
639.241	23.51
639.431	23.26
639.621	23.17
639.811	23.18
640.001	23.16
640.191	23.15
640.381	23.21
640.571	23.16
640.761	23.22
640.951	23.32
641.141	23.11
641.331	23.07
641.521	23.31
641.711	23.31
641.901	23.39
642.091	23.32
642.281	23.42
642.471	23.48
642.661	23.52
642.851	23.51
643.041	23.65
643.231	23.75
643.42	24.08
643.61	24.18
643.8	24.08
643.99	24.09
644.18	24.19
644.369	24.03
644.559	23.87
644.749	23.84
644.939	23.91
645.128	23.87
645.318	23.74
645.508	23.49
645.697	23.18
645.887	23.35
646.076	23.07
646.266	23.12
646.456	23.3
646.645	23.28
646.835	23.34
647.024	23.31
647.214	23.23
647.403	23.37
647.593	23.24
647.782	23.62
647.972	23.57
648.161	23.73
648.351	23.67
648.54	23.61
648.73	23.68
648.919	23.57
649.108	23.68
649.298	23.71
649.487	23.73
649.677	23.94
649.866	23.66
650.055	23.58
650.244	23.71
650.434	23.69
650.623	23.67
650.812	23.77
651.002	23.76
651.191	23.7
651.38	23.8
651.569	23.94
651.758	23.8
651.947	24.01
652.137	24.14
652.326	24.16
652.515	24.26
652.704	24.18
652.893	24.18
653.082	24.22
653.271	24.08
653.46	24.16
653.649	24.17
653.838	24.05
654.027	24.1
654.216	23.99
654.405	23.91
654.594	23.96
654.783	24.12
654.972	23.9
655.161	23.91
655.35	23.97
655.539	23.88
655.728	23.85
655.916	24.04
656.105	23.73
656.294	24
656.483	23.96
656.672	23.92
656.86	23.96
657.049	24.04
657.238	23.85
657.427	23.97
657.615	23.96
657.804	23.84
657.993	23.73
658.181	23.79
658.37	23.62
658.559	23.7
658.747	23.71
658.936	23.8
659.125	23.58
659.313	23.86
659.502	23.91
659.69	23.9
659.879	23.95
660.067	24.12
660.256	24.19
660.444	24.14
660.633	24.31
660.821	24.32
661.01	24.36
661.198	24.64
661.387	24.42
661.575	24.38
661.763	24.49
661.952	24.48
662.14	24.57
662.328	24.45
662.517	24.51
662.705	24.35
662.893	24.53
663.082	24.22
663.27	24.4
663.458	24.58
663.646	24.84
663.834	24.8
664.023	24.91
664.211	24.71
664.399	25.16
664.587	24.99
664.775	24.83
664.963	24.66
665.152	24.74
665.34	24.5
665.528	24.72
665.716	24.51
665.904	24.65
666.092	24.81
666.28	25.08
666.468	24.74
666.656	25.03
666.844	25.14
667.032	25.28
667.22	25.42
667.408	25.6
667.596	25.39
667.784	25.48
667.971	25.3
668.159	25.05
668.347	24.66
668.535	24.61
668.723	24.57
668.911	24.6
669.098	24.49
669.286	24.68
669.474	24.54
669.662	24.55
669.849	24.35
670.037	24.52
670.225	24.43
670.413	24.91
670.6	25.09
670.788	25.07
670.976	24.96
671.163	24.89
671.351	24.7
671.538	24.81
671.726	24.97
671.913	25.09
672.101	24.95
672.289	25.2
672.476	24.9
672.664	24.79
672.851	24.96
673.039	25.04
673.226	25.18
673.413	24.98
673.601	24.97
673.788	24.96
673.976	25.08
674.163	24.86
674.35	24.85
674.538	24.84
674.725	25
674.912	25.01
675.1	24.95
675.287	24.87
675.474	25.15
675.662	25.24
675.849	25.09
676.036	25.13
676.223	25.15
676.411	25.12
676.598	25.32
676.785	25.13
676.972	24.93
677.159	24.86
677.346	24.91
677.533	24.89
677.721	24.85
677.908	24.58
678.095	24.3
678.282	24.49
678.469	24.26
678.656	24.17
678.843	24.27
679.03	24.41
679.217	24.74
679.404	24.88
679.591	24.69
679.778	24.73
679.964	25.06
680.151	25.24
680.338	25.31
680.525	25.59
680.712	25.43
680.899	25.59
681.086	25.47
681.272	25.21
681.459	24.98
681.646	25.18
681.833	25.3
682.02	25.2
682.206	25.24
682.393	25.11
682.58	25.04
682.766	25.27
682.953	25.23
683.14	25.27
683.326	25.38
683.513	25.54
683.7	25.51
683.886	25.34
684.073	25.25
684.259	25.18
684.446	25.38
684.632	25.23
684.819	25.34
685.005	25.28
685.192	25.57
685.378	25.61
685.565	25.38
685.751	25.51
685.938	25.54
686.124	25.74
686.31	25.95
686.497	25.54
686.683	25.72
686.87	25.63
687.056	25.49
687.242	25.15
687.429	25.04
687.615	25.25
687.801	24.8
687.987	24.8
688.174	24.88
688.36	24.43
688.546	24.88
688.732	24.55
688.918	24.47
689.105	24.65
689.291	24.91
689.477	25.01
689.663	24.96
689.849	25.59
690.035	25.52
690.221	25.71
690.407	25.65
690.593	25.64
690.779	25.78
690.965	25.79
691.151	25.71
691.337	25.49
691.523	25.61
691.709	25.55
691.895	25.28
692.081	25.43
692.267	25.18
692.453	25.38
692.639	25.42
692.825	25.61
693.011	25.69
693.196	25.85
693.382	26
693.568	25.88
693.754	26.03
693.94	25.99
694.125	26.06
694.311	25.97
694.497	26.08
694.682	26.07
694.868	26.28
695.054	26.16
695.239	26.19
695.425	26.16
695.611	26.18
695.796	26.07
695.982	25.77
696.168	25.51
696.353	25.36
696.539	25.51
696.724	25.06
696.91	24.94
697.095	25.08
697.281	25.24
697.466	25.4
697.652	25.3
697.837	25.14
698.023	25.55
698.208	25.47
698.393	25.47
698.579	25.22
698.764	25.4
698.949	25.31
699.135	25.2
699.32	25.09
699.505	24.82
699.691	24.81
699.876	24.93
700.061	25.04
700.246	25.17
700.432	25.45
700.617	25.54
700.802	25.52
700.987	25.6
701.172	24.92
701.358	24.96
701.543	25
701.728	25.42
701.913	25.63
702.098	25.35
702.283	25.39
702.468	25.25
702.653	25.27
702.838	25.67
703.023	25.91
703.208	27.07
703.393	27.4
703.578	27.53
703.763	27.53
703.948	27.7
704.133	27.74
704.318	27.72
704.503	27.83
704.688	28.47
704.873	28.58
705.057	28.71
705.242	28.66
705.427	28.43
705.612	28.85
705.797	28.85
705.981	28.53
706.166	29
706.351	29.29
706.536	29.22
706.72	28.99
706.905	29.13
707.09	28.94
707.274	29.22
707.459	28.93
707.644	28.99
707.828	28.96
708.013	29.63
708.197	29.21
708.382	29.6
708.567	29.94
708.751	29.96
708.936	29.76
709.12	29.73
709.305	29.4
709.489	29.49
709.673	29.45
709.858	29.18
710.042	28.93
710.227	28.99
710.411	28.55
710.596	28.36
710.78	28.2
710.964	28.21
711.149	28.3
711.333	28.64
711.517	28.78
711.702	28.7
711.886	28.7
712.07	28.4
712.254	28.28
712.438	28.13
712.623	28.24
712.807	28.02
712.991	28.11
713.175	27.84
713.359	27.36
713.544	27.38
713.728	27.11
713.912	27.24
714.096	27.06
714.28	26.61
714.464	26.65
714.648	26.25
714.832	26.35
715.016	25.93
715.2	25.97
715.384	25.91
715.568	25.76
715.752	25.72
715.936	25.74
716.12	25.65
716.304	26.06
716.488	26.14
716.671	26.28
716.855	26.41
717.039	26.37
717.223	26.48
717.407	26.33
717.59	26.2
717.774	26.08
717.958	25.92
718.142	26.02
718.325	25.87
718.509	25.75
718.693	25.58
718.877	25.43
719.06	25.43
719.244	25.4
719.428	25.82
719.611	25.97
719.795	26.06
719.978	26.08
720.162	26.34
720.345	26.25
720.529	26.31
720.713	26.28
720.896	26.46
721.08	26.75
721.263	26.84
721.446	27.05
721.63	27.51
721.813	27.9
721.997	28.3
722.18	28.67
722.364	28.65
722.547	28.48
722.73	28.14
722.914	27.99
723.097	27.81
723.28	27.2
723.464	26.92
723.647	26.2
723.83	25.61
724.013	24.9
724.197	24.5
724.38	24.42
724.563	24.21
724.746	24.14
724.929	23.89
725.112	23.24
725.296	23.59
725.479	24.03
725.662	24.59
725.845	25
726.028	25.53
726.211	25.38
726.394	25.23
726.577	25.82
726.76	26.68
726.943	26.65
727.126	27.03
727.309	26.87
727.492	26.57
727.675	26.25
727.858	26.16
728.041	25.71
728.224	25.77
728.407	26.17
728.589	25.68
728.772	25.25
728.955	25.55
729.138	25.55
729.321	25.83
729.503	25.68
729.686	25.61
729.869	25.65
730.052	25.91
730.234	25.94
730.417	26.04
730.6	25.82
730.782	25.91
730.965	26.29
731.148	26.07
731.33	26.01
731.513	25.9
731.695	25.85
731.878	25.75
732.061	25.57
732.243	25.94
732.426	26.12
732.608	26.67
732.791	26.59
732.973	26.15
733.156	26.48
733.338	26.39
733.52	26.3
733.703	26.48
733.885	26.64
734.068	26.91
734.25	26.92
734.432	27.06
734.615	27.09
734.797	26.93
734.979	26.81
735.162	26.67
735.344	26.73
735.526	27.48
735.708	27.6
735.891	27.53
736.073	27.49
736.255	27.19
736.437	26.9
736.619	26.47
736.802	27.01
736.984	27.29
737.166	28.27
737.348	28.27
737.53	27.73
737.712	27.72
737.894	27.51
738.076	27.45
738.258	27.15
738.44	27.03
738.622	27.29
738.804	26.85
738.986	26.97
739.168	26.34
739.35	26.51
739.532	26.77
739.714	26.96
739.896	26.82
740.078	26.91
740.259	27.28
740.441	27.29
740.623	27.58
740.805	28.28
740.987	27.74
741.168	27.9
741.35	27.9
741.532	28.01
741.714	28.08
741.895	28.67
742.077	28.33
742.259	28.38
742.44	28.5
742.622	27.88
742.804	28.08
742.985	29.01
743.167	28.42
743.348	28.15
743.53	28.02
743.711	27.61
743.893	27.67
744.075	28
744.256	27.83
744.438	27.56
744.619	28.26
744.8	27.24
744.982	27.13
745.163	27.25
745.345	27.83
745.526	27.84
745.707	27.65
745.889	27.4
746.07	27.62
746.252	27.81
746.433	27.99
746.614	27.46
746.795	27.55
746.977	27.22
747.158	27.65
747.339	27.78
747.52	28.22
747.702	28.56
747.883	28.73
748.064	28.29
748.245	27.83
748.426	27.63
748.607	28.56
748.788	29
748.97	29.05
749.151	28.86
749.332	28.26
749.513	27.95
749.694	27.89
749.875	27.73
750.056	28.39
750.237	29.45
750.418	29.36
750.599	28.4
750.78	28
750.96	27.88
751.141	28.56
751.322	29.37
751.503	29.12
751.684	28.92
751.865	28.63
752.046	28.06
752.226	27.15
752.407	27.48
752.588	27.76
752.769	28.51
752.949	28.39
753.13	27.87
753.311	27.17
753.492	27.98
753.672	27.92
753.853	28.21
754.034	28.45
754.214	29.28
754.395	29.67
754.575	30.24
754.756	30.12
754.937	30.03
755.117	30.04
755.298	30.63
755.478	30.12
755.659	30.56
755.839	30.4
756.02	30.62
756.2	29.64
756.381	29.97
756.561	29.82
756.741	29.51
756.922	29.87
757.102	29.92
757.283	29.08
757.463	29.15
757.643	29.04
757.823	29.11
758.004	28.57
758.184	28.76
758.364	27.89
758.545	26.84
758.725	25.93
758.905	25.42
759.085	25.19
759.265	25.66
759.446	25.38
759.626	24.59
759.806	24.98
759.986	25.13
760.166	25.39
760.346	25.42
760.526	25.62
760.706	26.22
760.886	25.93
761.066	25.9
761.246	26.49
761.426	26.61
761.606	27.56
761.786	26.94
761.966	26.57
762.146	25.81
762.326	25.62
762.506	26.01
762.686	26.28
762.866	26.47
763.046	26.36
763.225	25.63
763.405	25.4
763.585	24.69
763.765	25.06
763.945	25
764.124	25.2
764.304	25.15
764.484	25.26
764.664	25.01
764.843	25.24
765.023	25.44
765.203	25.62
765.382	25.81
765.562	26.48
765.741	26.68
765.921	27.58
766.101	28.39
766.28	28.74
766.46	28.59
766.639	28.49
766.819	28.33
766.998	28.27
767.178	28.26
767.357	28.37
767.537	28.25
767.716	28.47
767.896	28.22
768.075	27.62
768.254	27.86
768.434	28.26
768.613	28.54
768.792	28.93
768.972	29.25
769.151	29.61
769.33	29.44
769.51	29.06
769.689	28.59
769.868	27.94
770.047	28.36
770.226	28.58
770.406	28.1
770.585	28.43
770.764	28.34
770.943	28
771.122	27.8
771.301	28.13
771.48	28.44
771.66	28.63
771.839	28.55
772.018	28.15
772.197	28.12
772.376	29.36
772.555	29.55
772.734	29.44
772.913	29.82
773.092	29.41
773.271	29.56
773.449	29.48
773.628	29.11
773.807	30.36
773.986	31.08
774.165	31.28
774.344	30.23
774.523	30.15
774.701	31.11
774.88	31.19
775.059	31.97
775.238	31.11
775.417	31.15
775.595	32.05
775.774	32.14
775.953	31.22
776.131	31.21
776.31	30.98
776.489	30.97
776.667	30.74
776.846	30.46
777.025	30.32
777.203	31.34
777.382	32.14
777.56	31
777.739	29.95
777.917	30.73
778.096	30.06
778.274	30.06
778.453	29.77
778.631	28.64
778.81	28.63
778.988	28.24
779.166	27.61
779.345	27.29
779.523	27.7
779.702	28.36
779.88	28.59
780.058	29.36
780.237	30.46
780.415	31.37
780.593	31.77
780.771	32.2
780.95	31.51
781.128	31.9
781.306	32.16
781.484	32.24
781.662	31.38
781.841	30.6
782.019	29.17
782.197	28.12
782.375	27.2
782.553	26.18
782.731	26.56
782.909	27.65
783.087	27.51
783.265	26.3
783.443	25.34
783.621	26.55
783.799	26.49
783.977	27.28
784.155	27.58
784.333	28.22
784.511	29.26
784.689	28.83
784.867	29.73
785.045	28.86
785.223	29.49
785.4	30.09
785.578	30.09
785.756	31.19
785.934	30.78
786.112	30.53
786.289	30.99
786.467	31.39
786.645	31.13
786.823	29.25
787	29.63
787.178	29.92
787.356	29.86
787.533	29.18
787.711	28.4
787.889	28.69
788.066	28.85
788.244	27.88
788.421	26.9
788.599	26.35
788.776	27.43
788.954	27.94
789.131	26.99
789.309	27.71
789.486	28.03
789.664	28.26
789.841	27.71
790.019	27.52
790.196	27.67
790.373	28.34
790.551	28.97
790.728	28.13
790.906	27.02
791.083	28.49
791.26	27.34
791.437	26.69
791.615	26.14
791.792	27.45
791.969	28.14
792.146	27.82
792.324	27.7
792.501	28.37
792.678	29.71
792.855	29.89
793.032	28.41
793.209	30.05
793.387	30.11
793.564	29.76
793.741	29.33
793.918	29.33
794.095	29.43
794.272	29.89
794.449	28.95
794.626	28.32
794.803	29.13
794.98	30.43
795.157	29.45
795.334	29.53
795.511	29.34
795.688	28.67
795.864	27.87
796.041	27.99
796.218	28.31
796.395	29.21
796.572	28.59
796.749	28.69
796.925	28.38
797.102	27.44
797.279	28.22
797.456	28.92
797.632	29.6
797.809	30.47
797.986	30.02
798.162	30.4
798.339	28.66
798.516	29.5
798.692	29.17
798.869	28.81
799.046	29.79
799.222	29.22
799.399	28.28
799.575	28.48
799.752	28.13
799.928	28.72
800.105	28.59
800.281	29.19
800.458	29.84
800.634	30
800.811	30.03
800.987	30.35
801.163	29.65
801.34	31.12
801.516	30.57
801.692	29.94
801.869	30.38
802.045	29.2
802.221	29.81
802.398	29.63
802.574	28.77
802.75	28.61
802.926	28.43
803.103	28.85
803.279	27.51
803.455	27.99
803.631	28.81
803.807	28.42
803.983	29.46
804.16	28.61
804.336	26.89
804.512	28.07
804.688	27.66
804.864	27.63
805.04	28.74
805.216	28.85
805.392	29.04
805.568	29.6
805.744	29.7
805.92	28.51
806.096	29.16
806.272	29.79
806.448	29.16
806.623	30.27
806.799	28.94
806.975	27.24
807.151	27.33
807.327	28.21
807.503	28.13
807.678	28.41
807.854	27.86
808.03	28.41
808.206	28.96
808.381	29.56
808.557	29.61
808.733	29.32
808.908	29.78
809.084	29.4
809.26	27.73
809.435	27.04
809.611	27.36
809.787	27.97
809.962	28.06
810.138	27.03
810.313	27.79
810.489	27.1
810.664	28.75
810.84	28.99
811.015	29.48
811.191	29.91
811.366	29.26
811.542	28.78
811.717	28.79
811.892	28.04
812.068	28.99
812.243	27.18
812.419	27.43
812.594	27.29
812.769	28.04
812.944	27.11
813.12	27.45
813.295	27.59
813.47	27.26
813.645	25.71
813.821	26.25
813.996	25.3
814.171	27.41
814.346	28.67
814.521	29.38
814.697	28.89
814.872	30.45
815.047	31.54
815.222	31.39
815.397	30.74
815.572	33.09
815.747	31.57
815.922	31.32
816.097	30.5
816.272	28.59
816.447	28.01
816.622	28.91
816.797	27.75
816.972	26.57
817.147	27.5
817.322	27.37
817.496	26.19
817.671	28.22
817.846	27.98
818.021	26.26
818.196	27.43
818.371	27.07
818.545	26.37
818.72	27.35
818.895	27.82
819.069	26.87
819.244	27.51
819.419	27.3
819.594	26.31
819.768	26.39
819.943	26.66
820.117	26
820.292	25.64
820.467	25.11
820.641	25.37
820.816	24.99
820.99	25.18
821.165	24.2
821.339	24.42
821.514	24.37
821.688	24.59
821.863	24.43
822.037	24.39
822.212	24.16
822.386	24.03
822.56	23.63
822.735	23.6
822.909	23.69
823.084	24.07
823.258	24.01
823.432	24
823.606	23.78
823.781	23.96
823.955	23.7
824.129	23.88
824.303	24.12
824.478	24.21
824.652	24.33
824.826	24.18
825	24.08
825.174	24.35
825.348	24.5
825.523	24.53
825.697	25.04
825.871	25.37
826.045	26.03
826.219	25.89
826.393	25.97
826.567	26.27
826.741	26.24
826.915	26.2
827.089	25.56
827.263	24.99
827.437	25.38
827.611	24.73
827.784	24.89
827.958	24.28
828.132	24.12
828.306	24.11
828.48	23.46
828.654	23.13
828.827	23.61
829.001	23.5
829.175	24.56
829.349	24.72
829.522	24.73
829.696	24.88
829.87	24.57
830.044	25.66
830.217	25.41
830.391	25.19
830.565	25.56
830.738	25.07
830.912	26.56
831.085	25.23
831.259	25.02
831.432	24.63
831.606	24.73
831.779	24.27
831.953	24.1
832.126	24
832.3	24.98
832.473	24.78
832.647	24.03
832.82	24.53
832.994	24.97
833.167	25.4
833.34	25.48
833.514	25.11
833.687	25.79
833.86	25.12
834.034	25.16
834.207	25.07
834.38	25.5
834.553	25.6
834.727	25.16
834.9	24.76
835.073	24.37
835.246	24.39
835.419	24.74
835.593	25.19
835.766	25.34
835.939	26.36
836.112	25.75
836.285	26.49
836.458	27.26
836.631	26.73
836.804	27.95
836.977	27.61
837.15	28.85
837.323	29.5
837.496	28.8
837.669	27.38
837.842	26.1
838.015	26.62
838.188	24.8
838.361	25.08
838.533	25.4
838.706	24.46
838.879	24.65
839.052	22.65
839.225	21.16
839.398	22.02
839.57	25.79
839.743	26.31
839.916	27.08
840.088	26.94
840.261	25.61
840.434	26.81
840.607	27.38
840.779	25.65
840.952	26.97
841.124	27.37
841.297	28.03
841.47	27.63
841.642	27.93
841.815	27.33
841.987	27.56
842.16	28.16
842.332	28.22
842.505	29.5
842.677	29.4
842.85	28.42
843.022	27.39
843.194	26.08
843.367	26.71
843.539	27.08
843.712	29.72
843.884	30.93
844.056	30.78
844.229	28.21
844.401	25.02
844.573	30.87
844.745	31.95
844.918	33.31
845.09	33.33
845.262	30.16
845.434	32.31
845.606	33.45
845.779	34.8
845.951	33.75
846.123	34.32
846.295	35.45
846.467	30.83
846.639	34.21
846.811	34.15
846.983	33.56
847.155	34
847.327	32.17
847.499	30.85
847.671	28.02
847.843	29.6
848.015	31.25
848.187	28.89
848.359	28.84
848.531	25.46
848.703	24.5
848.875	23.44
849.047	25.52
849.218	25.78
849.39	22.13
849.562	22.14
849.734	21.8
849.905	20.68
850.077	23.04
850.249	25.41
850.421	25.21
850.592	28.81
850.764	32.83
850.936	27.86
851.107	28.48
851.279	29.7
851.451	31.03
851.622	32.23
851.794	34.94
851.965	36.36
852.137	35.56
852.308	38.13
852.48	34.39
852.651	28.23
852.823	29.19
852.994	25.41
853.166	26.82
853.337	26.8
853.509	25.8
853.68	25.07
853.851	21.4
854.023	20.35
854.194	16.59
854.365	18.98
854.537	22.9
854.708	23.49
854.879	26.92
855.05	24.86
855.222	24.15
855.393	23.87
855.564	27.73
855.735	30.52
855.906	30.37
856.078	32.51
856.249	29.39
856.42	25.45
856.591	28.31
856.762	25.8
856.933	28.66
857.104	28.47
857.275	27.93
857.446	23.23
857.617	21.92
857.788	24.8
857.959	25.3
858.13	23.72
858.301	23.59
858.472	24.69
858.643	25.67
858.814	20.82
858.985	18.21
859.155	20.03
859.326	23.6
859.497	22.04
859.668	22.36
859.839	21.27
860.009	21.04
860.18	22.93
860.351	24.68
860.522	26.97
860.692	31.48
860.863	31.02
861.034	30.87
861.204	29.76
861.375	34.02
861.546	33.98
861.716	32.64
861.887	35.14
862.057	37.25
862.228	35.23
862.398	31.23
862.569	28.92
862.739	32.34
862.91	38.59
863.08	33.85
863.251	33.82
863.421	32.35
863.592	31.74
863.762	31.96
863.932	32.34
864.103	33.87
864.273	36.31
864.443	33.89
864.614	29.39
864.784	22.46
864.954	25.23
865.125	19.85
865.295	19.35
865.465	18.55
865.635	17.8
865.805	22.42
865.976	21.42
866.146	19.12
866.316	20.49
866.486	27.93
866.656	30.72
866.826	31.23
866.996	35.4
867.166	36.71
867.336	41.76
867.506	42.3
867.676	40.58
867.846	43.72
868.016	44.2
868.186	40.17
868.356	36.62
868.526	31.57
868.696	31.38
868.866	37.23
869.036	38.1
869.206	34.4
869.376	33.52
869.545	29.06
869.715	28.15
869.885	29.88
870.055	31.25
870.224	28.8
870.394	33.06
870.564	31.95
870.734	30.9
870.903	29.13
871.073	32.41
871.243	31.54
871.412	34.91
871.582	33.54
871.751	31.41
871.921	33.18
872.091	36.79
872.26	33.11
872.43	35.86
872.599	29.07
872.769	30.47
872.938	30.48
873.108	29.77
873.277	28.85
873.446	25.53
873.616	30.99
873.785	31.49
873.955	30.48
874.124	34.42
874.293	33.05
874.463	34.78
874.632	32.78
874.801	30.66
874.971	34.8
875.14	35.69
875.309	36.85
875.478	31.92
875.647	33.64
875.817	31.47
875.986	29.82
876.155	32.14
876.324	32.15
876.493	34.57
876.662	34.4
876.831	35.66
877	31.81
877.17	31.27
877.339	32.98
877.508	29.8
877.677	30.17
877.846	32.32
878.015	29.48
878.184	29.56
878.352	31.05
878.521	34.74
878.69	32.85
878.859	35.29
879.028	34.95
879.197	31.49
879.366	32.72
879.534	32.61
879.703	30.8
879.872	30.67
880.041	30.79
880.21	27.65
880.378	25.98
880.547	25.75
880.716	25.29
880.884	26.1
881.053	26.18
881.222	25.38
881.39	24.59
881.559	23.19
881.727	22.92
881.896	22.98
882.065	23.8
882.233	23.35
882.402	22.89
882.57	23.1
882.739	22.64
882.907	22.64
883.076	23.36
883.244	23.91
883.412	24.52
883.581	24.44
883.749	24.01
883.918	23.33
884.086	23.86
884.254	23.88
884.423	23.04
884.591	23.36
884.759	22.62
884.927	21.94
885.096	20.3
885.264	20.14
885.432	20.5
885.6	20.44
885.769	21.49
885.937	21.79
886.105	23.13
886.273	23.78
886.441	24.16
886.609	27.79
886.777	29.38
886.945	30.25
887.113	32.61
887.281	32.1
887.449	32.05
887.617	29.6
887.785	28.01
887.953	26.78
888.121	27.66
888.289	24.03
888.457	24.11
888.625	23.7
888.793	25.17
888.961	23.42
889.129	28.27
889.296	29.12
889.464	31
889.632	31.56
889.8	33.27
889.967	35.09
890.135	44.08
