Data from 2938842__Reflection_02.txt Node
Date: Wed Mar 11 15:26:18 EDT 2015
User: robert
Spectrometer: USB4E03002
Autoset integration time: false
Trigger mode: 4
Integration Time (sec): 1.000000E-1
Scans to average: 10
Electric dark correction enabled: false
Nonlinearity correction enabled: false
Boxcar width: 5
Stray light correction enabled: false
XAxis mode: Wavelengths
Stop averaging: false
Number of Pixels in Spectrum: 3648
>>>>>Begin Spectral Data<<<<<
177.575	1382.22
177.794	438
178.014	438.03
178.233	417.65
178.452	779.03
178.672	757.81
178.891	509.62
179.11	-371.43
179.33	98.84
179.549	48.79
179.768	78.15
179.987	70.33
180.207	67.31
180.426	50.68
180.645	-32.4
180.864	-23.91
181.084	56.1
181.303	128.7
181.522	130.41
181.741	647.5
181.96	-321.62
182.179	-706.38
182.398	-524
182.618	350.34
182.837	480.2
183.056	411.56
183.275	286.42
183.494	145.22
183.713	279.1
183.932	392.23
184.151	339.85
184.37	-12350
184.589	-1142.5
184.808	-389.6
185.027	-310.87
185.246	-517
185.465	-436.8
185.684	-421.64
185.903	-173.36
186.122	-277.37
186.341	-227.87
186.56	-115.76
186.779	-196.02
186.998	-117.95
187.216	-104.55
187.435	-40.36
187.654	-32.6
187.873	2.32
188.092	0.76
188.311	-25.4
188.53	29.02
188.748	32.41
188.967	108.73
189.186	-99.27
189.405	-14.86
189.623	24.32
189.842	2.18
190.061	-342.31
190.28	6.29
190.498	48.55
190.717	52.14
190.936	98.53
191.154	107.64
191.373	190.61
191.592	-498.77
191.81	-300.89
192.029	-100.5
192.248	-116.78
192.466	-264.44
192.685	-48.82
192.904	4.5
193.122	11.28
193.341	11.27
193.559	18.4
193.778	12.35
193.996	24.15
194.215	39.14
194.433	17.78
194.652	8.05
194.87	-20.98
195.089	-19.85
195.307	-708.33
195.526	18.25
195.744	-60.87
195.963	-494.74
196.181	69.93
196.399	14.17
196.618	-64.81
196.836	24.14
197.055	13.03
197.273	4.53
197.491	-24.43
197.71	-40.75
197.928	-63.5
198.146	-94.93
198.365	-97.06
198.583	-196.12
198.801	-116.59
199.019	-88.46
199.238	305.88
199.456	305.93
199.674	349.06
199.892	7.04
200.111	8.24
200.329	-29.71
200.547	40.98
200.765	26.75
200.983	65.24
201.202	62.21
201.42	87.61
201.638	69.69
201.856	105.54
202.074	79.72
202.292	77.33
202.51	136.42
202.728	127.51
202.946	182.52
203.165	188.43
203.383	60.57
203.601	118.31
203.819	69.82
204.037	88.25
204.255	6.32
204.473	82.46
204.691	56.25
204.909	44.36
205.127	48.38
205.345	38.94
205.562	38.68
205.78	48.68
205.998	29.22
206.216	25.67
206.434	17.24
206.652	26.15
206.87	9.27
207.088	6.6
207.306	-55.24
207.523	-78.61
207.741	-89.61
207.959	264.41
208.177	136.04
208.395	88.32
208.612	96.38
208.83	200
209.048	199.3
209.266	108.79
209.483	66.21
209.701	108.75
209.919	56
210.136	77.19
210.354	-45.71
210.572	131.08
210.79	167.24
211.007	85.56
211.225	197.48
211.442	141.05
211.66	71.03
211.878	31.8
212.095	69.95
212.313	68.12
212.53	77.29
212.748	-9.68
212.966	-18.01
213.183	-10.71
213.401	7.77
213.618	-39.13
213.836	-27.81
214.053	14.12
214.271	26.23
214.488	5.48
214.705	11.6
214.923	14.85
215.14	7.29
215.358	-16.61
215.575	-37.73
215.793	-39.25
216.01	-8.42
216.227	-15.35
216.445	-54.4
216.662	-64.53
216.879	-43.54
217.097	-45.26
217.314	-44.77
217.531	-29.17
217.749	0.53
217.966	8.05
218.183	4.31
218.4	-3.96
218.618	-8.45
218.835	-0.07
219.052	1.38
219.269	0.28
219.487	-1.01
219.704	-13.25
219.921	-7.89
220.138	-13.41
220.355	-19.31
220.572	-13.38
220.79	-11.45
221.007	-3.26
221.224	-5.26
221.441	-6.16
221.658	0.71
221.875	-5.57
222.092	-2.17
222.309	1.08
222.526	2.12
222.743	9.43
222.96	-1.61
223.177	0.77
223.394	-6.24
223.611	-11.91
223.828	-4.95
224.045	-11.98
224.262	-5.97
224.479	-5.2
224.696	-2.15
224.913	-7.68
225.13	-15.53
225.347	-10.58
225.564	-15.19
225.781	-12.07
225.997	-5.27
226.214	-5.24
226.431	-6.67
226.648	-7.66
226.865	-6.55
227.082	-6.02
227.298	-3.23
227.515	0.57
227.732	0.37
227.949	1.8
228.165	2.36
228.382	2.29
228.599	3.49
228.816	4.49
229.032	4.54
229.249	4.42
229.466	4.65
229.682	4.66
229.899	4.05
230.116	3.52
230.332	3.18
230.549	2.16
230.765	1.99
230.982	-0.03
231.199	-1.12
231.415	-0.31
231.632	-1.49
231.848	-4.16
232.065	-5.85
232.281	-5.46
232.498	-5.59
232.714	-5.3
232.931	-4.04
233.147	-4.41
233.364	-3.21
233.58	-2.61
233.797	-2.49
234.013	-0.43
234.23	0.55
234.446	1.41
234.662	0.07
234.879	0.28
235.095	0.58
235.312	-0.49
235.528	-0.63
235.744	-0.92
235.961	-0.34
236.177	-1.1
236.393	-1.43
236.61	-1.47
236.826	-0.95
237.042	0.26
237.258	0.52
237.475	0.14
237.691	0.15
237.907	0.03
238.123	1.37
238.339	1.37
238.556	2.34
238.772	3.59
238.988	3.57
239.204	3.19
239.42	3.37
239.636	3.25
239.853	2.61
240.069	2.47
240.285	3.06
240.501	1.58
240.717	2.33
240.933	2.69
241.149	1.69
241.365	2.11
241.581	2.86
241.797	2.33
242.013	2.85
242.229	3.12
242.445	3.6
242.661	3.47
242.877	4.95
243.093	3.94
243.309	3.8
243.525	3.61
243.741	3.12
243.957	2.41
244.173	3.2
244.388	3.31
244.604	3.18
244.82	2.62
245.036	2.68
245.252	1.45
245.468	1.77
245.683	1.61
245.899	2.48
246.115	2.67
246.331	2.92
246.547	2.8
246.762	2.96
246.978	3.22
247.194	3.31
247.409	3.27
247.625	3.58
247.841	3.65
248.057	3.58
248.272	3.41
248.488	3.31
248.703	3.31
248.919	3.43
249.135	3.03
249.35	2.89
249.566	3.11
249.782	2.83
249.997	2.45
250.213	2.77
250.428	3.34
250.644	2.79
250.859	3.73
251.075	3.22
251.29	2.76
251.506	2.82
251.721	2.78
251.937	1.85
252.152	2.32
252.368	1.98
252.583	1.75
252.798	1.41
253.014	1.66
253.229	0.65
253.445	0.9
253.66	0.58
253.875	1.31
254.091	1.55
254.306	2.13
254.521	0.86
254.737	0.05
254.952	0.04
255.167	-0.12
255.383	0.45
255.598	0.37
255.813	0.47
256.028	0.3
256.244	-0.99
256.459	-1.43
256.674	-1.56
256.889	-0.53
257.104	-0.39
257.32	-0.66
257.535	-0.55
257.75	-0.52
257.965	0.32
258.18	0.42
258.395	1.19
258.61	1.76
258.826	2.18
259.041	2.5
259.256	2.78
259.471	3.01
259.686	3.38
259.901	3.27
260.116	3.23
260.331	3.08
260.546	3.14
260.761	3.08
260.976	2.92
261.191	2.73
261.406	2.72
261.621	2.85
261.836	2.86
262.05	2.97
262.265	3.2
262.48	3.37
262.695	3.24
262.91	3.09
263.125	2.83
263.34	2.45
263.555	2.13
263.769	1.61
263.984	0.93
264.199	0.74
264.414	0.23
264.629	0.17
264.843	0.11
265.058	0.78
265.273	1.04
265.488	1.09
265.702	1.1
265.917	1.79
266.132	2.23
266.346	2.05
266.561	2.16
266.776	2.05
266.99	1.67
267.205	1.68
267.42	1.43
267.634	1.47
267.849	1.87
268.063	2.14
268.278	2.16
268.492	1.75
268.707	1.29
268.922	1.22
269.136	1
269.351	1.04
269.565	0.94
269.78	0.77
269.994	0.3
270.209	-0.15
270.423	-0.17
270.637	-0.85
270.852	-0.4
271.066	0.28
271.281	0.02
271.495	-0
271.709	0.1
271.924	0.22
272.138	0.27
272.353	0.71
272.567	1.04
272.781	1.18
272.996	1.47
273.21	1.21
273.424	0.76
273.638	0.93
273.853	1.02
274.067	1.13
274.281	0.98
274.495	1.06
274.71	0.24
274.924	-0.36
275.138	-0.47
275.352	-0.33
275.566	-0.28
275.781	0.41
275.995	0.6
276.209	1.04
276.423	1.01
276.637	1.16
276.851	1.2
277.065	2
277.279	2.19
277.493	2.39
277.707	1.99
277.921	2.18
278.135	1.95
278.349	1.74
278.563	1.73
278.777	1.45
278.991	1.45
279.205	1.35
279.419	1.06
279.633	1.19
279.847	0.97
280.061	1.34
280.275	0.77
280.489	0.99
280.703	1.4
280.917	1.27
281.131	1.61
281.344	1.48
281.558	1.35
281.772	1.64
281.986	1.96
282.2	2.06
282.414	2.03
282.627	2.41
282.841	2.44
283.055	2.11
283.269	2.05
283.482	1.84
283.696	1.82
283.91	1.96
284.123	1.82
284.337	1.55
284.551	1.63
284.764	1.75
284.978	1.62
285.192	1.51
285.405	1.64
285.619	1.6
285.833	1.51
286.046	1.7
286.26	2.12
286.473	2.13
286.687	2.21
286.9	2.05
287.114	1.98
287.327	2.26
287.541	2.02
287.754	2.15
287.968	2.28
288.181	2.35
288.395	2.46
288.608	2.08
288.822	1.99
289.035	1.83
289.248	1.82
289.462	1.84
289.675	1.82
289.889	2.4
290.102	2.45
290.315	2.48
290.529	3.01
290.742	2.7
290.955	2.92
291.169	3.17
291.382	3.37
291.595	3.62
291.808	3.67
292.022	3.73
292.235	3.44
292.448	3.38
292.661	3.34
292.875	3.29
293.088	3.64
293.301	3.55
293.514	3.3
293.727	3.07
293.94	3.23
294.153	3.17
294.367	3.11
294.58	3.2
294.793	3.14
295.006	3.12
295.219	3.02
295.432	3.11
295.645	3.07
295.858	3.2
296.071	3.47
296.284	3.42
296.497	3.47
296.71	3.73
296.923	3.7
297.136	3.64
297.349	3.62
297.562	3.7
297.775	3.64
297.988	3.8
298.201	4.02
298.414	3.94
298.626	3.97
298.839	4.13
299.052	3.87
299.265	3.76
299.478	4.09
299.691	4.32
299.903	4.32
300.116	4.41
300.329	4.78
300.542	4.75
300.755	5.16
300.967	5.36
301.18	5.34
301.393	5.68
301.605	5.72
301.818	5.45
302.031	5.21
302.243	5.18
302.456	5
302.669	4.55
302.881	4.76
303.094	4.64
303.307	4.82
303.519	4.61
303.732	4.53
303.944	4.77
304.157	5.27
304.37	5.47
304.582	5.27
304.795	5.79
305.007	5.82
305.22	5.54
305.432	5.38
305.645	5.24
305.857	5.51
306.069	5.46
306.282	5.53
306.494	5.31
306.707	5.56
306.919	5.92
307.132	5.61
307.344	5.8
307.556	6.08
307.769	6.49
307.981	6.45
308.193	6.57
308.406	6.77
308.618	6.96
308.83	7.22
309.043	7.13
309.255	7.01
309.467	7.32
309.679	7.36
309.892	7.18
310.104	7.07
310.316	7.05
310.528	7.03
310.74	7.04
310.953	6.86
311.165	6.58
311.377	6.69
311.589	6.87
311.801	6.63
312.013	6.57
312.225	6.76
312.437	6.79
312.649	7.08
312.862	6.98
313.074	6.83
313.286	6.95
313.498	6.84
313.71	7.16
313.922	7.01
314.134	7.24
314.346	7.34
314.558	7.2
314.77	7.31
314.982	7.02
315.193	7.3
315.405	7.18
315.617	7.18
315.829	7.54
316.041	6.99
316.253	7.08
316.465	7.09
316.677	7.16
316.888	6.98
317.1	6.77
317.312	6.62
317.524	6.53
317.736	6.92
317.947	7
318.159	6.78
318.371	6.99
318.583	6.82
318.794	6.71
319.006	6.66
319.218	7.26
319.43	7.39
319.641	7.42
319.853	7.54
320.064	7.27
320.276	7.02
320.488	7.16
320.699	6.95
320.911	7.2
321.123	6.9
321.334	6.7
321.546	6.7
321.757	6.82
321.969	7.34
322.18	7.47
322.392	7.9
322.603	7.82
322.815	8.25
323.026	8.73
323.238	8.82
323.449	9.34
323.661	9.42
323.872	9.01
324.083	8.88
324.295	8.84
324.506	9.04
324.718	8.74
324.929	8.98
325.14	9.01
325.352	8.97
325.563	9.13
325.774	9.16
325.986	9.29
326.197	9.51
326.408	9.78
326.62	10.04
326.831	10.04
327.042	10.71
327.253	10.9
327.464	10.81
327.676	10.84
327.887	10.84
328.098	11.01
328.309	11.12
328.52	11.7
328.732	11.74
328.943	11.46
329.154	11.58
329.365	11.26
329.576	11.17
329.787	11.18
329.998	11.26
330.209	11.1
330.42	10.8
330.631	10.88
330.842	10.34
331.053	10.33
331.264	10.46
331.475	10.36
331.686	10.63
331.897	10.82
332.108	11.16
332.319	11.23
332.53	11.29
332.741	11.47
332.952	11.38
333.163	11.43
333.374	11.51
333.585	11.49
333.795	11.38
334.006	11.2
334.217	11.09
334.428	10.81
334.639	10.8
334.849	11
335.06	11.09
335.271	11.03
335.482	11.22
335.692	10.95
335.903	11.08
336.114	11.12
336.325	11.31
336.535	11.33
336.746	11.45
336.957	11.15
337.167	11.01
337.378	10.84
337.589	10.87
337.799	10.6
338.01	10.5
338.22	10.19
338.431	9.98
338.642	9.72
338.852	9.6
339.063	9.56
339.273	9.63
339.484	9.56
339.694	9.61
339.905	9.73
340.115	9.67
340.326	10.15
340.536	10.32
340.746	10.54
340.957	10.59
341.167	10.77
341.378	10.78
341.588	10.97
341.799	11.23
342.009	11.52
342.219	11.52
342.43	11.87
342.64	11.67
342.85	11.87
343.061	11.91
343.271	11.7
343.481	11.78
343.691	11.48
343.902	11.35
344.112	10.96
344.322	10.82
344.532	10.71
344.743	10.41
344.953	10.28
345.163	9.93
345.373	9.88
345.583	9.84
345.793	9.8
346.004	10.18
346.214	9.99
346.424	10
346.634	10.03
346.844	10.11
347.054	10.25
347.264	10.26
347.474	10.18
347.684	9.99
347.894	10.07
348.104	10.11
348.314	9.82
348.524	10.22
348.734	10.45
348.944	10.15
349.154	10.28
349.364	10.48
349.574	10.24
349.784	10.38
349.994	10.29
350.204	10.4
350.413	10.48
350.623	10.6
350.833	10.23
351.043	9.84
351.253	9.8
351.463	9.73
351.672	9.67
351.882	9.77
352.092	9.94
352.302	9.92
352.511	9.92
352.721	9.68
352.931	9.76
353.141	9.8
353.35	10.15
353.56	10.46
353.77	10.44
353.979	10.33
354.189	10.37
354.399	10.17
354.608	10.35
354.818	10.4
355.027	10.36
355.237	10.21
355.447	10.17
355.656	9.97
355.866	9.75
356.075	9.48
356.285	9.61
356.494	9.81
356.704	9.77
356.913	9.71
357.123	9.32
357.332	9.43
357.542	9.32
357.751	9.61
357.96	9.57
358.17	9.54
358.379	9.53
358.589	9.25
358.798	9.2
359.007	9.05
359.217	9.07
359.426	9.32
359.635	9.44
359.845	9.49
360.054	9.42
360.263	9.57
360.472	9.6
360.682	9.76
360.891	9.87
361.1	9.94
361.309	10.07
361.519	10.22
361.728	10.05
361.937	9.91
362.146	9.94
362.355	9.8
362.564	9.75
362.774	9.95
362.983	9.86
363.192	9.72
363.401	9.59
363.61	9.83
363.819	9.66
364.028	9.81
364.237	9.67
364.446	9.58
364.655	9.42
364.864	9.54
365.073	9.09
365.282	8.91
365.491	8.83
365.7	8.68
365.909	8.45
366.118	8.21
366.327	8.29
366.536	8.34
366.745	8.29
366.954	8.39
367.162	8.43
367.371	8.48
367.58	8.81
367.789	8.83
367.998	8.98
368.207	9.01
368.415	9.24
368.624	8.99
368.833	9.03
369.042	9.05
369.25	9.05
369.459	8.69
369.668	8.97
369.877	8.64
370.085	8.73
370.294	8.5
370.503	8.56
370.711	8.06
370.92	7.92
371.129	7.71
371.337	7.5
371.546	7.29
371.754	7.24
371.963	7
372.171	7.2
372.38	7.1
372.589	7.17
372.797	7.11
373.006	7.31
373.214	7.48
373.423	7.33
373.631	7.14
373.84	7.13
374.048	7.18
374.256	7.04
374.465	6.99
374.673	6.79
374.882	6.79
375.09	6.6
375.298	6.78
375.507	6.83
375.715	6.9
375.923	7.15
376.132	7.23
376.34	7.23
376.548	7.18
376.757	7.03
376.965	7.17
377.173	7.04
377.381	6.96
377.59	6.84
377.798	6.59
378.006	6.64
378.214	6.79
378.423	6.73
378.631	6.66
378.839	6.72
379.047	6.64
379.255	6.4
379.463	6.37
379.671	6.12
379.879	5.82
380.088	5.89
380.296	5.86
380.504	5.72
380.712	5.66
380.92	5.52
381.128	5.46
381.336	5.63
381.544	5.64
381.752	5.91
381.96	6.03
382.168	6.14
382.376	6.19
382.584	6.31
382.791	6.16
382.999	6.36
383.207	6.44
383.415	6.37
383.623	6.25
383.831	6.34
384.039	6.1
384.247	6.19
384.454	6.36
384.662	6
384.87	5.78
385.078	5.55
385.285	5.24
385.493	5.34
385.701	5.41
385.909	5.36
386.116	5.35
386.324	5.31
386.532	5.08
386.739	4.9
386.947	5.07
387.155	5.16
387.362	5.41
387.57	5.36
387.778	5.31
387.985	5.16
388.193	5.22
388.4	5.01
388.608	4.84
388.816	4.85
389.023	4.68
389.231	4.92
389.438	4.77
389.646	4.84
389.853	4.91
390.061	4.84
390.268	4.87
390.475	4.62
390.683	4.68
390.89	4.85
391.098	4.84
391.305	5.12
391.512	5
391.72	5.05
391.927	4.78
392.135	4.82
392.342	4.99
392.549	5.04
392.756	5.03
392.964	5.13
393.171	5.05
393.378	5.07
393.586	4.87
393.793	4.81
394	4.79
394.207	4.89
394.414	4.99
394.622	4.66
394.829	4.58
395.036	4.62
395.243	4.57
395.45	4.57
395.657	4.49
395.864	4.61
396.072	4.6
396.279	4.59
396.486	4.65
396.693	4.58
396.9	4.74
397.107	4.56
397.314	4.56
397.521	4.59
397.728	4.36
397.935	4.33
398.142	4.22
398.349	4.11
398.556	4.2
398.763	4.05
398.97	3.84
399.177	3.65
399.383	3.73
399.59	3.53
399.797	3.42
400.004	3.48
400.211	3.57
400.418	3.67
400.625	3.7
400.831	3.68
401.038	3.79
401.245	4.01
401.452	4.1
401.658	4.12
401.865	4.37
402.072	4.39
402.279	4.63
402.485	4.5
402.692	4.55
402.899	4.46
403.105	4.2
403.312	4.13
403.519	4.06
403.725	3.9
403.932	3.88
404.138	3.9
404.345	4
404.552	3.9
404.758	3.97
404.965	3.9
405.171	3.93
405.378	4.14
405.584	4.25
405.791	4.16
405.997	4.24
406.204	4.37
406.41	4.17
406.617	4.05
406.823	4.02
407.029	4.12
407.236	4.07
407.442	3.99
407.649	4.04
407.855	3.92
408.061	3.99
408.268	3.95
408.474	3.91
408.68	4.04
408.887	4.12
409.093	4.07
409.299	4.04
409.505	4.08
409.712	4.29
409.918	4.16
410.124	4.24
410.33	4.26
410.537	4.34
410.743	4.34
410.949	4.31
411.155	4.24
411.361	4.29
411.567	4.23
411.773	4.26
411.98	4.26
412.186	4.54
412.392	4.43
412.598	4.31
412.804	4.33
413.01	4.31
413.216	4.41
413.422	4.36
413.628	4.28
413.834	4.31
414.04	4.27
414.246	4.19
414.452	3.94
414.658	4.01
414.864	4.12
415.07	4.23
415.275	4.25
415.481	4.28
415.687	4.54
415.893	4.7
416.099	4.74
416.305	4.8
416.511	4.81
416.716	4.82
416.922	4.91
417.128	5.01
417.334	4.93
417.539	4.92
417.745	4.84
417.951	4.7
418.157	4.68
418.362	4.69
418.568	4.62
418.774	4.69
418.979	4.73
419.185	4.67
419.391	4.62
419.596	4.64
419.802	4.67
420.008	4.74
420.213	4.43
420.419	4.44
420.624	4.49
420.83	4.51
421.035	4.47
421.241	4.49
421.446	4.49
421.652	4.47
421.857	4.44
422.063	4.44
422.268	4.43
422.474	4.74
422.679	4.73
422.885	4.73
423.09	4.78
423.295	4.76
423.501	4.75
423.706	4.79
423.911	4.76
424.117	4.81
424.322	4.81
424.527	4.82
424.733	4.87
424.938	4.82
425.143	4.75
425.349	4.78
425.554	4.79
425.759	4.77
425.964	4.76
426.169	4.82
426.375	4.82
426.58	4.86
426.785	4.8
426.99	4.76
427.195	4.83
427.4	4.8
427.605	4.78
427.811	4.82
428.016	4.85
428.221	4.81
428.426	4.83
428.631	4.77
428.836	4.67
429.041	4.71
429.246	4.73
429.451	4.74
429.656	4.81
429.861	4.76
430.066	4.86
430.271	4.86
430.476	4.73
430.681	4.72
430.886	4.75
431.09	4.87
431.295	4.88
431.5	4.92
431.705	4.91
431.91	4.89
432.115	4.93
432.32	4.83
432.524	4.89
432.729	5.04
432.934	5.15
433.139	5.14
433.343	5.14
433.548	5.06
433.753	5.07
433.958	5.13
434.162	5.19
434.367	5.15
434.572	5.09
434.776	5.06
434.981	5.05
435.186	4.91
435.39	4.9
435.595	4.88
435.799	5.03
436.004	4.95
436.209	4.91
436.413	4.88
436.618	5.01
436.822	5.1
437.027	5.08
437.231	5
437.436	5.06
437.64	5.15
437.845	5.16
438.049	5.24
438.253	5.21
438.458	5.22
438.662	5.16
438.867	5.05
439.071	5.14
439.275	5.12
439.48	5.19
439.684	5.27
439.888	5.25
440.093	5.28
440.297	5.21
440.501	5.31
440.706	5.29
440.91	5.36
441.114	5.38
441.318	5.38
441.523	5.45
441.727	5.39
441.931	5.35
442.135	5.3
442.339	5.25
442.543	5.27
442.748	5.25
442.952	5.25
443.156	5.23
443.36	5.34
443.564	5.26
443.768	5.22
443.972	5.26
444.176	5.25
444.38	5.32
444.584	5.33
444.788	5.31
444.992	5.31
445.196	5.38
445.4	5.42
445.604	5.38
445.808	5.41
446.012	5.46
446.216	5.49
446.42	5.44
446.624	5.37
446.828	5.41
447.032	5.36
447.235	5.34
447.439	5.3
447.643	5.31
447.847	5.32
448.051	5.27
448.254	5.2
448.458	5.25
448.662	5.34
448.866	5.43
449.069	5.36
449.273	5.42
449.477	5.47
449.681	5.49
449.884	5.41
450.088	5.37
450.292	5.45
450.495	5.41
450.699	5.35
450.902	5.27
451.106	5.26
451.31	5.25
451.513	5.22
451.717	5.07
451.92	5.02
452.124	5.08
452.327	5.01
452.531	5.01
452.734	5.06
452.938	4.98
453.141	5.05
453.345	4.98
453.548	5.02
453.752	4.97
453.955	5.04
454.158	5.11
454.362	5.09
454.565	5.17
454.769	5.2
454.972	5.18
455.175	5.26
455.379	5.23
455.582	5.24
455.785	5.22
455.988	5.34
456.192	5.47
456.395	5.5
456.598	5.55
456.801	5.53
457.005	5.52
457.208	5.51
457.411	5.53
457.614	5.45
457.817	5.46
458.021	5.61
458.224	5.58
458.427	5.55
458.63	5.58
458.833	5.58
459.036	5.59
459.239	5.55
459.442	5.54
459.645	5.52
459.848	5.53
460.051	5.49
460.254	5.45
460.457	5.49
460.66	5.38
460.863	5.32
461.066	5.28
461.269	5.32
461.472	5.33
461.675	5.38
461.878	5.37
462.081	5.41
462.284	5.43
462.486	5.33
462.689	5.31
462.892	5.44
463.095	5.43
463.298	5.37
463.5	5.34
463.703	5.33
463.906	5.3
464.109	5.28
464.311	5.3
464.514	5.44
464.717	5.49
464.92	5.42
465.122	5.36
465.325	5.47
465.528	5.51
465.73	5.51
465.933	5.51
466.135	5.64
466.338	5.79
466.541	5.71
466.743	5.62
466.946	5.66
467.148	5.72
467.351	5.71
467.553	5.63
467.756	5.65
467.958	5.57
468.161	5.56
468.363	5.5
468.566	5.43
468.768	5.4
468.971	5.52
469.173	5.53
469.375	5.53
469.578	5.59
469.78	5.61
469.983	5.54
470.185	5.6
470.387	5.52
470.59	5.41
470.792	5.39
470.994	5.5
471.196	5.46
471.399	5.45
471.601	5.41
471.803	5.38
472.005	5.39
472.208	5.42
472.41	5.46
472.612	5.63
472.814	5.67
473.016	5.68
473.218	5.68
473.421	5.57
473.623	5.57
473.825	5.67
474.027	5.68
474.229	5.65
474.431	5.74
474.633	5.66
474.835	5.64
475.037	5.68
475.239	5.73
475.441	5.73
475.643	5.75
475.845	5.67
476.047	5.72
476.249	5.74
476.451	5.75
476.653	5.7
476.855	5.73
477.057	5.72
477.258	5.7
477.46	5.59
477.662	5.63
477.864	5.65
478.066	5.72
478.268	5.65
478.469	5.64
478.671	5.69
478.873	5.76
479.075	5.71
479.276	5.62
479.478	5.67
479.68	5.69
479.882	5.66
480.083	5.71
480.285	5.65
480.487	5.71
480.688	5.69
480.89	5.66
481.091	5.61
481.293	5.67
481.495	5.75
481.696	5.69
481.898	5.73
482.099	5.7
482.301	5.71
482.502	5.7
482.704	5.69
482.905	5.7
483.107	5.72
483.308	5.73
483.51	5.73
483.711	5.73
483.913	5.75
484.114	5.73
484.315	5.74
484.517	5.71
484.718	5.74
484.92	5.73
485.121	5.77
485.322	5.75
485.524	5.75
485.725	5.75
485.926	5.71
486.127	5.71
486.329	5.73
486.53	5.71
486.731	5.73
486.932	5.72
487.134	5.72
487.335	5.69
487.536	5.66
487.737	5.69
487.938	5.68
488.139	5.69
488.341	5.68
488.542	5.66
488.743	5.7
488.944	5.73
489.145	5.68
489.346	5.65
489.547	5.66
489.748	5.69
489.949	5.64
490.15	5.66
490.351	5.7
490.552	5.71
490.753	5.72
490.954	5.71
491.155	5.7
491.356	5.75
491.557	5.79
491.758	5.79
491.959	5.78
492.159	5.83
492.36	5.86
492.561	5.86
492.762	5.89
492.963	5.95
493.164	5.97
493.364	6
493.565	6
493.766	6
493.967	6
494.167	6.04
494.368	6.05
494.569	5.97
494.769	6
494.97	5.97
495.171	5.92
495.371	5.92
495.572	5.91
495.773	5.97
495.973	6
496.174	6.01
496.375	6.05
496.575	6.03
496.776	6.1
496.976	6.13
497.177	6.17
497.377	6.23
497.578	6.28
497.778	6.25
497.979	6.24
498.179	6.25
498.38	6.38
498.58	6.32
498.78	6.31
498.981	6.29
499.181	6.24
499.382	6.29
499.582	6.26
499.782	6.27
499.983	6.33
500.183	6.33
500.383	6.44
500.584	6.31
500.784	6.44
500.984	6.56
501.184	6.63
501.385	6.71
501.585	6.67
501.785	6.65
501.985	6.7
502.185	6.79
502.386	6.85
502.586	6.79
502.786	6.86
502.986	6.88
503.186	6.87
503.386	6.92
503.586	6.88
503.786	7.06
503.987	7.18
504.187	7.1
504.387	7.13
504.587	7.12
504.787	7.09
504.987	7.16
505.187	7.19
505.387	7.24
505.587	7.26
505.786	7.3
505.986	7.25
506.186	7.26
506.386	7.36
506.586	7.35
506.786	7.46
506.986	7.59
507.186	7.51
507.386	7.54
507.585	7.61
507.785	7.77
507.985	7.84
508.185	7.94
508.384	7.98
508.584	8.03
508.784	8.07
508.984	8.1
509.183	8.07
509.383	8.22
509.583	8.32
509.782	8.29
509.982	8.28
510.182	8.31
510.381	8.35
510.581	8.44
510.781	8.47
510.98	8.51
511.18	8.57
511.379	8.67
511.579	8.73
511.778	8.72
511.978	8.8
512.177	8.88
512.377	8.94
512.576	8.96
512.776	8.92
512.975	9.06
513.175	9.13
513.374	9.23
513.573	9.36
513.773	9.44
513.972	9.56
514.172	9.58
514.371	9.55
514.57	9.6
514.77	9.74
514.969	9.88
515.168	9.91
515.367	10.13
515.567	10.2
515.766	10.27
515.965	10.35
516.164	10.41
516.364	10.69
516.563	10.83
516.762	11.03
516.961	11.08
517.16	11.23
517.359	11.35
517.559	11.4
517.758	11.44
517.957	11.48
518.156	11.51
518.355	11.63
518.554	11.61
518.753	11.7
518.952	11.74
519.151	11.78
519.35	11.87
519.549	11.83
519.748	11.9
519.947	11.97
520.146	12.01
520.345	12.17
520.544	12.23
520.743	12.31
520.942	12.46
521.141	12.55
521.339	12.66
521.538	12.68
521.737	12.83
521.936	12.93
522.135	13.1
522.333	13.25
522.532	13.33
522.731	13.5
522.93	13.61
523.129	13.7
523.327	13.75
523.526	13.87
523.725	14.06
523.923	14.23
524.122	14.35
524.321	14.47
524.519	14.61
524.718	14.68
524.917	14.82
525.115	14.98
525.314	15.03
525.512	15.18
525.711	15.31
525.909	15.43
526.108	15.54
526.306	15.64
526.505	15.74
526.703	15.88
526.902	16.02
527.1	16.12
527.299	16.21
527.497	16.31
527.696	16.38
527.894	16.45
528.092	16.5
528.291	16.54
528.489	16.59
528.688	16.62
528.886	16.67
529.084	16.73
529.283	16.74
529.481	16.79
529.679	16.86
529.877	16.94
530.076	16.96
530.274	17.04
530.472	17.15
530.67	17.21
530.869	17.29
531.067	17.38
531.265	17.49
531.463	17.66
531.661	17.77
531.859	17.84
532.057	17.94
532.255	18.05
532.454	18.13
532.652	18.22
532.85	18.37
533.048	18.44
533.246	18.52
533.444	18.58
533.642	18.59
533.84	18.65
534.038	18.74
534.236	18.8
534.434	18.86
534.632	18.94
534.83	18.95
535.027	19
535.225	19.05
535.423	19.1
535.621	19.16
535.819	19.26
536.017	19.35
536.215	19.4
536.412	19.48
536.61	19.6
536.808	19.62
537.006	19.69
537.203	19.75
537.401	19.88
537.599	19.98
537.797	20.03
537.994	20.04
538.192	20.09
538.39	20.2
538.587	20.27
538.785	20.33
538.983	20.45
539.18	20.58
539.378	20.67
539.575	20.8
539.773	20.81
539.97	20.9
540.168	21.02
540.366	21.08
540.563	21.11
540.761	21.14
540.958	21.19
541.155	21.25
541.353	21.27
541.55	21.3
541.748	21.3
541.945	21.37
542.143	21.41
542.34	21.4
542.537	21.41
542.735	21.43
542.932	21.49
543.129	21.51
543.327	21.54
543.524	21.65
543.721	21.68
543.919	21.73
544.116	21.79
544.313	21.84
544.51	22.03
544.708	22.16
544.905	22.28
545.102	22.43
545.299	22.53
545.496	22.59
545.693	22.67
545.891	22.79
546.088	22.8
546.285	22.78
546.482	22.77
546.679	22.73
546.876	22.68
547.073	22.65
547.27	22.56
547.467	22.49
547.664	22.44
547.861	22.3
548.058	22.24
548.255	22.3
548.452	22.29
548.649	22.32
548.846	22.3
549.043	22.33
549.24	22.33
549.437	22.32
549.633	22.32
549.83	22.26
550.027	22.37
550.224	22.37
550.421	22.37
550.618	22.41
550.814	22.41
551.011	22.43
551.208	22.44
551.405	22.51
551.601	22.58
551.798	22.64
551.995	22.73
552.191	22.74
552.388	22.74
552.585	22.76
552.781	22.72
552.978	22.71
553.175	22.7
553.371	22.79
553.568	22.74
553.764	22.74
553.961	22.74
554.157	22.78
554.354	22.72
554.55	22.83
554.747	22.86
554.943	22.88
555.14	22.9
555.336	23.02
555.533	22.96
555.729	23
555.926	22.88
556.122	22.93
556.318	22.93
556.515	23
556.711	22.95
556.907	22.98
557.104	23.08
557.3	23.03
557.496	23.03
557.693	22.99
557.889	23.04
558.085	23.2
558.281	23.22
558.478	23.29
558.674	23.25
558.87	23.18
559.066	23.12
559.262	23.15
559.459	23.18
559.655	23.07
559.851	23.25
560.047	23.25
560.243	23.23
560.439	23.19
560.635	23.22
560.831	23.23
561.027	23.28
561.223	23.33
561.419	23.32
561.615	23.3
561.811	23.35
562.007	23.32
562.203	23.29
562.399	23.26
562.595	23.36
562.791	23.36
562.987	23.48
563.183	23.47
563.379	23.5
563.575	23.51
563.771	23.63
563.966	23.67
564.162	23.72
564.358	23.77
564.554	23.88
564.75	23.82
564.945	23.73
565.141	23.59
565.337	23.68
565.533	23.73
565.728	23.72
565.924	23.7
566.12	23.72
566.315	23.55
566.511	23.56
566.707	23.56
566.902	23.51
567.098	23.53
567.293	23.66
567.489	23.64
567.684	23.65
567.88	23.73
568.076	23.74
568.271	23.69
568.467	23.75
568.662	23.81
568.858	23.78
569.053	23.81
569.248	23.86
569.444	23.82
569.639	23.81
569.835	23.76
570.03	23.72
570.225	23.75
570.421	23.81
570.616	23.94
570.812	23.86
571.007	23.87
571.202	24
571.397	23.96
571.593	24.1
571.788	24.16
571.983	24.17
572.178	24.19
572.374	24.23
572.569	24.2
572.764	24.28
572.959	24.3
573.154	24.33
573.35	24.23
573.545	24.28
573.74	24.23
573.935	24.18
574.13	24.25
574.325	24.31
574.52	24.35
574.715	24.43
574.91	24.32
575.105	24.35
575.3	24.35
575.495	24.42
575.69	24.4
575.885	24.39
576.08	24.42
576.275	24.34
576.47	24.28
576.665	24.14
576.86	24.08
577.055	24.11
577.25	24.2
577.444	24.22
577.639	24.22
577.834	24.36
578.029	24.41
578.224	24.51
578.418	24.58
578.613	24.49
578.808	24.58
579.003	24.75
579.197	24.71
579.392	24.7
579.587	24.72
579.781	24.76
579.976	24.63
580.171	24.58
580.365	24.43
580.56	24.44
580.755	24.59
580.949	24.7
581.144	24.63
581.338	24.71
581.533	24.76
581.727	24.83
581.922	24.77
582.116	24.93
582.311	24.81
582.505	24.99
582.7	24.95
582.894	24.96
583.089	25
583.283	24.98
583.478	24.85
583.672	24.86
583.866	24.81
584.061	24.92
584.255	24.94
584.449	25.09
584.644	25.02
584.838	25.06
585.032	24.98
585.226	24.89
585.421	25.03
585.615	25.16
585.809	25.03
586.003	25.28
586.198	25.18
586.392	25.09
586.586	25.13
586.78	25.15
586.974	25.18
587.168	25.31
587.363	25.33
587.557	25.24
587.751	25.4
587.945	25.44
588.139	25.16
588.333	25.19
588.527	25.26
588.721	25.38
588.915	25.43
589.109	25.43
589.303	25.37
589.497	25.47
589.691	25.43
589.885	25.37
590.079	25.46
590.273	25.53
590.466	25.54
590.66	25.57
590.854	25.43
591.048	25.45
591.242	25.46
591.436	25.46
591.629	25.65
591.823	25.69
592.017	25.64
592.211	25.64
592.404	25.55
592.598	25.68
592.792	25.61
592.986	25.71
593.179	25.73
593.373	25.78
593.567	25.79
593.76	25.51
593.954	25.65
594.147	25.61
594.341	25.63
594.535	25.8
594.728	25.8
594.922	25.87
595.115	25.71
595.309	25.64
595.502	25.55
595.696	25.59
595.889	25.71
596.083	25.56
596.276	25.55
596.47	25.55
596.663	25.47
596.856	25.48
597.05	25.48
597.243	25.55
597.437	25.53
597.63	25.69
597.823	25.61
598.017	25.49
598.21	25.53
598.403	25.61
598.596	25.57
598.79	25.7
598.983	25.56
599.176	25.63
599.369	25.65
599.563	25.75
599.756	25.6
599.949	25.7
600.142	25.83
600.335	25.82
600.528	25.88
600.722	26.04
600.915	26
601.108	26.14
601.301	26.07
601.494	26.26
601.687	26.26
601.88	26.31
602.073	26.27
602.266	26.38
602.459	26.48
602.652	26.46
602.845	26.33
603.038	26.22
603.231	26.27
603.424	26.33
603.617	26.21
603.809	26.3
604.002	26.23
604.195	26.24
604.388	26.22
604.581	26.24
604.774	26.23
604.966	26.3
605.159	26.37
605.352	26.38
605.545	26.41
605.737	26.31
605.93	26.28
606.123	26.44
606.316	26.46
606.508	26.41
606.701	26.38
606.894	26.32
607.086	26.34
607.279	26.41
607.471	26.31
607.664	26.19
607.857	26.45
608.049	26.62
608.242	26.81
608.434	27.13
608.627	27.33
608.819	27.6
609.012	27.88
609.204	28.14
609.397	28.46
609.589	28.94
609.782	29.39
609.974	29.71
610.166	30.04
610.359	30.22
610.551	30.47
610.743	30.75
610.936	30.97
611.128	31.21
611.32	31.47
611.513	31.45
611.705	31.4
611.897	31.37
612.09	31.28
612.282	31.1
612.474	31.12
612.666	30.96
612.858	30.66
613.051	30.34
613.243	30.15
613.435	29.75
613.627	29.67
613.819	29.41
614.011	29.34
614.203	29.13
614.395	28.93
614.588	28.79
614.78	28.65
614.972	28.62
615.164	28.65
615.356	28.47
615.548	28.35
615.74	28.22
615.932	28.31
616.124	28.15
616.315	28.15
616.507	28.18
616.699	28.08
616.891	27.81
617.083	27.55
617.275	27.44
617.467	27.38
617.659	27.28
617.85	27.26
618.042	27.16
618.234	26.88
618.426	26.89
618.618	26.75
618.809	26.54
619.001	26.66
619.193	26.91
619.384	26.85
619.576	26.79
619.768	26.91
619.959	26.89
620.151	26.89
620.343	27.11
620.534	27.12
620.726	27.13
620.917	27.09
621.109	27.18
621.301	27.17
621.492	27.2
621.684	27.3
621.875	27.31
622.067	27.22
622.258	27.2
622.45	27.2
622.641	27.24
622.832	27.23
623.024	27.24
623.215	27.32
623.407	27.19
623.598	27.22
623.789	27.4
623.981	27.42
624.172	27.66
624.363	27.66
624.555	27.61
624.746	27.59
624.937	27.58
625.129	27.81
625.32	27.66
625.511	27.76
625.702	27.76
625.893	27.62
626.085	27.64
626.276	27.57
626.467	27.56
626.658	27.59
626.849	27.43
627.04	27.53
627.231	27.43
627.422	27.48
627.614	27.42
627.805	27.5
627.996	27.57
628.187	27.54
628.378	27.56
628.569	27.57
628.76	27.63
628.951	27.72
629.142	27.8
629.332	27.78
629.523	27.89
629.714	27.94
629.905	27.87
630.096	27.76
630.287	27.67
630.478	27.63
630.669	27.63
630.859	27.46
631.05	27.55
631.241	27.5
631.432	27.63
631.623	27.68
631.813	27.73
632.004	27.52
632.195	27.51
632.385	27.62
632.576	27.79
632.767	27.74
632.957	27.78
633.148	27.78
633.339	27.62
633.529	27.47
633.72	27.25
633.91	27.17
634.101	27.43
634.292	27.44
634.482	27.36
634.673	27.32
634.863	27.24
635.054	27.25
635.244	27.23
635.435	27.26
635.625	27.43
635.815	27.27
636.006	27.39
636.196	27.59
636.387	27.48
636.577	27.5
636.767	27.35
636.958	27.49
637.148	27.46
637.338	27.54
637.529	27.6
637.719	27.45
637.909	27.69
638.099	27.59
638.29	27.44
638.48	27.49
638.67	27.67
638.86	27.72
639.05	27.57
639.241	27.63
639.431	27.65
639.621	27.57
639.811	27.58
640.001	27.61
640.191	27.57
640.381	27.54
640.571	27.59
640.761	27.4
640.951	27.32
641.141	27.47
641.331	27.48
641.521	27.34
641.711	27.51
641.901	27.73
642.091	27.82
642.281	27.8
642.471	27.68
642.661	27.82
642.851	27.99
643.041	28.03
643.231	28.13
643.42	28.16
643.61	28.17
643.8	28.16
643.99	27.92
644.18	27.93
644.369	27.98
644.559	28.01
644.749	28.05
644.939	27.96
645.128	28.1
645.318	28.25
645.508	28.32
645.697	28.27
645.887	28.1
646.076	28.16
646.266	28.07
646.456	28.17
646.645	28.23
646.835	28.17
647.024	28.28
647.214	28.11
647.403	27.92
647.593	27.89
647.782	28
647.972	28.25
648.161	28.21
648.351	28.34
648.54	28.23
648.73	28.17
648.919	28.08
649.108	28.08
649.298	28.27
649.487	28.39
649.677	28.44
649.866	28.47
650.055	28.39
650.244	28.45
650.434	28.19
650.623	28.34
650.812	28.37
651.002	28.32
651.191	28.31
651.38	28.36
651.569	28.36
651.758	28.37
651.947	28.56
652.137	28.37
652.326	28.59
652.515	28.75
652.704	28.58
652.893	28.51
653.082	28.64
653.271	28.62
653.46	28.53
653.649	28.5
653.838	28.49
654.027	28.32
654.216	28.33
654.405	28.23
654.594	28.01
654.783	27.88
654.972	28.1
655.161	28.27
655.35	28.31
655.539	28.11
655.728	28.18
655.916	28.26
656.105	28.39
656.294	28.41
656.483	28.36
656.672	28.58
656.86	28.82
657.049	28.82
657.238	28.69
657.427	28.54
657.615	28.63
657.804	28.53
657.993	28.37
658.181	28.36
658.37	28.4
658.559	28.36
658.747	28.26
658.936	28.37
659.125	28.38
659.313	28.45
659.502	28.51
659.69	28.63
659.879	28.71
660.067	28.88
660.256	28.67
660.444	28.8
660.633	28.68
660.821	28.75
661.01	28.75
661.198	28.73
661.387	28.79
661.575	28.84
661.763	28.58
661.952	28.43
662.14	28.11
662.328	28.34
662.517	28.29
662.705	28.68
662.893	28.77
663.082	28.89
663.27	28.74
663.458	28.69
663.646	28.73
663.834	29.17
664.023	29.18
664.211	29.4
664.399	29.37
664.587	29.47
664.775	29.36
664.963	29.35
665.152	29.24
665.34	29.53
665.528	29.72
665.716	29.67
665.904	29.46
666.092	29.37
666.28	29.5
666.468	29.21
666.656	29.27
666.844	29.21
667.032	28.99
667.22	28.92
667.408	28.71
667.596	28.52
667.784	28.48
667.971	28.46
668.159	28.68
668.347	28.56
668.535	28.83
668.723	28.73
668.911	28.71
669.098	28.74
669.286	28.45
669.474	28.51
669.662	28.27
669.849	28.33
670.037	28.5
670.225	28.33
670.413	28.39
670.6	28.46
670.788	28.52
670.976	28.44
671.163	28.71
671.351	28.81
671.538	28.74
671.726	28.85
671.913	28.88
672.101	28.82
672.289	28.9
672.476	28.77
672.664	28.86
672.851	28.76
673.039	29.07
673.226	28.79
673.413	29.06
673.601	29.07
673.788	29.03
673.976	28.87
674.163	28.75
674.35	28.71
674.538	28.85
674.725	28.85
674.912	28.91
675.1	28.78
675.287	29.16
675.474	29.44
675.662	29.27
675.849	29.39
676.036	29.85
676.223	29.59
676.411	29.83
676.598	29.94
676.785	29.98
676.972	30.15
677.159	30.08
677.346	29.97
677.533	30.05
677.721	30.28
677.908	30.23
678.095	30.1
678.282	30.37
678.469	30.18
678.656	30.02
678.843	29.9
679.03	29.89
679.217	30.02
679.404	29.71
679.591	29.26
679.778	29.22
679.964	29.2
680.151	29.17
680.338	29.34
680.525	29.37
680.712	29.34
680.899	29.42
681.086	29.56
681.272	29.43
681.459	29.57
681.646	29.72
681.833	29.64
682.02	29.66
682.206	29.52
682.393	29.54
682.58	29.47
682.766	29.48
682.953	29.39
683.14	29.02
683.326	29.12
683.513	29.35
683.7	29.17
683.886	29.32
684.073	29.03
684.259	29.08
684.446	28.87
684.632	28.89
684.819	29.09
685.005	29.03
685.192	29.07
685.378	29.16
685.565	28.97
685.751	29.23
685.938	29.11
686.124	29.66
686.31	29.65
686.497	29.78
686.683	29.94
686.87	29.73
687.056	29.85
687.242	29.81
687.429	29.79
687.615	29.87
687.801	29.8
687.987	30.11
688.174	30.04
688.36	30.16
688.546	30.16
688.732	30.09
688.918	30.06
689.105	29.87
689.291	29.91
689.477	29.86
689.663	29.88
689.849	29.97
690.035	29.61
690.221	29.57
690.407	29.43
690.593	29.33
690.779	29.19
690.965	29.1
691.151	28.88
691.337	28.87
691.523	28.87
691.709	28.91
691.895	28.71
692.081	28.71
692.267	28.64
692.453	28.86
692.639	29.14
692.825	29.44
693.011	29.85
693.196	30.28
693.382	30.33
693.568	30.27
693.754	30.16
693.94	30.18
694.125	30.28
694.311	30.22
694.497	30.05
694.682	29.74
694.868	29.57
695.054	29.29
695.239	28.91
695.425	28.92
695.611	29.08
695.796	29.18
695.982	29.31
696.168	29.35
696.353	29.08
696.539	28.82
696.724	28.71
696.91	28.92
697.095	29.14
697.281	29.29
697.466	29.27
697.652	29.03
697.837	29.04
698.023	29.02
698.208	29.3
698.393	29.48
698.579	29.75
698.764	29.67
698.949	29.55
699.135	29.51
699.32	29.35
699.505	29.51
699.691	29.35
699.876	29.41
700.061	29.43
700.246	29.09
700.432	29.19
700.617	29.12
700.802	29.14
700.987	29.38
701.172	28.97
701.358	29.46
701.543	29.36
701.728	29.73
701.913	29.59
702.098	29.54
702.283	29.57
702.468	29.55
702.653	29.12
702.838	29.3
703.023	29.09
703.208	29.68
703.393	29.37
703.578	29.39
703.763	29.55
703.948	29.9
704.133	29.91
704.318	29.98
704.503	30.21
704.688	30.65
704.873	30.67
705.057	30.71
705.242	30.79
705.427	30.97
705.612	30.86
705.797	31.05
705.981	30.97
706.166	30.97
706.351	30.95
706.536	31.1
706.72	31.19
706.905	31.52
707.09	31.09
707.274	31.15
707.459	31.22
707.644	31.38
707.828	31.14
708.013	31.08
708.197	31.38
708.382	31.47
708.567	31.24
708.751	31.16
708.936	30.7
709.12	30.99
709.305	30.87
709.489	30.96
709.673	30.89
709.858	30.74
710.042	30.62
710.227	30.49
710.411	30.5
710.596	29.99
710.78	30.09
710.964	30.45
711.149	30.6
711.333	30.7
711.517	30.45
711.702	30.77
711.886	30.62
712.07	30.94
712.254	30.98
712.438	31.07
712.623	31.58
712.807	31.4
712.991	31.32
713.175	31.17
713.359	30.76
713.544	30.54
713.728	29.94
713.912	30.08
714.096	29.87
714.28	29.47
714.464	29
714.648	28.97
714.832	28.99
715.016	29.12
715.2	29.12
715.384	29.51
715.568	29.61
715.752	29.72
715.936	29.71
716.12	29.32
716.304	29.53
716.488	29.7
716.671	29.59
716.855	29.64
717.039	29.34
717.223	29.3
717.407	28.98
717.59	28.76
717.774	28.97
717.958	28.98
718.142	29.05
718.325	29.13
718.509	29.39
718.693	29.43
718.877	29.45
719.06	29.41
719.244	29.29
719.428	29.31
719.611	29.51
719.795	29.31
719.978	29.58
720.162	30.12
720.345	30.32
720.529	30.35
720.713	30.21
720.896	30.24
721.08	30.3
721.263	30.22
721.446	30.48
721.63	30.62
721.813	30.7
721.997	30.62
722.18	30.18
722.364	29.35
722.547	28.94
722.73	29.17
722.914	29.1
723.097	29.18
723.28	29.46
723.464	29.38
723.647	29.35
723.83	29.54
724.013	29.45
724.197	30.05
724.38	30.73
724.563	31.17
724.746	31.03
724.929	31.34
725.112	31.04
725.296	30.72
725.479	30.44
725.662	30.65
725.845	30.14
726.028	29.99
726.211	29.42
726.394	29.3
726.577	29.09
726.76	29.11
726.943	28.41
727.126	28.28
727.309	28.26
727.492	28.51
727.675	28.19
727.858	28.77
728.041	28.99
728.224	29.4
728.407	29.31
728.589	29.35
728.772	29.25
728.955	29.48
729.138	29.74
729.321	29.67
729.503	29.22
729.686	29.22
729.869	28.28
730.052	27.89
730.234	27.28
730.417	27.14
730.6	26.85
730.782	27.32
730.965	27.88
731.148	27.95
731.33	27.91
731.513	28.22
731.695	28.34
731.878	29.41
732.061	29.45
732.243	30.15
732.426	30.54
732.608	31.14
732.791	30.86
732.973	30.48
733.156	30.51
733.338	30.81
733.52	31.11
733.703	31.1
733.885	30.72
734.068	30.94
734.25	30.52
734.432	30.58
734.615	30.21
734.797	30.44
734.979	30.56
735.162	30.22
735.344	30.37
735.526	29.91
735.708	30.16
735.891	30.39
736.073	30.36
736.255	30.45
736.437	29.89
736.619	29.95
736.802	29.39
736.984	29.55
737.166	29.68
737.348	29.49
737.53	29.79
737.712	29.26
737.894	28.88
738.076	28.96
738.258	29.1
738.44	29.04
738.622	29.04
738.804	29.28
738.986	28.97
739.168	29.02
739.35	29.38
739.532	29.27
739.714	29.77
739.896	29.89
740.078	29.98
740.259	29.84
740.441	29.9
740.623	29.83
740.805	30.03
740.987	30.15
741.168	29.85
741.35	29.68
741.532	29.49
741.714	29.21
741.895	29.09
742.077	28.88
742.259	28.88
742.44	29.24
742.622	29.34
742.804	29.1
742.985	28.69
743.167	28.97
743.348	28.96
743.53	29.49
743.711	28.86
743.893	28.77
744.075	28.81
744.256	28.61
744.438	28.36
744.619	28.07
744.8	28.01
744.982	28.79
745.163	28.7
745.345	28.59
745.526	28.23
745.707	28.46
745.889	28.67
746.07	28.72
746.252	28.52
746.433	29.27
746.614	30.21
746.795	30.1
746.977	29.04
747.158	28.97
747.339	29.25
747.52	29.13
747.702	29.6
747.883	29.35
748.064	29.2
748.245	29.81
748.426	29.77
748.607	29.23
748.788	29.47
748.97	29.95
749.151	30.22
749.332	30.11
749.513	30.8
749.694	30.79
749.875	31.52
750.056	31.76
750.237	31.32
750.418	30.8
750.599	30.25
750.78	30.24
750.96	30.4
751.141	30.2
751.322	30.16
751.503	29.8
751.684	29.2
751.865	28.66
752.046	28.44
752.226	28.19
752.407	27.99
752.588	28.34
752.769	28.51
752.949	27.55
753.13	28.16
753.311	28.58
753.492	28.11
753.672	28.65
753.853	29.3
754.034	29.51
754.214	30.14
754.395	29.78
754.575	29.87
754.756	30.03
754.937	31.11
755.117	31.03
755.298	30.08
755.478	30.93
755.659	30.28
755.839	29.75
756.02	29.3
756.2	29.26
756.381	29.96
756.561	29.68
756.741	29.59
756.922	29.48
757.102	28.77
757.283	29.56
757.463	29.51
757.643	29.8
757.823	29.64
758.004	29.67
758.184	28.92
758.364	27.83
758.545	28.2
758.725	27.17
758.905	27.22
759.085	27.67
759.265	26.82
759.446	26.03
759.626	26.66
759.806	26.57
759.986	26.71
760.166	26.86
760.346	27.23
760.526	27.37
760.706	28.21
760.886	28.37
761.066	28.34
761.246	28.78
761.426	29.45
761.606	29.1
761.786	29.18
761.966	29.6
762.146	29.8
762.326	30.15
762.506	30.24
762.686	30.26
762.866	30.08
763.046	30.18
763.225	30.54
763.405	30.15
763.585	30.06
763.765	30.5
763.945	30.25
764.124	30.23
764.304	30.14
764.484	29.99
764.664	29.81
764.843	30.22
765.023	30.14
765.203	29.95
765.382	30.01
765.562	30.04
765.741	29.7
765.921	29.59
766.101	29.8
766.28	30.06
766.46	30.12
766.639	30.16
766.819	29.29
766.998	28.79
767.178	28.76
767.357	28.98
767.537	29.57
767.716	29.73
767.896	29.83
768.075	29.83
768.254	29.37
768.434	29.26
768.613	28.81
768.792	29.59
768.972	29.9
769.151	29.65
769.33	29.68
769.51	29.18
769.689	28.39
769.868	28.63
770.047	28.96
770.226	28.96
770.406	28.7
770.585	29.19
770.764	28.69
770.943	29.01
771.122	29.35
771.301	28.68
771.48	29.25
771.66	29.65
771.839	29.02
772.018	27.88
772.197	29.05
772.376	28.64
772.555	28.85
772.734	28.7
772.913	28.45
773.092	28.28
773.271	28.95
773.449	28.48
773.628	28.99
773.807	29.52
773.986	30.37
774.165	29.89
774.344	30.87
774.523	30.98
774.701	31.08
774.88	31
775.059	30.55
775.238	30.42
775.417	30.41
775.595	30.49
775.774	30.43
775.953	30.59
776.131	30.43
776.31	29.84
776.489	29.06
776.667	29.08
776.846	30.1
777.025	30.04
777.203	30.2
777.382	30.33
777.56	29.96
777.739	29.82
777.917	29.43
778.096	29.22
778.274	28.42
778.453	28.69
778.631	29
778.81	28.28
778.988	29.04
779.166	28.47
779.345	28.05
779.523	28.02
779.702	29.37
779.88	29.79
780.058	29.5
780.237	30.39
780.415	30.93
780.593	30.44
780.771	29.64
780.95	29.59
781.128	29.83
781.306	29.76
781.484	30
781.662	28.61
781.841	27.61
782.019	27.79
782.197	28.37
782.375	28.05
782.553	28.33
782.731	28.72
782.909	29.11
783.087	29.5
783.265	29.34
783.443	29.2
783.621	28.67
783.799	29.45
783.977	28.45
784.155	27.84
784.333	27.8
784.511	28.65
784.689	28.37
784.867	27.36
785.045	26.91
785.223	26.66
785.4	27.15
785.578	27.79
785.756	27.01
785.934	28.75
786.112	29.35
786.289	29.53
786.467	28.38
786.645	28.28
786.823	27.36
787	28.19
787.178	28.46
787.356	27.48
787.533	27.69
787.711	28.2
787.889	28.35
788.066	28.05
788.244	27.2
788.421	26.63
788.599	26.89
788.776	27.98
788.954	27.08
789.131	27.65
789.309	27.4
789.486	27.35
789.664	28.06
789.841	27.44
790.019	27.25
790.196	28.64
790.373	29.65
790.551	29.83
790.728	29.95
790.906	29.76
791.083	29.36
791.26	28.8
791.437	28.57
791.615	27.63
791.792	26.76
791.969	26.72
792.146	25.49
792.324	25.15
792.501	25.76
792.678	25.25
792.855	25.11
793.032	25.15
793.209	26.91
793.387	26.79
793.564	26.47
793.741	26.89
793.918	26.67
794.095	27.32
794.272	27.68
794.449	26.97
794.626	27.09
794.803	27.96
794.98	27.4
795.157	26.31
795.334	26.57
795.511	26.66
795.688	26.88
795.864	26.58
796.041	26.63
796.218	24.26
796.395	24.81
796.572	24.74
796.749	24.54
796.925	25.3
797.102	25.73
797.279	25.45
797.456	26.3
797.632	26.51
797.809	26.32
797.986	25.92
798.162	28.42
798.339	28.2
798.516	28.24
798.692	28.98
798.869	28.33
799.046	28.28
799.222	28.09
799.399	26.86
799.575	26.66
799.752	26.64
799.928	25.82
800.105	25.3
800.281	24.93
800.458	25.51
800.634	24.99
800.811	25.63
800.987	25.27
801.163	25.57
801.34	26.17
801.516	26.1
801.692	25.84
801.869	27.02
802.045	27.11
802.221	26.84
802.398	26.37
802.574	26.8
802.75	26.49
802.926	26.79
803.103	26.61
803.279	26.72
803.455	26.62
803.631	27.97
803.807	27.98
803.983	27.71
804.16	28.25
804.336	28.16
804.512	27.22
804.688	27.1
804.864	27.04
805.04	27.3
805.216	28.26
805.392	29.59
805.568	28.7
805.744	29.14
805.92	28.98
806.096	28.77
806.272	27.08
806.448	26.33
806.623	26.46
806.799	26.41
806.975	25.16
807.151	24.65
807.327	23.36
807.503	23.59
807.678	23.11
807.854	23.85
808.03	23.29
808.206	25.11
808.381	25.49
808.557	25.11
808.733	25.1
808.908	26.35
809.084	25.62
809.26	25.62
809.435	24.32
809.611	23.83
809.787	23.26
809.962	23.74
810.138	23.15
810.313	21.65
810.489	22.49
810.664	22.39
810.84	20.3
811.015	21.23
811.191	20.86
811.366	21.9
811.542	23.25
811.717	23.36
811.892	25.52
812.068	25.44
812.243	26.34
812.419	26.37
812.594	26.4
812.769	27.22
812.944	26.19
813.12	26.47
813.295	26.09
813.47	24.53
813.645	24.38
813.821	21.92
813.996	22.23
814.171	22.2
814.346	21.28
814.521	21.29
814.697	20.88
814.872	21.08
815.047	20.34
815.222	21.97
815.397	21.18
815.572	21.31
815.747	21.47
815.922	21.7
816.097	21.64
816.272	23.77
816.447	23.24
816.622	25.58
816.797	25.73
816.972	24.31
817.147	24.18
817.322	24.44
817.496	24.21
817.671	24.99
817.846	25.63
818.021	26.14
818.196	23.95
818.371	24.47
818.545	24.2
818.72	23.46
818.895	24.09
819.069	23.08
819.244	23.99
819.419	24.21
819.594	24.38
819.768	23.5
819.943	23.85
820.117	24.77
820.292	25.26
820.467	25.07
820.641	25.29
820.816	25.93
820.99	26.77
821.165	26.69
821.339	26.23
821.514	26.07
821.688	26.38
821.863	26.35
822.037	26.29
822.212	26.12
822.386	26.28
822.56	26.29
822.735	26.14
822.909	25.96
823.084	25.78
823.258	26.06
823.432	26.13
823.606	25.75
823.781	25.77
823.955	25.74
824.129	25.57
824.303	25.5
824.478	25.54
824.652	25.79
824.826	25.93
825	25.98
825.174	26.02
825.348	25.94
825.523	26.37
825.697	26.03
825.871	26.09
826.045	26.39
826.219	26.74
826.393	26.58
826.567	26.05
826.741	25.5
826.915	25.72
827.089	25.56
827.263	25.64
827.437	25.55
827.611	25.56
827.784	25.15
827.958	25.29
828.132	24.65
828.306	24.78
828.48	24.96
828.654	25.19
828.827	25.1
829.001	24.93
829.175	24.75
829.349	24.71
829.522	24.46
829.696	24.85
829.87	23.75
830.044	24.08
830.217	24.02
830.391	24.16
830.565	23.7
830.738	24.09
830.912	23.4
831.085	23.72
831.259	24.05
831.432	22.87
831.606	22.2
831.779	23.88
831.953	24.26
832.126	24.15
832.3	24.31
832.473	24.82
832.647	24.18
832.82	24.23
832.994	23.25
833.167	22.97
833.34	24.59
833.514	25.41
833.687	24.43
833.86	23.05
834.034	22.92
834.207	23.19
834.38	22.91
834.553	22.85
834.727	23.21
834.9	23.33
835.073	24.01
835.246	23.29
835.419	23.06
835.593	23.92
835.766	25.04
835.939	25.59
836.112	25.48
836.285	25.62
836.458	24.57
836.631	24.78
836.804	25.58
836.977	23.89
837.15	23.58
837.323	23.6
837.496	22.89
837.669	21.1
837.842	18.81
838.015	16.55
838.188	16.5
838.361	17.31
838.533	16.76
838.706	16.35
838.879	18.71
839.052	20.29
839.225	19.75
839.398	20.1
839.57	21.96
839.743	22.65
839.916	25.59
840.088	26.63
840.261	27.64
840.434	27.93
840.607	27.38
840.779	25.58
840.952	24.37
841.124	22.34
841.297	21.59
841.47	21.3
841.642	21.09
841.815	20.43
841.987	18.32
842.16	17.7
842.332	18.47
842.505	16.89
842.677	17.79
842.85	21.75
843.022	24.63
843.194	26.9
843.367	25.63
843.539	23.75
843.712	21.49
843.884	19.68
844.056	22.17
844.229	22.17
844.401	22.46
844.573	26.19
844.745	24.1
844.918	20.02
845.09	19.7
845.262	18.64
845.434	21.51
845.606	19.65
845.779	21.69
845.951	19.76
846.123	17.23
846.295	18.16
846.467	13.84
846.639	11.37
846.811	14.96
846.983	11.53
847.155	11.52
847.327	15.01
847.499	17.33
847.671	17.44
847.843	17.14
848.015	17.5
848.187	19.92
848.359	18.49
848.531	20.27
848.703	21.51
848.875	25.4
849.047	27.99
849.218	24.25
849.39	23.58
849.562	22.93
849.734	21.98
849.905	19.77
850.077	18.41
850.249	21.46
850.421	21.17
850.592	19.08
850.764	16.77
850.936	17.05
851.107	16.24
851.279	18.39
851.451	20.83
851.622	24.15
851.794	27.93
851.965	28.13
852.137	28.17
852.308	26.77
852.48	25.93
852.651	25.16
852.823	24.73
852.994	26.45
853.166	22.88
853.337	22.48
853.509	17.86
853.68	16.46
853.851	14.71
854.023	11.31
854.194	12
854.365	17.13
854.537	15.16
854.708	17.01
854.879	16.42
855.05	17.28
855.222	14.03
855.393	16.8
855.564	15.05
855.735	12.57
855.906	12.7
856.078	12.76
856.249	6.34
856.42	10.56
856.591	11.34
856.762	13.96
856.933	17.39
857.104	17.21
857.275	14.8
857.446	19.07
857.617	22.49
857.788	23.82
857.959	26.3
858.13	27.72
858.301	25.77
858.472	20.56
858.643	21.68
858.814	19.34
858.985	19.16
859.155	21.86
859.326	17.51
859.497	15.54
859.668	12.04
859.839	3.96
860.009	3.86
860.18	6.97
860.351	6.28
860.522	3.16
860.692	2.74
860.863	3.4
861.034	7.89
861.204	9.87
861.375	14.05
861.546	19.9
861.716	28.39
861.887	32.37
862.057	28.27
862.228	30.19
862.398	30.46
862.569	33.95
862.739	37.9
862.91	31.47
863.08	29.54
863.251	29.51
863.421	25.63
863.592	22.36
863.762	17.8
863.932	14.31
864.103	14.49
864.273	11.53
864.443	6.62
864.614	-0.07
864.784	0.15
864.954	1.7
865.125	-5.35
865.295	-1.29
865.465	-2.8
865.635	-2.19
865.805	5.42
865.976	7.38
866.146	9.22
866.316	10.31
866.486	14.47
866.656	16.98
866.826	19.12
866.996	24.6
867.166	22.99
867.336	19.71
867.506	21.49
867.676	19.44
867.846	23.28
868.016	28.55
868.186	26.72
868.356	22.56
868.526	23.18
868.696	23.76
868.866	17.02
869.036	19.09
869.206	24.43
869.376	23.83
869.545	23.05
869.715	17.55
869.885	13.18
870.055	14.69
870.224	17.47
870.394	12.46
870.564	9.14
870.734	10.27
870.903	8.6
871.073	7.18
871.243	7.64
871.412	11.38
871.582	13.88
871.751	16.31
871.921	16.67
872.091	16.11
872.26	19.91
872.43	22.55
872.599	24.37
872.769	28.08
872.938	24.63
873.108	24.67
873.277	20.46
873.446	18.66
873.616	15.7
873.785	16.51
873.955	16.38
874.124	13.98
874.293	14.88
874.463	12.76
874.632	11.54
874.801	18.86
874.971	18.84
875.14	19.25
875.309	20.59
875.478	19.8
875.647	18.59
875.817	19.27
875.986	18.55
876.155	15.02
876.324	18.28
876.493	20.23
876.662	18.81
876.831	18.98
877	19.41
877.17	17.32
877.339	17.67
877.508	20.31
877.677	20.07
877.846	21.17
878.015	23.82
878.184	23.53
878.352	17.66
878.521	19.8
878.69	17.66
878.859	19.61
879.028	18.96
879.197	18.35
879.366	17.56
879.534	18.42
879.703	18.47
879.872	16.99
880.041	17.59
880.21	18.38
880.378	18.11
880.547	18.81
880.716	18.34
880.884	20.02
881.053	20.31
881.222	20.47
881.39	21.02
881.559	21.86
881.727	22.26
881.896	22.12
882.065	22.26
882.233	22.75
882.402	23.78
882.57	24
882.739	23.46
882.907	23.85
883.076	23.81
883.244	23.34
883.412	23.26
883.581	23.6
883.749	23.24
883.918	23.39
884.086	22.33
884.254	21.49
884.423	21.87
884.591	21.33
884.759	20.39
884.927	20.74
885.096	20.57
885.264	19.86
885.432	19.04
885.6	18.55
885.769	17.65
885.937	17.12
886.105	15.23
886.273	13.73
886.441	14.31
886.609	16.32
886.777	13.78
886.945	14.01
887.113	13.81
887.281	13.01
887.449	13.76
887.617	16.02
887.785	16.18
887.953	15.02
888.121	14.74
888.289	13.35
888.457	12.31
888.625	13.68
888.793	14.76
888.961	12.44
889.129	12.58
889.296	12.41
889.464	9.95
889.632	12.4
889.8	15.22
889.967	13.98
890.135	17.23
