Data from 2938761__Reflection_02.txt Node
Date: Fri Mar 13 17:06:42 EDT 2015
User: robert
Spectrometer: USB4E03002
Autoset integration time: false
Trigger mode: 4
Integration Time (sec): 1.000000E-1
Scans to average: 10
Electric dark correction enabled: false
Nonlinearity correction enabled: false
Boxcar width: 5
Stray light correction enabled: false
XAxis mode: Wavelengths
Stop averaging: false
Number of Pixels in Spectrum: 3648
>>>>>Begin Spectral Data<<<<<
177.575	-1560.42
177.794	-7676.92
178.014	-1352.56
178.233	-690.26
178.452	-522.48
178.672	-427.7
178.891	-247.81
179.11	-163.16
179.33	-228.7
179.549	-420.89
179.768	-271.43
179.987	-267.56
180.207	-187.93
180.426	-216.4
180.645	-885.56
180.864	-3995.24
181.084	1031.46
181.303	1239.08
181.522	575.22
181.741	853.42
181.96	1309.57
182.179	692.04
182.398	610.33
182.618	509.49
182.837	338.76
183.056	403.06
183.275	421.6
183.494	306.72
183.713	245.87
183.932	172.16
184.151	171.41
184.37	156.35
184.589	109.41
184.808	133.04
185.027	135.69
185.246	119.72
185.465	109.83
185.684	128.77
185.903	167.43
186.122	202.19
186.341	353.21
186.56	1544.68
186.779	734.23
186.998	-407.37
187.216	-1322.73
187.435	695.24
187.654	-5646.67
187.873	-622
188.092	15566.67
188.311	873.53
188.53	377.67
188.748	347.39
188.967	327.97
189.186	276.65
189.405	186.97
189.623	199.23
189.842	345.59
190.061	667.32
190.28	366.91
190.498	528.57
190.717	462.4
190.936	602.7
191.154	623.58
191.373	624.78
191.592	543.18
191.81	571.43
192.029	934.67
192.248	1061.54
192.466	343.66
192.685	346.55
192.904	415.63
193.122	409.12
193.341	447.66
193.559	853.61
193.778	1248.57
193.996	3825.93
194.215	-2631.71
194.433	3789.66
194.652	-1533.8
194.87	-551.63
195.089	-5773.68
195.307	1975
195.526	-6652.94
195.744	1293.07
195.963	643.54
196.181	483.16
196.399	439.88
196.618	431.65
196.836	429.55
197.055	386.95
197.273	345.08
197.491	424.48
197.71	308.56
197.928	248.92
198.146	287.4
198.365	253.72
198.583	249.57
198.801	214.08
199.019	205.35
199.238	215.61
199.456	180.48
199.674	182.55
199.892	157.6
200.111	190.33
200.329	194.17
200.547	198.72
200.765	283.24
200.983	316.46
201.202	363.22
201.42	375.66
201.638	290.33
201.856	414.92
202.074	307.19
202.292	382.52
202.51	270.54
202.728	331.52
202.946	231.6
203.165	186.25
203.383	185.21
203.601	167.33
203.819	207.92
204.037	204.02
204.255	204.24
204.473	236.78
204.691	162.74
204.909	154.04
205.127	147.42
205.345	174.38
205.562	215.28
205.78	190.1
205.998	222.08
206.216	255.02
206.434	240.77
206.652	235.48
206.87	437.17
207.088	449.44
207.306	1780.95
207.523	1087.83
207.741	1061.36
207.959	771.2
208.177	1022.31
208.395	377.94
208.612	202.73
208.83	231.83
209.048	249.26
209.266	231.38
209.483	260.62
209.701	244.39
209.919	241.38
210.136	217.78
210.354	272.09
210.572	271.22
210.79	321.11
211.007	366.79
211.225	334.07
211.442	380.24
211.66	326.59
211.878	243.71
212.095	264.18
212.313	235.5
212.53	265.55
212.748	207.17
212.966	217.39
213.183	230.95
213.401	256.43
213.618	218.49
213.836	169.03
214.053	176.8
214.271	243.91
214.488	291.8
214.705	378.98
214.923	318.58
215.14	432.53
215.358	414.61
215.575	267.1
215.793	211.9
216.01	253.04
216.227	292.1
216.445	254.53
216.662	208.12
216.879	159.16
217.097	142.9
217.314	151.11
217.531	127.14
217.749	116.99
217.966	123.16
218.183	128.28
218.4	120.57
218.618	113.64
218.835	103.41
219.052	122.36
219.269	127.59
219.487	128.16
219.704	115.07
219.921	124.01
220.138	127.77
220.355	129.39
220.572	112.5
220.79	108.71
221.007	105.59
221.224	99.17
221.441	76.81
221.658	67.11
221.875	67.48
222.092	66.18
222.309	68.93
222.526	71.23
222.743	60.26
222.96	57.73
223.177	58.05
223.394	57.65
223.611	56.02
223.828	58.48
224.045	64.1
224.262	55.13
224.479	49.15
224.696	43.29
224.913	42.44
225.13	46.43
225.347	47.08
225.564	43.45
225.781	39.76
225.997	36.21
226.214	34.46
226.431	31.66
226.648	29.86
226.865	26.64
227.082	22.52
227.298	17
227.515	14.22
227.732	10.94
227.949	10.22
228.165	7.98
228.382	7.77
228.599	6.73
228.816	6.32
229.032	6.11
229.249	5.96
229.466	5.74
229.682	7.12
229.899	7.31
230.116	7.21
230.332	8.24
230.549	9.01
230.765	9.73
230.982	10.52
231.199	10.9
231.415	12.39
231.632	13.1
231.848	14.46
232.065	15.04
232.281	16.44
232.498	18.06
232.714	16.84
232.931	18.15
233.147	17.92
233.364	17.21
233.58	16.47
233.797	13.33
234.013	14.75
234.23	14.51
234.446	13.12
234.662	13.66
234.879	12.93
235.095	12.59
235.312	12.86
235.528	11.12
235.744	11.78
235.961	10.95
236.177	12.89
236.393	12.53
236.61	11.41
236.826	12.4
237.042	11.96
237.258	12.55
237.475	14.17
237.691	14.35
237.907	14.05
238.123	15.35
238.339	17.22
238.556	17.55
238.772	15.22
238.988	15.69
239.204	15.45
239.42	14.98
239.636	13.26
239.853	10.54
240.069	9.71
240.285	9.38
240.501	7.37
240.717	6.9
240.933	7.37
241.149	6.89
241.365	6.55
241.581	6.24
241.797	5.64
242.013	5.54
242.229	5.37
242.445	4.77
242.661	5.4
242.877	5.83
243.093	5.11
243.309	4.45
243.525	4.71
243.741	5.55
243.957	5.01
244.173	4.99
244.388	5.49
244.604	5.71
244.82	6.4
245.036	5.97
245.252	5.38
245.468	5.98
245.683	5.88
245.899	5.64
246.115	5
246.331	5.28
246.547	5.14
246.762	4.73
246.978	5.06
247.194	4.53
247.409	4.71
247.625	4.86
247.841	4.93
248.057	4.56
248.272	4.44
248.488	4.34
248.703	4.56
248.919	4.57
249.135	4.87
249.35	4.89
249.566	5.62
249.782	5.16
249.997	5.11
250.213	5.02
250.428	6.29
250.644	8.2
250.859	8.3
251.075	7.66
251.29	7.91
251.506	7.82
251.721	7.1
251.937	6.87
252.152	7.02
252.368	6.64
252.583	6.33
252.798	6.25
253.014	5.22
253.229	5.69
253.445	5.68
253.66	6.16
253.875	5.66
254.091	6.29
254.306	6.34
254.521	7.04
254.737	8.44
254.952	7.71
255.167	7.67
255.383	7.29
255.598	7.05
255.813	7.12
256.028	7.62
256.244	7.53
256.459	7.27
256.674	6.93
256.889	6.92
257.104	6.23
257.32	6.97
257.535	6.15
257.75	5.89
257.965	5.76
258.18	5.73
258.395	5.28
258.61	5.04
258.826	5
259.041	4.43
259.256	4.08
259.471	3.92
259.686	3.79
259.901	3.78
260.116	3.86
260.331	3.69
260.546	3.42
260.761	3.2
260.976	3.33
261.191	3.34
261.406	4.26
261.621	4.24
261.836	4.35
262.05	4.53
262.265	4.7
262.48	4.98
262.695	5.56
262.91	6.34
263.125	6.58
263.34	7.4
263.555	7
263.769	6.63
263.984	6.66
264.199	6.63
264.414	6.75
264.629	7.26
264.843	7.03
265.058	6.94
265.273	6.53
265.488	6.35
265.702	5.69
265.917	6.22
266.132	6.18
266.346	6.26
266.561	5.91
266.776	5.68
266.99	5.21
267.205	4.42
267.42	4.28
267.634	4.45
267.849	4.47
268.063	4.24
268.278	3.79
268.492	3.32
268.707	2.91
268.922	3.16
269.136	3.37
269.351	3.37
269.565	3.9
269.78	3.49
269.994	3.44
270.209	3.63
270.423	3.8
270.637	3.88
270.852	3.88
271.066	3.73
271.281	3.67
271.495	3.33
271.709	3.34
271.924	3.06
272.138	3.29
272.353	2.97
272.567	2.59
272.781	2.84
272.996	2.46
273.21	2.82
273.424	2.93
273.638	2.81
273.853	3.13
274.067	3.36
274.281	3.98
274.495	4.02
274.71	4.04
274.924	4.32
275.138	3.88
275.352	4.44
275.566	3.85
275.781	4.18
275.995	4.4
276.209	4.46
276.423	4.1
276.637	3.88
276.851	3.65
277.065	3.87
277.279	3.85
277.493	3.65
277.707	3.72
277.921	3.9
278.135	3.78
278.349	3.41
278.563	3.69
278.777	3.83
278.991	4.04
279.205	4.2
279.419	3.76
279.633	3.92
279.847	4.38
280.061	4.19
280.275	4.31
280.489	4.18
280.703	4.61
280.917	4.17
281.131	4.04
281.344	3.79
281.558	3.7
281.772	3.96
281.986	3.47
282.2	3.17
282.414	3.21
282.627	3.06
282.841	3.33
283.055	3.45
283.269	3.18
283.482	2.97
283.696	3.16
283.91	3.26
284.123	2.87
284.337	2.82
284.551	3.07
284.764	3.01
284.978	3.13
285.192	2.96
285.405	2.74
285.619	2.9
285.833	2.86
286.046	2.79
286.26	2.51
286.473	2.75
286.687	3.06
286.9	2.96
287.114	2.96
287.327	2.85
287.541	2.71
287.754	2.63
287.968	2.73
288.181	2.9
288.395	2.43
288.608	2.65
288.822	2.78
289.035	2.57
289.248	2.47
289.462	2.38
289.675	2.37
289.889	2.51
290.102	2.37
290.315	2.32
290.529	2.44
290.742	2.92
290.955	2.59
291.169	2.46
291.382	2.29
291.595	2.17
291.808	2.27
292.022	2.23
292.235	2.01
292.448	2.25
292.661	2.11
292.875	2.17
293.088	2.04
293.301	2.6
293.514	2.78
293.727	3.05
293.94	3.21
294.153	3.42
294.367	3.6
294.58	3.68
294.793	3.46
295.006	3.32
295.219	3.01
295.432	2.88
295.645	2.49
295.858	2.28
296.071	1.93
296.284	1.98
296.497	1.96
296.71	1.78
296.923	1.75
297.136	2.18
297.349	2.53
297.562	2.77
297.775	2.8
297.988	3.07
298.201	3.28
298.414	3.59
298.626	3.47
298.839	3.44
299.052	3.49
299.265	3.73
299.478	3.56
299.691	3.39
299.903	3.18
300.116	2.89
300.329	2.83
300.542	2.35
300.755	2.39
300.967	2.48
301.18	2.45
301.393	2.83
301.605	2.73
301.818	2.02
302.031	2.02
302.243	2.19
302.456	2.67
302.669	2.59
302.881	3.08
303.094	3.26
303.307	3.49
303.519	3.34
303.732	3.41
303.944	3.55
304.157	4.11
304.37	4.23
304.582	4.2
304.795	4.15
305.007	4.32
305.22	4.16
305.432	3.87
305.645	3.87
305.857	4.19
306.069	3.82
306.282	3.57
306.494	3.73
306.707	3.61
306.919	3.81
307.132	3.65
307.344	3.7
307.556	3.96
307.769	4.28
307.981	4.01
308.193	3.82
308.406	3.79
308.618	3.96
308.83	3.76
309.043	3.56
309.255	3.42
309.467	3.37
309.679	3.38
309.892	3.57
310.104	3.42
310.316	3.66
310.528	3.5
310.74	3.31
310.953	3.32
311.165	3.38
311.377	3.42
311.589	3.39
311.801	3.64
312.013	3.39
312.225	3.26
312.437	3.32
312.649	3.25
312.862	3.45
313.074	3.84
313.286	3.85
313.498	4
313.71	3.84
313.922	3.97
314.134	3.64
314.346	3.76
314.558	3.85
314.77	4.33
314.982	4.2
315.193	3.93
315.405	3.98
315.617	3.5
315.829	3.54
316.041	3.95
316.253	3.65
316.465	3.94
316.677	4.39
316.888	4.4
317.1	3.98
317.312	4.1
317.524	4.55
317.736	4.04
317.947	4.56
318.159	4.68
318.371	4.73
318.583	5.18
318.794	5.27
319.006	4.85
319.218	4.64
319.43	4.41
319.641	4.84
319.853	4.65
320.064	5.14
320.276	5.45
320.488	5.09
320.699	4.94
320.911	4.72
321.123	4.87
321.334	5.15
321.546	5.42
321.757	5.86
321.969	5.64
322.18	6.02
322.392	5.64
322.603	5.48
322.815	5.87
323.026	5.85
323.238	5.18
323.449	5.46
323.661	5.33
323.872	5.25
324.083	5.31
324.295	5.21
324.506	4.99
324.718	5.21
324.929	5.21
325.14	5.11
325.352	5.39
325.563	5.69
325.774	5.65
325.986	5.58
326.197	5.57
326.408	5.53
326.62	5.51
326.831	5.5
327.042	6.02
327.253	5.94
327.464	6.07
327.676	6.05
327.887	6.37
328.098	6.29
328.309	6.56
328.52	6.52
328.732	6.45
328.943	6.73
329.154	6.97
329.365	7.05
329.576	7.53
329.787	7.63
329.998	7.7
330.209	8.22
330.42	8.21
330.631	8.27
330.842	7.87
331.053	7.98
331.264	8.13
331.475	8.24
331.686	8.18
331.897	8.24
332.108	7.97
332.319	7.81
332.53	7.54
332.741	7.47
332.952	7.75
333.163	8.26
333.374	8.08
333.585	7.91
333.795	8.3
334.006	8.24
334.217	8.28
334.428	8.41
334.639	8.76
334.849	8.72
335.06	8.72
335.271	8.42
335.482	8.59
335.692	8.77
335.903	8.92
336.114	8.34
336.325	8.44
336.535	8.21
336.746	8.28
336.957	8.18
337.167	7.85
337.378	8.17
337.589	8.4
337.799	8.19
338.01	8.13
338.22	8.12
338.431	7.89
338.642	7.75
338.852	7.76
339.063	7.48
339.273	7.49
339.484	7.85
339.694	7.63
339.905	7.67
340.115	7.98
340.326	8.13
340.536	8.11
340.746	8.52
340.957	8.72
341.167	8.84
341.378	9.19
341.588	8.95
341.799	9
342.009	8.69
342.219	8.43
342.43	8.27
342.64	8.22
342.85	7.88
343.061	7.69
343.271	7.37
343.481	7.08
343.691	6.84
343.902	7.19
344.112	7.12
344.322	7.47
344.532	7.51
344.743	7.36
344.953	7.23
345.163	7.42
345.373	7.65
345.583	7.72
345.793	8.1
346.004	8.32
346.214	8.22
346.424	8.17
346.634	8.04
346.844	8.24
347.054	8.34
347.264	8.54
347.474	8.44
347.684	8.48
347.894	8.43
348.104	8.18
348.314	8.23
348.524	7.86
348.734	7.82
348.944	7.72
349.154	7.42
349.364	7.42
349.574	7.21
349.784	7.57
349.994	7.29
350.204	7.37
350.413	7.33
350.623	6.94
350.833	7.21
351.043	7.41
351.253	7.53
351.463	7.51
351.672	7.24
351.882	7.25
352.092	6.86
352.302	6.88
352.511	6.9
352.721	6.88
352.931	6.98
353.141	7.2
353.35	7.34
353.56	7.31
353.77	7.18
353.979	7.44
354.189	7.62
354.399	7.78
354.608	7.8
354.818	7.67
355.027	7.79
355.237	7.75
355.447	7.38
355.656	7.25
355.866	7.34
356.075	7.38
356.285	7.27
356.494	7.14
356.704	7.12
356.913	7.14
357.123	7.09
357.332	6.9
357.542	6.99
357.751	7.34
357.96	7.33
358.17	7
358.379	7.31
358.589	7.19
358.798	7.25
359.007	6.96
359.217	6.93
359.426	6.81
359.635	6.87
359.845	6.99
360.054	6.85
360.263	6.68
360.472	6.91
360.682	6.77
360.891	6.78
361.1	6.65
361.309	6.91
361.519	7.06
361.728	7.09
361.937	7.01
362.146	6.72
362.355	6.55
362.564	6.71
362.774	6.75
362.983	6.67
363.192	6.69
363.401	6.78
363.61	6.66
363.819	6.62
364.028	6.54
364.237	6.68
364.446	6.96
364.655	6.88
364.864	7.01
365.073	6.77
365.282	6.95
365.491	7.03
365.7	7.1
365.909	7.2
366.118	7.04
366.327	7.06
366.536	7.08
366.745	6.88
366.954	7.07
367.162	6.98
367.371	6.99
367.58	7.11
367.789	7.09
367.998	7.01
368.207	7.04
368.415	6.86
368.624	7.15
368.833	6.75
369.042	6.85
369.25	6.78
369.459	6.64
369.668	6.77
369.877	6.13
370.085	6.1
370.294	6.19
370.503	6.15
370.711	6.13
370.92	5.74
371.129	6.19
371.337	6.15
371.546	6.2
371.754	6.23
371.963	6.13
372.171	6.32
372.38	6.18
372.589	6.12
372.797	6.15
373.006	6.46
373.214	6.7
373.423	6.55
373.631	6.61
373.84	6.54
374.048	6.54
374.256	6.49
374.465	6.56
374.673	6.73
374.882	6.63
375.09	6.46
375.298	6.22
375.507	6.26
375.715	6.24
375.923	6.24
376.132	6.2
376.34	6.12
376.548	6.18
376.757	6.12
376.965	6.15
377.173	5.97
377.381	6.06
377.59	6.18
377.798	6.3
378.006	6.23
378.214	6.09
378.423	6.11
378.631	6.11
378.839	6.01
379.047	6.08
379.255	6.13
379.463	6.23
379.671	6.09
379.879	6.11
380.088	5.91
380.296	6.05
380.504	5.93
380.712	6.05
380.92	6.04
381.128	6.03
381.336	5.91
381.544	5.95
381.752	5.93
381.96	6.05
382.168	6.04
382.376	6.02
382.584	5.94
382.791	6.01
382.999	5.86
383.207	6.1
383.415	6.18
383.623	6.21
383.831	6.01
384.039	6.24
384.247	6.25
384.454	6.35
384.662	6.27
384.87	6.1
385.078	6.14
385.285	6.11
385.493	5.91
385.701	5.76
385.909	5.71
386.116	5.71
386.324	5.49
386.532	5.4
386.739	5.31
386.947	5.42
387.155	5.59
387.362	5.71
387.57	5.71
387.778	5.65
387.985	5.9
388.193	5.93
388.4	5.88
388.608	5.81
388.816	5.68
389.023	5.61
389.231	5.57
389.438	5.36
389.646	5.18
389.853	5.15
390.061	5.2
390.268	5.03
390.475	5.09
390.683	5.16
390.89	5.11
391.098	5.25
391.305	5.25
391.512	5.26
391.72	5.29
391.927	5.24
392.135	5.19
392.342	5.1
392.549	5.17
392.756	5
392.964	5.02
393.171	5.05
393.378	4.86
393.586	4.82
393.793	4.77
394	4.95
394.207	5.12
394.414	5.22
394.622	5.2
394.829	5.15
395.036	5.22
395.243	5.22
395.45	5.36
395.657	5.54
395.864	5.71
396.072	5.73
396.279	5.72
396.486	5.63
396.693	5.69
396.9	5.73
397.107	5.8
397.314	5.91
397.521	5.87
397.728	5.88
397.935	5.88
398.142	5.74
398.349	5.8
398.556	5.51
398.763	5.97
398.97	5.92
399.177	6.03
399.383	5.94
399.59	5.99
399.797	6.07
400.004	6.12
400.211	5.97
400.418	5.86
400.625	5.78
400.831	6.02
401.038	5.58
401.245	5.5
401.452	5.52
401.658	5.56
401.865	5.47
402.072	5.32
402.279	5.26
402.485	5.32
402.692	5.6
402.899	5.71
403.105	5.65
403.312	5.66
403.519	5.63
403.725	5.57
403.932	5.65
404.138	5.63
404.345	5.74
404.552	5.63
404.758	5.74
404.965	5.59
405.171	5.45
405.378	5.36
405.584	5.37
405.791	5.42
405.997	5.36
406.204	5.31
406.41	5.24
406.617	5.14
406.823	5.21
407.029	4.98
407.236	4.92
407.442	4.88
407.649	5.06
407.855	4.96
408.061	5.1
408.268	5.21
408.474	5.15
408.68	5.17
408.887	5.19
409.093	5.33
409.299	5.56
409.505	5.36
409.712	5.35
409.918	5.24
410.124	5.31
410.33	5.01
410.537	4.72
410.743	4.78
410.949	4.86
411.155	4.77
411.361	4.54
411.567	4.31
411.773	4.57
411.98	4.59
412.186	4.61
412.392	4.61
412.598	4.62
412.804	4.89
413.01	4.95
413.216	5
413.422	4.97
413.628	5.02
413.834	5.17
414.04	5.12
414.246	5.22
414.452	5.28
414.658	5.06
414.864	5.07
415.07	4.96
415.275	4.84
415.481	4.72
415.687	4.74
415.893	4.72
416.099	4.64
416.305	4.46
416.511	4.37
416.716	4.22
416.922	4.36
417.128	4.37
417.334	4.34
417.539	4.48
417.745	4.56
417.951	4.45
418.157	4.42
418.362	4.41
418.568	4.61
418.774	4.68
418.979	4.67
419.185	4.6
419.391	4.61
419.596	4.53
419.802	4.51
420.008	4.43
420.213	5.14
420.419	5.16
420.624	5.17
420.83	5.08
421.035	5
421.241	4.98
421.446	5.02
421.652	4.97
421.857	5.06
422.063	4.98
422.268	5.04
422.474	4.48
422.679	4.42
422.885	4.36
423.09	4.34
423.295	4.31
423.501	4.3
423.706	4.33
423.911	4.41
424.117	4.37
424.322	4.32
424.527	4.27
424.733	4.24
424.938	4.35
425.143	4.34
425.349	4.46
425.554	4.53
425.759	4.54
425.964	4.53
426.169	4.52
426.375	4.61
426.58	4.68
426.785	4.74
426.99	4.78
427.195	4.72
427.4	4.84
427.605	4.65
427.811	4.64
428.016	4.78
428.221	4.8
428.426	4.8
428.631	4.73
428.836	4.73
429.041	4.68
429.246	4.69
429.451	4.64
429.656	4.59
429.861	4.65
430.066	4.63
430.271	4.52
430.476	4.46
430.681	4.43
430.886	4.37
431.09	4.42
431.295	4.4
431.5	4.38
431.705	4.45
431.91	4.45
432.115	4.49
432.32	4.47
432.524	4.53
432.729	4.57
432.934	4.65
433.139	4.77
433.343	4.76
433.548	4.95
433.753	4.99
433.958	5.16
434.162	5.37
434.367	5.56
434.572	5.77
434.776	5.97
434.981	6.11
435.186	6.26
435.39	6.37
435.595	6.5
435.799	6.33
436.004	6.34
436.209	6.15
436.413	5.95
436.618	5.77
436.822	5.65
437.027	5.54
437.231	5.39
437.436	5.25
437.64	5.05
437.845	4.9
438.049	4.87
438.253	4.83
438.458	4.8
438.662	4.79
438.867	4.73
439.071	4.65
439.275	4.59
439.48	4.57
439.684	4.6
439.888	4.58
440.093	4.63
440.297	4.63
440.501	4.69
440.706	4.63
440.91	4.56
441.114	4.57
441.318	4.62
441.523	4.56
441.727	4.58
441.931	4.55
442.135	4.57
442.339	4.53
442.543	4.54
442.748	4.52
442.952	4.69
443.156	4.81
443.36	4.89
443.564	4.9
443.768	4.98
443.972	5.06
444.176	5.13
444.38	5.25
444.584	5.31
444.788	5.23
444.992	5.25
445.196	5.17
445.4	5.13
445.604	5.08
445.808	5.08
446.012	5.02
446.216	4.94
446.42	4.87
446.624	4.81
446.828	4.74
447.032	4.8
447.235	4.74
447.439	4.76
447.643	4.76
447.847	4.73
448.051	4.76
448.254	4.82
448.458	4.82
448.662	4.84
448.866	4.81
449.069	4.87
449.273	4.88
449.477	4.94
449.681	5
449.884	5
450.088	4.99
450.292	5.01
450.495	4.92
450.699	5.03
450.902	5.06
451.106	5.13
451.31	5.08
451.513	5.09
451.717	5.07
451.92	5.06
452.124	5.01
452.327	5.04
452.531	4.98
452.734	5.03
452.938	4.95
453.141	4.93
453.345	4.86
453.548	4.82
453.752	4.74
453.955	4.69
454.158	4.56
454.362	4.67
454.565	4.67
454.769	4.71
454.972	4.73
455.175	4.8
455.379	4.81
455.582	4.89
455.785	5
455.988	5.17
456.192	5.15
456.395	5.28
456.598	5.26
456.801	5.19
457.005	5.3
457.208	5.15
457.411	5.1
457.614	5.11
457.817	5.04
458.021	4.98
458.224	4.83
458.427	4.85
458.63	4.76
458.833	4.73
459.036	4.85
459.239	4.79
459.442	4.78
459.645	4.8
459.848	4.78
460.051	4.74
460.254	4.77
460.457	4.81
460.66	4.88
460.863	4.97
461.066	4.96
461.269	4.9
461.472	4.88
461.675	5.02
461.878	5.03
462.081	5
462.284	5.15
462.486	5.09
462.689	5.18
462.892	5.14
463.095	5.02
463.298	5.14
463.5	5.13
463.703	5.18
463.906	5.16
464.109	5.07
464.311	5.17
464.514	4.98
464.717	5.02
464.92	4.98
465.122	5.02
465.325	5.1
465.528	5.01
465.73	5.04
465.933	4.98
466.135	5
466.338	5.08
466.541	5.01
466.743	5.15
466.946	5.24
467.148	5.21
467.351	5.17
467.553	5.09
467.756	5.11
467.958	5.14
468.161	5.15
468.363	5.11
468.566	5.08
468.768	5.14
468.971	5.09
469.173	5.11
469.375	5.06
469.578	5.08
469.78	5.17
469.983	5.21
470.185	5.31
470.387	5.32
470.59	5.33
470.792	5.41
470.994	5.37
471.196	5.36
471.399	5.29
471.601	5.3
471.803	5.23
472.005	5.22
472.208	5.22
472.41	5.16
472.612	5.14
472.814	5.16
473.016	5.14
473.218	5.2
473.421	5.24
473.623	5.27
473.825	5.33
474.027	5.36
474.229	5.41
474.431	5.36
474.633	5.41
474.835	5.45
475.037	5.4
475.239	5.39
475.441	5.3
475.643	5.31
475.845	5.17
476.047	5.14
476.249	5.22
476.451	5.18
476.653	5.21
476.855	5.11
477.057	5.15
477.258	5.2
477.46	5.14
477.662	5.17
477.864	5.14
478.066	5.25
478.268	5.21
478.469	5.13
478.671	5.14
478.873	5.1
479.075	5.05
479.276	4.97
479.478	4.93
479.68	5.01
479.882	5
480.083	4.97
480.285	4.91
480.487	4.94
480.688	5.03
480.89	5.04
481.091	5.01
481.293	4.99
481.495	5.01
481.696	5.02
481.898	4.95
482.099	4.9
482.301	4.87
482.502	4.82
482.704	4.77
482.905	4.7
483.107	4.63
483.308	4.64
483.51	4.65
483.711	4.64
483.913	4.64
484.114	4.64
484.315	4.67
484.517	4.69
484.718	4.72
484.92	4.75
485.121	4.8
485.322	4.88
485.524	4.92
485.725	4.94
485.926	4.95
486.127	4.99
486.329	5.01
486.53	4.99
486.731	4.99
486.932	5
487.134	4.95
487.335	4.93
487.536	4.88
487.737	4.89
487.938	4.91
488.139	4.92
488.341	4.92
488.542	4.92
488.743	4.98
488.944	5
489.145	5.02
489.346	5.09
489.547	5.07
489.748	5.14
489.949	5.13
490.15	5.08
490.351	5.07
490.552	5.01
490.753	4.97
490.954	4.96
491.155	4.96
491.356	4.99
491.557	5
491.758	5.03
491.959	5.06
492.159	5.07
492.36	5.1
492.561	5.17
492.762	5.23
492.963	5.32
493.164	5.33
493.364	5.39
493.565	5.38
493.766	5.41
493.967	5.46
494.167	5.48
494.368	5.52
494.569	5.53
494.769	5.53
494.97	5.52
495.171	5.52
495.371	5.61
495.572	5.56
495.773	5.58
495.973	5.58
496.174	5.61
496.375	5.51
496.575	5.48
496.776	5.47
496.976	5.44
497.177	5.49
497.377	5.49
497.578	5.44
497.778	5.48
497.979	5.44
498.179	5.49
498.38	5.54
498.58	5.67
498.78	5.73
498.981	5.81
499.181	5.83
499.382	5.79
499.582	5.76
499.782	5.74
499.983	5.82
500.183	5.89
500.383	5.91
500.584	5.79
500.784	5.76
500.984	5.79
501.184	5.82
501.385	5.75
501.585	5.77
501.785	5.85
501.985	5.94
502.185	5.94
502.386	5.99
502.586	5.99
502.786	6.1
502.986	6.15
503.186	6.23
503.386	6.21
503.586	6.3
503.786	6.29
503.987	6.33
504.187	6.36
504.387	6.34
504.587	6.28
504.787	6.21
504.987	6.17
505.187	6.1
505.387	6.07
505.587	6.04
505.786	6.11
505.986	6.24
506.186	6.17
506.386	6.12
506.586	6.18
506.786	6.23
506.986	6.26
507.186	6.32
507.386	6.35
507.585	6.32
507.785	6.41
507.985	6.31
508.185	6.32
508.384	6.45
508.584	6.45
508.784	6.44
508.984	6.49
509.183	6.58
509.383	6.56
509.583	6.62
509.782	6.62
509.982	6.61
510.182	6.69
510.381	6.65
510.581	6.64
510.781	6.68
510.98	6.66
511.18	6.67
511.379	6.56
511.579	6.59
511.778	6.61
511.978	6.67
512.177	6.62
512.377	6.68
512.576	6.68
512.776	6.68
512.975	6.68
513.175	6.69
513.374	6.79
513.573	6.97
513.773	7.04
513.972	7.06
514.172	7.05
514.371	7.14
514.57	7.12
514.77	7.2
514.969	7.22
515.168	7.26
515.367	7.29
515.567	7.28
515.766	7.2
515.965	7.24
516.164	7.2
516.364	7.17
516.563	7.17
516.762	7.17
516.961	7.08
517.16	7.12
517.359	7.17
517.559	7.17
517.758	7.12
517.957	7.1
518.156	7.08
518.355	7.1
518.554	7.22
518.753	7.21
518.952	7.24
519.151	7.37
519.35	7.37
519.549	7.38
519.748	7.41
519.947	7.44
520.146	7.53
520.345	7.54
520.544	7.6
520.743	7.58
520.942	7.64
521.141	7.74
521.339	7.79
521.538	7.92
521.737	7.98
521.936	8.15
522.135	8.19
522.333	8.3
522.532	8.28
522.731	8.32
522.93	8.38
523.129	8.46
523.327	8.44
523.526	8.41
523.725	8.35
523.923	8.31
524.122	8.3
524.321	8.36
524.519	8.27
524.718	8.38
524.917	8.42
525.115	8.36
525.314	8.32
525.512	8.31
525.711	8.33
525.909	8.33
526.108	8.31
526.306	8.26
526.505	8.27
526.703	8.29
526.902	8.21
527.1	8.14
527.299	8.14
527.497	8.13
527.696	8.12
527.894	8.09
528.092	8.12
528.291	8.13
528.489	8.12
528.688	8.11
528.886	8.14
529.084	8.18
529.283	8.25
529.481	8.3
529.679	8.35
529.877	8.38
530.076	8.46
530.274	8.5
530.472	8.58
530.67	8.67
530.869	8.75
531.067	8.77
531.265	8.8
531.463	8.81
531.661	8.82
531.859	8.89
532.057	8.98
532.255	8.96
532.454	8.97
532.652	9
532.85	9.02
533.048	9.06
533.246	9.14
533.444	9.21
533.642	9.24
533.84	9.29
534.038	9.3
534.236	9.3
534.434	9.36
534.632	9.41
534.83	9.42
535.027	9.5
535.225	9.48
535.423	9.48
535.621	9.53
535.819	9.63
536.017	9.7
536.215	9.78
536.412	9.88
536.61	9.98
536.808	10.13
537.006	10.27
537.203	10.41
537.401	10.61
537.599	10.8
537.797	10.97
537.994	11.11
538.192	11.34
538.39	11.54
538.587	11.78
538.785	11.99
538.983	12.14
539.18	12.41
539.378	12.57
539.575	12.72
539.773	12.92
539.97	13.05
540.168	13.21
540.366	13.31
540.563	13.37
540.761	13.43
540.958	13.51
541.155	13.61
541.353	13.65
541.55	13.71
541.748	13.74
541.945	13.81
542.143	13.91
542.34	14.04
542.537	14.16
542.735	14.34
542.932	14.59
543.129	14.9
543.327	15.22
543.524	15.65
543.721	16.21
543.919	16.79
544.116	17.41
544.313	18.1
544.51	18.79
544.708	19.47
544.905	20.13
545.102	20.68
545.299	21.13
545.496	21.49
545.693	21.75
545.891	21.73
546.088	21.68
546.285	21.48
546.482	21.2
546.679	20.91
546.876	20.56
547.073	20.14
547.27	19.71
547.467	19.32
547.664	18.93
547.861	18.56
548.058	18.32
548.255	18.06
548.452	17.94
548.649	17.69
548.846	17.45
549.043	17.23
549.24	17.05
549.437	16.92
549.633	16.72
549.83	16.48
550.027	16.18
550.224	16
550.421	15.91
550.618	15.66
550.814	15.42
551.011	15.2
551.208	14.99
551.405	14.79
551.601	14.62
551.798	14.42
551.995	14.38
552.191	14.29
552.388	14.17
552.585	14.03
552.781	13.86
552.978	13.9
553.175	13.91
553.371	13.93
553.568	13.93
553.764	13.88
553.961	13.84
554.157	13.77
554.354	13.78
554.55	13.76
554.747	13.73
554.943	13.64
555.14	13.59
555.336	13.52
555.533	13.43
555.729	13.43
555.926	13.43
556.122	13.56
556.318	13.61
556.515	13.63
556.711	13.54
556.907	13.53
557.104	13.64
557.3	13.53
557.496	13.44
557.693	13.61
557.889	13.64
558.085	13.78
558.281	13.62
558.478	13.69
558.674	13.67
558.87	13.76
559.066	13.77
559.262	13.8
559.459	13.82
559.655	13.93
559.851	13.86
560.047	13.86
560.243	13.81
560.439	13.9
560.635	13.69
560.831	13.63
561.027	13.61
561.223	13.63
561.419	13.63
561.615	13.7
561.811	13.71
562.007	13.69
562.203	13.65
562.399	13.56
562.595	13.75
562.791	13.98
562.987	14.04
563.183	13.98
563.379	14.13
563.575	14.09
563.771	14.01
563.966	14.01
564.162	13.97
564.358	13.86
564.554	13.93
564.75	13.72
564.945	13.58
565.141	13.59
565.337	13.61
565.533	13.53
565.728	13.53
565.924	13.57
566.12	13.62
566.315	13.75
566.511	13.87
566.707	13.89
566.902	13.93
567.098	13.99
567.293	14.01
567.489	14.04
567.684	14.07
567.88	14.07
568.076	14.06
568.271	14.09
568.467	13.98
568.662	14
568.858	14
569.053	14.01
569.248	13.98
569.444	13.95
569.639	13.94
569.835	13.82
570.03	13.88
570.225	13.91
570.421	13.77
570.616	13.85
570.812	13.77
571.007	13.76
571.202	13.82
571.397	13.82
571.593	13.83
571.788	13.88
571.983	14.03
572.178	14.04
572.374	14.13
572.569	14.16
572.764	14.15
572.959	14.24
573.154	14.29
573.35	14.24
573.545	14.29
573.74	14.36
573.935	14.37
574.13	14.37
574.325	14.5
574.52	14.6
574.715	14.71
574.91	14.98
575.105	15.25
575.3	15.51
575.495	15.79
575.69	16.1
575.885	16.37
576.08	16.76
576.275	17.18
576.47	17.54
576.665	17.79
576.86	18.32
577.055	18.56
577.25	18.77
577.444	19.01
577.639	19.27
577.834	19.6
578.029	19.94
578.224	20.18
578.418	20.35
578.613	20.52
578.808	20.7
579.003	20.62
579.197	20.77
579.392	20.8
579.587	20.94
579.781	20.96
579.976	20.83
580.171	20.62
580.365	20.42
580.56	20.36
580.755	20.29
580.949	20.3
581.144	20.41
581.338	20.33
581.533	20.5
581.727	20.52
581.922	20.65
582.116	20.76
582.311	21.07
582.505	21.25
582.7	21.28
582.894	21.49
583.089	21.44
583.283	21.5
583.478	21.6
583.672	21.51
583.866	21.39
584.061	21.36
584.255	21.32
584.449	21.21
584.644	21.39
584.838	21.49
585.032	21.59
585.226	21.92
585.421	21.99
585.615	22.11
585.809	22.49
586.003	22.86
586.198	23.06
586.392	23.27
586.586	23.45
586.78	23.44
586.974	23.57
587.168	23.31
587.363	23.19
587.557	23.06
587.751	22.89
587.945	22.48
588.139	22.13
588.333	21.76
588.527	21.58
588.721	21.27
588.915	20.95
589.109	20.55
589.303	20.56
589.497	20.41
589.691	20.34
589.885	20.35
590.079	20.35
590.273	20.44
590.466	20.66
590.66	20.78
590.854	21.04
591.048	21.36
591.242	21.74
591.436	22.02
591.629	22.21
591.823	22.44
592.017	22.63
592.211	22.95
592.404	23.09
592.598	23.16
592.792	23.13
592.986	22.88
593.179	22.68
593.373	22.38
593.567	22.05
593.76	21.85
593.954	21.56
594.147	21.13
594.341	20.66
594.535	20.4
594.728	20.13
594.922	19.86
595.115	19.65
595.309	19.48
595.502	19.43
595.696	19.19
595.889	19.09
596.083	18.94
596.276	18.89
596.47	18.89
596.663	18.85
596.856	18.87
597.05	19.06
597.243	19.38
597.437	19.44
597.63	19.42
597.823	19.73
598.017	19.89
598.21	20.17
598.403	20.62
598.596	20.92
598.79	21.22
598.983	21.41
599.176	21.47
599.369	21.4
599.563	21.63
599.756	21.87
599.949	21.93
600.142	21.85
600.335	21.79
600.528	21.4
600.722	21.24
600.915	20.94
601.108	20.81
601.301	20.67
601.494	20.58
601.687	20.26
601.88	20.05
602.073	19.63
602.266	19.52
602.459	19.4
602.652	19.28
602.845	19.12
603.038	18.97
603.231	18.83
603.424	18.58
603.617	18.46
603.809	18.31
604.002	18.1
604.195	18.33
604.388	18.2
604.581	18.24
604.774	18.36
604.966	18.47
605.159	18.62
605.352	18.78
605.545	19.02
605.737	19.12
605.93	19.45
606.123	19.82
606.316	20.09
606.508	20.43
606.701	20.8
606.894	21.19
607.086	21.51
607.279	22.01
607.471	22.55
607.664	23.17
607.857	24.1
608.049	25.06
608.242	26.41
608.434	28.09
608.627	30.28
608.819	32.66
609.012	35.42
609.204	38.6
609.397	41.95
609.589	45.53
609.782	49.55
609.974	53.56
610.166	57.74
610.359	61.67
610.551	65.13
610.743	68.22
610.936	70.9
611.128	72.9
611.32	74.4
611.513	75.23
611.705	75.31
611.897	74.7
612.09	73.73
612.282	72.13
612.474	70.25
612.666	68.15
612.858	65.97
613.051	63.73
613.243	61.66
613.435	59.54
613.627	57.87
613.819	56.29
614.011	54.59
614.203	52.87
614.395	51.17
614.588	49.52
614.78	47.77
614.972	46.15
615.164	44.52
615.356	42.9
615.548	41.22
615.74	39.36
615.932	37.77
616.124	36.41
616.315	34.9
616.507	33.6
616.699	32.45
616.891	31.59
617.083	30.54
617.275	29.62
617.467	28.91
617.659	28.22
617.85	27.83
618.042	27.32
618.234	26.95
618.426	26.7
618.618	26.6
618.809	26.45
619.001	26.17
619.193	26.21
619.384	26.26
619.576	26.18
619.768	26.38
619.959	26.37
620.151	26.5
620.343	26.39
620.534	26.4
620.726	26.39
620.917	26.47
621.109	26.61
621.301	26.67
621.492	26.58
621.684	26.88
621.875	27.09
622.067	27.12
622.258	27.15
622.45	27.3
622.641	27.54
622.832	27.79
623.024	27.67
623.215	27.62
623.407	27.61
623.598	27.84
623.789	27.66
623.981	27.48
624.172	27.41
624.363	27.36
624.555	27.28
624.746	26.96
624.937	26.63
625.129	26.44
625.32	26.27
625.511	26.25
625.702	25.96
625.893	25.77
626.085	25.51
626.276	25.31
626.467	25.14
626.658	25.14
626.849	25.21
627.04	25.22
627.231	25.31
627.422	25.37
627.614	25.38
627.805	25.55
627.996	25.76
628.187	26.18
628.378	26.66
628.569	27.06
628.76	27.48
628.951	28.09
629.142	28.57
629.332	29.06
629.523	29.54
629.714	30.1
629.905	30.74
630.096	31.21
630.287	31.54
630.478	31.61
630.669	31.63
630.859	31.48
631.05	31.11
631.241	30.71
631.432	30.4
631.623	29.91
631.813	29.19
632.004	28.29
632.195	27.45
632.385	26.53
632.576	25.76
632.767	25.25
632.957	24.79
633.148	24.23
633.339	23.85
633.529	23.38
633.72	23.08
633.91	22.96
634.101	22.66
634.292	22.42
634.482	22.41
634.673	22.34
634.863	22.14
635.054	21.87
635.244	21.78
635.435	21.8
635.625	21.68
635.815	21.69
636.006	21.33
636.196	21.19
636.387	21.21
636.577	21.19
636.767	21.31
636.958	21.43
637.148	21.54
637.338	21.68
637.529	21.64
637.719	21.69
637.909	21.75
638.099	21.76
638.29	21.94
638.48	21.98
638.67	21.98
638.86	22.12
639.05	22.07
639.241	22.17
639.431	22.16
639.621	22.14
639.811	22.13
640.001	22.24
640.191	22.63
640.381	22.73
640.571	22.86
640.761	22.95
640.951	22.87
641.141	23.01
641.331	22.9
641.521	23
641.711	23
641.901	23.22
642.091	23.25
642.281	23.14
642.471	23.22
642.661	23.09
642.851	22.97
643.041	22.91
643.231	22.78
643.42	22.96
643.61	22.64
643.8	22.59
643.99	22.55
644.18	22.41
644.369	22.38
644.559	22.39
644.749	22.57
644.939	22.54
645.128	22.57
645.318	22.41
645.508	22.28
645.697	22.36
645.887	22.28
646.076	22.19
646.266	22.12
646.456	22.16
646.645	22.13
646.835	22.16
647.024	22.11
647.214	22.16
647.403	22.25
647.593	22.31
647.782	22.41
647.972	22.77
648.161	22.86
648.351	23.18
648.54	23.31
648.73	23.52
648.919	23.75
649.108	24.11
649.298	24.38
649.487	24.72
649.677	24.87
649.866	25.2
650.055	25.17
650.244	25.2
650.434	25.06
650.623	25.22
650.812	25.12
651.002	24.81
651.191	24.77
651.38	24.66
651.569	24.64
651.758	24.58
651.947	24.4
652.137	24.46
652.326	24.48
652.515	24.6
652.704	24.44
652.893	24.32
653.082	24.3
653.271	24.31
653.46	24.03
653.649	23.94
653.838	23.9
654.027	23.78
654.216	23.62
654.405	23.55
654.594	23.22
654.783	22.87
654.972	22.65
655.161	22.61
655.35	22.38
655.539	22.47
655.728	22.49
655.916	22.45
656.105	22.63
656.294	22.66
656.483	22.75
656.672	22.91
656.86	23.22
657.049	23.43
657.238	23.44
657.427	23.39
657.615	23.32
657.804	23.09
657.993	22.7
658.181	22.53
658.37	22.38
658.559	21.99
658.747	21.77
658.936	21.53
659.125	21.45
659.313	21.52
659.502	21.63
659.69	21.5
659.879	21.69
660.067	21.93
660.256	21.84
660.444	22.03
660.633	22.47
660.821	22.72
661.01	22.88
661.198	23.2
661.387	23.24
661.575	23.38
661.763	23.83
661.952	23.76
662.14	24.04
662.328	24.44
662.517	24.48
662.705	24.41
662.893	24.39
663.082	24.69
663.27	24.59
663.458	24.92
663.646	25.11
663.834	25
664.023	24.92
664.211	25.24
664.399	25.11
664.587	25.17
664.775	25.26
664.963	25.53
665.152	25.52
665.34	25.41
665.528	24.92
665.716	24.74
665.904	24.79
666.092	25.1
666.28	24.82
666.468	24.72
666.656	24.46
666.844	24.58
667.032	24.52
667.22	24.72
667.408	24.87
667.596	25.07
667.784	24.88
667.971	24.61
668.159	24.49
668.347	24.29
668.535	24.39
668.723	24.51
668.911	24.42
669.098	24.37
669.286	24.06
669.474	23.87
669.662	23.75
669.849	23.75
670.037	23.83
670.225	24
670.413	23.94
670.6	23.97
670.788	23.89
670.976	23.68
671.163	23.57
671.351	23.47
671.538	23.47
671.726	23.51
671.913	23.52
672.101	23.92
672.289	24.01
672.476	24.22
672.664	24.17
672.851	24.38
673.039	24.48
673.226	24.66
673.413	24.62
673.601	24.9
673.788	25.23
673.976	25.29
674.163	25.04
674.35	24.73
674.538	24.66
674.725	24.64
674.912	24.56
675.1	24.57
675.287	24.44
675.474	24.64
675.662	24.53
675.849	24.23
676.036	24.21
676.223	24.26
676.411	24.43
676.598	24.27
676.785	24.52
676.972	24.57
677.159	24.44
677.346	24.29
677.533	24.28
677.721	24.07
677.908	24.12
678.095	23.94
678.282	23.7
678.469	23.34
678.656	23.36
678.843	22.91
679.03	22.47
679.217	22.48
679.404	22.58
679.591	22.11
679.778	22.27
679.964	21.96
680.151	22.04
680.338	21.9
680.525	22.07
680.712	22.08
680.899	22.19
681.086	22.71
681.272	22.59
681.459	22.42
681.646	22.78
681.833	22.66
682.02	23.19
682.206	23.15
682.393	23.36
682.58	23.6
682.766	23.86
682.953	23.9
683.14	23.75
683.326	24.19
683.513	24.36
683.7	24.43
683.886	24.74
684.073	24.62
684.259	24.76
684.446	25.12
684.632	24.98
684.819	24.87
685.005	25.02
685.192	25.22
685.378	25.15
685.565	25.4
685.751	25.34
685.938	25.11
686.124	25.07
686.31	25.48
686.497	25.51
686.683	25.53
686.87	25.59
687.056	25.56
687.242	25.42
687.429	25.15
687.615	24.96
687.801	25.17
687.987	25.3
688.174	25.18
688.36	24.79
688.546	24.72
688.732	24.79
688.918	24.7
689.105	24.74
689.291	24.56
689.477	24.75
689.663	24.66
689.849	24.87
690.035	24.86
690.221	24.92
690.407	25.24
690.593	24.89
690.779	24.74
690.965	25.07
691.151	25.01
691.337	25.04
691.523	25.1
691.709	25.41
691.895	25.28
692.081	25.44
692.267	25.93
692.453	25.91
692.639	26.19
692.825	26.48
693.011	26.47
693.196	26.89
693.382	27.18
693.568	27.14
693.754	26.86
693.94	26.91
694.125	26.81
694.311	26.37
694.497	26.22
694.682	26
694.868	25.98
695.054	25.82
695.239	25.5
695.425	25.3
695.611	25.2
695.796	25.53
695.982	25.19
696.168	24.73
696.353	24.64
696.539	24.33
696.724	24.36
696.91	23.99
697.095	23.61
697.281	23.28
697.466	22.95
697.652	22.62
697.837	22.02
698.023	21.64
698.208	21.6
698.393	21.24
698.579	20.99
698.764	20.79
698.949	20.55
699.135	20.67
699.32	20.63
699.505	20.73
699.691	20.84
699.876	21.12
700.061	21.45
700.246	21.58
700.432	21.8
700.617	22.32
700.802	22.46
700.987	22.87
701.172	22.81
701.358	23.43
701.543	23.89
701.728	24.23
701.913	24.32
702.098	24.47
702.283	24.98
702.468	25.59
702.653	25.93
702.838	26.34
703.023	26.54
703.208	27.11
703.393	27.35
703.578	27.41
703.763	27.92
703.948	28.38
704.133	29.03
704.318	29.12
704.503	29.87
704.688	30.62
704.873	31.09
705.057	32.09
705.242	32.59
705.427	33.12
705.612	34.18
705.797	34.81
705.981	35.73
706.166	36.43
706.351	37.53
706.536	37.6
706.72	37.62
706.905	38.37
707.09	38.7
707.274	38.9
707.459	38.86
707.644	38.85
707.828	39.01
708.013	39
708.197	38.78
708.382	38.27
708.567	38.14
708.751	38.22
708.936	37.49
709.12	36.73
709.305	36.47
709.489	36.18
709.673	35.76
709.858	35.35
710.042	34.94
710.227	34.77
710.411	34.75
710.596	34.79
710.78	34.68
710.964	35.15
711.149	35.25
711.333	35.35
711.517	35.51
711.702	35.38
711.886	35.21
712.07	35.14
712.254	34.83
712.438	34.54
712.623	33.88
712.807	33.28
712.991	32.59
713.175	32.08
713.359	31.88
713.544	31.36
713.728	30.79
713.912	29.97
714.096	29.12
714.28	28.58
714.464	27.75
714.648	27.68
714.832	27.18
715.016	26.67
715.2	26.37
715.384	25.79
715.568	25.23
715.752	24.62
715.936	24.57
716.12	24.53
716.304	24.49
716.488	24.47
716.671	23.75
716.855	23.62
717.039	23.26
717.223	23.11
717.407	22.88
717.59	23.1
717.774	23.36
717.958	23.4
718.142	23.33
718.325	23.15
718.509	23.11
718.693	23.5
718.877	23.35
719.06	23.77
719.244	23.99
719.428	24.5
719.611	24.59
719.795	24.92
719.978	24.77
720.162	25.11
720.345	25.2
720.529	25.77
720.713	26.11
720.896	26.59
721.08	26.43
721.263	26.54
721.446	26.32
721.63	25.93
721.813	25.97
721.997	26.3
722.18	26.36
722.364	26.69
722.547	26.63
722.73	26.49
722.914	26.64
723.097	26.57
723.28	26.34
723.464	25.89
723.647	25.99
723.83	25.76
724.013	26.15
724.197	25.97
724.38	25.71
724.563	25.76
724.746	25.49
724.929	25.46
725.112	25.41
725.296	25.29
725.479	25.48
725.662	25.68
725.845	25.41
726.028	25.16
726.211	25.2
726.394	25.07
726.577	24.46
726.76	24.45
726.943	24.05
727.126	23.99
727.309	24.26
727.492	23.82
727.675	23.63
727.858	23.77
728.041	23.68
728.224	23.55
728.407	23.86
728.589	23.86
728.772	24.48
728.955	24.97
729.138	25.36
729.321	25.19
729.503	25.74
729.686	25.71
729.869	25.85
730.052	25.67
730.234	25.93
730.417	25.35
730.6	25.86
730.782	25.57
730.965	25.43
731.148	25.46
731.33	25.46
731.513	25.26
731.695	25.66
731.878	25.55
732.061	25.43
732.243	25.45
732.426	25.69
732.608	25.63
732.791	25.27
732.973	25.07
733.156	25.09
733.338	25.34
733.52	25.46
733.703	25.32
733.885	25.15
734.068	25.86
734.25	25.36
734.432	25.82
734.615	25.99
734.797	26.83
734.979	27.42
735.162	27.66
735.344	27.81
735.526	28.09
735.708	28.26
735.891	28.96
736.073	28.78
736.255	28.81
736.437	28.84
736.619	28.73
736.802	28.12
736.984	27.49
737.166	27.62
737.348	27.72
737.53	28.34
737.712	28.82
737.894	28.46
738.076	28.35
738.258	29.15
738.44	29.04
738.622	29.34
738.804	29.64
738.986	29.87
739.168	29.65
739.35	29.68
739.532	28.83
739.714	28.83
739.896	29.15
740.078	29.95
740.259	30.15
740.441	30.6
740.623	30.67
740.805	31.16
740.987	31.31
741.168	31.72
741.35	31.8
741.532	32.63
741.714	32.9
741.895	33.06
742.077	32.75
742.259	32.68
742.44	32.22
742.622	32.31
742.804	32.55
742.985	32.36
743.167	32.73
743.348	32.44
743.53	32.62
743.711	31.81
743.893	32.25
744.075	32.15
744.256	31.74
744.438	31.88
744.619	31.77
744.8	31.77
744.982	32.3
745.163	32.14
745.345	32.9
745.526	32.45
745.707	32.43
745.889	32.59
746.07	33.26
746.252	33.05
746.433	33.53
746.614	34.16
746.795	33.77
746.977	33.73
747.158	33.98
747.339	33.13
747.52	32.89
747.702	33.56
747.883	32.97
748.064	33.02
748.245	33.71
748.426	33.89
748.607	33.39
748.788	33.26
748.97	33.43
749.151	32.88
749.332	33.69
749.513	34.66
749.694	34.64
749.875	34.78
750.056	33.79
750.237	33.7
750.418	33.2
750.599	33.37
750.78	33.27
750.96	33.32
751.141	33.85
751.322	33.21
751.503	32.54
751.684	32.1
751.865	32.07
752.046	32.23
752.226	32.71
752.407	33.34
752.588	32.98
752.769	33.58
752.949	33.2
753.13	33.27
753.311	33.78
753.492	34.43
753.672	35.12
753.853	35.64
754.034	36.02
754.214	36.35
754.395	35.71
754.575	36.19
754.756	36.47
754.937	36.95
755.117	36.43
755.298	35.71
755.478	34.85
755.659	34.46
755.839	33.81
756.02	34.17
756.2	33.51
756.381	33.5
756.561	33.53
756.741	33.53
756.922	32.95
757.102	32.96
757.283	33.41
757.463	32.97
757.643	32.35
757.823	31.76
758.004	30.77
758.184	30.04
758.364	29.45
758.545	28.22
758.725	27.11
758.905	26.88
759.085	26.8
759.265	26.14
759.446	25.56
759.626	25.94
759.806	25.16
759.986	24.65
760.166	24.59
760.346	24.86
760.526	25.16
760.706	24.76
760.886	24.61
761.066	24.7
761.246	24.42
761.426	24.88
761.606	23.92
761.786	24.5
761.966	23.99
762.146	23.44
762.326	23.21
762.506	22.92
762.686	22.69
762.866	22.02
763.046	20.91
763.225	21.28
763.405	21.26
763.585	21.07
763.765	20.78
763.945	21.1
764.124	21.13
764.304	20.89
764.484	21.18
764.664	21.73
764.843	22.61
765.023	23.53
765.203	23.65
765.382	24.26
765.562	25.23
765.741	26.09
765.921	27.06
766.101	28.17
766.28	29.69
766.46	30.39
766.639	30.13
766.819	30.89
766.998	31.21
767.178	32.46
767.357	33.04
767.537	33.51
767.716	34.26
767.896	34.11
768.075	34.27
768.254	33.89
768.434	34.43
768.613	35.64
768.792	36.12
768.972	36.8
769.151	36.7
769.33	36.33
769.51	37.38
769.689	38.48
769.868	39.58
770.047	41.27
770.226	41.18
770.406	40.89
770.585	41.93
770.764	41.78
770.943	41.57
771.122	41.39
771.301	42.22
771.48	41.43
771.66	41.11
771.839	40.67
772.018	39.42
772.197	39.53
772.376	39.87
772.555	39.4
772.734	38.62
772.913	38.74
773.092	39.2
773.271	38.64
773.449	39.81
773.628	38.85
773.807	39.35
773.986	39.7
774.165	40.39
774.344	40.23
774.523	39.16
774.701	39.77
774.88	39.53
775.059	39.8
775.238	39.85
775.417	39.35
775.595	39.78
775.774	38.55
775.953	38.34
776.131	38.56
776.31	38.51
776.489	38.93
776.667	39.26
776.846	39.56
777.025	38.63
777.203	38.32
777.382	38.75
777.56	39.03
777.739	39.89
777.917	39.01
778.096	39.09
778.274	39.09
778.453	39.79
778.631	40.21
778.81	40.4
778.988	40.17
779.166	41.5
779.345	40.85
779.523	40.73
779.702	40.67
779.88	41.45
780.058	40.5
780.237	40.98
780.415	39.91
780.593	39.49
780.771	39.93
780.95	41.28
781.128	40.37
781.306	39.62
781.484	39.83
781.662	39.77
781.841	40.54
782.019	40.81
782.197	40.84
782.375	41.97
782.553	40.89
782.731	40.46
782.909	38.7
783.087	38.75
783.265	40.34
783.443	40.27
783.621	40.21
783.799	40.21
783.977	40.28
784.155	39.83
784.333	39.35
784.511	40.74
784.689	40.27
784.867	40.5
785.045	40.84
785.223	39.39
785.4	38.74
785.578	38.86
785.756	37.74
785.934	38.4
786.112	38.46
786.289	37.64
786.467	35.45
786.645	35.6
786.823	36.54
787	36.53
787.178	36.86
787.356	35.96
787.533	34.98
787.711	35.02
787.889	34.65
788.066	34.05
788.244	34.45
788.421	34.91
788.599	34.31
788.776	33.81
788.954	33.47
789.131	32.87
789.309	33.71
789.486	34.56
789.664	35.05
789.841	34.2
790.019	34.09
790.196	33.59
790.373	34.37
790.551	35.08
790.728	35.45
790.906	35.65
791.083	35.36
791.26	35.35
791.437	35.22
791.615	34.92
791.792	35.25
791.969	35.9
792.146	36.38
792.324	36.48
792.501	35.88
792.678	36.26
792.855	35.74
793.032	36.83
793.209	37.27
793.387	38.28
793.564	38.99
793.741	38.9
793.918	39.81
794.095	40.43
794.272	40.38
794.449	41.75
794.626	41.75
794.803	42.03
794.98	40.98
795.157	39.73
795.334	39.41
795.511	39.39
795.688	39.08
795.864	37.34
796.041	36.45
796.218	36.33
796.395	35.36
796.572	34.63
796.749	34.31
796.925	35.15
797.102	36.2
797.279	37.01
797.456	35.95
797.632	36.45
797.809	36.55
797.986	36.51
798.162	37.21
798.339	37.29
798.516	37.69
798.692	38.71
798.869	38.82
799.046	38.94
799.222	38.15
799.399	38.29
799.575	38.99
799.752	40.98
799.928	41.91
800.105	41.33
800.281	40.96
800.458	40.49
800.634	40.36
800.811	39.32
800.987	38.68
801.163	37.93
801.34	39.19
801.516	38.55
801.692	37.48
801.869	36.35
802.045	36.18
802.221	35.82
802.398	36.47
802.574	35.84
802.75	36.55
802.926	36.43
803.103	37.08
803.279	36.75
803.455	37.64
803.631	38.06
803.807	39.06
803.983	39.27
804.16	39.52
804.336	37.67
804.512	37.27
804.688	36.88
804.864	37.21
805.04	36.19
805.216	34.23
805.392	33.96
805.568	33.81
805.744	33.52
805.92	33.46
806.096	33.98
806.272	36.32
806.448	35.7
806.623	36.14
806.799	35.39
806.975	36.08
807.151	37.17
807.327	36.65
807.503	35.63
807.678	35.98
807.854	36.33
808.03	36.16
808.206	35.32
808.381	36.54
808.557	36.6
808.733	37.91
808.908	38.11
809.084	38.57
809.26	38.53
809.435	39.14
809.611	38.62
809.787	37.81
809.962	38.78
810.138	39.25
810.313	38.4
810.489	39.34
810.664	38.84
810.84	37.69
811.015	38.18
811.191	37.54
811.366	38.28
811.542	39.59
811.717	39.91
811.892	39.95
812.068	38.62
812.243	38.53
812.419	37.68
812.594	36.35
812.769	35.95
812.944	35.09
813.12	34.74
813.295	33.65
813.47	32.2
813.645	32.1
813.821	31.22
813.996	31.8
814.171	32.59
814.346	31.51
814.521	32.35
814.697	32.57
814.872	33.49
815.047	34.64
815.222	35.24
815.397	34.81
815.572	35.78
815.747	36.61
815.922	37.38
816.097	36.95
816.272	37.96
816.447	38.33
816.622	39.11
816.797	38.66
816.972	36.82
817.147	36.6
817.322	36.85
817.496	36.46
817.671	35.43
817.846	34.28
818.021	33.71
818.196	33.25
818.371	31.67
818.545	30.08
818.72	29.88
818.895	30.46
819.069	29.92
819.244	29.94
819.419	28.26
819.594	26.99
819.768	26.4
819.943	26.43
820.117	25.55
820.292	25.31
820.467	24.58
820.641	23.02
820.816	21.51
820.99	20.36
821.165	18.95
821.339	18.14
821.514	17.35
821.688	17.15
821.863	16.6
822.037	15.97
822.212	15.83
822.386	15.77
822.56	15.67
822.735	15.54
822.909	15.48
823.084	15.93
823.258	15.9
823.432	16.14
823.606	16.07
823.781	16.06
823.955	16.66
824.129	16.66
824.303	16.64
824.478	17.07
824.652	17.75
824.826	18.06
825	17.7
825.174	18.63
825.348	19.05
825.523	19.51
825.697	20.09
825.871	19.92
826.045	20.23
826.219	20.54
826.393	20.03
826.567	20.05
826.741	20.48
826.915	20.44
827.089	20.03
827.263	20.34
827.437	19.83
827.611	20.36
827.784	21
827.958	21.02
828.132	21.27
828.306	21.81
828.48	21.71
828.654	21.9
828.827	22.02
829.001	22.94
829.175	23.11
829.349	24.18
829.522	23.81
829.696	23.76
829.87	24.22
830.044	25.45
830.217	25.74
830.391	26.76
830.565	26.86
830.738	29.42
830.912	29.39
831.085	29.65
831.259	31.05
831.432	32
831.606	31.54
831.779	32.03
831.953	30.79
832.126	30.54
832.3	30.03
832.473	28.67
832.647	27.09
832.82	25.81
832.994	24.68
833.167	24.28
833.34	23.29
833.514	22.62
833.687	21.89
833.86	21.73
834.034	21.17
834.207	21.27
834.38	21.98
834.553	21.47
834.727	21.71
834.9	22.15
835.073	21.95
835.246	22.6
835.419	23.57
835.593	24.22
835.766	24.82
835.939	26.4
836.112	26.43
836.285	26.73
836.458	27.62
836.631	28.45
836.804	29.95
836.977	30.78
837.15	30.67
837.323	32.29
837.496	34.35
837.669	34.78
837.842	35.71
838.015	36.43
838.188	39.23
838.361	41.18
838.533	42.91
838.706	41.67
838.879	41.82
839.052	42.95
839.225	41.05
839.398	39.71
839.57	40.03
839.743	38.27
839.916	38.83
840.088	36.3
840.261	35.04
840.434	34.74
840.607	36.98
840.779	36.65
840.952	37.27
841.124	36.44
841.297	36.72
841.47	38.86
841.642	40.89
841.815	40.05
841.987	41.7
842.16	42.7
842.332	43.36
842.505	42.35
842.677	43.84
842.85	44.1
843.022	47.21
843.194	48.51
843.367	47.87
843.539	46.05
843.712	50.3
843.884	53.24
844.056	57.08
844.229	58.6
844.401	59.72
844.573	59.14
844.745	60.76
844.918	63.51
845.09	62.79
845.262	63.51
845.434	64.46
845.606	61.36
845.779	59.76
845.951	56.36
846.123	52.33
846.295	54.18
846.467	56.23
846.639	54.5
846.811	51.32
846.983	52.86
847.155	50.5
847.327	49.45
847.499	52.49
847.671	52.63
847.843	59.01
848.015	64.83
848.187	67.9
848.359	68.69
848.531	69.73
848.703	71.73
848.875	72.31
849.047	74.09
849.218	74.96
849.39	75.61
849.562	76.22
849.734	73.97
849.905	69.92
850.077	63.93
850.249	63
850.421	62.88
850.592	64.12
850.764	64.31
850.936	63.65
851.107	64.17
851.279	62.24
851.451	64.04
851.622	63.88
851.794	66.4
851.965	68.93
852.137	66.51
852.308	63.8
852.48	63.41
852.651	63.72
852.823	64.35
852.994	64.08
853.166	62.87
853.337	61.47
853.509	60.96
853.68	60.97
853.851	62.04
854.023	59.36
854.194	60.32
854.365	61.34
854.537	59.4
854.708	63.43
854.879	60.82
855.05	63.87
855.222	61.71
855.393	60.21
855.564	62.25
855.735	57.25
855.906	59.36
856.078	62.24
856.249	62.74
856.42	60.8
856.591	56.81
856.762	58.19
856.933	54.59
857.104	57.15
857.275	59.21
857.446	58.52
857.617	65.54
857.788	64.59
857.959	66.73
858.13	65.45
858.301	68.51
858.472	69.72
858.643	70.24
858.814	74.14
858.985	70.25
859.155	66.84
859.326	66.84
859.497	64.53
859.668	67.45
859.839	63.91
860.009	64.64
860.18	65.48
860.351	65.3
860.522	66.31
860.692	64.68
860.863	69.14
861.034	73.38
861.204	72.1
861.375	68.55
861.546	64.81
861.716	66.59
861.887	61.92
862.057	58.67
862.228	54.51
862.398	55.94
862.569	56.36
862.739	52.27
862.91	51.05
863.08	46.44
863.251	46.35
863.421	46.45
863.592	46.88
863.762	52.16
863.932	53.27
864.103	54.44
864.273	52.23
864.443	52.8
864.614	54.09
864.784	53.74
864.954	58.16
865.125	61.79
865.295	63.79
865.465	57.86
865.635	52.35
865.805	51.47
865.976	48.99
866.146	48.46
866.316	50.06
866.486	52.97
866.656	52.91
866.826	58.73
866.996	57.58
867.166	56.6
867.336	60.46
867.506	60.72
867.676	60.82
867.846	71.39
868.016	73.21
868.186	71.42
868.356	64
868.526	63.04
868.696	57.26
868.866	58.57
869.036	66.74
869.206	63.95
869.376	63.81
869.545	66.68
869.715	61.03
869.885	61.06
870.055	69.23
870.224	69.55
870.394	74
870.564	77.08
870.734	77.78
870.903	75.01
871.073	72.16
871.243	75.09
871.412	70.26
871.582	70.6
871.751	70.16
871.921	60.79
872.091	62.93
872.26	61.14
872.43	53.11
872.599	50.19
872.769	51.81
872.938	54.85
873.108	52.32
873.277	55.79
873.446	55.53
873.616	52.22
873.785	57.06
873.955	55.95
874.124	57.24
874.293	60.25
874.463	60.41
874.632	57.69
874.801	56.89
874.971	59.95
875.14	57.95
875.309	55.02
875.478	58.43
875.647	54.24
875.817	58.74
875.986	59.02
876.155	64.2
876.324	65.95
876.493	65.64
876.662	64.53
876.831	62.11
877	66.9
877.17	68.04
877.339	69.16
877.508	68.72
877.677	67.23
877.846	64.98
878.015	62.52
878.184	63.57
878.352	62.8
878.521	64.07
878.69	61.54
878.859	58.22
879.028	57.02
879.197	51.78
879.366	49.36
879.534	42.85
879.703	39.15
879.872	35.89
880.041	32.47
880.21	30.23
880.378	27.53
880.547	25.78
880.716	24.58
880.884	22.81
881.053	22.36
881.222	21.52
881.39	22.16
881.559	21.7
881.727	21.05
881.896	19.73
882.065	18.94
882.233	18.47
882.402	18.39
882.57	17.66
882.739	17.18
882.907	16.96
883.076	17.39
883.244	16.71
883.412	17.21
883.581	17.69
883.749	18.46
883.918	18.37
884.086	19.72
884.254	19.86
884.423	20.77
884.591	22
884.759	22.93
884.927	22.89
885.096	24.35
885.264	25.97
885.432	27.09
885.6	29.59
885.769	32.69
885.937	34.01
886.105	35.66
886.273	38.67
886.441	41.15
886.609	43.45
886.777	45.93
886.945	47.7
887.113	48.92
887.281	47.84
887.449	47.3
887.617	48.66
887.785	51.02
887.953	52.27
888.121	49.5
888.289	49.55
888.457	47.21
888.625	49.27
888.793	50.05
888.961	50.75
889.129	54.84
889.296	58.54
889.464	57.93
889.632	54.54
889.8	56.75
889.967	61.21
890.135	62.79
