Data from 2938803__Reflection_03.txt Node
Date: Thu Mar 12 22:32:09 EDT 2015
User: robert
Spectrometer: USB4E03002
Autoset integration time: false
Trigger mode: 4
Integration Time (sec): 1.000000E-1
Scans to average: 10
Electric dark correction enabled: false
Nonlinearity correction enabled: false
Boxcar width: 5
Stray light correction enabled: false
XAxis mode: Wavelengths
Stop averaging: false
Number of Pixels in Spectrum: 3648
>>>>>Begin Spectral Data<<<<<
177.575	14.49
177.794	73.17
178.014	12.73
178.233	22.34
178.452	-2.53
178.672	-0.64
178.891	-135.34
179.11	-81.2
179.33	-188.04
179.549	-66.56
179.768	-3.17
179.987	26.17
180.207	-18.32
180.426	-0.29
180.645	22.51
180.864	24.26
181.084	7.88
181.303	-9.18
181.522	-129.35
181.741	-350.85
181.96	-199.36
182.179	-184.47
182.398	-246.4
182.618	-245.74
182.837	-181.87
183.056	-1377.14
183.275	-793.33
183.494	-1134.29
183.713	-800
183.932	-233.9
184.151	-28.98
184.37	-555.26
184.589	-288.64
184.808	-49.38
185.027	4950
185.246	581.33
185.465	306.06
185.684	638.03
185.903	222.08
186.122	173.55
186.341	110.94
186.56	193.58
186.779	227.03
186.998	209.28
187.216	177.55
187.435	164.81
187.654	149.1
187.873	213.4
188.092	304.86
188.311	398.8
188.53	7914.29
188.748	-3347.06
188.967	397.92
189.186	133.33
189.405	294.12
189.623	-1750
189.842	-231.25
190.061	9.38
190.28	13.01
190.498	5.37
190.717	75.22
190.936	85.39
191.154	89.08
191.373	204.32
191.592	227.86
191.81	285.16
192.029	360.16
192.248	411.28
192.466	711.43
192.685	-692.47
192.904	1079.63
193.122	10600
193.341	934.78
193.559	375
193.778	188.98
193.996	485.71
194.215	133.9
194.433	193.33
194.652	-661.7
194.87	-215.97
195.089	313.59
195.307	170.87
195.526	457.02
195.744	-583.67
195.963	-233
196.181	-225.32
196.399	-2389.47
196.618	-748.94
196.836	-775
197.055	140.35
197.273	88.03
197.491	244.92
197.71	3362.5
197.928	118.48
198.146	99.44
198.365	237.91
198.583	456.41
198.801	476.47
199.019	-181.88
199.238	578.33
199.456	-522.06
199.674	-1629.17
199.892	1030.23
200.111	466.33
200.329	-404.48
200.547	-1710
200.765	625.58
200.983	261.4
201.202	313.33
201.42	196.48
201.638	231.44
201.856	215.72
202.074	185.14
202.292	142.19
202.51	208.57
202.728	222.56
202.946	187.84
203.165	164.44
203.383	202.45
203.601	141.11
203.819	131.03
204.037	1063.64
204.255	104.37
204.473	94.26
204.691	1260
204.909	18.23
205.127	24.7
205.345	26.23
205.562	67.93
205.78	69.25
205.998	85.71
206.216	115.01
206.434	126.28
206.652	152.08
206.87	157.08
207.088	121.19
207.306	108.45
207.523	166.97
207.741	165.03
207.959	154.67
208.177	445.65
208.395	274.31
208.612	203.55
208.83	113.77
209.048	91.37
209.266	81.5
209.483	122.16
209.701	129.78
209.919	91.44
210.136	94.23
210.354	111.62
210.572	96.85
210.79	91.8
211.007	64.29
211.225	69.47
211.442	91.03
211.66	103.03
211.878	87.05
212.095	113.45
212.313	130.98
212.53	101.09
212.748	81.84
212.966	80.43
213.183	77.37
213.401	99.85
213.618	94.7
213.836	92.5
214.053	70.1
214.271	59.35
214.488	27.22
214.705	39.48
214.923	64.87
215.14	49.28
215.358	43.05
215.575	46.02
215.793	38.52
216.01	49.42
216.227	29.65
216.445	12.74
216.662	-7.81
216.879	0.83
217.097	-26.56
217.314	-20.14
217.531	-2.15
217.749	-5.97
217.966	-3.92
218.183	-19.24
218.4	1.26
218.618	17.33
218.835	19.91
219.052	29.48
219.269	29.05
219.487	47.05
219.704	52.75
219.921	53.63
220.138	52.33
220.355	52.88
220.572	64.3
220.79	62.69
221.007	54.25
221.224	58.11
221.441	51.25
221.658	49.89
221.875	43.57
222.092	28.91
222.309	28.97
222.526	29.38
222.743	23.07
222.96	17.67
223.177	8.1
223.394	11.8
223.611	13.72
223.828	14.96
224.045	15.02
224.262	16.32
224.479	20.8
224.696	19.32
224.913	17.1
225.13	20.01
225.347	21.05
225.564	20.28
225.781	18.68
225.997	17.02
226.214	14.48
226.431	13.67
226.648	9.72
226.865	11.28
227.082	11.58
227.298	11.89
227.515	10.71
227.732	9.49
227.949	10.39
228.165	9.41
228.382	8.72
228.599	9.29
228.816	8.24
229.032	8.45
229.249	7.51
229.466	6.56
229.682	5.98
229.899	6.23
230.116	6.18
230.332	6.13
230.549	5.73
230.765	6.29
230.982	6.28
231.199	6.56
231.415	7.42
231.632	7.67
231.848	8.55
232.065	8.92
232.281	9.53
232.498	10.19
232.714	11.15
232.931	12.77
233.147	12.06
233.364	12.3
233.58	14.37
233.797	13.53
234.013	12.95
234.23	11.87
234.446	11.63
234.662	9.81
234.879	9.65
235.095	9.13
235.312	8.26
235.528	9.36
235.744	9.01
235.961	7.75
236.177	6.99
236.393	7.54
236.61	9.65
236.826	10.99
237.042	11.45
237.258	11.18
237.475	10.09
237.691	11.02
237.907	11.19
238.123	10.38
238.339	10.71
238.556	11.26
238.772	11.59
238.988	10.71
239.204	10.02
239.42	9.87
239.636	8.45
239.853	9.36
240.069	9.42
240.285	9.41
240.501	9.83
240.717	9.39
240.933	8.51
241.149	7.78
241.365	7.54
241.581	7.77
241.797	7.71
242.013	8.05
242.229	8.1
242.445	7.76
242.661	7.22
242.877	6.34
243.093	6.45
243.309	7.23
243.525	7.37
243.741	7.1
243.957	7.17
244.173	7.11
244.388	7.25
244.604	6.8
244.82	6.91
245.036	6.85
245.252	8.18
245.468	8.03
245.683	7.97
245.899	8.26
246.115	8.2
246.331	7.81
246.547	7.96
246.762	7.59
246.978	7.36
247.194	7.07
247.409	7.01
247.625	6.78
247.841	6.58
248.057	6.28
248.272	5.78
248.488	5.77
248.703	5.95
248.919	5.66
249.135	6.18
249.35	6.42
249.566	6.92
249.782	7
249.997	7.08
250.213	7.36
250.428	8.18
250.644	8.81
250.859	8.15
251.075	7.52
251.29	7.44
251.506	6.43
251.721	6.24
251.937	5.68
252.152	6.05
252.368	5.26
252.583	5.26
252.798	4.5
253.014	3.87
253.229	4.91
253.445	5.22
253.66	5.24
253.875	5.08
254.091	5.06
254.306	5.4
254.521	5.25
254.737	6.78
254.952	6.36
255.167	7.31
255.383	7.9
255.598	7.31
255.813	7.06
256.028	7.06
256.244	7.74
256.459	7.78
256.674	7.55
256.889	6.88
257.104	5.84
257.32	6.01
257.535	5.29
257.75	5.46
257.965	5.62
258.18	5.92
258.395	5.83
258.61	5.55
258.826	5.2
259.041	5.09
259.256	4.78
259.471	5.04
259.686	5.07
259.901	5.09
260.116	4.81
260.331	4.58
260.546	4.33
260.761	4.43
260.976	4.36
261.191	4.32
261.406	4.29
261.621	4.61
261.836	4.65
262.05	4.54
262.265	4.67
262.48	4.96
262.695	5.08
262.91	4.71
263.125	4.65
263.34	5.1
263.555	5.16
263.769	4.88
263.984	4.4
264.199	3.78
264.414	4.13
264.629	4.23
264.843	4.39
265.058	4.6
265.273	4.43
265.488	4.85
265.702	4.74
265.917	5.28
266.132	5.61
266.346	5.77
266.561	6.06
266.776	5.85
266.99	5.08
267.205	5.1
267.42	4.73
267.634	5.35
267.849	4.99
268.063	4.72
268.278	4.36
268.492	4.39
268.707	4.68
268.922	5
269.136	4.67
269.351	5.07
269.565	4.82
269.78	4.9
269.994	4.45
270.209	4.06
270.423	3.81
270.637	3.8
270.852	3.57
271.066	3.63
271.281	3.4
271.495	3.68
271.709	4.05
271.924	3.9
272.138	3.9
272.353	4.11
272.567	4.44
272.781	4.89
272.996	5.09
273.21	5.28
273.424	5.15
273.638	5.48
273.853	5.07
274.067	4.73
274.281	4.9
274.495	4.95
274.71	5.06
274.924	4.93
275.138	4.25
275.352	4.09
275.566	4.02
275.781	3.94
275.995	3.67
276.209	4.36
276.423	4.5
276.637	4.92
276.851	4.97
277.065	4.72
277.279	4.68
277.493	4.85
277.707	4.8
277.921	4.97
278.135	5.09
278.349	4.97
278.563	5.17
278.777	4.96
278.991	4.1
279.205	4.1
279.419	4.2
279.633	4.44
279.847	5.04
280.061	5
280.275	4.86
280.489	4.83
280.703	4.99
280.917	4.74
281.131	5.17
281.344	5.3
281.558	5.17
281.772	4.86
281.986	4.41
282.2	3.95
282.414	4.06
282.627	4.15
282.841	4.14
283.055	4.02
283.269	4.03
283.482	3.73
283.696	4.21
283.91	4.21
284.123	4.48
284.337	4.61
284.551	4.72
284.764	4.85
284.978	4.89
285.192	4.79
285.405	4.64
285.619	4.38
285.833	4.45
286.046	4.12
286.26	4.34
286.473	4.24
286.687	4.55
286.9	4.82
287.114	4.52
287.327	4.58
287.541	4.57
287.754	4.84
287.968	4.9
288.181	4.66
288.395	4.81
288.608	4.8
288.822	5.25
289.035	5.1
289.248	4.89
289.462	5.13
289.675	4.67
289.889	4.5
290.102	4.24
290.315	4.46
290.529	4.8
290.742	4.76
290.955	4.76
291.169	4.58
291.382	4.61
291.595	4.77
291.808	5.03
292.022	5.6
292.235	5.96
292.448	6.17
292.661	5.81
292.875	5.98
293.088	6.24
293.301	6.51
293.514	6.35
293.727	6.08
293.94	6.23
294.153	5.87
294.367	5.79
294.58	5.7
294.793	6.07
295.006	6.66
295.219	6.51
295.432	6.46
295.645	6.41
295.858	6.79
296.071	7
296.284	6.86
296.497	6.95
296.71	6.91
296.923	7.19
297.136	6.85
297.349	6.57
297.562	6.57
297.775	6.6
297.988	6.27
298.201	6
298.414	5.95
298.626	5.82
298.839	5.89
299.052	5.91
299.265	5.71
299.478	5.91
299.691	6.11
299.903	5.9
300.116	6.07
300.329	6.56
300.542	6.48
300.755	6.68
300.967	7.22
301.18	7.43
301.393	7.85
301.605	7.93
301.818	8.17
302.031	8.15
302.243	8.7
302.456	8.95
302.669	8.83
302.881	9.25
303.094	9.09
303.307	8.95
303.519	8.67
303.732	8.15
303.944	8.22
304.157	8.36
304.37	8.55
304.582	8.42
304.795	8.03
305.007	8.27
305.22	8.07
305.432	8.1
305.645	7.91
305.857	7.96
306.069	7.95
306.282	7.8
306.494	7.44
306.707	7.5
306.919	7.2
307.132	7.19
307.344	7.18
307.556	7.04
307.769	7.37
307.981	7.57
308.193	7.78
308.406	8.13
308.618	8.34
308.83	8.36
309.043	8.36
309.255	8.71
309.467	8.69
309.679	8.7
309.892	8.93
310.104	8.72
310.316	8.59
310.528	8.57
310.74	8.53
310.953	8.49
311.165	8.56
311.377	8.56
311.589	8.47
311.801	8.5
312.013	8.46
312.225	8.62
312.437	9.06
312.649	9.2
312.862	9.31
313.074	9.4
313.286	9.6
313.498	9.61
313.71	9.74
313.922	9.95
314.134	10.14
314.346	10.5
314.558	10.67
314.77	10.29
314.982	10.19
315.193	10.16
315.405	10.05
315.617	9.8
315.829	9.45
316.041	9.34
316.253	8.62
316.465	8.85
316.677	8.41
316.888	8.24
317.1	8.21
317.312	8.43
317.524	8.24
317.736	8.49
317.947	8.97
318.159	9.31
318.371	9.7
318.583	10.56
318.794	10.28
319.006	10.65
319.218	10.65
319.43	10.88
319.641	10.9
319.853	10.92
320.064	10.61
320.276	10.33
320.488	10.34
320.699	10.27
320.911	9.9
321.123	9.75
321.334	9.71
321.546	9.93
321.757	9.84
321.969	10.13
322.18	10.08
322.392	10.37
322.603	10.66
322.815	10.86
323.026	10.59
323.238	10.75
323.449	11.08
323.661	10.51
323.872	10.32
324.083	10.43
324.295	10.25
324.506	10.31
324.718	10.47
324.929	10.56
325.14	10.43
325.352	10.37
325.563	10.61
325.774	10.79
325.986	11.15
326.197	11.22
326.408	11.3
326.62	11.56
326.831	12.03
327.042	11.71
327.253	11.63
327.464	12.1
327.676	12.36
327.887	12.25
328.098	12.36
328.309	12.55
328.52	12.46
328.732	12.31
328.943	11.85
329.154	11.73
329.365	12.17
329.576	11.93
329.787	11.51
329.998	11.61
330.209	11.55
330.42	11.14
330.631	11.36
330.842	11.14
331.053	11.44
331.264	11.87
331.475	11.53
331.686	11.49
331.897	11.82
332.108	11.96
332.319	12.03
332.53	12.07
332.741	12.19
332.952	11.8
333.163	11.91
333.374	11.99
333.585	11.8
333.795	12.21
334.006	12.1
334.217	12.26
334.428	12.1
334.639	11.82
334.849	12.06
335.06	12.1
335.271	12.12
335.482	12.36
335.692	12.43
335.903	12.36
336.114	12.46
336.325	12.31
336.535	12.4
336.746	12.76
336.957	12.79
337.167	12.59
337.378	12.72
337.589	13.03
337.799	13.05
338.01	12.99
338.22	13.17
338.431	12.68
338.642	12.64
338.852	12.32
339.063	11.94
339.273	12.03
339.484	12.07
339.694	12.33
339.905	12.09
340.115	11.81
340.326	11.47
340.536	11.35
340.746	11.36
340.957	11.41
341.167	11.24
341.378	11.54
341.588	11.24
341.799	11.01
342.009	10.29
342.219	10.36
342.43	10.47
342.64	10.6
342.85	10.68
343.061	11.08
343.271	11.12
343.481	11.16
343.691	10.92
343.902	11.35
344.112	11.5
344.322	11.95
344.532	11.79
344.743	11.83
344.953	11.57
345.163	11.44
345.373	11.28
345.583	11.17
345.793	11.29
346.004	11.07
346.214	10.85
346.424	10.89
346.634	10.9
346.844	10.96
347.054	10.93
347.264	11.24
347.474	11.11
347.684	10.77
347.894	10.92
348.104	10.88
348.314	11.45
348.524	11.4
348.734	11.56
348.944	11.36
349.154	11.19
349.364	10.85
349.574	10.62
349.784	10.78
349.994	11.14
350.204	11.28
350.413	11.02
350.623	10.75
350.833	10.53
351.043	10.33
351.253	10.25
351.463	10.67
351.672	10.73
351.882	10.6
352.092	10.28
352.302	10.15
352.511	10.05
352.721	10.37
352.931	10.29
353.141	10.33
353.35	10.39
353.56	10.6
353.77	10.27
353.979	10.61
354.189	10.72
354.399	10.84
354.608	10.76
354.818	10.86
355.027	10.54
355.237	10.51
355.447	10.68
355.656	10.86
355.866	10.76
356.075	10.65
356.285	10.42
356.494	10.28
356.704	10.18
356.913	10.29
357.123	9.98
357.332	9.89
357.542	9.86
357.751	10.01
357.96	9.74
358.17	9.53
358.379	9.64
358.589	9.63
358.798	9.88
359.007	10.2
359.217	10.09
359.426	10.2
359.635	10.31
359.845	10.35
360.054	10.28
360.263	10.28
360.472	10.46
360.682	10.3
360.891	10.26
361.1	10.12
361.309	9.9
361.519	9.88
361.728	9.94
361.937	9.99
362.146	10.02
362.355	9.91
362.564	10.01
362.774	10.1
362.983	10.02
363.192	9.98
363.401	9.85
363.61	9.99
363.819	9.9
364.028	9.7
364.237	9.66
364.446	9.6
364.655	9.57
364.864	9.54
365.073	9.54
365.282	9.76
365.491	10.06
365.7	10.1
365.909	9.98
366.118	10.14
366.327	10.26
366.536	10.14
366.745	10.19
366.954	10.02
367.162	9.99
367.371	9.74
367.58	9.83
367.789	9.77
367.998	9.88
368.207	9.99
368.415	9.98
368.624	10.07
368.833	10.27
369.042	10.04
369.25	10.12
369.459	10
369.668	10.16
369.877	9.98
370.085	9.94
370.294	9.7
370.503	9.69
370.711	9.51
370.92	9.25
371.129	9.2
371.337	9.42
371.546	9.4
371.754	9.38
371.963	9.12
372.171	9.03
372.38	8.89
372.589	9.02
372.797	8.87
373.006	9.03
373.214	8.97
373.423	8.58
373.631	8.5
373.84	8.5
374.048	8.46
374.256	8.42
374.465	8.33
374.673	8.24
374.882	8.34
375.09	8.13
375.298	8.01
375.507	8.13
375.715	8.3
375.923	8.24
376.132	8.11
376.34	8.06
376.548	8.22
376.757	8.33
376.965	8.41
377.173	8.4
377.381	8.43
377.59	8.1
377.798	8.01
378.006	8.17
378.214	7.92
378.423	7.78
378.631	7.74
378.839	7.51
379.047	7.25
379.255	7.25
379.463	7.2
379.671	7.32
379.879	7.57
380.088	7.78
380.296	7.58
380.504	7.65
380.712	7.71
380.92	7.45
381.128	7.6
381.336	7.81
381.544	7.59
381.752	7.45
381.96	7.22
382.168	7.14
382.376	6.82
382.584	6.75
382.791	6.8
382.999	6.75
383.207	6.73
383.415	6.44
383.623	6.43
383.831	6.46
384.039	6.62
384.247	6.66
384.454	6.71
384.662	6.55
384.87	6.65
385.078	6.6
385.285	6.77
385.493	7.05
385.701	6.98
385.909	6.78
386.116	6.74
386.324	6.67
386.532	6.67
386.739	6.69
386.947	6.75
387.155	6.63
387.362	6.58
387.57	6.42
387.778	6.23
387.985	6.29
388.193	6.42
388.4	6.34
388.608	6.38
388.816	6.34
389.023	6.24
389.231	6.15
389.438	6.06
389.646	6.05
389.853	5.88
390.061	5.96
390.268	6.06
390.475	5.85
390.683	5.87
390.89	5.69
391.098	5.73
391.305	5.77
391.512	5.83
391.72	5.92
391.927	5.87
392.135	6.11
392.342	5.97
392.549	5.8
392.756	5.81
392.964	5.68
393.171	5.64
393.378	5.41
393.586	5.29
393.793	5.15
394	4.93
394.207	4.97
394.414	4.8
394.622	4.78
394.829	4.89
395.036	4.92
395.243	5.08
395.45	5.19
395.657	5.33
395.864	5.38
396.072	5.59
396.279	5.69
396.486	5.6
396.693	5.78
396.9	5.69
397.107	5.65
397.314	5.4
397.521	5.23
397.728	4.91
397.935	4.91
398.142	4.85
398.349	4.65
398.556	4.72
398.763	4.86
398.97	4.7
399.177	4.69
399.383	4.69
399.59	4.72
399.797	4.85
400.004	4.86
400.211	4.77
400.418	4.78
400.625	4.87
400.831	4.6
401.038	4.44
401.245	4.09
401.452	4.2
401.658	4.06
401.865	4.2
402.072	4.09
402.279	4.09
402.485	3.99
402.692	3.97
402.899	4
403.105	4.05
403.312	3.93
403.519	4.17
403.725	4.07
403.932	4.1
404.138	4.17
404.345	4.24
404.552	4.3
404.758	4.45
404.965	4.44
405.171	4.41
405.378	4.41
405.584	4.55
405.791	4.35
405.997	4.32
406.204	4.36
406.41	4.25
406.617	4.21
406.823	4.12
407.029	4.15
407.236	4.01
407.442	3.99
407.649	4.1
407.855	3.88
408.061	4.06
408.268	4.09
408.474	4.05
408.68	4.09
408.887	3.95
409.093	3.97
409.299	3.85
409.505	3.87
409.712	3.89
409.918	3.9
410.124	3.91
410.33	3.99
410.537	3.81
410.743	3.88
410.949	3.77
411.155	3.88
411.361	3.79
411.567	3.8
411.773	3.78
411.98	3.7
412.186	3.66
412.392	3.71
412.598	3.66
412.804	3.73
413.01	3.57
413.216	3.67
413.422	3.57
413.628	3.64
413.834	3.49
414.04	3.5
414.246	3.42
414.452	3.46
414.658	3.58
414.864	3.49
415.07	3.61
415.275	3.68
415.481	3.75
415.687	3.79
415.893	3.83
416.099	3.79
416.305	3.86
416.511	3.96
416.716	3.82
416.922	3.77
417.128	3.7
417.334	3.66
417.539	3.63
417.745	3.46
417.951	3.44
418.157	3.37
418.362	3.47
418.568	3.46
418.774	3.42
418.979	3.41
419.185	3.36
419.391	3.39
419.596	3.31
419.802	3.32
420.008	3.35
420.213	3.3
420.419	3.26
420.624	3.2
420.83	3.17
421.035	3.07
421.241	3.02
421.446	3.01
421.652	2.96
421.857	2.99
422.063	2.92
422.268	2.97
422.474	3.02
422.679	3.08
422.885	3.06
423.09	3.02
423.295	3.1
423.501	3.19
423.706	3.19
423.911	3.29
424.117	3.32
424.322	3.31
424.527	3.2
424.733	3.15
424.938	3.11
425.143	3.14
425.349	3.09
425.554	3.02
425.759	3.04
425.964	3.01
426.169	2.93
426.375	2.91
426.58	2.92
426.785	2.87
426.99	2.94
427.195	2.93
427.4	2.9
427.605	3.02
427.811	3.07
428.016	2.98
428.221	3.04
428.426	3.09
428.631	3.18
428.836	3.22
429.041	3.4
429.246	3.25
429.451	3.18
429.656	3.14
429.861	3.09
430.066	3.12
430.271	3.09
430.476	2.92
430.681	2.84
430.886	2.75
431.09	2.71
431.295	2.56
431.5	2.63
431.705	2.71
431.91	2.77
432.115	2.71
432.32	2.7
432.524	2.74
432.729	2.8
432.934	2.78
433.139	2.74
433.343	2.7
433.548	2.74
433.753	2.69
433.958	2.71
434.162	2.68
434.367	2.62
434.572	2.53
434.776	2.43
434.981	2.45
435.186	2.49
435.39	2.5
435.595	2.54
435.799	2.54
436.004	2.59
436.209	2.61
436.413	2.62
436.618	2.75
436.822	2.88
437.027	2.86
437.231	2.82
437.436	2.76
437.64	2.79
437.845	2.75
438.049	2.73
438.253	2.75
438.458	2.75
438.662	2.74
438.867	2.8
439.071	2.72
439.275	2.67
439.48	2.64
439.684	2.67
439.888	2.66
440.093	2.65
440.297	2.67
440.501	2.63
440.706	2.52
440.91	2.5
441.114	2.34
441.318	2.36
441.523	2.44
441.727	2.54
441.931	2.49
442.135	2.46
442.339	2.59
442.543	2.52
442.748	2.49
442.952	2.57
443.156	2.59
443.36	2.7
443.564	2.79
443.768	2.79
443.972	2.77
444.176	2.82
444.38	2.81
444.584	2.71
444.788	2.72
444.992	2.73
445.196	2.68
445.4	2.72
445.604	2.69
445.808	2.61
446.012	2.57
446.216	2.54
446.42	2.5
446.624	2.44
446.828	2.5
447.032	2.51
447.235	2.53
447.439	2.51
447.643	2.46
447.847	2.44
448.051	2.38
448.254	2.34
448.458	2.26
448.662	2.31
448.866	2.33
449.069	2.19
449.273	2.11
449.477	2.14
449.681	2.21
449.884	2.23
450.088	2.22
450.292	2.28
450.495	2.33
450.699	2.36
450.902	2.39
451.106	2.34
451.31	2.42
451.513	2.47
451.717	2.37
451.92	2.31
452.124	2.3
452.327	2.28
452.531	2.31
452.734	2.29
452.938	2.4
453.141	2.36
453.345	2.34
453.548	2.35
453.752	2.35
453.955	2.48
454.158	2.42
454.362	2.42
454.565	2.34
454.769	2.36
454.972	2.42
455.175	2.39
455.379	2.37
455.582	2.49
455.785	2.49
455.988	2.48
456.192	2.36
456.395	2.52
456.598	2.55
456.801	2.64
457.005	2.62
457.208	2.62
457.411	2.62
457.614	2.51
457.817	2.39
458.021	2.38
458.224	2.45
458.427	2.36
458.63	2.3
458.833	2.22
459.036	2.25
459.239	2.26
459.442	2.23
459.645	2.09
459.848	2.23
460.051	2.32
460.254	2.36
460.457	2.39
460.66	2.47
460.863	2.52
461.066	2.54
461.269	2.51
461.472	2.45
461.675	2.53
461.878	2.6
462.081	2.61
462.284	2.55
462.486	2.49
462.689	2.38
462.892	2.28
463.095	2.2
463.298	2.19
463.5	2.19
463.703	2.25
463.906	2.19
464.109	2.28
464.311	2.19
464.514	2.24
464.717	2.35
464.92	2.3
465.122	2.38
465.325	2.42
465.528	2.37
465.73	2.45
465.933	2.5
466.135	2.49
466.338	2.46
466.541	2.54
466.743	2.54
466.946	2.58
467.148	2.5
467.351	2.53
467.553	2.48
467.756	2.58
467.958	2.58
468.161	2.51
468.363	2.52
468.566	2.58
468.768	2.57
468.971	2.44
469.173	2.28
469.375	2.43
469.578	2.55
469.78	2.59
469.983	2.67
470.185	2.71
470.387	2.67
470.59	2.71
470.792	2.76
470.994	2.75
471.196	2.82
471.399	2.86
471.601	2.86
471.803	2.69
472.005	2.74
472.208	2.69
472.41	2.57
472.612	2.61
472.814	2.64
473.016	2.6
473.218	2.59
473.421	2.62
473.623	2.61
473.825	2.63
474.027	2.72
474.229	2.73
474.431	2.73
474.633	2.77
474.835	2.84
475.037	2.74
475.239	2.73
475.441	2.74
475.643	2.82
475.845	2.81
476.047	2.77
476.249	2.88
476.451	2.83
476.653	2.83
476.855	2.88
477.057	2.84
477.258	2.86
477.46	2.82
477.662	2.78
477.864	2.71
478.066	2.73
478.268	2.74
478.469	2.68
478.671	2.72
478.873	2.76
479.075	2.73
479.276	2.8
479.478	2.84
479.68	2.87
479.882	2.83
480.083	2.9
480.285	2.87
480.487	2.87
480.688	2.77
480.89	2.77
481.091	2.67
481.293	2.62
481.495	2.51
481.696	2.46
481.898	2.45
482.099	2.46
482.301	2.46
482.502	2.49
482.704	2.46
482.905	2.46
483.107	2.41
483.308	2.43
483.51	2.41
483.711	2.42
483.913	2.42
484.114	2.41
484.315	2.4
484.517	2.38
484.718	2.35
484.92	2.36
485.121	2.34
485.322	2.33
485.524	2.3
485.725	2.35
485.926	2.32
486.127	2.31
486.329	2.31
486.53	2.32
486.731	2.37
486.932	2.37
487.134	2.35
487.335	2.39
487.536	2.38
487.737	2.4
487.938	2.35
488.139	2.38
488.341	2.39
488.542	2.39
488.743	2.38
488.944	2.36
489.145	2.35
489.346	2.39
489.547	2.38
489.748	2.4
489.949	2.41
490.15	2.44
490.351	2.46
490.552	2.44
490.753	2.39
490.954	2.4
491.155	2.4
491.356	2.43
491.557	2.38
491.758	2.38
491.959	2.41
492.159	2.42
492.36	2.4
492.561	2.38
492.762	2.45
492.963	2.57
493.164	2.58
493.364	2.59
493.565	2.66
493.766	2.7
493.967	2.73
494.167	2.78
494.368	2.81
494.569	2.9
494.769	2.91
494.97	2.9
495.171	2.83
495.371	2.87
495.572	2.85
495.773	2.79
495.973	2.84
496.174	2.85
496.375	2.81
496.575	2.78
496.776	2.81
496.976	2.86
497.177	2.86
497.377	2.83
497.578	2.86
497.778	2.88
497.979	2.87
498.179	2.94
498.38	2.96
498.58	3
498.78	3.07
498.981	3.02
499.181	2.96
499.382	2.9
499.582	2.92
499.782	2.87
499.983	2.88
500.183	2.94
500.383	2.92
500.584	2.96
500.784	2.99
500.984	2.96
501.184	3.14
501.385	3.22
501.585	3.33
501.785	3.43
501.985	3.45
502.185	3.43
502.386	3.41
502.586	3.43
502.786	3.51
502.986	3.47
503.186	3.61
503.386	3.47
503.586	3.44
503.786	3.45
503.987	3.49
504.187	3.63
504.387	3.71
504.587	3.79
504.787	3.78
504.987	3.75
505.187	3.86
505.387	3.82
505.587	3.85
505.786	3.97
505.986	4.02
506.186	4.02
506.386	3.98
506.586	3.97
506.786	4.06
506.986	4.16
507.186	4.26
507.386	4.23
507.585	4.24
507.785	4.34
507.985	4.39
508.185	4.38
508.384	4.46
508.584	4.56
508.784	4.59
508.984	4.61
509.183	4.61
509.383	4.54
509.583	4.64
509.782	4.6
509.982	4.62
510.182	4.68
510.381	4.73
510.581	4.69
510.781	4.72
510.98	4.82
511.18	4.83
511.379	4.87
511.579	4.9
511.778	4.95
511.978	5.08
512.177	5.15
512.377	5.14
512.576	5.22
512.776	5.42
512.975	5.45
513.175	5.53
513.374	5.52
513.573	5.55
513.773	5.74
513.972	5.82
514.172	5.9
514.371	6.01
514.57	6.15
514.77	6.22
514.969	6.19
515.168	6.35
515.367	6.37
515.567	6.45
515.766	6.61
515.965	6.65
516.164	6.71
516.364	6.72
516.563	6.78
516.762	6.78
516.961	6.85
517.16	6.99
517.359	7.04
517.559	7.21
517.758	7.31
517.957	7.47
518.156	7.52
518.355	7.56
518.554	7.65
518.753	7.72
518.952	7.84
519.151	7.92
519.35	7.89
519.549	7.93
519.748	7.89
519.947	8.04
520.146	8.01
520.345	8.07
520.544	8.18
520.743	8.32
520.942	8.35
521.141	8.42
521.339	8.53
521.538	8.67
521.737	8.8
521.936	8.88
522.135	8.85
522.333	8.98
522.532	9.12
522.731	9.13
522.93	9.11
523.129	9.21
523.327	9.27
523.526	9.31
523.725	9.41
523.923	9.48
524.122	9.58
524.321	9.66
524.519	9.62
524.718	9.71
524.917	9.84
525.115	9.97
525.314	10.06
525.512	10.17
525.711	10.28
525.909	10.36
526.108	10.4
526.306	10.51
526.505	10.61
526.703	10.7
526.902	10.73
527.1	10.83
527.299	10.93
527.497	11.01
527.696	11.05
527.894	11.07
528.092	11.12
528.291	11.2
528.489	11.23
528.688	11.29
528.886	11.31
529.084	11.35
529.283	11.38
529.481	11.37
529.679	11.4
529.877	11.48
530.076	11.55
530.274	11.58
530.472	11.6
530.67	11.69
530.869	11.73
531.067	11.87
531.265	11.96
531.463	12.05
531.661	12.15
531.859	12.22
532.057	12.26
532.255	12.27
532.454	12.36
532.652	12.43
532.85	12.48
533.048	12.5
533.246	12.57
533.444	12.61
533.642	12.61
533.84	12.63
534.038	12.71
534.236	12.72
534.434	12.83
534.632	12.87
534.83	12.95
535.027	12.96
535.225	13.09
535.423	13.15
535.621	13.27
535.819	13.34
536.017	13.45
536.215	13.52
536.412	13.65
536.61	13.68
536.808	13.77
537.006	13.8
537.203	13.95
537.401	14.04
537.599	14.03
537.797	14.04
537.994	14.09
538.192	14.12
538.39	14.18
538.587	14.25
538.785	14.37
538.983	14.52
539.18	14.59
539.378	14.62
539.575	14.7
539.773	14.88
539.97	15.04
540.168	15.14
540.366	15.25
540.563	15.32
540.761	15.36
540.958	15.42
541.155	15.42
541.353	15.5
541.55	15.58
541.748	15.65
541.945	15.69
542.143	15.68
542.34	15.72
542.537	15.71
542.735	15.72
542.932	15.79
543.129	15.87
543.327	15.96
543.524	16.06
543.721	16.15
543.919	16.28
544.116	16.36
544.313	16.57
544.51	16.77
544.708	17.02
544.905	17.2
545.102	17.38
545.299	17.55
545.496	17.7
545.693	17.77
545.891	17.78
546.088	17.77
546.285	17.79
546.482	17.72
546.679	17.73
546.876	17.66
547.073	17.68
547.27	17.6
547.467	17.48
547.664	17.35
547.861	17.31
548.058	17.34
548.255	17.34
548.452	17.26
548.649	17.3
548.846	17.2
549.043	17.31
549.24	17.3
549.437	17.34
549.633	17.32
549.83	17.34
550.027	17.34
550.224	17.25
550.421	17.19
550.618	17.27
550.814	17.27
551.011	17.4
551.208	17.26
551.405	17.27
551.601	17.11
551.798	17.21
551.995	17.2
552.191	17.24
552.388	17.17
552.585	17.27
552.781	17.33
552.978	17.32
553.175	17.27
553.371	17.31
553.568	17.21
553.764	17.34
553.961	17.33
554.157	17.4
554.354	17.32
554.55	17.46
554.747	17.45
554.943	17.46
555.14	17.52
555.336	17.67
555.533	17.68
555.729	17.79
555.926	17.91
556.122	17.86
556.318	17.77
556.515	17.93
556.711	17.86
556.907	17.89
557.104	18.04
557.3	18.03
557.496	17.98
557.693	17.97
557.889	18.02
558.085	17.95
558.281	18.02
558.478	18.12
558.674	18.26
558.87	18.39
559.066	18.32
559.262	18.25
559.459	18.24
559.655	18.25
559.851	18.39
560.047	18.34
560.243	18.37
560.439	18.28
560.635	18.42
560.831	18.21
561.027	18.22
561.223	18.3
561.419	18.2
561.615	18.3
561.811	18.3
562.007	18.2
562.203	18.35
562.399	18.38
562.595	18.56
562.791	18.53
562.987	18.69
563.183	18.69
563.379	18.64
563.575	18.8
563.771	18.82
563.966	18.83
564.162	18.95
564.358	18.88
564.554	18.84
564.75	18.86
564.945	18.88
565.141	18.92
565.337	19.05
565.533	19.13
565.728	19.14
565.924	19.24
566.12	19.3
566.315	19.31
566.511	19.25
566.707	19.27
566.902	19.28
567.098	19.28
567.293	19.22
567.489	19.19
567.684	19.2
567.88	19.23
568.076	19.05
568.271	19.09
568.467	19.08
568.662	19.26
568.858	19.36
569.053	19.36
569.248	19.4
569.444	19.55
569.639	19.56
569.835	19.57
570.03	19.56
570.225	19.61
570.421	19.63
570.616	19.66
570.812	19.6
571.007	19.55
571.202	19.62
571.397	19.75
571.593	19.72
571.788	19.8
571.983	19.83
572.178	19.83
572.374	19.85
572.569	19.77
572.764	19.78
572.959	19.84
573.154	19.93
573.35	19.95
573.545	19.92
573.74	19.9
573.935	19.82
574.13	19.82
574.325	19.87
574.52	20
574.715	20.09
574.91	20.09
575.105	20.2
575.3	20.31
575.495	20.3
575.69	20.32
575.885	20.44
576.08	20.47
576.275	20.62
576.47	20.69
576.665	20.77
576.86	20.96
577.055	21.04
577.25	21.09
577.444	21.12
577.639	21.31
577.834	21.4
578.029	21.42
578.224	21.57
578.418	21.61
578.613	21.67
578.808	21.7
579.003	21.48
579.197	21.44
579.392	21.4
579.587	21.34
579.781	21.19
579.976	21.18
580.171	21.12
580.365	21.15
580.56	21.1
580.755	21.14
580.949	21.17
581.144	21.31
581.338	21.41
581.533	21.49
581.727	21.54
581.922	21.64
582.116	21.59
582.311	21.7
582.505	21.65
582.7	21.67
582.894	21.64
583.089	21.6
583.283	21.53
583.478	21.62
583.672	21.49
583.866	21.45
584.061	21.35
584.255	21.45
584.449	21.38
584.644	21.51
584.838	21.67
585.032	21.86
585.226	21.95
585.421	22.09
585.615	21.99
585.809	22.17
586.003	22.22
586.198	22.43
586.392	22.51
586.586	22.58
586.78	22.53
586.974	22.44
587.168	22.22
587.363	22.22
587.557	22.17
587.751	22.13
587.945	21.97
588.139	22.09
588.333	21.96
588.527	21.99
588.721	21.9
588.915	21.85
589.109	21.62
589.303	21.78
589.497	21.71
589.691	21.69
589.885	21.87
590.079	21.92
590.273	21.92
590.466	21.98
590.66	21.88
590.854	22.09
591.048	22.19
591.242	22.41
591.436	22.34
591.629	22.39
591.823	22.59
592.017	22.62
592.211	22.74
592.404	22.65
592.598	22.56
592.792	22.68
592.986	22.7
593.179	22.62
593.373	22.53
593.567	22.58
593.76	22.54
593.954	22.33
594.147	22.31
594.341	22.23
594.535	22.13
594.728	22.2
594.922	22.04
595.115	21.87
595.309	21.87
595.502	22
595.696	21.84
595.889	21.82
596.083	21.72
596.276	21.67
596.47	21.59
596.663	21.7
596.856	21.68
597.05	21.61
597.243	21.55
597.437	21.54
597.63	21.46
597.823	21.58
598.017	21.75
598.21	22.03
598.403	22.1
598.596	22.21
598.79	22.24
598.983	22.27
599.176	22.42
599.369	22.56
599.563	22.66
599.756	22.74
599.949	22.63
600.142	22.51
600.335	22.5
600.528	22.47
600.722	22.51
600.915	22.4
601.108	22.42
601.301	22.43
601.494	22.46
601.687	22.45
601.88	22.42
602.073	22.35
602.266	22.2
602.459	22.11
602.652	22.15
602.845	21.97
603.038	21.98
603.231	22.04
603.424	21.94
603.617	21.82
603.809	21.85
604.002	21.91
604.195	21.87
604.388	21.97
604.581	22.01
604.774	21.93
604.966	21.95
605.159	21.9
605.352	21.85
605.545	21.96
605.737	22.08
605.93	21.96
606.123	21.88
606.316	22.12
606.508	22.16
606.701	22.14
606.894	22.19
607.086	22.35
607.279	22.61
607.471	22.67
607.664	22.79
607.857	22.95
608.049	23.27
608.242	23.58
608.434	24.07
608.627	24.45
608.819	24.92
609.012	25.56
609.204	26.32
609.397	26.92
609.589	27.77
609.782	28.62
609.974	29.51
610.166	30.36
610.359	31.09
610.551	31.53
610.743	32.08
610.936	32.58
611.128	32.85
611.32	32.96
611.513	33.15
611.705	32.94
611.897	32.61
612.09	32.3
612.282	31.9
612.474	31.5
612.666	31.3
612.858	30.95
613.051	30.6
613.243	30.32
613.435	29.95
613.627	29.48
613.819	28.99
614.011	28.93
614.203	28.62
614.395	28.38
614.588	28.07
614.78	27.47
614.972	27.13
615.164	26.74
615.356	26.24
615.548	25.89
615.74	25.76
615.932	25.81
616.124	25.35
616.315	25.13
616.507	24.78
616.699	24.59
616.891	24.4
617.083	24.3
617.275	24.2
617.467	24.14
617.659	24.12
617.85	23.93
618.042	23.68
618.234	23.67
618.426	23.54
618.618	23.42
618.809	23.22
619.001	23.28
619.193	23.28
619.384	23.23
619.576	23.43
619.768	23.38
619.959	23.29
620.151	23.5
620.343	23.32
620.534	23.17
620.726	23.26
620.917	23.33
621.109	23.34
621.301	23.41
621.492	23.47
621.684	23.42
621.875	23.62
622.067	23.65
622.258	23.53
622.45	23.58
622.641	23.97
622.832	24.13
623.024	24.38
623.215	24.49
623.407	24.41
623.598	24.42
623.789	24.47
623.981	24.39
624.172	24.66
624.363	24.75
624.555	24.92
624.746	24.64
624.937	24.55
625.129	24.46
625.32	24.38
625.511	24.35
625.702	24.38
625.893	24.34
626.085	24.16
626.276	23.86
626.467	23.84
626.658	23.75
626.849	23.72
627.04	23.78
627.231	23.9
627.422	23.86
627.614	23.88
627.805	23.84
627.996	23.94
628.187	24.07
628.378	24.38
628.569	24.46
628.76	24.64
628.951	24.88
629.142	25
629.332	24.92
629.523	25.13
629.714	25.28
629.905	25.36
630.096	25.21
630.287	25.31
630.478	25.05
630.669	25.17
630.859	24.95
631.05	24.79
631.241	24.6
631.432	24.54
631.623	24.44
631.813	24.27
632.004	24.2
632.195	24.19
632.385	23.96
632.576	23.92
632.767	23.65
632.957	23.74
633.148	23.6
633.339	23.48
633.529	23.51
633.72	23.42
633.91	23.44
634.101	23.41
634.292	23.4
634.482	23.38
634.673	23.45
634.863	23.44
635.054	23.36
635.244	23.52
635.435	23.46
635.625	23.28
635.815	23.3
636.006	23.27
636.196	23.29
636.387	23.28
636.577	23.27
636.767	23.18
636.958	23.05
637.148	22.96
637.338	22.79
637.529	22.93
637.719	22.79
637.909	22.89
638.099	22.82
638.29	22.59
638.48	22.58
638.67	22.69
638.86	22.8
639.05	22.95
639.241	23.05
639.431	23.23
639.621	23.14
639.811	23.38
640.001	22.98
640.191	23.1
640.381	23.23
640.571	23.33
640.761	23.23
640.951	23.05
641.141	23.16
641.331	23.31
641.521	23.27
641.711	23.28
641.901	23.1
642.091	23.4
642.281	23.35
642.471	23.33
642.661	23.21
642.851	23.33
643.041	23.44
643.231	23.68
643.42	23.47
643.61	23.51
643.8	23.4
643.99	23.37
644.18	23.28
644.369	23.39
644.559	23.6
644.749	23.55
644.939	23.5
645.128	23.37
645.318	23.1
645.508	23.16
645.697	22.87
645.887	22.95
646.076	23.19
646.266	23.24
646.456	23.21
646.645	23.04
646.835	23.04
647.024	23.15
647.214	23.4
647.403	23.38
647.593	23.48
647.782	23.76
647.972	23.86
648.161	23.91
648.351	23.86
648.54	23.83
648.73	23.92
648.919	24.21
649.108	24.21
649.298	24.22
649.487	24.22
649.677	24.09
649.866	24.05
650.055	24.1
650.244	23.95
650.434	23.98
650.623	23.84
650.812	23.66
651.002	23.41
651.191	23.31
651.38	23.44
651.569	23.46
651.758	23.45
651.947	23.62
652.137	23.58
652.326	23.72
652.515	23.85
652.704	23.9
652.893	24.23
653.082	24.15
653.271	24.25
653.46	24.1
653.649	24.12
653.838	24.12
654.027	24.13
654.216	24.03
654.405	23.87
654.594	23.67
654.783	23.75
654.972	23.65
655.161	23.75
655.35	23.73
655.539	23.73
655.728	23.76
655.916	23.89
656.105	23.83
656.294	24
656.483	24.19
656.672	24.35
656.86	24.37
657.049	24.21
657.238	23.99
657.427	24.09
657.615	23.95
657.804	23.74
657.993	23.66
658.181	23.39
658.37	23.49
658.559	23.45
658.747	23.37
658.936	23.38
659.125	23.31
659.313	23.42
659.502	23.31
659.69	23.3
659.879	23.45
660.067	23.49
660.256	23.66
660.444	23.56
660.633	23.55
660.821	23.46
661.01	23.4
661.198	23.43
661.387	23.51
661.575	23.45
661.763	23.5
661.952	23.55
662.14	23.54
662.328	23.51
662.517	23.45
662.705	23.49
662.893	23.68
663.082	23.71
663.27	23.63
663.458	23.68
663.646	23.82
663.834	23.78
664.023	23.6
664.211	23.67
664.399	23.59
664.587	23.55
664.775	23.63
664.963	23.74
665.152	23.99
665.34	24.53
665.528	24.69
665.716	24.78
665.904	25.04
666.092	25.1
666.28	24.94
666.468	24.99
666.656	25.45
666.844	25.35
667.032	24.97
667.22	24.58
667.408	24.42
667.596	24.16
667.784	23.83
667.971	23.69
668.159	23.48
668.347	23.62
668.535	23.55
668.723	23.09
668.911	23.01
669.098	23.39
669.286	23.45
669.474	23.17
669.662	23.37
669.849	23.43
670.037	23.35
670.225	23.7
670.413	23.73
670.6	24.03
670.788	24.01
670.976	24.07
671.163	23.85
671.351	24.04
671.538	24.22
671.726	24.12
671.913	24.03
672.101	24.14
672.289	24
672.476	24.1
672.664	24.03
672.851	24.09
673.039	24.17
673.226	23.98
673.413	23.73
673.601	23.76
673.788	23.76
673.976	24.09
674.163	23.75
674.35	23.88
674.538	23.76
674.725	23.62
674.912	23.84
675.1	23.58
675.287	23.82
675.474	24.09
675.662	24
675.849	24.15
676.036	23.89
676.223	24.25
676.411	24
676.598	23.87
676.785	23.73
676.972	23.7
677.159	23.9
677.346	23.97
677.533	23.97
677.721	23.8
677.908	23.62
678.095	23.83
678.282	24
678.469	24.22
678.656	24.25
678.843	24.51
679.03	24.26
679.217	24.3
679.404	24.42
679.591	24.33
679.778	24.61
679.964	24.63
680.151	24.51
680.338	24.4
680.525	24.19
680.712	24.32
680.899	24.12
681.086	24.29
681.272	24.11
681.459	23.98
681.646	23.96
681.833	23.99
682.02	24.02
682.206	24.13
682.393	24.1
682.58	24.17
682.766	24.1
682.953	24.31
683.14	24.27
683.326	24.44
683.513	24.5
683.7	24.58
683.886	24.48
684.073	24.3
684.259	24.08
684.446	23.94
684.632	23.92
684.819	23.9
685.005	23.81
685.192	23.79
685.378	23.6
685.565	23.63
685.751	23.6
685.938	23.74
686.124	23.98
686.31	24.28
686.497	24.23
686.683	24.41
686.87	24.37
687.056	24.46
687.242	24.22
687.429	24.2
687.615	23.94
687.801	24.13
687.987	23.93
688.174	23.84
688.36	23.87
688.546	24.1
688.732	24
688.918	24.2
689.105	24.16
689.291	24.39
689.477	24.52
689.663	24.46
689.849	24.16
690.035	24.17
690.221	24.2
690.407	24.13
690.593	24.13
690.779	24.15
690.965	24.19
691.151	24.16
691.337	24.45
691.523	24.85
691.709	24.85
691.895	24.49
692.081	24.28
692.267	24.33
692.453	24.22
692.639	24.23
692.825	24.08
693.011	23.93
693.196	23.6
693.382	23.15
693.568	22.72
693.754	23.33
693.94	23.48
694.125	23.92
694.311	24.05
694.497	24.22
694.682	24.42
694.868	24.38
695.054	24.46
695.239	24.81
695.425	24.87
695.611	24.77
695.796	24.44
695.982	24.58
696.168	24.43
696.353	24.44
696.539	24.32
696.724	24.19
696.91	24.47
697.095	24.17
697.281	24.19
697.466	24.29
697.652	24.56
697.837	24.57
698.023	24.59
698.208	24.59
698.393	24.43
698.579	24.49
698.764	24.45
698.949	24.28
699.135	24.27
699.32	24.3
699.505	24.41
699.691	24.22
699.876	24.09
700.061	24.43
700.246	24.44
700.432	24.25
700.617	24.3
700.802	24.22
700.987	24.31
701.172	24.7
701.358	24.72
701.543	24.62
701.728	24.66
701.913	24.81
702.098	24.4
702.283	24.48
702.468	24.89
702.653	24.87
702.838	24.97
703.023	25.35
703.208	25.26
703.393	25.27
703.578	25.41
703.763	25.73
703.948	26
704.133	26.57
704.318	26.7
704.503	26.69
704.688	26.57
704.873	26.65
705.057	26.37
705.242	26.81
705.427	26.77
705.612	26.49
705.797	26.68
705.981	26.89
706.166	26.43
706.351	26.27
706.536	26.57
706.72	26.77
706.905	27.16
707.09	27.48
707.274	27.6
707.459	27.76
707.644	28.23
707.828	28.14
708.013	28.13
708.197	28.77
708.382	29.44
708.567	29.44
708.751	29.51
708.936	28.95
709.12	28.94
709.305	28.46
709.489	28.55
709.673	28.43
709.858	28.31
710.042	27.95
710.227	27.32
710.411	26.81
710.596	26.51
710.78	26.29
710.964	26.76
711.149	26.91
711.333	26.92
711.517	26.65
711.702	26.54
711.886	26.37
712.07	26.37
712.254	26.32
712.438	26.44
712.623	25.94
712.807	26.05
712.991	25.64
713.175	25.24
713.359	25.4
713.544	25.26
713.728	25.12
713.912	25.12
714.096	25.33
714.28	25.43
714.464	25.04
714.648	25.48
714.832	25.62
715.016	25.7
715.2	25.72
715.384	25.06
715.568	25.18
715.752	25.2
715.936	25.15
716.12	24.78
716.304	24.92
716.488	24.91
716.671	25.28
716.855	25.15
717.039	25.01
717.223	24.75
717.407	25.29
717.59	25.56
717.774	25.37
717.958	25.38
718.142	25.46
718.325	25.14
718.509	25.4
718.693	24.9
718.877	24.59
719.06	24.28
719.244	24.19
719.428	24.14
719.611	23.36
719.795	23.2
719.978	23.55
720.162	24.01
720.345	24.12
720.529	23.98
720.713	23.91
720.896	24.18
721.08	24.55
721.263	24.57
721.446	24.54
721.63	25.03
721.813	25.58
721.997	25.32
722.18	24.88
722.364	24.9
722.547	25.02
722.73	25.11
722.914	24.93
723.097	24.81
723.28	24.87
723.464	25.22
723.647	25.13
723.83	24.94
724.013	24.56
724.197	24.96
724.38	25.11
724.563	25
724.746	24.67
724.929	24.96
725.112	24.82
725.296	25.07
725.479	24.44
725.662	24.54
725.845	24.48
726.028	24.7
726.211	23.92
726.394	24.09
726.577	24.06
726.76	24.59
726.943	24.68
727.126	25.11
727.309	25.18
727.492	25.28
727.675	25.22
727.858	25.09
728.041	25.39
728.224	25.87
728.407	25.72
728.589	25.86
728.772	25.36
728.955	25.07
729.138	24.5
729.321	24.04
729.503	23.46
729.686	23.85
729.869	23.78
730.052	23.81
730.234	23.83
730.417	23.48
730.6	23.32
730.782	23.26
730.965	23.35
731.148	23.61
731.33	23.98
731.513	24.8
731.695	24.67
731.878	25.14
732.061	25.01
732.243	25.39
732.426	25.84
732.608	25.91
732.791	26.25
732.973	26.39
733.156	26.47
733.338	26.21
733.52	26.08
733.703	25.65
733.885	25.45
734.068	25.5
734.25	24.65
734.432	24.78
734.615	24.9
734.797	24.68
734.979	24.43
735.162	24.27
735.344	24.27
735.526	24.19
735.708	24.68
735.891	24.56
736.073	24.15
736.255	24.96
736.437	24.05
736.619	23.51
736.802	23.97
736.984	23.83
737.166	24.29
737.348	24.35
737.53	24.38
737.712	23.67
737.894	23.89
738.076	24.37
738.258	24.03
738.44	24.41
738.622	24.45
738.804	24.03
738.986	23.71
739.168	23.23
739.35	22.82
739.532	22.72
739.714	22.85
739.896	23.03
740.078	22.75
740.259	22.85
740.441	23.1
740.623	23.86
740.805	23.58
740.987	24.18
741.168	24.43
741.35	25
741.532	25.92
741.714	25.96
741.895	25.18
742.077	24.98
742.259	24.37
742.44	24.39
742.622	23.45
742.804	24.02
742.985	23.76
743.167	23.25
743.348	22.94
743.53	21.65
743.711	22.21
743.893	22.17
744.075	22.66
744.256	22.91
744.438	22.94
744.619	23.34
744.8	23.35
744.982	23.81
745.163	24.54
745.345	25.53
745.526	26.55
745.707	25.92
745.889	25.95
746.07	25.77
746.252	26.06
746.433	25.5
746.614	25.74
746.795	25.25
746.977	24.79
747.158	24.72
747.339	23.73
747.52	23.12
747.702	23.55
747.883	24.24
748.064	24.58
748.245	24.42
748.426	24.65
748.607	24.61
748.788	25.3
748.97	25.24
749.151	25.21
749.332	25.63
749.513	26.04
749.694	26.02
749.875	26.39
750.056	26.3
750.237	27.1
750.418	27.41
750.599	27.06
750.78	26.12
750.96	26.33
751.141	26.47
751.322	26.24
751.503	25.86
751.684	26.18
751.865	25.45
752.046	25.16
752.226	24.08
752.407	23.78
752.588	23.68
752.769	24.27
752.949	24.54
753.13	24.02
753.311	24.53
753.492	25.05
753.672	25.09
753.853	25.14
754.034	25.11
754.214	25.56
754.395	25.66
754.575	25.82
754.756	26.65
754.937	26.32
755.117	26.5
755.298	26.12
755.478	25.15
755.659	24.7
755.839	25.18
756.02	25.28
756.2	25.44
756.381	26.14
756.561	26.06
756.741	25.24
756.922	25.51
757.102	25.35
757.283	25.48
757.463	25.57
757.643	25.64
757.823	24.31
758.004	24.31
758.184	24.46
758.364	24.38
758.545	24.24
758.725	24.22
758.905	24.39
759.085	24.43
759.265	24.49
759.446	25.14
759.626	25.43
759.806	26.29
759.986	27.11
760.166	26.66
760.346	25.88
760.526	26.62
760.706	26.62
760.886	25.88
761.066	26.23
761.246	25.79
761.426	25.73
761.606	24.71
761.786	25
761.966	24.45
762.146	24.11
762.326	24.38
762.506	24.12
762.686	24.19
762.866	24.96
763.046	24.97
763.225	25.21
763.405	25.34
763.585	25.91
763.765	25.56
763.945	25.47
764.124	25.68
764.304	25.48
764.484	25.55
764.664	25.97
764.843	25.48
765.023	25.43
765.203	25.34
765.382	24.72
765.562	24.45
765.741	24.51
765.921	24.44
766.101	23.84
766.28	24.07
766.46	23.76
766.639	23.54
766.819	23.51
766.998	23.65
767.178	24.22
767.357	24.47
767.537	24.5
767.716	24.99
767.896	25.1
768.075	25.93
768.254	25.76
768.434	25.4
768.613	24.88
768.792	25.21
768.972	25.1
769.151	24.08
769.33	23.99
769.51	24.16
769.689	23.03
769.868	22.55
770.047	22.42
770.226	23.43
770.406	23.89
770.585	23.66
770.764	23.64
770.943	23.92
771.122	23.84
771.301	24.49
771.48	24.52
771.66	25.48
771.839	26
772.018	26.38
772.197	25.12
772.376	25.71
772.555	25.76
772.734	25.64
772.913	24.98
773.092	26.06
773.271	25.99
773.449	26.34
773.628	25.9
773.807	25.52
773.986	25.02
774.165	24.95
774.344	24.99
774.523	25.93
774.701	25.78
774.88	26.37
775.059	25.68
775.238	23.79
775.417	23.59
775.595	23.83
775.774	24.09
775.953	24.26
776.131	25.33
776.31	24.78
776.489	23.93
776.667	24.09
776.846	23.66
777.025	23.22
777.203	24.45
777.382	24.43
777.56	24.83
777.739	24.51
777.917	24.85
778.096	24.59
778.274	24.58
778.453	25.54
778.631	25.74
778.81	24.66
778.988	24.62
779.166	24.83
779.345	24.63
779.523	23.91
779.702	24.93
779.88	24.55
780.058	23.64
780.237	24.7
780.415	24.06
780.593	24.06
780.771	26.88
780.95	28.3
781.128	28.74
781.306	29.12
781.484	29.28
781.662	28.36
781.841	29.25
782.019	30.18
782.197	28.97
782.375	29.07
782.553	28.72
782.731	27.98
782.909	27.5
783.087	26.91
783.265	27.04
783.443	27.41
783.621	28.51
783.799	28.35
783.977	27.27
784.155	28.35
784.333	28.35
784.511	28.28
784.689	27.33
784.867	27.36
785.045	27.78
785.223	28.17
785.4	28.08
785.578	27.31
785.756	26.15
785.934	27.42
786.112	26.6
786.289	26.63
786.467	27.44
786.645	28.02
786.823	26.69
787	26.11
787.178	25.94
787.356	25.64
787.533	25.67
787.711	26.46
787.889	26.17
788.066	26.46
788.244	26.21
788.421	26.23
788.599	25.54
788.776	26.52
788.954	26.04
789.131	25.81
789.309	26.13
789.486	26.47
789.664	25.85
789.841	26.1
790.019	25.15
790.196	24.57
790.373	23.18
790.551	23.52
790.728	23.21
790.906	24.94
791.083	25.08
791.26	24.69
791.437	24.67
791.615	25.39
791.792	25.63
791.969	26
792.146	26.54
792.324	27.62
792.501	27.66
792.678	28.29
792.855	27.58
793.032	26.28
793.209	27.48
793.387	26.87
793.564	26.91
793.741	25.55
793.918	26.18
794.095	26.94
794.272	27.71
794.449	27.44
794.626	25.44
794.803	25.29
794.98	25.73
795.157	24.51
795.334	24.43
795.511	24.2
795.688	24.98
795.864	24.1
796.041	24.05
796.218	23.46
796.395	22.77
796.572	23.38
796.749	23.44
796.925	23.4
797.102	24.93
797.279	26.02
797.456	26.38
797.632	26.02
797.809	27
797.986	27.31
798.162	26.93
798.339	27.37
798.516	28.61
798.692	28.8
798.869	29.09
799.046	28.47
799.222	26.88
799.399	27.28
799.575	27.44
799.752	27.27
799.928	26.67
800.105	27.09
800.281	27.28
800.458	26.77
800.634	26.51
800.811	25.98
800.987	24.35
801.163	25.37
801.34	24.04
801.516	24.39
801.692	24.77
801.869	24.34
802.045	24.99
802.221	25.32
802.398	24.65
802.574	24.71
802.75	25.83
802.926	27.27
803.103	27.61
803.279	27.77
803.455	26.74
803.631	25.96
803.807	26.55
803.983	25.74
804.16	25.38
804.336	26.74
804.512	27.37
804.688	27.12
804.864	27.08
805.04	26.64
805.216	27.47
805.392	28.71
805.568	28.57
805.744	28.71
805.92	29.05
806.096	28.81
806.272	28.25
806.448	27.31
806.623	27.59
806.799	26.71
806.975	27.01
807.151	26.13
807.327	27.13
807.503	27.62
807.678	27.7
807.854	26.7
808.03	27.28
808.206	27.26
808.381	27.64
808.557	27.88
808.733	29.49
808.908	30.6
809.084	31.1
809.26	30.72
809.435	30.73
809.611	30.8
809.787	31.44
809.962	31.92
810.138	32.08
810.313	30.52
810.489	29.24
810.664	27.82
810.84	26.65
811.015	26.57
811.191	27.44
811.366	27.97
811.542	28.37
811.717	27.55
811.892	25.92
812.068	25.3
812.243	27.29
812.419	28.3
812.594	27.82
812.769	27.7
812.944	27.05
813.12	23.61
813.295	23.66
813.47	22.27
813.645	22.32
813.821	22.59
813.996	23.4
814.171	23.87
814.346	23.18
814.521	24.42
814.697	24.47
814.872	23.61
815.047	25.87
815.222	25.82
815.397	27.06
815.572	27.79
815.747	27.4
815.922	27.72
816.097	28
816.272	29
816.447	28.85
816.622	27.97
816.797	28.7
816.972	27.74
817.147	28.12
817.322	27.04
817.496	27.03
817.671	28.15
817.846	26.96
818.021	25.8
818.196	25.32
818.371	25.3
818.545	26.29
818.72	27.25
818.895	28
819.069	26.7
819.244	26.86
819.419	26.09
819.594	26.16
819.768	26.04
819.943	25.67
820.117	24.33
820.292	23.92
820.467	23.08
820.641	22.93
820.816	22.36
820.99	22.56
821.165	22.15
821.339	22.29
821.514	22.08
821.688	22.13
821.863	22.01
822.037	22.61
822.212	22.89
822.386	22.85
822.56	22.73
822.735	22.82
822.909	23.09
823.084	23.26
823.258	23.06
823.432	23.05
823.606	23.12
823.781	23.36
823.955	23.09
824.129	22.94
824.303	23.08
824.478	23.31
824.652	23.63
824.826	23.08
825	23.13
825.174	23.89
825.348	24.25
825.523	23.76
825.697	23.87
825.871	24.04
826.045	23.93
826.219	24.7
826.393	24.42
826.567	24.48
826.741	24.65
826.915	24.29
827.089	24.25
827.263	24.11
827.437	24.84
827.611	24.87
827.784	24.99
827.958	25.38
828.132	24.2
828.306	24.35
828.48	24.32
828.654	24.37
828.827	24.97
829.001	24.43
829.175	24.79
829.349	24.72
829.522	24.46
829.696	24.26
829.87	24.14
830.044	24.53
830.217	25.03
830.391	24.73
830.565	26.11
830.738	26.32
830.912	26.28
831.085	26.09
831.259	26.81
831.432	26.41
831.606	27.82
831.779	27.19
831.953	27.33
832.126	26.25
832.3	26.15
832.473	24.31
832.647	24.53
832.82	25.24
832.994	24.11
833.167	23.96
833.34	24.42
833.514	23.33
833.687	23.55
833.86	24.45
834.034	24.28
834.207	24.28
834.38	24.51
834.553	24.04
834.727	23.93
834.9	24.29
835.073	24
835.246	23.73
835.419	23.49
835.593	23.83
835.766	23.84
835.939	24.99
836.112	24.39
836.285	23.68
836.458	23.91
836.631	23.04
836.804	23.55
836.977	22.83
837.15	23.37
837.323	25.01
837.496	24.18
837.669	23.28
837.842	22.73
838.015	24.27
838.188	25.96
838.361	26.04
838.533	27.76
838.706	27.57
838.879	28.33
839.052	29.29
839.225	29.26
839.398	28.88
839.57	29.81
839.743	27.9
839.916	28.41
840.088	29.02
840.261	28.68
840.434	28.12
840.607	29.89
840.779	30.88
840.952	29.71
841.124	29.08
841.297	28.73
841.47	27.6
841.642	28.43
841.815	26.66
841.987	25.37
842.16	26.65
842.332	28.41
842.505	27.3
842.677	26.63
842.85	25.9
843.022	25.86
843.194	27.11
843.367	28.86
843.539	30.04
843.712	33.17
843.884	33.3
844.056	33.03
844.229	34.24
844.401	32.14
844.573	33.81
844.745	34.23
844.918	35.08
845.09	35.18
845.262	33.86
845.434	34.49
845.606	30.24
845.779	32.76
845.951	32.71
846.123	27.81
846.295	28.13
846.467	26.54
846.639	27.69
846.811	25.93
846.983	25.41
847.155	25.18
847.327	24.43
847.499	29.96
847.671	28.95
847.843	30.76
848.015	30.74
848.187	30.81
848.359	32.97
848.531	32.76
848.703	34.08
848.875	32.08
849.047	30.92
849.218	26.4
849.39	25.69
849.562	26.32
849.734	23.21
849.905	27.3
850.077	29.57
850.249	30.03
850.421	28.63
850.592	28.33
850.764	32.61
850.936	36.3
851.107	42.7
851.279	40.8
851.451	38.36
851.622	39.17
851.794	37.47
851.965	35.89
852.137	34.94
852.308	38.11
852.48	38.67
852.651	37.36
852.823	36.02
852.994	32.5
853.166	34.15
853.337	34.37
853.509	35.72
853.68	36.86
853.851	37.52
854.023	38.1
854.194	35.19
854.365	30.04
854.537	31.11
854.708	29.07
854.879	31.38
855.05	26.53
855.222	33.06
855.393	28.27
855.564	28.28
855.735	25.81
855.906	24.11
856.078	19.11
856.249	25.58
856.42	26.85
856.591	30.82
856.762	29.05
856.933	29.99
857.104	29.07
857.275	30.72
857.446	31.35
857.617	36.86
857.788	39.03
857.959	48.47
858.13	48.37
858.301	47.29
858.472	43.49
858.643	47.39
858.814	47.99
858.985	46.55
859.155	48.15
859.326	46.64
859.497	47.16
859.668	43.81
859.839	37.63
860.009	38.89
860.18	41.29
860.351	43.91
860.522	44.61
860.692	44.57
860.863	43.37
861.034	41.06
861.204	42.99
861.375	40.11
861.546	39.97
861.716	41.09
861.887	37.34
862.057	32.66
862.228	31.31
862.398	28.15
862.569	25.96
862.739	27.46
862.91	26.66
863.08	26.4
863.251	24
863.421	23.28
863.592	18.87
863.762	19.68
863.932	16.16
864.103	16.73
864.273	13.22
864.443	17.99
864.614	14.41
864.784	15.99
864.954	13.37
865.125	11.05
865.295	13.29
865.465	22.61
865.635	26.32
865.805	28.72
865.976	30.51
866.146	32.1
866.316	26.08
866.486	26.52
866.656	28.04
866.826	24.26
866.996	30.57
867.166	33
867.336	27.42
867.506	24.84
867.676	28.42
867.846	26.86
868.016	31.66
868.186	36.21
868.356	40.49
868.526	39.27
868.696	46.13
868.866	42.22
869.036	42.32
869.206	43.17
869.376	47.98
869.545	49.73
869.715	52.97
869.885	48.3
870.055	46.15
870.224	42.22
870.394	41.61
870.564	40.29
870.734	40.24
870.903	34.18
871.073	35.52
871.243	35.21
871.412	31.88
871.582	34.22
871.751	32.71
871.921	36.58
872.091	38.23
872.26	38.73
872.43	36.79
872.599	37.88
872.769	42.47
872.938	39.84
873.108	38.18
873.277	40.44
873.446	37.43
873.616	39.59
873.785	37.68
873.955	38.73
874.124	33.67
874.293	36.2
874.463	33.83
874.632	37.58
874.801	36.62
874.971	37.7
875.14	39.8
875.309	39.11
875.478	32.6
875.647	29.99
875.817	28.52
875.986	30.66
876.155	35.65
876.324	32.85
876.493	28.95
876.662	33.43
876.831	34.14
877	29.55
877.17	31.62
877.339	33.46
877.508	31.07
877.677	30.24
877.846	32.53
878.015	26.97
878.184	28.7
878.352	26.22
878.521	25.2
878.69	23.1
878.859	23.17
879.028	20.28
879.197	19.74
879.366	22.36
879.534	22.25
879.703	24.93
879.872	24.33
880.041	25.83
880.21	26.57
880.378	25.06
880.547	23.39
880.716	21.52
880.884	21.73
881.053	23.31
881.222	23.65
881.39	23.61
881.559	22.22
881.727	22.25
881.896	21.59
882.065	22.13
882.233	22.01
882.402	22.99
882.57	23.45
882.739	23.15
882.907	22.6
883.076	22.67
883.244	22.26
883.412	22.23
883.581	23
883.749	23.49
883.918	23.78
884.086	24.27
884.254	23.81
884.423	24.14
884.591	25.6
884.759	26.76
884.927	25.82
885.096	27.52
885.264	28.5
885.432	27.97
885.6	27.36
885.769	25.93
885.937	26.52
886.105	27.01
886.273	29.62
886.441	27.5
886.609	26.47
886.777	27.16
886.945	27.6
887.113	28.9
887.281	28.96
887.449	29.35
887.617	30.81
887.785	31.67
887.953	33.22
888.121	29.22
888.289	29.13
888.457	26.96
888.625	28.37
888.793	24.76
888.961	24.49
889.129	26.12
889.296	23.39
889.464	19.73
889.632	18.2
889.8	14.34
889.967	16.72
890.135	19.03
