Data from 2938846__Reflection_01.txt Node
Date: Wed Mar 11 14:02:01 EDT 2015
User: robert
Spectrometer: USB4E03002
Autoset integration time: false
Trigger mode: 4
Integration Time (sec): 1.000000E-1
Scans to average: 10
Electric dark correction enabled: false
Nonlinearity correction enabled: false
Boxcar width: 5
Stray light correction enabled: false
XAxis mode: Wavelengths
Stop averaging: false
Number of Pixels in Spectrum: 3648
>>>>>Begin Spectral Data<<<<<
177.575	-166.67
177.794	-187.5
178.014	-91.1
178.233	-500
178.452	-278.83
178.672	-89.63
178.891	-96.07
179.11	-97.6
179.33	-160.89
179.549	-223.44
179.768	-387.02
179.987	-330.14
180.207	-222.05
180.426	-273.54
180.645	-159.75
180.864	-67.72
181.084	-197.34
181.303	-800
181.522	-324.78
181.741	-239.05
181.96	-366.67
182.179	-844.83
182.398	-550.59
182.618	625.27
182.837	906.15
183.056	1451.06
183.275	325
183.494	258.94
183.713	441.82
183.932	214.25
184.151	221.53
184.37	191.84
184.589	348.34
184.808	467.15
185.027	-1354.76
185.246	-484.44
185.465	-103.32
185.684	-45.81
185.903	-105.63
186.122	-85.17
186.341	-93.72
186.56	-79.96
186.779	-78.55
186.998	-64.91
187.216	-42.54
187.435	-47.88
187.654	-49.9
187.873	-61.04
188.092	-59.27
188.311	-39.49
188.53	-18.2
188.748	-12.5
188.967	-4.01
189.186	3.33
189.405	7.9
189.623	17.03
189.842	21.51
190.061	36.48
190.28	29.43
190.498	30.88
190.717	19.07
190.936	13.27
191.154	13
191.373	22.5
191.592	10.7
191.81	3.31
192.029	-12.52
192.248	-2.95
192.466	-90.68
192.685	-127.67
192.904	-174.31
193.122	-96.28
193.341	-248.95
193.559	-268.67
193.778	-583.95
193.996	-224.63
194.215	-195.12
194.433	-74.76
194.652	-110.99
194.87	-94.52
195.089	-95.97
195.307	-105.05
195.526	-200
195.744	-98.31
195.963	-72.26
196.181	-67.4
196.399	-105.43
196.618	-79.66
196.836	-119.13
197.055	-51.06
197.273	-20.11
197.491	-51.15
197.71	-37.08
197.928	-8.55
198.146	-15.9
198.365	-46.73
198.583	-26.65
198.801	-14.74
199.019	-24.64
199.238	-29.47
199.456	-38.53
199.674	-70.71
199.892	-3.9
200.111	1.32
200.329	-7.13
200.547	-25.63
200.765	-11.43
200.983	-43.53
201.202	-44.37
201.42	-17.92
201.638	2.44
201.856	-26.49
202.074	-44.34
202.292	-81.55
202.51	-126.04
202.728	-171.84
202.946	-123.67
203.165	-153.19
203.383	-147.95
203.601	-171.5
203.819	-235.89
204.037	-274.1
204.255	-141.42
204.473	-156.45
204.691	-119.35
204.909	-103.66
205.127	-102.12
205.345	-145.76
205.562	-117.05
205.78	-111.72
205.998	-209.66
206.216	-227.8
206.434	-108.41
206.652	-84.02
206.87	-56.98
207.088	-31.2
207.306	-31.91
207.523	-24.01
207.741	-14.77
207.959	-1.17
208.177	-1.68
208.395	15.18
208.612	29.99
208.83	24.12
209.048	37.07
209.266	30.42
209.483	-13.03
209.701	-12.77
209.919	8.71
210.136	27.1
210.354	26.87
210.572	28.62
210.79	22.72
211.007	-5.59
211.225	-26.49
211.442	-18.03
211.66	-53.7
211.878	-18.27
212.095	-10.98
212.313	-29.51
212.53	-23.15
212.748	-9.91
212.966	-12.94
213.183	-4.93
213.401	-0.3
213.618	1.83
213.836	4.8
214.053	14.93
214.271	4.26
214.488	-5.05
214.705	-10.65
214.923	-25.76
215.14	-49.91
215.358	-45.96
215.575	-45.66
215.793	-41.39
216.01	-50.11
216.227	-51.61
216.445	-51.27
216.662	-33.25
216.879	-26.64
217.097	-15.32
217.314	-5.48
217.531	8.79
217.749	2.71
217.966	-0.12
218.183	4.68
218.4	-2.15
218.618	-5.57
218.835	-6.66
219.052	-6.63
219.269	-7.17
219.487	-16.25
219.704	-8.52
219.921	-11.31
220.138	-3.9
220.355	0.32
220.572	-3.74
220.79	1.95
221.007	-1.15
221.224	-11.35
221.441	-16.94
221.658	-13.82
221.875	-14.12
222.092	-19.05
222.309	-23.76
222.526	-23.37
222.743	-25.92
222.96	-28.44
223.177	-33.01
223.394	-32.12
223.611	-25.96
223.828	-23.05
224.045	-21.93
224.262	-13.64
224.479	-12.92
224.696	-9.24
224.913	-6.31
225.13	-3.85
225.347	-4.38
225.564	-0.57
225.781	-0.88
225.997	0.83
226.214	1.52
226.431	2.64
226.648	1.37
226.865	1.3
227.082	1.57
227.298	0.33
227.515	0.82
227.732	0.47
227.949	0.76
228.165	0.95
228.382	0.59
228.599	1.54
228.816	1.81
229.032	1.97
229.249	1.91
229.466	1.69
229.682	2.19
229.899	2.15
230.116	3.12
230.332	3.35
230.549	3.65
230.765	4.11
230.982	3.49
231.199	2.9
231.415	2.68
231.632	2.64
231.848	1.95
232.065	2.23
232.281	1.88
232.498	0.41
232.714	-1.6
232.931	-1.7
233.147	-1.14
233.364	-1.15
233.58	-0.6
233.797	0.76
234.013	2.02
234.23	3.2
234.446	3.49
234.662	2.37
234.879	1.74
235.095	3.4
235.312	4.48
235.528	3.7
235.744	3.74
235.961	1.82
236.177	0.55
236.393	0.16
236.61	-0.06
236.826	0.63
237.042	1.9
237.258	2.27
237.475	2.58
237.691	1.8
237.907	3.66
238.123	2.44
238.339	4.82
238.556	5.2
238.772	3.85
238.988	3.34
239.204	2.54
239.42	2.87
239.636	4.46
239.853	3.9
240.069	3.11
240.285	2.22
240.501	3.13
240.717	2.79
240.933	2.23
241.149	3.08
241.365	2.98
241.581	2.88
241.797	2.74
242.013	2.86
242.229	3.54
242.445	4.03
242.661	4.02
242.877	3.72
243.093	3.27
243.309	3.62
243.525	4.09
243.741	4.4
243.957	3.73
244.173	3.82
244.388	3.17
244.604	2.67
244.82	1.68
245.036	1.73
245.252	1.93
245.468	2.73
245.683	3
245.899	2.4
246.115	2.71
246.331	3.39
246.547	3.42
246.762	3.62
246.978	3.31
247.194	3.68
247.409	3.84
247.625	4.03
247.841	3.93
248.057	4.03
248.272	4.11
248.488	3.96
248.703	4.07
248.919	4.21
249.135	4.31
249.35	4.36
249.566	3.92
249.782	3.85
249.997	3.34
250.213	3.34
250.428	2.27
250.644	2.25
250.859	1.85
251.075	1.52
251.29	1.52
251.506	1.56
251.721	2.61
251.937	3.55
252.152	3.33
252.368	3.31
252.583	3.31
252.798	3.42
253.014	3.84
253.229	3.42
253.445	3.53
253.66	2.75
253.875	2.87
254.091	1.15
254.306	0.66
254.521	0.14
254.737	0.83
254.952	0.07
255.167	0.63
255.383	-0.05
255.598	1.18
255.813	1.21
256.028	1.88
256.244	1.97
256.459	3.4
256.674	2.95
256.889	2.82
257.104	2.55
257.32	2.89
257.535	2.41
257.75	2.33
257.965	2.18
258.18	2.07
258.395	2.61
258.61	2.66
258.826	2.39
259.041	2.37
259.256	2.65
259.471	2.68
259.686	2.65
259.901	2.81
260.116	2.88
260.331	3.09
260.546	3.14
260.761	2.85
260.976	2.69
261.191	2.64
261.406	2.75
261.621	2.61
261.836	2.37
262.05	2.18
262.265	1.99
262.48	1.48
262.695	0.81
262.91	0.81
263.125	0.96
263.34	1.03
263.555	1.01
263.769	0.42
263.984	0.16
264.199	0.21
264.414	0.26
264.629	0.41
264.843	0.95
265.058	1.84
265.273	1.42
265.488	1.01
265.702	0.95
265.917	1.5
266.132	1.73
266.346	2.07
266.561	2.13
266.776	2.22
266.99	2.39
267.205	2.04
267.42	1.73
267.634	1.51
267.849	1.73
268.063	1.54
268.278	1.2
268.492	1.38
268.707	1.22
268.922	1.18
269.136	1.28
269.351	1.36
269.565	1.64
269.78	1.41
269.994	1.48
270.209	1.65
270.423	1.71
270.637	1.78
270.852	1.9
271.066	1.96
271.281	2.04
271.495	2.07
271.709	1.37
271.924	1.64
272.138	1.52
272.353	1.38
272.567	1.09
272.781	1.29
272.996	0.82
273.21	0.87
273.424	1.08
273.638	0.94
273.853	0.98
274.067	1.77
274.281	2.03
274.495	2.54
274.71	2.86
274.924	3.1
275.138	3.22
275.352	3.86
275.566	4.11
275.781	3.58
275.995	3.74
276.209	3.52
276.423	3.23
276.637	2.1
276.851	1.8
277.065	1.74
277.279	1.8
277.493	1.75
277.707	1.57
277.921	1.08
278.135	0.93
278.349	0.67
278.563	0.45
278.777	0.77
278.991	1.64
279.205	1.77
279.419	2.3
279.633	2.21
279.847	2.39
280.061	2.67
280.275	2.87
280.489	2.74
280.703	2.99
280.917	3.65
281.131	3.48
281.344	3.49
281.558	3.34
281.772	3
281.986	3.08
282.2	2.87
282.414	2.61
282.627	2.6
282.841	3.16
283.055	3.25
283.269	3.2
283.482	2.94
283.696	2.8
283.91	2.69
284.123	2.92
284.337	2.83
284.551	2.69
284.764	2.8
284.978	2.61
285.192	2.61
285.405	2.46
285.619	2.14
285.833	2.36
286.046	2.28
286.26	2.53
286.473	2.47
286.687	2.45
286.9	2.79
287.114	2.88
287.327	2.92
287.541	3.16
287.754	3.25
287.968	3.53
288.181	3.67
288.395	3.63
288.608	3.44
288.822	3.21
289.035	3.27
289.248	3.14
289.462	3.2
289.675	3.28
289.889	2.72
290.102	2.77
290.315	2.61
290.529	2.68
290.742	2.69
290.955	2.75
291.169	2.89
291.382	3.15
291.595	3
291.808	2.83
292.022	2.66
292.235	2.57
292.448	2.28
292.661	2.11
292.875	1.55
293.088	1.98
293.301	1.83
293.514	1.91
293.727	1.76
293.94	1.84
294.153	1.65
294.367	2.16
294.58	2.75
294.793	2.94
295.006	2.95
295.219	3.32
295.432	2.86
295.645	2.96
295.858	3.08
296.071	2.96
296.284	2.95
296.497	3.02
296.71	2.94
296.923	2.95
297.136	3.02
297.349	3.02
297.562	2.98
297.775	3.18
297.988	3.42
298.201	3.41
298.414	3.37
298.626	3.34
298.839	3.44
299.052	3.61
299.265	3.57
299.478	3.6
299.691	3.97
299.903	3.93
300.116	3.91
300.329	3.81
300.542	3.79
300.755	3.92
300.967	4.14
301.18	4.38
301.393	4.02
301.605	4.06
301.818	3.92
302.031	3.83
302.243	4.03
302.456	4.1
302.669	3.96
302.881	3.78
303.094	3.91
303.307	3.75
303.519	3.83
303.732	3.88
303.944	3.94
304.157	4.12
304.37	3.97
304.582	3.92
304.795	3.94
305.007	4
305.22	4.34
305.432	4.26
305.645	4.48
305.857	4
306.069	4.06
306.282	3.94
306.494	3.88
306.707	3.96
306.919	4.28
307.132	4.35
307.344	4.55
307.556	3.94
307.769	4.01
307.981	4.22
308.193	4.38
308.406	4.55
308.618	4.82
308.83	5.08
309.043	4.88
309.255	4.81
309.467	4.8
309.679	4.86
309.892	5.4
310.104	5.51
310.316	5.44
310.528	5.68
310.74	5.74
310.953	5.52
311.165	5.15
311.377	5.55
311.589	5.39
311.801	5.46
312.013	5.53
312.225	5.48
312.437	5.66
312.649	5.58
312.862	5.52
313.074	5.53
313.286	5.48
313.498	6.14
313.71	6.08
313.922	6.16
314.134	6.31
314.346	5.98
314.558	5.8
314.77	5.47
314.982	5.59
315.193	5.65
315.405	5.37
315.617	5.57
315.829	4.95
316.041	4.89
316.253	4.78
316.465	4.77
316.677	4.86
316.888	4.83
317.1	4.95
317.312	4.9
317.524	4.93
317.736	4.65
317.947	4.89
318.159	5.09
318.371	5.02
318.583	5.22
318.794	5.04
319.006	5.14
319.218	5.44
319.43	5.33
319.641	5.6
319.853	5.56
320.064	6.19
320.276	6.06
320.488	6.46
320.699	6.51
320.911	6.87
321.123	6.81
321.334	6.97
321.546	6.7
321.757	6.72
321.969	6.73
322.18	6.73
322.392	6.82
322.603	6.68
322.815	6.48
323.026	6.72
323.238	6.34
323.449	6.47
323.661	6.33
323.872	6.76
324.083	6.93
324.295	6.97
324.506	6.81
324.718	6.74
324.929	6.85
325.14	6.83
325.352	6.94
325.563	7.15
325.774	7.11
325.986	7.41
326.197	7.26
326.408	7.22
326.62	7.06
326.831	7.46
327.042	7.28
327.253	7.05
327.464	7.26
327.676	7.28
327.887	7.21
328.098	7.46
328.309	7.36
328.52	7.13
328.732	7.14
328.943	7.54
329.154	7.54
329.365	7.98
329.576	8.5
329.787	8.25
329.998	7.95
330.209	8.47
330.42	8.61
330.631	8.6
330.842	8.73
331.053	8.68
331.264	8.32
331.475	8.53
331.686	8.49
331.897	8.59
332.108	8.65
332.319	8.78
332.53	8.49
332.741	8.26
332.952	8.14
333.163	8.28
333.374	8.64
333.585	8.59
333.795	8.82
334.006	8.56
334.217	8.49
334.428	8.92
334.639	9.04
334.849	9.04
335.06	9.05
335.271	9.12
335.482	9.32
335.692	9.06
335.903	8.89
336.114	8.94
336.325	9.21
336.535	8.9
336.746	8.78
336.957	8.61
337.167	8.49
337.378	8.48
337.589	8.78
337.799	8.59
338.01	8.68
338.22	8.82
338.431	8.41
338.642	8.05
338.852	8.08
339.063	7.89
339.273	7.87
339.484	8
339.694	7.9
339.905	7.76
340.115	7.92
340.326	7.98
340.536	7.92
340.746	8.05
340.957	8.24
341.167	8.37
341.378	8.48
341.588	8.58
341.799	8.62
342.009	8.87
342.219	8.76
342.43	8.91
342.64	8.83
342.85	8.86
343.061	8.59
343.271	8.67
343.481	8.76
343.691	8.79
343.902	8.96
344.112	8.73
344.322	8.69
344.532	8.77
344.743	8.44
344.953	8.55
345.163	8.66
345.373	8.97
345.583	8.96
345.793	8.87
346.004	8.79
346.214	8.58
346.424	8.68
346.634	8.74
346.844	8.72
347.054	8.65
347.264	8.34
347.474	8.2
347.684	8.07
347.894	8.12
348.104	8.05
348.314	7.89
348.524	7.85
348.734	7.91
348.944	7.84
349.154	7.76
349.364	7.95
349.574	8.17
349.784	8.28
349.994	7.92
350.204	7.92
350.413	7.49
350.623	7.47
350.833	7.56
351.043	7.04
351.253	6.83
351.463	6.92
351.672	6.71
351.882	6.73
352.092	6.71
352.302	6.89
352.511	6.82
352.721	7.21
352.931	7.4
353.141	7.37
353.35	7.73
353.56	7.95
353.77	7.91
353.979	8.12
354.189	8.06
354.399	7.9
354.608	8.15
354.818	8.19
355.027	8.39
355.237	8.41
355.447	8.4
355.656	8.53
355.866	8.31
356.075	8.23
356.285	8.3
356.494	8.38
356.704	8.67
356.913	8.71
357.123	8.75
357.332	8.84
357.542	8.68
357.751	8.69
357.96	8.67
358.17	8.76
358.379	8.81
358.589	8.61
358.798	8.69
359.007	8.44
359.217	8.28
359.426	8.42
359.635	8.25
359.845	8.24
360.054	8.3
360.263	8.36
360.472	8.52
360.682	8.41
360.891	8.3
361.1	8.26
361.309	8.33
361.519	8.32
361.728	8.28
361.937	8.4
362.146	8.39
362.355	8.34
362.564	8.18
362.774	8.11
362.983	8.22
363.192	8.54
363.401	8.52
363.61	8.6
363.819	8.52
364.028	8.32
364.237	8.04
364.446	8.35
364.655	8.3
364.864	8.52
365.073	8.37
365.282	8.35
365.491	8.11
365.7	8.01
365.909	7.86
366.118	7.89
366.327	8.02
366.536	8.16
366.745	7.8
366.954	7.86
367.162	7.96
367.371	7.9
367.58	7.83
367.789	7.89
367.998	7.93
368.207	7.89
368.415	7.81
368.624	7.87
368.833	7.81
369.042	8.14
369.25	8.01
369.459	7.59
369.668	7.74
369.877	7.69
370.085	7.53
370.294	7.54
370.503	7.67
370.711	7.56
370.92	7.24
371.129	7.34
371.337	7.15
371.546	7.34
371.754	7.43
371.963	7.39
372.171	7.47
372.38	7.41
372.589	6.99
372.797	6.82
373.006	6.92
373.214	7.03
373.423	6.73
373.631	6.65
373.84	6.45
374.048	6.57
374.256	6.51
374.465	6.43
374.673	6.42
374.882	6.77
375.09	6.83
375.298	6.69
375.507	6.67
375.715	6.64
375.923	6.32
376.132	6.36
376.34	6.37
376.548	6.13
376.757	5.94
376.965	6.06
377.173	6.11
377.381	6.12
377.59	6.22
377.798	6.27
378.006	6.47
378.214	6.78
378.423	6.78
378.631	6.61
378.839	6.61
379.047	6.63
379.255	6.53
379.463	6.48
379.671	6.5
379.879	6.4
380.088	6.3
380.296	6.12
380.504	6.27
380.712	6.14
380.92	6
381.128	5.96
381.336	6.1
381.544	6.21
381.752	6.04
381.96	5.98
382.168	6.03
382.376	5.96
382.584	5.96
382.791	5.69
382.999	5.54
383.207	5.73
383.415	5.91
383.623	5.75
383.831	5.66
384.039	5.73
384.247	5.67
384.454	5.69
384.662	5.62
384.87	5.58
385.078	5.52
385.285	5.61
385.493	5.41
385.701	5.25
385.909	5.58
386.116	5.53
386.324	5.5
386.532	5.45
386.739	5.34
386.947	5.24
387.155	5.42
387.362	5.42
387.57	5.36
387.778	5.42
387.985	5.45
388.193	5.33
388.4	5.16
388.608	5
388.816	4.99
389.023	4.8
389.231	4.83
389.438	4.74
389.646	4.84
389.853	4.93
390.061	4.86
390.268	4.84
390.475	4.77
390.683	4.91
390.89	4.96
391.098	4.99
391.305	5.15
391.512	5.17
391.72	5.04
391.927	4.86
392.135	4.81
392.342	4.75
392.549	4.73
392.756	4.57
392.964	4.5
393.171	4.51
393.378	4.42
393.586	4.4
393.793	4.32
394	4.31
394.207	4.42
394.414	4.46
394.622	4.55
394.829	4.61
395.036	4.42
395.243	4.53
395.45	4.54
395.657	4.52
395.864	4.46
396.072	4.48
396.279	4.5
396.486	4.37
396.693	4.25
396.9	4.08
397.107	3.95
397.314	4.23
397.521	4.04
397.728	3.88
397.935	3.98
398.142	3.81
398.349	3.85
398.556	3.67
398.763	3.59
398.97	3.51
399.177	3.59
399.383	3.64
399.59	3.45
399.797	3.49
400.004	3.56
400.211	3.42
400.418	3.65
400.625	3.68
400.831	3.83
401.038	3.85
401.245	3.88
401.452	3.73
401.658	3.67
401.865	3.58
402.072	3.48
402.279	3.38
402.485	3.34
402.692	3.17
402.899	3.05
403.105	3.04
403.312	3.01
403.519	3.05
403.725	3.21
403.932	3.15
404.138	3.17
404.345	3.27
404.552	3.3
404.758	3.23
404.965	3.2
405.171	3.24
405.378	3.23
405.584	3.32
405.791	3.32
405.997	3.39
406.204	3.44
406.41	3.5
406.617	3.37
406.823	3.28
407.029	3.42
407.236	3.42
407.442	3.31
407.649	3.31
407.855	3.15
408.061	3.15
408.268	2.96
408.474	2.89
408.68	3.02
408.887	2.93
409.093	2.99
409.299	2.8
409.505	2.81
409.712	2.75
409.918	2.75
410.124	2.92
410.33	2.97
410.537	2.93
410.743	3
410.949	2.98
411.155	2.93
411.361	3
411.567	3.22
411.773	3.37
411.98	3.44
412.186	3.44
412.392	3.3
412.598	3.38
412.804	3.35
413.01	3.24
413.216	3.32
413.422	3.56
413.628	3.39
413.834	3.28
414.04	3.11
414.246	3.17
414.452	3.15
414.658	3.26
414.864	3.03
415.07	3.03
415.275	3.14
415.481	3.04
415.687	2.98
415.893	3.06
416.099	2.97
416.305	2.99
416.511	2.86
416.716	2.71
416.922	2.65
417.128	2.68
417.334	2.77
417.539	2.8
417.745	2.8
417.951	2.84
418.157	2.81
418.362	2.81
418.568	2.68
418.774	2.79
418.979	2.81
419.185	2.78
419.391	2.8
419.596	2.79
419.802	2.76
420.008	2.68
420.213	1.97
420.419	2
420.624	2.07
420.83	2.15
421.035	2.11
421.241	2.13
421.446	2.12
421.652	2.12
421.857	2.08
422.063	2.02
422.268	2.04
422.474	2.69
422.679	2.73
422.885	2.73
423.09	2.76
423.295	2.81
423.501	2.82
423.706	2.84
423.911	2.82
424.117	2.87
424.322	2.97
424.527	3
424.733	3.06
424.938	3.05
425.143	3.01
425.349	2.96
425.554	3
425.759	3.03
425.964	2.93
426.169	2.97
426.375	2.82
426.58	2.78
426.785	2.72
426.99	2.64
427.195	2.68
427.4	2.63
427.605	2.61
427.811	2.5
428.016	2.48
428.221	2.58
428.426	2.58
428.631	2.83
428.836	2.8
429.041	2.8
429.246	2.74
429.451	2.66
429.656	2.76
429.861	2.73
430.066	2.63
430.271	2.56
430.476	2.58
430.681	2.36
430.886	2.18
431.09	2.05
431.295	2.14
431.5	2.1
431.705	2.14
431.91	2.11
432.115	2.19
432.32	2.32
432.524	2.32
432.729	2.28
432.934	2.32
433.139	2.31
433.343	2.39
433.548	2.33
433.753	2.46
433.958	2.42
434.162	2.43
434.367	2.39
434.572	2.42
434.776	2.52
434.981	2.58
435.186	2.63
435.39	2.72
435.595	2.78
435.799	2.77
436.004	2.64
436.209	2.57
436.413	2.54
436.618	2.52
436.822	2.48
437.027	2.38
437.231	2.4
437.436	2.47
437.64	2.38
437.845	2.37
438.049	2.43
438.253	2.49
438.458	2.55
438.662	2.58
438.867	2.54
439.071	2.51
439.275	2.6
439.48	2.61
439.684	2.58
439.888	2.6
440.093	2.62
440.297	2.57
440.501	2.5
440.706	2.45
440.91	2.46
441.114	2.48
441.318	2.42
441.523	2.35
441.727	2.33
441.931	2.34
442.135	2.36
442.339	2.26
442.543	2.26
442.748	2.21
442.952	2.23
443.156	2.15
443.36	2.15
443.564	2.2
443.768	2.25
443.972	2.19
444.176	2.2
444.38	2.16
444.584	2.22
444.788	2.23
444.992	2.3
445.196	2.31
445.4	2.34
445.604	2.42
445.808	2.46
446.012	2.46
446.216	2.47
446.42	2.46
446.624	2.45
446.828	2.4
447.032	2.4
447.235	2.33
447.439	2.3
447.643	2.38
447.847	2.33
448.051	2.29
448.254	2.2
448.458	2.2
448.662	2.13
448.866	2.18
449.069	2.24
449.273	2.19
449.477	2.2
449.681	2.35
449.884	2.26
450.088	2.27
450.292	2.31
450.495	2.35
450.699	2.38
450.902	2.54
451.106	2.54
451.31	2.58
451.513	2.6
451.717	2.71
451.92	2.68
452.124	2.77
452.327	2.74
452.531	2.75
452.734	2.7
452.938	2.69
453.141	2.58
453.345	2.62
453.548	2.56
453.752	2.64
453.955	2.53
454.158	2.44
454.362	2.36
454.565	2.34
454.769	2.37
454.972	2.5
455.175	2.52
455.379	2.53
455.582	2.43
455.785	2.34
455.988	2.24
456.192	2.34
456.395	2.32
456.598	2.29
456.801	2.27
457.005	2.26
457.208	2.25
457.411	2.23
457.614	2.3
457.817	2.4
458.021	2.51
458.224	2.53
458.427	2.49
458.63	2.42
458.833	2.49
459.036	2.52
459.239	2.46
459.442	2.46
459.645	2.39
459.848	2.39
460.051	2.33
460.254	2.3
460.457	2.28
460.66	2.23
460.863	2.27
461.066	2.26
461.269	2.28
461.472	2.34
461.675	2.26
461.878	2.29
462.081	2.26
462.284	2.22
462.486	2.23
462.689	2.34
462.892	2.36
463.095	2.37
463.298	2.41
463.5	2.35
463.703	2.3
463.906	2.26
464.109	2.22
464.311	2.15
464.514	2.2
464.717	2.11
464.92	2.01
465.122	2.08
465.325	2.22
465.528	2.08
465.73	2.08
465.933	2.08
466.135	2.09
466.338	2.18
466.541	2.27
466.743	2.23
466.946	2.23
467.148	2.25
467.351	2.28
467.553	2.22
467.756	2.24
467.958	2.24
468.161	2.21
468.363	2.25
468.566	2.16
468.768	2.04
468.971	2.02
469.173	2.05
469.375	2.02
469.578	2.08
469.78	2.01
469.983	2.07
470.185	2.04
470.387	2.08
470.59	2.16
470.792	2.16
470.994	2.23
471.196	2.26
471.399	2.28
471.601	2.27
471.803	2.11
472.005	2.13
472.208	2.09
472.41	2.16
472.612	2.16
472.814	2.13
473.016	2.28
473.218	2.22
473.421	2.24
473.623	2.25
473.825	2.38
474.027	2.41
474.229	2.43
474.431	2.55
474.633	2.49
474.835	2.46
475.037	2.43
475.239	2.43
475.441	2.56
475.643	2.62
475.845	2.64
476.047	2.59
476.249	2.61
476.451	2.62
476.653	2.59
476.855	2.6
477.057	2.55
477.258	2.59
477.46	2.52
477.662	2.48
477.864	2.45
478.066	2.51
478.268	2.47
478.469	2.5
478.671	2.48
478.873	2.49
479.075	2.5
479.276	2.53
479.478	2.45
479.68	2.45
479.882	2.47
480.083	2.42
480.285	2.35
480.487	2.28
480.688	2.26
480.89	2.3
481.091	2.2
481.293	2.21
481.495	2.23
481.696	2.3
481.898	2.34
482.099	2.33
482.301	2.36
482.502	2.4
482.704	2.47
482.905	2.48
483.107	2.46
483.308	2.49
483.51	2.47
483.711	2.46
483.913	2.45
484.114	2.44
484.315	2.43
484.517	2.43
484.718	2.41
484.92	2.36
485.121	2.34
485.322	2.32
485.524	2.31
485.725	2.33
485.926	2.33
486.127	2.32
486.329	2.32
486.53	2.34
486.731	2.37
486.932	2.37
487.134	2.4
487.335	2.42
487.536	2.43
487.737	2.41
487.938	2.39
488.139	2.36
488.341	2.39
488.542	2.41
488.743	2.42
488.944	2.42
489.145	2.43
489.346	2.44
489.547	2.45
489.748	2.47
489.949	2.48
490.15	2.54
490.351	2.59
490.552	2.56
490.753	2.58
490.954	2.57
491.155	2.55
491.356	2.54
491.557	2.53
491.758	2.53
491.959	2.51
492.159	2.53
492.36	2.48
492.561	2.48
492.762	2.47
492.963	2.43
493.164	2.45
493.364	2.5
493.565	2.53
493.766	2.55
493.967	2.58
494.167	2.6
494.368	2.57
494.569	2.65
494.769	2.67
494.97	2.74
495.171	2.73
495.371	2.71
495.572	2.72
495.773	2.72
495.973	2.72
496.174	2.67
496.375	2.76
496.575	2.81
496.776	2.79
496.976	2.87
497.177	2.87
497.377	2.9
497.578	2.85
497.778	2.82
497.979	2.74
498.179	2.74
498.38	2.76
498.58	2.68
498.78	2.65
498.981	2.62
499.181	2.49
499.382	2.55
499.582	2.54
499.782	2.55
499.983	2.58
500.183	2.7
500.383	2.69
500.584	2.76
500.784	2.79
500.984	2.85
501.184	2.96
501.385	3.08
501.585	3.13
501.785	3.21
501.985	3.27
502.185	3.3
502.386	3.34
502.586	3.38
502.786	3.34
502.986	3.4
503.186	3.37
503.386	3.39
503.586	3.38
503.786	3.31
503.987	3.31
504.187	3.31
504.387	3.34
504.587	3.27
504.787	3.34
504.987	3.41
505.187	3.45
505.387	3.57
505.587	3.56
505.786	3.63
505.986	3.7
506.186	3.7
506.386	3.7
506.586	3.76
506.786	3.85
506.986	3.84
507.186	3.85
507.386	3.93
507.585	3.91
507.785	3.98
507.985	3.98
508.185	3.96
508.384	4.11
508.584	4.25
508.784	4.29
508.984	4.43
509.183	4.49
509.383	4.53
509.583	4.52
509.782	4.61
509.982	4.66
510.182	4.73
510.381	4.79
510.581	4.81
510.781	4.82
510.98	4.85
511.18	4.85
511.379	4.88
511.579	4.93
511.778	4.99
511.978	5.05
512.177	5.07
512.377	5.15
512.576	5.25
512.776	5.26
512.975	5.37
513.175	5.47
513.374	5.52
513.573	5.56
513.773	5.59
513.972	5.64
514.172	5.61
514.371	5.69
514.57	5.69
514.77	5.75
514.969	5.74
515.168	5.7
515.367	5.69
515.567	5.82
515.766	5.88
515.965	5.99
516.164	6.06
516.364	6.17
516.563	6.25
516.762	6.36
516.961	6.44
517.16	6.58
517.359	6.71
517.559	6.81
517.758	6.76
517.957	6.9
518.156	6.97
518.355	6.99
518.554	7.06
518.753	7.12
518.952	7.14
519.151	7.19
519.35	7.2
519.549	7.21
519.748	7.25
519.947	7.37
520.146	7.4
520.345	7.44
520.544	7.57
520.743	7.65
520.942	7.7
521.141	7.79
521.339	7.8
521.538	7.89
521.737	8.04
521.936	8.08
522.135	8.1
522.333	8.1
522.532	8.21
522.731	8.32
522.93	8.39
523.129	8.48
523.327	8.6
523.526	8.71
523.725	8.82
523.923	8.87
524.122	8.97
524.321	9.07
524.519	9.19
524.718	9.29
524.917	9.32
525.115	9.35
525.314	9.37
525.512	9.45
525.711	9.52
525.909	9.56
526.108	9.64
526.306	9.69
526.505	9.78
526.703	9.88
526.902	9.9
527.1	9.96
527.299	10.03
527.497	10.17
527.696	10.2
527.894	10.23
528.092	10.31
528.291	10.38
528.489	10.44
528.688	10.47
528.886	10.51
529.084	10.55
529.283	10.59
529.481	10.64
529.679	10.64
529.877	10.67
530.076	10.77
530.274	10.82
530.472	10.83
530.67	10.88
530.869	10.98
531.067	11.06
531.265	11.15
531.463	11.27
531.661	11.36
531.859	11.5
532.057	11.6
532.255	11.69
532.454	11.79
532.652	11.81
532.85	11.89
533.048	11.93
533.246	11.97
533.444	12
533.642	12.05
533.84	12.11
534.038	12.13
534.236	12.12
534.434	12.12
534.632	12.2
534.83	12.36
535.027	12.44
535.225	12.52
535.423	12.6
535.621	12.7
535.819	12.79
536.017	12.89
536.215	12.93
536.412	13.08
536.61	13.22
536.808	13.29
537.006	13.3
537.203	13.43
537.401	13.47
537.599	13.58
537.797	13.67
537.994	13.75
538.192	13.82
538.39	14
538.587	14.13
538.785	14.15
538.983	14.3
539.18	14.56
539.378	14.65
539.575	14.87
539.773	15.01
539.97	15.1
540.168	15.22
540.366	15.34
540.563	15.41
540.761	15.55
540.958	15.63
541.155	15.66
541.353	15.7
541.55	15.77
541.748	15.81
541.945	15.88
542.143	15.99
542.34	16.08
542.537	16.2
542.735	16.3
542.932	16.36
543.129	16.52
543.327	16.67
543.524	16.82
543.721	17.03
543.919	17.26
544.116	17.5
544.313	17.78
544.51	18.04
544.708	18.32
544.905	18.58
545.102	18.87
545.299	19.03
545.496	19.28
545.693	19.42
545.891	19.39
546.088	19.38
546.285	19.34
546.482	19.26
546.679	19.17
546.876	19.1
547.073	18.98
547.27	18.83
547.467	18.73
547.664	18.59
547.861	18.57
548.058	18.66
548.255	18.67
548.452	18.72
548.649	18.78
548.846	18.83
549.043	18.83
549.24	18.93
549.437	19.06
549.633	19.19
549.83	19.19
550.027	19.14
550.224	19.09
550.421	19.13
550.618	19.14
550.814	19.17
551.011	19.12
551.208	19.06
551.405	18.98
551.601	18.91
551.798	18.9
551.995	18.87
552.191	18.96
552.388	18.95
552.585	18.94
552.781	18.97
552.978	18.99
553.175	19.06
553.371	19.18
553.568	19.34
553.764	19.48
553.961	19.45
554.157	19.56
554.354	19.53
554.55	19.66
554.747	19.71
554.943	19.88
555.14	19.83
555.336	19.81
555.533	19.89
555.729	19.9
555.926	19.83
556.122	19.96
556.318	19.95
556.515	20
556.711	20.01
556.907	20.05
557.104	19.98
557.3	20.03
557.496	20.01
557.693	20.05
557.889	20.18
558.085	20.23
558.281	20.26
558.478	20.36
558.674	20.43
558.87	20.5
559.066	20.57
559.262	20.53
559.459	20.69
559.655	20.88
559.851	20.85
560.047	20.78
560.243	20.96
560.439	21.12
560.635	21.12
560.831	21.29
561.027	21.26
561.223	21.35
561.419	21.46
561.615	21.47
561.811	21.61
562.007	21.6
562.203	21.68
562.399	21.68
562.595	21.63
562.791	21.83
562.987	21.79
563.183	21.85
563.379	21.83
563.575	21.76
563.771	21.73
563.966	21.7
564.162	21.84
564.358	21.95
564.554	22.05
564.75	22.14
564.945	22.05
565.141	22.04
565.337	22.07
565.533	22.16
565.728	22.44
565.924	22.51
566.12	22.56
566.315	22.66
566.511	22.6
566.707	22.55
566.902	22.58
567.098	22.74
567.293	22.79
567.489	22.93
567.684	22.98
567.88	22.92
568.076	23.1
568.271	23.21
568.467	23.14
568.662	23.19
568.858	23.25
569.053	23.31
569.248	23.25
569.444	23.39
569.639	23.46
569.835	23.52
570.03	23.56
570.225	23.52
570.421	23.48
570.616	23.58
570.812	23.56
571.007	23.61
571.202	23.56
571.397	23.61
571.593	23.64
571.788	23.73
571.983	23.74
572.178	23.79
572.374	23.83
572.569	23.92
572.764	23.84
572.959	23.96
573.154	24.04
573.35	24.21
573.545	24.29
573.74	24.31
573.935	24.32
574.13	24.36
574.325	24.37
574.52	24.45
574.715	24.49
574.91	24.77
575.105	24.87
575.3	24.92
575.495	24.92
575.69	24.96
575.885	25.09
576.08	25.11
576.275	25.27
576.47	25.34
576.665	25.52
576.86	25.57
577.055	25.55
577.25	25.7
577.444	25.85
577.639	26.02
577.834	26.23
578.029	26.22
578.224	26.34
578.418	26.38
578.613	26.53
578.808	26.55
579.003	26.71
579.197	26.81
579.392	26.79
579.587	26.78
579.781	26.88
579.976	26.75
580.171	26.85
580.365	26.82
580.56	26.74
580.755	26.66
580.949	26.54
581.144	26.46
581.338	26.37
581.533	26.4
581.727	26.32
581.922	26.3
582.116	26.31
582.311	26.32
582.505	26.42
582.7	26.57
582.894	26.78
583.089	26.92
583.283	26.97
583.478	27.13
583.672	27.23
583.866	27.18
584.061	27.08
584.255	27.17
584.449	27.2
584.644	27.29
584.838	27.27
585.032	27.24
585.226	27.25
585.421	27.27
585.615	27.32
585.809	27.34
586.003	27.65
586.198	27.87
586.392	27.98
586.586	28.03
586.78	28.15
586.974	28.24
587.168	28.06
587.363	28.04
587.557	28.02
587.751	27.88
587.945	27.83
588.139	27.72
588.333	27.47
588.527	27.28
588.721	27.15
588.915	26.92
589.109	26.81
589.303	26.91
589.497	26.9
589.691	26.91
589.885	26.9
590.079	26.91
590.273	26.88
590.466	27.04
590.66	27.15
590.854	27.36
591.048	27.59
591.242	27.75
591.436	27.76
591.629	27.96
591.823	28.09
592.017	28.25
592.211	28.41
592.404	28.53
592.598	28.51
592.792	28.54
592.986	28.39
593.179	28.2
593.373	28.16
593.567	28.16
593.76	27.88
593.954	27.71
594.147	27.68
594.341	27.44
594.535	27.3
594.728	27.25
594.922	27.27
595.115	27.28
595.309	27.34
595.502	27.22
595.696	27.22
595.889	27.29
596.083	27.3
596.276	27.26
596.47	27.32
596.663	27.4
596.856	27.43
597.05	27.36
597.243	27.36
597.437	27.42
597.63	27.45
597.823	27.5
598.017	27.66
598.21	27.84
598.403	27.9
598.596	27.96
598.79	28.13
598.983	28.16
599.176	28.4
599.369	28.42
599.563	28.44
599.756	28.57
599.949	28.65
600.142	28.59
600.335	28.41
600.528	28.34
600.722	28.24
600.915	27.96
601.108	27.84
601.301	27.64
601.494	27.73
601.687	27.6
601.88	27.44
602.073	27.22
602.266	27.18
602.459	27.04
602.652	27.08
602.845	27.19
603.038	27.25
603.231	27.22
603.424	27.14
603.617	27.09
603.809	27.17
604.002	27.11
604.195	27.17
604.388	27.16
604.581	27.32
604.774	27.27
604.966	27.25
605.159	27.21
605.352	27.33
605.545	27.51
605.737	27.52
605.93	27.43
606.123	27.61
606.316	27.66
606.508	27.67
606.701	27.83
606.894	28.13
607.086	28.28
607.279	28.53
607.471	28.85
607.664	28.94
607.857	29.27
608.049	29.75
608.242	30.16
608.434	30.69
608.627	31.49
608.819	32.16
609.012	32.96
609.204	34.13
609.397	35.23
609.589	36.45
609.782	37.79
609.974	39.11
610.166	40.45
610.359	41.81
610.551	43.07
610.743	44.27
610.936	45.21
611.128	45.98
611.32	46.24
611.513	46.54
611.705	46.63
611.897	46.48
612.09	46.13
612.282	45.67
612.474	45.01
612.666	44.37
612.858	43.51
613.051	42.62
613.243	41.94
613.435	41.31
613.627	40.68
613.819	40
614.011	39.37
614.203	38.86
614.395	38.22
614.588	37.7
614.78	37.16
614.972	36.49
615.164	36.08
615.356	35.45
615.548	35.04
615.74	34.5
615.932	33.78
616.124	33.48
616.315	32.95
616.507	32.81
616.699	32.47
616.891	32.03
617.083	31.97
617.275	31.76
617.467	31.56
617.659	31.23
617.85	30.97
618.042	30.85
618.234	30.43
618.426	30.24
618.618	29.82
618.809	29.58
619.001	29.68
619.193	29.52
619.384	29.39
619.576	29.39
619.768	29.44
619.959	29.54
620.151	29.68
620.343	29.98
620.534	30.07
620.726	30.26
620.917	30.25
621.109	30.24
621.301	30.32
621.492	30.37
621.684	30.38
621.875	30.38
622.067	30.3
622.258	30.34
622.45	30.28
622.641	30.21
622.832	30.19
623.024	30.41
623.215	30.3
623.407	30.33
623.598	30.24
623.789	30.13
623.981	30.24
624.172	30.27
624.363	30.19
624.555	30.08
624.746	30.06
624.937	30.02
625.129	29.88
625.32	30.02
625.511	29.9
625.702	30.01
625.893	29.95
626.085	29.89
626.276	30.04
626.467	30.08
626.658	30.09
626.849	30.18
627.04	30.17
627.231	30.15
627.422	30.19
627.614	30.21
627.805	30.24
627.996	30.32
628.187	30.34
628.378	30.31
628.569	30.48
628.76	30.59
628.951	30.72
629.142	30.87
629.332	31.12
629.523	31.2
629.714	31.22
629.905	31.56
630.096	31.84
630.287	31.95
630.478	31.99
630.669	31.93
630.859	31.9
631.05	31.93
631.241	31.93
631.432	31.67
631.623	31.46
631.813	31.48
632.004	31.11
632.195	30.82
632.385	30.52
632.576	30.41
632.767	30.21
632.957	29.92
633.148	29.64
633.339	29.25
633.529	29.24
633.72	29.19
633.91	29.05
634.101	28.87
634.292	28.71
634.482	28.77
634.673	28.54
634.863	28.36
635.054	28.5
635.244	28.49
635.435	28.67
635.625	28.58
635.815	28.45
636.006	28.4
636.196	28.4
636.387	28.46
636.577	28.53
636.767	28.39
636.958	28.58
637.148	28.47
637.338	28.29
637.529	28.28
637.719	28.36
637.909	28.47
638.099	28.54
638.29	28.45
638.48	28.48
638.67	28.34
638.86	28.53
639.05	28.5
639.241	28.49
639.431	28.61
639.621	28.58
639.811	28.47
640.001	28.55
640.191	28.43
640.381	28.56
640.571	28.38
640.761	28.47
640.951	28.48
641.141	28.48
641.331	28.57
641.521	28.73
641.711	28.77
641.901	28.88
642.091	28.97
642.281	29.06
642.471	29.03
642.661	29.24
642.851	29.28
643.041	29.27
643.231	29.43
643.42	29.6
643.61	29.67
643.8	29.67
643.99	29.56
644.18	29.33
644.369	29.47
644.559	29.5
644.749	29.53
644.939	29.54
645.128	29.58
645.318	29.51
645.508	29.46
645.697	29.45
645.887	29.18
646.076	29.23
646.266	29.27
646.456	29.16
646.645	29.09
646.835	28.96
647.024	28.78
647.214	28.85
647.403	28.84
647.593	28.83
647.782	28.67
647.972	28.98
648.161	29.14
648.351	29.24
648.54	29.32
648.73	29.44
648.919	29.56
649.108	29.7
649.298	29.68
649.487	29.7
649.677	29.64
649.866	29.62
650.055	29.6
650.244	29.67
650.434	29.63
650.623	29.6
650.812	29.67
651.002	29.54
651.191	29.53
651.38	29.4
651.569	29.26
651.758	29.36
651.947	29.61
652.137	29.66
652.326	29.6
652.515	29.48
652.704	29.45
652.893	29.51
653.082	29.78
653.271	29.8
653.46	29.82
653.649	29.96
653.838	29.88
654.027	29.55
654.216	29.29
654.405	29.11
654.594	29.04
654.783	29.13
654.972	29.16
655.161	29
655.35	28.98
655.539	29.17
655.728	29.09
655.916	29.2
656.105	29.25
656.294	29.22
656.483	29.38
656.672	29.37
656.86	29.19
657.049	28.97
657.238	28.97
657.427	28.88
657.615	28.6
657.804	28.63
657.993	28.62
658.181	28.61
658.37	28.74
658.559	28.73
658.747	28.8
658.936	28.82
659.125	28.69
659.313	28.66
659.502	28.6
659.69	28.95
659.879	28.9
660.067	28.83
660.256	29.05
660.444	28.84
660.633	28.77
660.821	28.87
661.01	28.98
661.198	29.18
661.387	29.46
661.575	29.72
661.763	29.49
661.952	29.47
662.14	29.68
662.328	29.83
662.517	30.39
662.705	30.26
662.893	30.51
663.082	30.75
663.27	30.96
663.458	30.87
663.646	30.87
663.834	31.1
664.023	31.23
664.211	30.96
664.399	30.76
664.587	30.5
664.775	30.95
664.963	30.6
665.152	30.24
665.34	30.36
665.528	30.15
665.716	30.11
665.904	29.8
666.092	29.74
666.28	29.96
666.468	29.87
666.656	29.75
666.844	29.3
667.032	29.41
667.22	29.4
667.408	29.24
667.596	29.55
667.784	29.57
667.971	29.82
668.159	29.83
668.347	29.47
668.535	29.55
668.723	29.73
668.911	29.84
669.098	29.61
669.286	29.88
669.474	29.75
669.662	29.79
669.849	29.7
670.037	29.71
670.225	29.67
670.413	29.74
670.6	29.71
670.788	29.46
670.976	29.61
671.163	29.91
671.351	29.79
671.538	29.94
671.726	29.72
671.913	29.71
672.101	29.42
672.289	29.52
672.476	29.6
672.664	29.4
672.851	29.73
673.039	29.64
673.226	29.45
673.413	29.67
673.601	29.33
673.788	28.96
673.976	28.84
674.163	29.18
674.35	29.14
674.538	29.24
674.725	29.26
674.912	29.08
675.1	29.07
675.287	29.07
675.474	28.81
675.662	29.02
675.849	29.25
676.036	29.39
676.223	29.19
676.411	29.3
676.598	29.4
676.785	29.52
676.972	29.38
677.159	29.32
677.346	29.38
677.533	29.29
677.721	29.29
677.908	29.3
678.095	29.46
678.282	29.35
678.469	29.1
678.656	29.22
678.843	29.08
679.03	29.47
679.217	29.57
679.404	29.58
679.591	29.82
679.778	29.93
679.964	30.11
680.151	29.9
680.338	30.03
680.525	30.07
680.712	29.89
680.899	30.21
681.086	30.07
681.272	30.14
681.459	30.25
681.646	30.13
681.833	30.19
682.02	30.05
682.206	30.19
682.393	30.23
682.58	30.2
682.766	30.2
682.953	30.1
683.14	30.12
683.326	30.21
683.513	30.26
683.7	30.26
683.886	30.17
684.073	30.13
684.259	30.27
684.446	30.25
684.632	30.62
684.819	30.81
685.005	30.66
685.192	30.79
685.378	30.75
685.565	30.75
685.751	30.7
685.938	30.79
686.124	31.08
686.31	31.02
686.497	31.23
686.683	31.23
686.87	31.11
687.056	31.26
687.242	31.15
687.429	31.12
687.615	31.01
687.801	31.09
687.987	30.84
688.174	30.55
688.36	30.48
688.546	30.41
688.732	30.2
688.918	30.02
689.105	29.96
689.291	30.13
689.477	30.04
689.663	30.09
689.849	30.15
690.035	30.25
690.221	30.17
690.407	30.38
690.593	30.2
690.779	30.12
690.965	30.42
691.151	30.5
691.337	30.45
691.523	30.36
691.709	30.5
691.895	30.63
692.081	30.7
692.267	30.9
692.453	31.11
692.639	31.29
692.825	31.38
693.011	31.41
693.196	31.42
693.382	31.15
693.568	31.37
693.754	31.26
693.94	31.08
694.125	31.17
694.311	31.11
694.497	30.59
694.682	30.79
694.868	31.1
695.054	31
695.239	30.97
695.425	31.13
695.611	30.95
695.796	30.86
695.982	31.13
696.168	30.95
696.353	31.17
696.539	31.35
696.724	31.25
696.91	31.22
697.095	30.95
697.281	30.85
697.466	30.49
697.652	30.57
697.837	30.56
698.023	30.31
698.208	30.29
698.393	30.11
698.579	30.05
698.764	29.94
698.949	29.86
699.135	29.99
699.32	30.09
699.505	30.31
699.691	30.17
699.876	30.28
700.061	30.6
700.246	30.67
700.432	30.83
700.617	31.03
700.802	30.86
700.987	30.92
701.172	31.11
701.358	31.23
701.543	31.38
701.728	31.96
701.913	32.01
702.098	31.7
702.283	32.15
702.468	32.3
702.653	32.21
702.838	32.42
703.023	32.13
703.208	32.4
703.393	32.31
703.578	32.36
703.763	32.5
703.948	32.65
704.133	32.91
704.318	33.07
704.503	33.04
704.688	33.2
704.873	33.7
705.057	34.54
705.242	34.8
705.427	35.18
705.612	35.84
705.797	35.79
705.981	36
706.166	36.47
706.351	36.58
706.536	37.11
706.72	37.55
706.905	37.65
707.09	37.56
707.274	37.6
707.459	37.61
707.644	37.82
707.828	38.32
708.013	38.6
708.197	38.42
708.382	38.35
708.567	38.34
708.751	38.11
708.936	37.8
709.12	37.73
709.305	37.6
709.489	37.68
709.673	36.98
709.858	36.42
710.042	35.93
710.227	35.94
710.411	35.57
710.596	35.37
710.78	35.44
710.964	35.68
711.149	35.7
711.333	35.32
711.517	35.22
711.702	35.39
711.886	35.42
712.07	35.72
712.254	35.4
712.438	35.58
712.623	35.36
712.807	35.03
712.991	34.76
713.175	34.71
713.359	34.74
713.544	34.49
713.728	33.91
713.912	33.41
714.096	33.03
714.28	32.97
714.464	32.51
714.648	32.43
714.832	32.31
715.016	32.17
715.2	31.94
715.384	31.73
715.568	31.76
715.752	31.86
715.936	31.94
716.12	31.85
716.304	31.42
716.488	31.5
716.671	30.96
716.855	30.79
717.039	30.59
717.223	30.19
717.407	30.31
717.59	30.09
717.774	30.03
717.958	29.97
718.142	29.58
718.325	29.81
718.509	29.94
718.693	30.24
718.877	30.11
719.06	30.27
719.244	30.21
719.428	29.81
719.611	29.79
719.795	29.68
719.978	29.53
720.162	29.41
720.345	29.57
720.529	29.48
720.713	29.79
720.896	30.26
721.08	30.38
721.263	30.87
721.446	31.25
721.63	31.48
721.813	31.3
721.997	31.7
722.18	32.11
722.364	32.19
722.547	32.13
722.73	31.7
722.914	31.14
723.097	31.04
723.28	30.77
723.464	30.59
723.647	30.51
723.83	30.9
724.013	30.67
724.197	30.69
724.38	30.94
724.563	31.04
724.746	31.37
724.929	31.87
725.112	31.72
725.296	31.66
725.479	31.79
725.662	31.63
725.845	31.5
726.028	31.74
726.211	31.76
726.394	31.36
726.577	31.42
726.76	31.58
726.943	31.42
727.126	31.66
727.309	31.48
727.492	31.49
727.675	31.72
727.858	31.7
728.041	31.64
728.224	31.77
728.407	31.4
728.589	31.01
728.772	30.94
728.955	31.26
729.138	31.14
729.321	31.15
729.503	31.24
729.686	31.32
729.869	31.56
730.052	31.36
730.234	30.89
730.417	31.36
730.6	31.32
730.782	31.4
730.965	31.05
731.148	31.32
731.33	31.49
731.513	31.05
731.695	30.77
731.878	30.6
732.061	30.7
732.243	30.84
732.426	30.7
732.608	30.89
732.791	30.62
732.973	31.18
733.156	30.83
733.338	31.18
733.52	31.39
733.703	31.36
733.885	31.73
734.068	31.62
734.25	31.88
734.432	32.03
734.615	32.02
734.797	32.21
734.979	31.8
735.162	31.96
735.344	31.89
735.526	32.05
735.708	31.92
735.891	31.58
736.073	32.06
736.255	31.82
736.437	31.78
736.619	32.33
736.802	32.3
736.984	31.94
737.166	31.61
737.348	31.39
737.53	31.83
737.712	32.19
737.894	32.08
738.076	32.05
738.258	32.59
738.44	32.57
738.622	32
738.804	32.12
738.986	32.31
739.168	32.6
739.35	32.76
739.532	32.43
739.714	32.49
739.896	33.1
740.078	32.8
740.259	33.11
740.441	33.08
740.623	33.42
740.805	33.83
740.987	34.37
741.168	34.69
741.35	34.92
741.532	34.93
741.714	34.94
741.895	34.68
742.077	35.32
742.259	34.93
742.44	34.81
742.622	34.81
742.804	34.59
742.985	34.5
743.167	33.78
743.348	33.31
743.53	33.47
743.711	33.59
743.893	33.68
744.075	33.01
744.256	33
744.438	33.36
744.619	33.56
744.8	33.08
744.982	33.07
745.163	34.21
745.345	34.35
745.526	34.79
745.707	35.01
745.889	34.93
746.07	35.7
746.252	35.91
746.433	36.14
746.614	35.52
746.795	35.85
746.977	35.71
747.158	35.49
747.339	35.49
747.52	35.18
747.702	35.18
747.883	35.01
748.064	33.93
748.245	33.78
748.426	33.6
748.607	34.18
748.788	33.92
748.97	33.92
749.151	33.69
749.332	33.96
749.513	33.9
749.694	33.81
749.875	33.87
750.056	34.51
750.237	34.6
750.418	34.52
750.599	34.24
750.78	35.08
750.96	34.71
751.141	34.69
751.322	34.93
751.503	34.86
751.684	34.88
751.865	35.07
752.046	34.99
752.226	34.66
752.407	35.24
752.588	34.91
752.769	34.58
752.949	35.08
753.13	34.07
753.311	33.88
753.492	33.3
753.672	33.45
753.853	33.56
754.034	33.7
754.214	33.95
754.395	33.36
754.575	34.38
754.756	33.91
754.937	33.74
755.117	35.28
755.298	34.78
755.478	35.43
755.659	35.16
755.839	35.16
756.02	35.29
756.2	34.87
756.381	35.62
756.561	35.01
756.741	35.69
756.922	35.99
757.102	35.5
757.283	35.88
757.463	36.27
757.643	36.81
757.823	36.55
758.004	35.52
758.184	35.4
758.364	34.3
758.545	34.11
758.725	32.68
758.905	31.68
759.085	30.99
759.265	31.08
759.446	30.03
759.626	29.52
759.806	29.4
759.986	29.46
760.166	29.98
760.346	29.81
760.526	29.7
760.706	30.71
760.886	31.06
761.066	31.6
761.246	31.46
761.426	31.77
761.606	31.38
761.786	31.18
761.966	31.31
762.146	30.65
762.326	31.06
762.506	31.5
762.686	30.96
762.866	30.88
763.046	30.96
763.225	30.87
763.405	30.78
763.585	30.86
763.765	31.05
763.945	31.33
764.124	31.3
764.304	31.43
764.484	30.89
764.664	31.17
764.843	31.42
765.023	31.68
765.203	31.72
765.382	32.06
765.562	31.87
765.741	32.06
765.921	32.08
766.101	32.51
766.28	32.44
766.46	33.22
766.639	33.38
766.819	33.36
766.998	32.98
767.178	33.27
767.357	33.37
767.537	34.28
767.716	34.25
767.896	34.44
768.075	34.98
768.254	35.24
768.434	34.79
768.613	34.99
768.792	34.97
768.972	34.91
769.151	34.58
769.33	34.34
769.51	33.5
769.689	33.01
769.868	33.01
770.047	33.01
770.226	32.56
770.406	32.48
770.585	32.03
770.764	32.74
770.943	32.73
771.122	32.8
771.301	32.98
771.48	33.99
771.66	34.41
771.839	34.2
772.018	33.76
772.197	34.04
772.376	33.97
772.555	34.2
772.734	33.4
772.913	33.71
773.092	34.31
773.271	34.68
773.449	33.5
773.628	33.12
773.807	33.59
773.986	34.14
774.165	34.29
774.344	35.64
774.523	35.5
774.701	35.5
774.88	36
775.059	35.95
775.238	35.82
775.417	36.31
775.595	37.46
775.774	37.41
775.953	36.53
776.131	36.57
776.31	35.3
776.489	35.05
776.667	35.24
776.846	34.17
777.025	34.04
777.203	33.62
777.382	33.18
777.56	32.05
777.739	32.31
777.917	31.55
778.096	31.8
778.274	32.05
778.453	33.19
778.631	33.88
778.81	34.62
778.988	33.77
779.166	35.27
779.345	36.68
779.523	37.04
779.702	36.27
779.88	37.09
780.058	36.47
780.237	36.48
780.415	36.44
780.593	35.92
780.771	35.97
780.95	37.24
781.128	35.63
781.306	35.82
781.484	35.9
781.662	35.93
781.841	36.37
782.019	36.56
782.197	36.45
782.375	35.63
782.553	35.2
782.731	35.11
782.909	33.77
783.087	33.99
783.265	33.25
783.443	34.36
783.621	33.99
783.799	33.54
783.977	33.34
784.155	33.73
784.333	34.61
784.511	34.85
784.689	34.35
784.867	35.29
785.045	35.99
785.223	36.21
785.4	34.77
785.578	35.73
785.756	36.27
785.934	36.76
786.112	36.72
786.289	35.74
786.467	35.56
786.645	35.57
786.823	35.93
787	35.29
787.178	35.32
787.356	34.81
787.533	34.27
787.711	33.79
787.889	33.61
788.066	33.93
788.244	34.02
788.421	34.34
788.599	34.5
788.776	33.77
788.954	34.31
789.131	33.4
789.309	34.06
789.486	34.25
789.664	34.78
789.841	35.14
790.019	34.01
790.196	34.06
790.373	34.64
790.551	34.33
790.728	34.89
790.906	34.74
791.083	34.29
791.26	33.59
791.437	33.45
791.615	32.77
791.792	32
791.969	32.63
792.146	31.77
792.324	29.62
792.501	30.07
792.678	30.09
792.855	30.05
793.032	31.51
793.209	31.78
793.387	31.65
793.564	31.48
793.741	31.94
793.918	32.21
794.095	33.81
794.272	35.44
794.449	34.59
794.626	34.14
794.803	33.54
794.98	33
795.157	33
795.334	33.85
795.511	33.93
795.688	33.82
795.864	33.31
796.041	33.08
796.218	32.4
796.395	33.3
796.572	33.55
796.749	34.37
796.925	34.2
797.102	34.58
797.279	34.4
797.456	34.48
797.632	33.8
797.809	34.33
797.986	34.4
798.162	35.13
798.339	35.59
798.516	35.61
798.692	34.99
798.869	34.67
799.046	35.09
799.222	34.4
799.399	34.48
799.575	34.7
799.752	34.64
799.928	34.18
800.105	33.84
800.281	32.44
800.458	31.19
800.634	30.38
800.811	30.62
800.987	30.07
801.163	29.94
801.34	30.73
801.516	30.86
801.692	31.3
801.869	31.14
802.045	30.38
802.221	32.33
802.398	34.03
802.574	35.35
802.75	35.87
802.926	36.6
803.103	36.38
803.279	36.13
803.455	36.3
803.631	35.57
803.807	36.11
803.983	37.2
804.16	35.73
804.336	34.5
804.512	34.51
804.688	34.23
804.864	32.5
805.04	32.08
805.216	30.65
805.392	31.53
805.568	30.91
805.744	30.48
805.92	30.95
806.096	30.77
806.272	30.86
806.448	30.2
806.623	30.93
806.799	32.05
806.975	34.01
807.151	34.15
807.327	33.88
807.503	34.35
807.678	35.21
807.854	34.39
808.03	33.94
808.206	33.82
808.381	33.59
808.557	33.05
808.733	32.9
808.908	33.11
809.084	34.04
809.26	34.23
809.435	35.13
809.611	33.57
809.787	33.98
809.962	35.56
810.138	36.81
810.313	37.46
810.489	37.51
810.664	36.96
810.84	36.32
811.015	36.41
811.191	35.35
811.366	34.79
811.542	35.71
811.717	35.21
811.892	33.69
812.068	32.72
812.243	32.32
812.419	32.56
812.594	31.95
812.769	32.41
812.944	30.78
813.12	31.16
813.295	30.68
813.47	30.3
813.645	32.59
813.821	33.39
813.996	32.44
814.171	32.08
814.346	31.12
814.521	32.75
814.697	32.13
814.872	32.28
815.047	32.8
815.222	33.72
815.397	33.66
815.572	30.72
815.747	29.09
815.922	30.26
816.097	30.32
816.272	30.2
816.447	29.81
816.622	30.77
816.797	31.96
816.972	31.86
817.147	31.72
817.322	31.77
817.496	31.82
817.671	32.67
817.846	31.22
818.021	31.07
818.196	29.43
818.371	29.34
818.545	26.91
818.72	28.37
818.895	28.4
819.069	28.06
819.244	27.81
819.419	27.82
819.594	27.81
819.768	29.61
819.943	29.46
820.117	30.94
820.292	30.66
820.467	31.15
820.641	30.7
820.816	30.32
820.99	30.71
821.165	30.68
821.339	30.59
821.514	30.88
821.688	30.38
821.863	30.51
822.037	30.56
822.212	30.46
822.386	30.38
822.56	30.16
822.735	30.34
822.909	30.17
823.084	30.24
823.258	30.18
823.432	30.09
823.606	30.14
823.781	30.07
823.955	29.89
824.129	30.09
824.303	30.3
824.478	30.7
824.652	30.3
824.826	30.47
825	30.35
825.174	30.44
825.348	30.44
825.523	30.39
825.697	30.41
825.871	30.49
826.045	30.49
826.219	30.64
826.393	30.42
826.567	30.63
826.741	30.48
826.915	30.54
827.089	30.87
827.263	30.43
827.437	30.48
827.611	30.86
827.784	30.52
827.958	30.58
828.132	30.25
828.306	29.88
828.48	30.05
828.654	29.72
828.827	29.62
829.001	29.44
829.175	30
829.349	30.26
829.522	30.47
829.696	30.93
829.87	31.22
830.044	31.3
830.217	31.86
830.391	32.17
830.565	32.88
830.738	34.15
830.912	35.23
831.085	34.61
831.259	34.19
831.432	33.2
831.606	33.2
831.779	32.04
831.953	31.97
832.126	31.31
832.3	30.69
832.473	30.41
832.647	29.93
832.82	28.55
832.994	28.93
833.167	29.47
833.34	29.17
833.514	30.27
833.687	30.29
833.86	30.55
834.034	30.46
834.207	31.07
834.38	31.15
834.553	30.94
834.727	31.45
834.9	31.2
835.073	31.03
835.246	30.81
835.419	29.27
835.593	28.87
835.766	27.94
835.939	27.98
836.112	27.3
836.285	26.2
836.458	26.22
836.631	25.79
836.804	25.57
836.977	25.26
837.15	26.44
837.323	28.06
837.496	28.4
837.669	28.53
837.842	29.14
838.015	29.97
838.188	31.58
838.361	31.19
838.533	31.47
838.706	33.88
838.879	34.28
839.052	34.92
839.225	34.73
839.398	35.51
839.57	37.81
839.743	38.15
839.916	37.49
840.088	38.14
840.261	38.11
840.434	38.61
840.607	37.73
840.779	37.42
840.952	35.97
841.124	35.46
841.297	35.4
841.47	34.62
841.642	34.97
841.815	35.43
841.987	33.56
842.16	33.33
842.332	32.97
842.505	31.98
842.677	31.88
842.85	32.99
843.022	33.67
843.194	33.88
843.367	32.65
843.539	31.32
843.712	29.93
843.884	30.67
844.056	29.66
844.229	29.81
844.401	28.33
844.573	30.43
844.745	29.32
844.918	25.81
845.09	24.12
845.262	23.1
845.434	23.05
845.606	21.45
845.779	24.23
845.951	26.58
846.123	28.37
846.295	28.75
846.467	26.72
846.639	27.8
846.811	31.01
846.983	30.63
847.155	34.65
847.327	30.99
847.499	33.06
847.671	32.3
847.843	29.71
848.015	27.21
848.187	31.07
848.359	34.29
848.531	31.56
848.703	29.12
848.875	28.54
849.047	23.62
849.218	24.76
849.39	25.57
849.562	22.77
849.734	27.72
849.905	26.37
850.077	24.45
850.249	21.8
850.421	21.66
850.592	24.58
850.764	25.47
850.936	29.6
851.107	30.96
851.279	31.01
851.451	33.79
851.622	29.9
851.794	30.66
851.965	30.57
852.137	29.33
852.308	30.95
852.48	27.86
852.651	32.14
852.823	31.54
852.994	31.93
853.166	31.11
853.337	30.93
853.509	32.05
853.68	37.5
853.851	35.15
854.023	34.5
854.194	32.59
854.365	35.52
854.537	33.64
854.708	32.97
854.879	31.35
855.05	30.85
855.222	31.85
855.393	34.62
855.564	30.77
855.735	28.43
855.906	31.24
856.078	32.67
856.249	30.72
856.42	31.47
856.591	32.15
856.762	32.06
856.933	29.44
857.104	26.05
857.275	21.79
857.446	18.5
857.617	21.85
857.788	17.94
857.959	16.74
858.13	18.56
858.301	14.71
858.472	12.01
858.643	12.21
858.814	15.67
858.985	13.04
859.155	14.01
859.326	17.54
859.497	20.13
859.668	23.15
859.839	20.87
860.009	20.61
860.18	25.29
860.351	26.38
860.522	27.98
860.692	28.85
860.863	32.47
861.034	31.15
861.204	28.55
861.375	30.33
861.546	32.87
861.716	37
861.887	36.27
862.057	37.15
862.228	34.62
862.398	32.98
862.569	32.43
862.739	32.92
862.91	34.83
863.08	34.53
863.251	31.48
863.421	27.85
863.592	23.33
863.762	21.4
863.932	18.5
864.103	15.8
864.273	15.07
864.443	14.87
864.614	13.71
864.784	9.89
864.954	10.42
865.125	12.13
865.295	11.78
865.465	16.03
865.635	16.99
865.805	15.05
865.976	24.15
866.146	26.83
866.316	25.82
866.486	22.32
866.656	23.23
866.826	26.66
866.996	22.62
867.166	25.29
867.336	15.99
867.506	19.26
867.676	21.22
867.846	18.14
868.016	18.02
868.186	18.21
868.356	21.14
868.526	19.11
868.696	20.8
868.866	23.95
869.036	18.82
869.206	27.11
869.376	23.89
869.545	25.26
869.715	22.27
869.885	20.92
870.055	26.23
870.224	25.19
870.394	28.89
870.564	27.54
870.734	24.82
870.903	29.29
871.073	29.79
871.243	26.54
871.412	24.23
871.582	26.82
871.751	28.03
871.921	17.77
872.091	17.16
872.26	17.3
872.43	17.09
872.599	18.53
872.769	21.35
872.938	17.5
873.108	23.92
873.277	24.14
873.446	23.91
873.616	22.33
873.785	27.71
873.955	28.3
874.124	25.17
874.293	25.22
874.463	29.44
874.632	25.81
874.801	28.94
874.971	23.31
875.14	24.87
875.309	28.12
875.478	31.63
875.647	30.11
875.817	34.04
875.986	36.95
876.155	33.02
876.324	29.66
876.493	30.67
876.662	33.94
876.831	35.68
877	31.8
877.17	29.25
877.339	26.89
877.508	28.91
877.677	24.18
877.846	22.22
878.015	26.06
878.184	24.14
878.352	22.64
878.521	18.96
878.69	22.12
878.859	19.85
879.028	17.47
879.197	16.22
879.366	17.01
879.534	19.41
879.703	22.34
879.872	23.78
880.041	25.66
880.21	26.4
880.378	26.12
880.547	25.15
880.716	28.05
880.884	29.13
881.053	29.69
881.222	29.76
881.39	30.02
881.559	29.72
881.727	30.13
881.896	29.07
882.065	29.05
882.233	28.76
882.402	28.82
882.57	28.58
882.739	28.3
882.907	28.12
883.076	28.04
883.244	27.9
883.412	28.01
883.581	27.76
883.749	28.69
883.918	28.93
884.086	29.02
884.254	29.17
884.423	28.81
884.591	29.04
884.759	29.28
884.927	29.75
885.096	29.29
885.264	28.38
885.432	28.55
885.6	27.98
885.769	26.91
885.937	27.65
886.105	27.92
886.273	29.3
886.441	28.81
886.609	29.2
886.777	27.66
886.945	28.69
887.113	29.92
887.281	27.09
887.449	26.18
887.617	27.86
887.785	26.4
887.953	25.02
888.121	22.87
888.289	23.01
888.457	21.93
888.625	20.64
888.793	20
888.961	19.25
889.129	20.38
889.296	19.17
889.464	16.59
889.632	19.16
889.8	18.51
889.967	17.63
890.135	16.4
