Data from 2938759__Reflection_10.txt Node
Date: Fri Mar 13 18:48:11 EDT 2015
User: robert
Spectrometer: USB4E03002
Autoset integration time: false
Trigger mode: 4
Integration Time (sec): 1.000000E-1
Scans to average: 10
Electric dark correction enabled: false
Nonlinearity correction enabled: false
Boxcar width: 5
Stray light correction enabled: false
XAxis mode: Wavelengths
Stop averaging: false
Number of Pixels in Spectrum: 3648
>>>>>Begin Spectral Data<<<<<
177.575	-263.64
177.794	-2071.43
178.014	-220.69
178.233	-466.22
178.452	33900
178.672	189.02
178.891	141.94
179.11	114.61
179.33	61.79
179.549	12.05
179.768	-4.18
179.987	-34.95
180.207	-568.18
180.426	-120.86
180.645	-298.33
180.864	205.71
181.084	56.03
181.303	16.8
181.522	13.08
181.741	37.11
181.96	31.53
182.179	18.35
182.398	46.56
182.618	29.83
182.837	-0.52
183.056	51.69
183.275	83.15
183.494	123.08
183.713	419.05
183.932	485
184.151	-10700
184.37	-4.45
184.589	-16.55
184.808	44.01
185.027	53.54
185.246	47.95
185.465	81.85
185.684	74.35
185.903	130.67
186.122	326.13
186.341	143.41
186.56	-976.92
186.779	30.6
186.998	37.62
187.216	91.18
187.435	115.33
187.654	123.27
187.873	112.39
188.092	76.87
188.311	100.78
188.53	110.29
188.748	113.2
188.967	140.05
189.186	256.05
189.405	-196.08
189.623	-34.98
189.842	-28.57
190.061	31.05
190.28	47.98
190.498	25.91
190.717	45.07
190.936	53.38
191.154	91.86
191.373	101.21
191.592	189.3
191.81	-3131.25
192.029	-1035
192.248	-139.49
192.466	-56.15
192.685	-4.08
192.904	-127.81
193.122	-425.53
193.341	-350
193.559	42.31
193.778	1627.27
193.996	51.97
194.215	-6.04
194.433	53.27
194.652	233.33
194.87	3650
195.089	228.05
195.307	32.26
195.526	21.18
195.744	36.56
195.963	27.03
196.181	65.37
196.399	58.4
196.618	54.3
196.836	78.83
197.055	104.06
197.273	132.46
197.491	136.21
197.71	103.05
197.928	193.04
198.146	66.67
198.365	104.04
198.583	135.42
198.801	19.05
199.019	-5.11
199.238	-57.68
199.456	-45.51
199.674	-8.16
199.892	-26.46
200.111	-46.34
200.329	-15.19
200.547	-54.31
200.765	1.31
200.983	-4.82
201.202	23.28
201.42	42.07
201.638	52.84
201.856	50.54
202.074	37.5
202.292	21.65
202.51	-6.23
202.728	-17.67
202.946	2.63
203.165	-17.74
203.383	-294.85
203.601	-555.43
203.819	-94.37
204.037	-169.29
204.255	-143.02
204.473	-178.31
204.691	-188.13
204.909	-136.26
205.127	-146.67
205.345	-70.8
205.562	-56.99
205.78	-59.9
205.998	-18.1
206.216	-33.84
206.434	5.4
206.652	-7.52
206.87	8.21
207.088	2.6
207.306	0.29
207.523	1.48
207.741	0.33
207.959	17.84
208.177	24.51
208.395	25.68
208.612	-3.42
208.83	1.36
209.048	19.4
209.266	32.74
209.483	46.45
209.701	98.77
209.919	70.39
210.136	43.1
210.354	18.75
210.572	15.18
210.79	21.88
211.007	49.08
211.225	21.61
211.442	43.11
211.66	55.01
211.878	53.48
212.095	62.57
212.313	111.08
212.53	117.27
212.748	115
212.966	98.74
213.183	72.39
213.401	50.81
213.618	75.95
213.836	76.19
214.053	-20.2
214.271	19.2
214.488	2.82
214.705	-4.22
214.923	17.19
215.14	19.63
215.358	35.07
215.575	51.85
215.793	42.6
216.01	45.31
216.227	54.78
216.445	64.35
216.662	63.59
216.879	61.24
217.097	68.72
217.314	60.39
217.531	67.58
217.749	50.35
217.966	40.08
218.183	56.6
218.4	53.93
218.618	36.16
218.835	32.94
219.052	40.16
219.269	36.11
219.487	19.48
219.704	20.99
219.921	16.43
220.138	16.82
220.355	17.23
220.572	7.81
220.79	5.89
221.007	5.84
221.224	-5.77
221.441	-4.77
221.658	-1.1
221.875	4.65
222.092	3.72
222.309	8.04
222.526	5.67
222.743	4.76
222.96	7.37
223.177	8.31
223.394	8.21
223.611	10.14
223.828	8.72
224.045	6.37
224.262	3.51
224.479	7.06
224.696	3.31
224.913	3.28
225.13	2.46
225.347	3.43
225.564	5.46
225.781	5.07
225.997	6
226.214	7.1
226.431	6.28
226.648	9.02
226.865	5.62
227.082	5.33
227.298	7.66
227.515	7.74
227.732	6.05
227.949	5.04
228.165	6.13
228.382	7.23
228.599	5.94
228.816	5.29
229.032	4.83
229.249	4.6
229.466	4.65
229.682	3.97
229.899	4.13
230.116	4.13
230.332	3.87
230.549	3.07
230.765	0.66
230.982	0.72
231.199	1.39
231.415	1.05
231.632	1.45
231.848	1.61
232.065	-0.16
232.281	-0.44
232.498	0.42
232.714	1.51
232.931	-1.33
233.147	0.14
233.364	1.91
233.58	0.71
233.797	-1.86
234.013	-1.36
234.23	-2.31
234.446	-0.97
234.662	-2.83
234.879	-4.01
235.095	-3.35
235.312	-0.79
235.528	-1.02
235.744	-2.05
235.961	-1.56
236.177	0.76
236.393	0.63
236.61	1.52
236.826	2.71
237.042	3.99
237.258	3.98
237.475	4.57
237.691	3.47
237.907	2.26
238.123	1.98
238.339	1.64
238.556	0.83
238.772	-0.63
238.988	-0.85
239.204	-0.13
239.42	0.75
239.636	2.29
239.853	1.59
240.069	2.14
240.285	3.12
240.501	2.67
240.717	3.01
240.933	3.52
241.149	4.65
241.365	4.4
241.581	4.2
241.797	3.45
242.013	2.76
242.229	2.42
242.445	2.34
242.661	1.83
242.877	1.72
243.093	1.65
243.309	1.73
243.525	1.82
243.741	1.97
243.957	2.37
244.173	2.96
244.388	3.23
244.604	3.28
244.82	2.75
245.036	3.28
245.252	3.36
245.468	3.43
245.683	3.16
245.899	2.81
246.115	2.83
246.331	2.17
246.547	2.32
246.762	2.43
246.978	2.6
247.194	2.74
247.409	2.66
247.625	2.7
247.841	2.68
248.057	2.7
248.272	2.63
248.488	2.6
248.703	2.73
248.919	2.34
249.135	2.53
249.35	2.7
249.566	2.98
249.782	3.62
249.997	3.96
250.213	3.89
250.428	3.59
250.644	3.5
250.859	3.65
251.075	3.28
251.29	4.02
251.506	3.52
251.721	2.75
251.937	3.47
252.152	2.91
252.368	2.76
252.583	2.88
252.798	3.55
253.014	4.17
253.229	4.03
253.445	4.53
253.66	4.55
253.875	4.51
254.091	5.7
254.306	5.49
254.521	5.5
254.737	5.64
254.952	5.39
255.167	5.72
255.383	5.04
255.598	4.93
255.813	4.52
256.028	3.43
256.244	3.29
256.459	2.42
256.674	1.64
256.889	2.58
257.104	2.56
257.32	3.1
257.535	1.03
257.75	0.59
257.965	0.22
258.18	0.21
258.395	0.43
258.61	0.63
258.826	0.54
259.041	0.49
259.256	0.37
259.471	0.36
259.686	0.18
259.901	0.79
260.116	1.11
260.331	1.41
260.546	1.52
260.761	1.45
260.976	1.36
261.191	1.65
261.406	1.96
261.621	1.92
261.836	1.81
262.05	1.9
262.265	1.6
262.48	1.84
262.695	1.95
262.91	1.72
263.125	2.08
263.34	2.42
263.555	2.35
263.769	1.55
263.984	1.18
264.199	1.53
264.414	1.57
264.629	2.24
264.843	1.4
265.058	1.48
265.273	1.81
265.488	1.3
265.702	0.8
265.917	0.57
266.132	1.26
266.346	1.44
266.561	1.99
266.776	2.1
266.99	2.09
267.205	1.95
267.42	1.25
267.634	1.63
267.849	1.82
268.063	2.12
268.278	2.43
268.492	2.1
268.707	2.21
268.922	1.26
269.136	1.04
269.351	1.11
269.565	1.06
269.78	1.36
269.994	1.1
270.209	1.04
270.423	1.11
270.637	0.97
270.852	1.19
271.066	0.91
271.281	1.4
271.495	1.22
271.709	1.15
271.924	1.3
272.138	1.54
272.353	1.8
272.567	1.67
272.781	1.79
272.996	1.36
273.21	1.45
273.424	1.87
273.638	1.64
273.853	2.33
274.067	2.18
274.281	2.18
274.495	2.26
274.71	1.83
274.924	2.15
275.138	2.13
275.352	2.7
275.566	2.82
275.781	2.45
275.995	2.7
276.209	2.18
276.423	1.95
276.637	2.42
276.851	2.7
277.065	2.49
277.279	2.07
277.493	2.05
277.707	1.34
277.921	0.91
278.135	1.18
278.349	0.92
278.563	1.4
278.777	2.02
278.991	1.64
279.205	1.32
279.419	1.22
279.633	1.89
279.847	1.54
280.061	2.07
280.275	2.36
280.489	2.29
280.703	2.92
280.917	2.31
281.131	1.84
281.344	1.58
281.558	1.37
281.772	1.39
281.986	1.13
282.2	1.35
282.414	1.12
282.627	1.24
282.841	0.96
283.055	0.27
283.269	0.37
283.482	0.52
283.696	0.78
283.91	0.26
284.123	0.68
284.337	0.62
284.551	0.28
284.764	0.4
284.978	0.14
285.192	0.15
285.405	0.43
285.619	0.48
285.833	0.62
286.046	0.77
286.26	1.25
286.473	1.14
286.687	1.25
286.9	1.59
287.114	1.67
287.327	1.86
287.541	2.16
287.754	1.9
287.968	2.17
288.181	1.78
288.395	1.58
288.608	1.42
288.822	1.53
289.035	1.41
289.248	1.48
289.462	1.28
289.675	0.91
289.889	0.82
290.102	1.02
290.315	0.81
290.529	1.18
290.742	1.27
290.955	1.76
291.169	1.63
291.382	1.55
291.595	1.62
291.808	1.73
292.022	2.38
292.235	2.67
292.448	2.83
292.661	2.91
292.875	2.88
293.088	2.71
293.301	2.16
293.514	2.15
293.727	2.23
293.94	2.01
294.153	2.33
294.367	1.99
294.58	1.77
294.793	1.67
295.006	1.28
295.219	1.09
295.432	1.1
295.645	1.21
295.858	1.4
296.071	1.5
296.284	1.84
296.497	1.73
296.71	1.91
296.923	2.04
297.136	2.3
297.349	2.56
297.562	2.56
297.775	2.78
297.988	3.14
298.201	3.11
298.414	3.19
298.626	2.98
298.839	2.91
299.052	2.85
299.265	2.75
299.478	2.41
299.691	2.42
299.903	2.36
300.116	2.43
300.329	2.01
300.542	1.96
300.755	2.03
300.967	2.35
301.18	2.58
301.393	2.28
301.605	2.2
301.818	2.25
302.031	2.35
302.243	2.64
302.456	2.48
302.669	2.53
302.881	2.41
303.094	2.43
303.307	2.23
303.519	2.15
303.732	2.48
303.944	2.69
304.157	2.96
304.37	2.98
304.582	2.98
304.795	2.89
305.007	3.08
305.22	3.17
305.432	3.11
305.645	2.57
305.857	2.6
306.069	2.84
306.282	2.77
306.494	2.73
306.707	2.58
306.919	2.97
307.132	3.03
307.344	2.96
307.556	3.07
307.769	3.27
307.981	3.82
308.193	3.91
308.406	3.85
308.618	3.95
308.83	3.65
309.043	3.97
309.255	3.67
309.467	3.79
309.679	3.97
309.892	3.97
310.104	3.73
310.316	3.5
310.528	3.66
310.74	3.5
310.953	3.34
311.165	3.59
311.377	3.42
311.589	3.51
311.801	3.58
312.013	3.53
312.225	3.74
312.437	3.76
312.649	4.05
312.862	4.1
313.074	3.92
313.286	4.08
313.498	4.12
313.71	4.38
313.922	4.35
314.134	4.05
314.346	3.97
314.558	3.95
314.77	4.51
314.982	4.21
315.193	3.91
315.405	4.33
315.617	4.67
315.829	4.58
316.041	5.1
316.253	5.04
316.465	5.3
316.677	5.2
316.888	4.89
317.1	4.71
317.312	5.12
317.524	5.16
317.736	4.85
317.947	4.73
318.159	4.96
318.371	4.66
318.583	4.42
318.794	4.86
319.006	5.12
319.218	5.45
319.43	5.68
319.641	5.84
319.853	5.89
320.064	6.8
320.276	6.97
320.488	7.23
320.699	7.01
320.911	7.74
321.123	7.77
321.334	8.43
321.546	8.14
321.757	7.61
321.969	7.33
322.18	7.39
322.392	6.93
322.603	7.13
322.815	7.11
323.026	7.24
323.238	7.29
323.449	7.39
323.661	7.05
323.872	7.67
324.083	7.95
324.295	8.34
324.506	8.69
324.718	8.96
324.929	8.94
325.14	9.34
325.352	9.51
325.563	9.44
325.774	9.32
325.986	9.58
326.197	9.89
326.408	10.45
326.62	10.73
326.831	11.3
327.042	11.58
327.253	11.85
327.464	12.28
327.676	12.74
327.887	13.24
328.098	13.68
328.309	14
328.52	14.14
328.732	14.35
328.943	14.53
329.154	14.41
329.365	14.2
329.576	14.65
329.787	14.63
329.998	14.73
330.209	15
330.42	15.51
330.631	15.55
330.842	15.79
331.053	15.77
331.264	16.08
331.475	16.41
331.686	17.43
331.897	17.48
332.108	17.89
332.319	18.02
332.53	18.37
332.741	18.32
332.952	18.72
333.163	18.72
333.374	19.05
333.585	19.19
333.795	19.66
334.006	19.07
334.217	19.71
334.428	19.37
334.639	20.06
334.849	20.01
335.06	20.16
335.271	20.13
335.482	20.17
335.692	20.44
335.903	20.58
336.114	20.62
336.325	21.13
336.535	20.66
336.746	20.94
336.957	20.69
337.167	20.76
337.378	21
337.589	21.16
337.799	21.17
338.01	21.29
338.22	21.48
338.431	21.39
338.642	21.5
338.852	21.61
339.063	21.63
339.273	21.98
339.484	22.37
339.694	22.36
339.905	22.27
340.115	22.42
340.326	22.14
340.536	21.84
340.746	21.8
340.957	21.92
341.167	21.93
341.378	22.01
341.588	21.47
341.799	20.85
342.009	20.9
342.219	21.19
342.43	21.54
342.64	21.85
342.85	21.75
343.061	21.7
343.271	21.53
343.481	21.66
343.691	21.78
343.902	22.09
344.112	22.35
344.322	22.32
344.532	22.14
344.743	21.93
344.953	21.73
345.163	21.99
345.373	21.85
345.583	21.76
345.793	21.63
346.004	21.3
346.214	20.86
346.424	20.85
346.634	20.77
346.844	20.68
347.054	20.57
347.264	20.38
347.474	20.69
347.684	20.81
347.894	21.02
348.104	21.21
348.314	21.42
348.524	21.88
348.734	21.63
348.944	21.85
349.154	22.33
349.364	22.35
349.574	22.65
349.784	22.59
349.994	22.45
350.204	22.19
350.413	22.25
350.623	22.12
350.833	21.85
351.043	22.24
351.253	21.98
351.463	21.63
351.672	21.49
351.882	21.2
352.092	21.05
352.302	21.06
352.511	21.35
352.721	21.19
352.931	21.06
353.141	21.36
353.35	21.2
353.56	21.18
353.77	20.84
353.979	20.86
354.189	20.57
354.399	20.2
354.608	20.09
354.818	19.76
355.027	19.72
355.237	19.86
355.447	19.58
355.656	19.64
355.866	19.76
356.075	19.97
356.285	19.97
356.494	20.09
356.704	20.34
356.913	20.57
357.123	20.61
357.332	20.7
357.542	20.64
357.751	20.63
357.96	20.52
358.17	20.53
358.379	20.41
358.589	20.44
358.798	20.66
359.007	20.41
359.217	20.2
359.426	20.23
359.635	19.97
359.845	20.09
360.054	19.95
360.263	19.99
360.472	19.65
360.682	19.72
360.891	19.66
361.1	19.6
361.309	19.66
361.519	19.56
361.728	19.51
361.937	19.5
362.146	19.36
362.355	19.36
362.564	19.2
362.774	19.27
362.983	19.2
363.192	19.17
363.401	19.25
363.61	19.26
363.819	19.46
364.028	19.58
364.237	19.43
364.446	19.24
364.655	19.53
364.864	19.72
365.073	19.95
365.282	20.06
365.491	19.95
365.7	19.86
365.909	19.86
366.118	19.84
366.327	19.6
366.536	19.83
366.745	20.12
366.954	19.91
367.162	19.74
367.371	19.76
367.58	19.55
367.789	19.9
367.998	19.77
368.207	19.76
368.415	19.46
368.624	19.58
368.833	19.67
369.042	19.5
369.25	19.62
369.459	19.61
369.668	19.42
369.877	19.51
370.085	19.36
370.294	19.6
370.503	19.47
370.711	19.62
370.92	19.68
371.129	19.63
371.337	19.51
371.546	19.43
371.754	19.45
371.963	19.5
372.171	19.37
372.38	19.4
372.589	19.33
372.797	19.21
373.006	19.55
373.214	19.59
373.423	19.62
373.631	19.91
373.84	19.86
374.048	19.81
374.256	19.62
374.465	19.68
374.673	19.56
374.882	19.46
375.09	19.64
375.298	19.27
375.507	19.24
375.715	19.13
375.923	19.08
376.132	19.15
376.34	19.16
376.548	19.18
376.757	19.38
376.965	19.28
377.173	19.16
377.381	19.17
377.59	19.04
377.798	18.81
378.006	18.79
378.214	18.74
378.423	18.45
378.631	18.66
378.839	18.8
379.047	18.46
379.255	18.6
379.463	18.76
379.671	18.73
379.879	18.97
380.088	19.2
380.296	19.09
380.504	18.82
380.712	18.81
380.92	18.58
381.128	18.51
381.336	18.55
381.544	18.67
381.752	18.33
381.96	18.4
382.168	18.45
382.376	18.38
382.584	18.62
382.791	18.69
382.999	19.05
383.207	19.1
383.415	18.86
383.623	18.9
383.831	18.93
384.039	19.14
384.247	19.19
384.454	19.13
384.662	18.96
384.87	18.96
385.078	19.04
385.285	18.95
385.493	18.85
385.701	18.84
385.909	18.87
386.116	18.81
386.324	18.93
386.532	18.71
386.739	18.55
386.947	18.58
387.155	18.46
387.362	18.54
387.57	18.57
387.778	18.72
387.985	18.98
388.193	19.18
388.4	19.05
388.608	18.97
388.816	19.09
389.023	19.36
389.231	19.26
389.438	19.36
389.646	19.32
389.853	19.13
390.061	18.96
390.268	19.07
390.475	18.85
390.683	18.94
390.89	19.05
391.098	18.92
391.305	18.83
391.512	18.97
391.72	18.81
391.927	18.86
392.135	18.82
392.342	18.77
392.549	18.71
392.756	18.88
392.964	18.84
393.171	18.79
393.378	18.88
393.586	18.87
393.793	19.24
394	19.47
394.207	19.42
394.414	19.58
394.622	19.65
394.829	19.58
395.036	19.38
395.243	19.4
395.45	19.38
395.657	19.4
395.864	19.38
396.072	18.84
396.279	18.62
396.486	18.47
396.693	18.5
396.9	18.57
397.107	18.6
397.314	18.63
397.521	18.42
397.728	18.46
397.935	18.63
398.142	18.52
398.349	18.55
398.556	18.66
398.763	18.73
398.97	18.57
399.177	18.68
399.383	18.67
399.59	18.81
399.797	19.07
400.004	18.91
400.211	18.87
400.418	18.84
400.625	19.09
400.831	19.05
401.038	19.01
401.245	19.13
401.452	19.05
401.658	18.97
401.865	18.92
402.072	18.66
402.279	18.72
402.485	18.48
402.692	18.54
402.899	18.56
403.105	18.73
403.312	18.89
403.519	19.01
403.725	18.94
403.932	19.04
404.138	19.04
404.345	19.16
404.552	19.04
404.758	19.21
404.965	19.3
405.171	19.26
405.378	19.13
405.584	19.14
405.791	19.11
405.997	19.01
406.204	18.93
406.41	18.93
406.617	19
406.823	19.15
407.029	19.22
407.236	19.2
407.442	19.16
407.649	19.4
407.855	19.34
408.061	19.27
408.268	19.36
408.474	19.48
408.68	19.58
408.887	19.51
409.093	19.54
409.299	19.54
409.505	19.59
409.712	19.65
409.918	19.46
410.124	19.4
410.33	19.45
410.537	19.52
410.743	19.46
410.949	19.4
411.155	19.5
411.361	19.51
411.567	19.4
411.773	19.34
411.98	19.14
412.186	19.35
412.392	19.5
412.598	19.44
412.804	19.38
413.01	19.37
413.216	19.31
413.422	19.44
413.628	19.44
413.834	19.55
414.04	19.55
414.246	19.75
414.452	19.59
414.658	19.53
414.864	19.61
415.07	19.68
415.275	19.78
415.481	19.8
415.687	19.73
415.893	19.63
416.099	19.64
416.305	19.68
416.511	19.71
416.716	19.7
416.922	19.8
417.128	19.76
417.334	19.81
417.539	19.83
417.745	19.77
417.951	19.7
418.157	19.65
418.362	19.64
418.568	19.63
418.774	19.62
418.979	19.7
419.185	19.67
419.391	19.66
419.596	19.7
419.802	19.67
420.008	19.81
420.213	19.24
420.419	19.43
420.624	19.45
420.83	19.42
421.035	19.47
421.241	19.37
421.446	19.4
421.652	19.43
421.857	19.41
422.063	19.45
422.268	19.43
422.474	20.07
422.679	20.03
422.885	20
423.09	20.08
423.295	20.05
423.501	20.18
423.706	20.13
423.911	20.13
424.117	20.13
424.322	20.04
424.527	20.01
424.733	19.95
424.938	19.95
425.143	20
425.349	19.98
425.554	19.97
425.759	19.89
425.964	19.92
426.169	19.98
426.375	19.98
426.58	20.02
426.785	20.05
426.99	20.05
427.195	20.07
427.4	20.1
427.605	20.16
427.811	20.19
428.016	20.32
428.221	20.4
428.426	20.41
428.631	20.49
428.836	20.65
429.041	20.68
429.246	20.68
429.451	20.75
429.656	20.73
429.861	20.78
430.066	20.86
430.271	20.65
430.476	20.61
430.681	20.55
430.886	20.58
431.09	20.54
431.295	20.57
431.5	20.67
431.705	20.76
431.91	20.78
432.115	20.84
432.32	20.87
432.524	20.99
432.729	20.97
432.934	20.99
433.139	21.05
433.343	21.03
433.548	21.08
433.753	21.14
433.958	21.06
434.162	21.05
434.367	20.95
434.572	21.04
434.776	21.09
434.981	21.23
435.186	21.33
435.39	21.26
435.595	21.35
435.799	21.25
436.004	21.29
436.209	21.32
436.413	21.36
436.618	21.38
436.822	21.35
437.027	21.45
437.231	21.45
437.436	21.45
437.64	21.52
437.845	21.61
438.049	21.58
438.253	21.58
438.458	21.51
438.662	21.59
438.867	21.7
439.071	21.63
439.275	21.71
439.48	21.65
439.684	21.68
439.888	21.64
440.093	21.57
440.297	21.64
440.501	21.65
440.706	21.82
440.91	21.89
441.114	21.89
441.318	21.85
441.523	21.76
441.727	21.87
441.931	21.9
442.135	21.96
442.339	22
442.543	22.02
442.748	21.96
442.952	21.94
443.156	21.93
443.36	21.94
443.564	22.03
443.768	22.06
443.972	22.09
444.176	21.99
444.38	22.05
444.584	22.11
444.788	22.04
444.992	22.03
445.196	22
445.4	21.91
445.604	21.91
445.808	21.87
446.012	21.88
446.216	21.85
446.42	21.91
446.624	21.87
446.828	21.76
447.032	21.83
447.235	21.89
447.439	21.95
447.643	21.93
447.847	21.9
448.051	21.86
448.254	21.83
448.458	21.75
448.662	21.72
448.866	21.74
449.069	21.88
449.273	21.84
449.477	21.84
449.681	21.7
449.884	21.74
450.088	21.77
450.292	21.95
450.495	21.99
450.699	22.14
450.902	22.24
451.106	22.22
451.31	22.02
451.513	22.12
451.717	22.06
451.92	22.07
452.124	22.05
452.327	22.04
452.531	21.95
452.734	21.87
452.938	21.78
453.141	21.71
453.345	21.84
453.548	21.88
453.752	21.86
453.955	21.8
454.158	21.86
454.362	21.93
454.565	21.96
454.769	21.95
454.972	22.01
455.175	21.99
455.379	22.02
455.582	21.86
455.785	21.95
455.988	21.94
456.192	21.98
456.395	21.94
456.598	21.86
456.801	21.9
457.005	21.91
457.208	21.9
457.411	21.93
457.614	21.94
457.817	21.91
458.021	21.92
458.224	21.94
458.427	21.98
458.63	22.13
458.833	22.19
459.036	22.08
459.239	22.16
459.442	22.26
459.645	22.32
459.848	22.34
460.051	22.36
460.254	22.36
460.457	22.4
460.66	22.4
460.863	22.36
461.066	22.33
461.269	22.42
461.472	22.36
461.675	22.26
461.878	22.2
462.081	22.17
462.284	22.19
462.486	22.15
462.689	22.1
462.892	22.13
463.095	22.01
463.298	22.06
463.5	22.07
463.703	22.14
463.906	22.1
464.109	22.02
464.311	21.95
464.514	21.95
464.717	22.03
464.92	22.04
465.122	22.06
465.325	22.14
465.528	22.04
465.73	22.04
465.933	21.92
466.135	22.08
466.338	22.21
466.541	22.33
466.743	22.41
466.946	22.42
467.148	22.44
467.351	22.35
467.553	22.27
467.756	22.32
467.958	22.19
468.161	22.33
468.363	22.26
468.566	22.28
468.768	22.22
468.971	22.13
469.173	21.99
469.375	22.09
469.578	22.2
469.78	22.32
469.983	22.33
470.185	22.35
470.387	22.23
470.59	22.16
470.792	22.09
470.994	22.08
471.196	22.07
471.399	22.14
471.601	22.02
471.803	21.98
472.005	21.92
472.208	21.95
472.41	22.13
472.612	22.14
472.814	22.22
473.016	22.3
473.218	22.28
473.421	22.31
473.623	22.38
473.825	22.49
474.027	22.47
474.229	22.55
474.431	22.53
474.633	22.45
474.835	22.54
475.037	22.49
475.239	22.41
475.441	22.59
475.643	22.62
475.845	22.61
476.047	22.48
476.249	22.47
476.451	22.52
476.653	22.53
476.855	22.53
477.057	22.53
477.258	22.58
477.46	22.6
477.662	22.46
477.864	22.48
478.066	22.5
478.268	22.57
478.469	22.6
478.671	22.57
478.873	22.53
479.075	22.51
479.276	22.39
479.478	22.32
479.68	22.3
479.882	22.31
480.083	22.4
480.285	22.32
480.487	22.27
480.688	22.21
480.89	22.15
481.091	22.18
481.293	22.3
481.495	22.4
481.696	22.44
481.898	22.44
482.099	22.46
482.301	22.41
482.502	22.47
482.704	22.54
482.905	22.55
483.107	22.55
483.308	22.53
483.51	22.48
483.711	22.45
483.913	22.43
484.114	22.44
484.315	22.43
484.517	22.38
484.718	22.34
484.92	22.32
485.121	22.33
485.322	22.31
485.524	22.32
485.725	22.31
485.926	22.29
486.127	22.29
486.329	22.27
486.53	22.27
486.731	22.32
486.932	22.33
487.134	22.32
487.335	22.35
487.536	22.38
487.737	22.4
487.938	22.4
488.139	22.42
488.341	22.45
488.542	22.46
488.743	22.47
488.944	22.45
489.145	22.48
489.346	22.47
489.547	22.45
489.748	22.46
489.949	22.41
490.15	22.49
490.351	22.51
490.552	22.53
490.753	22.52
490.954	22.52
491.155	22.54
491.356	22.53
491.557	22.52
491.758	22.49
491.959	22.48
492.159	22.55
492.36	22.52
492.561	22.51
492.762	22.49
492.963	22.54
493.164	22.58
493.364	22.61
493.565	22.67
493.766	22.65
493.967	22.72
494.167	22.86
494.368	22.84
494.569	22.8
494.769	22.87
494.97	22.89
495.171	22.85
495.371	22.87
495.572	22.82
495.773	22.76
495.973	22.88
496.174	22.89
496.375	22.79
496.575	22.83
496.776	22.92
496.976	22.9
497.177	22.95
497.377	22.96
497.578	22.97
497.778	22.96
497.979	22.93
498.179	22.86
498.38	22.81
498.58	22.81
498.78	22.7
498.981	22.69
499.181	22.6
499.382	22.56
499.582	22.56
499.782	22.57
499.983	22.58
500.183	22.69
500.383	22.66
500.584	22.78
500.784	22.74
500.984	22.86
501.184	22.91
501.385	23
501.585	23.08
501.785	23.11
501.985	23.12
502.185	23.18
502.386	23.15
502.586	23.27
502.786	23.31
502.986	23.36
503.186	23.3
503.386	23.3
503.586	23.32
503.786	23.22
503.987	23.18
504.187	23.13
504.387	23.2
504.587	23.25
504.787	23.19
504.987	23.24
505.187	23.35
505.387	23.34
505.587	23.4
505.786	23.4
505.986	23.46
506.186	23.6
506.386	23.64
506.586	23.7
506.786	23.71
506.986	23.74
507.186	23.62
507.386	23.61
507.585	23.72
507.785	23.66
507.985	23.71
508.185	23.79
508.384	23.8
508.584	23.89
508.784	23.86
508.984	23.82
509.183	23.87
509.383	23.96
509.583	23.97
509.782	23.89
509.982	23.87
510.182	23.87
510.381	23.85
510.581	23.79
510.781	23.72
510.98	23.79
511.18	23.79
511.379	23.75
511.579	23.75
511.778	23.71
511.978	23.76
512.177	23.85
512.377	23.88
512.576	23.8
512.776	23.88
512.975	23.82
513.175	23.75
513.374	23.79
513.573	23.88
513.773	23.9
513.972	23.89
514.172	23.89
514.371	23.9
514.57	23.89
514.77	24.04
514.969	24.09
515.168	24.23
515.367	24.27
515.567	24.26
515.766	24.21
515.965	24.23
516.164	24.34
516.364	24.46
516.563	24.56
516.762	24.59
516.961	24.6
517.16	24.47
517.359	24.56
517.559	24.53
517.758	24.56
517.957	24.64
518.156	24.66
518.355	24.64
518.554	24.63
518.753	24.6
518.952	24.61
519.151	24.56
519.35	24.7
519.549	24.65
519.748	24.73
519.947	24.82
520.146	24.78
520.345	24.85
520.544	24.97
520.743	24.93
520.942	24.94
521.141	24.95
521.339	25.08
521.538	25.05
521.737	25.04
521.936	25.04
522.135	25.02
522.333	25.12
522.532	25.1
522.731	25.05
522.93	25.11
523.129	25.15
523.327	25.25
523.526	25.18
523.725	25.31
523.923	25.44
524.122	25.39
524.321	25.38
524.519	25.4
524.718	25.41
524.917	25.51
525.115	25.5
525.314	25.49
525.512	25.45
525.711	25.53
525.909	25.44
526.108	25.43
526.306	25.46
526.505	25.57
526.703	25.55
526.902	25.54
527.1	25.48
527.299	25.6
527.497	25.61
527.696	25.62
527.894	25.59
528.092	25.63
528.291	25.64
528.489	25.68
528.688	25.64
528.886	25.62
529.084	25.65
529.283	25.64
529.481	25.6
529.679	25.58
529.877	25.64
530.076	25.67
530.274	25.7
530.472	25.71
530.67	25.71
530.869	25.76
531.067	25.87
531.265	25.9
531.463	26.02
531.661	26.08
531.859	26.19
532.057	26.2
532.255	26.25
532.454	26.3
532.652	26.37
532.85	26.37
533.048	26.38
533.246	26.39
533.444	26.44
533.642	26.43
533.84	26.43
534.038	26.41
534.236	26.44
534.434	26.44
534.632	26.43
534.83	26.48
535.027	26.53
535.225	26.49
535.423	26.51
535.621	26.51
535.819	26.54
536.017	26.5
536.215	26.55
536.412	26.53
536.61	26.61
536.808	26.64
537.006	26.62
537.203	26.68
537.401	26.76
537.599	26.81
537.797	26.83
537.994	26.91
538.192	27
538.39	27.06
538.587	27.13
538.785	27.19
538.983	27.26
539.18	27.4
539.378	27.46
539.575	27.49
539.773	27.5
539.97	27.54
540.168	27.54
540.366	27.57
540.563	27.6
540.761	27.65
540.958	27.63
541.155	27.64
541.353	27.58
541.55	27.61
541.748	27.65
541.945	27.66
542.143	27.67
542.34	27.7
542.537	27.7
542.735	27.7
542.932	27.69
543.129	27.73
543.327	27.77
543.524	27.86
543.721	27.86
543.919	27.91
544.116	28.09
544.313	28.17
544.51	28.25
544.708	28.39
544.905	28.5
545.102	28.62
545.299	28.76
545.496	28.8
545.693	28.81
545.891	28.85
546.088	28.84
546.285	28.68
546.482	28.69
546.679	28.64
546.876	28.65
547.073	28.56
547.27	28.48
547.467	28.35
547.664	28.32
547.861	28.25
548.058	28.23
548.255	28.22
548.452	28.28
548.649	28.24
548.846	28.29
549.043	28.24
549.24	28.28
549.437	28.42
549.633	28.36
549.83	28.44
550.027	28.41
550.224	28.44
550.421	28.44
550.618	28.47
550.814	28.38
551.011	28.34
551.208	28.33
551.405	28.41
551.601	28.24
551.798	28.42
551.995	28.31
552.191	28.4
552.388	28.39
552.585	28.34
552.781	28.38
552.978	28.52
553.175	28.42
553.371	28.52
553.568	28.41
553.764	28.59
553.961	28.58
554.157	28.56
554.354	28.54
554.55	28.5
554.747	28.56
554.943	28.46
555.14	28.33
555.336	28.4
555.533	28.28
555.729	28.38
555.926	28.24
556.122	28.31
556.318	28.23
556.515	28.27
556.711	28.36
556.907	28.34
557.104	28.3
557.3	28.34
557.496	28.39
557.693	28.29
557.889	28.3
558.085	28.38
558.281	28.19
558.478	28.3
558.674	28.3
558.87	28.3
559.066	28.39
559.262	28.47
559.459	28.6
559.655	28.65
559.851	28.7
560.047	28.63
560.243	28.63
560.439	28.81
560.635	28.93
560.831	28.88
561.027	28.86
561.223	28.91
561.419	28.99
561.615	28.93
561.811	28.95
562.007	28.94
562.203	28.93
562.399	28.97
562.595	29.03
562.791	28.93
562.987	29.02
563.183	28.99
563.379	28.95
563.575	28.95
563.771	28.99
563.966	29.03
564.162	29.01
564.358	29.11
564.554	29.09
564.75	28.99
564.945	28.99
565.141	29.08
565.337	29.19
565.533	29.2
565.728	29.27
565.924	29.32
566.12	29.34
566.315	29.44
566.511	29.44
566.707	29.47
566.902	29.34
567.098	29.48
567.293	29.42
567.489	29.36
567.684	29.41
567.88	29.3
568.076	29.35
568.271	29.35
568.467	29.39
568.662	29.5
568.858	29.48
569.053	29.71
569.248	29.69
569.444	29.87
569.639	29.92
569.835	29.92
570.03	29.86
570.225	29.87
570.421	29.88
570.616	29.85
570.812	29.85
571.007	29.84
571.202	29.75
571.397	29.75
571.593	29.51
571.788	29.5
571.983	29.56
572.178	29.69
572.374	29.62
572.569	29.66
572.764	29.6
572.959	29.63
573.154	29.61
573.35	29.73
573.545	29.82
573.74	29.91
573.935	29.91
574.13	29.83
574.325	29.82
574.52	29.81
574.715	29.76
574.91	29.87
575.105	29.85
575.3	30
575.495	29.99
575.69	29.96
575.885	29.94
576.08	30.05
576.275	30.24
576.47	30.34
576.665	30.57
576.86	30.62
577.055	30.71
577.25	30.76
577.444	30.76
577.639	30.79
577.834	30.78
578.029	30.91
578.224	30.82
578.418	30.62
578.613	30.66
578.808	30.57
579.003	30.65
579.197	30.66
579.392	30.54
579.587	30.64
579.781	30.72
579.976	30.83
580.171	30.79
580.365	30.89
580.56	31.03
580.755	30.91
580.949	30.92
581.144	30.88
581.338	30.94
581.533	31.08
581.727	31.1
581.922	31.06
582.116	31.02
582.311	31.04
582.505	31
582.7	31.07
582.894	31.26
583.089	31.29
583.283	31.38
583.478	31.29
583.672	31.34
583.866	31.29
584.061	31.34
584.255	31.37
584.449	31.46
584.644	31.6
584.838	31.59
585.032	31.49
585.226	31.49
585.421	31.39
585.615	31.35
585.809	31.28
586.003	31.31
586.198	31.24
586.392	31.18
586.586	31.27
586.78	31.3
586.974	31.33
587.168	31.41
587.363	31.41
587.557	31.59
587.751	31.77
587.945	31.72
588.139	31.71
588.333	31.72
588.527	31.78
588.721	31.63
588.915	31.53
589.109	31.55
589.303	31.53
589.497	31.5
589.691	31.44
589.885	31.38
590.079	31.56
590.273	31.58
590.466	31.75
590.66	31.96
590.854	32.02
591.048	31.98
591.242	32
591.436	32.05
591.629	32.18
591.823	32.2
592.017	32.23
592.211	32.26
592.404	32.35
592.598	32.27
592.792	32.19
592.986	32.29
593.179	32.37
593.373	32.35
593.567	32.29
593.76	32.11
593.954	32.25
594.147	32.12
594.341	32.04
594.535	32.05
594.728	32.03
594.922	32.05
595.115	31.97
595.309	32.02
595.502	32.18
595.696	32.18
595.889	32.32
596.083	32.23
596.276	32.26
596.47	32.28
596.663	32.29
596.856	32.24
597.05	32.27
597.243	32.33
597.437	32.35
597.63	32.28
597.823	32.3
598.017	32.34
598.21	32.23
598.403	32.35
598.596	32.3
598.79	32.39
598.983	32.59
599.176	32.56
599.369	32.62
599.563	32.72
599.756	32.87
599.949	33.1
600.142	33.12
600.335	33.37
600.528	33.41
600.722	33.56
600.915	33.37
601.108	33.35
601.301	33.46
601.494	33.49
601.687	33.44
601.88	33.36
602.073	33.21
602.266	33.28
602.459	33.19
602.652	33.26
602.845	33.21
603.038	33.29
603.231	33.17
603.424	33.22
603.617	33.14
603.809	33.18
604.002	33.13
604.195	33.28
604.388	33.3
604.581	33.37
604.774	33.39
604.966	33.46
605.159	33.52
605.352	33.67
605.545	33.42
605.737	33.43
605.93	33.4
606.123	33.49
606.316	33.38
606.508	33.27
606.701	33.25
606.894	33.33
607.086	33.41
607.279	33.57
607.471	33.56
607.664	33.79
607.857	33.99
608.049	34.08
608.242	34.25
608.434	34.59
608.627	34.9
608.819	35.3
609.012	35.68
609.204	36.1
609.397	36.52
609.589	37.17
609.782	37.66
609.974	38.29
610.166	38.93
610.359	39.61
610.551	40.13
610.743	40.79
610.936	41.14
611.128	41.42
611.32	41.68
611.513	41.81
611.705	41.69
611.897	41.87
612.09	41.78
612.282	41.54
612.474	41.15
612.666	40.72
612.858	40.29
613.051	40.02
613.243	39.73
613.435	39.55
613.627	39.23
613.819	39.18
614.011	38.74
614.203	38.53
614.395	38.46
614.588	38.25
614.78	37.97
614.972	37.69
615.164	37.39
615.356	37.1
615.548	36.84
615.74	36.75
615.932	36.23
616.124	36.19
616.315	35.82
616.507	35.68
616.699	35.59
616.891	35.64
617.083	35.55
617.275	35.71
617.467	35.69
617.659	35.45
617.85	35.29
618.042	35.44
618.234	35.52
618.426	35.54
618.618	35.44
618.809	35.41
619.001	35.35
619.193	35.39
619.384	35.07
619.576	35
619.768	35.06
619.959	35.1
620.151	35.25
620.343	35.17
620.534	35.19
620.726	35.29
620.917	35.41
621.109	35.53
621.301	35.6
621.492	35.78
621.684	35.87
621.875	35.99
622.067	35.78
622.258	35.79
622.45	35.65
622.641	35.77
622.832	35.65
623.024	35.55
623.215	35.52
623.407	35.48
623.598	35.48
623.789	35.59
623.981	35.68
624.172	36.09
624.363	36
624.555	36.12
624.746	36.24
624.937	36.37
625.129	36.44
625.32	36.45
625.511	36.46
625.702	36.47
625.893	36.41
626.085	36.43
626.276	36.36
626.467	36.39
626.658	36.5
626.849	36.36
627.04	36.4
627.231	36.44
627.422	36.49
627.614	36.51
627.805	36.56
627.996	36.61
628.187	36.55
628.378	36.54
628.569	36.66
628.76	36.76
628.951	37.01
629.142	37.12
629.332	37.06
629.523	37.21
629.714	37.33
629.905	37.54
630.096	37.71
630.287	37.79
630.478	37.84
630.669	37.74
630.859	37.65
631.05	37.4
631.241	37.26
631.432	37.48
631.623	37.34
631.813	37.22
632.004	37.02
632.195	36.87
632.385	36.87
632.576	36.81
632.767	36.7
632.957	36.73
633.148	36.78
633.339	36.75
633.529	36.48
633.72	36.42
633.91	36.38
634.101	36.11
634.292	35.98
634.482	35.87
634.673	35.74
634.863	35.73
635.054	35.62
635.244	35.66
635.435	35.73
635.625	35.7
635.815	35.81
636.006	35.81
636.196	35.98
636.387	36.06
636.577	35.99
636.767	36.13
636.958	36.15
637.148	35.96
637.338	36
637.529	35.87
637.719	36.18
637.909	36.02
638.099	36.02
638.29	36.01
638.48	36.09
638.67	36.08
638.86	36.08
639.05	36.17
639.241	36.45
639.431	36.4
639.621	36.4
639.811	35.97
640.001	35.91
640.191	35.97
640.381	36.18
640.571	36.22
640.761	36.29
640.951	36.24
641.141	36.32
641.331	36.22
641.521	36.19
641.711	36.37
641.901	36.63
642.091	36.94
642.281	37.01
642.471	36.85
642.661	36.71
642.851	36.67
643.041	36.73
643.231	36.75
643.42	36.74
643.61	36.67
643.8	36.65
643.99	36.71
644.18	36.44
644.369	36.38
644.559	36.59
644.749	36.8
644.939	37.07
645.128	37
645.318	36.94
645.508	36.98
645.697	37.19
645.887	36.86
646.076	36.79
646.266	37.15
646.456	37.22
646.645	37.23
646.835	37.2
647.024	37.01
647.214	37.08
647.403	37.24
647.593	37.19
647.782	37.14
647.972	37.36
648.161	37.27
648.351	37.29
648.54	37.23
648.73	37.22
648.919	37.28
649.108	37.48
649.298	37.41
649.487	37.45
649.677	37.58
649.866	37.65
650.055	37.61
650.244	37.84
650.434	37.83
650.623	37.94
650.812	38
651.002	37.99
651.191	37.99
651.38	37.98
651.569	37.84
651.758	37.91
651.947	37.67
652.137	37.89
652.326	37.71
652.515	37.59
652.704	37.73
652.893	37.7
653.082	37.69
653.271	37.73
653.46	37.92
653.649	37.85
653.838	37.89
654.027	38.04
654.216	37.92
654.405	38.11
654.594	38.09
654.783	37.8
654.972	37.79
655.161	37.92
655.35	37.68
655.539	37.54
655.728	37.7
655.916	37.54
656.105	37.58
656.294	37.65
656.483	37.73
656.672	37.79
656.86	38.02
657.049	37.88
657.238	37.71
657.427	37.7
657.615	37.68
657.804	37.63
657.993	37.76
658.181	37.67
658.37	37.6
658.559	37.55
658.747	37.51
658.936	37.45
659.125	37.73
659.313	37.69
659.502	37.65
659.69	37.73
659.879	37.77
660.067	37.74
660.256	37.71
660.444	37.7
660.633	37.57
660.821	37.57
661.01	37.64
661.198	37.47
661.387	37.61
661.575	37.8
661.763	37.95
661.952	38.02
662.14	38.17
662.328	38.51
662.517	38.75
662.705	38.92
662.893	39.17
663.082	39.16
663.27	39.28
663.458	39.13
663.646	39.14
663.834	39.06
664.023	39.03
664.211	39.15
664.399	39
664.587	39.01
664.775	38.98
664.963	38.84
665.152	38.91
665.34	39.03
665.528	39.12
665.716	39.01
665.904	39.09
666.092	39.22
666.28	39.19
666.468	39.42
666.656	39.19
666.844	39.18
667.032	39.07
667.22	38.95
667.408	38.75
667.596	38.68
667.784	38.8
667.971	38.43
668.159	38.19
668.347	38.06
668.535	37.68
668.723	37.72
668.911	37.67
669.098	37.77
669.286	38.02
669.474	38.02
669.662	38.15
669.849	38.13
670.037	38.36
670.225	38.58
670.413	38.6
670.6	38.92
670.788	39.06
670.976	39.29
671.163	39.44
671.351	39.16
671.538	39.23
671.726	39.12
671.913	39.28
672.101	39.5
672.289	39.51
672.476	39.58
672.664	39.45
672.851	39.32
673.039	39.2
673.226	39.02
673.413	39.06
673.601	39.05
673.788	39.4
673.976	39.53
674.163	39.33
674.35	39.37
674.538	39.16
674.725	39.3
674.912	39.15
675.1	39.07
675.287	39.26
675.474	39.22
675.662	39.32
675.849	39.19
676.036	39.03
676.223	39.25
676.411	39.19
676.598	39.14
676.785	38.93
676.972	39.16
677.159	39.29
677.346	39.29
677.533	39.57
677.721	39.32
677.908	39.49
678.095	39.35
678.282	39.31
678.469	39.44
678.656	39.58
678.843	39.81
679.03	39.63
679.217	39.63
679.404	39.41
679.591	39.39
679.778	39.46
679.964	39.29
680.151	39.45
680.338	39.56
680.525	39.36
680.712	39.39
680.899	39.32
681.086	39.42
681.272	39.29
681.459	39.43
681.646	39.22
681.833	39.34
682.02	39.38
682.206	39.38
682.393	39.07
682.58	39.26
682.766	39.2
682.953	39.4
683.14	39.42
683.326	39.63
683.513	39.62
683.7	39.99
683.886	39.89
684.073	39.69
684.259	39.56
684.446	39.91
684.632	39.86
684.819	39.91
685.005	39.82
685.192	39.91
685.378	40.1
685.565	40.03
685.751	40.1
685.938	40.26
686.124	40.29
686.31	40.05
686.497	40.15
686.683	40.23
686.87	40.31
687.056	40.22
687.242	40.28
687.429	40.23
687.615	40.29
687.801	40.01
687.987	40.09
688.174	40.39
688.36	40.86
688.546	40.69
688.732	40.67
688.918	40.72
689.105	40.71
689.291	40.61
689.477	40.7
689.663	40.71
689.849	40.85
690.035	40.6
690.221	40.32
690.407	40.1
690.593	39.99
690.779	39.8
690.965	39.83
691.151	39.88
691.337	40.11
691.523	40.21
691.709	40.59
691.895	40.45
692.081	40.6
692.267	40.93
692.453	41.17
692.639	41.41
692.825	41.21
693.011	41.08
693.196	41.03
693.382	40.87
693.568	40.66
693.754	40.39
693.94	40.43
694.125	40.28
694.311	39.96
694.497	39.81
694.682	39.46
694.868	39.91
695.054	39.98
695.239	40.09
695.425	40.18
695.611	39.98
695.796	39.65
695.982	39.5
696.168	39.88
696.353	40.04
696.539	39.98
696.724	40.18
696.91	40.03
697.095	39.96
697.281	40
697.466	39.98
697.652	40.22
697.837	40.62
698.023	40.69
698.208	40.46
698.393	40.46
698.579	40.37
698.764	40.37
698.949	40.49
699.135	40.51
699.32	40.5
699.505	40.32
699.691	40.17
699.876	39.83
700.061	39.51
700.246	39.6
700.432	39.4
700.617	39.39
700.802	39.05
700.987	38.9
701.172	38.47
701.358	38.33
701.543	38.39
701.728	38.53
701.913	38.59
702.098	38.85
702.283	38.92
702.468	38.97
702.653	39.15
702.838	39.47
703.023	39.45
703.208	39.69
703.393	39.58
703.578	39.75
703.763	39.76
703.948	40.02
704.133	40.42
704.318	40.34
704.503	40.86
704.688	41.09
704.873	41.48
705.057	41.67
705.242	42.62
705.427	42.92
705.612	43.38
705.797	43.29
705.981	43.06
706.166	42.88
706.351	43.14
706.536	43.14
706.72	43.15
706.905	42.96
707.09	43.34
707.274	43.16
707.459	43.23
707.644	43.14
707.828	43.15
708.013	43.14
708.197	43.79
708.382	43.55
708.567	43.72
708.751	43.8
708.936	44.01
709.12	43.51
709.305	43.22
709.489	43.46
709.673	43.34
709.858	43.23
710.042	43.35
710.227	42.85
710.411	42.69
710.596	42.32
710.78	42.28
710.964	42.13
711.149	42.07
711.333	42.19
711.517	41.96
711.702	42.2
711.886	42.23
712.07	42.15
712.254	42.13
712.438	42.06
712.623	41.78
712.807	41.76
712.991	41.51
713.175	41.49
713.359	41.38
713.544	41.37
713.728	41.05
713.912	41.05
714.096	40.84
714.28	40.63
714.464	40.61
714.648	40.91
714.832	40.57
715.016	40.43
715.2	40.48
715.384	40.23
715.568	39.87
715.752	39.62
715.936	39.64
716.12	39.9
716.304	39.87
716.488	40.05
716.671	39.79
716.855	39.63
717.039	39.82
717.223	39.86
717.407	39.98
717.59	39.52
717.774	39.53
717.958	39.5
718.142	39.17
718.325	39.2
718.509	39.15
718.693	39.16
718.877	39.07
719.06	38.96
719.244	39
719.428	39.01
719.611	39.97
719.795	40.4
719.978	39.95
720.162	40.31
720.345	40.54
720.529	40.22
720.713	40.36
720.896	40.53
721.08	40.57
721.263	40.24
721.446	40.84
721.63	40.42
721.813	39.8
721.997	39.79
722.18	39.69
722.364	39.88
722.547	40.21
722.73	40.16
722.914	40.03
723.097	40
723.28	39.98
723.464	39.54
723.647	39.26
723.83	39.44
724.013	39.74
724.197	40.25
724.38	39.61
724.563	39.36
724.746	39.5
724.929	39.7
725.112	39.5
725.296	40.04
725.479	39.88
725.662	40.31
725.845	40.26
726.028	40.12
726.211	39.61
726.394	39.94
726.577	40.43
726.76	40.1
726.943	40.2
727.126	40.72
727.309	40.41
727.492	40.44
727.675	40.4
727.858	40.39
728.041	40.66
728.224	40.6
728.407	40.8
728.589	40.76
728.772	40.95
728.955	40.94
729.138	40.63
729.321	40.62
729.503	40.39
729.686	40.78
729.869	41.21
730.052	41.48
730.234	41.48
730.417	41.34
730.6	41.11
730.782	41.51
730.965	41.65
731.148	41.59
731.33	41.41
731.513	41.56
731.695	41.1
731.878	40.86
732.061	40.19
732.243	40.21
732.426	40.55
732.608	40.38
732.791	39.91
732.973	39.83
733.156	40.15
733.338	40.28
733.52	40.16
733.703	40.17
733.885	40.21
734.068	40.76
734.25	40.61
734.432	40.19
734.615	40.41
734.797	40.45
734.979	40.19
735.162	39.67
735.344	39.68
735.526	39.36
735.708	39.53
735.891	39.37
736.073	38.96
736.255	38.75
736.437	38.73
736.619	39.29
736.802	39.44
736.984	39.89
737.166	40.05
737.348	40.51
737.53	41.25
737.712	41.06
737.894	41.2
738.076	41.17
738.258	41.41
738.44	41.44
738.622	40.77
738.804	41.08
738.986	40.81
739.168	40.96
739.35	40.76
739.532	40.99
739.714	40.66
739.896	40.48
740.078	40.77
740.259	40.67
740.441	40.81
740.623	41.17
740.805	40.97
740.987	40.92
741.168	40.88
741.35	40.8
741.532	40.44
741.714	40.75
741.895	40.95
742.077	40.93
742.259	41.38
742.44	40.86
742.622	40.51
742.804	39.94
742.985	40.04
743.167	39.67
743.348	39.33
743.53	39.11
743.711	39.5
743.893	39.83
744.075	39.78
744.256	39.74
744.438	40.1
744.619	39.89
744.8	40.33
744.982	40.3
745.163	40.46
745.345	40.68
745.526	40.8
745.707	40.8
745.889	40.99
746.07	40.77
746.252	40.94
746.433	41.19
746.614	40.87
746.795	41.07
746.977	40.96
747.158	41.03
747.339	41.29
747.52	40.78
747.702	40.53
747.883	40.06
748.064	40.22
748.245	40.1
748.426	40.21
748.607	41.31
748.788	40.94
748.97	41.11
749.151	41.79
749.332	41.55
749.513	41.62
749.694	41.58
749.875	41.32
750.056	40.8
750.237	40.87
750.418	40.81
750.599	40.21
750.78	40.5
750.96	40.75
751.141	39.41
751.322	39.59
751.503	39.49
751.684	39.77
751.865	39.32
752.046	39.31
752.226	39.73
752.407	39.52
752.588	39.6
752.769	39.5
752.949	39.38
753.13	40.03
753.311	39.93
753.492	40.57
753.672	39.68
753.853	40.59
754.034	40.65
754.214	40.24
754.395	40.31
754.575	40.63
754.756	40.11
754.937	39.81
755.117	41.24
755.298	41.17
755.478	40.7
755.659	41.19
755.839	41.03
756.02	41.71
756.2	42.03
756.381	41.85
756.561	41.4
756.741	41.78
756.922	42.52
757.102	40.86
757.283	41.06
757.463	40.79
757.643	40.95
757.823	40.64
758.004	40.95
758.184	40.11
758.364	40.57
758.545	40.9
758.725	41.29
758.905	41.07
759.085	41.75
759.265	40.81
759.446	41.66
759.626	41.89
759.806	42.08
759.986	42.14
760.166	41.46
760.346	41.27
760.526	40.51
760.706	39.7
760.886	38.93
761.066	38.92
761.246	39.39
761.426	39.07
761.606	38.71
761.786	38.84
761.966	38.12
762.146	39.09
762.326	38.64
762.506	38.74
762.686	39.09
762.866	39.24
763.046	39.36
763.225	39.54
763.405	39.59
763.585	39.86
763.765	39.64
763.945	39.63
764.124	39.49
764.304	39.37
764.484	39.62
764.664	39.59
764.843	39.82
765.023	39.35
765.203	39.03
765.382	38.68
765.562	38.18
765.741	38.08
765.921	38.21
766.101	38.38
766.28	38.71
766.46	38.34
766.639	38.24
766.819	38.1
766.998	38.19
767.178	38.17
767.357	38.74
767.537	38.69
767.716	38.29
767.896	38.23
768.075	37.98
768.254	38.31
768.434	38.64
768.613	38.73
768.792	39.22
768.972	38.87
769.151	39.4
769.33	39.38
769.51	39.82
769.689	40.53
769.868	40.85
770.047	40.96
770.226	41.01
770.406	41.24
770.585	41.37
770.764	41.01
770.943	42.01
771.122	42.5
771.301	42.45
771.48	42.16
771.66	42.05
771.839	41.76
772.018	41.28
772.197	40.89
772.376	40.74
772.555	40.96
772.734	41.25
772.913	40.46
773.092	39.52
773.271	38.66
773.449	38.54
773.628	38.77
773.807	38.82
773.986	39.1
774.165	38.96
774.344	39.43
774.523	39.11
774.701	38.82
774.88	39.59
775.059	40.42
775.238	40.73
775.417	41.53
775.595	41.24
775.774	41.51
775.953	40.64
776.131	40.28
776.31	40.07
776.489	40.13
776.667	39.8
776.846	39.65
777.025	39.28
777.203	39.75
777.382	39.4
777.56	38.93
777.739	39.08
777.917	38.95
778.096	38.82
778.274	37.54
778.453	37.16
778.631	37.14
778.81	35.87
778.988	35.75
779.166	35.87
779.345	36.28
779.523	37.26
779.702	37.21
779.88	38.6
780.058	39.28
780.237	40.16
780.415	40.39
780.593	39.47
780.771	40.39
780.95	40.17
781.128	39.91
781.306	39.02
781.484	37.87
781.662	37.76
781.841	37.31
782.019	37.18
782.197	38.06
782.375	37.81
782.553	39.33
782.731	39.2
782.909	39.1
783.087	38.4
783.265	39.46
783.443	40.12
783.621	39.35
783.799	39.56
783.977	39.23
784.155	38.71
784.333	38.52
784.511	38.04
784.689	37.96
784.867	37.8
785.045	38.88
785.223	39.2
785.4	39.27
785.578	40.07
785.756	39.8
785.934	40.82
786.112	40.01
786.289	40.15
786.467	40.13
786.645	39.45
786.823	40.07
787	38.99
787.178	37.25
787.356	37.6
787.533	37.1
787.711	37.68
787.889	35.9
788.066	37.15
788.244	37.06
788.421	37.6
788.599	38.33
788.776	37.67
788.954	37.9
789.131	38.66
789.309	37.64
789.486	36.89
789.664	36.52
789.841	37.44
790.019	36.04
790.196	35.44
790.373	35.07
790.551	35.24
790.728	35.03
790.906	34.95
791.083	34
791.26	34.67
791.437	35.36
791.615	34.06
791.792	34.54
791.969	35.29
792.146	37.36
792.324	38.83
792.501	39.24
792.678	40.17
792.855	40.75
793.032	41.96
793.209	41.59
793.387	41.91
793.564	43.6
793.741	43.9
793.918	43.58
794.095	42.65
794.272	40.48
794.449	40.11
794.626	39.26
794.803	38.76
794.98	38.89
795.157	38.35
795.334	38.24
795.511	37.73
795.688	36.26
795.864	36.25
796.041	36.11
796.218	36.81
796.395	35.97
796.572	36.14
796.749	36.77
796.925	35.92
797.102	36.21
797.279	36.44
797.456	35.81
797.632	36.87
797.809	36.5
797.986	37.01
798.162	36.93
798.339	37.79
798.516	38.47
798.692	38.2
798.869	38.93
799.046	39.72
799.222	40.93
799.399	41.15
799.575	40.8
799.752	41.37
799.928	39.54
800.105	39.36
800.281	38.91
800.458	38.78
800.634	38.83
800.811	37.71
800.987	37.65
801.163	36.42
801.34	36.77
801.516	36.21
801.692	35.19
801.869	36.67
802.045	37.19
802.221	38.22
802.398	37.48
802.574	36.75
802.75	37.62
802.926	37.78
803.103	37.93
803.279	38.03
803.455	37.53
803.631	37.9
803.807	38.63
803.983	38.75
804.16	36.95
804.336	36.62
804.512	36.53
804.688	38.09
804.864	37.44
805.04	35.88
805.216	35.5
805.392	36.49
805.568	37.53
805.744	36.16
805.92	34.39
806.096	34.94
806.272	36.59
806.448	37.37
806.623	36.49
806.799	35.95
806.975	36.48
807.151	36.77
807.327	36.57
807.503	35.99
807.678	36.94
807.854	37.43
808.03	36.71
808.206	36.31
808.381	35.81
808.557	33.84
808.733	34.74
808.908	34.58
809.084	35.21
809.26	35.28
809.435	35.84
809.611	36.1
809.787	35.82
809.962	35.79
810.138	35.92
810.313	35.98
810.489	36.91
810.664	36.97
810.84	38.94
811.015	38.58
811.191	39.48
811.366	39.7
811.542	37.16
811.717	37.28
811.892	38.48
812.068	37.51
812.243	36.82
812.419	38.4
812.594	38.86
812.769	37.56
812.944	37.4
813.12	35.48
813.295	33.74
813.47	34.98
813.645	34.85
813.821	34.63
813.996	34.41
814.171	34.49
814.346	32.25
814.521	30.29
814.697	29.3
814.872	30.12
815.047	32.21
815.222	33.15
815.397	32.37
815.572	32.41
815.747	31.94
815.922	32.98
816.097	33.22
816.272	33.53
816.447	34.62
816.622	35.25
816.797	34.07
816.972	32.79
817.147	31.79
817.322	33.18
817.496	33.57
817.671	34.01
817.846	32.72
818.021	33.93
818.196	34.72
818.371	35.65
818.545	35.95
818.72	36.88
818.895	36.83
819.069	37.59
819.244	35.85
819.419	35.95
819.594	35.39
819.768	35.98
819.943	35.78
820.117	35.26
820.292	34.87
820.467	34.96
820.641	34.06
820.816	34.06
820.99	34.22
821.165	35.15
821.339	35.28
821.514	35.49
821.688	35.28
821.863	35.03
822.037	35.06
822.212	34.88
822.386	34.8
822.56	35.03
822.735	35.19
822.909	35.11
823.084	34.84
823.258	34.57
823.432	34.56
823.606	34.66
823.781	34.88
823.955	35.03
824.129	35.08
824.303	35.05
824.478	35
824.652	35.03
824.826	35.14
825	35.44
825.174	35.83
825.348	35.6
825.523	35.4
825.697	34.59
825.871	34.33
826.045	34.22
826.219	34.53
826.393	34.52
826.567	34.14
826.741	34.01
826.915	33.98
827.089	33.91
827.263	34.17
827.437	34.47
827.611	34.93
827.784	34.86
827.958	34.96
828.132	34.65
828.306	34.59
828.48	35.32
828.654	35.56
828.827	35.79
829.001	35.67
829.175	35.34
829.349	34.98
829.522	34.91
829.696	35.31
829.87	35.15
830.044	34.84
830.217	34.87
830.391	33.91
830.565	33.17
830.738	33.27
830.912	33.33
831.085	33.05
831.259	33.27
831.432	32.9
831.606	32.8
831.779	32.62
831.953	33.2
832.126	32.89
832.3	32.24
832.473	32.59
832.647	30.9
832.82	31.57
832.994	32.24
833.167	31.89
833.34	31.94
833.514	31.71
833.687	31.94
833.86	32
834.034	32
834.207	31.91
834.38	31.64
834.553	31.78
834.727	31.55
834.9	31.88
835.073	32.14
835.246	32.83
835.419	33.07
835.593	32.99
835.766	32.44
835.939	33.25
836.112	33.94
836.285	33.95
836.458	35.28
836.631	35.65
836.804	34.87
836.977	35.6
837.15	34.9
837.323	33.97
837.496	34.77
837.669	34.76
837.842	32.8
838.015	31.36
838.188	32.93
838.361	31.75
838.533	30.58
838.706	30.67
838.879	31.24
839.052	32.33
839.225	32.94
839.398	31.09
839.57	33.27
839.743	34.61
839.916	36.07
840.088	34.96
840.261	34.97
840.434	34.93
840.607	34.87
840.779	34.68
840.952	33.21
841.124	33.39
841.297	33.97
841.47	33.34
841.642	32.71
841.815	33.23
841.987	33.54
842.16	34.05
842.332	35.56
842.505	34.25
842.677	32.55
842.85	32.83
843.022	31.64
843.194	33.98
843.367	33.4
843.539	32.81
843.712	29.97
843.884	30.13
844.056	28.14
844.229	27.59
844.401	30.37
844.573	31.19
844.745	34.05
844.918	35.58
845.09	32.01
845.262	34.08
845.434	34.26
845.606	40.04
845.779	41.03
845.951	46.21
846.123	44.91
846.295	41.26
846.467	37.29
846.639	34.63
846.811	33.97
846.983	34.25
847.155	32.69
847.327	36.61
847.499	31.53
847.671	32.02
847.843	27.09
848.015	28.55
848.187	34.94
848.359	41.34
848.531	40.03
848.703	43.16
848.875	44.37
849.047	43.77
849.218	39.2
849.39	40.47
849.562	38.85
849.734	38.88
849.905	38.43
850.077	37.82
850.249	36.66
850.421	41.21
850.592	39.5
850.764	39.62
850.936	39.7
851.107	41.19
851.279	40.42
851.451	42.78
851.622	43.79
851.794	43.04
851.965	38.4
852.137	36.74
852.308	33.85
852.48	35.33
852.651	35.29
852.823	36.5
852.994	36.27
853.166	37.73
853.337	37.57
853.509	34.9
853.68	34.82
853.851	38.99
854.023	41.97
854.194	41.95
854.365	39.09
854.537	38.68
854.708	37.85
854.879	40.3
855.05	37.52
855.222	36.6
855.393	38.04
855.564	38.27
855.735	34.36
855.906	34.29
856.078	34.09
856.249	30.03
856.42	32.83
856.591	32.51
856.762	29.26
856.933	33.45
857.104	33.91
857.275	38.14
857.446	36.67
857.617	40.56
857.788	39.9
857.959	37.88
858.13	40.16
858.301	33.84
858.472	30.35
858.643	28.74
858.814	27.37
858.985	27.18
859.155	21.53
859.326	24.31
859.497	21.8
859.668	20.26
859.839	23.85
860.009	26.2
860.18	30.42
860.351	31.02
860.522	35.22
860.692	32.95
860.863	30.87
861.034	35.81
861.204	28.76
861.375	29.3
861.546	27.71
861.716	24.33
861.887	21.43
862.057	21.73
862.228	20.9
862.398	19.86
862.569	22.87
862.739	25.52
862.91	21.7
863.08	25.54
863.251	23.89
863.421	28.35
863.592	28.95
863.762	33.44
863.932	31.34
864.103	37.09
864.273	35.71
864.443	33.51
864.614	32.67
864.784	34.66
864.954	35.65
865.125	39.25
865.295	36.82
865.465	35.91
865.635	35.88
865.805	36.35
865.976	36.74
866.146	36.67
866.316	38.47
866.486	38.62
866.656	39.25
866.826	38.78
866.996	39.07
867.166	37.8
867.336	35.68
867.506	34.03
867.676	35.17
867.846	32.53
868.016	28.32
868.186	28.08
868.356	26.9
868.526	23.31
868.696	25.11
868.866	23.17
869.036	22.7
869.206	27.18
869.376	27.61
869.545	27.82
869.715	28.21
869.885	32.23
870.055	30.37
870.224	28.75
870.394	31.47
870.564	33.15
870.734	31.23
870.903	29.4
871.073	27.04
871.243	26.37
871.412	28.19
871.582	30.42
871.751	32.71
871.921	34.68
872.091	39.7
872.26	38.55
872.43	36.17
872.599	41.64
872.769	46.11
872.938	51.33
873.108	50.1
873.277	52.29
873.446	48.72
873.616	46.46
873.785	48.23
873.955	44.24
874.124	39.39
874.293	37.65
874.463	32.76
874.632	33.78
874.801	30.7
874.971	33.85
875.14	31.52
875.309	34.86
875.478	35.83
875.647	31.95
875.817	34.98
875.986	38.96
876.155	40.25
876.324	40.54
876.493	37.64
876.662	36.86
876.831	33.13
877	31.3
877.17	28.4
877.339	25.83
877.508	27.19
877.677	28.05
877.846	29.94
878.015	29.41
878.184	31.24
878.352	32.99
878.521	33.02
878.69	34.7
878.859	38.3
879.028	37.5
879.197	37.42
879.366	38.24
879.534	39.57
879.703	38.33
879.872	38.39
880.041	35.55
880.21	35.77
880.378	35.28
880.547	34.23
880.716	32.34
880.884	32.83
881.053	31.81
881.222	31.22
881.39	30.13
881.559	30.01
881.727	29.62
881.896	29.36
882.065	29.21
882.233	29.07
882.402	29.31
882.57	29.56
882.739	28.86
882.907	28.97
883.076	28.97
883.244	29.12
883.412	29.13
883.581	29.45
883.749	29.85
883.918	29.05
884.086	29.29
884.254	29.23
884.423	28.58
884.591	29.1
884.759	29.07
884.927	27.84
885.096	27.28
885.264	26.85
885.432	26.51
885.6	27.74
885.769	27.84
885.937	28.31
886.105	28.82
886.273	27.53
886.441	27.82
886.609	26.9
886.777	29.78
886.945	30.57
887.113	30.2
887.281	26.79
887.449	27.59
887.617	28.6
887.785	25.35
887.953	25.71
888.121	28.43
888.289	24.13
888.457	29.65
888.625	30.22
888.793	29.78
888.961	27.87
889.129	32.65
889.296	27.39
889.464	28.48
889.632	31.36
889.8	27.89
889.967	26.2
890.135	32.41
