Data from 2938739__Reflection_03.txt Node
Date: Sun Mar 15 12:38:45 EDT 2015
User: robert
Spectrometer: USB4E03002
Autoset integration time: false
Trigger mode: 4
Integration Time (sec): 1.000000E-1
Scans to average: 10
Electric dark correction enabled: false
Nonlinearity correction enabled: false
Boxcar width: 5
Stray light correction enabled: false
XAxis mode: Wavelengths
Stop averaging: false
Number of Pixels in Spectrum: 3648
>>>>>Begin Spectral Data<<<<<
177.575	-30.1
177.794	-169.78
178.014	-321.25
178.233	-810.42
178.452	707.04
178.672	315.43
178.891	192.88
179.11	123.55
179.33	105.48
179.549	94.8
179.768	98.59
179.987	106.43
180.207	102.07
180.426	131.69
180.645	128.24
180.864	120.99
181.084	145.41
181.303	126.96
181.522	130.42
181.741	116.54
181.96	150.08
182.179	153.38
182.398	170.61
182.618	209.15
182.837	173.99
183.056	146.59
183.275	143.7
183.494	119.9
183.713	120.99
183.932	120.55
184.151	128.21
184.37	122.83
184.589	111.29
184.808	100.36
185.027	76.99
185.246	64.45
185.465	55.86
185.684	54.06
185.903	60.36
186.122	60.58
186.341	56.81
186.56	48.21
186.779	49.86
186.998	54.11
187.216	62.3
187.435	64.21
187.654	66.77
187.873	88.23
188.092	94.72
188.311	98.62
188.53	85.48
188.748	76.37
188.967	77.95
189.186	73.74
189.405	64.19
189.623	69.84
189.842	76.44
190.061	63.44
190.28	64.58
190.498	63.66
190.717	53.47
190.936	57.25
191.154	55.05
191.373	55.86
191.592	53.72
191.81	59.86
192.029	53.74
192.248	51.47
192.466	59.19
192.685	52.66
192.904	48.16
193.122	52.75
193.341	57.73
193.559	70.36
193.778	73.65
193.996	90.69
194.215	89.79
194.433	91.1
194.652	86.73
194.87	93.42
195.089	96.37
195.307	99.33
195.526	95.82
195.744	85.88
195.963	76.53
196.181	75.41
196.399	65.7
196.618	70.14
196.836	56.88
197.055	57.37
197.273	62.88
197.491	59.49
197.71	51.47
197.928	61.53
198.146	64.44
198.365	64.54
198.583	64.75
198.801	68.31
199.019	71.27
199.238	78.03
199.456	90.06
199.674	67.37
199.892	69.1
200.111	73.83
200.329	73.14
200.547	76.71
200.765	82.48
200.983	92.65
201.202	97.06
201.42	87.15
201.638	85.56
201.856	92.53
202.074	101.73
202.292	107.87
202.51	110.89
202.728	102.61
202.946	103.42
203.165	105.59
203.383	84.44
203.601	81.97
203.819	82.16
204.037	91.84
204.255	78.73
204.473	89.21
204.691	91.06
204.909	82.42
205.127	94.46
205.345	91.51
205.562	85.16
205.78	98.94
205.998	92.19
206.216	90.69
206.434	92.33
206.652	98.86
206.87	90.06
207.088	86.07
207.306	96.11
207.523	83.6
207.741	83.14
207.959	81.16
208.177	81.2
208.395	85.25
208.612	88.14
208.83	96.71
209.048	91.92
209.266	89.55
209.483	91.15
209.701	85.34
209.919	101.39
210.136	103.81
210.354	96.76
210.572	89.23
210.79	91.33
211.007	94.55
211.225	90.19
211.442	94.68
211.66	87.97
211.878	89.3
212.095	88.31
212.313	79.49
212.53	68.78
212.748	72.17
212.966	71.23
213.183	69.35
213.401	73.57
213.618	67.09
213.836	60.18
214.053	64.36
214.271	64.9
214.488	63.32
214.705	67.72
214.923	75
215.14	74.33
215.358	70.14
215.575	73.31
215.793	76.2
216.01	76.63
216.227	76.99
216.445	78.16
216.662	75.71
216.879	73.14
217.097	62.13
217.314	66.79
217.531	68.99
217.749	72.99
217.966	70.92
218.183	61.59
218.4	58.42
218.618	67.36
218.835	67.72
219.052	67.57
219.269	69.43
219.487	73.26
219.704	64.86
219.921	61.36
220.138	59.91
220.355	48.32
220.572	41.12
220.79	39.5
221.007	36.14
221.224	34.98
221.441	31.18
221.658	29.63
221.875	25.44
222.092	26.24
222.309	26.68
222.526	22.58
222.743	24.02
222.96	24.94
223.177	23.97
223.394	25.76
223.611	27.98
223.828	29.3
224.045	29.58
224.262	33.82
224.479	30.08
224.696	27.98
224.913	26.58
225.13	25.96
225.347	27.46
225.564	28.15
225.781	26.28
225.997	22.04
226.214	22.24
226.431	21.97
226.648	18.61
226.865	18.25
227.082	16.75
227.298	15.49
227.515	14.8
227.732	12.66
227.949	10.94
228.165	10.42
228.382	10.05
228.599	9.27
228.816	9.45
229.032	9.3
229.249	8.98
229.466	8.28
229.682	8.69
229.899	9.75
230.116	10.38
230.332	10.1
230.549	9.99
230.765	10.01
230.982	10.12
231.199	8.95
231.415	8.27
231.632	6.63
231.848	6.58
232.065	7.66
232.281	5.03
232.498	3.38
232.714	4.98
232.931	3.92
233.147	3.68
233.364	1.03
233.58	2.33
233.797	4.03
234.013	4.88
234.23	5.86
234.446	5.39
234.662	6.54
234.879	7.43
235.095	6.97
235.312	8.45
235.528	9.39
235.744	11.75
235.961	13.22
236.177	12.82
236.393	14.4
236.61	14.64
236.826	13.67
237.042	13.04
237.258	12.66
237.475	13.38
237.691	11.93
237.907	11.79
238.123	11.44
238.339	9.34
238.556	9.63
238.772	9.02
238.988	10.78
239.204	10.82
239.42	11.93
239.636	11.94
239.853	11.22
240.069	12.79
240.285	12.24
240.501	12.47
240.717	11.93
240.933	11.3
241.149	11.46
241.365	11
241.581	11.33
241.797	10.83
242.013	9.82
242.229	10.03
242.445	9.24
242.661	9.05
242.877	9.28
243.093	8.86
243.309	8.85
243.525	8.39
243.741	8.09
243.957	6.93
244.173	6.45
244.388	6.91
244.604	6.51
244.82	6.75
245.036	6.99
245.252	5.83
245.468	6.07
245.683	6.41
245.899	6.43
246.115	6.36
246.331	6.82
246.547	6.94
246.762	7.01
246.978	6.84
247.194	6.75
247.409	6.37
247.625	6.69
247.841	6.87
248.057	6.78
248.272	6.69
248.488	6.52
248.703	6.48
248.919	6.72
249.135	6.55
249.35	6.91
249.566	7.17
249.782	8.42
249.997	8.33
250.213	8.15
250.428	7.89
250.644	8.09
250.859	8.74
251.075	9.19
251.29	8.17
251.506	8.03
251.721	8.09
251.937	7.78
252.152	6.97
252.368	7.65
252.583	7.91
252.798	8.14
253.014	7.87
253.229	7.39
253.445	7.14
253.66	8.65
253.875	9.15
254.091	9.38
254.306	9.61
254.521	10.45
254.737	10.18
254.952	10.33
255.167	10.54
255.383	11.05
255.598	10.92
255.813	10.43
256.028	9.58
256.244	9.18
256.459	8.54
256.674	8.93
256.889	7.4
257.104	6.88
257.32	6.6
257.535	6.35
257.75	6.03
257.965	6.23
258.18	6.61
258.395	6.57
258.61	6.63
258.826	6.6
259.041	6.04
259.256	6.29
259.471	6.29
259.686	6.04
259.901	5.95
260.116	6.14
260.331	6.21
260.546	5.95
260.761	5.78
260.976	5.96
261.191	5.79
261.406	5.76
261.621	5.75
261.836	5
262.05	5.22
262.265	5.1
262.48	4.8
262.695	4.57
262.91	4.32
263.125	4.44
263.34	3.72
263.555	4.08
263.769	4.86
263.984	4.93
264.199	5.93
264.414	6.39
264.629	6.82
264.843	6.65
265.058	6.98
265.273	7.21
265.488	7.1
265.702	7.19
265.917	6.44
266.132	6.61
266.346	6.57
266.561	5.73
266.776	5.09
266.99	4.83
267.205	5.4
267.42	4.94
267.634	4.97
267.849	4.75
268.063	5.04
268.278	5.6
268.492	5.19
268.707	4.76
268.922	5.39
269.136	5.72
269.351	6.11
269.565	5.73
269.78	5.74
269.994	5.75
270.209	5.63
270.423	5.16
270.637	4.56
270.852	4.83
271.066	5.2
271.281	5.14
271.495	5.27
271.709	4.83
271.924	4.6
272.138	4.78
272.353	4.61
272.567	5.11
272.781	5.31
272.996	5.58
273.21	5.5
273.424	5.54
273.638	5.64
273.853	5.75
274.067	5.79
274.281	6.16
274.495	5.95
274.71	6.22
274.924	5.97
275.138	5.94
275.352	5.94
275.566	5.51
275.781	5.35
275.995	5.11
276.209	4.97
276.423	4.89
276.637	4.87
276.851	5.51
277.065	5
277.279	5.43
277.493	5.15
277.707	5.23
277.921	5.22
278.135	5.31
278.349	5.4
278.563	5.14
278.777	5.26
278.991	5.55
279.205	5.5
279.419	6.24
279.633	5.94
279.847	6
280.061	5.64
280.275	5.76
280.489	5.76
280.703	6.38
280.917	6.36
281.131	6.43
281.344	6.31
281.558	6.15
281.772	5.88
281.986	5.51
282.2	5.64
282.414	5.46
282.627	5.55
282.841	5.15
283.055	4.48
283.269	5.05
283.482	4.94
283.696	4.49
283.91	4.19
284.123	3.62
284.337	3.79
284.551	3.72
284.764	4.27
284.978	4.41
285.192	4.37
285.405	4.47
285.619	3.99
285.833	4.28
286.046	4.22
286.26	4.18
286.473	4.76
286.687	4.56
286.9	4.75
287.114	4.43
287.327	4.39
287.541	4.73
287.754	5.06
287.968	4.93
288.181	4.79
288.395	5.14
288.608	5.39
288.822	5.09
289.035	5.36
289.248	5.23
289.462	5.67
289.675	5.71
289.889	5.81
290.102	5.67
290.315	5.86
290.529	6.13
290.742	6.01
290.955	6.07
291.169	6.36
291.382	6.28
291.595	6.29
291.808	6.13
292.022	5.68
292.235	5.5
292.448	5.19
292.661	5.35
292.875	5.16
293.088	5.89
293.301	5.31
293.514	5.2
293.727	5.71
293.94	5.77
294.153	6.12
294.367	6.44
294.58	6.92
294.793	7.12
295.006	7.25
295.219	7.06
295.432	6.75
295.645	7.14
295.858	7.19
296.071	6.86
296.284	6.66
296.497	6.41
296.71	6.27
296.923	6
297.136	6.25
297.349	5.99
297.562	6.16
297.775	6.23
297.988	6.4
298.201	6.32
298.414	6.33
298.626	6.65
298.839	6.65
299.052	6.78
299.265	7.31
299.478	7.21
299.691	7.15
299.903	7.23
300.116	7
300.329	6.89
300.542	6.74
300.755	6.98
300.967	6.8
301.18	7.02
301.393	7.15
301.605	6.45
301.818	6.32
302.031	6.63
302.243	6.42
302.456	6.59
302.669	6.46
302.881	6.95
303.094	7.05
303.307	7.57
303.519	7.79
303.732	7.79
303.944	8.1
304.157	8.26
304.37	8.18
304.582	8.18
304.795	8.24
305.007	8.54
305.22	8.51
305.432	8.72
305.645	8.11
305.857	8.09
306.069	8.8
306.282	8.83
306.494	8.9
306.707	8.63
306.919	8.71
307.132	8.62
307.344	8.88
307.556	9.11
307.769	8.71
307.981	8.75
308.193	8.34
308.406	7.67
308.618	7.76
308.83	7.5
309.043	7.72
309.255	7.93
309.467	8.07
309.679	7.87
309.892	7.79
310.104	7.61
310.316	7.61
310.528	7.83
310.74	7.99
310.953	7.8
311.165	7.7
311.377	8.06
311.589	8.17
311.801	8.26
312.013	8.23
312.225	8.26
312.437	8.53
312.649	8.93
312.862	9
313.074	8.82
313.286	9.19
313.498	9.54
313.71	9.51
313.922	9.14
314.134	8.59
314.346	8.72
314.558	8.48
314.77	8.25
314.982	8.16
315.193	7.85
315.405	7.99
315.617	7.71
315.829	7.89
316.041	7.99
316.253	8.22
316.465	8.43
316.677	8.36
316.888	8.71
317.1	9.18
317.312	9.41
317.524	9.7
317.736	9.85
317.947	10.2
318.159	9.9
318.371	9.65
318.583	9.58
318.794	9.55
319.006	9.49
319.218	9.54
319.43	9.36
319.641	9.43
319.853	9.46
320.064	9.57
320.276	9.43
320.488	10.05
320.699	10.28
320.911	10.37
321.123	10.78
321.334	10.75
321.546	10.6
321.757	10.67
321.969	10.59
322.18	10.37
322.392	10.35
322.603	10.54
322.815	10.32
323.026	10.27
323.238	10.27
323.449	10.53
323.661	10.68
323.872	11
324.083	11.42
324.295	11.05
324.506	11.27
324.718	11.41
324.929	11.18
325.14	11.24
325.352	11.3
325.563	11.48
325.774	10.98
325.986	10.76
326.197	10.66
326.408	10.1
326.62	10.34
326.831	10.39
327.042	10.15
327.253	10.7
327.464	11.07
327.676	11.45
327.887	11.4
328.098	11.93
328.309	12.62
328.52	12.48
328.732	12.79
328.943	13.08
329.154	13.36
329.365	13.47
329.576	12.68
329.787	12.56
329.998	12.38
330.209	12.61
330.42	12.58
330.631	12.71
330.842	12.5
331.053	12.69
331.264	12.16
331.475	12.06
331.686	11.8
331.897	12.19
332.108	12.01
332.319	12.28
332.53	12.25
332.741	11.7
332.952	11.36
333.163	11.79
333.374	11.56
333.585	11.76
333.795	11.71
334.006	12.04
334.217	12.31
334.428	12.4
334.639	12.17
334.849	12.01
335.06	12.44
335.271	12.6
335.482	12.35
335.692	12.72
335.903	12.99
336.114	13.04
336.325	13.4
336.535	13.37
336.746	13.53
336.957	13.43
337.167	13.68
337.378	13.8
337.589	13.26
337.799	13.26
338.01	12.97
338.22	12.77
338.431	13.02
338.642	12.65
338.852	12.53
339.063	12.53
339.273	12.38
339.484	12.41
339.694	12.38
339.905	12.83
340.115	12.86
340.326	12.97
340.536	13.44
340.746	12.67
340.957	12.72
341.167	12.57
341.378	12.36
341.588	12.64
341.799	12.64
342.009	12.32
342.219	12.32
342.43	12.27
342.64	12.3
342.85	12.13
343.061	12.65
343.271	12.96
343.481	13.11
343.691	13.29
343.902	13.43
344.112	13.3
344.322	13.41
344.532	13.17
344.743	13.04
344.953	12.64
345.163	12.18
345.373	11.85
345.583	11.46
345.793	11.33
346.004	11.17
346.214	10.99
346.424	11.04
346.634	10.96
346.844	11.16
347.054	11.17
347.264	11.48
347.474	11.75
347.684	12.01
347.894	12.27
348.104	12.5
348.314	12.19
348.524	12.09
348.734	11.62
348.944	11.79
349.154	11.66
349.364	11.99
349.574	11.9
349.784	11.66
349.994	11.8
350.204	11.54
350.413	11.33
350.623	11.72
350.833	11.72
351.043	12
351.253	12.11
351.463	12.02
351.672	11.97
351.882	11.83
352.092	11.96
352.302	11.63
352.511	11.76
352.721	11.69
352.931	11.38
353.141	11.21
353.35	11.29
353.56	10.7
353.77	10.88
353.979	10.66
354.189	10.91
354.399	11.06
354.608	11.31
354.818	11.21
355.027	11.39
355.237	11.28
355.447	11.43
355.656	11.43
355.866	11.47
356.075	11.39
356.285	11.3
356.494	11.21
356.704	11.31
356.913	11.12
357.123	11.13
357.332	10.96
357.542	11
357.751	11.18
357.96	11.39
358.17	11.37
358.379	11.52
358.589	11.64
358.798	11.47
359.007	11.42
359.217	11.67
359.426	11.43
359.635	11.68
359.845	11.52
360.054	11.35
360.263	10.8
360.472	10.88
360.682	10.6
360.891	10.4
361.1	10.48
361.309	10.36
361.519	10.23
361.728	10.28
361.937	10.19
362.146	10.43
362.355	10.34
362.564	10.42
362.774	10.69
362.983	10.74
363.192	11.07
363.401	11.38
363.61	11.17
363.819	11.21
364.028	11.1
364.237	10.98
364.446	11.01
364.655	11.06
364.864	11.1
365.073	10.88
365.282	11.11
365.491	11
365.7	10.41
365.909	10.5
366.118	10.4
366.327	10.61
366.536	10.42
366.745	10.42
366.954	10.53
367.162	10.54
367.371	10.44
367.58	10.3
367.789	10.35
367.998	10.81
368.207	11.04
368.415	11.01
368.624	11.12
368.833	11.38
369.042	11.27
369.25	10.99
369.459	11
369.668	11.07
369.877	11.17
370.085	11.03
370.294	10.79
370.503	10.64
370.711	10.68
370.92	10.5
371.129	10.41
371.337	10.32
371.546	10.27
371.754	10.31
371.963	10.13
372.171	10.08
372.38	10.2
372.589	10.21
372.797	10.02
373.006	9.74
373.214	9.85
373.423	9.7
373.631	9.76
373.84	9.45
374.048	9.46
374.256	9.46
374.465	9.43
374.673	9.12
374.882	9.02
375.09	9.04
375.298	9.02
375.507	8.82
375.715	8.8
375.923	8.62
376.132	8.81
376.34	8.72
376.548	8.75
376.757	8.64
376.965	8.8
377.173	8.78
377.381	8.87
377.59	9.04
377.798	9.02
378.006	9.03
378.214	8.85
378.423	8.8
378.631	8.85
378.839	8.97
379.047	8.74
379.255	8.53
379.463	8.4
379.671	8.37
379.879	8.24
380.088	8.32
380.296	8.46
380.504	8.71
380.712	8.72
380.92	8.66
381.128	8.54
381.336	8.7
381.544	8.71
381.752	8.72
381.96	8.63
382.168	8.57
382.376	8.38
382.584	8.15
382.791	8.19
382.999	8.13
383.207	8.11
383.415	8.22
383.623	8.09
383.831	8.06
384.039	8.09
384.247	8.25
384.454	8.23
384.662	8.2
384.87	8.18
385.078	7.89
385.285	7.81
385.493	7.9
385.701	7.8
385.909	7.82
386.116	7.72
386.324	7.81
386.532	7.97
386.739	7.82
386.947	7.8
387.155	7.81
387.362	7.97
387.57	8.26
387.778	7.95
387.985	7.7
388.193	7.65
388.4	7.62
388.608	7.88
388.816	7.47
389.023	7.68
389.231	7.67
389.438	7.53
389.646	7.62
389.853	7.52
390.061	7.77
390.268	7.84
390.475	7.9
390.683	8.13
390.89	7.67
391.098	7.49
391.305	7.3
391.512	7.25
391.72	7.39
391.927	7.26
392.135	7.15
392.342	7.01
392.549	7.19
392.756	7.07
392.964	6.77
393.171	6.7
393.378	7.01
393.586	7.03
393.793	7.2
394	7.06
394.207	6.96
394.414	7.02
394.622	6.72
394.829	6.47
395.036	6.51
395.243	6.62
395.45	6.67
395.657	6.56
395.864	6.67
396.072	6.58
396.279	6.59
396.486	6.69
396.693	6.64
396.9	6.96
397.107	7.07
397.314	6.96
397.521	6.77
397.728	6.63
397.935	6.48
398.142	6.33
398.349	6.51
398.556	6.55
398.763	6.32
398.97	6.33
399.177	6.27
399.383	6.29
399.59	6.23
399.797	6.47
400.004	6.59
400.211	6.67
400.418	6.82
400.625	6.44
400.831	6.5
401.038	6.67
401.245	6.6
401.452	6.45
401.658	6.27
401.865	6.24
402.072	6.28
402.279	6.4
402.485	6.19
402.692	6.14
402.899	6.22
403.105	6.24
403.312	6.4
403.519	6.4
403.725	6.63
403.932	6.77
404.138	6.82
404.345	6.58
404.552	6.5
404.758	6.58
404.965	6.49
405.171	6.61
405.378	6.46
405.584	6.15
405.791	6.03
405.997	5.9
406.204	6.03
406.41	6.12
406.617	6.21
406.823	6.24
407.029	6.25
407.236	6.3
407.442	6.12
407.649	6.19
407.855	6.35
408.061	6.44
408.268	6.42
408.474	6.2
408.68	6.13
408.887	6.03
409.093	5.98
409.299	5.9
409.505	5.9
409.712	5.84
409.918	5.61
410.124	5.54
410.33	5.71
410.537	5.62
410.743	5.7
410.949	5.75
411.155	6.06
411.361	6.08
411.567	6.18
411.773	6.18
411.98	6.21
412.186	6.43
412.392	6.57
412.598	6.54
412.804	6.57
413.01	6.47
413.216	6.39
413.422	6.3
413.628	6.44
413.834	6.59
414.04	6.61
414.246	6.64
414.452	6.71
414.658	6.54
414.864	6.63
415.07	6.54
415.275	6.62
415.481	6.58
415.687	6.48
415.893	6.21
416.099	6.17
416.305	6.01
416.511	6.12
416.716	5.89
416.922	5.87
417.128	5.77
417.334	5.86
417.539	5.67
417.745	5.8
417.951	5.79
418.157	5.9
418.362	5.77
418.568	5.87
418.774	5.81
418.979	5.91
419.185	5.89
419.391	5.82
419.596	5.82
419.802	5.85
420.008	5.79
420.213	5.84
420.419	5.77
420.624	5.81
420.83	5.65
421.035	5.59
421.241	5.67
421.446	5.64
421.652	5.6
421.857	5.61
422.063	5.68
422.268	5.64
422.474	5.56
422.679	5.55
422.885	5.46
423.09	5.57
423.295	5.59
423.501	5.52
423.706	5.5
423.911	5.53
424.117	5.46
424.322	5.39
424.527	5.35
424.733	5.37
424.938	5.39
425.143	5.51
425.349	5.52
425.554	5.55
425.759	5.49
425.964	5.58
426.169	5.58
426.375	5.58
426.58	5.59
426.785	5.66
426.99	5.63
427.195	5.55
427.4	5.51
427.605	5.49
427.811	5.57
428.016	5.65
428.221	5.58
428.426	5.59
428.631	5.71
428.836	5.64
429.041	5.63
429.246	5.63
429.451	5.74
429.656	5.76
429.861	5.74
430.066	5.66
430.271	5.67
430.476	5.62
430.681	5.63
430.886	5.57
431.09	5.71
431.295	5.68
431.5	5.71
431.705	5.72
431.91	5.74
432.115	5.77
432.32	5.84
432.524	5.82
432.729	5.9
432.934	5.85
433.139	5.82
433.343	5.73
433.548	5.7
433.753	5.67
433.958	5.52
434.162	5.43
434.367	5.35
434.572	5.27
434.776	5.11
434.981	5.12
435.186	5.18
435.39	5.18
435.595	5.12
435.799	5.18
436.004	5.15
436.209	5.24
436.413	5.21
436.618	5.33
436.822	5.25
437.027	5.33
437.231	5.34
437.436	5.3
437.64	5.38
437.845	5.55
438.049	5.58
438.253	5.61
438.458	5.72
438.662	5.81
438.867	5.76
439.071	5.84
439.275	5.9
439.48	5.93
439.684	5.89
439.888	5.84
440.093	5.81
440.297	5.78
440.501	5.81
440.706	5.81
440.91	5.8
441.114	5.72
441.318	5.76
441.523	5.69
441.727	5.67
441.931	5.72
442.135	5.75
442.339	5.77
442.543	5.71
442.748	5.67
442.952	5.62
443.156	5.61
443.36	5.69
443.564	5.65
443.768	5.68
443.972	5.76
444.176	5.76
444.38	5.74
444.584	5.68
444.788	5.77
444.992	5.75
445.196	5.67
445.4	5.65
445.604	5.62
445.808	5.66
446.012	5.67
446.216	5.58
446.42	5.54
446.624	5.5
446.828	5.54
447.032	5.51
447.235	5.5
447.439	5.51
447.643	5.49
447.847	5.63
448.051	5.58
448.254	5.6
448.458	5.6
448.662	5.59
448.866	5.64
449.069	5.6
449.273	5.6
449.477	5.69
449.681	5.7
449.884	5.75
450.088	5.6
450.292	5.72
450.495	5.69
450.699	5.58
450.902	5.68
451.106	5.71
451.31	5.63
451.513	5.61
451.717	5.45
451.92	5.49
452.124	5.61
452.327	5.6
452.531	5.44
452.734	5.44
452.938	5.7
453.141	5.65
453.345	5.62
453.548	5.57
453.752	5.64
453.955	5.74
454.158	5.79
454.362	5.68
454.565	5.66
454.769	5.66
454.972	5.68
455.175	5.61
455.379	5.64
455.582	5.65
455.785	5.76
455.988	5.67
456.192	5.64
456.395	5.51
456.598	5.59
456.801	5.61
457.005	5.71
457.208	5.68
457.411	5.66
457.614	5.63
457.817	5.53
458.021	5.51
458.224	5.61
458.427	5.74
458.63	5.91
458.833	5.9
459.036	5.91
459.239	5.87
459.442	5.85
459.645	5.83
459.848	5.81
460.051	5.87
460.254	5.83
460.457	5.72
460.66	5.67
460.863	5.59
461.066	5.51
461.269	5.42
461.472	5.41
461.675	5.35
461.878	5.35
462.081	5.34
462.284	5.3
462.486	5.44
462.689	5.48
462.892	5.36
463.095	5.41
463.298	5.33
463.5	5.31
463.703	5.38
463.906	5.26
464.109	5.21
464.311	5.15
464.514	5.2
464.717	5.07
464.92	4.97
465.122	4.96
465.325	4.92
465.528	5.1
465.73	5.26
465.933	5.13
466.135	5.3
466.338	5.37
466.541	5.41
466.743	5.44
466.946	5.52
467.148	5.7
467.351	5.8
467.553	5.82
467.756	5.73
467.958	5.67
468.161	5.81
468.363	5.84
468.566	5.85
468.768	5.88
468.971	5.92
469.173	5.86
469.375	5.74
469.578	5.7
469.78	5.56
469.983	5.65
470.185	5.61
470.387	5.43
470.59	5.39
470.792	5.25
470.994	5.2
471.196	5.26
471.399	5.23
471.601	5.4
471.803	5.39
472.005	5.51
472.208	5.4
472.41	5.52
472.612	5.7
472.814	5.66
473.016	5.79
473.218	5.82
473.421	5.71
473.623	5.78
473.825	5.65
474.027	5.63
474.229	5.62
474.431	5.58
474.633	5.48
474.835	5.38
475.037	5.5
475.239	5.49
475.441	5.49
475.643	5.45
475.845	5.52
476.047	5.59
476.249	5.75
476.451	5.67
476.653	5.69
476.855	5.69
477.057	5.72
477.258	5.59
477.46	5.63
477.662	5.62
477.864	5.56
478.066	5.46
478.268	5.45
478.469	5.31
478.671	5.36
478.873	5.46
479.075	5.47
479.276	5.51
479.478	5.54
479.68	5.56
479.882	5.62
480.083	5.68
480.285	5.76
480.487	5.73
480.688	5.79
480.89	5.79
481.091	5.71
481.293	5.72
481.495	5.7
481.696	5.71
481.898	5.66
482.099	5.55
482.301	5.49
482.502	5.45
482.704	5.46
482.905	5.41
483.107	5.36
483.308	5.37
483.51	5.33
483.711	5.32
483.913	5.31
484.114	5.3
484.315	5.33
484.517	5.36
484.718	5.33
484.92	5.3
485.121	5.31
485.322	5.33
485.524	5.31
485.725	5.34
485.926	5.34
486.127	5.34
486.329	5.31
486.53	5.28
486.731	5.26
486.932	5.29
487.134	5.27
487.335	5.28
487.536	5.27
487.737	5.31
487.938	5.31
488.139	5.31
488.341	5.3
488.542	5.3
488.743	5.31
488.944	5.31
489.145	5.33
489.346	5.35
489.547	5.35
489.748	5.38
489.949	5.37
490.15	5.39
490.351	5.33
490.552	5.34
490.753	5.34
490.954	5.39
491.155	5.38
491.356	5.36
491.557	5.35
491.758	5.38
491.959	5.38
492.159	5.35
492.36	5.37
492.561	5.42
492.762	5.4
492.963	5.45
493.164	5.43
493.364	5.47
493.565	5.48
493.766	5.47
493.967	5.46
494.167	5.37
494.368	5.39
494.569	5.41
494.769	5.4
494.97	5.51
495.171	5.52
495.371	5.51
495.572	5.54
495.773	5.61
495.973	5.67
496.174	5.75
496.375	5.86
496.575	5.81
496.776	5.77
496.976	5.76
497.177	5.77
497.377	5.79
497.578	5.79
497.778	5.77
497.979	5.72
498.179	5.83
498.38	5.82
498.58	5.77
498.78	5.89
498.981	5.88
499.181	5.9
499.382	5.88
499.582	5.93
499.782	6.09
499.983	6.25
500.183	6.3
500.383	6.2
500.584	6.18
500.784	6.3
500.984	6.38
501.184	6.48
501.385	6.52
501.585	6.53
501.785	6.43
501.985	6.31
502.185	6.27
502.386	6.24
502.586	6.27
502.786	6.2
502.986	6.18
503.186	6.07
503.386	6.08
503.586	6.14
503.786	6.21
503.987	6.29
504.187	6.37
504.387	6.34
504.587	6.46
504.787	6.58
504.987	6.65
505.187	6.62
505.387	6.69
505.587	6.66
505.786	6.64
505.986	6.68
506.186	6.75
506.386	6.84
506.586	6.97
506.786	6.92
506.986	7
507.186	7.11
507.386	7.14
507.585	7.2
507.785	7.22
507.985	7.26
508.185	7.2
508.384	7.29
508.584	7.19
508.784	7.18
508.984	7.16
509.183	7.2
509.383	7.19
509.583	7.38
509.782	7.39
509.982	7.48
510.182	7.66
510.381	7.82
510.581	7.76
510.781	7.83
510.98	7.87
511.18	7.84
511.379	7.81
511.579	7.82
511.778	7.8
511.978	7.79
512.177	7.77
512.377	7.66
512.576	7.61
512.776	7.63
512.975	7.71
513.175	7.76
513.374	7.96
513.573	8.01
513.773	8.12
513.972	8.08
514.172	8.24
514.371	8.38
514.57	8.49
514.77	8.58
514.969	8.69
515.168	8.78
515.367	8.88
515.567	8.82
515.766	8.9
515.965	9.02
516.164	9.13
516.364	9.15
516.563	9.21
516.762	9.36
516.961	9.43
517.16	9.54
517.359	9.56
517.559	9.54
517.758	9.64
517.957	9.66
518.156	9.7
518.355	9.78
518.554	9.85
518.753	9.92
518.952	9.85
519.151	9.94
519.35	9.97
519.549	10.05
519.748	10.13
519.947	10.27
520.146	10.31
520.345	10.36
520.544	10.43
520.743	10.52
520.942	10.51
521.141	10.61
521.339	10.64
521.538	10.73
521.737	10.72
521.936	10.79
522.135	10.81
522.333	10.94
522.532	10.99
522.731	10.96
522.93	11.07
523.129	11.21
523.327	11.41
523.526	11.47
523.725	11.49
523.923	11.66
524.122	11.78
524.321	11.87
524.519	11.88
524.718	11.97
524.917	12.02
525.115	12.06
525.314	12.1
525.512	12.05
525.711	12.09
525.909	12.15
526.108	12.19
526.306	12.28
526.505	12.38
526.703	12.49
526.902	12.52
527.1	12.65
527.299	12.66
527.497	12.73
527.696	12.74
527.894	12.77
528.092	12.79
528.291	12.85
528.489	12.83
528.688	12.83
528.886	12.85
529.084	12.87
529.283	12.89
529.481	12.92
529.679	12.95
529.877	13.05
530.076	13.11
530.274	13.19
530.472	13.2
530.67	13.27
530.869	13.36
531.067	13.44
531.265	13.58
531.463	13.61
531.661	13.71
531.859	13.79
532.057	13.83
532.255	13.94
532.454	13.98
532.652	13.98
532.85	14.03
533.048	13.99
533.246	14.02
533.444	14.05
533.642	14.06
533.84	14.04
534.038	14.07
534.236	14.12
534.434	14.14
534.632	14.16
534.83	14.29
535.027	14.39
535.225	14.5
535.423	14.56
535.621	14.53
535.819	14.65
536.017	14.73
536.215	14.8
536.412	14.88
536.61	14.88
536.808	14.98
537.006	14.94
537.203	14.84
537.401	14.86
537.599	14.89
537.797	14.94
537.994	15.03
538.192	15.12
538.39	15.05
538.587	15.09
538.785	15.14
538.983	15.22
539.18	15.38
539.378	15.51
539.575	15.58
539.773	15.66
539.97	15.67
540.168	15.62
540.366	15.66
540.563	15.67
540.761	15.66
540.958	15.72
541.155	15.68
541.353	15.63
541.55	15.64
541.748	15.67
541.945	15.68
542.143	15.78
542.34	15.78
542.537	15.74
542.735	15.82
542.932	15.86
543.129	15.77
543.327	15.8
543.524	15.84
543.721	15.94
543.919	15.99
544.116	16.01
544.313	16.02
544.51	16.13
544.708	16.26
544.905	16.27
545.102	16.3
545.299	16.5
545.496	16.64
545.693	16.68
545.891	16.61
546.088	16.53
546.285	16.57
546.482	16.6
546.679	16.58
546.876	16.57
547.073	16.56
547.27	16.54
547.467	16.55
547.664	16.49
547.861	16.49
548.058	16.47
548.255	16.55
548.452	16.57
548.649	16.49
548.846	16.48
549.043	16.49
549.24	16.55
549.437	16.57
549.633	16.53
549.83	16.57
550.027	16.73
550.224	16.77
550.421	16.78
550.618	16.69
550.814	16.82
551.011	16.82
551.208	16.9
551.405	16.96
551.601	16.95
551.798	16.93
551.995	16.8
552.191	16.65
552.388	16.87
552.585	16.84
552.781	16.84
552.978	16.8
553.175	16.9
553.371	16.81
553.568	16.71
553.764	16.79
553.961	16.86
554.157	16.88
554.354	16.88
554.55	16.68
554.747	16.66
554.943	16.69
555.14	16.7
555.336	16.67
555.533	16.63
555.729	16.63
555.926	16.49
556.122	16.43
556.318	16.58
556.515	16.66
556.711	16.68
556.907	16.7
557.104	16.81
557.3	16.77
557.496	16.81
557.693	16.75
557.889	16.84
558.085	16.87
558.281	16.97
558.478	16.9
558.674	16.91
558.87	17.05
559.066	17.19
559.262	17.06
559.459	17.2
559.655	17.18
559.851	17.25
560.047	17.21
560.243	17.42
560.439	17.43
560.635	17.41
560.831	17.38
561.027	17.29
561.223	17.32
561.419	17.38
561.615	17.25
561.811	17.11
562.007	17.09
562.203	16.97
562.399	16.74
562.595	16.65
562.791	16.73
562.987	16.79
563.183	16.61
563.379	16.48
563.575	16.63
563.771	16.69
563.966	16.77
564.162	16.81
564.358	16.82
564.554	16.98
564.75	17.13
564.945	16.92
565.141	16.92
565.337	17.01
565.533	17.03
565.728	16.95
565.924	17.04
566.12	17
566.315	17.01
566.511	17.04
566.707	16.92
566.902	16.91
567.098	16.99
567.293	16.91
567.489	17.1
567.684	17.14
567.88	17.1
568.076	16.95
568.271	17.08
568.467	17.17
568.662	17.43
568.858	17.51
569.053	17.43
569.248	17.49
569.444	17.68
569.639	17.42
569.835	17.39
570.03	17.4
570.225	17.61
570.421	17.52
570.616	17.48
570.812	17.4
571.007	17.44
571.202	17.54
571.397	17.55
571.593	17.48
571.788	17.62
571.983	17.68
572.178	17.71
572.374	17.65
572.569	17.75
572.764	17.75
572.959	17.72
573.154	17.62
573.35	17.53
573.545	17.59
573.74	17.65
573.935	17.65
574.13	17.72
574.325	17.64
574.52	17.65
574.715	17.74
574.91	17.77
575.105	17.8
575.3	17.81
575.495	17.91
575.69	17.87
575.885	17.8
576.08	17.83
576.275	17.73
576.47	17.88
576.665	17.88
576.86	17.83
577.055	17.82
577.25	17.88
577.444	18.09
577.639	18.08
577.834	18.14
578.029	18.26
578.224	18.26
578.418	18.37
578.613	18.41
578.808	18.46
579.003	18.45
579.197	18.54
579.392	18.49
579.587	18.44
579.781	18.5
579.976	18.54
580.171	18.5
580.365	18.66
580.56	18.59
580.755	18.54
580.949	18.52
581.144	18.47
581.338	18.48
581.533	18.49
581.727	18.45
581.922	18.24
582.116	18.27
582.311	18.37
582.505	18.32
582.7	18.23
582.894	18.1
583.089	18.19
583.283	18.22
583.478	18.3
583.672	18.3
583.866	18.34
584.061	18.49
584.255	18.41
584.449	18.38
584.644	18.44
584.838	18.6
585.032	18.69
585.226	18.48
585.421	18.49
585.615	18.46
585.809	18.62
586.003	18.63
586.198	18.82
586.392	18.8
586.586	18.82
586.78	18.83
586.974	18.9
587.168	19.05
587.363	19.13
587.557	19.22
587.751	19.23
587.945	19.13
588.139	19.19
588.333	19.03
588.527	19.03
588.721	18.81
588.915	18.77
589.109	18.7
589.303	18.74
589.497	18.69
589.691	18.6
589.885	18.42
590.079	18.43
590.273	18.41
590.466	18.39
590.66	18.45
590.854	18.59
591.048	18.5
591.242	18.71
591.436	18.73
591.629	18.88
591.823	18.93
592.017	19.1
592.211	19.16
592.404	19.07
592.598	19.05
592.792	18.88
592.986	19.11
593.179	19.2
593.373	18.98
593.567	18.92
593.76	18.95
593.954	19.04
594.147	19.12
594.341	18.87
594.535	18.9
594.728	18.82
594.922	19.09
595.115	18.83
595.309	18.83
595.502	18.83
595.696	18.87
595.889	18.77
596.083	18.51
596.276	18.5
596.47	18.58
596.663	18.57
596.856	18.66
597.05	18.5
597.243	18.69
597.437	18.65
597.63	18.65
597.823	18.54
598.017	18.44
598.21	18.57
598.403	18.59
598.596	18.77
598.79	18.82
598.983	18.86
599.176	18.97
599.369	18.88
599.563	18.92
599.756	18.99
599.949	18.97
600.142	19.13
600.335	19.22
600.528	19.13
600.722	18.99
600.915	19.05
601.108	19.12
601.301	19.16
601.494	19.17
601.687	19.07
601.88	19.02
602.073	19.06
602.266	18.99
602.459	19.13
602.652	19.07
602.845	18.98
603.038	18.93
603.231	18.91
603.424	18.8
603.617	18.67
603.809	18.62
604.002	18.56
604.195	18.56
604.388	18.6
604.581	18.58
604.774	18.59
604.966	18.65
605.159	18.61
605.352	18.67
605.545	18.74
605.737	18.78
605.93	18.84
606.123	18.93
606.316	19.02
606.508	19.03
606.701	18.92
606.894	19.15
607.086	19.53
607.279	19.71
607.471	19.53
607.664	19.83
607.857	20.06
608.049	20.31
608.242	20.37
608.434	20.49
608.627	20.8
608.819	20.96
609.012	21.08
609.204	21.13
609.397	21.29
609.589	21.86
609.782	22.04
609.974	22.26
610.166	22.65
610.359	23.02
610.551	23.44
610.743	23.64
610.936	24.09
611.128	24.21
611.32	24.35
611.513	24.68
611.705	24.46
611.897	24.52
612.09	24.68
612.282	24.45
612.474	24.22
612.666	23.93
612.858	23.75
613.051	23.69
613.243	23.53
613.435	23.22
613.627	23
613.819	22.82
614.011	22.68
614.203	22.45
614.395	22.57
614.588	22.45
614.78	22.23
614.972	21.96
615.164	21.41
615.356	21.34
615.548	21.64
615.74	21.36
615.932	21.57
616.124	21.44
616.315	21.35
616.507	20.88
616.699	20.98
616.891	20.92
617.083	20.9
617.275	20.94
617.467	20.86
617.659	20.41
617.85	20.38
618.042	20.01
618.234	19.73
618.426	19.63
618.618	19.83
618.809	19.91
619.001	19.98
619.193	19.94
619.384	19.97
619.576	19.84
619.768	19.93
619.959	19.9
620.151	20.1
620.343	20.37
620.534	20.33
620.726	20.09
620.917	19.97
621.109	19.91
621.301	20.04
621.492	20.12
621.684	20.21
621.875	20.23
622.067	20.4
622.258	20.23
622.45	20.06
622.641	20.22
622.832	20.39
623.024	20.3
623.215	20.29
623.407	20.31
623.598	20.33
623.789	20.44
623.981	20.53
624.172	20.48
624.363	20.44
624.555	20.55
624.746	20.28
624.937	20.3
625.129	20.21
625.32	20.25
625.511	20.28
625.702	20.19
625.893	20.18
626.085	20.02
626.276	20.03
626.467	20.23
626.658	20.12
626.849	20.19
627.04	20.14
627.231	20.29
627.422	20.3
627.614	20.16
627.805	20.13
627.996	20.09
628.187	20.22
628.378	20.2
628.569	20.22
628.76	20.16
628.951	20.1
629.142	20.14
629.332	20.29
629.523	20.26
629.714	20.43
629.905	20.53
630.096	20.69
630.287	20.58
630.478	20.67
630.669	20.69
630.859	20.83
631.05	20.99
631.241	20.91
631.432	20.79
631.623	20.9
631.813	20.89
632.004	20.84
632.195	20.71
632.385	20.64
632.576	20.5
632.767	20.39
632.957	20.46
633.148	20.34
633.339	20.24
633.529	20.01
633.72	19.83
633.91	19.71
634.101	19.66
634.292	19.67
634.482	19.86
634.673	19.99
634.863	19.83
635.054	19.76
635.244	19.81
635.435	19.91
635.625	20.17
635.815	20.23
636.006	20.26
636.196	20.22
636.387	19.95
636.577	19.71
636.767	19.53
636.958	19.67
637.148	19.46
637.338	19.48
637.529	19.62
637.719	19.46
637.909	19.46
638.099	19.41
638.29	19.38
638.48	19.56
638.67	19.81
638.86	19.95
639.05	19.89
639.241	20.11
639.431	20.21
639.621	20.05
639.811	20.08
640.001	20.21
640.191	20
640.381	20.15
640.571	20.33
640.761	20.2
640.951	20.14
641.141	20.36
641.331	20.34
641.521	20.28
641.711	20.35
641.901	20.49
642.091	20.41
642.281	20.87
642.471	20.68
642.661	20.62
642.851	20.83
643.041	20.86
643.231	20.9
643.42	20.83
643.61	20.83
643.8	20.93
643.99	20.75
644.18	20.94
644.369	20.69
644.559	20.72
644.749	20.67
644.939	20.65
645.128	20.57
645.318	20.46
645.508	20.73
645.697	20.8
645.887	20.93
646.076	20.89
646.266	20.62
646.456	20.84
646.645	20.9
646.835	20.96
647.024	20.96
647.214	20.86
647.403	20.87
647.593	20.66
647.782	20.52
647.972	20.22
648.161	20.65
648.351	20.82
648.54	20.85
648.73	20.88
648.919	20.85
649.108	20.93
649.298	21.16
649.487	21.17
649.677	21.08
649.866	21.22
650.055	21.41
650.244	20.99
650.434	21.06
650.623	21.12
650.812	21.15
651.002	20.96
651.191	20.73
651.38	20.63
651.569	20.54
651.758	20.73
651.947	20.72
652.137	20.63
652.326	20.78
652.515	20.65
652.704	20.57
652.893	20.39
653.082	20.65
653.271	20.71
653.46	21.02
653.649	21.34
653.838	21.36
654.027	21.3
654.216	21.43
654.405	21.6
654.594	21.9
654.783	21.64
654.972	21.84
655.161	21.76
655.35	21.63
655.539	21.57
655.728	21.33
655.916	21.2
656.105	21.18
656.294	21.07
656.483	20.95
656.672	20.73
656.86	20.83
657.049	20.86
657.238	20.94
657.427	21.01
657.615	20.76
657.804	20.74
657.993	20.62
658.181	20.65
658.37	20.58
658.559	20.64
658.747	20.58
658.936	20.63
659.125	20.61
659.313	20.26
659.502	20.35
659.69	20.26
659.879	20.36
660.067	20.56
660.256	20.67
660.444	20.73
660.633	20.55
660.821	20.59
661.01	20.55
661.198	20.6
661.387	20.85
661.575	20.92
661.763	21.22
661.952	21.1
662.14	21.09
662.328	20.82
662.517	21.08
662.705	21.24
662.893	21.52
663.082	21.29
663.27	21.36
663.458	21.48
663.646	21.55
663.834	21.37
664.023	21.27
664.211	21.33
664.399	21.37
664.587	21.33
664.775	21.47
664.963	21.03
665.152	21.56
665.34	21.66
665.528	21.75
665.716	21.73
665.904	22.07
666.092	22.37
666.28	22.12
666.468	22.26
666.656	22.38
666.844	22.03
667.032	22.17
667.22	21.96
667.408	21.73
667.596	21.75
667.784	21.47
667.971	21.27
668.159	21.1
668.347	21.24
668.535	21.1
668.723	20.63
668.911	21.16
669.098	21.13
669.286	21.45
669.474	21.69
669.662	21.69
669.849	21.86
670.037	21.98
670.225	22.04
670.413	22.1
670.6	22.08
670.788	22.52
670.976	22.44
671.163	22.45
671.351	22.11
671.538	21.92
671.726	21.86
671.913	21.7
672.101	21.58
672.289	21.68
672.476	21.49
672.664	21.59
672.851	21.39
673.039	21.22
673.226	21.27
673.413	21.32
673.601	21.26
673.788	21.22
673.976	21.22
674.163	21.15
674.35	21.15
674.538	21.51
674.725	21.78
674.912	21.86
675.1	21.87
675.287	22.21
675.474	22.23
675.662	22.16
675.849	22.36
676.036	22.34
676.223	22.35
676.411	22.53
676.598	22.43
676.785	22.43
676.972	22.25
677.159	22.3
677.346	22.18
677.533	22.04
677.721	22.09
677.908	21.99
678.095	22.16
678.282	22.27
678.469	22.08
678.656	22.12
678.843	22.07
679.03	21.98
679.217	22.07
679.404	22
679.591	22.36
679.778	22.27
679.964	22.29
680.151	22.41
680.338	22.15
680.525	22.15
680.712	22.07
680.899	22
681.086	22.12
681.272	21.88
681.459	21.78
681.646	21.55
681.833	21.83
682.02	21.59
682.206	21.58
682.393	21.64
682.58	21.71
682.766	21.73
682.953	21.67
683.14	21.88
683.326	22.01
683.513	22.1
683.7	22.37
683.886	22.4
684.073	22.5
684.259	22.38
684.446	22.4
684.632	22.38
684.819	22.32
685.005	22.19
685.192	22.1
685.378	22.23
685.565	22.03
685.751	21.77
685.938	21.64
686.124	21.69
686.31	21.63
686.497	21.85
686.683	21.85
686.87	22.15
687.056	22.42
687.242	22.27
687.429	22.43
687.615	22.79
687.801	22.66
687.987	22.75
688.174	22.99
688.36	23.04
688.546	22.91
688.732	22.94
688.918	22.58
689.105	22.83
689.291	22.97
689.477	22.78
689.663	22.48
689.849	22.84
690.035	23.29
690.221	23.25
690.407	23.54
690.593	23.86
690.779	23.79
690.965	23.98
691.151	23.89
691.337	24.1
691.523	24.16
691.709	24.33
691.895	24.48
692.081	23.93
692.267	23.69
692.453	23.75
692.639	23.5
692.825	23.76
693.011	23.85
693.196	23.67
693.382	23.39
693.568	23.29
693.754	23.35
693.94	23.26
694.125	23.39
694.311	23.84
694.497	23.47
694.682	23.58
694.868	23.77
695.054	23.83
695.239	23.9
695.425	23.81
695.611	23.97
695.796	23.91
695.982	23.62
696.168	23.74
696.353	23.58
696.539	23.69
696.724	23.78
696.91	23.49
697.095	23.4
697.281	23.25
697.466	23.57
697.652	23.45
697.837	23.09
698.023	22.89
698.208	22.83
698.393	22.69
698.579	22.61
698.764	22.35
698.949	22.36
699.135	22.3
699.32	22.47
699.505	22.45
699.691	22.37
699.876	22.94
700.061	23.29
700.246	23.29
700.432	23.54
700.617	23.89
700.802	24.29
700.987	24.04
701.172	24.99
701.358	25.08
701.543	24.72
701.728	25
701.913	24.79
702.098	24.74
702.283	25.01
702.468	24.74
702.653	24.54
702.838	24.94
703.023	25.44
703.208	24.52
703.393	24.45
703.578	25.07
703.763	25.03
703.948	25.58
704.133	25.78
704.318	25.5
704.503	25.78
704.688	25.77
704.873	25.47
705.057	25.73
705.242	25.99
705.427	26.1
705.612	26.48
705.797	26.62
705.981	26.12
706.166	26.24
706.351	26.66
706.536	26.76
706.72	26.88
706.905	26.93
707.09	26.92
707.274	26.8
707.459	26.88
707.644	26.51
707.828	26.67
708.013	26.93
708.197	27.01
708.382	27
708.567	27.13
708.751	27.23
708.936	26.83
709.12	26.82
709.305	26.55
709.489	26.45
709.673	26.45
709.858	26.32
710.042	26.22
710.227	26.27
710.411	26.03
710.596	26.05
710.78	26.36
710.964	26.67
711.149	26.12
711.333	26.4
711.517	26.5
711.702	26.64
711.886	26.51
712.07	26.44
712.254	26.18
712.438	26.2
712.623	26
712.807	25.39
712.991	25.32
713.175	25.96
713.359	25.87
713.544	25.75
713.728	25.1
713.912	25
714.096	24.63
714.28	24.61
714.464	24.66
714.648	24.83
714.832	24.66
715.016	24.73
715.2	24.19
715.384	24.26
715.568	24.04
715.752	24.03
715.936	23.69
716.12	23.74
716.304	24.09
716.488	23.86
716.671	23.7
716.855	24.11
717.039	23.69
717.223	23.62
717.407	23.5
717.59	23.58
717.774	24.23
717.958	24.73
718.142	25.15
718.325	24.58
718.509	24.89
718.693	24.59
718.877	24.62
719.06	24.69
719.244	24.7
719.428	24.72
719.611	24.95
719.795	24.75
719.978	24.89
720.162	25.15
720.345	25.32
720.529	24.96
720.713	25.47
720.896	25.08
721.08	25.73
721.263	26.29
721.446	25.89
721.63	26.06
721.813	26.11
721.997	25.98
722.18	25.7
722.364	25.62
722.547	25.54
722.73	25.4
722.914	25.49
723.097	25.19
723.28	24.72
723.464	25.2
723.647	25.05
723.83	24.64
724.013	24.44
724.197	24.35
724.38	24.7
724.563	25.02
724.746	24.98
724.929	25.25
725.112	25.16
725.296	25.31
725.479	24.91
725.662	24.81
725.845	25.44
726.028	25.7
726.211	26.07
726.394	25.95
726.577	25.41
726.76	25.42
726.943	25.41
727.126	25.64
727.309	25.77
727.492	25.9
727.675	25.97
727.858	25.59
728.041	25.45
728.224	24.9
728.407	24.56
728.589	25.11
728.772	24.93
728.955	24.77
729.138	24.77
729.321	24.94
729.503	25.01
729.686	24.49
729.869	24.23
730.052	24.65
730.234	25.08
730.417	25.45
730.6	25.02
730.782	24.78
730.965	24.73
731.148	24.62
731.33	24.46
731.513	25.15
731.695	25.46
731.878	26.16
732.061	25.84
732.243	25.82
732.426	25.72
732.608	26.19
732.791	26.49
732.973	26.96
733.156	26.97
733.338	26.93
733.52	26.56
733.703	26.72
733.885	26.66
734.068	27.11
734.25	26.96
734.432	27.04
734.615	26.88
734.797	27.33
734.979	26.58
735.162	26.18
735.344	26.59
735.526	26.44
735.708	26.67
735.891	26.09
736.073	26.01
736.255	25.97
736.437	26.06
736.619	26.39
736.802	26.25
736.984	26.97
737.166	27.91
737.348	27.75
737.53	28.51
737.712	28.41
737.894	28.81
738.076	28.71
738.258	29.02
738.44	29.09
738.622	29.39
738.804	29.77
738.986	29.25
739.168	28.86
739.35	28.31
739.532	27.74
739.714	27.99
739.896	27.61
740.078	27.45
740.259	27.12
740.441	26.94
740.623	26.76
740.805	26.41
740.987	27.02
741.168	26.96
741.35	27.45
741.532	27.23
741.714	27.42
741.895	27.81
742.077	27.67
742.259	27.25
742.44	27.8
742.622	27.39
742.804	26.96
742.985	26.89
743.167	26.9
743.348	26.38
743.53	26.49
743.711	26.16
743.893	26.41
744.075	26.78
744.256	27.79
744.438	27.19
744.619	27.77
744.8	27.46
744.982	27.8
745.163	27.57
745.345	28.27
745.526	28.69
745.707	28.51
745.889	28.24
746.07	27.21
746.252	26.68
746.433	27.05
746.614	27.16
746.795	28.38
746.977	28.02
747.158	28.43
747.339	28.74
747.52	28.22
747.702	28.56
747.883	28.79
748.064	30.08
748.245	29.97
748.426	30.3
748.607	30.12
748.788	29.6
748.97	29.4
749.151	29.1
749.332	28.81
749.513	28.85
749.694	28.64
749.875	27.83
750.056	27.65
750.237	27.91
750.418	27.2
750.599	26.42
750.78	27.09
750.96	27.18
751.141	27.42
751.322	27.19
751.503	27.76
751.684	27.6
751.865	28.55
752.046	28.12
752.226	27.86
752.407	28.71
752.588	28.84
752.769	28.24
752.949	28.48
753.13	29.12
753.311	29.04
753.492	28.58
753.672	28.6
753.853	28.09
754.034	27.5
754.214	27.47
754.395	27.27
754.575	27.31
754.756	26.9
754.937	26.51
755.117	26.67
755.298	27.05
755.478	27.09
755.659	27.75
755.839	27.6
756.02	27.66
756.2	28.59
756.381	28.24
756.561	28.97
756.741	29.89
756.922	30.03
757.102	29.34
757.283	29.61
757.463	29.69
757.643	29.93
757.823	30.18
758.004	30.93
758.184	31.03
758.364	31.01
758.545	30.38
758.725	29.86
758.905	29.85
759.085	29.42
759.265	28.47
759.446	27.83
759.626	26.73
759.806	26.83
759.986	27.12
760.166	26.35
760.346	25.85
760.526	25.99
760.706	26.05
760.886	26.53
761.066	27.42
761.246	27.55
761.426	27.86
761.606	28.13
761.786	27.94
761.966	27.57
762.146	27.72
762.326	27.89
762.506	28.29
762.686	27.41
762.866	27.25
763.046	26.75
763.225	27.19
763.405	27.42
763.585	27.38
763.765	27.43
763.945	27.47
764.124	28.01
764.304	28.69
764.484	28.49
764.664	29.26
764.843	29.04
765.023	29.21
765.203	28.97
765.382	28.85
765.562	29.08
765.741	28.94
765.921	28.93
766.101	28.72
766.28	27.76
766.46	27.07
766.639	26.96
766.819	27.27
766.998	27.8
767.178	28.02
767.357	28.53
767.537	28.98
767.716	29.37
767.896	29.08
768.075	28.94
768.254	29.75
768.434	31.18
768.613	32.33
768.792	32.88
768.972	31.27
769.151	30.99
769.33	30.82
769.51	30.6
769.689	30.73
769.868	31.59
770.047	31.51
770.226	30.19
770.406	30.37
770.585	29.35
770.764	28.24
770.943	30.09
771.122	30.75
771.301	30.52
771.48	29.55
771.66	29.96
771.839	29.51
772.018	29.96
772.197	31.69
772.376	31.64
772.555	30.45
772.734	31.26
772.913	29.91
773.092	29.65
773.271	29.37
773.449	29.77
773.628	29.71
773.807	30.27
773.986	30.26
774.165	29.07
774.344	28.94
774.523	29.37
774.701	29.13
774.88	30.48
775.059	30.46
775.238	31.54
775.417	32.31
775.595	32.1
775.774	32.13
775.953	31.22
776.131	31.66
776.31	31.6
776.489	32.23
776.667	32.11
776.846	31.45
777.025	31.78
777.203	30.48
777.382	31.35
777.56	31.01
777.739	30.44
777.917	31.27
778.096	31.7
778.274	31.49
778.453	31.68
778.631	32.56
778.81	33.4
778.988	33.31
779.166	34.6
779.345	33.34
779.523	33.48
779.702	34.68
779.88	35.04
780.058	34.85
780.237	34.75
780.415	34.45
780.593	34.11
780.771	33.65
780.95	34.33
781.128	33.9
781.306	33.91
781.484	33.89
781.662	33.88
781.841	33.55
782.019	32.76
782.197	32.93
782.375	33.5
782.553	34.04
782.731	33.5
782.909	32.78
783.087	32
783.265	32.67
783.443	33.85
783.621	33.08
783.799	32.47
783.977	34.45
784.155	33.83
784.333	34.46
784.511	33.17
784.689	33.33
784.867	33.06
785.045	33.54
785.223	33.9
785.4	32.88
785.578	33.9
785.756	34.77
785.934	33.89
786.112	33.47
786.289	32.89
786.467	33.73
786.645	33.52
786.823	33.49
787	34.06
787.178	32.85
787.356	32.21
787.533	30.98
787.711	30.56
787.889	30.65
788.066	30.64
788.244	30.6
788.421	30.31
788.599	30.47
788.776	30.88
788.954	31.14
789.131	31.02
789.309	32.14
789.486	32.7
789.664	32.42
789.841	31.35
790.019	31.51
790.196	31.15
790.373	30.87
790.551	31.77
790.728	31.72
790.906	30.74
791.083	32.62
791.26	31.78
791.437	30.37
791.615	30.61
791.792	31.14
791.969	31.95
792.146	31.5
792.324	32.57
792.501	32.08
792.678	31.71
792.855	32.48
793.032	31.31
793.209	32.46
793.387	33.7
793.564	33.28
793.741	33.19
793.918	32.93
794.095	33.96
794.272	32.58
794.449	31.45
794.626	31.53
794.803	31.26
794.98	31.15
795.157	30.99
795.334	31.34
795.511	31.09
795.688	31.66
795.864	30.91
796.041	31.41
796.218	32.18
796.395	34.08
796.572	33.48
796.749	33.9
796.925	34.41
797.102	34.13
797.279	33.18
797.456	33.54
797.632	32.53
797.809	34.25
797.986	33.4
798.162	32.54
798.339	30.01
798.516	30.84
798.692	30.7
798.869	29.91
799.046	30.02
799.222	29.92
799.399	29.47
799.575	30.79
799.752	29.99
799.928	31.48
800.105	31.58
800.281	33.52
800.458	34.14
800.634	34.03
800.811	35.05
800.987	34.49
801.163	35.47
801.34	37.35
801.516	37.71
801.692	38.03
801.869	38.34
802.045	39.08
802.221	38.81
802.398	38.71
802.574	39.1
802.75	39.19
802.926	38.48
803.103	38.15
803.279	37.38
803.455	35.97
803.631	36.2
803.807	34.79
803.983	34.48
804.16	34.68
804.336	34.6
804.512	34.64
804.688	33.29
804.864	35.68
805.04	36.21
805.216	35.85
805.392	35.67
805.568	34.42
805.744	33.67
805.92	34.14
806.096	34.39
806.272	33.73
806.448	32.76
806.623	33.89
806.799	32.56
806.975	32.11
807.151	32.45
807.327	33.29
807.503	33.52
807.678	33.81
807.854	34.09
808.03	33.24
808.206	32.33
808.381	32.71
808.557	32.08
808.733	32.15
808.908	31.78
809.084	31.26
809.26	31.79
809.435	32.47
809.611	32.46
809.787	33.23
809.962	33
810.138	34.83
810.313	34.17
810.489	33.71
810.664	32.98
810.84	33.01
811.015	34.09
811.191	33.05
811.366	33.1
811.542	31.93
811.717	31.46
811.892	31.77
812.068	29.62
812.243	30.02
812.419	30.26
812.594	33.06
812.769	33.82
812.944	32.88
813.12	33.23
813.295	33.5
813.47	34.94
813.645	35.48
813.821	34.97
813.996	36.2
814.171	35.41
814.346	35.16
814.521	34.91
814.697	34.14
814.872	34.37
815.047	34.42
815.222	32.77
815.397	32.4
815.572	32.94
815.747	32.79
815.922	32.02
816.097	30.72
816.272	31.22
816.447	30.3
816.622	30.95
816.797	32.02
816.972	31.98
817.147	31.62
817.322	31.21
817.496	29.58
817.671	30.17
817.846	31.54
818.021	32.3
818.196	32.25
818.371	31.33
818.545	30.99
818.72	30.56
818.895	30.8
819.069	32.06
819.244	31.33
819.419	30.32
819.594	29.77
819.768	29.44
819.943	29.38
820.117	28.43
820.292	28.12
820.467	27.67
820.641	27.05
820.816	25.9
820.99	25.52
821.165	25.54
821.339	25.46
821.514	25.59
821.688	25.14
821.863	25.23
822.037	25.33
822.212	25.28
822.386	25.08
822.56	24.81
822.735	24.93
822.909	24.98
823.084	24.92
823.258	25.03
823.432	24.82
823.606	25.03
823.781	25
823.955	25.01
824.129	24.96
824.303	25.17
824.478	24.94
824.652	25.23
824.826	25.24
825	25.63
825.174	25.55
825.348	26.26
825.523	25.91
825.697	25.85
825.871	26.61
826.045	26.84
826.219	27.11
826.393	28.34
826.567	28.07
826.741	27.9
826.915	27.48
827.089	27.64
827.263	26.92
827.437	26.92
827.611	27.14
827.784	26.52
827.958	26.38
828.132	26.38
828.306	25.43
828.48	26.17
828.654	26.54
828.827	26.52
829.001	26.65
829.175	27.89
829.349	28.46
829.522	28.6
829.696	29.28
829.87	29.84
830.044	29.9
830.217	31.51
830.391	30.72
830.565	29.57
830.738	31.65
830.912	32.22
831.085	30.68
831.259	30.25
831.432	29.67
831.606	30.16
831.779	28.82
831.953	28.49
832.126	27.89
832.3	28.28
832.473	28.44
832.647	27.65
832.82	27.53
832.994	28.42
833.167	29.03
833.34	30.5
833.514	30.11
833.687	29.89
833.86	29.82
834.034	29.59
834.207	30.02
834.38	31.05
834.553	31.09
834.727	31.42
834.9	30.49
835.073	30.13
835.246	29.09
835.419	29.26
835.593	30.65
835.766	30.52
835.939	32.05
836.112	32.01
836.285	30.96
836.458	30.33
836.631	29.92
836.804	30.92
836.977	31.7
837.15	34.11
837.323	33.5
837.496	32.71
837.669	33.62
837.842	32.97
838.015	34.06
838.188	36.68
838.361	38.55
838.533	39.19
838.706	38.69
838.879	39.66
839.052	37.38
839.225	37.18
839.398	37.29
839.57	35.57
839.743	35.69
839.916	35.7
840.088	35.57
840.261	35.79
840.434	35.92
840.607	36.25
840.779	35.95
840.952	36.25
841.124	36.96
841.297	37.55
841.47	41.14
841.642	39.46
841.815	37.28
841.987	35.65
842.16	34.49
842.332	35.62
842.505	35.9
842.677	37.4
842.85	34.85
843.022	36.04
843.194	37.61
843.367	37.32
843.539	39.12
843.712	39.57
843.884	41.64
844.056	43
844.229	42.28
844.401	42.84
844.573	40.25
844.745	43.99
844.918	43.72
845.09	42.42
845.262	39.78
845.434	38.57
845.606	41.11
845.779	41.03
845.951	41.62
846.123	38.9
846.295	41.15
846.467	42.6
846.639	45.65
846.811	40.94
846.983	43.14
847.155	45.4
847.327	46.97
847.499	46.8
847.671	47.79
847.843	50.01
848.015	53.22
848.187	52.47
848.359	54.18
848.531	51.69
848.703	53.83
848.875	53.21
849.047	52.78
849.218	56.04
849.39	56.16
849.562	52.18
849.734	46.29
849.905	45.99
850.077	49.57
850.249	46.68
850.421	47.64
850.592	48.55
850.764	46.02
850.936	41.26
851.107	38.83
851.279	36.87
851.451	41.02
851.622	46.23
851.794	42.88
851.965	42.86
852.137	46.07
852.308	43.83
852.48	44.54
852.651	45.92
852.823	52.47
852.994	52.62
853.166	52.26
853.337	51.13
853.509	49.51
853.68	52.93
853.851	51.25
854.023	48.46
854.194	48.11
854.365	48.72
854.537	50.12
854.708	48.11
854.879	47.23
855.05	48.09
855.222	48.1
855.393	47.25
855.564	48.61
855.735	47.19
855.906	45.95
856.078	45.13
856.249	42.62
856.42	43
856.591	39.94
856.762	39.36
856.933	40.5
857.104	39.15
857.275	40.61
857.446	41.27
857.617	42.44
857.788	45.06
857.959	48.62
858.13	53.4
858.301	52.55
858.472	55.2
858.643	52.9
858.814	50.33
858.985	49.55
859.155	49.05
859.326	45.92
859.497	43.95
859.668	41.29
859.839	38.23
860.009	34.98
860.18	35.65
860.351	35.63
860.522	37.91
860.692	41.16
860.863	39.96
861.034	41.34
861.204	40.56
861.375	44.57
861.546	46.82
861.716	49.1
861.887	51.22
862.057	52.62
862.228	56.55
862.398	59.97
862.569	64.03
862.739	64.86
862.91	60.71
863.08	61.88
863.251	59
863.421	56.95
863.592	56.64
863.762	50.19
863.932	45.15
864.103	41.94
864.273	42.83
864.443	41.86
864.614	47.36
864.784	47.64
864.954	50.63
865.125	51.69
865.295	54.91
865.465	52.59
865.635	59.08
865.805	65.23
865.976	67.04
866.146	61.8
866.316	57.13
866.486	52.57
866.656	55.12
866.826	50.09
866.996	45.49
867.166	45.05
867.336	47.07
867.506	46.68
867.676	41.59
867.846	40.57
868.016	40.33
868.186	43.61
868.356	45.42
868.526	43.42
868.696	45.69
868.866	49.25
869.036	46.17
869.206	43.97
869.376	44.61
869.545	47.28
869.715	45.95
869.885	46.78
870.055	47.81
870.224	47.78
870.394	45.55
870.564	43.7
870.734	42.86
870.903	43.6
871.073	45.91
871.243	41.86
871.412	40.3
871.582	45.45
871.751	47.69
871.921	44.83
872.091	45.86
872.26	46.55
872.43	44.38
872.599	38.81
872.769	39.59
872.938	38.23
873.108	42.65
873.277	42.04
873.446	42.64
873.616	40.1
873.785	39.47
873.955	36.53
874.124	38.51
874.293	41.12
874.463	46.7
874.632	46.18
874.801	45.32
874.971	44.93
875.14	47.6
875.309	44.67
875.478	45.79
875.647	45.21
875.817	44.98
875.986	42.5
876.155	44.09
876.324	46.5
876.493	46.2
876.662	47.47
876.831	43.75
877	41.64
877.17	38.32
877.339	35.87
877.508	36.63
877.677	34.22
877.846	34.04
878.015	33.09
878.184	29.68
878.352	30.42
878.521	30.58
878.69	34.37
878.859	36.87
879.028	38.14
879.197	39.28
879.366	39.88
879.534	42.65
879.703	40.52
879.872	40.34
880.041	38.03
880.21	36.08
880.378	33.82
880.547	30.9
880.716	29.3
880.884	28.03
881.053	26.79
881.222	25.68
881.39	25.01
881.559	25.67
881.727	25.63
881.896	26.49
882.065	26.64
882.233	26.85
882.402	26.85
882.57	26.41
882.739	26.98
882.907	27.53
883.076	27.6
883.244	27.42
883.412	27.14
883.581	26.8
883.749	26.56
883.918	26.2
884.086	26.37
884.254	26.11
884.423	26.02
884.591	26.17
884.759	26.35
884.927	26.79
885.096	27.19
885.264	27.31
885.432	27.54
885.6	27.84
885.769	28.6
885.937	31.16
886.105	30.9
886.273	32.25
886.441	33.77
886.609	33.03
886.777	33.34
886.945	33.69
887.113	33.36
887.281	35
887.449	35.12
887.617	34.26
887.785	32.32
887.953	33.64
888.121	37.2
888.289	36.9
888.457	40.81
888.625	40.9
888.793	42.54
888.961	45.31
889.129	45.62
889.296	47.14
889.464	49.64
889.632	48.3
889.8	53.82
889.967	51.2
890.135	52.88
