Data from 2938796__Reflection_03.txt Node
Date: Fri Mar 13 10:36:36 EDT 2015
User: robert
Spectrometer: USB4E03002
Autoset integration time: false
Trigger mode: 4
Integration Time (sec): 1.000000E-1
Scans to average: 10
Electric dark correction enabled: false
Nonlinearity correction enabled: false
Boxcar width: 5
Stray light correction enabled: false
XAxis mode: Wavelengths
Stop averaging: false
Number of Pixels in Spectrum: 3648
>>>>>Begin Spectral Data<<<<<
177.575	231.89
177.794	288.27
178.014	296.24
178.233	432.48
178.452	435.9
178.672	501.05
178.891	633.2
179.11	748.68
179.33	906.45
179.549	682.86
179.768	1174.31
179.987	2074.32
180.207	728.7
180.426	8666.67
180.645	628.83
180.864	502.07
181.084	503.49
181.303	480.26
181.522	365.19
181.741	338.74
181.96	442.64
182.179	503.23
182.398	816.67
182.618	11406.67
182.837	452.98
183.056	641.11
183.275	639.86
183.494	697.27
183.713	526.45
183.932	1302.83
184.151	1215.74
184.37	642.71
184.589	1145.71
184.808	376.74
185.027	365.71
185.246	480.69
185.465	372.61
185.684	418.18
185.903	313.65
186.122	320.93
186.341	291.05
186.56	276.19
186.779	276.34
186.998	295.75
187.216	389.12
187.435	419.79
187.654	1030.77
187.873	2612.5
188.092	2427.66
188.311	15357.14
188.53	-892.92
188.748	-1098.81
188.967	-552.98
189.186	-1895.45
189.405	592.81
189.623	485.65
189.842	321.21
190.061	336.81
190.28	432.23
190.498	1101.02
190.717	590.37
190.936	743.42
191.154	721.35
191.373	592.89
191.592	1054.01
191.81	1207.44
192.029	1288.46
192.248	2764.58
192.466	959.24
192.685	947.17
192.904	763.02
193.122	1598.84
193.341	608.43
193.559	2900
193.778	-3920
193.996	9700
194.215	7552.38
194.433	-2740
194.652	-10093.75
194.87	-2284.72
195.089	7108.33
195.307	1088.89
195.526	2378.08
195.744	1140.52
195.963	570.72
196.181	454.24
196.399	520.29
196.618	660
196.836	637.36
197.055	569.4
197.273	394.23
197.491	673.25
197.71	802.7
197.928	578.73
198.146	704.23
198.365	651.83
198.583	692.02
198.801	430.97
199.019	371.91
199.238	309.84
199.456	376.82
199.674	592.12
199.892	355.93
200.111	332.13
200.329	328.22
200.547	280.93
200.765	344.54
200.983	288.42
201.202	314.86
201.42	277.01
201.638	292.02
201.856	327.18
202.074	255.38
202.292	251.19
202.51	256.62
202.728	292.59
202.946	360.91
203.165	310.82
203.383	333.16
203.601	387.08
203.819	606.35
204.037	617.75
204.255	665.85
204.473	830.93
204.691	584.72
204.909	852.94
205.127	950.24
205.345	1015.52
205.562	2046.91
205.78	2063.75
205.998	776.36
206.216	571.79
206.434	461.6
206.652	274.69
206.87	320.44
207.088	429.97
207.306	367.34
207.523	291.04
207.741	315.76
207.959	330.22
208.177	318.28
208.395	444.52
208.612	451.52
208.83	497.05
209.048	1855.77
209.266	408.07
209.483	511.71
209.701	356.83
209.919	470.43
210.136	280.96
210.354	225.9
210.572	223.49
210.79	252.1
211.007	245.67
211.225	322.68
211.442	283.06
211.66	288.65
211.878	205.07
212.095	196.78
212.313	190.19
212.53	201.76
212.748	212.64
212.966	262.24
213.183	211.4
213.401	155.13
213.618	177.96
213.836	193.25
214.053	307.67
214.271	886.67
214.488	-630.18
214.705	-478.51
214.923	-320.59
215.14	-578.8
215.358	-885.22
215.575	-4840
215.793	-433.46
216.01	-850.41
216.227	-6136.36
216.445	690.82
216.662	474.25
216.879	293.27
217.097	223.85
217.314	209.63
217.531	207.28
217.749	223.15
217.966	203.82
218.183	214.38
218.4	186.41
218.618	161.67
218.835	157.44
219.052	160.96
219.269	166.89
219.487	155.26
219.704	158.5
219.921	175.11
220.138	169.37
220.355	167.64
220.572	148.42
220.79	132.98
221.007	120.62
221.224	116.41
221.441	92.47
221.658	79.53
221.875	72.86
222.092	67.92
222.309	55.39
222.526	45.41
222.743	53.38
222.96	52.07
223.177	56.79
223.394	59.55
223.611	61.65
223.828	62.86
224.045	60.49
224.262	60.86
224.479	62.1
224.696	59.97
224.913	63.72
225.13	55.36
225.347	47.54
225.564	46.34
225.781	40.29
225.997	37.48
226.214	37.91
226.431	34.94
226.648	31.48
226.865	28.28
227.082	26.03
227.298	22.7
227.515	20.42
227.732	19.42
227.949	17.14
228.165	18.09
228.382	16.99
228.599	15.07
228.816	14.18
229.032	13.4
229.249	14.14
229.466	13.84
229.682	13.07
229.899	13.43
230.116	13.47
230.332	13.71
230.549	12.59
230.765	13.81
230.982	14.1
231.199	14.43
231.415	14.78
231.632	13.77
231.848	15.87
232.065	17.56
232.281	18.97
232.498	18.52
232.714	20.75
232.931	20.52
233.147	19.16
233.364	19.8
233.58	19.29
233.797	21.65
234.013	21.79
234.23	19.59
234.446	18.36
234.662	17.59
234.879	19.58
235.095	18.58
235.312	19.89
235.528	20.12
235.744	19.6
235.961	20.93
236.177	20.77
236.393	19.44
236.61	20.22
236.826	19.92
237.042	20.81
237.258	20.65
237.475	21.21
237.691	20.41
237.907	20.61
238.123	20.99
238.339	21
238.556	20.88
238.772	21.49
238.988	19.88
239.204	21.01
239.42	18.93
239.636	18.81
239.853	17.54
240.069	17.05
240.285	17.24
240.501	16.17
240.717	15.1
240.933	13.99
241.149	12.86
241.365	13.4
241.581	12.69
241.797	13.18
242.013	12.14
242.229	11.56
242.445	11.34
242.661	10.11
242.877	9.94
243.093	10.19
243.309	10.26
243.525	10.56
243.741	10.45
243.957	10.84
244.173	10.33
244.388	10.87
244.604	11.43
244.82	11.73
245.036	11.88
245.252	11.58
245.468	10.9
245.683	10.19
245.899	10.17
246.115	9.35
246.331	9.22
246.547	8.97
246.762	8.63
246.978	8.47
247.194	8.23
247.409	8.42
247.625	8.54
247.841	8.39
248.057	8.46
248.272	8.29
248.488	8.21
248.703	7.87
248.919	7.82
249.135	8.07
249.35	8.05
249.566	8.48
249.782	8.58
249.997	9.13
250.213	9.61
250.428	10.18
250.644	10.33
250.859	11.49
251.075	11.66
251.29	11.71
251.506	10.75
251.721	11.07
251.937	10.64
252.152	10.58
252.368	10.37
252.583	10.19
252.798	10.15
253.014	10.74
253.229	10.04
253.445	11.22
253.66	11.41
253.875	12.26
254.091	12.49
254.306	12.26
254.521	11.91
254.737	11.98
254.952	12.93
255.167	12.5
255.383	11.86
255.598	12.65
255.813	11.3
256.028	11.66
256.244	11.38
256.459	11.31
256.674	10.99
256.889	11.29
257.104	10.05
257.32	9.25
257.535	9.34
257.75	9.07
257.965	8.06
258.18	7.85
258.395	7.22
258.61	7.15
258.826	6.54
259.041	6.93
259.256	6.69
259.471	6.83
259.686	6.57
259.901	6.35
260.116	6.48
260.331	6.55
260.546	6.46
260.761	6.48
260.976	6.5
261.191	6.93
261.406	6.95
261.621	7.15
261.836	7.47
262.05	7.84
262.265	8.24
262.48	8.35
262.695	8.62
262.91	8.67
263.125	8.93
263.34	9.39
263.555	9.34
263.769	9.56
263.984	9.31
264.199	9.32
264.414	9.72
264.629	9.04
264.843	8.63
265.058	8.66
265.273	8.67
265.488	8.6
265.702	8.18
265.917	7.7
266.132	6.76
266.346	6.72
266.561	6.46
266.776	6.17
266.99	6.92
267.205	6.89
267.42	7.21
267.634	7.27
267.849	7.74
268.063	7.9
268.278	8.15
268.492	8.92
268.707	9.49
268.922	9.8
269.136	9.78
269.351	9.51
269.565	9.67
269.78	9.42
269.994	9.68
270.209	9.32
270.423	9.19
270.637	8.91
270.852	8.34
271.066	8.2
271.281	7.85
271.495	7.94
271.709	7.97
271.924	8.03
272.138	7.78
272.353	7.79
272.567	7.55
272.781	7.27
272.996	7.13
273.21	7.31
273.424	7.28
273.638	7.12
273.853	6.78
274.067	6.82
274.281	6.81
274.495	6.78
274.71	7.08
274.924	6.91
275.138	7.62
275.352	7.8
275.566	7.77
275.781	7.63
275.995	8.35
276.209	8.67
276.423	8.44
276.637	8.75
276.851	8.96
277.065	8.66
277.279	9.01
277.493	8.43
277.707	8.65
277.921	9.01
278.135	9
278.349	8.6
278.563	8.7
278.777	8.94
278.991	8.11
279.205	7.87
279.419	7.7
279.633	7.61
279.847	7.86
280.061	7.89
280.275	7.64
280.489	7.19
280.703	6.79
280.917	6.77
281.131	6.43
281.344	6.69
281.558	6.77
281.772	6.69
281.986	6.99
282.2	7.15
282.414	6.93
282.627	6.43
282.841	6.68
283.055	6.83
283.269	6.68
283.482	6.72
283.696	6.3
283.91	6.26
284.123	6.16
284.337	5.88
284.551	5.52
284.764	5.4
284.978	5.65
285.192	5.46
285.405	5.57
285.619	5.5
285.833	5.68
286.046	5.77
286.26	5.94
286.473	6.06
286.687	6.04
286.9	5.93
287.114	5.81
287.327	5.99
287.541	6.21
287.754	6.15
287.968	6.12
288.181	5.77
288.395	6.01
288.608	5.7
288.822	5.4
289.035	5.43
289.248	5.38
289.462	5.44
289.675	5.38
289.889	5.04
290.102	5.1
290.315	5.11
290.529	5.06
290.742	5
290.955	5.14
291.169	5.37
291.382	5.35
291.595	5.84
291.808	5.81
292.022	5.75
292.235	6.03
292.448	5.65
292.661	6.12
292.875	6.23
293.088	6.52
293.301	6.25
293.514	6.27
293.727	6.14
293.94	5.7
294.153	6.01
294.367	5.75
294.58	5.6
294.793	5.96
295.006	5.96
295.219	6.33
295.432	6.16
295.645	6.31
295.858	6.05
296.071	6.14
296.284	6.42
296.497	6.34
296.71	6.34
296.923	6.51
297.136	6.56
297.349	6.3
297.562	6
297.775	6.05
297.988	6.29
298.201	6.51
298.414	6.66
298.626	6.47
298.839	6.74
299.052	6.89
299.265	7.18
299.478	6.99
299.691	7.16
299.903	7.44
300.116	7.72
300.329	7.7
300.542	8.06
300.755	7.9
300.967	8.04
301.18	7.79
301.393	7.9
301.605	7.42
301.818	7.62
302.031	7.69
302.243	7.87
302.456	7.89
302.669	7.93
302.881	7.69
303.094	7.78
303.307	8.17
303.519	7.99
303.732	8.02
303.944	8.22
304.157	8.4
304.37	8.35
304.582	7.81
304.795	7.38
305.007	7.13
305.22	7.08
305.432	6.89
305.645	6.69
305.857	6.78
306.069	6.8
306.282	6.66
306.494	6.51
306.707	6.25
306.919	6.9
307.132	6.98
307.344	6.89
307.556	6.99
307.769	7.45
307.981	7.27
308.193	7.49
308.406	7.44
308.618	7.69
308.83	7.44
309.043	7.58
309.255	7.37
309.467	7.6
309.679	7.64
309.892	7.66
310.104	7.22
310.316	7.41
310.528	7.46
310.74	7.54
310.953	7.62
311.165	7.78
311.377	8
311.589	8.05
311.801	7.78
312.013	7.81
312.225	7.87
312.437	8.07
312.649	8.03
312.862	8.27
313.074	8.18
313.286	8.09
313.498	8.19
313.71	8.09
313.922	7.96
314.134	8.63
314.346	8.99
314.558	9.24
314.77	9.39
314.982	8.88
315.193	8.65
315.405	8.87
315.617	8.63
315.829	8.91
316.041	8.86
316.253	8.77
316.465	8.46
316.677	8.25
316.888	7.71
317.1	7.56
317.312	8.04
317.524	8.47
317.736	8.38
317.947	8.73
318.159	8.58
318.371	8.76
318.583	9.29
318.794	9.28
319.006	9.46
319.218	9.76
319.43	9.62
319.641	9.74
319.853	9.29
320.064	9.61
320.276	9.45
320.488	9.87
320.699	9.64
320.911	9.44
321.123	9.34
321.334	9.47
321.546	9.51
321.757	10.63
321.969	11.04
322.18	11.13
322.392	11.39
322.603	11.21
322.815	10.95
323.026	11.02
323.238	10.58
323.449	10.29
323.661	10.5
323.872	10.42
324.083	9.77
324.295	9.31
324.506	9.37
324.718	8.87
324.929	9.25
325.14	9.25
325.352	9.36
325.563	9.72
325.774	10.01
325.986	9.52
326.197	9.81
326.408	9.58
326.62	9.52
326.831	9.49
327.042	9.49
327.253	9.42
327.464	9.14
327.676	9.13
327.887	9.1
328.098	9.1
328.309	9.73
328.52	9.52
328.732	9.84
328.943	9.83
329.154	9.75
329.365	10.06
329.576	10.08
329.787	10.54
329.998	10.79
330.209	10.96
330.42	10.79
330.631	10.39
330.842	10.29
331.053	10.38
331.264	10.65
331.475	10.83
331.686	10.99
331.897	11.34
332.108	11.29
332.319	10.91
332.53	10.96
332.741	11.27
332.952	10.86
333.163	10.65
333.374	10.9
333.585	10.73
333.795	10.66
334.006	9.99
334.217	9.61
334.428	9.47
334.639	9.78
334.849	9.81
335.06	9.71
335.271	10.14
335.482	10.1
335.692	9.88
335.903	10.14
336.114	10.08
336.325	10.5
336.535	10.84
336.746	10.91
336.957	10.61
337.167	10.2
337.378	9.93
337.589	9.74
337.799	9.87
338.01	9.7
338.22	9.41
338.431	9.3
338.642	9.18
338.852	9.03
339.063	9.07
339.273	8.88
339.484	8.76
339.694	9.38
339.905	9.74
340.115	9.62
340.326	9.38
340.536	9.62
340.746	9.7
340.957	9.6
341.167	9.27
341.378	9.07
341.588	9.24
341.799	9.81
342.009	9.36
342.219	9.35
342.43	9.51
342.64	9.68
342.85	9.41
343.061	9.43
343.271	9.72
343.481	9.8
343.691	9.77
343.902	9.59
344.112	9.27
344.322	9.34
344.532	9.28
344.743	9.11
344.953	9.23
345.163	9.29
345.373	8.92
345.583	8.62
345.793	8.92
346.004	8.91
346.214	9.35
346.424	9.46
346.634	9.39
346.844	9.32
347.054	9.41
347.264	9.17
347.474	9.69
347.684	10.12
347.894	10.05
348.104	9.53
348.314	9.33
348.524	9.13
348.734	9
348.944	8.57
349.154	8.44
349.364	8.51
349.574	8.66
349.784	8.27
349.994	8.1
350.204	8.34
350.413	8.62
350.623	8.74
350.833	8.63
351.043	8.71
351.253	9.44
351.463	9.34
351.672	9.35
351.882	9.34
352.092	9.43
352.302	9.6
352.511	9.6
352.721	9.69
352.931	9.93
353.141	10.1
353.35	10.07
353.56	9.52
353.77	9.28
353.979	9.14
354.189	9.07
354.399	8.92
354.608	8.84
354.818	8.93
355.027	8.59
355.237	8.44
355.447	8.26
355.656	8.5
355.866	8.71
356.075	8.7
356.285	8.72
356.494	8.85
356.704	8.92
356.913	8.74
357.123	8.67
357.332	8.79
357.542	8.71
357.751	8.74
357.96	8.42
358.17	8.29
358.379	8.26
358.589	8.29
358.798	8.2
359.007	8.08
359.217	8.14
359.426	8.16
359.635	7.92
359.845	8.07
360.054	7.93
360.263	7.91
360.472	7.81
360.682	7.86
360.891	7.77
361.1	7.64
361.309	7.33
361.519	7.36
361.728	7.26
361.937	7.36
362.146	7.25
362.355	7.43
362.564	7.5
362.774	7.67
362.983	7.8
363.192	7.76
363.401	7.86
363.61	8.32
363.819	8.22
364.028	8.16
364.237	8.16
364.446	8
364.655	7.84
364.864	7.76
365.073	7.62
365.282	7.53
365.491	7.44
365.7	7.23
365.909	7.19
366.118	7.39
366.327	7.62
366.536	7.81
366.745	8.04
366.954	8.17
367.162	8.28
367.371	8.27
367.58	8.25
367.789	8.38
367.998	8.5
368.207	8.44
368.415	8.13
368.624	7.86
368.833	7.44
369.042	7.24
369.25	7.11
369.459	7.33
369.668	7.15
369.877	7.21
370.085	7.41
370.294	7.35
370.503	7.19
370.711	7.4
370.92	7.36
371.129	7.67
371.337	7.74
371.546	7.8
371.754	7.47
371.963	7.58
372.171	7.72
372.38	7.36
372.589	7.3
372.797	7.34
373.006	7.04
373.214	6.95
373.423	6.73
373.631	6.71
373.84	6.67
374.048	6.57
374.256	6.83
374.465	6.58
374.673	6.73
374.882	6.74
375.09	6.8
375.298	7.16
375.507	7.07
375.715	7.06
375.923	7.14
376.132	6.98
376.34	6.9
376.548	6.66
376.757	6.66
376.965	6.75
377.173	6.69
377.381	6.56
377.59	6.46
377.798	6.65
378.006	6.72
378.214	6.63
378.423	6.63
378.631	6.8
378.839	6.95
379.047	7.23
379.255	7.08
379.463	7.25
379.671	7.34
379.879	7.41
380.088	7.39
380.296	7.36
380.504	7.23
380.712	7.45
380.92	7.35
381.128	7.15
381.336	6.82
381.544	6.65
381.752	6.54
381.96	6.25
382.168	5.88
382.376	6.02
382.584	6.06
382.791	6.08
382.999	5.87
383.207	5.71
383.415	5.54
383.623	5.42
383.831	5.57
384.039	5.59
384.247	5.92
384.454	6.14
384.662	6.16
384.87	6.16
385.078	6.32
385.285	6.27
385.493	6.41
385.701	6.59
385.909	6.74
386.116	6.68
386.324	6.55
386.532	6.35
386.739	6.35
386.947	6.19
387.155	6.01
387.362	5.75
387.57	5.82
387.778	5.72
387.985	5.68
388.193	5.56
388.4	5.53
388.608	5.74
388.816	5.71
389.023	5.75
389.231	5.71
389.438	5.77
389.646	5.8
389.853	5.64
390.061	5.58
390.268	5.61
390.475	5.75
390.683	6.01
390.89	5.95
391.098	6.02
391.305	5.83
391.512	5.83
391.72	5.68
391.927	5.71
392.135	5.78
392.342	5.85
392.549	5.87
392.756	5.83
392.964	5.56
393.171	5.59
393.378	5.47
393.586	5.5
393.793	5.44
394	5.5
394.207	5.53
394.414	5.57
394.622	5.6
394.829	5.5
395.036	5.36
395.243	5.45
395.45	5.31
395.657	5.5
395.864	5.37
396.072	5.42
396.279	5.44
396.486	5.44
396.693	5.22
396.9	5.14
397.107	5.15
397.314	5.35
397.521	5.25
397.728	5.27
397.935	5.21
398.142	5.31
398.349	5.09
398.556	5.18
398.763	5.21
398.97	5.32
399.177	5.18
399.383	5.26
399.59	5.29
399.797	5.21
400.004	5.12
400.211	5
400.418	5.14
400.625	5.23
400.831	5.3
401.038	5.31
401.245	5.39
401.452	5.31
401.658	5.29
401.865	4.93
402.072	4.98
402.279	5.09
402.485	5.04
402.692	4.89
402.899	4.79
403.105	4.75
403.312	4.63
403.519	4.68
403.725	4.7
403.932	4.63
404.138	4.76
404.345	4.87
404.552	4.84
404.758	4.82
404.965	4.86
405.171	5.09
405.378	5.05
405.584	5
405.791	4.81
405.997	4.95
406.204	5.12
406.41	5.04
406.617	4.97
406.823	4.95
407.029	5.09
407.236	5.12
407.442	5.1
407.649	5.14
407.855	5.21
408.061	5.28
408.268	5.17
408.474	5.12
408.68	5.18
408.887	5.1
409.093	5
409.299	4.77
409.505	4.55
409.712	4.49
409.918	4.3
410.124	4.22
410.33	4.28
410.537	4.22
410.743	4.32
410.949	4.41
411.155	4.54
411.361	4.55
411.567	4.63
411.773	4.74
411.98	4.66
412.186	4.93
412.392	5.07
412.598	4.9
412.804	5.05
413.01	4.81
413.216	4.65
413.422	4.49
413.628	4.57
413.834	4.64
414.04	4.56
414.246	4.63
414.452	4.46
414.658	4.44
414.864	4.6
415.07	4.47
415.275	4.48
415.481	4.5
415.687	4.55
415.893	4.41
416.099	4.42
416.305	4.48
416.511	4.38
416.716	4.34
416.922	4.26
417.128	4.21
417.334	4.29
417.539	4.2
417.745	4.1
417.951	4.02
418.157	3.94
418.362	3.82
418.568	3.84
418.774	3.81
418.979	3.82
419.185	3.84
419.391	3.86
419.596	3.85
419.802	3.9
420.008	3.95
420.213	3.46
420.419	3.54
420.624	3.54
420.83	3.53
421.035	3.51
421.241	3.44
421.446	3.4
421.652	3.36
421.857	3.29
422.063	3.22
422.268	3.24
422.474	3.71
422.679	3.76
422.885	3.85
423.09	3.78
423.295	3.77
423.501	3.79
423.706	3.81
423.911	3.79
424.117	3.8
424.322	3.79
424.527	3.74
424.733	3.77
424.938	3.72
425.143	3.62
425.349	3.63
425.554	3.68
425.759	3.74
425.964	3.77
426.169	3.77
426.375	3.8
426.58	3.89
426.785	3.92
426.99	3.89
427.195	3.89
427.4	3.98
427.605	4.07
427.811	4.07
428.016	3.98
428.221	3.88
428.426	3.98
428.631	4.03
428.836	4.05
429.041	4.06
429.246	4.12
429.451	4.14
429.656	4.08
429.861	4.12
430.066	4.11
430.271	4.14
430.476	4.24
430.681	4.27
430.886	4.19
431.09	4.1
431.295	4.09
431.5	4.05
431.705	4.07
431.91	4.12
432.115	4.17
432.32	4.24
432.524	4.19
432.729	4.16
432.934	4.12
433.139	4.12
433.343	4.13
433.548	4.08
433.753	4.06
433.958	3.98
434.162	3.97
434.367	3.87
434.572	3.84
434.776	3.87
434.981	3.83
435.186	3.77
435.39	3.86
435.595	3.95
435.799	4.05
436.004	4.03
436.209	4.03
436.413	3.95
436.618	3.89
436.822	3.82
437.027	3.9
437.231	3.92
437.436	3.95
437.64	3.81
437.845	3.7
438.049	3.61
438.253	3.62
438.458	3.65
438.662	3.74
438.867	3.76
439.071	3.78
439.275	3.7
439.48	3.72
439.684	3.78
439.888	3.74
440.093	3.71
440.297	3.65
440.501	3.67
440.706	3.7
440.91	3.66
441.114	3.7
441.318	3.67
441.523	3.71
441.727	3.68
441.931	3.52
442.135	3.54
442.339	3.61
442.543	3.78
442.748	3.68
442.952	3.65
443.156	3.71
443.36	3.67
443.564	3.77
443.768	3.7
443.972	3.7
444.176	3.81
444.38	3.89
444.584	3.91
444.788	3.87
444.992	3.97
445.196	3.96
445.4	3.82
445.604	3.78
445.808	3.79
446.012	3.81
446.216	3.8
446.42	3.76
446.624	3.73
446.828	3.67
447.032	3.68
447.235	3.6
447.439	3.6
447.643	3.75
447.847	3.74
448.051	3.68
448.254	3.66
448.458	3.69
448.662	3.67
448.866	3.69
449.069	3.69
449.273	3.6
449.477	3.65
449.681	3.58
449.884	3.57
450.088	3.63
450.292	3.63
450.495	3.68
450.699	3.62
450.902	3.59
451.106	3.6
451.31	3.72
451.513	3.75
451.717	3.72
451.92	3.85
452.124	3.64
452.327	3.66
452.531	3.65
452.734	3.63
452.938	3.65
453.141	3.71
453.345	3.71
453.548	3.6
453.752	3.67
453.955	3.74
454.158	3.59
454.362	3.64
454.565	3.59
454.769	3.61
454.972	3.63
455.175	3.61
455.379	3.63
455.582	3.61
455.785	3.56
455.988	3.57
456.192	3.6
456.395	3.75
456.598	3.74
456.801	3.8
457.005	3.83
457.208	3.91
457.411	3.9
457.614	3.85
457.817	3.78
458.021	3.78
458.224	3.73
458.427	3.69
458.63	3.63
458.833	3.65
459.036	3.63
459.239	3.63
459.442	3.61
459.645	3.62
459.848	3.61
460.051	3.63
460.254	3.68
460.457	3.71
460.66	3.76
460.863	3.71
461.066	3.8
461.269	3.81
461.472	3.83
461.675	3.81
461.878	3.9
462.081	3.97
462.284	4.04
462.486	3.99
462.689	3.99
462.892	3.97
463.095	4.09
463.298	3.99
463.5	4.04
463.703	4
463.906	3.98
464.109	3.9
464.311	3.84
464.514	3.86
464.717	3.95
464.92	3.99
465.122	3.96
465.325	3.97
465.528	4.04
465.73	4.01
465.933	4.04
466.135	4.02
466.338	4
466.541	3.94
466.743	3.9
466.946	3.84
467.148	3.77
467.351	3.81
467.553	3.73
467.756	3.6
467.958	3.69
468.161	3.72
468.363	3.65
468.566	3.7
468.768	3.68
468.971	3.72
469.173	3.72
469.375	3.72
469.578	3.71
469.78	3.77
469.983	3.8
470.185	3.85
470.387	3.75
470.59	3.79
470.792	3.77
470.994	3.8
471.196	3.85
471.399	3.82
471.601	3.87
471.803	3.91
472.005	3.86
472.208	3.97
472.41	3.79
472.612	3.79
472.814	3.9
473.016	3.88
473.218	4.07
473.421	4
473.623	4.04
473.825	4.05
474.027	4.07
474.229	4.06
474.431	4.01
474.633	3.96
474.835	4.06
475.037	4.02
475.239	4.09
475.441	3.98
475.643	4.05
475.845	4.17
476.047	4.03
476.249	3.97
476.451	4.01
476.653	4.03
476.855	4.12
477.057	4.01
477.258	3.95
477.46	3.97
477.662	3.9
477.864	3.82
478.066	3.71
478.268	3.69
478.469	3.7
478.671	3.68
478.873	3.7
479.075	3.64
479.276	3.63
479.478	3.59
479.68	3.53
479.882	3.54
480.083	3.58
480.285	3.68
480.487	3.8
480.688	3.79
480.89	3.75
481.091	3.65
481.293	3.61
481.495	3.58
481.696	3.58
481.898	3.51
482.099	3.5
482.301	3.45
482.502	3.34
482.704	3.29
482.905	3.27
483.107	3.24
483.308	3.22
483.51	3.22
483.711	3.23
483.913	3.2
484.114	3.2
484.315	3.19
484.517	3.16
484.718	3.18
484.92	3.15
485.121	3.12
485.322	3.17
485.524	3.2
485.725	3.19
485.926	3.2
486.127	3.22
486.329	3.22
486.53	3.21
486.731	3.24
486.932	3.27
487.134	3.33
487.335	3.33
487.536	3.32
487.737	3.32
487.938	3.32
488.139	3.32
488.341	3.35
488.542	3.37
488.743	3.42
488.944	3.46
489.145	3.46
489.346	3.46
489.547	3.48
489.748	3.47
489.949	3.5
490.15	3.52
490.351	3.52
490.552	3.49
490.753	3.48
490.954	3.44
491.155	3.41
491.356	3.37
491.557	3.36
491.758	3.38
491.959	3.37
492.159	3.39
492.36	3.4
492.561	3.41
492.762	3.42
492.963	3.44
493.164	3.46
493.364	3.48
493.565	3.53
493.766	3.58
493.967	3.58
494.167	3.62
494.368	3.59
494.569	3.64
494.769	3.65
494.97	3.68
495.171	3.69
495.371	3.72
495.572	3.75
495.773	3.75
495.973	3.75
496.174	3.8
496.375	3.87
496.575	3.87
496.776	3.85
496.976	3.87
497.177	3.88
497.377	3.99
497.578	3.96
497.778	3.98
497.979	4.06
498.179	3.99
498.38	3.94
498.58	3.9
498.78	3.9
498.981	3.89
499.181	3.82
499.382	3.85
499.582	3.76
499.782	3.75
499.983	3.71
500.183	3.66
500.383	3.71
500.584	3.79
500.784	3.77
500.984	3.88
501.184	3.98
501.385	4.07
501.585	4.17
501.785	4.17
501.985	4.27
502.185	4.32
502.386	4.3
502.586	4.41
502.786	4.42
502.986	4.49
503.186	4.34
503.386	4.42
503.586	4.41
503.786	4.39
503.987	4.44
504.187	4.41
504.387	4.49
504.587	4.58
504.787	4.54
504.987	4.51
505.187	4.57
505.387	4.69
505.587	4.64
505.786	4.7
505.986	4.68
506.186	4.65
506.386	4.7
506.586	4.63
506.786	4.55
506.986	4.58
507.186	4.63
507.386	4.69
507.585	4.68
507.785	4.75
507.985	4.75
508.185	4.85
508.384	4.91
508.584	4.89
508.784	4.98
508.984	5.02
509.183	5.03
509.383	5.12
509.583	5.05
509.782	5.09
509.982	5.1
510.182	5.1
510.381	5.1
510.581	5.19
510.781	5.28
510.98	5.28
511.18	5.33
511.379	5.38
511.579	5.37
511.778	5.39
511.978	5.41
512.177	5.4
512.377	5.42
512.576	5.42
512.776	5.42
512.975	5.38
513.175	5.4
513.374	5.41
513.573	5.43
513.773	5.5
513.972	5.62
514.172	5.7
514.371	5.75
514.57	5.78
514.77	5.94
514.969	5.98
515.168	5.98
515.367	6.04
515.567	6.16
515.766	6.22
515.965	6.25
516.164	6.29
516.364	6.31
516.563	6.3
516.762	6.41
516.961	6.45
517.16	6.57
517.359	6.64
517.559	6.67
517.758	6.69
517.957	6.72
518.156	6.7
518.355	6.69
518.554	6.68
518.753	6.75
518.952	6.76
519.151	6.74
519.35	6.66
519.549	6.76
519.748	6.8
519.947	6.9
520.146	6.93
520.345	6.99
520.544	7.06
520.743	7.15
520.942	7.24
521.141	7.32
521.339	7.37
521.538	7.44
521.737	7.45
521.936	7.56
522.135	7.55
522.333	7.57
522.532	7.65
522.731	7.69
522.93	7.74
523.129	7.79
523.327	7.88
523.526	7.88
523.725	7.99
523.923	8.03
524.122	8.02
524.321	8.04
524.519	8.13
524.718	8.16
524.917	8.25
525.115	8.31
525.314	8.32
525.512	8.4
525.711	8.49
525.909	8.53
526.108	8.59
526.306	8.65
526.505	8.68
526.703	8.66
526.902	8.73
527.1	8.72
527.299	8.74
527.497	8.77
527.696	8.81
527.894	8.83
528.092	8.88
528.291	8.91
528.489	8.96
528.688	9.03
528.886	9.11
529.084	9.15
529.283	9.23
529.481	9.3
529.679	9.37
529.877	9.37
530.076	9.45
530.274	9.49
530.472	9.55
530.67	9.6
530.869	9.68
531.067	9.75
531.265	9.83
531.463	9.89
531.661	9.97
531.859	10.02
532.057	10.12
532.255	10.16
532.454	10.23
532.652	10.3
532.85	10.38
533.048	10.4
533.246	10.43
533.444	10.48
533.642	10.53
533.84	10.58
534.038	10.65
534.236	10.72
534.434	10.8
534.632	10.88
534.83	10.89
535.027	10.94
535.225	11.04
535.423	11.11
535.621	11.15
535.819	11.25
536.017	11.31
536.215	11.33
536.412	11.39
536.61	11.41
536.808	11.47
537.006	11.56
537.203	11.62
537.401	11.67
537.599	11.75
537.797	11.78
537.994	11.77
538.192	11.84
538.39	11.92
538.587	12.01
538.785	12.07
538.983	12.08
539.18	12.22
539.378	12.24
539.575	12.38
539.773	12.5
539.97	12.57
540.168	12.6
540.366	12.7
540.563	12.74
540.761	12.74
540.958	12.78
541.155	12.82
541.353	12.89
541.55	12.94
541.748	12.9
541.945	12.92
542.143	13.01
542.34	13.12
542.537	13.15
542.735	13.28
542.932	13.43
543.129	13.55
543.327	13.69
543.524	13.73
543.721	13.91
543.919	14.11
544.116	14.19
544.313	14.26
544.51	14.36
544.708	14.43
544.905	14.43
545.102	14.45
545.299	14.55
545.496	14.59
545.693	14.68
545.891	14.74
546.088	14.71
546.285	14.81
546.482	14.9
546.679	14.94
546.876	15.08
547.073	15.19
547.27	15.3
547.467	15.37
547.664	15.49
547.861	15.54
548.058	15.56
548.255	15.7
548.452	15.75
548.649	15.8
548.846	16.04
549.043	16.2
549.24	16.29
549.437	16.43
549.633	16.52
549.83	16.47
550.027	16.56
550.224	16.68
550.421	16.76
550.618	16.75
550.814	16.79
551.011	16.72
551.208	16.7
551.405	16.7
551.601	16.71
551.798	16.79
551.995	16.94
552.191	17.02
552.388	16.98
552.585	17.07
552.781	17.21
552.978	17.41
553.175	17.37
553.371	17.38
553.568	17.47
553.764	17.59
553.961	17.59
554.157	17.72
554.354	17.77
554.55	17.87
554.747	18.02
554.943	18.08
555.14	18.22
555.336	18.33
555.533	18.37
555.729	18.44
555.926	18.46
556.122	18.59
556.318	18.57
556.515	18.66
556.711	18.74
556.907	18.77
557.104	18.97
557.3	18.88
557.496	18.93
557.693	19.02
557.889	19.18
558.085	19.19
558.281	19.18
558.478	19.35
558.674	19.41
558.87	19.5
559.066	19.62
559.262	19.56
559.459	19.65
559.655	19.87
559.851	19.93
560.047	20.09
560.243	20.15
560.439	20.25
560.635	20.2
560.831	20.26
561.027	20.35
561.223	20.36
561.419	20.61
561.615	20.58
561.811	20.54
562.007	20.55
562.203	20.47
562.399	20.65
562.595	20.81
562.791	21.02
562.987	21.08
563.183	21.06
563.379	21.12
563.575	21.04
563.771	21.24
563.966	21.43
564.162	21.53
564.358	21.66
564.554	21.63
564.75	21.61
564.945	21.48
565.141	21.54
565.337	21.71
565.533	21.64
565.728	21.75
565.924	21.72
566.12	21.66
566.315	21.79
566.511	21.91
566.707	22.03
566.902	22.19
567.098	22.34
567.293	22.48
567.489	22.56
567.684	22.74
567.88	22.8
568.076	22.88
568.271	22.97
568.467	22.96
568.662	23
568.858	23.05
569.053	23
569.248	23.13
569.444	23.16
569.639	23.15
569.835	23.12
570.03	23.14
570.225	23.19
570.421	23.25
570.616	23.42
570.812	23.39
571.007	23.43
571.202	23.44
571.397	23.48
571.593	23.5
571.788	23.58
571.983	23.65
572.178	23.71
572.374	23.81
572.569	23.89
572.764	23.89
572.959	23.96
573.154	24.01
573.35	24.09
573.545	24.07
573.74	24.17
573.935	24.23
574.13	24.28
574.325	24.35
574.52	24.3
574.715	24.36
574.91	24.39
575.105	24.53
575.3	24.54
575.495	24.74
575.69	24.95
575.885	25.06
576.08	25.12
576.275	25.32
576.47	25.36
576.665	25.59
576.86	25.69
577.055	25.81
577.25	25.78
577.444	25.95
577.639	26
577.834	26.11
578.029	26.2
578.224	26.4
578.418	26.42
578.613	26.54
578.808	26.61
579.003	26.75
579.197	26.67
579.392	26.87
579.587	26.91
579.781	26.93
579.976	26.93
580.171	27.01
580.365	26.99
580.56	27.17
580.755	27.26
580.949	27.17
581.144	27.25
581.338	27.59
581.533	27.63
581.727	27.54
581.922	27.65
582.116	27.59
582.311	27.53
582.505	27.59
582.7	27.64
582.894	27.69
583.089	27.95
583.283	27.88
583.478	27.86
583.672	27.95
583.866	28.13
584.061	28.17
584.255	28.38
584.449	28.36
584.644	28.36
584.838	28.36
585.032	28.4
585.226	28.36
585.421	28.64
585.615	28.57
585.809	28.6
586.003	28.74
586.198	28.79
586.392	28.8
586.586	28.87
586.78	28.78
586.974	28.87
587.168	28.9
587.363	28.93
587.557	28.79
587.751	28.79
587.945	28.72
588.139	28.78
588.333	28.69
588.527	28.65
588.721	28.62
588.915	28.8
589.109	28.73
589.303	28.72
589.497	28.73
589.691	28.69
589.885	28.8
590.079	28.84
590.273	28.75
590.466	28.88
590.66	28.99
590.854	29.04
591.048	29.15
591.242	29.18
591.436	29.29
591.629	29.32
591.823	29.45
592.017	29.46
592.211	29.68
592.404	29.71
592.598	29.76
592.792	29.72
592.986	29.8
593.179	29.61
593.373	29.54
593.567	29.42
593.76	29.43
593.954	29.3
594.147	29.29
594.341	29.08
594.535	29.03
594.728	29.01
594.922	28.84
595.115	28.85
595.309	28.93
595.502	29.04
595.696	28.99
595.889	28.94
596.083	28.94
596.276	28.89
596.47	28.82
596.663	28.81
596.856	28.85
597.05	29.04
597.243	29.11
597.437	29.2
597.63	29.12
597.823	29.26
598.017	29.36
598.21	29.49
598.403	29.69
598.596	29.84
598.79	30.02
598.983	29.92
599.176	29.87
599.369	29.94
599.563	29.96
599.756	30.09
599.949	30.07
600.142	30.16
600.335	30.12
600.528	30.11
600.722	30.15
600.915	30.15
601.108	30.17
601.301	30.26
601.494	30.13
601.687	30.12
601.88	30.05
602.073	30.06
602.266	30.01
602.459	29.97
602.652	29.94
602.845	29.88
603.038	29.84
603.231	29.87
603.424	29.85
603.617	29.8
603.809	29.73
604.002	29.79
604.195	29.84
604.388	29.77
604.581	29.74
604.774	29.82
604.966	29.89
605.159	29.99
605.352	30.02
605.545	30.13
605.737	30.32
605.93	30.45
606.123	30.46
606.316	30.59
606.508	30.82
606.701	30.95
606.894	31.01
607.086	31.13
607.279	31.12
607.471	31.27
607.664	31.37
607.857	31.52
608.049	31.69
608.242	32.08
608.434	32.38
608.627	32.87
608.819	33.68
609.012	34.22
609.204	34.84
609.397	35.63
609.589	36.62
609.782	37.49
609.974	38.48
610.166	39.5
610.359	40.38
610.551	41.36
610.743	42.11
610.936	42.64
611.128	43.26
611.32	43.69
611.513	43.98
611.705	43.95
611.897	43.94
612.09	43.7
612.282	43.35
612.474	42.93
612.666	42.34
612.858	41.86
613.051	41.3
613.243	40.83
613.435	40.57
613.627	40.1
613.819	39.68
614.011	39.58
614.203	39.15
614.395	38.76
614.588	38.51
614.78	38.23
614.972	37.77
615.164	37.58
615.356	37.23
615.548	36.7
615.74	36.57
615.932	36.39
616.124	35.63
616.315	35.47
616.507	35.22
616.699	34.97
616.891	34.91
617.083	34.58
617.275	34.33
617.467	34.2
617.659	34.14
617.85	34.06
618.042	33.76
618.234	33.83
618.426	33.65
618.618	33.63
618.809	33.67
619.001	33.44
619.193	33.75
619.384	33.73
619.576	33.79
619.768	33.9
619.959	33.95
620.151	34.16
620.343	34.22
620.534	34.36
620.726	34.43
620.917	34.39
621.109	34.55
621.301	34.47
621.492	34.5
621.684	34.56
621.875	34.46
622.067	34.38
622.258	34.27
622.45	34.41
622.641	34.39
622.832	34.46
623.024	34.6
623.215	34.63
623.407	34.66
623.598	34.7
623.789	34.61
623.981	34.76
624.172	34.76
624.363	34.81
624.555	34.55
624.746	34.41
624.937	34.35
625.129	34.09
625.32	34.17
625.511	34.3
625.702	34.18
625.893	34.14
626.085	34.07
626.276	34.05
626.467	34.06
626.658	34.19
626.849	34.33
627.04	34.29
627.231	34.4
627.422	34.34
627.614	34.11
627.805	34.09
627.996	34.15
628.187	34.06
628.378	34.14
628.569	34.23
628.76	34.32
628.951	34.36
629.142	34.66
629.332	34.61
629.523	34.67
629.714	35.03
629.905	35.23
630.096	35.34
630.287	35.62
630.478	35.73
630.669	35.83
630.859	35.71
631.05	35.79
631.241	35.6
631.432	35.9
631.623	35.82
631.813	35.71
632.004	35.59
632.195	35.58
632.385	35.37
632.576	35.18
632.767	34.91
632.957	34.86
633.148	34.71
633.339	34.67
633.529	34.49
633.72	34.48
633.91	34.13
634.101	34.06
634.292	33.9
634.482	33.85
634.673	33.75
634.863	33.74
635.054	33.58
635.244	33.59
635.435	33.48
635.625	33.29
635.815	33.15
636.006	33.3
636.196	33.2
636.387	33.32
636.577	33.41
636.767	33.48
636.958	33.39
637.148	33.46
637.338	33.29
637.529	33.54
637.719	33.53
637.909	33.63
638.099	33.58
638.29	33.73
638.48	33.81
638.67	33.79
638.86	33.83
639.05	33.95
639.241	34.12
639.431	34.33
639.621	34.1
639.811	34.3
640.001	34.48
640.191	34.57
640.381	34.48
640.571	34.46
640.761	34.62
640.951	34.78
641.141	34.76
641.331	34.81
641.521	34.75
641.711	34.94
641.901	34.9
642.091	34.82
642.281	34.97
642.471	35.21
642.661	35.41
642.851	35.42
643.041	35.3
643.231	35.35
643.42	35.23
643.61	35.16
643.8	35.21
643.99	35.23
644.18	35.18
644.369	35.06
644.559	35.16
644.749	34.98
644.939	34.65
645.128	34.69
645.318	35
645.508	35.05
645.697	35.28
645.887	35.15
646.076	35.05
646.266	35.06
646.456	35.13
646.645	34.9
646.835	34.79
647.024	34.92
647.214	34.91
647.403	34.78
647.593	34.52
647.782	34.38
647.972	34.25
648.161	34.46
648.351	34.35
648.54	34.36
648.73	34.53
648.919	34.46
649.108	34.87
649.298	34.81
649.487	34.68
649.677	34.99
649.866	35.04
650.055	35.06
650.244	35.06
650.434	35.23
650.623	35.37
650.812	35.25
651.002	35.31
651.191	34.95
651.38	34.89
651.569	34.81
651.758	34.83
651.947	34.77
652.137	34.99
652.326	35.13
652.515	35.03
652.704	35.06
652.893	35.18
653.082	35.07
653.271	35.27
653.46	35.45
653.649	35.51
653.838	35.54
654.027	35.8
654.216	35.82
654.405	35.94
654.594	35.97
654.783	35.73
654.972	35.69
655.161	36.02
655.35	35.73
655.539	35.64
655.728	35.91
655.916	35.85
656.105	35.59
656.294	35.54
656.483	35.23
656.672	35.28
656.86	35.26
657.049	35.07
657.238	34.92
657.427	35.29
657.615	35.4
657.804	35.31
657.993	35.28
658.181	35.1
658.37	35.13
658.559	35.09
658.747	35.13
658.936	35.19
659.125	35.26
659.313	35.11
659.502	34.98
659.69	34.92
659.879	34.93
660.067	34.93
660.256	35.18
660.444	35.28
660.633	35.28
660.821	35.43
661.01	35.73
661.198	35.81
661.387	36.05
661.575	36.05
661.763	36.27
661.952	36.43
662.14	36.61
662.328	36.7
662.517	36.71
662.705	36.83
662.893	36.68
663.082	36.64
663.27	36.77
663.458	36.82
663.646	37.08
663.834	36.94
664.023	36.79
664.211	36.86
664.399	36.95
664.587	36.77
664.775	36.86
664.963	37.02
665.152	36.86
665.34	36.9
665.528	36.99
665.716	36.83
665.904	36.76
666.092	36.74
666.28	36.71
666.468	36.41
666.656	36.46
666.844	36.47
667.032	36.4
667.22	36.3
667.408	36.29
667.596	36.15
667.784	36.05
667.971	36.28
668.159	36.28
668.347	36.06
668.535	36.61
668.723	36.75
668.911	36.92
669.098	36.79
669.286	36.82
669.474	36.82
669.662	36.92
669.849	36.89
670.037	36.79
670.225	37.1
670.413	37.38
670.6	37.13
670.788	37
670.976	36.85
671.163	36.85
671.351	36.96
671.538	37.14
671.726	37.23
671.913	37.17
672.101	37.29
672.289	37.45
672.476	37.32
672.664	37.44
672.851	37.35
673.039	37.44
673.226	37.45
673.413	37.31
673.601	37.16
673.788	36.84
673.976	36.98
674.163	36.96
674.35	36.55
674.538	36.61
674.725	36.52
674.912	36.61
675.1	36.4
675.287	36.44
675.474	36.56
675.662	36.93
675.849	37.28
676.036	37.39
676.223	37.46
676.411	37.74
676.598	37.96
676.785	37.82
676.972	38.06
677.159	38.09
677.346	38.09
677.533	38.2
677.721	37.85
677.908	37.67
678.095	37.4
678.282	37.07
678.469	36.94
678.656	36.77
678.843	36.76
679.03	36.57
679.217	36.67
679.404	36.67
679.591	36.5
679.778	36.52
679.964	36.49
680.151	36.53
680.338	36.75
680.525	36.58
680.712	36.55
680.899	36.67
681.086	36.59
681.272	36.42
681.459	36.41
681.646	36.6
681.833	36.71
682.02	36.75
682.206	36.9
682.393	36.86
682.58	37.03
682.766	37.14
682.953	37.02
683.14	37.28
683.326	37.58
683.513	37.79
683.7	37.79
683.886	37.83
684.073	37.94
684.259	37.86
684.446	37.84
684.632	37.75
684.819	37.71
685.005	37.83
685.192	37.84
685.378	37.72
685.565	37.7
685.751	37.9
685.938	37.86
686.124	38.01
686.31	38.12
686.497	38.02
686.683	37.96
686.87	37.83
687.056	38
687.242	38.04
687.429	38.3
687.615	38.37
687.801	38.41
687.987	38.47
688.174	38.18
688.36	38.21
688.546	38.82
688.732	39.11
688.918	39.16
689.105	39.01
689.291	38.9
689.477	38.68
689.663	38.75
689.849	38.26
690.035	38.25
690.221	38.38
690.407	38.44
690.593	38.1
690.779	38.12
690.965	38.2
691.151	38.49
691.337	38.74
691.523	38.89
691.709	38.6
691.895	39.29
692.081	39.15
692.267	39.14
692.453	39.39
692.639	39.52
692.825	39.5
693.011	39.58
693.196	39.33
693.382	39.18
693.568	39.26
693.754	39.67
693.94	39.42
694.125	39.09
694.311	39.13
694.497	39.04
694.682	39.21
694.868	39.09
695.054	38.94
695.239	39.14
695.425	39.05
695.611	39.02
695.796	38.84
695.982	38.5
696.168	38.87
696.353	38.87
696.539	38.43
696.724	37.83
696.91	37.61
697.095	37.41
697.281	37.1
697.466	36.93
697.652	36.55
697.837	36.34
698.023	36.18
698.208	35.94
698.393	35.62
698.579	35.74
698.764	35.83
698.949	35.81
699.135	35.95
699.32	35.98
699.505	36.01
699.691	36.23
699.876	36.28
700.061	36.58
700.246	36.91
700.432	37.22
700.617	37.19
700.802	37.28
700.987	37.6
701.172	38.02
701.358	38.4
701.543	38.9
701.728	39.09
701.913	39.39
702.098	39.74
702.283	39.98
702.468	40.51
702.653	40.69
702.838	41.21
703.023	41.34
703.208	41.35
703.393	41.42
703.578	41.06
703.763	41.2
703.948	41.47
704.133	41.62
704.318	41.97
704.503	42.24
704.688	43.04
704.873	42.97
705.057	43.17
705.242	43.25
705.427	43.56
705.612	44.07
705.797	44.57
705.981	44.91
706.166	45.05
706.351	45.28
706.536	45.41
706.72	45.6
706.905	45.84
707.09	46.12
707.274	46.18
707.459	46.02
707.644	46.02
707.828	46.08
708.013	45.79
708.197	45.69
708.382	45.14
708.567	45.02
708.751	44.54
708.936	44.48
709.12	44.15
709.305	43.98
709.489	43.97
709.673	43.88
709.858	43.29
710.042	43.22
710.227	43.14
710.411	43.56
710.596	43.03
710.78	43.07
710.964	43.5
711.149	43.61
711.333	43.63
711.517	43.87
711.702	44.04
711.886	44.07
712.07	44.16
712.254	44.08
712.438	43.87
712.623	44.25
712.807	44
712.991	43.44
713.175	43.05
713.359	43.21
713.544	42.76
713.728	42.23
713.912	42.05
714.096	41.64
714.28	41.49
714.464	41.42
714.648	40.97
714.832	40.81
715.016	40.45
715.2	40.41
715.384	40.01
715.568	39.45
715.752	39.19
715.936	39
716.12	38.78
716.304	38.76
716.488	38.26
716.671	38.23
716.855	38.33
717.039	38.14
717.223	37.62
717.407	37.4
717.59	37.81
717.774	38.13
717.958	37.99
718.142	38.21
718.325	38.37
718.509	38.62
718.693	38.49
718.877	38.38
719.06	38.79
719.244	39.61
719.428	40.01
719.611	40.25
719.795	40.38
719.978	41.29
720.162	41.1
720.345	40.88
720.529	40.95
720.713	41.25
720.896	41.14
721.08	40.9
721.263	41.04
721.446	40.97
721.63	40.58
721.813	40.27
721.997	39.63
722.18	39.88
722.364	39.68
722.547	39.54
722.73	39.44
722.914	39.81
723.097	40.17
723.28	39.71
723.464	39.65
723.647	39.86
723.83	40.24
724.013	40.49
724.197	40.73
724.38	40.66
724.563	40.78
724.746	41.09
724.929	40.46
725.112	40.17
725.296	40.25
725.479	40.4
725.662	40.29
725.845	40.12
726.028	39.97
726.211	39.49
726.394	39.32
726.577	38.91
726.76	38.98
726.943	39.14
727.126	39.04
727.309	39.01
727.492	38.98
727.675	38.93
727.858	39.52
728.041	39.54
728.224	39.8
728.407	40.24
728.589	40.31
728.772	39.87
728.955	40.2
729.138	40.32
729.321	40.56
729.503	40.4
729.686	40.46
729.869	39.97
730.052	40.06
730.234	40.12
730.417	39.97
730.6	40.41
730.782	40.5
730.965	40.25
731.148	40.61
731.33	40.03
731.513	40.11
731.695	40.09
731.878	39.82
732.061	39.51
732.243	39.79
732.426	39.67
732.608	39.42
732.791	39.5
732.973	39.88
733.156	39.43
733.338	39.67
733.52	39.95
733.703	39.86
733.885	40.05
734.068	40.36
734.25	40.21
734.432	40.57
734.615	40.71
734.797	40.98
734.979	40.62
735.162	40.77
735.344	40.64
735.526	40.78
735.708	41.09
735.891	41.51
736.073	41.42
736.255	41.51
736.437	41.44
736.619	41.28
736.802	41.38
736.984	41.57
737.166	41.33
737.348	41.97
737.53	41.59
737.712	41.98
737.894	42.44
738.076	42.39
738.258	42.12
738.44	42.63
738.622	42.88
738.804	42.63
738.986	42.72
739.168	42.72
739.35	42.72
739.532	42.84
739.714	42.72
739.896	42.15
740.078	42.54
740.259	43.14
740.441	42.8
740.623	42.7
740.805	42.95
740.987	42.96
741.168	43.73
741.35	44.28
741.532	44.26
741.714	43.98
741.895	44.09
742.077	44.54
742.259	44.46
742.44	44.86
742.622	45.02
742.804	44.73
742.985	45.02
743.167	45.06
743.348	44.49
743.53	44.67
743.711	45.38
743.893	45
744.075	44.92
744.256	44.62
744.438	44.31
744.619	44.72
744.8	45.23
744.982	45.48
745.163	45.57
745.345	45.87
745.526	46.45
745.707	45.59
745.889	45.75
746.07	45.87
746.252	46.75
746.433	47
746.614	46.63
746.795	46.84
746.977	46.61
747.158	46.19
747.339	46.36
747.52	46.48
747.702	46.48
747.883	46.89
748.064	46.46
748.245	45.88
748.426	46.09
748.607	46.56
748.788	46.16
748.97	46.21
749.151	46.59
749.332	46.68
749.513	46.56
749.694	46.91
749.875	47.02
750.056	47.29
750.237	46.74
750.418	46.59
750.599	46.81
750.78	47.27
750.96	47.42
751.141	47.32
751.322	47.5
751.503	47.4
751.684	47.66
751.865	47.52
752.046	47.61
752.226	47.7
752.407	47.3
752.588	46.78
752.769	46.1
752.949	45.73
753.13	46.07
753.311	45.33
753.492	45.12
753.672	44.93
753.853	44.83
754.034	44.76
754.214	44.89
754.395	44.89
754.575	45.22
754.756	45.65
754.937	45.83
755.117	45.45
755.298	45.41
755.478	45.27
755.659	45.31
755.839	45
756.02	44.76
756.2	45.61
756.381	46.18
756.561	46.02
756.741	45.69
756.922	45.47
757.102	45.7
757.283	45.56
757.463	45.59
757.643	46.05
757.823	46.75
758.004	46.91
758.184	46.1
758.364	45.05
758.545	44.39
758.725	44.3
758.905	43.62
759.085	43.06
759.265	43.09
759.446	42.52
759.626	42.05
759.806	40.7
759.986	40.09
760.166	39.9
760.346	39.44
760.526	39.59
760.706	39.43
760.886	39.64
761.066	39.13
761.246	39.71
761.426	39.66
761.606	39.07
761.786	39.67
761.966	39.75
762.146	39.33
762.326	39.69
762.506	38.87
762.686	38.46
762.866	38.79
763.046	38.65
763.225	37.86
763.405	37.96
763.585	37.57
763.765	37.59
763.945	37.4
764.124	37.5
764.304	37.51
764.484	38.03
764.664	38.53
764.843	38.26
765.023	38.76
765.203	39.2
765.382	40.08
765.562	41.01
765.741	41.03
765.921	41.37
766.101	41.59
766.28	42.48
766.46	43.49
766.639	43.88
766.819	44.34
766.998	44.69
767.178	44.81
767.357	44.15
767.537	44.41
767.716	44.7
767.896	45.14
768.075	45.67
768.254	44.96
768.434	44.74
768.613	44.6
768.792	45
768.972	45.11
769.151	45.26
769.33	45.33
769.51	44.89
769.689	45.71
769.868	46.46
770.047	46.51
770.226	47.18
770.406	47.24
770.585	47.78
770.764	47.87
770.943	48.01
771.122	48.49
771.301	48.44
771.48	49.18
771.66	48.82
771.839	49.24
772.018	49.61
772.197	50.26
772.376	50.95
772.555	50.34
772.734	51.3
772.913	50.92
773.092	50.46
773.271	51.18
773.449	51.04
773.628	50.47
773.807	49.07
773.986	49.84
774.165	48.64
774.344	48.63
774.523	49.59
774.701	49.22
774.88	49.66
775.059	50.45
775.238	50.29
775.417	50.52
775.595	51.34
775.774	51.88
775.953	50.94
776.131	52.01
776.31	51.44
776.489	51.03
776.667	51.1
776.846	51.02
777.025	50.81
777.203	50.94
777.382	51.49
777.56	51.48
777.739	51.61
777.917	51.28
778.096	50.53
778.274	51.22
778.453	50.55
778.631	50.3
778.81	51.03
778.988	50.51
779.166	50.08
779.345	49.28
779.523	49.47
779.702	49.28
779.88	49.34
780.058	49.64
780.237	48.56
780.415	49.56
780.593	50.23
780.771	49.37
780.95	50.33
781.128	51.27
781.306	51.29
781.484	50.35
781.662	50.94
781.841	51.8
782.019	51.77
782.197	52.64
782.375	51.97
782.553	51.05
782.731	51.32
782.909	50.63
783.087	50.65
783.265	51.68
783.443	52.73
783.621	52.56
783.799	52.17
783.977	53.64
784.155	52.73
784.333	53.26
784.511	53.49
784.689	53.57
784.867	53.91
785.045	52.43
785.223	52
785.4	51.73
785.578	51.68
785.756	51.9
785.934	51.24
786.112	51.66
786.289	51.41
786.467	51.02
786.645	50.8
786.823	50.43
787	51.54
787.178	51.48
787.356	50.87
787.533	50.88
787.711	50.79
787.889	50.25
788.066	49.77
788.244	49.18
788.421	48.75
788.599	48.16
788.776	48.74
788.954	47.67
789.131	47.8
789.309	48.59
789.486	46.93
789.664	46.42
789.841	47.23
790.019	48.09
790.196	48.47
790.373	49.69
790.551	51.26
790.728	50.63
790.906	51.55
791.083	52
791.26	51.25
791.437	53.15
791.615	53.83
791.792	52.57
791.969	51.28
792.146	51.56
792.324	51.47
792.501	51.43
792.678	51.3
792.855	51.23
793.032	50.59
793.209	51.41
793.387	51.12
793.564	51.09
793.741	51.04
793.918	51.45
794.095	51.4
794.272	50.33
794.449	49.1
794.626	49.46
794.803	49.29
794.98	49.65
795.157	48.85
795.334	49.53
795.511	49.13
795.688	49.26
795.864	50.42
796.041	50.52
796.218	49.81
796.395	50.08
796.572	49.62
796.749	48.76
796.925	47.9
797.102	48.53
797.279	47.83
797.456	48.13
797.632	48.58
797.809	48.2
797.986	48.11
798.162	49.15
798.339	48.73
798.516	49.3
798.692	51.18
798.869	51.65
799.046	51.92
799.222	51.41
799.399	52.05
799.575	52.38
799.752	51.7
799.928	51.61
800.105	51.6
800.281	52.39
800.458	52.69
800.634	51.84
800.811	51.61
800.987	51.83
801.163	51.78
801.34	51.47
801.516	50.95
801.692	51.71
801.869	50.74
802.045	50.76
802.221	51.16
802.398	51.1
802.574	50.08
802.75	50.78
802.926	49.95
803.103	49.55
803.279	50.46
803.455	50.73
803.631	51.22
803.807	52.55
803.983	54.36
804.16	54.6
804.336	53.38
804.512	53.87
804.688	52.57
804.864	52.35
805.04	54.04
805.216	52.51
805.392	52.1
805.568	51.27
805.744	51.54
805.92	49.77
806.096	49.54
806.272	50.5
806.448	51.63
806.623	52.78
806.799	54.11
806.975	53.34
807.151	53.88
807.327	54.44
807.503	54.78
807.678	53.79
807.854	53.86
808.03	52.17
808.206	52.73
808.381	51.06
808.557	49.96
808.733	48.94
808.908	48.65
809.084	48.3
809.26	48.34
809.435	47.83
809.611	47.15
809.787	47.46
809.962	47.98
810.138	47.51
810.313	49.08
810.489	50.5
810.664	50.8
810.84	50.83
811.015	51.03
811.191	50.59
811.366	51.83
811.542	52.08
811.717	50.72
811.892	51.88
812.068	52.61
812.243	52.21
812.419	51.69
812.594	51.77
812.769	51.98
812.944	52.42
813.12	51.54
813.295	48.92
813.47	48.72
813.645	50.75
813.821	49.68
813.996	48.28
814.171	47.3
814.346	46.55
814.521	45.36
814.697	46.4
814.872	45.1
815.047	46.02
815.222	48.35
815.397	48.74
815.572	48.12
815.747	48.11
815.922	47.34
816.097	47.73
816.272	48.15
816.447	48.61
816.622	48.76
816.797	50
816.972	51.34
817.147	50.15
817.322	51.92
817.496	50.8
817.671	50.24
817.846	49.51
818.021	49.1
818.196	48.91
818.371	47.6
818.545	45.89
818.72	44.8
818.895	43.76
819.069	43.3
819.244	41.46
819.419	42.26
819.594	41.76
819.768	42.15
819.943	41.32
820.117	40.35
820.292	40
820.467	39.92
820.641	39.32
820.816	37.64
820.99	36.8
821.165	36.04
821.339	34.87
821.514	34.76
821.688	34.33
821.863	33.98
822.037	33.54
822.212	33.29
822.386	32.37
822.56	32.29
822.735	32.29
822.909	32.28
823.084	32.27
823.258	32.44
823.432	32.14
823.606	32.3
823.781	32.72
823.955	32.83
824.129	33.3
824.303	33.98
824.478	33.83
824.652	34.18
824.826	34.18
825	34.71
825.174	34.86
825.348	35.49
825.523	35.43
825.697	34.85
825.871	35.57
826.045	35.73
826.219	35.67
826.393	35.78
826.567	36.01
826.741	36.14
826.915	35.92
827.089	36.31
827.263	36.4
827.437	36.49
827.611	36.67
827.784	36.2
827.958	35.67
828.132	36.08
828.306	36.07
828.48	35.53
828.654	36.02
828.827	36.07
829.001	36.41
829.175	36.68
829.349	36.89
829.522	37.95
829.696	39.35
829.87	40.93
830.044	41.49
830.217	42.06
830.391	44.01
830.565	44.73
830.738	46.63
830.912	46.25
831.085	45.9
831.259	46.73
831.432	47.45
831.606	45.74
831.779	45.15
831.953	44.21
832.126	45.03
832.3	44.45
832.473	43.6
832.647	42.63
832.82	42.2
832.994	42.57
833.167	42.69
833.34	41.9
833.514	42
833.687	40.66
833.86	40.79
834.034	39.82
834.207	39.17
834.38	39.07
834.553	39.07
834.727	38.59
834.9	38.34
835.073	37.31
835.246	37.02
835.419	37.16
835.593	38.64
835.766	39.35
835.939	41.29
836.112	42.12
836.285	43.06
836.458	43.34
836.631	44.31
836.804	44.73
836.977	47.63
837.15	47.83
837.323	49.03
837.496	48.26
837.669	47.13
837.842	47.12
838.015	47.43
838.188	47.03
838.361	47.46
838.533	47.68
838.706	48.23
838.879	47.15
839.052	49.35
839.225	50.48
839.398	51.36
839.57	52.85
839.743	52.1
839.916	51.31
840.088	52.05
840.261	52.96
840.434	53.92
840.607	53.24
840.779	53.23
840.952	52.09
841.124	51.1
841.297	50.84
841.47	50.5
841.642	50.5
841.815	51.87
841.987	54.63
842.16	55.3
842.332	55.59
842.505	58.34
842.677	58.83
842.85	61.19
843.022	63.42
843.194	66.61
843.367	67
843.539	69.11
843.712	72.8
843.884	69.92
844.056	68.31
844.229	66.36
844.401	65.63
844.573	68.78
844.745	69.82
844.918	68.22
845.09	68.57
845.262	70.98
845.434	69.93
845.606	66.92
845.779	69.51
845.951	71.3
846.123	76.42
846.295	78.48
846.467	77.6
846.639	77.56
846.811	84.55
846.983	84.38
847.155	83.52
847.327	81.66
847.499	84.66
847.671	84.69
847.843	85.42
848.015	84.8
848.187	84.29
848.359	83.87
848.531	84.37
848.703	80.35
848.875	82.19
849.047	81.89
849.218	84.75
849.39	82.99
849.562	79.65
849.734	81.39
849.905	84.32
850.077	81.8
850.249	82.61
850.421	82.1
850.592	80.04
850.764	78.38
850.936	78.65
851.107	80.29
851.279	81.74
851.451	84.55
851.622	84.07
851.794	79.06
851.965	82.97
852.137	83.45
852.308	79.75
852.48	81.7
852.651	81.89
852.823	83.43
852.994	83.07
853.166	82
853.337	82.1
853.509	81.39
853.68	83.61
853.851	87.31
854.023	86.25
854.194	90.74
854.365	87.85
854.537	89.36
854.708	89.54
854.879	87.14
855.05	87.9
855.222	86.92
855.393	87.25
855.564	89.6
855.735	88.68
855.906	87.84
856.078	87.03
856.249	88.34
856.42	87.1
856.591	89.37
856.762	91.31
856.933	90.49
857.104	88.16
857.275	84.21
857.446	84.98
857.617	79.2
857.788	80.68
857.959	79.79
858.13	80.38
858.301	77.28
858.472	73.93
858.643	75.49
858.814	76.28
858.985	83.54
859.155	92.52
859.326	85.63
859.497	92.35
859.668	94.64
859.839	96.92
860.009	96.64
860.18	101.51
860.351	102.85
860.522	99.54
860.692	99.27
860.863	100.22
861.034	90
861.204	90.36
861.375	87.98
861.546	88.51
861.716	82.55
861.887	83.29
862.057	76.43
862.228	76.47
862.398	77.1
862.569	78.89
862.739	78.08
862.91	79.33
863.08	80.06
863.251	80.24
863.421	82.39
863.592	82.96
863.762	81.38
863.932	86.45
864.103	88.52
864.273	86.83
864.443	87.04
864.614	83.3
864.784	87.47
864.954	88.36
865.125	86.3
865.295	80.71
865.465	88.33
865.635	90.38
865.805	95.17
865.976	94.42
866.146	96.83
866.316	96.97
866.486	99.28
866.656	96.63
866.826	97.09
866.996	102.08
867.166	102.31
867.336	94.2
867.506	97.12
867.676	93.84
867.846	90.48
868.016	84.84
868.186	82.11
868.356	83.8
868.526	83.73
868.696	85.66
868.866	86.93
869.036	87.2
869.206	93.59
869.376	91.21
869.545	91.26
869.715	89.63
869.885	90.34
870.055	96.78
870.224	94.87
870.394	95.71
870.564	97.75
870.734	88.13
870.903	91.95
871.073	85.42
871.243	80.07
871.412	78.88
871.582	82.7
871.751	92.62
871.921	84.43
872.091	85.01
872.26	86.63
872.43	82.7
872.599	90.5
872.769	89.35
872.938	90.4
873.108	91.96
873.277	94.74
873.446	94.93
873.616	88.51
873.785	93.22
873.955	95.12
874.124	91.16
874.293	92.57
874.463	87.24
874.632	85.77
874.801	84.13
874.971	81.87
875.14	79.14
875.309	78.66
875.478	77.56
875.647	74.24
875.817	74.9
875.986	76.52
876.155	77.43
876.324	79.89
876.493	81.8
876.662	82.62
876.831	88.86
877	85.83
877.17	87.05
877.339	90.27
877.508	92.16
877.677	91.39
877.846	89.54
878.015	86.46
878.184	82.3
878.352	77.86
878.521	79.92
878.69	76.47
878.859	75.05
879.028	71.76
879.197	70.74
879.366	67.31
879.534	65.9
879.703	60.61
879.872	56.49
880.041	53.22
880.21	49.9
880.378	46.72
880.547	43.94
880.716	42.72
880.884	41.85
881.053	39.13
881.222	38.46
881.39	37.1
881.559	37.85
881.727	36.69
881.896	36.57
882.065	36.39
882.233	36.15
882.402	35.82
882.57	35.74
882.739	35.1
882.907	35.7
883.076	34.68
883.244	34.46
883.412	34.11
883.581	35.25
883.749	36.22
883.918	36.38
884.086	36.81
884.254	38.1
884.423	39
884.591	39.54
884.759	39.83
884.927	42.11
885.096	43.25
885.264	44.72
885.432	45.03
885.6	45.24
885.769	47.83
885.937	49.72
886.105	50.03
886.273	51.13
886.441	54.91
886.609	56.66
886.777	57.97
886.945	60.6
887.113	65.08
887.281	66.24
887.449	69.73
887.617	72.02
887.785	74.35
887.953	72.97
888.121	72.44
888.289	68.82
888.457	70.87
888.625	68.31
888.793	72.49
888.961	69.49
889.129	75.03
889.296	75.27
889.464	72.11
889.632	69.26
889.8	73.47
889.967	73.97
890.135	81.76
