Data from 2938836__Reflection_01.txt Node
Date: Thu Mar 12 11:03:46 EDT 2015
User: robert
Spectrometer: USB4E03002
Autoset integration time: false
Trigger mode: 4
Integration Time (sec): 1.000000E-1
Scans to average: 10
Electric dark correction enabled: false
Nonlinearity correction enabled: false
Boxcar width: 5
Stray light correction enabled: false
XAxis mode: Wavelengths
Stop averaging: false
Number of Pixels in Spectrum: 3648
>>>>>Begin Spectral Data<<<<<
177.575	601.49
177.794	951.42
178.014	931.19
178.233	1030.43
178.452	946.95
178.672	982.52
178.891	1164.59
179.11	1091.77
179.33	1013.18
179.549	859.37
179.768	832.4
179.987	1713.16
180.207	1577.29
180.426	1761.09
180.645	1218.95
180.864	861.1
181.084	1060.82
181.303	919.44
181.522	1000.43
181.741	1413.35
181.96	2839.87
182.179	2991.39
182.398	1653.28
182.618	1163.71
182.837	1059.43
183.056	1288.45
183.275	5264.1
183.494	2582.8
183.713	3838.89
183.932	-15040.74
184.151	12483.87
184.37	1524.12
184.589	2863.43
184.808	2834.51
185.027	2986.57
185.246	8765.22
185.465	-3667.86
185.684	4275.76
185.903	443800
186.122	1367.81
186.341	843.77
186.56	663.98
186.779	687.39
186.998	727.57
187.216	696.33
187.435	649.05
187.654	581.17
187.873	462.28
188.092	589.55
188.311	522.05
188.53	618.03
188.748	625.69
188.967	770.18
189.186	992.54
189.405	812.39
189.623	711.15
189.842	723.66
190.061	666.77
190.28	673.95
190.498	732.03
190.717	629.72
190.936	659.7
191.154	798.24
191.373	706.29
191.592	683.14
191.81	712.16
192.029	1022.56
192.248	913.97
192.466	1007.19
192.685	1086.85
192.904	700.6
193.122	711.16
193.341	866.73
193.559	665.36
193.778	645.35
193.996	609.19
194.215	667.45
194.433	562.06
194.652	660.53
194.87	997.35
195.089	1177.11
195.307	1658.14
195.526	3465.55
195.744	5382.5
195.963	-74916.67
196.181	-4062.16
196.399	-2422.95
196.618	-1947.14
196.836	-1079.55
197.055	-1314.16
197.273	-6455.22
197.491	23694.74
197.71	109625
197.928	4663.54
198.146	3708.55
198.365	6008.82
198.583	3667.27
198.801	1845.53
199.019	1233.7
199.238	798.95
199.456	851.4
199.674	844.29
199.892	767.45
200.111	706.89
200.329	692.93
200.547	621.68
200.765	599.1
200.983	603.71
201.202	699.53
201.42	662.85
201.638	634.53
201.856	707.73
202.074	833.33
202.292	1191.35
202.51	1785.54
202.728	1406.41
202.946	1664.06
203.165	1009.13
203.383	987.25
203.601	711.2
203.819	864.42
204.037	954.18
204.255	718.87
204.473	603.25
204.691	548.64
204.909	515.92
205.127	554.65
205.345	491.69
205.562	511.43
205.78	516.32
205.998	623.52
206.216	515.27
206.434	466.84
206.652	544.4
206.87	592.78
207.088	588.89
207.306	515.43
207.523	458.62
207.741	489.73
207.959	478.23
208.177	427.21
208.395	391.14
208.612	426.85
208.83	435.4
209.048	381.84
209.266	391.81
209.483	338.14
209.701	370.81
209.919	388.32
210.136	417.99
210.354	497.37
210.572	614.65
210.79	678.09
211.007	959.47
211.225	1320.26
211.442	1481.78
211.66	1163.58
211.878	2340.83
212.095	1424.41
212.313	1221.71
212.53	1149.87
212.748	916.7
212.966	721.78
213.183	573.17
213.401	446.02
213.618	427.47
213.836	438.55
214.053	473.56
214.271	406.99
214.488	421.14
214.705	504.52
214.923	437.15
215.14	424.03
215.358	435.43
215.575	474.25
215.793	439.54
216.01	483.73
216.227	463.01
216.445	430.1
216.662	502.73
216.879	474.57
217.097	453.29
217.314	433.24
217.531	502.02
217.749	498.82
217.966	475.42
218.183	460.92
218.4	380.98
218.618	386.26
218.835	385.59
219.052	356.02
219.269	360.06
219.487	317.47
219.704	327.52
219.921	265.82
220.138	247.87
220.355	263.33
220.572	266.11
220.79	263.59
221.007	269.92
221.224	264.11
221.441	261.55
221.658	218.82
221.875	217.73
222.092	204.85
222.309	217.62
222.526	240.71
222.743	216.01
222.96	201.13
223.177	198.54
223.394	188.47
223.611	177.56
223.828	170.55
224.045	185.03
224.262	184.33
224.479	183.11
224.696	174.6
224.913	157.77
225.13	148.09
225.347	140.48
225.564	133.11
225.781	123.85
225.997	116.05
226.214	109.47
226.431	95.2
226.648	81.91
226.865	70.35
227.082	62.45
227.298	56.18
227.515	48.98
227.732	44.24
227.949	41.03
228.165	37.09
228.382	34.53
228.599	32.03
228.816	29.26
229.032	28.09
229.249	27.73
229.466	27.03
229.682	26.47
229.899	27.13
230.116	28
230.332	28.77
230.549	29.32
230.765	30.78
230.982	31.95
231.199	34.76
231.415	37.54
231.632	39.02
231.848	41.59
232.065	43.45
232.281	46.48
232.498	46.41
232.714	49.15
232.931	52.4
233.147	52.31
233.364	53.69
233.58	51.51
233.797	50.99
234.013	50.22
234.23	49.3
234.446	49.29
234.662	46.3
234.879	49.26
235.095	47.38
235.312	44.89
235.528	45.72
235.744	44.67
235.961	47.15
236.177	46.7
236.393	48.76
236.61	49.64
236.826	49.87
237.042	51.05
237.258	49.48
237.475	49.05
237.691	50.87
237.907	49.63
238.123	50.79
238.339	50.51
238.556	51.61
238.772	49.54
238.988	48.51
239.204	45.89
239.42	44.36
239.636	41.75
239.853	41.29
240.069	39.19
240.285	36.73
240.501	34.38
240.717	30.56
240.933	27.89
241.149	26.25
241.365	25.37
241.581	24.03
241.797	22.66
242.013	21.14
242.229	20.09
242.445	19.75
242.661	19.82
242.877	20.09
243.093	21.26
243.309	21.76
243.525	22.36
243.741	22.55
243.957	23.68
244.173	24.03
244.388	25.37
244.604	25.74
244.82	26.23
245.036	24.91
245.252	24.15
245.468	21.54
245.683	19.54
245.899	18.12
246.115	17.06
246.331	15.24
246.547	14.4
246.762	13.7
246.978	12.92
247.194	12.12
247.409	12.01
247.625	11.36
247.841	11.38
248.057	11.92
248.272	12.08
248.488	12.4
248.703	13.06
248.919	13.8
249.135	15.01
249.35	16.07
249.566	17.6
249.782	19.17
249.997	21
250.213	22
250.428	22.35
250.644	23.18
250.859	23.22
251.075	24.27
251.29	23.87
251.506	22.95
251.721	22.59
251.937	21.97
252.152	21.45
252.368	20.86
252.583	21.59
252.798	21.72
253.014	21.65
253.229	22.2
253.445	22.38
253.66	23.66
253.875	24.17
254.091	26.01
254.306	26.71
254.521	28.47
254.737	30.17
254.952	29.88
255.167	31.42
255.383	31.36
255.598	31.5
255.813	30.95
256.028	30.29
256.244	29.81
256.459	28.8
256.674	28.44
256.889	26.97
257.104	25.68
257.32	24.88
257.535	23.18
257.75	21.88
257.965	20.18
258.18	19.29
258.395	18.08
258.61	16.67
258.826	15.47
259.041	14.64
259.256	14
259.471	12.9
259.686	12.34
259.901	11.97
260.116	11.61
260.331	11.64
260.546	11.39
260.761	11.27
260.976	11.5
261.191	11.66
261.406	11.81
261.621	12.37
261.836	13.17
262.05	14.18
262.265	15.01
262.48	16.07
262.695	16.48
262.91	17.53
263.125	18.68
263.34	19.51
263.555	20.44
263.769	21.43
263.984	21.6
264.199	22.21
264.414	22.18
264.629	22.66
264.843	22.95
265.058	22.83
265.273	22.02
265.488	21.85
265.702	21.33
265.917	20.59
266.132	19.57
266.346	19.24
266.561	18.45
266.776	17.7
266.99	16.75
267.205	16.34
267.42	15.72
267.634	15.65
267.849	15.17
268.063	15.12
268.278	15.21
268.492	15.47
268.707	15.08
268.922	15.66
269.136	15.95
269.351	15.71
269.565	15.52
269.78	15.8
269.994	15.81
270.209	15.8
270.423	15.5
270.637	15.13
270.852	14.44
271.066	14.11
271.281	13.93
271.495	13.52
271.709	13.46
271.924	13.17
272.138	13.01
272.353	12.98
272.567	12.63
272.781	12.79
272.996	12.53
273.21	13.04
273.424	13.12
273.638	13.07
273.853	13.41
274.067	13.85
274.281	14.38
274.495	14.67
274.71	14.39
274.924	14.98
275.138	15.06
275.352	15.6
275.566	15.75
275.781	15.93
275.995	15.93
276.209	16.27
276.423	16.22
276.637	15.99
276.851	16.12
277.065	16.03
277.279	15.69
277.493	15.72
277.707	15.59
277.921	15.65
278.135	16.03
278.349	15.72
278.563	14.96
278.777	14.84
278.991	14.69
279.205	14.25
279.419	14.39
279.633	14.81
279.847	14.85
280.061	14.88
280.275	14.39
280.489	13.96
280.703	13.77
280.917	13.87
281.131	13.72
281.344	13.47
281.558	13.39
281.772	13.6
281.986	13.35
282.2	12.94
282.414	12.84
282.627	12.77
282.841	12.89
283.055	12.97
283.269	13.07
283.482	12.98
283.696	12.85
283.91	12.9
284.123	11.98
284.337	11.55
284.551	11.57
284.764	11.64
284.978	11.49
285.192	11
285.405	10.59
285.619	10.11
285.833	9.88
286.046	10.19
286.26	10.2
286.473	10.63
286.687	11.14
286.9	11.04
287.114	10.98
287.327	11.39
287.541	11.98
287.754	12.28
287.968	12.8
288.181	13.15
288.395	12.96
288.608	12.85
288.822	12.81
289.035	12.49
289.248	12.39
289.462	12.31
289.675	11.85
289.889	11.51
290.102	11.53
290.315	11.58
290.529	11.55
290.742	11.76
290.955	11.92
291.169	11.92
291.382	11.9
291.595	12.53
291.808	12.73
292.022	13
292.235	13.24
292.448	13.59
292.661	13.4
292.875	13.45
293.088	13.43
293.301	13.29
293.514	13.36
293.727	13.31
293.94	12.41
294.153	12.25
294.367	12.2
294.58	11.77
294.793	11.51
295.006	11.61
295.219	11.54
295.432	11.53
295.645	11.07
295.858	10.88
296.071	10.91
296.284	11.02
296.497	10.86
296.71	10.53
296.923	10.58
297.136	10.82
297.349	10.71
297.562	10.65
297.775	10.5
297.988	10.9
298.201	11.16
298.414	11.22
298.626	11.47
298.839	11.66
299.052	11.99
299.265	12.29
299.478	11.87
299.691	12.13
299.903	12.34
300.116	12.37
300.329	12.4
300.542	12.7
300.755	13.07
300.967	13.26
301.18	13.59
301.393	13.53
301.605	13.52
301.818	14.29
302.031	14.52
302.243	14.6
302.456	15.08
302.669	15.22
302.881	15.27
303.094	14.88
303.307	14.6
303.519	14.42
303.732	14.72
303.944	15.28
304.157	15.01
304.37	14.56
304.582	15.11
304.795	15.01
305.007	15.28
305.22	15.34
305.432	15.28
305.645	15.69
305.857	15.69
306.069	15.95
306.282	15.62
306.494	15.75
306.707	15.92
306.919	15.34
307.132	14.93
307.344	14.6
307.556	14.36
307.769	14.97
307.981	14.75
308.193	14.67
308.406	14.64
308.618	14.43
308.83	14.25
309.043	14.2
309.255	14.13
309.467	14.51
309.679	14.51
309.892	14.58
310.104	14.01
310.316	13.94
310.528	13.86
310.74	13.61
310.953	13.75
311.165	13.66
311.377	13.5
311.589	13.74
311.801	13.57
312.013	13.6
312.225	13.54
312.437	13.69
312.649	13.78
312.862	13.94
313.074	14.06
313.286	14.01
313.498	14.63
313.71	14.87
313.922	14.79
314.134	15.19
314.346	15.29
314.558	15.33
314.77	15.8
314.982	16.03
315.193	16.25
315.405	16.66
315.617	16.6
315.829	16.25
316.041	16.72
316.253	16.51
316.465	16.31
316.677	16.35
316.888	16.67
317.1	16.53
317.312	16.33
317.524	16.46
317.736	16.53
317.947	16.91
318.159	17.43
318.371	16.87
318.583	17.65
318.794	17.8
319.006	18.36
319.218	18.35
319.43	18.29
319.641	18.65
319.853	18.25
320.064	18.29
320.276	18.53
320.488	18.49
320.699	18.95
320.911	19.48
321.123	19.95
321.334	20.12
321.546	20.2
321.757	20.59
321.969	21.09
322.18	21.18
322.392	21.17
322.603	21.24
322.815	21.39
323.026	21.42
323.238	20.53
323.449	19.96
323.661	19.68
323.872	19.65
324.083	19.06
324.295	19
324.506	19.36
324.718	19.17
324.929	19.1
325.14	18.64
325.352	18.96
325.563	19.12
325.774	19.66
325.986	19.61
326.197	19.36
326.408	19.89
326.62	19.75
326.831	19.89
327.042	20.01
327.253	20.48
327.464	20.77
327.676	20.73
327.887	20.96
328.098	21.07
328.309	21.57
328.52	22.33
328.732	22.65
328.943	23.24
329.154	23.44
329.365	23.93
329.576	23.69
329.787	24.48
329.998	25.28
330.209	25.45
330.42	25.8
330.631	25.99
330.842	26.43
331.053	26.58
331.264	26.14
331.475	26.98
331.686	26.91
331.897	27.22
332.108	26.89
332.319	26.67
332.53	26.72
332.741	26.6
332.952	26.46
333.163	26.23
333.374	26.26
333.585	26.57
333.795	26.11
334.006	26.31
334.217	26.21
334.428	26.47
334.639	26.42
334.849	26.31
335.06	26.21
335.271	26.46
335.482	26.3
335.692	26.29
335.903	26.35
336.114	26.19
336.325	26.28
336.535	26.46
336.746	26.27
336.957	26.23
337.167	26.51
337.378	27.01
337.589	27.13
337.799	27.37
338.01	27.53
338.22	27.59
338.431	27.75
338.642	27.92
338.852	27.88
339.063	28.04
339.273	27.82
339.484	27.77
339.694	27.32
339.905	27.36
340.115	27.34
340.326	27.48
340.536	27.19
340.746	27.07
340.957	26.69
341.167	26.52
341.378	26.28
341.588	26.42
341.799	26.43
342.009	26.18
342.219	25.7
342.43	25.51
342.64	25.22
342.85	25.34
343.061	25.26
343.271	25.23
343.481	25.19
343.691	25.17
343.902	25.03
344.112	24.74
344.322	25.01
344.532	24.98
344.743	25.06
344.953	25.25
345.163	25.41
345.373	25.4
345.583	25.54
345.793	25.37
346.004	25.27
346.214	25.29
346.424	25.62
346.634	25.22
346.844	25.5
347.054	25.55
347.264	25.38
347.474	25.41
347.684	25.26
347.894	25.29
348.104	25.62
348.314	25.92
348.524	25.98
348.734	25.84
348.944	26.01
349.154	25.92
349.364	25.87
349.574	25.94
349.784	25.91
349.994	26.12
350.204	25.89
350.413	25.54
350.623	25.77
350.833	25.64
351.043	25.55
351.253	26.05
351.463	26.19
351.672	26.13
351.882	25.92
352.092	25.74
352.302	25.77
352.511	25.72
352.721	25.65
352.931	25.29
353.141	25.35
353.35	25.37
353.56	24.75
353.77	24.15
353.979	24.1
354.189	24
354.399	24.08
354.608	24.22
354.818	24.16
355.027	24.2
355.237	24.2
355.447	24.03
355.656	23.77
355.866	23.61
356.075	23.94
356.285	23.79
356.494	23.81
356.704	23.4
356.913	22.94
357.123	22.81
357.332	22.69
357.542	22.63
357.751	22.47
357.96	22.52
358.17	22.59
358.379	22.51
358.589	22.49
358.798	22.59
359.007	22.93
359.217	22.95
359.426	22.81
359.635	23.01
359.845	22.75
360.054	22.73
360.263	22.5
360.472	22.45
360.682	22.25
360.891	22.14
361.1	21.83
361.309	21.6
361.519	21.52
361.728	21.58
361.937	21.36
362.146	21.43
362.355	21.52
362.564	21.77
362.774	21.67
362.983	21.47
363.192	21.44
363.401	21.69
363.61	21.54
363.819	21.7
364.028	21.6
364.237	21.61
364.446	21.58
364.655	21.51
364.864	21.34
365.073	21.43
365.282	21.4
365.491	21.56
365.7	21.19
365.909	21.37
366.118	21.26
366.327	21.45
366.536	21.53
366.745	21.48
366.954	21.47
367.162	21.41
367.371	21.41
367.58	21.65
367.789	21.62
367.998	21.45
368.207	21.51
368.415	21.45
368.624	21.32
368.833	21.17
369.042	21.35
369.25	21.58
369.459	21.6
369.668	21.69
369.877	21.65
370.085	21.34
370.294	21.54
370.503	21.22
370.711	21.11
370.92	21.1
371.129	21.39
371.337	21.08
371.546	20.69
371.754	20.84
371.963	20.84
372.171	21
372.38	21.24
372.589	21.29
372.797	21.47
373.006	21.45
373.214	21.56
373.423	21.44
373.631	21.55
373.84	21.59
374.048	21.52
374.256	21.13
374.465	21.04
374.673	20.82
374.882	20.86
375.09	20.83
375.298	20.75
375.507	20.53
375.715	20.43
375.923	20.33
376.132	20.35
376.34	19.87
376.548	19.92
376.757	19.73
376.965	19.74
377.173	19.63
377.381	19.43
377.59	19.47
377.798	19.55
378.006	19.4
378.214	19.31
378.423	19.2
378.631	19.24
378.839	19.37
379.047	19.23
379.255	19.24
379.463	19.48
379.671	19.63
379.879	19.86
380.088	19.95
380.296	19.96
380.504	20.26
380.712	20.39
380.92	20.44
381.128	20.47
381.336	20.6
381.544	20.87
381.752	20.6
381.96	20.61
382.168	20.54
382.376	20.56
382.584	20.64
382.791	20.43
382.999	20.4
383.207	20.59
383.415	20.33
383.623	20.38
383.831	20.06
384.039	20.16
384.247	20.1
384.454	20.05
384.662	19.94
384.87	19.85
385.078	19.99
385.285	19.99
385.493	19.91
385.701	20.17
385.909	20.16
386.116	20.25
386.324	20.19
386.532	20.11
386.739	19.93
386.947	19.76
387.155	19.82
387.362	19.43
387.57	19.46
387.778	19.68
387.985	19.46
388.193	19.44
388.4	19.4
388.608	19.49
388.816	19.45
389.023	19.46
389.231	19.48
389.438	19.34
389.646	19.52
389.853	19.31
390.061	18.99
390.268	19.03
390.475	18.9
390.683	18.86
390.89	18.49
391.098	18.51
391.305	18.41
391.512	18.15
391.72	18.02
391.927	18.07
392.135	18.06
392.342	18.09
392.549	18.12
392.756	18.23
392.964	18.1
393.171	18.29
393.378	18.43
393.586	18.45
393.793	18.67
394	18.74
394.207	18.76
394.414	18.75
394.622	18.9
394.829	18.88
395.036	18.89
395.243	19.05
395.45	19.01
395.657	18.87
395.864	18.86
396.072	18.93
396.279	18.95
396.486	18.9
396.693	19.03
396.9	18.9
397.107	19.06
397.314	18.94
397.521	18.84
397.728	19.07
397.935	19.21
398.142	19.22
398.349	19.11
398.556	19.25
398.763	19.34
398.97	19.36
399.177	19.26
399.383	19.1
399.59	19.02
399.797	19.12
400.004	18.9
400.211	18.9
400.418	18.99
400.625	19.23
400.831	19.16
401.038	19.01
401.245	19.07
401.452	19.19
401.658	19.2
401.865	19.55
402.072	19.53
402.279	19.61
402.485	19.47
402.692	19.45
402.899	19.31
403.105	19.23
403.312	19.36
403.519	19.37
403.725	19.22
403.932	19.13
404.138	18.92
404.345	18.78
404.552	18.78
404.758	18.91
404.965	18.98
405.171	18.86
405.378	19.04
405.584	18.93
405.791	18.88
405.997	19.11
406.204	19.27
406.41	19.42
406.617	19.59
406.823	19.66
407.029	19.56
407.236	19.52
407.442	19.5
407.649	19.67
407.855	19.78
408.061	19.66
408.268	19.61
408.474	19.78
408.68	19.65
408.887	19.62
409.093	19.6
409.299	19.85
409.505	19.73
409.712	19.99
409.918	19.79
410.124	19.7
410.33	19.9
410.537	19.8
410.743	19.66
410.949	19.66
411.155	19.7
411.361	19.7
411.567	19.69
411.773	19.89
411.98	20.02
412.186	20.07
412.392	20.18
412.598	20.03
412.804	20.13
413.01	20.2
413.216	20.3
413.422	20.41
413.628	20.23
413.834	20.16
414.04	20.18
414.246	20.01
414.452	19.95
414.658	19.88
414.864	20.01
415.07	20.1
415.275	20.19
415.481	20.05
415.687	19.8
415.893	19.93
416.099	19.75
416.305	19.63
416.511	19.56
416.716	19.37
416.922	19.26
417.128	19.23
417.334	19.13
417.539	18.97
417.745	19.01
417.951	19.11
418.157	19.09
418.362	19.04
418.568	19.06
418.774	18.97
418.979	19.03
419.185	19
419.391	18.83
419.596	18.69
419.802	18.68
420.008	18.6
420.213	19.16
420.419	19.16
420.624	19.1
420.83	19.04
421.035	19.01
421.241	19.07
421.446	19.05
421.652	19.1
421.857	19.18
422.063	19.17
422.268	19.21
422.474	18.64
422.679	18.58
422.885	18.71
423.09	18.69
423.295	18.71
423.501	18.66
423.706	18.65
423.911	18.65
424.117	18.62
424.322	18.65
424.527	18.59
424.733	18.67
424.938	18.68
425.143	18.68
425.349	18.76
425.554	18.81
425.759	18.95
425.964	19.07
426.169	19.25
426.375	19.47
426.58	19.49
426.785	19.7
426.99	19.74
427.195	19.91
427.4	19.93
427.605	20.06
427.811	20.16
428.016	20.08
428.221	20.09
428.426	19.94
428.631	19.91
428.836	20.04
429.041	20.09
429.246	20.02
429.451	19.83
429.656	19.98
429.861	19.97
430.066	20.12
430.271	20.1
430.476	20.25
430.681	20.34
430.886	20.32
431.09	20.33
431.295	20.37
431.5	20.53
431.705	20.57
431.91	20.5
432.115	20.42
432.32	20.33
432.524	20.4
432.729	20.3
432.934	20.31
433.139	20.31
433.343	20.23
433.548	20.25
433.753	20.24
433.958	20.36
434.162	20.46
434.367	20.43
434.572	20.48
434.776	20.43
434.981	20.55
435.186	20.64
435.39	20.71
435.595	20.91
435.799	20.82
436.004	20.91
436.209	20.83
436.413	20.8
436.618	20.8
436.822	20.75
437.027	20.8
437.231	20.79
437.436	20.82
437.64	20.73
437.845	20.57
438.049	20.59
438.253	20.48
438.458	20.6
438.662	20.56
438.867	20.58
439.071	20.54
439.275	20.58
439.48	20.53
439.684	20.4
439.888	20.42
440.093	20.44
440.297	20.38
440.501	20.38
440.706	20.3
440.91	20.33
441.114	20.33
441.318	20.36
441.523	20.38
441.727	20.39
441.931	20.44
442.135	20.42
442.339	20.45
442.543	20.59
442.748	20.59
442.952	20.66
443.156	20.58
443.36	20.65
443.564	20.61
443.768	20.55
443.972	20.51
444.176	20.56
444.38	20.61
444.584	20.61
444.788	20.48
444.992	20.46
445.196	20.35
445.4	20.29
445.604	20.2
445.808	20.23
446.012	20.19
446.216	20.17
446.42	20.1
446.624	20.01
446.828	19.99
447.032	20.04
447.235	20.06
447.439	20.14
447.643	20.22
447.847	20.36
448.051	20.43
448.254	20.5
448.458	20.57
448.662	20.62
448.866	20.72
449.069	20.67
449.273	20.66
449.477	20.67
449.681	20.67
449.884	20.75
450.088	20.75
450.292	20.69
450.495	20.65
450.699	20.7
450.902	20.71
451.106	20.77
451.31	20.93
451.513	21.1
451.717	21.21
451.92	21.21
452.124	21.23
452.327	21.41
452.531	21.44
452.734	21.5
452.938	21.44
453.141	21.6
453.345	21.66
453.548	21.59
453.752	21.47
453.955	21.36
454.158	21.36
454.362	21.46
454.565	21.39
454.769	21.51
454.972	21.61
455.175	21.64
455.379	21.49
455.582	21.57
455.785	21.59
455.988	21.73
456.192	21.78
456.395	21.72
456.598	21.57
456.801	21.38
457.005	21.22
457.208	21.14
457.411	21.15
457.614	21.21
457.817	21.01
458.021	20.93
458.224	20.78
458.427	20.72
458.63	20.71
458.833	20.68
459.036	20.7
459.239	20.61
459.442	20.49
459.645	20.36
459.848	20.25
460.051	20.17
460.254	20.25
460.457	20.19
460.66	20.19
460.863	20.19
461.066	20.28
461.269	20.27
461.472	20.31
461.675	20.4
461.878	20.57
462.081	20.69
462.284	20.91
462.486	20.82
462.689	20.86
462.892	21.04
463.095	21.09
463.298	21.1
463.5	21.08
463.703	21.25
463.906	21.37
464.109	21.3
464.311	21.32
464.514	21.4
464.717	21.51
464.92	21.64
465.122	21.48
465.325	21.54
465.528	21.54
465.73	21.62
465.933	21.49
466.135	21.4
466.338	21.51
466.541	21.57
466.743	21.43
466.946	21.48
467.148	21.52
467.351	21.53
467.553	21.61
467.756	21.59
467.958	21.72
468.161	21.73
468.363	21.78
468.566	21.75
468.768	21.67
468.971	21.61
469.173	21.56
469.375	21.47
469.578	21.52
469.78	21.52
469.983	21.48
470.185	21.31
470.387	21.35
470.59	21.41
470.792	21.5
470.994	21.52
471.196	21.62
471.399	21.6
471.601	21.49
471.803	21.63
472.005	21.46
472.208	21.47
472.41	21.56
472.612	21.57
472.814	21.5
473.016	21.43
473.218	21.53
473.421	21.53
473.623	21.52
473.825	21.64
474.027	21.48
474.229	21.65
474.431	21.7
474.633	21.69
474.835	21.72
475.037	21.62
475.239	21.67
475.441	21.57
475.643	21.53
475.845	21.39
476.047	21.36
476.249	21.44
476.451	21.29
476.653	21.22
476.855	21.15
477.057	21.13
477.258	21.11
477.46	20.97
477.662	20.93
477.864	20.9
478.066	21
478.268	20.96
478.469	20.84
478.671	20.83
478.873	20.76
479.075	20.8
479.276	20.76
479.478	20.85
479.68	20.91
479.882	20.84
480.083	20.77
480.285	20.7
480.487	20.73
480.688	20.72
480.89	20.75
481.091	20.67
481.293	20.56
481.495	20.56
481.696	20.49
481.898	20.38
482.099	20.28
482.301	20.24
482.502	20.13
482.704	19.97
482.905	19.84
483.107	19.71
483.308	19.67
483.51	19.55
483.711	19.42
483.913	19.35
484.114	19.32
484.315	19.33
484.517	19.26
484.718	19.25
484.92	19.26
485.121	19.29
485.322	19.31
485.524	19.32
485.725	19.42
485.926	19.5
486.127	19.53
486.329	19.48
486.53	19.42
486.731	19.46
486.932	19.47
487.134	19.45
487.335	19.47
487.536	19.49
487.737	19.49
487.938	19.47
488.139	19.48
488.341	19.45
488.542	19.51
488.743	19.58
488.944	19.63
489.145	19.66
489.346	19.72
489.547	19.75
489.748	19.76
489.949	19.77
490.15	19.77
490.351	19.82
490.552	19.9
490.753	19.86
490.954	19.8
491.155	19.77
491.356	19.78
491.557	19.78
491.758	19.83
491.959	19.83
492.159	19.88
492.36	19.94
492.561	19.95
492.762	20
492.963	20.11
493.164	20.24
493.364	20.31
493.565	20.43
493.766	20.55
493.967	20.59
494.167	20.69
494.368	20.7
494.569	20.76
494.769	20.9
494.97	20.92
495.171	20.97
495.371	21.02
495.572	21.16
495.773	21.18
495.973	21.17
496.174	21.22
496.375	21.28
496.575	21.35
496.776	21.37
496.976	21.33
497.177	21.33
497.377	21.36
497.578	21.4
497.778	21.33
497.979	21.35
498.179	21.48
498.38	21.45
498.58	21.47
498.78	21.61
498.981	21.64
499.181	21.67
499.382	21.76
499.582	21.74
499.782	21.79
499.983	21.9
500.183	21.97
500.383	21.91
500.584	21.97
500.784	22.05
500.984	22.02
501.184	22.03
501.385	22.12
501.585	22.1
501.785	22.19
501.985	22.33
502.185	22.28
502.386	22.25
502.586	22.29
502.786	22.42
502.986	22.44
503.186	22.37
503.386	22.39
503.586	22.38
503.786	22.35
503.987	22.32
504.187	22.28
504.387	22.34
504.587	22.49
504.787	22.58
504.987	22.58
505.187	22.57
505.387	22.76
505.587	22.76
505.786	22.89
505.986	23.04
506.186	23.11
506.386	23.09
506.586	23.16
506.786	23.11
506.986	23.14
507.186	23.2
507.386	23.26
507.585	23.16
507.785	23.23
507.985	23.26
508.185	23.25
508.384	23.34
508.584	23.42
508.784	23.4
508.984	23.45
509.183	23.55
509.383	23.62
509.583	23.7
509.782	23.79
509.982	23.87
510.182	23.87
510.381	23.9
510.581	23.94
510.781	23.98
510.98	24.07
511.18	24.14
511.379	24.02
511.579	24.07
511.778	24.15
511.978	24.18
512.177	24.15
512.377	24.24
512.576	24.3
512.776	24.29
512.975	24.38
513.175	24.41
513.374	24.46
513.573	24.62
513.773	24.62
513.972	24.56
514.172	24.71
514.371	24.89
514.57	24.96
514.77	24.95
514.969	25.07
515.168	25.08
515.367	25.2
515.567	25.2
515.766	25.14
515.965	25.17
516.164	25.26
516.364	25.13
516.563	25.15
516.762	25.13
516.961	25.23
517.16	25.23
517.359	25.24
517.559	25.22
517.758	25.31
517.957	25.38
518.156	25.36
518.355	25.42
518.554	25.59
518.753	25.61
518.952	25.61
519.151	25.67
519.35	25.81
519.549	25.89
519.748	26.01
519.947	26.09
520.146	26.16
520.345	26.35
520.544	26.46
520.743	26.44
520.942	26.51
521.141	26.73
521.339	26.79
521.538	26.85
521.737	26.97
521.936	27.03
522.135	27.09
522.333	27.16
522.532	27.16
522.731	27.19
522.93	27.35
523.129	27.51
523.327	27.48
523.526	27.58
523.725	27.66
523.923	27.73
524.122	27.78
524.321	27.75
524.519	27.82
524.718	27.9
524.917	27.85
525.115	27.9
525.314	27.89
525.512	27.91
525.711	27.93
525.909	27.91
526.108	27.92
526.306	28
526.505	28.01
526.703	28.07
526.902	28.04
527.1	28.16
527.299	28.18
527.497	28.15
527.696	28.16
527.894	28.17
528.092	28.16
528.291	28.19
528.489	28.17
528.688	28.21
528.886	28.19
529.084	28.28
529.283	28.31
529.481	28.36
529.679	28.44
529.877	28.53
530.076	28.67
530.274	28.79
530.472	28.83
530.67	28.99
530.869	29.1
531.067	29.32
531.265	29.42
531.463	29.49
531.661	29.54
531.859	29.69
532.057	29.75
532.255	29.78
532.454	29.84
532.652	29.91
532.85	29.98
533.048	30.01
533.246	30.02
533.444	30.06
533.642	30.1
533.84	30.15
534.038	30.19
534.236	30.24
534.434	30.34
534.632	30.42
534.83	30.54
535.027	30.57
535.225	30.73
535.423	30.85
535.621	30.97
535.819	31.13
536.017	31.27
536.215	31.33
536.412	31.44
536.61	31.51
536.808	31.62
537.006	31.67
537.203	31.71
537.401	31.8
537.599	31.9
537.797	31.92
537.994	31.99
538.192	32.08
538.39	32.22
538.587	32.37
538.785	32.47
538.983	32.64
539.18	32.79
539.378	32.87
539.575	32.86
539.773	32.8
539.97	32.88
540.168	32.91
540.366	32.84
540.563	32.77
540.761	32.77
540.958	32.8
541.155	32.7
541.353	32.67
541.55	32.67
541.748	32.7
541.945	32.75
542.143	32.75
542.34	32.71
542.537	32.77
542.735	32.85
542.932	32.89
543.129	32.91
543.327	33.08
543.524	33.25
543.721	33.46
543.919	33.59
544.116	33.79
544.313	33.98
544.51	34.18
544.708	34.23
544.905	34.39
545.102	34.61
545.299	34.76
545.496	34.76
545.693	34.74
545.891	34.79
546.088	34.88
546.285	34.81
546.482	34.76
546.679	34.81
546.876	34.86
547.073	34.88
547.27	34.88
547.467	34.89
547.664	34.94
547.861	35.08
548.058	35.09
548.255	35.22
548.452	35.39
548.649	35.59
548.846	35.64
549.043	35.79
549.24	35.87
549.437	35.93
549.633	36.03
549.83	36.11
550.027	36.16
550.224	36.19
550.421	36.16
550.618	36.17
550.814	36.19
551.011	36.25
551.208	36.33
551.405	36.31
551.601	36.28
551.798	36.29
551.995	36.2
552.191	36.11
552.388	36.13
552.585	36.1
552.781	36.03
552.978	36.01
553.175	35.98
553.371	36.06
553.568	36.18
553.764	36.22
553.961	36.26
554.157	36.36
554.354	36.46
554.55	36.55
554.747	36.58
554.943	36.65
555.14	36.8
555.336	36.82
555.533	36.79
555.729	36.84
555.926	36.81
556.122	36.78
556.318	36.86
556.515	36.82
556.711	36.77
556.907	36.96
557.104	37.16
557.3	37.11
557.496	37.43
557.693	37.46
557.889	37.59
558.085	37.61
558.281	37.56
558.478	37.79
558.674	37.93
558.87	37.99
559.066	37.94
559.262	37.97
559.459	37.87
559.655	37.7
559.851	37.76
560.047	37.79
560.243	37.88
560.439	38.02
560.635	37.81
560.831	37.89
561.027	37.99
561.223	37.92
561.419	38
561.615	38.04
561.811	38.22
562.007	38.17
562.203	38.17
562.399	38.17
562.595	38.18
562.791	38.39
562.987	38.26
563.183	38.14
563.379	38.21
563.575	38.15
563.771	38.27
563.966	38.12
564.162	38.21
564.358	38.17
564.554	38.1
564.75	38.04
564.945	37.89
565.141	38.05
565.337	38.09
565.533	38.15
565.728	38.08
565.924	38.04
566.12	38.03
566.315	38.01
566.511	37.93
566.707	38.03
566.902	38.09
567.098	38.09
567.293	38.04
567.489	37.97
567.684	37.87
567.88	38.04
568.076	38.07
568.271	38.09
568.467	38.12
568.662	38.13
568.858	38.15
569.053	38.21
569.248	38.27
569.444	38.28
569.639	38.35
569.835	38.42
570.03	38.31
570.225	38.27
570.421	38.25
570.616	38.25
570.812	38.33
571.007	38.36
571.202	38.27
571.397	38.24
571.593	38.17
571.788	38.29
571.983	38.26
572.178	38.32
572.374	38.4
572.569	38.38
572.764	38.43
572.959	38.5
573.154	38.44
573.35	38.45
573.545	38.53
573.74	38.44
573.935	38.39
574.13	38.44
574.325	38.4
574.52	38.38
574.715	38.42
574.91	38.47
575.105	38.4
575.3	38.5
575.495	38.66
575.69	38.73
575.885	39
576.08	39.12
576.275	39.16
576.47	39.23
576.665	39.35
576.86	39.47
577.055	39.54
577.25	39.68
577.444	39.86
577.639	39.92
577.834	39.94
578.029	40.04
578.224	40.1
578.418	40.23
578.613	40.42
578.808	40.41
579.003	40.51
579.197	40.66
579.392	40.66
579.587	40.65
579.781	40.63
579.976	40.78
580.171	40.68
580.365	40.78
580.56	40.97
580.755	40.92
580.949	41
581.144	41.05
581.338	40.86
581.533	41.21
581.727	41.2
581.922	41.35
582.116	41.24
582.311	41.33
582.505	41.04
582.7	40.74
582.894	40.74
583.089	40.89
583.283	40.92
583.478	41.18
583.672	40.98
583.866	40.96
584.061	40.83
584.255	41.06
584.449	41.12
584.644	41.27
584.838	41.41
585.032	41.53
585.226	41.43
585.421	41.45
585.615	41.35
585.809	41.36
586.003	41.44
586.198	41.47
586.392	41.32
586.586	41.34
586.78	41.58
586.974	41.68
587.168	41.79
587.363	41.84
587.557	41.85
587.751	41.9
587.945	41.99
588.139	42.1
588.333	42.02
588.527	42.14
588.721	42.16
588.915	42.01
589.109	41.72
589.303	41.68
589.497	41.83
589.691	41.81
589.885	41.94
590.079	41.83
590.273	41.71
590.466	41.9
590.66	41.73
590.854	41.69
591.048	41.85
591.242	42.13
591.436	42.12
591.629	41.99
591.823	42.13
592.017	42.04
592.211	42.18
592.404	42.34
592.598	42.16
592.792	42.45
592.986	42.54
593.179	42.48
593.373	42.49
593.567	42.41
593.76	42.45
593.954	42.28
594.147	42.32
594.341	42.22
594.535	42.18
594.728	42.39
594.922	42.24
595.115	42.1
595.309	42.2
595.502	42.36
595.696	42.32
595.889	42.34
596.083	42.33
596.276	42.31
596.47	42.17
596.663	42.16
596.856	42.2
597.05	42.35
597.243	42.42
597.437	42.32
597.63	42.26
597.823	42.29
598.017	42.16
598.21	42.2
598.403	42.21
598.596	42.5
598.79	42.49
598.983	42.45
599.176	42.28
599.369	42.46
599.563	42.53
599.756	42.6
599.949	42.75
600.142	43.05
600.335	43.42
600.528	43.57
600.722	43.55
600.915	43.73
601.108	43.9
601.301	43.95
601.494	43.92
601.687	43.99
601.88	43.96
602.073	43.73
602.266	43.61
602.459	43.3
602.652	43.12
602.845	42.98
603.038	42.96
603.231	42.8
603.424	42.81
603.617	42.65
603.809	42.59
604.002	42.58
604.195	42.71
604.388	42.58
604.581	42.59
604.774	42.6
604.966	42.77
605.159	42.69
605.352	42.54
605.545	42.61
605.737	42.74
605.93	42.88
606.123	42.92
606.316	43
606.508	43.21
606.701	43.48
606.894	43.71
607.086	43.84
607.279	43.99
607.471	44.25
607.664	44.39
607.857	44.67
608.049	44.71
608.242	44.95
608.434	45.24
608.627	45.51
608.819	45.78
609.012	45.9
609.204	46.27
609.397	46.56
609.589	47.19
609.782	47.66
609.974	48.16
610.166	48.78
610.359	49.13
610.551	49.53
610.743	49.94
610.936	50.28
611.128	50.83
611.32	51.11
611.513	51.44
611.705	51.58
611.897	51.54
612.09	51.41
612.282	51.16
612.474	51.18
612.666	51.11
612.858	51.06
613.051	51.1
613.243	50.97
613.435	50.66
613.627	50.43
613.819	50.09
614.011	50.49
614.203	50.28
614.395	50.18
614.588	49.92
614.78	49.8
614.972	49.74
615.164	49.08
615.356	48.94
615.548	48.7
615.74	48.68
615.932	48.4
616.124	47.48
616.315	47.47
616.507	47.53
616.699	47.61
616.891	47.49
617.083	47.33
617.275	47.6
617.467	47.3
617.659	47.4
617.85	47.5
618.042	47.6
618.234	47.86
618.426	47.71
618.618	47.65
618.809	47.61
619.001	47.67
619.193	47.81
619.384	47.77
619.576	48.01
619.768	47.94
619.959	47.74
620.151	48
620.343	47.88
620.534	47.98
620.726	47.97
620.917	48.07
621.109	47.87
621.301	47.61
621.492	47.75
621.684	47.72
621.875	47.9
622.067	48
622.258	47.93
622.45	48.21
622.641	48.11
622.832	48.03
623.024	47.95
623.215	47.9
623.407	47.9
623.598	47.73
623.789	47.54
623.981	47.46
624.172	47.42
624.363	47.32
624.555	47.13
624.746	47.15
624.937	47.27
625.129	47.39
625.32	47.32
625.511	47.45
625.702	47.38
625.893	47.29
626.085	47.14
626.276	47.01
626.467	47
626.658	46.84
626.849	46.77
627.04	46.72
627.231	46.55
627.422	46.79
627.614	46.66
627.805	46.85
627.996	47.04
628.187	47.14
628.378	47.35
628.569	47.52
628.76	47.81
628.951	48.11
629.142	48.07
629.332	48.22
629.523	48.31
629.714	48.62
629.905	48.6
630.096	48.74
630.287	49.1
630.478	49.06
630.669	48.85
630.859	48.91
631.05	48.85
631.241	49.15
631.432	49.09
631.623	48.98
631.813	48.71
632.004	48.69
632.195	48.55
632.385	48.24
632.576	48.31
632.767	48.41
632.957	48.28
633.148	48.39
633.339	48.3
633.529	48.28
633.72	48.09
633.91	48.15
634.101	48.06
634.292	48.02
634.482	48.1
634.673	48.24
634.863	48.02
635.054	48.08
635.244	47.9
635.435	47.8
635.625	47.92
635.815	47.99
636.006	48
636.196	48.18
636.387	48.36
636.577	48.4
636.767	48.2
636.958	48.39
637.148	48.27
637.338	48.17
637.529	48.18
637.719	48.17
637.909	48.31
638.099	48.36
638.29	48.43
638.48	48.44
638.67	48.58
638.86	48.82
639.05	48.92
639.241	49.32
639.431	49.6
639.621	49.55
639.811	49.67
640.001	49.87
640.191	50.02
640.381	49.89
640.571	49.95
640.761	49.87
640.951	49.69
641.141	49.76
641.331	49.67
641.521	49.81
641.711	50.1
641.901	50.13
642.091	50.15
642.281	50.07
642.471	50.15
642.661	50.21
642.851	50.33
643.041	50.46
643.231	50.49
643.42	50.59
643.61	50.49
643.8	50.55
643.99	50.44
644.18	50.19
644.369	50.15
644.559	50.42
644.749	50.26
644.939	50.2
645.128	50.09
645.318	49.91
645.508	49.78
645.697	49.84
645.887	49.69
646.076	49.66
646.266	49.86
646.456	50.03
646.645	49.92
646.835	49.97
647.024	49.83
647.214	50.03
647.403	50.31
647.593	50.52
647.782	50.29
647.972	50.3
648.161	50.49
648.351	50.37
648.54	50.41
648.73	50.24
648.919	50.31
649.108	50.46
649.298	50.46
649.487	50.38
649.677	50.21
649.866	50.6
650.055	50.6
650.244	50.57
650.434	50.74
650.623	50.69
650.812	50.67
651.002	50.71
651.191	50.74
651.38	50.76
651.569	50.87
651.758	50.97
651.947	50.86
652.137	50.78
652.326	50.66
652.515	50.84
652.704	50.93
652.893	51.11
653.082	50.93
653.271	50.84
653.46	50.74
653.649	50.65
653.838	50.49
654.027	50.32
654.216	50.28
654.405	50.52
654.594	50.06
654.783	49.76
654.972	49.69
655.161	49.83
655.35	49.76
655.539	49.79
655.728	49.81
655.916	49.68
656.105	49.81
656.294	50.1
656.483	49.93
656.672	50.21
656.86	50.34
657.049	50.36
657.238	50.4
657.427	50.58
657.615	50.61
657.804	50.35
657.993	50.55
658.181	50.29
658.37	49.99
658.559	49.9
658.747	49.79
658.936	49.79
659.125	49.92
659.313	49.75
659.502	49.68
659.69	49.58
659.879	49.57
660.067	49.53
660.256	49.69
660.444	49.94
660.633	49.99
660.821	50.08
661.01	50.06
661.198	49.91
661.387	50
661.575	50.06
661.763	50.05
661.952	50.37
662.14	50.51
662.328	50.71
662.517	50.73
662.705	50.86
662.893	50.87
663.082	51.25
663.27	51.26
663.458	51.12
663.646	51.19
663.834	51.47
664.023	51.66
664.211	51.78
664.399	51.9
664.587	52.11
664.775	52.21
664.963	52.33
665.152	52.41
665.34	52.46
665.528	52.76
665.716	52.87
665.904	52.87
666.092	52.69
666.28	52.53
666.468	52.37
666.656	52.32
666.844	52.11
667.032	52.12
667.22	51.68
667.408	51.85
667.596	51.89
667.784	51.52
667.971	51.44
668.159	51.54
668.347	51.49
668.535	51.57
668.723	51.51
668.911	51.67
669.098	51.69
669.286	51.86
669.474	51.87
669.662	52.08
669.849	52.68
670.037	52.75
670.225	52.87
670.413	52.92
670.6	52.78
670.788	52.77
670.976	52.84
671.163	52.81
671.351	52.87
671.538	52.85
671.726	52.51
671.913	52.32
672.101	52.29
672.289	52.32
672.476	52.23
672.664	52.54
672.851	52.48
673.039	52.44
673.226	52.36
673.413	52.31
673.601	52.32
673.788	52.76
673.976	52.95
674.163	53.19
674.35	53.22
674.538	53.36
674.725	53.26
674.912	53.62
675.1	53.78
675.287	54.14
675.474	54.53
675.662	54.8
675.849	54.68
676.036	54.65
676.223	54.73
676.411	54.36
676.598	54.67
676.785	54.81
676.972	54.62
677.159	54.6
677.346	54.66
677.533	54.65
677.721	54.66
677.908	54.54
678.095	54.28
678.282	53.91
678.469	54.06
678.656	53.89
678.843	53.63
679.03	53.52
679.217	53.52
679.404	53.19
679.591	52.78
679.778	52.74
679.964	52.67
680.151	52.54
680.338	52.58
680.525	52.68
680.712	52.69
680.899	52.99
681.086	53.08
681.272	52.9
681.459	52.86
681.646	52.86
681.833	52.57
682.02	52.64
682.206	53.05
682.393	53.16
682.58	53.06
682.766	53.31
682.953	53.05
683.14	53.11
683.326	53.79
683.513	54.15
683.7	54.55
683.886	54.55
684.073	54.61
684.259	54.37
684.446	54.57
684.632	54.83
684.819	54.58
685.005	54.49
685.192	54.47
685.378	54.11
685.565	54.1
685.751	53.96
685.938	54.17
686.124	54.29
686.31	54.52
686.497	54.49
686.683	54.4
686.87	54.33
687.056	54.74
687.242	54.39
687.429	54.45
687.615	54.55
687.801	54.6
687.987	54.66
688.174	54.51
688.36	54.58
688.546	54.53
688.732	54.34
688.918	54.42
689.105	54.31
689.291	54.74
689.477	54.94
689.663	55.05
689.849	55.3
690.035	55.61
690.221	55.98
690.407	56.01
690.593	56.24
690.779	56.67
690.965	56.38
691.151	56.44
691.337	56.55
691.523	56.09
691.709	55.69
691.895	55.89
692.081	55.74
692.267	55.65
692.453	55.43
692.639	55.42
692.825	55.57
693.011	56.24
693.196	56.46
693.382	56.52
693.568	56.8
693.754	57.25
693.94	56.8
694.125	56.81
694.311	56.41
694.497	56.54
694.682	56.33
694.868	56.09
695.054	55.82
695.239	55.53
695.425	54.85
695.611	55.12
695.796	54.52
695.982	54.42
696.168	54.19
696.353	54.31
696.539	54.05
696.724	53.81
696.91	53.29
697.095	52.99
697.281	52.85
697.466	52.99
697.652	52.59
697.837	52.55
698.023	52.17
698.208	51.81
698.393	51.67
698.579	51.64
698.764	51.58
698.949	51.53
699.135	51.45
699.32	51.52
699.505	51.39
699.691	51.32
699.876	51.17
700.061	51.54
700.246	51.76
700.432	51.74
700.617	51.69
700.802	52.04
700.987	52.28
701.172	52.73
701.358	52.98
701.543	53.51
701.728	54.03
701.913	54.38
702.098	54.96
702.283	55.75
702.468	56.11
702.653	57.01
702.838	57
703.023	57.67
703.208	57.99
703.393	57.77
703.578	57.94
703.763	58.09
703.948	58.77
704.133	58.47
704.318	58.38
704.503	58.54
704.688	58.42
704.873	58.58
705.057	58.34
705.242	58.41
705.427	58.61
705.612	58.7
705.797	58.65
705.981	58.77
706.166	59.36
706.351	59.29
706.536	59.47
706.72	59.18
706.905	59.42
707.09	59.65
707.274	59.8
707.459	60.02
707.644	60.17
707.828	60.36
708.013	60.21
708.197	59.47
708.382	59.21
708.567	59.2
708.751	59.34
708.936	59.1
709.12	59.06
709.305	59
709.489	58.6
709.673	58.01
709.858	57.83
710.042	57.58
710.227	57.69
710.411	58.07
710.596	58.06
710.78	57.94
710.964	58.29
711.149	58.34
711.333	58.15
711.517	58.62
711.702	58.76
711.886	58.7
712.07	58.83
712.254	59.03
712.438	58.7
712.623	58.55
712.807	58.32
712.991	57.92
713.175	57.96
713.359	58.02
713.544	57.37
713.728	57.51
713.912	57.22
714.096	57.16
714.28	56.74
714.464	56.51
714.648	56.4
714.832	56.86
715.016	56.92
715.2	56.72
715.384	56.43
715.568	56.42
715.752	56.19
715.936	56.1
716.12	55.67
716.304	55.65
716.488	55.73
716.671	55.65
716.855	55.67
717.039	55.4
717.223	55.36
717.407	55.44
717.59	55.4
717.774	55.9
717.958	55.99
718.142	56.11
718.325	56.18
718.509	56.53
718.693	57.08
718.877	56.5
719.06	56.4
719.244	56.15
719.428	56.37
719.611	56.94
719.795	56.91
719.978	57.15
720.162	57.87
720.345	58.41
720.529	58.49
720.713	58.46
720.896	58.79
721.08	59.56
721.263	60.27
721.446	60.31
721.63	60.38
721.813	60.53
721.997	60.58
722.18	60.23
722.364	60.23
722.547	60.41
722.73	60.19
722.914	60.35
723.097	60.24
723.28	59.57
723.464	59.28
723.647	59.53
723.83	58.95
724.013	59.08
724.197	59.84
724.38	60.22
724.563	59.64
724.746	59.77
724.929	59.7
725.112	60.16
725.296	60.3
725.479	60.46
725.662	60.05
725.845	60.18
726.028	59.77
726.211	58.47
726.394	58.01
726.577	58.04
726.76	57.83
726.943	57.91
727.126	57
727.309	56.84
727.492	56.45
727.675	56.65
727.858	56.75
728.041	56.63
728.224	57.58
728.407	56.9
728.589	57.35
728.772	57.74
728.955	57.45
729.138	57.8
729.321	57.7
729.503	58.04
729.686	57.47
729.869	57.09
730.052	57.45
730.234	57.48
730.417	57.67
730.6	57.49
730.782	57.18
730.965	57.23
731.148	57.26
731.33	57.95
731.513	57.81
731.695	58.12
731.878	58.29
732.061	58.02
732.243	57.76
732.426	58.08
732.608	57.96
732.791	58.02
732.973	58.02
733.156	58.1
733.338	57.43
733.52	57.74
733.703	57.48
733.885	57.96
734.068	58.35
734.25	58.62
734.432	58.92
734.615	58.81
734.797	58.83
734.979	58.9
735.162	59.18
735.344	59.52
735.526	59.4
735.708	59.82
735.891	59.48
736.073	59.58
736.255	59.98
736.437	59.36
736.619	59.64
736.802	60.02
736.984	60.23
737.166	60.11
737.348	60.5
737.53	60.71
737.712	60.63
737.894	61.04
738.076	61.23
738.258	60.43
738.44	60.89
738.622	60.86
738.804	60.6
738.986	60.42
739.168	60.63
739.35	60.62
739.532	60.5
739.714	60.4
739.896	60.32
740.078	60.09
740.259	60.23
740.441	60.43
740.623	60.93
740.805	61.16
740.987	61.2
741.168	60.84
741.35	60.53
741.532	61.4
741.714	62.73
741.895	63.18
742.077	63.39
742.259	63.93
742.44	64.22
742.622	64.08
742.804	64.3
742.985	64.63
743.167	64.48
743.348	64.49
743.53	63.79
743.711	62.68
743.893	62.29
744.075	62.1
744.256	61.79
744.438	62.09
744.619	62.19
744.8	62.32
744.982	62.49
745.163	62.74
745.345	63.34
745.526	64.06
745.707	64.43
745.889	64.56
746.07	64.84
746.252	65.09
746.433	64.96
746.614	65.13
746.795	64.72
746.977	64.72
747.158	65.17
747.339	65.56
747.52	65.22
747.702	65.15
747.883	65.6
748.064	65.53
748.245	65.3
748.426	65.11
748.607	65.68
748.788	66
748.97	66.01
749.151	65.63
749.332	66.23
749.513	65.84
749.694	66.28
749.875	66.2
750.056	67.23
750.237	67.48
750.418	68.08
750.599	67.54
750.78	66.88
750.96	67.09
751.141	67.16
751.322	65.79
751.503	66.19
751.684	66.15
751.865	65.65
752.046	65.02
752.226	65
752.407	64.35
752.588	64.2
752.769	65.64
752.949	65.28
753.13	66.27
753.311	66.53
753.492	66.3
753.672	65.51
753.853	65.69
754.034	65.77
754.214	65.41
754.395	65.16
754.575	64.75
754.756	64.01
754.937	64.32
755.117	63.43
755.298	63.88
755.478	63.92
755.659	64.69
755.839	64.62
756.02	64.32
756.2	64.5
756.381	64.44
756.561	65.38
756.741	65.15
756.922	65.06
757.102	65.52
757.283	65.11
757.463	64.62
757.643	64.42
757.823	64.57
758.004	64.04
758.184	63.62
758.364	63.63
758.545	62.76
758.725	62.16
758.905	61.48
759.085	61.15
759.265	61.04
759.446	60.96
759.626	60.96
759.806	60.07
759.986	60.19
760.166	60.13
760.346	60.07
760.526	59.95
760.706	60.01
760.886	60.16
761.066	59.81
761.246	59.17
761.426	58.92
761.606	58.37
761.786	57.82
761.966	57.07
762.146	56.89
762.326	56.54
762.506	55.75
762.686	55.06
762.866	54.55
763.046	53.97
763.225	53.65
763.405	52.72
763.585	52.1
763.765	52.28
763.945	52.03
764.124	51.76
764.304	52
764.484	52.48
764.664	52.73
764.843	53.22
765.023	53.6
765.203	53.89
765.382	55.03
765.562	56.02
765.741	56.54
765.921	57.5
766.101	58.16
766.28	58.18
766.46	58.6
766.639	59.46
766.819	59.28
766.998	59.78
767.178	60.68
767.357	61.16
767.537	61.28
767.716	61.57
767.896	61.04
768.075	61.39
768.254	61.09
768.434	61.73
768.613	62.41
768.792	62.93
768.972	63.48
769.151	63.32
769.33	63.71
769.51	63.88
769.689	64.2
769.868	66.42
770.047	67.14
770.226	68.08
770.406	68.27
770.585	68.31
770.764	68.77
770.943	68.91
771.122	68.77
771.301	69.63
771.48	69.19
771.66	69.67
771.839	68.54
772.018	68.51
772.197	69.33
772.376	68.75
772.555	68.74
772.734	68.61
772.913	68.35
773.092	68.41
773.271	67.43
773.449	67.94
773.628	68.19
773.807	68.32
773.986	67.7
774.165	67.17
774.344	68.25
774.523	67.44
774.701	67.9
774.88	68.68
775.059	69.12
775.238	69.41
775.417	69.05
775.595	69.05
775.774	69.45
775.953	69.58
776.131	69.67
776.31	68.44
776.489	69.04
776.667	68.18
776.846	68.27
777.025	68.71
777.203	69.24
777.382	70.41
777.56	70.01
777.739	69.97
777.917	70.42
778.096	69.39
778.274	69.86
778.453	69.62
778.631	70.46
778.81	69.35
778.988	68.51
779.166	68.13
779.345	68.36
779.523	67.41
779.702	68.06
779.88	68.05
780.058	68.63
780.237	69.34
780.415	70.12
780.593	69.6
780.771	69.87
780.95	71.08
781.128	70.32
781.306	69.1
781.484	70.35
781.662	69.45
781.841	69.93
782.019	69.85
782.197	69.58
782.375	68.48
782.553	69.13
782.731	69.99
782.909	70.36
783.087	71.23
783.265	72.33
783.443	72.55
783.621	72.72
783.799	72.2
783.977	73.42
784.155	73.21
784.333	73.39
784.511	72.8
784.689	72.36
784.867	71.53
785.045	71.45
785.223	71.11
785.4	71.02
785.578	70.51
785.756	71.58
785.934	70.76
786.112	71.68
786.289	72.28
786.467	73.11
786.645	73.24
786.823	73.11
787	72.81
787.178	72.44
787.356	71.4
787.533	71.4
787.711	70.49
787.889	70.66
788.066	69.41
788.244	68.37
788.421	68.81
788.599	67.97
788.776	66.92
788.954	67.11
789.131	66.83
789.309	67.63
789.486	68.31
789.664	67.96
789.841	68.19
790.019	68.69
790.196	69.99
790.373	68.2
790.551	68.9
790.728	70.42
790.906	70.31
791.083	71.71
791.26	72.28
791.437	71.53
791.615	71.39
791.792	71.03
791.969	71.11
792.146	70.45
792.324	71.95
792.501	72.45
792.678	72.28
792.855	73.27
793.032	72.85
793.209	71.84
793.387	72.26
793.564	72.93
793.741	72.79
793.918	73
794.095	73.14
794.272	72.97
794.449	71.3
794.626	72.49
794.803	72
794.98	72.05
795.157	71.69
795.334	70.62
795.511	70
795.688	70.13
795.864	69.49
796.041	69.58
796.218	69.99
796.395	69.99
796.572	68.05
796.749	68.17
796.925	67.33
797.102	68.49
797.279	68.86
797.456	69.46
797.632	69.54
797.809	69.58
797.986	69.92
798.162	70.17
798.339	70.97
798.516	71.14
798.692	71.5
798.869	71.7
799.046	70.96
799.222	72.72
799.399	73.16
799.575	72.51
799.752	72.96
799.928	72.76
800.105	72.02
800.281	71.91
800.458	73
800.634	72.19
800.811	73.24
800.987	73.82
801.163	73.05
801.34	73.2
801.516	74.4
801.692	74.23
801.869	74.38
802.045	75.25
802.221	76.07
802.398	75.28
802.574	76.16
802.75	77.54
802.926	77.31
803.103	78.9
803.279	78.58
803.455	79.92
803.631	81.01
803.807	83.02
803.983	83.33
804.16	83.38
804.336	84.05
804.512	83.9
804.688	83.87
804.864	85.23
805.04	85.21
805.216	85
805.392	84.54
805.568	84.61
805.744	84.65
805.92	84.39
806.096	85.19
806.272	85.84
806.448	87.83
806.623	87.24
806.799	87.03
806.975	84.64
807.151	85.68
807.327	85.95
807.503	84.01
807.678	82.77
807.854	82.68
808.03	82.13
808.206	81.42
808.381	78.77
808.557	78.08
808.733	78.2
808.908	79.1
809.084	78.86
809.26	77.97
809.435	78.21
809.611	77.98
809.787	76.22
809.962	76.07
810.138	75.6
810.313	76.12
810.489	75.88
810.664	75.29
810.84	75.08
811.015	74.28
811.191	73.14
811.366	75.51
811.542	75.5
811.717	76.8
811.892	76.51
812.068	77.33
812.243	77.83
812.419	79.59
812.594	79.69
812.769	80.42
812.944	80.84
813.12	82.68
813.295	80.42
813.47	80.79
813.645	81.59
813.821	81.53
813.996	82.22
814.171	82.74
814.346	81.17
814.521	81.65
814.697	81.51
814.872	81.24
815.047	80.3
815.222	82.7
815.397	82.57
815.572	82.23
815.747	83.17
815.922	83.07
816.097	82.49
816.272	82.72
816.447	83.5
816.622	84.36
816.797	86.39
816.972	86.26
817.147	83.5
817.322	83.3
817.496	82.1
817.671	82.31
817.846	81.67
818.021	81.75
818.196	82.92
818.371	80.96
818.545	79.78
818.72	77.51
818.895	76.76
819.069	76.03
819.244	75.8
819.419	74.39
819.594	71.43
819.768	69.44
819.943	66.93
820.117	63.16
820.292	61.31
820.467	58.5
820.641	56.18
820.816	53.94
820.99	51.89
821.165	49.25
821.339	47.34
821.514	46.07
821.688	45.1
821.863	44.03
822.037	43.31
822.212	42.79
822.386	42.07
822.56	41.74
822.735	41.41
822.909	41.33
823.084	41.6
823.258	41.85
823.432	42.05
823.606	42.33
823.781	42.66
823.955	42.86
824.129	43.15
824.303	44
824.478	44.46
824.652	44.98
824.826	45.59
825	46.13
825.174	46.3
825.348	46.75
825.523	47.11
825.697	47.49
825.871	48.18
826.045	48.23
826.219	48.3
826.393	48.45
826.567	48.22
826.741	48.14
826.915	48.32
827.089	49.13
827.263	49.01
827.437	49.13
827.611	49
827.784	49.05
827.958	49.19
828.132	48.84
828.306	49.34
828.48	50.57
828.654	51.22
828.827	51.67
829.001	52.33
829.175	53.73
829.349	55.26
829.522	56.83
829.696	58.66
829.87	61.06
830.044	63.94
830.217	66.69
830.391	68.76
830.565	69.53
830.738	71.85
830.912	72
831.085	74.01
831.259	73.36
831.432	73.4
831.606	73.64
831.779	72.15
831.953	71.11
832.126	68.42
832.3	66.1
832.473	65.6
832.647	63.7
832.82	63.63
832.994	61.45
833.167	61.28
833.34	60.2
833.514	58.3
833.687	56.9
833.86	56.32
834.034	56.38
834.207	56.95
834.38	56.41
834.553	55.67
834.727	55.53
834.9	56.04
835.073	55.57
835.246	57.13
835.419	58.51
835.593	60.46
835.766	61.3
835.939	61.71
836.112	62.15
836.285	63.69
836.458	66.33
836.631	68.64
836.804	70.9
836.977	72.85
837.15	74.1
837.323	75.76
837.496	76.39
837.669	80.61
837.842	83.88
838.015	85.88
838.188	87.26
838.361	88.84
838.533	88.67
838.706	88.05
838.879	89.25
839.052	89.75
839.225	89.51
839.398	89.04
839.57	86.08
839.743	85.89
839.916	84.57
840.088	85.46
840.261	84.38
840.434	84.32
840.607	84.24
840.779	84.42
840.952	83.99
841.124	84.19
841.297	85.08
841.47	87.57
841.642	87.72
841.815	88.75
841.987	89.26
842.16	91.37
842.332	91.81
842.505	95.82
842.677	95.3
842.85	95.51
843.022	98.58
843.194	103.18
843.367	106.06
843.539	110.51
843.712	110.89
843.884	111.09
844.056	111.43
844.229	115.85
844.401	115.21
844.573	123.19
844.745	127.67
844.918	123.78
845.09	121.79
845.262	121.02
845.434	116.29
845.606	122.59
845.779	123.32
845.951	123.81
846.123	120.13
846.295	120.47
846.467	116.51
846.639	121.51
846.811	122.86
846.983	121.56
847.155	121.14
847.327	123.2
847.499	121.28
847.671	122.17
847.843	121.55
848.015	124.64
848.187	123.24
848.359	129.25
848.531	124.02
848.703	125.21
848.875	130.06
849.047	131.77
849.218	134.08
849.39	139.83
849.562	146.95
849.734	150.89
849.905	151.97
850.077	160.9
850.249	156.4
850.421	157.41
850.592	157.4
850.764	157.56
850.936	161.69
851.107	162.31
851.279	156.79
851.451	149.81
851.622	152.55
851.794	148.15
851.965	138.02
852.137	136.65
852.308	138.52
852.48	143.46
852.651	141.93
852.823	138.48
852.994	137.89
853.166	140.74
853.337	143.19
853.509	142.18
853.68	148.16
853.851	152.48
854.023	156.95
854.194	157.31
854.365	159.54
854.537	162.42
854.708	164.78
854.879	166.04
855.05	169.54
855.222	170.99
855.393	172.21
855.564	172.68
855.735	175.97
855.906	175.66
856.078	168.7
856.249	163.15
856.42	158.55
856.591	157.58
856.762	156.02
856.933	157.1
857.104	150.93
857.275	149.43
857.446	148.88
857.617	145.98
857.788	144.3
857.959	150.01
858.13	154.05
858.301	158.42
858.472	163.04
858.643	167.45
858.814	160.61
858.985	165.49
859.155	165.51
859.326	160.07
859.497	161.4
859.668	163.67
859.839	163.93
860.009	161.51
860.18	156.52
860.351	152.92
860.522	148.86
860.692	144.56
860.863	150.86
861.034	155.23
861.204	159.27
861.375	155.26
861.546	156.01
861.716	157.21
861.887	160.4
862.057	166.42
862.228	163.95
862.398	168.84
862.569	174.54
862.739	172.26
862.91	164
863.08	166.35
863.251	170.21
863.421	166.23
863.592	164.59
863.762	156.09
863.932	151.69
864.103	154.31
864.273	148.3
864.443	153.83
864.614	153.95
864.784	154.13
864.954	152.17
865.125	157.36
865.295	160.34
865.465	160.12
865.635	162.31
865.805	169.09
865.976	163.55
866.146	163.86
866.316	154.48
866.486	153.57
866.656	155.32
866.826	155.46
866.996	150.07
867.166	153.62
867.336	152.09
867.506	157.09
867.676	147.71
867.846	155.04
868.016	164.76
868.186	163.17
868.356	164.38
868.526	160.76
868.696	155.37
868.866	154.91
869.036	146.58
869.206	148.44
869.376	148.81
869.545	151.12
869.715	151.29
869.885	151.47
870.055	156.79
870.224	154.91
870.394	153.47
870.564	162.18
870.734	166.32
870.903	170.41
871.073	172.19
871.243	168.15
871.412	165.47
871.582	159.82
871.751	156.38
871.921	159.05
872.091	156.11
872.26	158.07
872.43	154.78
872.599	149.55
872.769	148.04
872.938	146.09
873.108	141.93
873.277	139.29
873.446	139.14
873.616	137.92
873.785	136.7
873.955	137.52
874.124	142.25
874.293	140.12
874.463	144.04
874.632	141.15
874.801	141.32
874.971	148.36
875.14	153.4
875.309	151.85
875.478	151.48
875.647	146.92
875.817	150.59
875.986	151.24
876.155	150.7
876.324	147.23
876.493	151.04
876.662	155.43
876.831	148.77
877	148.92
877.17	150.68
877.339	149.51
877.508	146.93
877.677	144.35
877.846	134.46
878.015	132.87
878.184	132.67
878.352	131.21
878.521	125.99
878.69	123.35
878.859	120.14
879.028	120.19
879.197	115.98
879.366	112.62
879.534	104.7
879.703	104.43
879.872	98.96
880.041	92.81
880.21	87.36
880.378	81.95
880.547	76.85
880.716	72.7
880.884	66.44
881.053	62.87
881.222	60.41
881.39	58.39
881.559	55.54
881.727	53.4
881.896	52.22
882.065	51.17
882.233	49.89
882.402	49.49
882.57	49.25
882.739	49.2
882.907	49.62
883.076	49.97
883.244	50.49
883.412	51.57
883.581	53.4
883.749	53.96
883.918	56.02
884.086	58.47
884.254	60.73
884.423	62.95
884.591	65.32
884.759	68.25
884.927	69.66
885.096	72.7
885.264	77.28
885.432	81.28
885.6	86.42
885.769	86.79
885.937	90.08
886.105	92.67
886.273	94.91
886.441	98.19
886.609	102.24
886.777	109.21
886.945	113.15
887.113	115.52
887.281	112.51
887.449	113.35
887.617	121.61
887.785	128.68
887.953	135.4
888.121	137.55
888.289	142.49
888.457	141.38
888.625	139.9
888.793	143.45
888.961	144.38
889.129	154.92
889.296	165.72
889.464	164.99
889.632	159.93
889.8	156.74
889.967	165.58
890.135	168.64
