Data from 2938810__Reflection_03.txt Node
Date: Thu Mar 12 16:59:03 EDT 2015
User: robert
Spectrometer: USB4E03002
Autoset integration time: false
Trigger mode: 4
Integration Time (sec): 1.000000E-1
Scans to average: 10
Electric dark correction enabled: false
Nonlinearity correction enabled: false
Boxcar width: 5
Stray light correction enabled: false
XAxis mode: Wavelengths
Stop averaging: false
Number of Pixels in Spectrum: 3648
>>>>>Begin Spectral Data<<<<<
177.575	-144.62
177.794	-397.53
178.014	1078.57
178.233	-2047.62
178.452	-10650
178.672	-1603.85
178.891	498.57
179.11	427.78
179.33	110.09
179.549	473.91
179.768	148.34
179.987	204.42
180.207	740.74
180.426	1516.67
180.645	503.61
180.864	407.75
181.084	321.5
181.303	423.24
181.522	317.06
181.741	698.4
181.96	1853.85
182.179	1201.85
182.398	-654.39
182.618	250.65
182.837	1004.08
183.056	369.11
183.275	334.88
183.494	1187.18
183.713	-24600
183.932	326.5
184.151	166.34
184.37	142
184.589	242.09
184.808	177.67
185.027	155.53
185.246	87.73
185.465	116.15
185.684	295.08
185.903	278.86
186.122	194.39
186.341	-322.03
186.56	-2040
186.779	-63.3
186.998	-4.99
187.216	33.41
187.435	12.56
187.654	-14.31
187.873	-23.92
188.092	-72.92
188.311	-136.4
188.53	-61.45
188.748	-70.62
188.967	-64.92
189.186	-132.1
189.405	-994.59
189.623	842.59
189.842	151.21
190.061	142.65
190.28	140.68
190.498	143.89
190.717	146.41
190.936	106.45
191.154	103.58
191.373	83.51
191.592	111.53
191.81	74.17
192.029	87.44
192.248	126.11
192.466	156.88
192.685	210.16
192.904	172.67
193.122	138.55
193.341	205.28
193.559	186.83
193.778	179.18
193.996	185.19
194.215	195.52
194.433	160.42
194.652	176.65
194.87	179.9
195.089	142.11
195.307	123.91
195.526	134.73
195.744	134.22
195.963	141.87
196.181	182.93
196.399	90.4
196.618	76.49
196.836	57.53
197.055	46.55
197.273	132.04
197.491	125.45
197.71	248.05
197.928	304.58
198.146	235.82
198.365	120.47
198.583	250
198.801	312.03
199.019	185.24
199.238	268
199.456	376.11
199.674	250.26
199.892	1142.11
200.111	356.35
200.329	287.17
200.547	210.41
200.765	263.39
200.983	181.36
201.202	261.13
201.42	2137.93
201.638	51400
201.856	1063.46
202.074	-4313.33
202.292	990.62
202.51	432.37
202.728	228.72
202.946	294.7
203.165	189.32
203.383	151.02
203.601	159.18
203.819	141.54
204.037	183.07
204.255	131.21
204.473	112.23
204.691	113.39
204.909	151.08
205.127	238.89
205.345	205.72
205.562	264.18
205.78	371.15
205.998	563.28
206.216	626.92
206.434	395.09
206.652	-1847.83
206.87	-993.02
207.088	-109.62
207.306	-264.33
207.523	-525.81
207.741	-718
207.959	329.49
208.177	186.79
208.395	128.94
208.612	84.46
208.83	77.3
209.048	86.63
209.266	80.88
209.483	61.12
209.701	50.68
209.919	40.84
210.136	43.72
210.354	26.04
210.572	-0.94
210.79	24.69
211.007	19.95
211.225	-10.47
211.442	-20.44
211.66	-21.35
211.878	9.69
212.095	15.09
212.313	24.62
212.53	21.7
212.748	41.56
212.966	49.53
213.183	38.29
213.401	45.97
213.618	51.99
213.836	56.92
214.053	58.69
214.271	42.49
214.488	53.47
214.705	31.01
214.923	34.38
215.14	23.02
215.358	24.73
215.575	20.94
215.793	11.78
216.01	0.61
216.227	16.4
216.445	17.17
216.662	13.1
216.879	13.64
217.097	53.45
217.314	44.95
217.531	32.52
217.749	36.58
217.966	34.87
218.183	52.33
218.4	58.51
218.618	51.52
218.835	48.31
219.052	45.25
219.269	39.39
219.487	34.7
219.704	41.78
219.921	61.78
220.138	51.8
220.355	59.31
220.572	56.08
220.79	50.88
221.007	57.09
221.224	46.69
221.441	56.55
221.658	49.41
221.875	55.32
222.092	53.5
222.309	40.06
222.526	39.27
222.743	31.85
222.96	31.18
223.177	34.28
223.394	21.35
223.611	26.26
223.828	25.44
224.045	24.29
224.262	18.2
224.479	11.18
224.696	6.43
224.913	3.99
225.13	13.79
225.347	8.55
225.564	1.36
225.781	1.46
225.997	1.81
226.214	1.55
226.431	4.24
226.648	5.29
226.865	7.5
227.082	8.15
227.298	8.49
227.515	7.35
227.732	9
227.949	9.85
228.165	10.74
228.382	10.6
228.599	10.03
228.816	9.59
229.032	8.96
229.249	9.01
229.466	8.8
229.682	8.28
229.899	8.58
230.116	8.44
230.332	8.65
230.549	7.45
230.765	6.57
230.982	7.26
231.199	7.7
231.415	6.89
231.632	6.81
231.848	7.4
232.065	8.22
232.281	7.4
232.498	6.52
232.714	6.27
232.931	9.22
233.147	11.7
233.364	11.22
233.58	11.44
233.797	14.73
234.013	15.73
234.23	14.22
234.446	13.91
234.662	14.16
234.879	13.96
235.095	14.56
235.312	13.28
235.528	13.07
235.744	12.78
235.961	12.3
236.177	11.9
236.393	11.52
236.61	10.48
236.826	10.86
237.042	9.48
237.258	9.63
237.475	9.83
237.691	8.69
237.907	6.82
238.123	6.46
238.339	6.84
238.556	5.73
238.772	4.38
238.988	6.03
239.204	5.06
239.42	4.7
239.636	5.42
239.853	5.59
240.069	6.71
240.285	7.04
240.501	6.46
240.717	6.64
240.933	7.12
241.149	6.97
241.365	7.38
241.581	7.6
241.797	8.11
242.013	7.68
242.229	6.8
242.445	7.32
242.661	7.49
242.877	7.41
243.093	6.93
243.309	6.86
243.525	6.94
243.741	6.51
243.957	6.52
244.173	5.94
244.388	6.05
244.604	6.2
244.82	5.42
245.036	5.64
245.252	5.87
245.468	6.05
245.683	5.45
245.899	5.45
246.115	5.26
246.331	5.12
246.547	5.45
246.762	5.37
246.978	5.6
247.194	5.3
247.409	5.12
247.625	4.99
247.841	5.13
248.057	4.91
248.272	4.94
248.488	5.26
248.703	5.38
248.919	5.4
249.135	5.38
249.35	5.22
249.566	5.26
249.782	5.3
249.997	6.1
250.213	5.64
250.428	7.27
250.644	6.81
250.859	6.96
251.075	6.56
251.29	6.42
251.506	6.09
251.721	6.31
251.937	6.46
252.152	6.26
252.368	5.45
252.583	6.25
252.798	5.59
253.014	6.01
253.229	5.78
253.445	5.79
253.66	5.49
253.875	5.78
254.091	6.29
254.306	6.86
254.521	6.95
254.737	7.61
254.952	6.13
255.167	5.56
255.383	5.77
255.598	6.26
255.813	6.97
256.028	7.24
256.244	7.51
256.459	6.35
256.674	6.33
256.889	6.12
257.104	6.1
257.32	6.16
257.535	6.86
257.75	6.26
257.965	5.42
258.18	4.95
258.395	4.84
258.61	4.76
258.826	4.67
259.041	4.53
259.256	4.49
259.471	4.31
259.686	4.17
259.901	4.08
260.116	4.23
260.331	4.33
260.546	4.45
260.761	4.55
260.976	4.35
261.191	4.46
261.406	4.46
261.621	4.6
261.836	4.81
262.05	5.05
262.265	4.83
262.48	4.83
262.695	5.03
262.91	5.6
263.125	5.29
263.34	5.42
263.555	5.17
263.769	4.64
263.984	4.89
264.199	4.88
264.414	4.95
264.629	4.95
264.843	5.38
265.058	5.22
265.273	4.36
265.488	4.75
265.702	5.04
265.917	5.07
266.132	4.94
266.346	5.05
266.561	4.72
266.776	4.69
266.99	4.64
267.205	4.26
267.42	4.04
267.634	4.26
267.849	3.82
268.063	3.55
268.278	3.8
268.492	4.04
268.707	3.49
268.922	3.9
269.136	3.93
269.351	4
269.565	3.81
269.78	4.28
269.994	4.78
270.209	5.12
270.423	5.23
270.637	4.96
270.852	5.01
271.066	5.34
271.281	5.25
271.495	5.18
271.709	4.83
271.924	4.96
272.138	4.89
272.353	4.16
272.567	4.12
272.781	4.26
272.996	3.97
273.21	4.04
273.424	3.74
273.638	3.1
273.853	3.27
274.067	3.43
274.281	3.46
274.495	3.61
274.71	3.85
274.924	4.03
275.138	4.09
275.352	4.5
275.566	4.38
275.781	4.57
275.995	5.54
276.209	5.1
276.423	5.51
276.637	5.48
276.851	5.13
277.065	4.73
277.279	4.41
277.493	4.39
277.707	4.71
277.921	4.35
278.135	3.91
278.349	3.58
278.563	4.33
278.777	4.13
278.991	3.79
279.205	3.95
279.419	4.58
279.633	4.9
279.847	4.3
280.061	4.25
280.275	4.61
280.489	5.07
280.703	4.83
280.917	3.8
281.131	3.59
281.344	4.05
281.558	3.55
281.772	3.24
281.986	2.71
282.2	2.89
282.414	2.64
282.627	2.96
282.841	2.74
283.055	3.05
283.269	3.6
283.482	3.61
283.696	3.32
283.91	3.49
284.123	3.7
284.337	3.84
284.551	3.9
284.764	4.09
284.978	3.99
285.192	3.86
285.405	3.75
285.619	3.46
285.833	3.77
286.046	3.76
286.26	4.1
286.473	4.09
286.687	4.34
286.9	4.55
287.114	4.53
287.327	4.38
287.541	4.91
287.754	5.18
287.968	5.54
288.181	5.13
288.395	5.24
288.608	4.74
288.822	4.68
289.035	4.54
289.248	4.41
289.462	4.31
289.675	4.46
289.889	3.98
290.102	3.67
290.315	3.64
290.529	3.93
290.742	3.86
290.955	4.34
291.169	4.37
291.382	4.25
291.595	3.99
291.808	4.06
292.022	3.71
292.235	3.9
292.448	4.12
292.661	4.06
292.875	4.21
293.088	4.57
293.301	4.36
293.514	4.24
293.727	4.42
293.94	4.82
294.153	4.59
294.367	4.98
294.58	5.12
294.793	5
295.006	5.19
295.219	4.77
295.432	4.64
295.645	4.64
295.858	4.7
296.071	4.44
296.284	4.37
296.497	4.49
296.71	4.6
296.923	4.45
297.136	4.56
297.349	4.38
297.562	4.34
297.775	4.51
297.988	4.64
298.201	4.62
298.414	4.72
298.626	4.69
298.839	4.86
299.052	4.39
299.265	4.47
299.478	4.45
299.691	4.5
299.903	4.78
300.116	4.57
300.329	4.73
300.542	4.6
300.755	4.89
300.967	4.58
301.18	4.41
301.393	4.32
301.605	4.12
301.818	4
302.031	3.83
302.243	3.66
302.456	3.66
302.669	3.2
302.881	3.63
303.094	3.56
303.307	4.04
303.519	4.18
303.732	4.51
303.944	4.57
304.157	4.75
304.37	4.94
304.582	4.95
304.795	4.81
305.007	4.8
305.22	4.84
305.432	4.75
305.645	4.75
305.857	5.16
306.069	5.02
306.282	5.07
306.494	5
306.707	4.84
306.919	4.99
307.132	5.44
307.344	5.75
307.556	5.26
307.769	5.29
307.981	5.28
308.193	4.82
308.406	5.28
308.618	5.5
308.83	5.63
309.043	5.75
309.255	6.11
309.467	5.8
309.679	5.95
309.892	6.22
310.104	6.13
310.316	6
310.528	6.07
310.74	5.99
310.953	5.87
311.165	5.89
311.377	6.21
311.589	5.74
311.801	5.6
312.013	5.4
312.225	5.27
312.437	5.31
312.649	5.41
312.862	5.77
313.074	5.08
313.286	5.12
313.498	5.08
313.71	4.79
313.922	5.02
314.134	4.67
314.346	4.94
314.558	5.34
314.77	5.49
314.982	5.89
315.193	5.34
315.405	5.93
315.617	5.96
315.829	5.66
316.041	5.72
316.253	5.46
316.465	6.77
316.677	6.68
316.888	6.43
317.1	6.53
317.312	6.17
317.524	6.44
317.736	6.77
317.947	6.95
318.159	7.21
318.371	7.13
318.583	7.31
318.794	7.19
319.006	7.37
319.218	7.33
319.43	7.52
319.641	7.43
319.853	7.16
320.064	6.86
320.276	7.08
320.488	7.03
320.699	6.92
320.911	7.15
321.123	6.67
321.334	5.88
321.546	6.5
321.757	6.78
321.969	6.52
322.18	7.14
322.392	6.85
322.603	6.14
322.815	6.45
323.026	7.12
323.238	7.15
323.449	7.13
323.661	7.28
323.872	6.86
324.083	6.46
324.295	6.66
324.506	6.45
324.718	6.53
324.929	6.66
325.14	6.31
325.352	6.09
325.563	5.93
325.774	6.08
325.986	6.46
326.197	6.66
326.408	6.72
326.62	6.9
326.831	6.72
327.042	6.94
327.253	6.96
327.464	7.17
327.676	7.05
327.887	7.16
328.098	7
328.309	6.93
328.52	6.84
328.732	6.95
328.943	7.11
329.154	7.16
329.365	7.36
329.576	7.53
329.787	7.69
329.998	8.08
330.209	7.92
330.42	8.1
330.631	8.02
330.842	7.74
331.053	7.54
331.264	7.14
331.475	6.78
331.686	6.8
331.897	6.76
332.108	6.79
332.319	6.68
332.53	6.46
332.741	6.14
332.952	6.1
333.163	6.43
333.374	6.48
333.585	6.7
333.795	7.01
334.006	6.91
334.217	6.81
334.428	6.34
334.639	6.26
334.849	7.18
335.06	7.12
335.271	7.32
335.482	7.51
335.692	7.56
335.903	7.79
336.114	7.96
336.325	7.82
336.535	8.03
336.746	8.21
336.957	7.93
337.167	7.38
337.378	7.5
337.589	7.26
337.799	6.84
338.01	6.9
338.22	6.76
338.431	6.46
338.642	6.46
338.852	6.47
339.063	6.55
339.273	6.77
339.484	6.93
339.694	7
339.905	7.2
340.115	7.41
340.326	7.26
340.536	6.98
340.746	7.27
340.957	7.24
341.167	7.16
341.378	7.31
341.588	7.24
341.799	7.18
342.009	7.13
342.219	7.04
342.43	7
342.64	6.9
342.85	6.89
343.061	6.62
343.271	6.85
343.481	6.88
343.691	6.41
343.902	6.25
344.112	6.53
344.322	6.55
344.532	6.43
344.743	6.53
344.953	6.82
345.163	7
345.373	7.07
345.583	7.02
345.793	7.21
346.004	7.23
346.214	7.38
346.424	7.08
346.634	7.23
346.844	7.17
347.054	7.2
347.264	6.71
347.474	6.48
347.684	6.69
347.894	6.57
348.104	6.33
348.314	6.26
348.524	6.04
348.734	5.88
348.944	5.53
349.154	5.48
349.364	5.24
349.574	5.47
349.784	5.56
349.994	5.52
350.204	5.38
350.413	5.29
350.623	5.62
350.833	5.39
351.043	5.13
351.253	5.47
351.463	5.75
351.672	5.71
351.882	5.82
352.092	5.68
352.302	5.61
352.511	5.71
352.721	5.7
352.931	5.57
353.141	5.92
353.35	6.19
353.56	5.81
353.77	5.75
353.979	5.61
354.189	5.8
354.399	6.13
354.608	6.26
354.818	6.27
355.027	6.27
355.237	6.55
355.447	6.51
355.656	6.55
355.866	6.78
356.075	6.65
356.285	6.74
356.494	6.37
356.704	6.27
356.913	6.05
357.123	6
357.332	5.96
357.542	5.7
357.751	5.81
357.96	5.64
358.17	5.61
358.379	5.44
358.589	5.47
358.798	5.32
359.007	5.45
359.217	5.65
359.426	5.81
359.635	6.08
359.845	6.21
360.054	6.1
360.263	6.25
360.472	6.24
360.682	6.42
360.891	6.37
361.1	6.53
361.309	6.38
361.519	6.03
361.728	5.97
361.937	5.84
362.146	5.7
362.355	5.57
362.564	5.53
362.774	5.43
362.983	5.3
363.192	5.27
363.401	5.52
363.61	5.49
363.819	5.79
364.028	5.91
364.237	5.85
364.446	6.04
364.655	6.23
364.864	6.12
365.073	6.22
365.282	6.31
365.491	6.35
365.7	6.1
365.909	6.09
366.118	6.2
366.327	6.04
366.536	6.3
366.745	6.48
366.954	6.38
367.162	6.34
367.371	6.19
367.58	6
367.789	5.97
367.998	5.88
368.207	5.74
368.415	5.6
368.624	5.54
368.833	5.43
369.042	4.98
369.25	5.07
369.459	5.19
369.668	5.03
369.877	5.2
370.085	5.07
370.294	5.03
370.503	5.26
370.711	5.22
370.92	5.3
371.129	5.28
371.337	5.3
371.546	5.31
371.754	5.44
371.963	5.67
372.171	5.67
372.38	5.63
372.589	5.43
372.797	5.29
373.006	5.3
373.214	5.37
373.423	5.01
373.631	5.02
373.84	4.84
374.048	4.73
374.256	4.62
374.465	4.52
374.673	4.5
374.882	4.39
375.09	4.51
375.298	4.45
375.507	4.34
375.715	4.76
375.923	4.77
376.132	4.65
376.34	4.58
376.548	4.51
376.757	4.5
376.965	4.42
377.173	4.75
377.381	4.56
377.59	4.55
377.798	4.71
378.006	4.24
378.214	4.4
378.423	4.76
378.631	4.88
378.839	5
379.047	5.11
379.255	5.21
379.463	5.15
379.671	5.4
379.879	5.09
380.088	4.68
380.296	4.77
380.504	4.56
380.712	4.26
380.92	3.96
381.128	3.92
381.336	3.86
381.544	3.99
381.752	3.91
381.96	3.77
382.168	4.2
382.376	4.48
382.584	4.47
382.791	4.6
382.999	4.47
383.207	4.64
383.415	4.78
383.623	4.87
383.831	4.76
384.039	4.67
384.247	4.59
384.454	4.32
384.662	3.91
384.87	3.92
385.078	3.6
385.285	3.68
385.493	3.75
385.701	3.45
385.909	2.96
386.116	3
386.324	2.93
386.532	3.04
386.739	3.06
386.947	3.36
387.155	3.76
387.362	4.25
387.57	4.45
387.778	4.6
387.985	4.56
388.193	4.75
388.4	5
388.608	5.24
388.816	5.08
389.023	5.18
389.231	5.21
389.438	4.85
389.646	4.35
389.853	4.12
390.061	4.05
390.268	4.26
390.475	4.58
390.683	4.45
390.89	4.36
391.098	4.33
391.305	4.24
391.512	4.05
391.72	3.94
391.927	4.2
392.135	4.3
392.342	4.23
392.549	4.18
392.756	4.13
392.964	3.89
393.171	3.97
393.378	3.89
393.586	3.86
393.793	3.79
394	3.89
394.207	3.81
394.414	3.76
394.622	3.64
394.829	3.86
395.036	3.52
395.243	3.55
395.45	3.6
395.657	3.74
395.864	3.67
396.072	3.91
396.279	3.92
396.486	3.83
396.693	3.83
396.9	3.88
397.107	3.68
397.314	4.1
397.521	4.2
397.728	3.97
397.935	4.29
398.142	4.47
398.349	4.37
398.556	4.56
398.763	4.71
398.97	4.7
399.177	4.63
399.383	4.4
399.59	3.98
399.797	3.87
400.004	4.06
400.211	3.57
400.418	3.46
400.625	3.46
400.831	3.4
401.038	3.17
401.245	3.33
401.452	3.24
401.658	3.6
401.865	3.88
402.072	4.07
402.279	3.84
402.485	3.97
402.692	4.09
402.899	4.24
403.105	4.23
403.312	4.37
403.519	4.36
403.725	4.3
403.932	4.22
404.138	4.15
404.345	4.14
404.552	4.3
404.758	4.39
404.965	4.45
405.171	4.1
405.378	3.95
405.584	3.94
405.791	3.72
405.997	3.94
406.204	3.73
406.41	3.7
406.617	3.59
406.823	3.54
407.029	3.45
407.236	3.29
407.442	3.45
407.649	3.46
407.855	3.46
408.061	3.73
408.268	3.79
408.474	4.04
408.68	4.13
408.887	4.12
409.093	4.06
409.299	4.14
409.505	4.19
409.712	4.27
409.918	4.22
410.124	4.08
410.33	3.86
410.537	3.77
410.743	3.68
410.949	3.69
411.155	3.69
411.361	3.7
411.567	3.59
411.773	3.49
411.98	3.38
412.186	3.4
412.392	3.61
412.598	3.69
412.804	3.67
413.01	3.59
413.216	3.52
413.422	3.51
413.628	3.84
413.834	3.8
414.04	3.86
414.246	3.95
414.452	4.05
414.658	3.86
414.864	3.75
415.07	3.67
415.275	3.61
415.481	3.54
415.687	3.47
415.893	3.1
416.099	3.12
416.305	3.17
416.511	3.2
416.716	3.18
416.922	3.3
417.128	3.38
417.334	3.53
417.539	3.67
417.745	3.75
417.951	3.74
418.157	3.84
418.362	3.84
418.568	3.75
418.774	3.72
418.979	3.68
419.185	3.65
419.391	3.64
419.596	3.54
419.802	3.49
420.008	3.38
420.213	3.47
420.419	3.45
420.624	3.44
420.83	3.49
421.035	3.42
421.241	3.38
421.446	3.39
421.652	3.46
421.857	3.55
422.063	3.59
422.268	3.7
422.474	3.62
422.679	3.59
422.885	3.75
423.09	3.76
423.295	3.84
423.501	3.89
423.706	3.78
423.911	3.64
424.117	3.61
424.322	3.48
424.527	3.43
424.733	3.46
424.938	3.52
425.143	3.38
425.349	3.36
425.554	3.32
425.759	3.29
425.964	3.39
426.169	3.49
426.375	3.36
426.58	3.37
426.785	3.23
426.99	3.26
427.195	3.2
427.4	3.14
427.605	3.09
427.811	3.15
428.016	3.12
428.221	3.12
428.426	3.12
428.631	3.26
428.836	3.34
429.041	3.61
429.246	3.65
429.451	3.49
429.656	3.6
429.861	3.53
430.066	3.61
430.271	3.69
430.476	3.66
430.681	3.54
430.886	3.48
431.09	3.49
431.295	3.33
431.5	3.27
431.705	3.35
431.91	3.26
432.115	3.4
432.32	3.2
432.524	3.17
432.729	3.24
432.934	3.44
433.139	3.38
433.343	3.33
433.548	3.43
433.753	3.38
433.958	3.46
434.162	3.61
434.367	3.58
434.572	3.66
434.776	3.71
434.981	3.59
435.186	3.47
435.39	3.61
435.595	3.67
435.799	3.64
436.004	3.64
436.209	3.6
436.413	3.5
436.618	3.46
436.822	3.43
437.027	3.33
437.231	3.48
437.436	3.47
437.64	3.4
437.845	3.42
438.049	3.46
438.253	3.53
438.458	3.57
438.662	3.54
438.867	3.46
439.071	3.44
439.275	3.48
439.48	3.3
439.684	3.32
439.888	3.36
440.093	3.31
440.297	3.25
440.501	3.22
440.706	3.2
440.91	3.14
441.114	3.27
441.318	3.3
441.523	3.32
441.727	3.4
441.931	3.37
442.135	3.41
442.339	3.39
442.543	3.37
442.748	3.43
442.952	3.41
443.156	3.55
443.36	3.47
443.564	3.43
443.768	3.41
443.972	3.39
444.176	3.47
444.38	3.44
444.584	3.43
444.788	3.41
444.992	3.46
445.196	3.39
445.4	3.4
445.604	3.5
445.808	3.47
446.012	3.5
446.216	3.45
446.42	3.43
446.624	3.42
446.828	3.39
447.032	3.4
447.235	3.3
447.439	3.32
447.643	3.23
447.847	3.12
448.051	3.23
448.254	3.23
448.458	3.22
448.662	3.23
448.866	3.2
449.069	3.25
449.273	3.3
449.477	3.3
449.681	3.38
449.884	3.46
450.088	3.53
450.292	3.44
450.495	3.34
450.699	3.42
450.902	3.39
451.106	3.38
451.31	3.45
451.513	3.41
451.717	3.37
451.92	3.32
452.124	3.21
452.327	3.12
452.531	3.11
452.734	3.07
452.938	3.1
453.141	3.09
453.345	3.13
453.548	3.04
453.752	3.15
453.955	3.22
454.158	3.28
454.362	3.33
454.565	3.41
454.769	3.44
454.972	3.59
455.175	3.57
455.379	3.59
455.582	3.43
455.785	3.49
455.988	3.43
456.192	3.43
456.395	3.43
456.598	3.44
456.801	3.27
457.005	3.24
457.208	3.22
457.411	3
457.614	2.92
457.817	3.03
458.021	2.98
458.224	2.92
458.427	2.81
458.63	2.79
458.833	2.8
459.036	2.88
459.239	2.86
459.442	2.85
459.645	2.96
459.848	2.92
460.051	3
460.254	3.09
460.457	3.13
460.66	3.25
460.863	3.32
461.066	3.24
461.269	3.27
461.472	3.31
461.675	3.26
461.878	3.37
462.081	3.48
462.284	3.39
462.486	3.34
462.689	3.38
462.892	3.39
463.095	3.23
463.298	3.43
463.5	3.47
463.703	3.43
463.906	3.48
464.109	3.39
464.311	3.42
464.514	3.42
464.717	3.35
464.92	3.28
465.122	3.27
465.325	3.3
465.528	3.22
465.73	3.23
465.933	3.34
466.135	3.36
466.338	3.45
466.541	3.42
466.743	3.42
466.946	3.54
467.148	3.64
467.351	3.66
467.553	3.79
467.756	3.81
467.958	3.7
468.161	3.53
468.363	3.52
468.566	3.35
468.768	3.41
468.971	3.49
469.173	3.44
469.375	3.29
469.578	3.06
469.78	3.01
469.983	3.04
470.185	3.1
470.387	3.16
470.59	3.15
470.792	3.14
470.994	3.03
471.196	3.05
471.399	3.06
471.601	3.18
471.803	3.28
472.005	3.22
472.208	3.11
472.41	3.23
472.612	3.34
472.814	3.34
473.016	3.4
473.218	3.49
473.421	3.35
473.623	3.45
473.825	3.35
474.027	3.4
474.229	3.41
474.431	3.41
474.633	3.33
474.835	3.3
475.037	3.41
475.239	3.54
475.441	3.48
475.643	3.57
475.845	3.47
476.047	3.57
476.249	3.52
476.451	3.52
476.653	3.52
476.855	3.55
477.057	3.51
477.258	3.49
477.46	3.41
477.662	3.44
477.864	3.37
478.066	3.32
478.268	3.31
478.469	3.4
478.671	3.38
478.873	3.41
479.075	3.28
479.276	3.35
479.478	3.29
479.68	3.23
479.882	3.2
480.083	3.24
480.285	3.29
480.487	3.25
480.688	3.28
480.89	3.31
481.091	3.3
481.293	3.39
481.495	3.34
481.696	3.27
481.898	3.31
482.099	3.33
482.301	3.32
482.502	3.27
482.704	3.27
482.905	3.2
483.107	3.17
483.308	3.19
483.51	3.18
483.711	3.18
483.913	3.21
484.114	3.2
484.315	3.19
484.517	3.18
484.718	3.2
484.92	3.19
485.121	3.21
485.322	3.23
485.524	3.24
485.725	3.27
485.926	3.28
486.127	3.3
486.329	3.31
486.53	3.28
486.731	3.3
486.932	3.29
487.134	3.33
487.335	3.31
487.536	3.28
487.737	3.26
487.938	3.21
488.139	3.22
488.341	3.22
488.542	3.2
488.743	3.26
488.944	3.24
489.145	3.23
489.346	3.18
489.547	3.21
489.748	3.26
489.949	3.21
490.15	3.23
490.351	3.19
490.552	3.16
490.753	3.21
490.954	3.18
491.155	3.14
491.356	3.15
491.557	3.14
491.758	3.17
491.959	3.16
492.159	3.23
492.36	3.3
492.561	3.33
492.762	3.38
492.963	3.34
493.164	3.37
493.364	3.46
493.565	3.48
493.766	3.56
493.967	3.59
494.167	3.62
494.368	3.58
494.569	3.54
494.769	3.55
494.97	3.55
495.171	3.59
495.371	3.54
495.572	3.51
495.773	3.53
495.973	3.5
496.174	3.5
496.375	3.49
496.575	3.48
496.776	3.5
496.976	3.56
497.177	3.54
497.377	3.58
497.578	3.57
497.778	3.58
497.979	3.58
498.179	3.61
498.38	3.59
498.58	3.56
498.78	3.62
498.981	3.54
499.181	3.49
499.382	3.45
499.582	3.44
499.782	3.52
499.983	3.67
500.183	3.68
500.383	3.67
500.584	3.61
500.784	3.63
500.984	3.7
501.184	3.79
501.385	3.82
501.585	3.97
501.785	4.03
501.985	3.94
502.185	3.83
502.386	3.88
502.586	3.86
502.786	3.95
502.986	4.06
503.186	4.05
503.386	3.99
503.586	3.92
503.786	3.82
503.987	3.79
504.187	3.84
504.387	3.81
504.587	3.79
504.787	3.89
504.987	3.93
505.187	3.94
505.387	3.95
505.587	4
505.786	4.11
505.986	4.13
506.186	4.15
506.386	4.18
506.586	4.26
506.786	4.29
506.986	4.33
507.186	4.32
507.386	4.26
507.585	4.26
507.785	4.32
507.985	4.25
508.185	4.22
508.384	4.23
508.584	4.32
508.784	4.42
508.984	4.44
509.183	4.33
509.383	4.47
509.583	4.49
509.782	4.55
509.982	4.55
510.182	4.63
510.381	4.74
510.581	4.8
510.781	4.76
510.98	4.77
511.18	4.77
511.379	4.86
511.579	4.79
511.778	4.86
511.978	4.73
512.177	4.78
512.377	4.72
512.576	4.74
512.776	4.68
512.975	4.7
513.175	4.67
513.374	4.69
513.573	4.71
513.773	4.68
513.972	4.69
514.172	4.87
514.371	4.89
514.57	5.03
514.77	5.05
514.969	5.1
515.168	5.19
515.367	5.2
515.567	5.18
515.766	5.28
515.965	5.31
516.164	5.33
516.364	5.33
516.563	5.34
516.762	5.36
516.961	5.4
517.16	5.4
517.359	5.35
517.559	5.44
517.758	5.51
517.957	5.55
518.156	5.61
518.355	5.61
518.554	5.62
518.753	5.67
518.952	5.64
519.151	5.58
519.35	5.63
519.549	5.72
519.748	5.73
519.947	5.75
520.146	5.75
520.345	5.82
520.544	5.91
520.743	5.95
520.942	5.98
521.141	6.13
521.339	6.3
521.538	6.29
521.737	6.35
521.936	6.34
522.135	6.37
522.333	6.43
522.532	6.51
522.731	6.58
522.93	6.6
523.129	6.6
523.327	6.5
523.526	6.49
523.725	6.59
523.923	6.58
524.122	6.59
524.321	6.68
524.519	6.68
524.718	6.67
524.917	6.68
525.115	6.69
525.314	6.7
525.512	6.81
525.711	6.83
525.909	6.87
526.108	6.88
526.306	6.9
526.505	6.87
526.703	6.9
526.902	6.89
527.1	6.91
527.299	6.93
527.497	6.95
527.696	6.94
527.894	7
528.092	7.01
528.291	7.03
528.489	7.07
528.688	7.12
528.886	7.12
529.084	7.12
529.283	7.14
529.481	7.17
529.679	7.17
529.877	7.22
530.076	7.17
530.274	7.19
530.472	7.26
530.67	7.29
530.869	7.25
531.067	7.34
531.265	7.45
531.463	7.47
531.661	7.53
531.859	7.63
532.057	7.7
532.255	7.83
532.454	7.86
532.652	7.88
532.85	7.89
533.048	7.96
533.246	7.93
533.444	7.99
533.642	8.03
533.84	8.08
534.038	8.1
534.236	8.14
534.434	8.14
534.632	8.17
534.83	8.25
535.027	8.32
535.225	8.33
535.423	8.41
535.621	8.49
535.819	8.55
536.017	8.59
536.215	8.64
536.412	8.62
536.61	8.68
536.808	8.72
537.006	8.78
537.203	8.81
537.401	8.9
537.599	9
537.797	9
537.994	9.08
538.192	9.12
538.39	9.2
538.587	9.32
538.785	9.3
538.983	9.36
539.18	9.39
539.378	9.49
539.575	9.6
539.773	9.59
539.97	9.61
540.168	9.58
540.366	9.62
540.563	9.58
540.761	9.57
540.958	9.63
541.155	9.65
541.353	9.68
541.55	9.67
541.748	9.67
541.945	9.72
542.143	9.73
542.34	9.87
542.537	9.91
542.735	10.02
542.932	10.06
543.129	10.08
543.327	10.11
543.524	10.11
543.721	10.2
543.919	10.25
544.116	10.25
544.313	10.36
544.51	10.28
544.708	10.37
544.905	10.47
545.102	10.63
545.299	10.71
545.496	10.85
545.693	10.95
545.891	11
546.088	11.02
546.285	11.13
546.482	11.11
546.679	11.23
546.876	11.19
547.073	11.22
547.27	11.25
547.467	11.39
547.664	11.47
547.861	11.51
548.058	11.6
548.255	11.69
548.452	11.59
548.649	11.68
548.846	11.67
549.043	11.74
549.24	11.73
549.437	11.65
549.633	11.63
549.83	11.6
550.027	11.65
550.224	11.65
550.421	11.61
550.618	11.76
550.814	11.86
551.011	11.89
551.208	11.8
551.405	11.77
551.601	11.89
551.798	11.89
551.995	11.84
552.191	11.96
552.388	11.87
552.585	11.98
552.781	12.01
552.978	11.88
553.175	12
553.371	12.17
553.568	12.2
553.764	12.18
553.961	12.15
554.157	12.24
554.354	12.15
554.55	12.33
554.747	12.33
554.943	12.41
555.14	12.52
555.336	12.49
555.533	12.56
555.729	12.65
555.926	12.67
556.122	12.81
556.318	12.83
556.515	12.86
556.711	12.92
556.907	12.87
557.104	12.81
557.3	12.86
557.496	12.83
557.693	12.83
557.889	12.95
558.085	13.03
558.281	13.09
558.478	13.05
558.674	13.18
558.87	13.02
559.066	13.09
559.262	13.15
559.459	13.18
559.655	13.33
559.851	13.3
560.047	13.3
560.243	13.38
560.439	13.35
560.635	13.37
560.831	13.37
561.027	13.61
561.223	13.78
561.419	13.89
561.615	13.85
561.811	13.89
562.007	13.88
562.203	13.83
562.399	13.9
562.595	13.98
562.791	13.97
562.987	13.94
563.183	13.91
563.379	13.91
563.575	13.83
563.771	13.87
563.966	13.91
564.162	14.06
564.358	14.12
564.554	14.07
564.75	14.08
564.945	14.27
565.141	14.36
565.337	14.41
565.533	14.37
565.728	14.4
565.924	14.45
566.12	14.39
566.315	14.4
566.511	14.42
566.707	14.42
566.902	14.39
567.098	14.37
567.293	14.4
567.489	14.38
567.684	14.38
567.88	14.47
568.076	14.65
568.271	14.67
568.467	14.67
568.662	14.73
568.858	14.8
569.053	14.82
569.248	14.85
569.444	14.81
569.639	14.78
569.835	14.79
570.03	14.69
570.225	14.65
570.421	14.81
570.616	14.94
570.812	14.99
571.007	15
571.202	15
571.397	15.01
571.593	15.17
571.788	15.27
571.983	15.27
572.178	15.37
572.374	15.34
572.569	15.36
572.764	15.26
572.959	15.18
573.154	15.18
573.35	15.25
573.545	15.34
573.74	15.33
573.935	15.39
574.13	15.55
574.325	15.59
574.52	15.74
574.715	15.57
574.91	15.66
575.105	15.84
575.3	15.89
575.495	15.98
575.69	15.98
575.885	15.93
576.08	15.91
576.275	15.93
576.47	16.02
576.665	15.87
576.86	16.11
577.055	16.08
577.25	16
577.444	16.07
577.639	16.03
577.834	16.06
578.029	16.13
578.224	15.99
578.418	15.93
578.613	15.87
578.808	15.94
579.003	15.88
579.197	15.93
579.392	16.04
579.587	15.96
579.781	16.02
579.976	15.96
580.171	16.04
580.365	16.19
580.56	16.23
580.755	16.19
580.949	16.18
581.144	16.09
581.338	16.02
581.533	16.12
581.727	16.17
581.922	16.24
582.116	16.4
582.311	16.28
582.505	16.31
582.7	16.41
582.894	16.56
583.089	16.8
583.283	16.87
583.478	17.03
583.672	16.94
583.866	16.85
584.061	16.77
584.255	16.73
584.449	16.85
584.644	16.87
584.838	16.91
585.032	16.88
585.226	16.72
585.421	16.82
585.615	16.82
585.809	16.92
586.003	17.22
586.198	17.29
586.392	17.35
586.586	17.16
586.78	17.29
586.974	17.16
587.168	17.28
587.363	17.3
587.557	17.41
587.751	17.39
587.945	17.26
588.139	17.15
588.333	17.13
588.527	17.07
588.721	17.22
588.915	17.17
589.109	17.34
589.303	17.21
589.497	17.3
589.691	17.23
589.885	17.08
590.079	17.11
590.273	17.09
590.466	17.12
590.66	17.19
590.854	17.26
591.048	17.33
591.242	17.36
591.436	17.52
591.629	17.43
591.823	17.34
592.017	17.47
592.211	17.46
592.404	17.43
592.598	17.35
592.792	17.31
592.986	17.28
593.179	17.07
593.373	16.92
593.567	16.81
593.76	16.84
593.954	16.96
594.147	16.91
594.341	17.04
594.535	17.13
594.728	17.25
594.922	17.3
595.115	17.21
595.309	17.28
595.502	17.24
595.696	17.22
595.889	17.31
596.083	17.28
596.276	17.37
596.47	17.27
596.663	17.2
596.856	17.23
597.05	17.2
597.243	17.31
597.437	17.32
597.63	17.34
597.823	17.47
598.017	17.46
598.21	17.29
598.403	17.24
598.596	17.39
598.79	17.51
598.983	17.44
599.176	17.4
599.369	17.44
599.563	17.46
599.756	17.44
599.949	17.47
600.142	17.71
600.335	17.9
600.528	17.94
600.722	17.73
600.915	17.75
601.108	17.77
601.301	17.76
601.494	17.85
601.687	17.91
601.88	18.1
602.073	17.85
602.266	17.58
602.459	17.65
602.652	17.63
602.845	17.66
603.038	17.52
603.231	17.49
603.424	17.41
603.617	17.23
603.809	17.26
604.002	17.18
604.195	17.34
604.388	17.38
604.581	17.33
604.774	17.3
604.966	17.32
605.159	17.39
605.352	17.37
605.545	17.39
605.737	17.51
605.93	17.55
606.123	17.49
606.316	17.37
606.508	17.41
606.701	17.47
606.894	17.57
607.086	17.61
607.279	17.7
607.471	17.69
607.664	18.02
607.857	18.04
608.049	17.94
608.242	18.12
608.434	18.36
608.627	18.45
608.819	18.55
609.012	18.83
609.204	19.18
609.397	19.46
609.589	19.91
609.782	20.29
609.974	20.78
610.166	21.29
610.359	21.73
610.551	22.24
610.743	22.76
610.936	23.1
611.128	23.3
611.32	23.42
611.513	23.7
611.705	23.77
611.897	23.67
612.09	23.33
612.282	23.12
612.474	22.98
612.666	22.41
612.858	22.2
613.051	22.13
613.243	21.99
613.435	21.69
613.627	21.43
613.819	21.15
614.011	20.9
614.203	20.78
614.395	20.55
614.588	20.29
614.78	20.4
614.972	20.2
615.164	20
615.356	19.74
615.548	19.88
615.74	19.61
615.932	19.41
616.124	19.36
616.315	19.3
616.507	19.45
616.699	19.53
616.891	19.48
617.083	19.28
617.275	19.34
617.467	19.33
617.659	19.12
617.85	19.15
618.042	19.44
618.234	19.48
618.426	19.53
618.618	19.45
618.809	19.36
619.001	19.31
619.193	19.48
619.384	19.45
619.576	19.37
619.768	19.43
619.959	19.39
620.151	19.11
620.343	19.1
620.534	19.15
620.726	19.15
620.917	19.02
621.109	18.93
621.301	18.86
621.492	18.76
621.684	18.89
621.875	18.74
622.067	18.7
622.258	18.77
622.45	18.75
622.641	18.79
622.832	18.66
623.024	18.86
623.215	18.86
623.407	18.88
623.598	18.93
623.789	18.95
623.981	19.16
624.172	19.22
624.363	19.42
624.555	19.28
624.746	19.24
624.937	19.26
625.129	18.99
625.32	19.09
625.511	18.94
625.702	19.04
625.893	18.91
626.085	18.9
626.276	18.88
626.467	18.75
626.658	18.92
626.849	18.84
627.04	18.87
627.231	18.99
627.422	19.05
627.614	19.33
627.805	19.28
627.996	19.37
628.187	19.31
628.378	19.38
628.569	19.39
628.76	19.38
628.951	19.51
629.142	19.68
629.332	19.84
629.523	19.71
629.714	19.66
629.905	19.63
630.096	19.72
630.287	19.85
630.478	19.84
630.669	19.89
630.859	19.88
631.05	19.93
631.241	19.74
631.432	19.7
631.623	19.68
631.813	19.52
632.004	19.56
632.195	19.54
632.385	19.43
632.576	19.3
632.767	19.17
632.957	19.04
633.148	18.98
633.339	19.1
633.529	18.99
633.72	18.88
633.91	18.76
634.101	18.66
634.292	18.49
634.482	18.39
634.673	18.63
634.863	18.72
635.054	18.74
635.244	18.79
635.435	18.71
635.625	18.73
635.815	18.9
636.006	19.1
636.196	19.19
636.387	19.31
636.577	19.55
636.767	19.2
636.958	19.32
637.148	19.29
637.338	19.34
637.529	19.26
637.719	19.49
637.909	19.46
638.099	19.54
638.29	19.53
638.48	19.58
638.67	19.44
638.86	19.58
639.05	19.46
639.241	19.59
639.431	19.43
639.621	19.63
639.811	19.33
640.001	19.27
640.191	19.16
640.381	19.16
640.571	19.25
640.761	19.32
640.951	19.55
641.141	19.4
641.331	19.19
641.521	19.19
641.711	19.03
641.901	19.12
642.091	19.09
642.281	18.82
642.471	18.81
642.661	18.68
642.851	18.73
643.041	18.58
643.231	18.59
643.42	18.71
643.61	18.8
643.8	18.71
643.99	18.69
644.18	18.69
644.369	18.89
644.559	19.02
644.749	19.37
644.939	19.59
645.128	19.46
645.318	19.59
645.508	19.6
645.697	19.43
645.887	19.68
646.076	19.79
646.266	19.73
646.456	19.82
646.645	19.7
646.835	19.37
647.024	18.93
647.214	19.24
647.403	19.42
647.593	19.52
647.782	19.68
647.972	19.67
648.161	19.6
648.351	19.93
648.54	19.96
648.73	20.17
648.919	20.31
649.108	20.64
649.298	20.3
649.487	20.27
649.677	20.18
649.866	20.02
650.055	20.11
650.244	20.09
650.434	19.99
650.623	19.85
650.812	19.6
651.002	19.47
651.191	19.25
651.38	19.31
651.569	19.35
651.758	19.36
651.947	19.5
652.137	19.35
652.326	19.38
652.515	19.21
652.704	19.44
652.893	19.64
653.082	19.94
653.271	20.14
653.46	20.36
653.649	20
653.838	20.02
654.027	20.01
654.216	20.14
654.405	20.14
654.594	20.3
654.783	20.11
654.972	19.8
655.161	19.42
655.35	19.15
655.539	18.9
655.728	19
655.916	18.7
656.105	18.91
656.294	18.68
656.483	18.62
656.672	18.67
656.86	18.7
657.049	18.98
657.238	19.01
657.427	19.14
657.615	19.35
657.804	19.47
657.993	19.66
658.181	19.66
658.37	19.84
658.559	19.95
658.747	20.05
658.936	20.01
659.125	19.98
659.313	20.06
659.502	19.9
659.69	19.79
659.879	19.85
660.067	19.92
660.256	19.76
660.444	19.62
660.633	19.58
660.821	19.34
661.01	19.28
661.198	19.28
661.387	19.37
661.575	19.59
661.763	19.69
661.952	19.66
662.14	19.84
662.328	19.68
662.517	19.86
662.705	19.92
662.893	20.13
663.082	20.33
663.27	20.51
663.458	20.2
663.646	20.5
663.834	20.54
664.023	20.59
664.211	20.66
664.399	20.97
664.587	20.79
664.775	20.58
664.963	20.48
665.152	20.27
665.34	19.95
665.528	20.22
665.716	19.67
665.904	19.84
666.092	19.85
666.28	19.71
666.468	19.59
666.656	19.76
666.844	19.96
667.032	20.03
667.22	20.34
667.408	20.47
667.596	20.43
667.784	20.58
667.971	20.25
668.159	20.04
668.347	20.03
668.535	19.91
668.723	19.96
668.911	20.03
669.098	20.04
669.286	20.19
669.474	20.13
669.662	20.28
669.849	20.39
670.037	20.69
670.225	20.79
670.413	20.76
670.6	20.99
670.788	20.63
670.976	20.25
671.163	20.2
671.351	20.04
671.538	19.96
671.726	19.73
671.913	19.93
672.101	19.88
672.289	19.83
672.476	19.54
672.664	19.61
672.851	19.96
673.039	20.16
673.226	20.09
673.413	19.97
673.601	19.86
673.788	20.12
673.976	19.69
674.163	19.7
674.35	20.03
674.538	20.1
674.725	20.31
674.912	20.2
675.1	20.36
675.287	20.47
675.474	20.64
675.662	20.95
675.849	20.98
676.036	21.15
676.223	20.85
676.411	20.87
676.598	20.98
676.785	20.78
676.972	20.79
677.159	20.37
677.346	19.94
677.533	19.59
677.721	19.75
677.908	19.69
678.095	19.84
678.282	20.11
678.469	19.79
678.656	19.99
678.843	19.95
679.03	19.85
679.217	20.19
679.404	20.25
679.591	20.3
679.778	20.04
679.964	19.86
680.151	19.57
680.338	19.45
680.525	19.48
680.712	19.25
680.899	18.98
681.086	18.95
681.272	18.8
681.459	19.14
681.646	19.28
681.833	19.27
682.02	19.3
682.206	19.79
682.393	19.8
682.58	19.97
682.766	19.99
682.953	20.12
683.14	20.15
683.326	20.31
683.513	20.11
683.7	20
683.886	20.17
684.073	20.09
684.259	19.52
684.446	19.55
684.632	19.72
684.819	19.82
685.005	19.92
685.192	20.44
685.378	20.37
685.565	20.62
685.751	20.55
685.938	20.19
686.124	20.43
686.31	20.5
686.497	20.36
686.683	20.23
686.87	20.2
687.056	20.27
687.242	19.8
687.429	19.89
687.615	19.62
687.801	19.49
687.987	19.82
688.174	19.87
688.36	20.02
688.546	20.2
688.732	20.08
688.918	19.98
689.105	20.29
689.291	20.02
689.477	19.81
689.663	19.8
689.849	19.88
690.035	20.2
690.221	20.04
690.407	20.09
690.593	19.91
690.779	19.8
690.965	19.76
691.151	19.42
691.337	20.12
691.523	20.31
691.709	20.4
691.895	20.67
692.081	20.39
692.267	20.18
692.453	20.02
692.639	20.05
692.825	20.19
693.011	20.43
693.196	20.55
693.382	20.31
693.568	20.3
693.754	20.16
693.94	19.78
694.125	19.51
694.311	20.03
694.497	20.3
694.682	20.34
694.868	20.35
695.054	20.24
695.239	20.17
695.425	19.92
695.611	19.88
695.796	20.05
695.982	20.17
696.168	20.4
696.353	20.46
696.539	19.95
696.724	19.65
696.91	19.7
697.095	19.71
697.281	19.68
697.466	19.94
697.652	20.12
697.837	20.23
698.023	20.28
698.208	20.39
698.393	20.35
698.579	20.72
698.764	20.78
698.949	20.83
699.135	20.76
699.32	20.82
699.505	20.72
699.691	20.52
699.876	20.56
700.061	20.81
700.246	20.51
700.432	20.27
700.617	20.19
700.802	20.26
700.987	19.9
701.172	19.99
701.358	19.96
701.543	20.06
701.728	20.36
701.913	20.36
702.098	20.19
702.283	20.27
702.468	20.1
702.653	20.3
702.838	20.46
703.023	20.81
703.208	21.25
703.393	20.97
703.578	20.87
703.763	21.02
703.948	20.96
704.133	21.01
704.318	21.09
704.503	21.51
704.688	21.34
704.873	21.38
705.057	21.55
705.242	21.1
705.427	21.38
705.612	21.63
705.797	21.61
705.981	21.51
706.166	22.19
706.351	22.69
706.536	23
706.72	22.99
706.905	23.42
707.09	23.46
707.274	23.78
707.459	23.96
707.644	24.02
707.828	23.89
708.013	24.26
708.197	23.92
708.382	23.61
708.567	23.37
708.751	23.04
708.936	22.89
709.12	22.92
709.305	23.04
709.489	22.62
709.673	22.74
709.858	22.68
710.042	22.41
710.227	22.18
710.411	21.93
710.596	21.86
710.78	21.84
710.964	21.82
711.149	21.89
711.333	21.79
711.517	22
711.702	21.57
711.886	21.66
712.07	21.82
712.254	21.6
712.438	21.65
712.623	21.66
712.807	21.79
712.991	21.81
713.175	21.78
713.359	21.22
713.544	21.61
713.728	21.4
713.912	21.21
714.096	21.19
714.28	21.28
714.464	21.34
714.648	21.24
714.832	21.19
715.016	20.93
715.2	20.44
715.384	20.61
715.568	20.22
715.752	20.68
715.936	20.85
716.12	20.72
716.304	20.6
716.488	20.51
716.671	20.29
716.855	20.54
717.039	20.82
717.223	21.34
717.407	21.43
717.59	21.31
717.774	21.13
717.958	20.87
718.142	20.62
718.325	20.45
718.509	20.53
718.693	20.79
718.877	20.95
719.06	20.46
719.244	20.16
719.428	20.29
719.611	20.6
719.795	20.66
719.978	20.79
720.162	20.86
720.345	21.35
720.529	21.64
720.713	21.79
720.896	21.77
721.08	22.27
721.263	22.83
721.446	23.05
721.63	23
721.813	22.54
721.997	22.47
722.18	22.6
722.364	21.79
722.547	21.46
722.73	21.97
722.914	21.53
723.097	21.45
723.28	20.68
723.464	20.67
723.647	20.65
723.83	21.28
724.013	21.21
724.197	21.22
724.38	21.89
724.563	21.97
724.746	21.5
724.929	21.81
725.112	22.22
725.296	22.39
725.479	22.29
725.662	22.16
725.845	22.31
726.028	22.75
726.211	23.02
726.394	22.39
726.577	22.43
726.76	22.23
726.943	21.97
727.126	21.71
727.309	21.62
727.492	21.95
727.675	22.07
727.858	21.78
728.041	21.34
728.224	20.96
728.407	21.84
728.589	21.86
728.772	22.05
728.955	22.18
729.138	21.6
729.321	21.67
729.503	21.46
729.686	21.21
729.869	21.13
730.052	21.22
730.234	21.49
730.417	21.4
730.6	21.27
730.782	21.27
730.965	21.69
731.148	22.38
731.33	22.42
731.513	22.03
731.695	22.25
731.878	22.48
732.061	22.26
732.243	22.42
732.426	21.76
732.608	22.09
732.791	21.69
732.973	21.74
733.156	21.14
733.338	21.18
733.52	21.29
733.703	21.5
733.885	21.46
734.068	21.9
734.25	21.54
734.432	22.42
734.615	22.33
734.797	22.94
734.979	22.46
735.162	22.55
735.344	22.11
735.526	21.97
735.708	21.84
735.891	21.29
736.073	21.42
736.255	21.71
736.437	21.08
736.619	20.77
736.802	20.56
736.984	20.01
737.166	20.32
737.348	20.69
737.53	20.91
737.712	21.26
737.894	21.74
738.076	21.61
738.258	21.09
738.44	21.14
738.622	21.27
738.804	21.17
738.986	21.97
739.168	21.99
739.35	21.74
739.532	21.57
739.714	21.01
739.896	20.69
740.078	20.36
740.259	20.79
740.441	20.97
740.623	20.85
740.805	20.71
740.987	20.41
741.168	21.1
741.35	22.14
741.532	22.04
741.714	21.75
741.895	21.66
742.077	21.96
742.259	21.97
742.44	21.95
742.622	22.59
742.804	22.5
742.985	22.54
743.167	21.96
743.348	22.06
743.53	22.49
743.711	22.86
743.893	23.69
744.075	23.35
744.256	23.35
744.438	23.55
744.619	23.07
744.8	23.56
744.982	23.33
745.163	22.33
745.345	21.67
745.526	21.93
745.707	22.58
745.889	22.09
746.07	22.35
746.252	22.28
746.433	22.24
746.614	22.26
746.795	22.02
746.977	22.25
747.158	23.42
747.339	22.91
747.52	22.91
747.702	22.25
747.883	21.8
748.064	21.5
748.245	21.52
748.426	21.62
748.607	21.44
748.788	21.61
748.97	22.11
749.151	21.83
749.332	22.49
749.513	22.45
749.694	22.92
749.875	23.04
750.056	23.76
750.237	23.62
750.418	23.94
750.599	23.51
750.78	23.29
750.96	23.45
751.141	23.76
751.322	23.36
751.503	22.99
751.684	22.54
751.865	22.87
752.046	22.92
752.226	22.49
752.407	22.16
752.588	22.91
752.769	23.08
752.949	21.6
753.13	21.54
753.311	21.58
753.492	21.56
753.672	21.86
753.853	22.07
754.034	21.75
754.214	22.02
754.395	21.97
754.575	22.38
754.756	22.31
754.937	24.08
755.117	23.72
755.298	24.53
755.478	24.48
755.659	23.99
755.839	23.2
756.02	23.25
756.2	24.09
756.381	24.4
756.561	24.28
756.741	24.61
756.922	23.9
757.102	24.59
757.283	23.78
757.463	23.77
757.643	23.86
757.823	24.25
758.004	24.24
758.184	23.82
758.364	23.51
758.545	24.01
758.725	22.79
758.905	22.21
759.085	21.47
759.265	20.85
759.446	20.35
759.626	20.67
759.806	21.03
759.986	20.9
760.166	20.4
760.346	20.39
760.526	19.26
760.706	20.47
760.886	21.06
761.066	21.56
761.246	22.45
761.426	22.44
761.606	22.57
761.786	22.26
761.966	21.45
762.146	21.57
762.326	21.48
762.506	21.81
762.686	21.15
762.866	21.25
763.046	20.74
763.225	20.62
763.405	20.97
763.585	20.41
763.765	20.75
763.945	20.78
764.124	20.97
764.304	21.45
764.484	21.88
764.664	22.42
764.843	22.18
765.023	22.62
765.203	22.39
765.382	22.85
765.562	22.86
765.741	22.27
765.921	23.13
766.101	23.51
766.28	22.81
766.46	22.3
766.639	21.78
766.819	22.26
766.998	22.08
767.178	22.49
767.357	21.53
767.537	21.85
767.716	22.02
767.896	21.85
768.075	20.92
768.254	21.34
768.434	21.08
768.613	21.49
768.792	20.85
768.972	20.9
769.151	21
769.33	21.89
769.51	21.74
769.689	21.95
769.868	22.26
770.047	23.39
770.226	24.13
770.406	24.1
770.585	24.03
770.764	24.59
770.943	24.82
771.122	23.8
771.301	23.72
771.48	24.23
771.66	24.05
771.839	23.62
772.018	22.47
772.197	21.11
772.376	21.38
772.555	21.61
772.734	21.14
772.913	20.84
773.092	21.86
773.271	21.56
773.449	21.75
773.628	21.57
773.807	21.17
773.986	22.36
774.165	23.01
774.344	23.03
774.523	22.61
774.701	22.74
774.88	23.03
775.059	23.2
775.238	23.64
775.417	24.19
775.595	24.78
775.774	25.29
775.953	24.21
776.131	24.3
776.31	24.36
776.489	25.43
776.667	26.05
776.846	25.99
777.025	25.6
777.203	25.53
777.382	26.41
777.56	26.43
777.739	26.73
777.917	26.58
778.096	26.19
778.274	26.77
778.453	26.77
778.631	26.44
778.81	26.03
778.988	26.06
779.166	26.64
779.345	25.94
779.523	25.8
779.702	25.4
779.88	26.44
780.058	26.82
780.237	27.42
780.415	25.85
780.593	26.06
780.771	25.93
780.95	26.35
781.128	25.59
781.306	24.42
781.484	25.25
781.662	24.65
781.841	24.22
782.019	24.09
782.197	23.25
782.375	23.38
782.553	23.12
782.731	23.1
782.909	22.99
783.087	23.18
783.265	23.15
783.443	22.49
783.621	23.23
783.799	22.49
783.977	23.6
784.155	23.23
784.333	24.07
784.511	23.47
784.689	24.43
784.867	24.62
785.045	24.2
785.223	24.72
785.4	25.16
785.578	25.27
785.756	26
785.934	24.8
786.112	24.9
786.289	24.57
786.467	25.09
786.645	25.32
786.823	25.69
787	25.9
787.178	25.95
787.356	25.09
787.533	25.42
787.711	25.19
787.889	24.9
788.066	24.2
788.244	23.9
788.421	24.5
788.599	24.03
788.776	23.29
788.954	23.32
789.131	22.77
789.309	23.16
789.486	22.68
789.664	22.54
789.841	23.14
790.019	23.65
790.196	24.52
790.373	23.87
790.551	23.97
790.728	23.9
790.906	23.4
791.083	23.71
791.26	23.13
791.437	23
791.615	22.98
791.792	22.65
791.969	22.92
792.146	21.34
792.324	21.9
792.501	22.31
792.678	22.67
792.855	22.05
793.032	21.85
793.209	23.14
793.387	23.49
793.564	24.84
793.741	25.24
793.918	24.73
794.095	25.31
794.272	25.08
794.449	23.88
794.626	24.22
794.803	25.71
794.98	26.41
795.157	26.53
795.334	27.32
795.511	26.96
795.688	26.3
795.864	26.6
796.041	25.78
796.218	25.86
796.395	26.82
796.572	26.06
796.749	24.31
796.925	24.1
797.102	22.79
797.279	22.36
797.456	21.61
797.632	22.38
797.809	22.27
797.986	23.16
798.162	22.17
798.339	21.3
798.516	21.98
798.692	22.97
798.869	23.23
799.046	23.34
799.222	23.22
799.399	23.86
799.575	22.97
799.752	22.83
799.928	22.44
800.105	23.04
800.281	24.46
800.458	23.55
800.634	24.22
800.811	24.32
800.987	25.13
801.163	25.14
801.34	25.26
801.516	25.75
801.692	25.49
801.869	26.93
802.045	26.42
802.221	25.7
802.398	25.79
802.574	25.48
802.75	26.43
802.926	26.95
803.103	26.66
803.279	26.6
803.455	26.3
803.631	27.25
803.807	25.88
803.983	27.16
804.16	26.82
804.336	27.14
804.512	28.39
804.688	26.75
804.864	27.11
805.04	27.05
805.216	26.21
805.392	25.9
805.568	24.19
805.744	24.53
805.92	23.36
806.096	25.7
806.272	26.02
806.448	24.7
806.623	24.66
806.799	23.61
806.975	23.67
807.151	24.82
807.327	25.34
807.503	26.31
807.678	26.94
807.854	28.99
808.03	26.3
808.206	26.73
808.381	26.98
808.557	25.63
808.733	25.73
808.908	25.69
809.084	24.8
809.26	25.04
809.435	23.87
809.611	24.64
809.787	23.04
809.962	24.08
810.138	22.9
810.313	22.73
810.489	24.6
810.664	24.26
810.84	24.93
811.015	25.17
811.191	25.02
811.366	26.17
811.542	25.93
811.717	26.51
811.892	27.2
812.068	27.42
812.243	26.66
812.419	26.11
812.594	25.14
812.769	23.89
812.944	25.87
813.12	26.23
813.295	25.98
813.47	24.03
813.645	22.09
813.821	22.1
813.996	22.74
814.171	23.52
814.346	23.75
814.521	24.16
814.697	23.82
814.872	22.22
815.047	21.33
815.222	22.15
815.397	23.56
815.572	24.58
815.747	24.37
815.922	24.43
816.097	24.11
816.272	24.21
816.447	25.19
816.622	27.35
816.797	27.76
816.972	26.66
817.147	26.93
817.322	27.21
817.496	27.85
817.671	26.99
817.846	26.59
818.021	26.08
818.196	24.83
818.371	25.39
818.545	24.79
818.72	24.33
818.895	25.35
819.069	25.24
819.244	24.03
819.419	24.15
819.594	23.96
819.768	24.38
819.943	24.87
820.117	24.89
820.292	23.71
820.467	22.75
820.641	22.09
820.816	22.21
820.99	21.65
821.165	21.74
821.339	21.14
821.514	21.54
821.688	20.97
821.863	20.92
822.037	20.91
822.212	20.91
822.386	20.97
822.56	20.94
822.735	20.65
822.909	20.53
823.084	20.61
823.258	20.61
823.432	20.44
823.606	20.49
823.781	20.48
823.955	20.79
824.129	20.86
824.303	21.06
824.478	21.6
824.652	21.04
824.826	21.36
825	21.07
825.174	21.28
825.348	20.94
825.523	20.96
825.697	20.97
825.871	19.97
826.045	19.89
826.219	19.46
826.393	18.76
826.567	19.55
826.741	19.71
826.915	20.15
827.089	20.11
827.263	20.03
827.437	20.37
827.611	19.92
827.784	20.35
827.958	20.29
828.132	20.67
828.306	21.15
828.48	21.79
828.654	21.53
828.827	21.57
829.001	21.61
829.175	23.21
829.349	23.17
829.522	24.24
829.696	24.36
829.87	23.99
830.044	24.11
830.217	23.74
830.391	24.12
830.565	24.6
830.738	25.52
830.912	26
831.085	25.73
831.259	25.67
831.432	25.28
831.606	26.74
831.779	27.15
831.953	26.25
832.126	25.08
832.3	24.12
832.473	23.42
832.647	22.84
832.82	22.47
832.994	20.97
833.167	20.79
833.34	21.01
833.514	19.98
833.687	19.75
833.86	20.27
834.034	20.41
834.207	20.62
834.38	21.24
834.553	20.18
834.727	20.27
834.9	20.84
835.073	21.19
835.246	20.54
835.419	20.8
835.593	22.33
835.766	21.09
835.939	21.8
836.112	21.73
836.285	21.52
836.458	24.3
836.631	25.46
836.804	25.23
836.977	25.23
837.15	27.33
837.323	27.4
837.496	26.48
837.669	28.11
837.842	28.87
838.015	29.08
838.188	28.23
838.361	26.57
838.533	25.26
838.706	25.6
838.879	27.25
839.052	25.23
839.225	25.64
839.398	25.42
839.57	24.23
839.743	22.96
839.916	23.94
840.088	24.57
840.261	24.4
840.434	24.4
840.607	23.87
840.779	20.87
840.952	21.86
841.124	24.13
841.297	24.13
841.47	23.86
841.642	25.08
841.815	24.95
841.987	27.02
842.16	25.77
842.332	26.65
842.505	27.62
842.677	29.12
842.85	27.91
843.022	26.99
843.194	27.51
843.367	31.59
843.539	31.57
843.712	32.26
843.884	29.87
844.056	33.97
844.229	32.78
844.401	32.76
844.573	33.96
844.745	33.28
844.918	30.73
845.09	30.15
845.262	27.52
845.434	26.57
845.606	25.24
845.779	27.19
845.951	21.98
846.123	23.67
846.295	24.8
846.467	27.04
846.639	33.94
846.811	35.86
846.983	37.52
847.155	38.35
847.327	36.84
847.499	34.94
847.671	34.73
847.843	36.55
848.015	37.26
848.187	35.64
848.359	35.73
848.531	32.7
848.703	31.94
848.875	31.9
849.047	30
849.218	31.38
849.39	34.57
849.562	33.37
849.734	31.67
849.905	30.31
850.077	33.83
850.249	32.78
850.421	32.53
850.592	32.12
850.764	29.95
850.936	33.52
851.107	32.29
851.279	30.73
851.451	33.07
851.622	38.51
851.794	37.38
851.965	33.24
852.137	33.89
852.308	34.42
852.48	37.17
852.651	37.63
852.823	37.33
852.994	36.73
853.166	37.92
853.337	39.36
853.509	39.08
853.68	40.38
853.851	40.82
854.023	36.81
854.194	35.9
854.365	37.12
854.537	36.03
854.708	36.38
854.879	39.23
855.05	38.81
855.222	35.08
855.393	30.75
855.564	29.71
855.735	31.69
855.906	37.35
856.078	38.06
856.249	34.32
856.42	40.56
856.591	42.75
856.762	41.66
856.933	40.79
857.104	40.59
857.275	43.32
857.446	43.17
857.617	39.59
857.788	35.6
857.959	36.5
858.13	38.52
858.301	35.54
858.472	34.43
858.643	35.89
858.814	34.03
858.985	35.25
859.155	33.37
859.326	35.15
859.497	40.86
859.668	41.67
859.839	41.42
860.009	38.93
860.18	40.15
860.351	42
860.522	43.59
860.692	43.37
860.863	43.72
861.034	46.39
861.204	46.56
861.375	42.1
861.546	46.05
861.716	44.19
861.887	48.77
862.057	44.28
862.228	39.57
862.398	34.91
862.569	34.24
862.739	35.18
862.91	33.75
863.08	32.65
863.251	35.34
863.421	32.53
863.592	34.18
863.762	30.96
863.932	32.12
864.103	32.25
864.273	34.97
864.443	39.22
864.614	40.5
864.784	38.45
864.954	40.75
865.125	43.13
865.295	43.62
865.465	43.14
865.635	40.64
865.805	42.83
865.976	42.47
866.146	41.04
866.316	38.91
866.486	36.34
866.656	36.77
866.826	31.97
866.996	31.45
867.166	32.51
867.336	34.34
867.506	37.48
867.676	34.08
867.846	33.7
868.016	33.59
868.186	34.27
868.356	32.78
868.526	32.82
868.696	33.5
868.866	28.41
869.036	26.4
869.206	24.55
869.376	23.65
869.545	25.65
869.715	29.85
869.885	31.73
870.055	27.33
870.224	30.89
870.394	31.71
870.564	36.61
870.734	38.08
870.903	34.81
871.073	33.88
871.243	34.49
871.412	33.68
871.582	32.92
871.751	30.76
871.921	35.24
872.091	31.94
872.26	34.46
872.43	27.08
872.599	23.8
872.769	23.88
872.938	23.58
873.108	19.98
873.277	17.25
873.446	14.65
873.616	17
873.785	15.61
873.955	17.06
874.124	15.01
874.293	13.95
874.463	15.57
874.632	20.75
874.801	22.07
874.971	24.38
875.14	28.68
875.309	30.76
875.478	29.74
875.647	29.85
875.817	28.27
875.986	27.93
876.155	33.96
876.324	36.31
876.493	35.13
876.662	34.24
876.831	33.29
877	31.31
877.17	30.77
877.339	30.04
877.508	29.23
877.677	29.84
877.846	32.77
878.015	28.61
878.184	27.38
878.352	26.06
878.521	24.72
878.69	25.54
878.859	31.52
879.028	30.67
879.197	30.11
879.366	31.39
879.534	29.83
879.703	27.77
879.872	30.86
880.041	27.71
880.21	26.68
880.378	26.76
880.547	25
880.716	22.15
880.884	23.22
881.053	22.72
881.222	22.03
881.39	21.73
881.559	21.19
881.727	19.86
881.896	21.13
882.065	21.3
882.233	21.33
882.402	22.07
882.57	21.64
882.739	20.72
882.907	20.5
883.076	20.23
883.244	20.4
883.412	20.3
883.581	19.95
883.749	19.59
883.918	19.49
884.086	19.68
884.254	18.47
884.423	19.65
884.591	19.95
884.759	19.77
884.927	20.52
885.096	19.96
885.264	21.17
885.432	22.66
885.6	23.12
885.769	23.56
885.937	22.39
886.105	24.67
886.273	24.88
886.441	27.55
886.609	29.36
886.777	30.67
886.945	32.47
887.113	30.88
887.281	30.75
887.449	28.93
887.617	27.29
887.785	26.37
887.953	26.38
888.121	27.27
888.289	26.34
888.457	28.4
888.625	25.55
888.793	25.48
888.961	30.15
889.129	31.87
889.296	32.06
889.464	34.96
889.632	38.88
889.8	40.44
889.967	38.83
890.135	35.02
