Data from 2938717__Reflection_03.txt Node
Date: Tue Mar 17 18:48:59 EDT 2015
User: robert
Spectrometer: USB4E03002
Autoset integration time: false
Trigger mode: 4
Integration Time (sec): 1.000000E-1
Scans to average: 10
Electric dark correction enabled: false
Nonlinearity correction enabled: false
Boxcar width: 5
Stray light correction enabled: false
XAxis mode: Wavelengths
Stop averaging: false
Number of Pixels in Spectrum: 3648
>>>>>Begin Spectral Data<<<<<
177.575	-115.56
177.794	-441.11
178.014	-5512.5
178.233	-3342.86
178.452	455.56
178.672	618.6
178.891	225.8
179.11	177.85
179.33	166.52
179.549	211.74
179.768	247.83
179.987	190.85
180.207	166.82
180.426	698
180.645	375.22
180.864	-605.08
181.084	-3040
181.303	-73.13
181.522	-106.1
181.741	-213.4
181.96	-165.44
182.179	-157.21
182.398	-183.01
182.618	-320.71
182.837	-4325
183.056	-174.88
183.275	867.19
183.494	1456.1
183.713	555.73
183.932	-1651.22
184.151	707.25
184.37	250
184.589	152.93
184.808	108.2
185.027	95.85
185.246	70.59
185.465	122.75
185.684	126.09
185.903	109.36
186.122	72.66
186.341	72.87
186.56	72.46
186.779	62.46
186.998	78.21
187.216	118.88
187.435	115.37
187.654	105.51
187.873	64.55
188.092	64.2
188.311	65.22
188.53	130.35
188.748	204.55
188.967	200
189.186	1475.86
189.405	-2760
189.623	242.42
189.842	376.99
190.061	170.92
190.28	331.25
190.498	781.25
190.717	171.89
190.936	226.21
191.154	126.54
191.373	220.56
191.592	174.37
191.81	281.64
192.029	316.2
192.248	124.44
192.466	189.66
192.685	152.91
192.904	174.64
193.122	202.35
193.341	208.31
193.559	192.35
193.778	156.72
193.996	108.84
194.215	77.24
194.433	69.65
194.652	152.06
194.87	173.16
195.089	212.28
195.307	224.49
195.526	200
195.744	132.45
195.963	174.26
196.181	238.54
196.399	-420.93
196.618	-74.81
196.836	-72.19
197.055	-8.82
197.273	-38.85
197.491	-195
197.71	-377.78
197.928	237.01
198.146	143.46
198.365	109.63
198.583	116.82
198.801	89.83
199.019	86.97
199.238	78.71
199.456	90.47
199.674	67.05
199.892	54.59
200.111	67.81
200.329	64.74
200.547	23.42
200.765	51.97
200.983	74.04
201.202	165.67
201.42	185.92
201.638	192.76
201.856	211.45
202.074	222.86
202.292	225.17
202.51	200
202.728	909.09
202.946	689.29
203.165	555.1
203.383	251.71
203.601	201.99
203.819	141.26
204.037	113.5
204.255	127.35
204.473	151.81
204.691	108.84
204.909	107.57
205.127	86.18
205.345	68.3
205.562	69.88
205.78	82.25
205.998	59.66
206.216	90.95
206.434	123.99
206.652	83.33
206.87	73.3
207.088	123.24
207.306	117.57
207.523	75.34
207.741	114.63
207.959	90.21
208.177	54.81
208.395	90.41
208.612	36.84
208.83	58.63
209.048	78.31
209.266	76.98
209.483	77.53
209.701	55.6
209.919	243.22
210.136	98.12
210.354	191.89
210.572	168.18
210.79	136.96
211.007	135.88
211.225	147.78
211.442	150.84
211.66	125.69
211.878	145.4
212.095	150.19
212.313	163.09
212.53	369.74
212.748	172.32
212.966	149.04
213.183	205.64
213.401	120.11
213.618	125.51
213.836	131.15
214.053	174.55
214.271	121.16
214.488	126.45
214.705	95.68
214.923	94.78
215.14	97.55
215.358	115.88
215.575	86.62
215.793	122.95
216.01	82.08
216.227	70.39
216.445	85.63
216.662	93.89
216.879	124.33
217.097	155.42
217.314	114.72
217.531	99.03
217.749	103.98
217.966	101.69
218.183	89.35
218.4	93.48
218.618	80.76
218.835	58.56
219.052	45.87
219.269	35.29
219.487	32.75
219.704	28.57
219.921	34.03
220.138	20.37
220.355	41.03
220.572	41.4
220.79	38.63
221.007	40.65
221.224	48.3
221.441	52.6
221.658	55.4
221.875	47.95
222.092	46.79
222.309	43.53
222.526	39.25
222.743	38.23
222.96	37.15
223.177	37.9
223.394	34.62
223.611	25.36
223.828	22.65
224.045	15.27
224.262	21
224.479	20.31
224.696	22.86
224.913	20.84
225.13	23.85
225.347	17.69
225.564	19.2
225.781	17.75
225.997	17.58
226.214	18.63
226.431	17.17
226.648	15.66
226.865	14.34
227.082	13.17
227.298	13.35
227.515	10.25
227.732	11.64
227.949	10.38
228.165	10.04
228.382	10.59
228.599	9.31
228.816	8.91
229.032	7.87
229.249	7.78
229.466	7.7
229.682	6.95
229.899	6.19
230.116	4.92
230.332	5.32
230.549	4.91
230.765	4.33
230.982	4.45
231.199	3.97
231.415	4.9
231.632	5.74
231.848	5.57
232.065	7.31
232.281	8.57
232.498	9.54
232.714	8.2
232.931	10.68
233.147	12.86
233.364	13.73
233.58	13.45
233.797	12.16
234.013	9.91
234.23	8.53
234.446	7.6
234.662	7.42
234.879	8.47
235.095	10.3
235.312	7.83
235.528	5.8
235.744	5.22
235.961	6.74
236.177	6.77
236.393	9.78
236.61	10.85
236.826	10.5
237.042	10.75
237.258	9.47
237.475	8.83
237.691	9.49
237.907	11.32
238.123	10.31
238.339	11.47
238.556	10.62
238.772	8.33
238.988	7.35
239.204	6.69
239.42	7.1
239.636	7.13
239.853	7.68
240.069	7.62
240.285	7.82
240.501	7.43
240.717	5.99
240.933	7.02
241.149	7.58
241.365	7.53
241.581	7.85
241.797	7.53
242.013	7.63
242.229	7.03
242.445	7.9
242.661	7.68
242.877	8.36
243.093	8.53
243.309	8.76
243.525	8.43
243.741	9.07
243.957	8.94
244.173	9.01
244.388	9.27
244.604	9.5
244.82	8.93
245.036	8.78
245.252	8.13
245.468	8.12
245.683	7.64
245.899	7.46
246.115	6.82
246.331	6.9
246.547	6.51
246.762	6.59
246.978	6.38
247.194	6.15
247.409	5.92
247.625	5.84
247.841	5.74
248.057	5.47
248.272	5.52
248.488	5.63
248.703	5.63
248.919	5.91
249.135	5.56
249.35	6.11
249.566	6.44
249.782	7.08
249.997	7.68
250.213	7.38
250.428	8.59
250.644	9.35
250.859	9.97
251.075	9.82
251.29	9.34
251.506	9.66
251.721	8.73
251.937	8.03
252.152	6.84
252.368	6.84
252.583	7.16
252.798	6.69
253.014	6.52
253.229	5.98
253.445	5.96
253.66	6.5
253.875	6.34
254.091	6.57
254.306	6.91
254.521	7.82
254.737	7.47
254.952	8.06
255.167	8.35
255.383	7.78
255.598	8
255.813	7.41
256.028	7.27
256.244	6.8
256.459	6.76
256.674	5.9
256.889	5.58
257.104	5.73
257.32	5.37
257.535	4.42
257.75	3.76
257.965	4.06
258.18	4.35
258.395	4.56
258.61	4.67
258.826	4.81
259.041	4.93
259.256	4.73
259.471	4.7
259.686	4.55
259.901	4.65
260.116	4.91
260.331	4.83
260.546	5.16
260.761	5.26
260.976	5.26
261.191	5.17
261.406	5.34
261.621	5.7
261.836	5.77
262.05	5.97
262.265	6.11
262.48	6.44
262.695	6.26
262.91	5.9
263.125	5.65
263.34	6.02
263.555	6.37
263.769	6.59
263.984	6.53
264.199	6.67
264.414	6.63
264.629	6.75
264.843	6.2
265.058	6.34
265.273	5.98
265.488	6.22
265.702	6.12
265.917	5.93
266.132	5.39
266.346	4.72
266.561	4.46
266.776	4.62
266.99	4.51
267.205	4.8
267.42	4.56
267.634	4.31
267.849	4.2
268.063	4.09
268.278	4.1
268.492	4.49
268.707	4.59
268.922	4.56
269.136	4.4
269.351	4.34
269.565	4.06
269.78	4.34
269.994	4.63
270.209	4.11
270.423	3.59
270.637	3.61
270.852	3.54
271.066	3.88
271.281	4.08
271.495	4.06
271.709	3.66
271.924	3.83
272.138	3.98
272.353	4.01
272.567	3.71
272.781	4.11
272.996	3.77
273.21	3.9
273.424	3.82
273.638	3.46
273.853	3.63
274.067	4.12
274.281	4.39
274.495	4.62
274.71	4.54
274.924	5.35
275.138	5.03
275.352	5.33
275.566	4.82
275.781	4.82
275.995	5.16
276.209	5.15
276.423	5.25
276.637	5.25
276.851	4.64
277.065	4.65
277.279	4.41
277.493	4.59
277.707	4.31
277.921	4.63
278.135	4.46
278.349	4.28
278.563	4.45
278.777	3.98
278.991	3.68
279.205	4.06
279.419	3.84
279.633	3.81
279.847	3.85
280.061	4.2
280.275	4.3
280.489	4.83
280.703	4.65
280.917	4.58
281.131	4.82
281.344	4.67
281.558	4.27
281.772	4.45
281.986	4.32
282.2	4.52
282.414	4.3
282.627	3.94
282.841	3.6
283.055	3.57
283.269	3.17
283.482	3.24
283.696	3.19
283.91	3.21
284.123	3.1
284.337	3.27
284.551	2.98
284.764	3.15
284.978	3.52
285.192	3.62
285.405	3.68
285.619	3.84
285.833	3.93
286.046	4
286.26	4.09
286.473	4.43
286.687	4.27
286.9	4.26
287.114	4.26
287.327	4.21
287.541	4.15
287.754	4.39
287.968	4.27
288.181	4.3
288.395	4.29
288.608	4.52
288.822	4.74
289.035	4.89
289.248	4.79
289.462	4.86
289.675	4.95
289.889	5.21
290.102	4.97
290.315	5.19
290.529	4.92
290.742	4.81
290.955	4.74
291.169	4.51
291.382	4.62
291.595	4.86
291.808	4.85
292.022	4.77
292.235	4.51
292.448	5.03
292.661	5.15
292.875	5.11
293.088	5.26
293.301	5.48
293.514	5.16
293.727	5.28
293.94	5.18
294.153	4.94
294.367	5.1
294.58	4.91
294.793	4.47
295.006	4.27
295.219	4.6
295.432	4.63
295.645	4.58
295.858	4.73
296.071	4.7
296.284	4.84
296.497	4.91
296.71	4.8
296.923	4.98
297.136	4.95
297.349	4.8
297.562	4.87
297.775	4.91
297.988	4.78
298.201	4.92
298.414	4.83
298.626	4.87
298.839	5.03
299.052	4.95
299.265	4.88
299.478	4.76
299.691	5.13
299.903	5.2
300.116	4.92
300.329	5.01
300.542	5.06
300.755	5.08
300.967	5.1
301.18	5.29
301.393	5.32
301.605	5.44
301.818	5.79
302.031	5.53
302.243	5.4
302.456	5.69
302.669	5.71
302.881	5.63
303.094	5.79
303.307	5.74
303.519	5.68
303.732	6.01
303.944	5.95
304.157	6.02
304.37	6.19
304.582	6.28
304.795	6.1
305.007	6.4
305.22	6.57
305.432	6.55
305.645	6.65
305.857	6.64
306.069	6.43
306.282	6.49
306.494	6.36
306.707	6.55
306.919	6.63
307.132	6.92
307.344	6.37
307.556	5.98
307.769	5.82
307.981	5.69
308.193	5.59
308.406	5.87
308.618	6.21
308.83	6.49
309.043	6.33
309.255	6.4
309.467	6.47
309.679	7.15
309.892	7.39
310.104	7.14
310.316	7.07
310.528	7.26
310.74	7.16
310.953	6.85
311.165	6.94
311.377	6.87
311.589	6.95
311.801	6.9
312.013	6.58
312.225	6.53
312.437	7.02
312.649	7.32
312.862	7.3
313.074	7.6
313.286	7.84
313.498	7.99
313.71	8.44
313.922	8.18
314.134	8.19
314.346	8.56
314.558	8.79
314.77	8.74
314.982	9.1
315.193	9.21
315.405	9.43
315.617	9.67
315.829	9.32
316.041	9.41
316.253	9.43
316.465	9.53
316.677	9.06
316.888	8.94
317.1	9.31
317.312	9.14
317.524	9.2
317.736	9.06
317.947	8.88
318.159	9.27
318.371	9.06
318.583	9.24
318.794	9.32
319.006	9.76
319.218	9.69
319.43	8.93
319.641	8.8
319.853	8.32
320.064	7.96
320.276	7.94
320.488	7.92
320.699	7.93
320.911	7.84
321.123	7.99
321.334	7.64
321.546	7.9
321.757	8.77
321.969	8.95
322.18	9.43
322.392	9.3
322.603	9.4
322.815	9.08
323.026	9.36
323.238	9.52
323.449	9.89
323.661	10.11
323.872	10.12
324.083	9.82
324.295	9.75
324.506	9.88
324.718	10.17
324.929	10.26
325.14	10.53
325.352	10.44
325.563	10.59
325.774	10.39
325.986	10.5
326.197	10.17
326.408	10.35
326.62	10.31
326.831	10.35
327.042	10.81
327.253	10.83
327.464	11.09
327.676	10.96
327.887	10.8
328.098	10.68
328.309	10.71
328.52	11.22
328.732	11.23
328.943	11.16
329.154	11.03
329.365	10.85
329.576	10.78
329.787	10.69
329.998	11.22
330.209	11.27
330.42	11.66
330.631	11.62
330.842	11.92
331.053	12.07
331.264	12.38
331.475	12.69
331.686	12.51
331.897	12.77
332.108	12.91
332.319	12.71
332.53	12.44
332.741	12.19
332.952	12.32
333.163	11.78
333.374	11.77
333.585	12.04
333.795	12.2
334.006	12.2
334.217	12.2
334.428	12
334.639	12.11
334.849	12.68
335.06	12.88
335.271	12.68
335.482	13.04
335.692	13.02
335.903	12.74
336.114	12.28
336.325	12.33
336.535	12.27
336.746	12.38
336.957	12.48
337.167	12.74
337.378	12.76
337.589	12.85
337.799	12.81
338.01	12.69
338.22	12.71
338.431	12.99
338.642	13.18
338.852	13.23
339.063	13.26
339.273	12.89
339.484	12.63
339.694	12.7
339.905	12.69
340.115	12.9
340.326	13.11
340.536	13.26
340.746	13.07
340.957	12.76
341.167	13.04
341.378	13.08
341.588	13.44
341.799	13.53
342.009	13.32
342.219	13.51
342.43	13.41
342.64	13.32
342.85	13.27
343.061	13.38
343.271	13.76
343.481	13.53
343.691	13.27
343.902	13.2
344.112	13.09
344.322	13.01
344.532	12.51
344.743	12.35
344.953	12.21
345.163	12.21
345.373	12.26
345.583	12.07
345.793	11.91
346.004	11.99
346.214	12.21
346.424	12.4
346.634	12.69
346.844	13.16
347.054	12.92
347.264	13.06
347.474	13.32
347.684	13.32
347.894	13.2
348.104	13.35
348.314	13.41
348.524	13.17
348.734	12.63
348.944	12.32
349.154	12.28
349.364	12.5
349.574	12.26
349.784	12.09
349.994	12.1
350.204	12.04
350.413	12.04
350.623	11.91
350.833	11.82
351.043	11.93
351.253	11.98
351.463	11.9
351.672	12.04
351.882	12.3
352.092	12.1
352.302	11.72
352.511	11.84
352.721	11.68
352.931	11.73
353.141	11.94
353.35	11.84
353.56	11.76
353.77	11.85
353.979	11.68
354.189	11.69
354.399	11.77
354.608	11.82
354.818	11.76
355.027	11.9
355.237	11.96
355.447	11.63
355.656	11.86
355.866	11.99
356.075	11.77
356.285	11.8
356.494	11.77
356.704	11.64
356.913	11.86
357.123	11.84
357.332	11.87
357.542	11.87
357.751	11.84
357.96	11.82
358.17	11.73
358.379	11.84
358.589	11.65
358.798	11.67
359.007	11.79
359.217	11.77
359.426	11.66
359.635	11.6
359.845	11.5
360.054	11.49
360.263	11.23
360.472	11.25
360.682	11.15
360.891	11.32
361.1	11.15
361.309	11.02
361.519	11.01
361.728	10.92
361.937	11.01
362.146	11.02
362.355	11.09
362.564	11.2
362.774	11.3
362.983	11.36
363.192	11.26
363.401	11.44
363.61	11.56
363.819	11.28
364.028	11.56
364.237	11.31
364.446	11.26
364.655	11.26
364.864	11.28
365.073	11.09
365.282	11.06
365.491	10.89
365.7	10.92
365.909	10.85
366.118	10.88
366.327	10.63
366.536	10.7
366.745	10.73
366.954	10.76
367.162	10.95
367.371	10.78
367.58	10.66
367.789	10.79
367.998	10.57
368.207	10.37
368.415	10.78
368.624	10.85
368.833	10.69
369.042	10.43
369.25	10.46
369.459	10.34
369.668	10.49
369.877	10.58
370.085	10.62
370.294	10.47
370.503	10.38
370.711	10.16
370.92	9.99
371.129	10.26
371.337	10.2
371.546	9.68
371.754	9.65
371.963	9.57
372.171	9.47
372.38	9.29
372.589	9.48
372.797	9.65
373.006	9.61
373.214	9.62
373.423	9.43
373.631	9.72
373.84	10.03
374.048	9.84
374.256	9.94
374.465	9.91
374.673	10.03
374.882	9.87
375.09	9.67
375.298	9.58
375.507	9.48
375.715	9.56
375.923	9.38
376.132	9.27
376.34	9.09
376.548	9.21
376.757	9.1
376.965	9.02
377.173	9.03
377.381	9.22
377.59	9.21
377.798	9.27
378.006	9.09
378.214	9.06
378.423	9.1
378.631	9.24
378.839	8.95
379.047	8.99
379.255	9.08
379.463	8.9
379.671	8.61
379.879	8.5
380.088	8.47
380.296	8.48
380.504	8.41
380.712	8.32
380.92	8.43
381.128	8.38
381.336	8.24
381.544	7.82
381.752	7.99
381.96	8.04
382.168	7.82
382.376	7.9
382.584	7.81
382.791	7.93
382.999	7.93
383.207	7.82
383.415	8
383.623	8.02
383.831	8.1
384.039	7.96
384.247	8.13
384.454	8.46
384.662	8.24
384.87	8.29
385.078	8.12
385.285	8.28
385.493	8.05
385.701	7.78
385.909	7.73
386.116	7.86
386.324	7.77
386.532	7.61
386.739	7.44
386.947	7.78
387.155	7.69
387.362	7.84
387.57	7.53
387.778	7.5
387.985	7.46
388.193	7.46
388.4	7.42
388.608	7.44
388.816	7.29
389.023	7.21
389.231	6.7
389.438	6.65
389.646	6.47
389.853	6.49
390.061	6.73
390.268	6.67
390.475	6.61
390.683	6.57
390.89	6.42
391.098	6.46
391.305	6.48
391.512	6.68
391.72	6.63
391.927	6.62
392.135	6.69
392.342	6.62
392.549	6.56
392.756	6.61
392.964	6.68
393.171	6.77
393.378	6.7
393.586	6.8
393.793	6.58
394	6.48
394.207	6.39
394.414	6.22
394.622	6.08
394.829	6.27
395.036	6.07
395.243	5.88
395.45	5.72
395.657	5.78
395.864	5.55
396.072	5.91
396.279	5.82
396.486	5.78
396.693	5.81
396.9	5.81
397.107	5.83
397.314	5.94
397.521	5.87
397.728	5.89
397.935	5.81
398.142	5.83
398.349	5.69
398.556	5.69
398.763	5.76
398.97	5.82
399.177	5.7
399.383	5.5
399.59	5.49
399.797	5.74
400.004	5.88
400.211	5.86
400.418	5.59
400.625	5.3
400.831	5.42
401.038	5.3
401.245	5.08
401.452	5.18
401.658	5.36
401.865	5.34
402.072	5.11
402.279	5
402.485	5.01
402.692	5.26
402.899	5.36
403.105	5.23
403.312	5.37
403.519	5.31
403.725	5.28
403.932	5.11
404.138	5.06
404.345	5.07
404.552	5.15
404.758	5.09
404.965	4.95
405.171	4.89
405.378	5.02
405.584	4.94
405.791	5.01
405.997	5.03
406.204	5.19
406.41	5.14
406.617	5.07
406.823	4.99
407.029	4.99
407.236	5.07
407.442	5.07
407.649	4.96
407.855	5.03
408.061	5.14
408.268	5.04
408.474	4.82
408.68	4.88
408.887	4.85
409.093	4.85
409.299	4.87
409.505	4.95
409.712	5
409.918	5.02
410.124	4.81
410.33	4.69
410.537	4.75
410.743	4.81
410.949	4.85
411.155	4.91
411.361	4.68
411.567	4.65
411.773	4.63
411.98	4.61
412.186	4.42
412.392	4.51
412.598	4.6
412.804	4.53
413.01	4.54
413.216	4.34
413.422	4.28
413.628	4.44
413.834	4.41
414.04	4.22
414.246	4.17
414.452	4.27
414.658	4.28
414.864	4.19
415.07	4.14
415.275	4.2
415.481	4.18
415.687	4.24
415.893	4.28
416.099	4.42
416.305	4.39
416.511	4.29
416.716	4.33
416.922	4.22
417.128	4.22
417.334	4.21
417.539	4.1
417.745	4.16
417.951	4.07
418.157	4.07
418.362	3.96
418.568	4.01
418.774	4
418.979	4.04
419.185	4.05
419.391	4.05
419.596	4.05
419.802	4.05
420.008	4.04
420.213	4.68
420.419	4.59
420.624	4.57
420.83	4.61
421.035	4.65
421.241	4.61
421.446	4.6
421.652	4.57
421.857	4.55
422.063	4.56
422.268	4.56
422.474	3.95
422.679	3.98
422.885	3.92
423.09	3.82
423.295	3.77
423.501	3.69
423.706	3.69
423.911	3.59
424.117	3.63
424.322	3.62
424.527	3.52
424.733	3.51
424.938	3.53
425.143	3.58
425.349	3.62
425.554	3.64
425.759	3.61
425.964	3.61
426.169	3.69
426.375	3.68
426.58	3.6
426.785	3.72
426.99	3.82
427.195	3.82
427.4	3.83
427.605	3.76
427.811	3.7
428.016	3.89
428.221	3.83
428.426	3.79
428.631	3.75
428.836	3.65
429.041	3.6
429.246	3.56
429.451	3.47
429.656	3.41
429.861	3.42
430.066	3.61
430.271	3.42
430.476	3.43
430.681	3.52
430.886	3.44
431.09	3.61
431.295	3.58
431.5	3.59
431.705	3.55
431.91	3.64
432.115	3.71
432.32	3.67
432.524	3.89
432.729	3.93
432.934	3.96
433.139	4.07
433.343	4.02
433.548	4
433.753	3.91
433.958	3.96
434.162	3.99
434.367	3.98
434.572	3.86
434.776	3.73
434.981	3.7
435.186	3.66
435.39	3.69
435.595	3.61
435.799	3.65
436.004	3.59
436.209	3.58
436.413	3.56
436.618	3.56
436.822	3.56
437.027	3.63
437.231	3.71
437.436	3.71
437.64	3.62
437.845	3.69
438.049	3.8
438.253	3.81
438.458	3.76
438.662	3.7
438.867	3.7
439.071	3.69
439.275	3.65
439.48	3.61
439.684	3.59
439.888	3.66
440.093	3.63
440.297	3.55
440.501	3.6
440.706	3.64
440.91	3.58
441.114	3.63
441.318	3.64
441.523	3.65
441.727	3.67
441.931	3.58
442.135	3.54
442.339	3.6
442.543	3.68
442.748	3.76
442.952	3.8
443.156	3.91
443.36	3.85
443.564	3.84
443.768	3.77
443.972	3.73
444.176	3.81
444.38	3.87
444.584	3.82
444.788	3.82
444.992	3.76
445.196	3.77
445.4	3.66
445.604	3.6
445.808	3.64
446.012	3.7
446.216	3.73
446.42	3.77
446.624	3.71
446.828	3.7
447.032	3.71
447.235	3.62
447.439	3.59
447.643	3.66
447.847	3.68
448.051	3.66
448.254	3.54
448.458	3.55
448.662	3.51
448.866	3.44
449.069	3.51
449.273	3.43
449.477	3.42
449.681	3.34
449.884	3.26
450.088	3.27
450.292	3.23
450.495	3.3
450.699	3.22
450.902	3.17
451.106	3.25
451.31	3.14
451.513	3.08
451.717	3.07
451.92	3.08
452.124	3.13
452.327	3.16
452.531	3.18
452.734	3.3
452.938	3.24
453.141	3.31
453.345	3.22
453.548	3.35
453.752	3.42
453.955	3.59
454.158	3.56
454.362	3.57
454.565	3.61
454.769	3.65
454.972	3.57
455.175	3.62
455.379	3.57
455.582	3.64
455.785	3.51
455.988	3.53
456.192	3.37
456.395	3.38
456.598	3.36
456.801	3.24
457.005	3.11
457.208	3.11
457.411	3.15
457.614	3.15
457.817	3.08
458.021	3.1
458.224	3.09
458.427	3.09
458.63	3.15
458.833	3.19
459.036	3.18
459.239	3.3
459.442	3.28
459.645	3.28
459.848	3.32
460.051	3.41
460.254	3.44
460.457	3.44
460.66	3.47
460.863	3.43
461.066	3.33
461.269	3.42
461.472	3.31
461.675	3.34
461.878	3.3
462.081	3.35
462.284	3.26
462.486	3.28
462.689	3.28
462.892	3.19
463.095	3.27
463.298	3.38
463.5	3.33
463.703	3.45
463.906	3.46
464.109	3.43
464.311	3.39
464.514	3.5
464.717	3.54
464.92	3.55
465.122	3.8
465.325	3.8
465.528	3.74
465.73	3.82
465.933	3.83
466.135	3.86
466.338	3.96
466.541	3.79
466.743	3.74
466.946	3.67
467.148	3.69
467.351	3.64
467.553	3.59
467.756	3.63
467.958	3.52
468.161	3.49
468.363	3.49
468.566	3.44
468.768	3.5
468.971	3.58
469.173	3.53
469.375	3.56
469.578	3.6
469.78	3.73
469.983	3.8
470.185	3.94
470.387	4.04
470.59	4.05
470.792	4.03
470.994	4.1
471.196	4.12
471.399	4.12
471.601	4.07
471.803	4.06
472.005	3.97
472.208	3.82
472.41	3.78
472.612	3.69
472.814	3.81
473.016	3.92
473.218	3.87
473.421	3.81
473.623	3.86
473.825	3.82
474.027	3.68
474.229	3.76
474.431	3.82
474.633	3.81
474.835	3.78
475.037	3.6
475.239	3.55
475.441	3.53
475.643	3.55
475.845	3.49
476.047	3.49
476.249	3.5
476.451	3.47
476.653	3.55
476.855	3.59
477.057	3.54
477.258	3.56
477.46	3.55
477.662	3.6
477.864	3.68
478.066	3.66
478.268	3.66
478.469	3.63
478.671	3.64
478.873	3.58
479.075	3.51
479.276	3.57
479.478	3.57
479.68	3.5
479.882	3.36
480.083	3.28
480.285	3.36
480.487	3.46
480.688	3.46
480.89	3.39
481.091	3.41
481.293	3.42
481.495	3.37
481.696	3.37
481.898	3.39
482.099	3.42
482.301	3.43
482.502	3.41
482.704	3.35
482.905	3.38
483.107	3.41
483.308	3.38
483.51	3.37
483.711	3.38
483.913	3.39
484.114	3.38
484.315	3.42
484.517	3.41
484.718	3.4
484.92	3.41
485.121	3.39
485.322	3.39
485.524	3.42
485.725	3.42
485.926	3.45
486.127	3.47
486.329	3.48
486.53	3.44
486.731	3.44
486.932	3.45
487.134	3.46
487.335	3.49
487.536	3.5
487.737	3.51
487.938	3.53
488.139	3.52
488.341	3.49
488.542	3.52
488.743	3.53
488.944	3.51
489.145	3.51
489.346	3.54
489.547	3.54
489.748	3.51
489.949	3.48
490.15	3.47
490.351	3.44
490.552	3.44
490.753	3.41
490.954	3.43
491.155	3.5
491.356	3.5
491.557	3.48
491.758	3.45
491.959	3.49
492.159	3.55
492.36	3.58
492.561	3.6
492.762	3.65
492.963	3.64
493.164	3.66
493.364	3.63
493.565	3.64
493.766	3.67
493.967	3.75
494.167	3.72
494.368	3.68
494.569	3.69
494.769	3.73
494.97	3.67
495.171	3.74
495.371	3.72
495.572	3.75
495.773	3.76
495.973	3.73
496.174	3.68
496.375	3.77
496.575	3.76
496.776	3.84
496.976	3.83
497.177	3.87
497.377	3.93
497.578	3.96
497.778	4
497.979	4.02
498.179	4.05
498.38	4.09
498.58	4.06
498.78	4.06
498.981	3.94
499.181	3.95
499.382	4
499.582	4
499.782	4.09
499.983	4
500.183	3.99
500.383	4.02
500.584	4.08
500.784	4.14
500.984	4.19
501.184	4.31
501.385	4.42
501.585	4.37
501.785	4.39
501.985	4.32
502.185	4.38
502.386	4.47
502.586	4.51
502.786	4.56
502.986	4.6
503.186	4.68
503.386	4.67
503.586	4.6
503.786	4.68
503.987	4.69
504.187	4.84
504.387	4.82
504.587	4.86
504.787	4.87
504.987	4.86
505.187	4.93
505.387	4.87
505.587	4.98
505.786	5.07
505.986	5.1
506.186	5.11
506.386	5.12
506.586	5.13
506.786	5.07
506.986	5.12
507.186	5.19
507.386	5.12
507.585	5.24
507.785	5.24
507.985	5.33
508.185	5.38
508.384	5.42
508.584	5.44
508.784	5.63
508.984	5.72
509.183	5.8
509.383	5.85
509.583	5.91
509.782	5.91
509.982	5.97
510.182	6.02
510.381	6.1
510.581	6.22
510.781	6.32
510.98	6.3
511.18	6.43
511.379	6.47
511.579	6.49
511.778	6.48
511.978	6.58
512.177	6.7
512.377	6.66
512.576	6.74
512.776	6.69
512.975	6.71
513.175	6.74
513.374	6.78
513.573	6.85
513.773	6.86
513.972	7.03
514.172	6.99
514.371	6.97
514.57	7.01
514.77	6.97
514.969	7.21
515.168	7.31
515.367	7.42
515.567	7.5
515.766	7.54
515.965	7.75
516.164	7.81
516.364	7.88
516.563	7.99
516.762	8.18
516.961	8.31
517.16	8.3
517.359	8.36
517.559	8.43
517.758	8.43
517.957	8.47
518.156	8.48
518.355	8.56
518.554	8.67
518.753	8.78
518.952	8.81
519.151	8.87
519.35	8.94
519.549	8.96
519.748	9.03
519.947	9.14
520.146	9.21
520.345	9.32
520.544	9.35
520.743	9.42
520.942	9.47
521.141	9.5
521.339	9.57
521.538	9.63
521.737	9.74
521.936	9.79
522.135	9.92
522.333	10.01
522.532	10.11
522.731	10.22
522.93	10.29
523.129	10.39
523.327	10.46
523.526	10.56
523.725	10.65
523.923	10.78
524.122	10.86
524.321	10.9
524.519	10.98
524.718	10.99
524.917	11.04
525.115	11.06
525.314	11.11
525.512	11.25
525.711	11.29
525.909	11.38
526.108	11.36
526.306	11.42
526.505	11.46
526.703	11.51
526.902	11.59
527.1	11.68
527.299	11.77
527.497	11.82
527.696	11.84
527.894	11.87
528.092	11.91
528.291	11.98
528.489	12.03
528.688	12.1
528.886	12.18
529.084	12.21
529.283	12.23
529.481	12.28
529.679	12.31
529.877	12.4
530.076	12.5
530.274	12.54
530.472	12.6
530.67	12.69
530.869	12.75
531.067	12.79
531.265	12.93
531.463	13
531.661	13.12
531.859	13.21
532.057	13.3
532.255	13.35
532.454	13.47
532.652	13.57
532.85	13.64
533.048	13.7
533.246	13.79
533.444	13.85
533.642	13.92
533.84	13.95
534.038	14
534.236	13.97
534.434	14.06
534.632	14.06
534.83	14.09
535.027	14.13
535.225	14.22
535.423	14.3
535.621	14.4
535.819	14.48
536.017	14.53
536.215	14.67
536.412	14.85
536.61	14.92
536.808	14.99
537.006	15.11
537.203	15.12
537.401	15.21
537.599	15.24
537.797	15.26
537.994	15.31
538.192	15.44
538.39	15.46
538.587	15.52
538.785	15.64
538.983	15.78
539.18	15.85
539.378	16
539.575	16.14
539.773	16.21
539.97	16.34
540.168	16.43
540.366	16.46
540.563	16.54
540.761	16.54
540.958	16.56
541.155	16.6
541.353	16.7
541.55	16.76
541.748	16.75
541.945	16.84
542.143	16.89
542.34	16.97
542.537	17.07
542.735	17.16
542.932	17.25
543.129	17.34
543.327	17.46
543.524	17.57
543.721	17.73
543.919	17.87
544.116	18.05
544.313	18.22
544.51	18.37
544.708	18.52
544.905	18.61
545.102	18.78
545.299	18.95
545.496	19.03
545.693	19.09
545.891	19.11
546.088	19.17
546.285	19.11
546.482	19.12
546.679	19.12
546.876	19.14
547.073	19.15
547.27	19.19
547.467	19.2
547.664	19.23
547.861	19.16
548.058	19.22
548.255	19.2
548.452	19.25
548.649	19.28
548.846	19.33
549.043	19.36
549.24	19.42
549.437	19.45
549.633	19.43
549.83	19.5
550.027	19.62
550.224	19.45
550.421	19.7
550.618	19.83
550.814	19.78
551.011	19.79
551.208	19.88
551.405	19.9
551.601	19.89
551.798	19.99
551.995	19.98
552.191	19.97
552.388	20.15
552.585	19.99
552.781	20
552.978	20.07
553.175	20.1
553.371	20.13
553.568	20.25
553.764	20.31
553.961	20.24
554.157	20.25
554.354	20.35
554.55	20.37
554.747	20.42
554.943	20.42
555.14	20.42
555.336	20.54
555.533	20.42
555.729	20.4
555.926	20.5
556.122	20.57
556.318	20.67
556.515	20.7
556.711	20.8
556.907	20.93
557.104	20.91
557.3	21.01
557.496	21.06
557.693	21.28
557.889	21.24
558.085	21.26
558.281	21.38
558.478	21.44
558.674	21.43
558.87	21.38
559.066	21.41
559.262	21.55
559.459	21.58
559.655	21.68
559.851	21.72
560.047	21.81
560.243	21.9
560.439	21.94
560.635	22
560.831	22.12
561.027	22.2
561.223	22.29
561.419	22.29
561.615	22.31
561.811	22.27
562.007	22.24
562.203	22.23
562.399	22.18
562.595	22.18
562.791	22.18
562.987	22.17
563.183	22.31
563.379	22.3
563.575	22.38
563.771	22.5
563.966	22.66
564.162	22.65
564.358	22.82
564.554	23.03
564.75	23.13
564.945	23.22
565.141	23.27
565.337	23.36
565.533	23.42
565.728	23.51
565.924	23.55
566.12	23.45
566.315	23.58
566.511	23.68
566.707	23.63
566.902	23.6
567.098	23.68
567.293	23.81
567.489	23.79
567.684	23.84
567.88	23.76
568.076	23.73
568.271	23.78
568.467	23.74
568.662	23.69
568.858	23.77
569.053	23.88
569.248	23.91
569.444	23.86
569.639	23.86
569.835	23.87
570.03	23.96
570.225	23.98
570.421	24.06
570.616	24.08
570.812	24.14
571.007	24.06
571.202	24.11
571.397	24.05
571.593	24.14
571.788	24.16
571.983	24.12
572.178	24.19
572.374	24.27
572.569	24.22
572.764	24.3
572.959	24.27
573.154	24.45
573.35	24.42
573.545	24.58
573.74	24.52
573.935	24.5
574.13	24.62
574.325	24.6
574.52	24.68
574.715	24.81
574.91	24.77
575.105	24.87
575.3	24.79
575.495	24.79
575.69	24.74
575.885	24.75
576.08	24.83
576.275	24.95
576.47	24.95
576.665	24.95
576.86	25.04
577.055	25.25
577.25	25.33
577.444	25.44
577.639	25.58
577.834	25.71
578.029	25.87
578.224	26.01
578.418	25.93
578.613	26.23
578.808	26.34
579.003	26.37
579.197	26.29
579.392	26.38
579.587	26.47
579.781	26.56
579.976	26.53
580.171	26.57
580.365	26.55
580.56	26.7
580.755	26.61
580.949	26.6
581.144	26.67
581.338	26.75
581.533	26.69
581.727	26.76
581.922	26.74
582.116	26.87
582.311	26.94
582.505	27
582.7	27.11
582.894	27.01
583.089	27
583.283	27
583.478	27.07
583.672	27.04
583.866	26.96
584.061	26.92
584.255	26.87
584.449	26.93
584.644	27.04
584.838	27.02
585.032	27.28
585.226	27.42
585.421	27.53
585.615	27.58
585.809	27.71
586.003	27.9
586.198	28.06
586.392	28.2
586.586	28.24
586.78	28.21
586.974	28.15
587.168	28
587.363	27.97
587.557	27.95
587.751	27.9
587.945	27.95
588.139	27.91
588.333	27.89
588.527	27.71
588.721	27.71
588.915	27.61
589.109	27.6
589.303	27.66
589.497	27.62
589.691	27.55
589.885	27.68
590.079	27.77
590.273	27.7
590.466	27.63
590.66	27.65
590.854	27.64
591.048	27.88
591.242	27.97
591.436	28.23
591.629	28.33
591.823	28.48
592.017	28.49
592.211	28.49
592.404	28.57
592.598	28.74
592.792	28.79
592.986	28.83
593.179	28.72
593.373	28.76
593.567	28.6
593.76	28.54
593.954	28.48
594.147	28.41
594.341	28.3
594.535	28.34
594.728	28.35
594.922	28.37
595.115	28.35
595.309	28.4
595.502	28.41
595.696	28.37
595.889	28.39
596.083	28.44
596.276	28.47
596.47	28.5
596.663	28.43
596.856	28.43
597.05	28.55
597.243	28.58
597.437	28.53
597.63	28.54
597.823	28.66
598.017	28.79
598.21	28.83
598.403	28.85
598.596	28.95
598.79	29.01
598.983	29.04
599.176	29.08
599.369	29.03
599.563	29.17
599.756	29.33
599.949	29.18
600.142	29.17
600.335	29.18
600.528	29.27
600.722	29.15
600.915	29.13
601.108	29.04
601.301	29.07
601.494	29.19
601.687	29.23
601.88	29
602.073	29.05
602.266	28.99
602.459	28.75
602.652	28.67
602.845	28.8
603.038	28.78
603.231	28.82
603.424	28.74
603.617	28.74
603.809	28.68
604.002	28.77
604.195	28.78
604.388	28.79
604.581	28.94
604.774	29.05
604.966	28.89
605.159	29.06
605.352	29.03
605.545	29.04
605.737	29.05
605.93	29.06
606.123	29.05
606.316	29.25
606.508	29.43
606.701	29.45
606.894	29.42
607.086	29.72
607.279	29.67
607.471	29.84
607.664	29.99
607.857	30.13
608.049	30.6
608.242	30.9
608.434	31.25
608.627	31.61
608.819	32.29
609.012	33.01
609.204	33.72
609.397	34.55
609.589	35.36
609.782	36.3
609.974	37.14
610.166	37.94
610.359	38.97
610.551	39.79
610.743	40.6
610.936	41.11
611.128	41.58
611.32	41.86
611.513	42.07
611.705	42.19
611.897	42.06
612.09	42
612.282	41.58
612.474	41.11
612.666	40.6
612.858	39.99
613.051	39.61
613.243	39.03
613.435	38.65
613.627	38.14
613.819	37.98
614.011	37.61
614.203	37.24
614.395	36.77
614.588	36.36
614.78	35.97
614.972	35.74
615.164	35.2
615.356	34.99
615.548	34.6
615.74	34.29
615.932	33.64
616.124	33.31
616.315	32.95
616.507	32.89
616.699	32.56
616.891	32.33
617.083	31.93
617.275	31.94
617.467	31.62
617.659	31.5
617.85	31.32
618.042	31.37
618.234	31.29
618.426	31.26
618.618	31.06
618.809	31.08
619.001	30.95
619.193	30.95
619.384	30.82
619.576	30.85
619.768	30.81
619.959	30.85
620.151	30.69
620.343	30.9
620.534	30.73
620.726	30.79
620.917	30.78
621.109	30.86
621.301	31.17
621.492	31.31
621.684	31.4
621.875	31.54
622.067	31.49
622.258	31.45
622.45	31.36
622.641	31.62
622.832	31.79
623.024	31.91
623.215	31.96
623.407	31.79
623.598	31.9
623.789	32.03
623.981	31.98
624.172	32.09
624.363	32.35
624.555	32.23
624.746	32.08
624.937	31.93
625.129	31.84
625.32	31.89
625.511	31.84
625.702	31.66
625.893	31.47
626.085	31.35
626.276	31.24
626.467	31.15
626.658	31.19
626.849	31.26
627.04	31.32
627.231	31.26
627.422	31.19
627.614	31.26
627.805	31.35
627.996	31.47
628.187	31.56
628.378	31.68
628.569	31.86
628.76	31.97
628.951	32.12
629.142	32.3
629.332	32.44
629.523	32.53
629.714	32.59
629.905	32.67
630.096	32.71
630.287	32.7
630.478	32.67
630.669	32.53
630.859	32.38
631.05	32.43
631.241	32.2
631.432	32.04
631.623	32.11
631.813	32.08
632.004	31.97
632.195	31.68
632.385	31.68
632.576	31.59
632.767	31.36
632.957	31.3
633.148	30.94
633.339	30.82
633.529	30.85
633.72	30.52
633.91	30.48
634.101	30.48
634.292	30.51
634.482	30.27
634.673	30.27
634.863	30.34
635.054	30.36
635.244	30.52
635.435	30.62
635.625	30.73
635.815	30.87
636.006	30.79
636.196	30.58
636.387	30.75
636.577	30.86
636.767	30.95
636.958	30.95
637.148	31.08
637.338	30.97
637.529	30.86
637.719	30.67
637.909	30.72
638.099	30.72
638.29	30.96
638.48	30.9
638.67	30.98
638.86	30.8
639.05	30.71
639.241	30.76
639.431	30.73
639.621	30.83
639.811	31.04
640.001	31.09
640.191	31.01
640.381	30.86
640.571	30.7
640.761	30.69
640.951	30.87
641.141	30.99
641.331	30.99
641.521	30.91
641.711	30.77
641.901	30.53
642.091	30.46
642.281	30.7
642.471	30.6
642.661	30.82
642.851	30.92
643.041	30.86
643.231	30.72
643.42	30.48
643.61	30.66
643.8	30.92
643.99	31.08
644.18	31.06
644.369	30.81
644.559	31.01
644.749	30.92
644.939	30.71
645.128	30.78
645.318	31.03
645.508	31.17
645.697	31.23
645.887	31.05
646.076	30.98
646.266	30.92
646.456	31.22
646.645	31.35
646.835	31.43
647.024	31.54
647.214	31.37
647.403	31.27
647.593	31.49
647.782	31.69
647.972	31.74
648.161	32.02
648.351	32.25
648.54	32.04
648.73	32.07
648.919	32.08
649.108	32.26
649.298	32.51
649.487	32.62
649.677	32.56
649.866	32.41
650.055	32.46
650.244	32.25
650.434	32.13
650.623	32.3
650.812	32.23
651.002	32.24
651.191	32.28
651.38	32.13
651.569	32.01
651.758	31.96
651.947	31.82
652.137	31.78
652.326	31.82
652.515	31.91
652.704	31.83
652.893	31.7
653.082	31.83
653.271	31.66
653.46	31.79
653.649	31.73
653.838	31.66
654.027	31.84
654.216	31.95
654.405	31.88
654.594	31.83
654.783	31.85
654.972	32.11
655.161	32.16
655.35	32.21
655.539	32.13
655.728	32.14
655.916	31.96
656.105	31.82
656.294	31.69
656.483	31.64
656.672	31.74
656.86	31.71
657.049	31.49
657.238	31.28
657.427	31.14
657.615	31.23
657.804	31.27
657.993	31.32
658.181	31.37
658.37	31.35
658.559	31.4
658.747	31.26
658.936	31.33
659.125	31.39
659.313	31.31
659.502	31.3
659.69	31.3
659.879	31.4
660.067	31.38
660.256	31.27
660.444	31.3
660.633	31.26
660.821	31.29
661.01	31.31
661.198	31.28
661.387	31.47
661.575	31.7
661.763	31.63
661.952	31.6
662.14	31.78
662.328	31.82
662.517	31.97
662.705	31.96
662.893	32.17
663.082	32.1
663.27	32.06
663.458	32.1
663.646	31.9
663.834	31.74
664.023	31.78
664.211	32.02
664.399	32.09
664.587	31.96
664.775	32.22
664.963	32.28
665.152	32.45
665.34	32.58
665.528	32.43
665.716	32.74
665.904	32.92
666.092	32.8
666.28	32.5
666.468	32.58
666.656	32.76
666.844	32.61
667.032	32.24
667.22	32.03
667.408	32.03
667.596	32.18
667.784	32.15
667.971	32.23
668.159	32.31
668.347	32.43
668.535	32.15
668.723	32.03
668.911	32.31
669.098	32.68
669.286	32.79
669.474	32.74
669.662	32.62
669.849	32.53
670.037	32.42
670.225	32.58
670.413	32.49
670.6	32.59
670.788	32.82
670.976	32.69
671.163	32.56
671.351	32.49
671.538	32.52
671.726	32.57
671.913	32.46
672.101	32.7
672.289	32.64
672.476	32.66
672.664	32.71
672.851	32.53
673.039	32.44
673.226	32.18
673.413	32.27
673.601	32.21
673.788	32.2
673.976	32.36
674.163	32.12
674.35	32.21
674.538	32.24
674.725	32.34
674.912	32.46
675.1	32.49
675.287	32.67
675.474	32.6
675.662	32.51
675.849	32.52
676.036	32.39
676.223	32.64
676.411	32.55
676.598	32.69
676.785	32.74
676.972	32.84
677.159	32.83
677.346	32.79
677.533	32.87
677.721	32.99
677.908	32.86
678.095	32.79
678.282	32.72
678.469	32.69
678.656	32.53
678.843	32.57
679.03	32.29
679.217	32.47
679.404	32.49
679.591	32.21
679.778	32.3
679.964	32.4
680.151	32.42
680.338	32.28
680.525	32.34
680.712	32.49
680.899	32.69
681.086	33.04
681.272	32.9
681.459	33.03
681.646	33.26
681.833	33.14
682.02	33.22
682.206	33.18
682.393	33.28
682.58	33.32
682.766	33.27
682.953	33.25
683.14	32.93
683.326	33.04
683.513	33
683.7	33.11
683.886	33.21
684.073	33.27
684.259	33.41
684.446	33.5
684.632	33.37
684.819	33.26
685.005	33.21
685.192	33.12
685.378	33.03
685.565	33.23
685.751	33.05
685.938	33.17
686.124	33.38
686.31	33.56
686.497	33.81
686.683	34.09
686.87	34.16
687.056	34
687.242	34.13
687.429	34.23
687.615	33.99
687.801	34.09
687.987	34.15
688.174	33.89
688.36	33.88
688.546	33.69
688.732	33.33
688.918	33.58
689.105	33.48
689.291	33.25
689.477	33.05
689.663	33.23
689.849	33.33
690.035	33.19
690.221	33.29
690.407	33.35
690.593	33.2
690.779	33.37
690.965	33.2
691.151	33.39
691.337	33.99
691.523	34.07
691.709	34.16
691.895	34.12
692.081	34.08
692.267	34.05
692.453	33.99
692.639	33.88
692.825	34.2
693.011	34.04
693.196	34.11
693.382	33.84
693.568	33.82
693.754	33.95
693.94	33.78
694.125	34.16
694.311	33.95
694.497	33.69
694.682	33.64
694.868	33.43
695.054	33.47
695.239	33.26
695.425	33.22
695.611	33.26
695.796	32.99
695.982	33.21
696.168	33.04
696.353	33
696.539	33.03
696.724	33.19
696.91	33.06
697.095	33.23
697.281	33.25
697.466	33.11
697.652	33.13
697.837	33.07
698.023	32.86
698.208	32.63
698.393	32.62
698.579	32.76
698.764	32.55
698.949	32.66
699.135	32.4
699.32	32.55
699.505	32.67
699.691	32.5
699.876	32.56
700.061	32.73
700.246	32.84
700.432	32.98
700.617	32.97
700.802	33.33
700.987	33.28
701.172	32.95
701.358	32.83
701.543	32.75
701.728	32.84
701.913	32.89
702.098	32.96
702.283	33
702.468	33.2
702.653	33.19
702.838	33.19
703.023	33.6
703.208	34.56
703.393	34.44
703.578	34.76
703.763	35.27
703.948	35.29
704.133	35.35
704.318	35.53
704.503	35.64
704.688	36.35
704.873	36.23
705.057	36.39
705.242	36.41
705.427	37.01
705.612	36.91
705.797	36.69
705.981	37.19
706.166	37.26
706.351	37.69
706.536	37.75
706.72	37.39
706.905	37.91
707.09	37.49
707.274	37.21
707.459	36.99
707.644	36.87
707.828	36.88
708.013	36.87
708.197	36.97
708.382	36.8
708.567	36.87
708.751	36.41
708.936	36.28
709.12	36.46
709.305	36.65
709.489	36.55
709.673	37.07
709.858	37.1
710.042	36.79
710.227	36.71
710.411	36.59
710.596	36.62
710.78	36.64
710.964	36.64
711.149	36.51
711.333	36.83
711.517	36.95
711.702	36.73
711.886	36.86
712.07	36.85
712.254	36.75
712.438	36.6
712.623	36.37
712.807	36.56
712.991	36.61
713.175	36.54
713.359	36.29
713.544	35.85
713.728	35.7
713.912	35.04
714.096	35.18
714.28	34.92
714.464	34.87
714.648	34.7
714.832	34.4
715.016	33.85
715.2	33.81
715.384	33.73
715.568	33.64
715.752	33.41
715.936	33.77
716.12	33.5
716.304	33.55
716.488	33.27
716.671	33.5
716.855	33.97
717.039	34.42
717.223	34.52
717.407	34.32
717.59	34.72
717.774	34.77
717.958	34.61
718.142	34.42
718.325	34.58
718.509	34.85
718.693	34.65
718.877	34.35
719.06	34.34
719.244	34.56
719.428	34.56
719.611	34.51
719.795	34.4
719.978	34.67
720.162	34.49
720.345	34.12
720.529	34.17
720.713	34.21
720.896	34
721.08	33.55
721.263	32.94
721.446	32.85
721.63	33.05
721.813	33.31
721.997	33.22
722.18	33.19
722.364	33.23
722.547	33.15
722.73	33.03
722.914	33.08
723.097	33.28
723.28	33.55
723.464	33.48
723.647	33.14
723.83	33.3
724.013	32.92
724.197	33.38
724.38	34.07
724.563	34.32
724.746	34.68
724.929	34.98
725.112	34.81
725.296	34.68
725.479	34.86
725.662	35.31
725.845	35.51
726.028	35.35
726.211	34.92
726.394	34.56
726.577	34.55
726.76	34.2
726.943	33.76
727.126	33.68
727.309	33.86
727.492	33.93
727.675	33.27
727.858	33.21
728.041	33.74
728.224	34.16
728.407	34.12
728.589	33.97
728.772	33.9
728.955	34.18
729.138	34.4
729.321	34.39
729.503	34.31
729.686	34.93
729.869	34.64
730.052	34.99
730.234	34.76
730.417	34.86
730.6	34.85
730.782	34.76
730.965	34.86
731.148	35.08
731.33	35.26
731.513	35.33
731.695	34.84
731.878	34.75
732.061	34.6
732.243	34.25
732.426	33.71
732.608	33.82
732.791	34.23
732.973	34.71
733.156	34.59
733.338	34.6
733.52	34.55
733.703	34.45
733.885	34.96
734.068	35
734.25	35.34
734.432	35.89
734.615	35.77
734.797	35.89
734.979	35.14
735.162	35.11
735.344	34.52
735.526	34.85
735.708	34.97
735.891	34.57
736.073	34.18
736.255	34.48
736.437	34.48
736.619	34.32
736.802	33.81
736.984	34
737.166	33.92
737.348	34.47
737.53	34.07
737.712	34.42
737.894	34.22
738.076	34.21
738.258	34.06
738.44	33.7
738.622	33.4
738.804	33.88
738.986	34
739.168	33.69
739.35	33.57
739.532	33.84
739.714	33.73
739.896	33.74
740.078	33.57
740.259	33.43
740.441	33.79
740.623	34.34
740.805	33.38
740.987	33.17
741.168	33.5
741.35	33.43
741.532	33.21
741.714	32.78
741.895	33.36
742.077	34.15
742.259	34.47
742.44	34.2
742.622	34.77
742.804	35.51
742.985	35.2
743.167	35.72
743.348	36.24
743.53	36.61
743.711	37.56
743.893	37.53
744.075	36.86
744.256	36.45
744.438	37.05
744.619	36.51
744.8	36.78
744.982	37.52
745.163	37.34
745.345	36.92
745.526	36.11
745.707	36.02
745.889	35.93
746.07	37.09
746.252	37.64
746.433	37.55
746.614	38.1
746.795	38.05
746.977	38.34
747.158	37.84
747.339	37.76
747.52	38.19
747.702	36.91
747.883	36.2
748.064	35.34
748.245	35.08
748.426	35.03
748.607	34.37
748.788	34.72
748.97	34
749.151	34.09
749.332	34.55
749.513	34.34
749.694	34.77
749.875	35.14
750.056	35.14
750.237	34.98
750.418	34.65
750.599	34.8
750.78	34.91
750.96	35.45
751.141	35.25
751.322	34.89
751.503	35.31
751.684	35.47
751.865	35.25
752.046	34.78
752.226	35.01
752.407	35.57
752.588	35.53
752.769	35.49
752.949	35.11
753.13	35.7
753.311	35.44
753.492	35.65
753.672	36.2
753.853	36.54
754.034	36.49
754.214	36.14
754.395	35.83
754.575	35.56
754.756	35.62
754.937	35.18
755.117	34.82
755.298	34.46
755.478	34.44
755.659	34.54
755.839	34.53
756.02	35.09
756.2	35.19
756.381	35.46
756.561	35.48
756.741	34.86
756.922	34.92
757.102	35.08
757.283	36
757.463	35.72
757.643	35.81
757.823	35.53
758.004	35.47
758.184	35.72
758.364	35.65
758.545	35.67
758.725	35.4
758.905	35.65
759.085	35.28
759.265	34.94
759.446	34.61
759.626	33.6
759.806	33.52
759.986	32.94
760.166	33.13
760.346	33.09
760.526	33.44
760.706	33.96
760.886	34.25
761.066	34.35
761.246	33.76
761.426	33.96
761.606	33.9
761.786	34.16
761.966	34.8
762.146	34.3
762.326	34.54
762.506	34.55
762.686	34.63
762.866	34.24
763.046	34.23
763.225	34.59
763.405	34.54
763.585	34.55
763.765	35.14
763.945	34.97
764.124	35.52
764.304	35.06
764.484	35.2
764.664	35.13
764.843	35.42
765.023	35.74
765.203	35.49
765.382	35.86
765.562	36.71
765.741	35.85
765.921	35.92
766.101	35.71
766.28	35.97
766.46	35.84
766.639	35.4
766.819	35.23
766.998	35.18
767.178	35.81
767.357	35.7
767.537	35.43
767.716	36.33
767.896	36.41
768.075	36.51
768.254	36.9
768.434	37.03
768.613	37.07
768.792	36.64
768.972	36.4
769.151	36.82
769.33	36.63
769.51	35.76
769.689	35.59
769.868	36.01
770.047	35.6
770.226	35.32
770.406	35.29
770.585	35.32
770.764	36.87
770.943	37.11
771.122	36.31
771.301	36.55
771.48	37.02
771.66	36.42
771.839	35.76
772.018	36.6
772.197	36.73
772.376	36.62
772.555	37
772.734	35.62
772.913	35.11
773.092	35.8
773.271	35.3
773.449	35.93
773.628	36.14
773.807	36.55
773.986	35.59
774.165	35.4
774.344	35.25
774.523	35.13
774.701	34.79
774.88	35.76
775.059	35.64
775.238	36.42
775.417	36.02
775.595	36.17
775.774	36.09
775.953	36.44
776.131	37.2
776.31	36.68
776.489	36.74
776.667	37.63
776.846	37.15
777.025	36.43
777.203	35.64
777.382	36
777.56	36.04
777.739	35.87
777.917	36.18
778.096	35.77
778.274	36.32
778.453	36.6
778.631	35.97
778.81	35.95
778.988	37.24
779.166	37.98
779.345	37.32
779.523	38.01
779.702	38.28
779.88	37.78
780.058	36.84
780.237	37.18
780.415	37.17
780.593	37.49
780.771	37.98
780.95	37.45
781.128	37.45
781.306	37.52
781.484	37.25
781.662	37.45
781.841	37.21
782.019	37.44
782.197	37.17
782.375	36.7
782.553	37.82
782.731	37.8
782.909	37.65
783.087	37.43
783.265	37.81
783.443	37.28
783.621	37.28
783.799	37.23
783.977	38.41
784.155	38.56
784.333	38.87
784.511	38.11
784.689	37.41
784.867	37.41
785.045	38.06
785.223	37.84
785.4	37.58
785.578	37.95
785.756	38.18
785.934	37.13
786.112	36.4
786.289	35.1
786.467	34.31
786.645	34.48
786.823	33.95
787	33.8
787.178	34.24
787.356	34.79
787.533	34.62
787.711	35.41
787.889	36.09
788.066	36.16
788.244	37.42
788.421	37.93
788.599	37.84
788.776	37.76
788.954	37.16
789.131	37.23
789.309	37.04
789.486	36.77
789.664	36.67
789.841	35.38
790.019	34.46
790.196	34.44
790.373	34.91
790.551	34.63
790.728	35.75
790.906	36.59
791.083	36.53
791.26	36.44
791.437	36.04
791.615	35.48
791.792	36.39
791.969	37.44
792.146	38.01
792.324	38.57
792.501	38.71
792.678	38.19
792.855	38.16
793.032	38.65
793.209	38.9
793.387	39.76
793.564	40.01
793.741	40.11
793.918	41.34
794.095	41.09
794.272	40.23
794.449	40.41
794.626	40.48
794.803	40.5
794.98	40.51
795.157	40.47
795.334	38.9
795.511	39.93
795.688	40.8
795.864	40.2
796.041	39.53
796.218	39.54
796.395	40.11
796.572	40.07
796.749	39.28
796.925	38.58
797.102	38.25
797.279	39.52
797.456	38.3
797.632	37
797.809	37.14
797.986	37.34
798.162	36.63
798.339	35.34
798.516	34.82
798.692	34.25
798.869	34.3
799.046	33.5
799.222	32.91
799.399	33.46
799.575	33.12
799.752	32.94
799.928	32.95
800.105	34.11
800.281	35.5
800.458	35.19
800.634	36.14
800.811	35.48
800.987	35.98
801.163	35.61
801.34	36.11
801.516	36.36
801.692	36.77
801.869	37.5
802.045	36.26
802.221	35.96
802.398	37.12
802.574	36.5
802.75	37.72
802.926	39.16
803.103	40.2
803.279	39.66
803.455	40.42
803.631	40.08
803.807	38.86
803.983	39.29
804.16	38.44
804.336	37.56
804.512	37.49
804.688	36.47
804.864	35.33
805.04	35.23
805.216	35.31
805.392	35.51
805.568	35.37
805.744	35.43
805.92	35.46
806.096	36.66
806.272	36.76
806.448	36.41
806.623	37.28
806.799	37.34
806.975	36.72
807.151	36.05
807.327	35.5
807.503	34.76
807.678	34.63
807.854	35.06
808.03	34.71
808.206	35.35
808.381	34.95
808.557	34.88
808.733	33.69
808.908	32.79
809.084	32.3
809.26	32.97
809.435	33.69
809.611	34.61
809.787	34.86
809.962	34.85
810.138	34.51
810.313	37.02
810.489	36.38
810.664	37.79
810.84	39.86
811.015	40.27
811.191	40.7
811.366	41.48
811.542	40.82
811.717	41.58
811.892	41.22
812.068	40.66
812.243	38.18
812.419	39.25
812.594	39.28
812.769	39.02
812.944	39.57
813.12	38.5
813.295	38.45
813.47	37.24
813.645	35.55
813.821	35.57
813.996	35.98
814.171	36.68
814.346	35.17
814.521	35.1
814.697	33.3
814.872	32.14
815.047	33.15
815.222	31.82
815.397	34.06
815.572	33.91
815.747	33.41
815.922	33.8
816.097	34.82
816.272	36.98
816.447	36.02
816.622	36.37
816.797	36.17
816.972	35.12
817.147	35.74
817.322	33.98
817.496	34.96
817.671	35.74
817.846	36.64
818.021	35.82
818.196	35.31
818.371	35.52
818.545	37.14
818.72	37.8
818.895	38.87
819.069	38.84
819.244	38.67
819.419	38.97
819.594	38.01
819.768	36.85
819.943	37.42
820.117	36.43
820.292	36.32
820.467	35.56
820.641	34.76
820.816	33.85
820.99	33.51
821.165	33.52
821.339	33.1
821.514	33.08
821.688	32.68
821.863	32.2
822.037	31.87
822.212	31.93
822.386	32
822.56	31.9
822.735	31.9
822.909	31.69
823.084	31.79
823.258	31.86
823.432	31.77
823.606	31.84
823.781	32.16
823.955	32.49
824.129	32.43
824.303	31.99
824.478	32.38
824.652	32.34
824.826	32.66
825	32.36
825.174	32.01
825.348	32.24
825.523	32.2
825.697	31.84
825.871	32.14
826.045	32.04
826.219	32.37
826.393	32.14
826.567	32.11
826.741	32.24
826.915	32.59
827.089	33.25
827.263	33.45
827.437	33.95
827.611	34.03
827.784	33.82
827.958	34.07
828.132	34.09
828.306	33.72
828.48	33.74
828.654	34.05
828.827	33.51
829.001	33.3
829.175	33.3
829.349	32.84
829.522	32.86
829.696	32.61
829.87	32.08
830.044	32.97
830.217	34.27
830.391	34.97
830.565	33.95
830.738	35.26
830.912	34.52
831.085	34.82
831.259	35.93
831.432	35.34
831.606	35.69
831.779	35.45
831.953	34.32
832.126	34.07
832.3	34.47
832.473	34.99
832.647	35.39
832.82	35.98
832.994	35.61
833.167	34.92
833.34	35.33
833.514	36.25
833.687	36.44
833.86	36.35
834.034	36.23
834.207	35.74
834.38	36.15
834.553	35.77
834.727	35.31
834.9	34.66
835.073	34.7
835.246	34.99
835.419	34.26
835.593	34.71
835.766	34.66
835.939	35.44
836.112	36.13
836.285	35.72
836.458	35.19
836.631	35.85
836.804	37.2
836.977	37.01
837.15	36.34
837.323	36.97
837.496	36.66
837.669	37.64
837.842	36.6
838.015	34.11
838.188	33.17
838.361	33.86
838.533	34.74
838.706	33.19
838.879	33.98
839.052	35.67
839.225	33.86
839.398	33.62
839.57	33.07
839.743	34.39
839.916	36.77
840.088	38.27
840.261	37.39
840.434	36.83
840.607	37.7
840.779	36.69
840.952	36.48
841.124	36.37
841.297	37.21
841.47	36.88
841.642	35.11
841.815	34.47
841.987	34.3
842.16	36.21
842.332	35.27
842.505	35.62
842.677	37.39
842.85	37.09
843.022	37.35
843.194	37.49
843.367	37.23
843.539	38.09
843.712	38.02
843.884	36.9
844.056	37.59
844.229	37.91
844.401	37.77
844.573	36.61
844.745	37.41
844.918	38.01
845.09	38.06
845.262	40.3
845.434	38.89
845.606	40.84
845.779	40.87
845.951	38.32
846.123	39.68
846.295	39.81
846.467	44.27
846.639	41.54
846.811	40.69
846.983	39.47
847.155	40.56
847.327	44.35
847.499	40.61
847.671	41.96
847.843	41.9
848.015	41.26
848.187	42.93
848.359	38.02
848.531	38.31
848.703	40.74
848.875	41.14
849.047	37.12
849.218	31.91
849.39	32.36
849.562	33.33
849.734	31.38
849.905	31.6
850.077	31.34
850.249	31.48
850.421	35.8
850.592	36.65
850.764	35.96
850.936	38.68
851.107	41.9
851.279	46.51
851.451	46.46
851.622	51.55
851.794	48.4
851.965	48.02
852.137	47.23
852.308	44.84
852.48	44.14
852.651	46.33
852.823	43.68
852.994	45.53
853.166	43.72
853.337	39.12
853.509	35.11
853.68	39.63
853.851	39.76
854.023	44.25
854.194	45.22
854.365	46.87
854.537	46.71
854.708	50.18
854.879	52.54
855.05	55.17
855.222	60.97
855.393	63.24
855.564	61.64
855.735	59.69
855.906	58.38
856.078	58.68
856.249	57.69
856.42	54.43
856.591	54.07
856.762	47.01
856.933	42.39
857.104	36.63
857.275	33.99
857.446	32.94
857.617	34.25
857.788	32.32
857.959	32.19
858.13	34.44
858.301	36.1
858.472	33.3
858.643	36.99
858.814	39.98
858.985	43.93
859.155	42.41
859.326	43.52
859.497	41.78
859.668	45.8
859.839	44.78
860.009	41.33
860.18	41
860.351	42.68
860.522	43.61
860.692	43.15
860.863	41.32
861.034	45.12
861.204	48.53
861.375	51.28
861.546	50.53
861.716	51.84
861.887	53.79
862.057	55.69
862.228	60.9
862.398	63.21
862.569	58.79
862.739	64.22
862.91	65.75
863.08	61.7
863.251	57.07
863.421	55.79
863.592	51.67
863.762	51.44
863.932	45.01
864.103	39.63
864.273	36.19
864.443	40.46
864.614	34.89
864.784	32.81
864.954	32.86
865.125	39.75
865.295	39.66
865.465	36.62
865.635	34.36
865.805	42.65
865.976	45.88
866.146	48.68
866.316	48.83
866.486	47.73
866.656	45.97
866.826	45.62
866.996	42.01
867.166	42.25
867.336	42.74
867.506	46.01
867.676	44.62
867.846	40.84
868.016	37.7
868.186	37.27
868.356	41.35
868.526	41.37
868.696	40.77
868.866	42.99
869.036	42.78
869.206	45.44
869.376	42.61
869.545	38.07
869.715	36.47
869.885	37.18
870.055	42.53
870.224	37.51
870.394	37.01
870.564	39.89
870.734	37.71
870.903	34.88
871.073	35.56
871.243	39.06
871.412	39.84
871.582	45.9
871.751	47.74
871.921	44.87
872.091	43.69
872.26	45.19
872.43	45.29
872.599	45.77
872.769	51.3
872.938	49.1
873.108	48.11
873.277	49.58
873.446	46.83
873.616	43.14
873.785	39.82
873.955	39.23
874.124	39.23
874.293	36.45
874.463	38.91
874.632	39.3
874.801	39.51
874.971	38.52
875.14	38.15
875.309	36.39
875.478	40.49
875.647	38.39
875.817	40.09
875.986	41.61
876.155	41.09
876.324	39.86
876.493	38.23
876.662	36.05
876.831	38.72
877	39.69
877.17	40.81
877.339	32.77
877.508	37.73
877.677	40.83
877.846	37.73
878.015	38.2
878.184	34.52
878.352	31.11
878.521	33.96
878.69	29.86
878.859	33.12
879.028	33.48
879.197	37.09
879.366	35.68
879.534	36.48
879.703	37.58
879.872	38.84
880.041	37.24
880.21	36.12
880.378	35.14
880.547	34.37
880.716	31.82
880.884	30.9
881.053	32.23
881.222	31.92
881.39	30.84
881.559	30.29
881.727	29.27
881.896	30.34
882.065	30.7
882.233	30.8
882.402	30.46
882.57	30.66
882.739	31.21
882.907	31.58
883.076	31.6
883.244	30.99
883.412	31.7
883.581	32.01
883.749	31.27
883.918	31.6
884.086	32.27
884.254	32.55
884.423	32.92
884.591	32.31
884.759	30.72
884.927	30.29
885.096	30.58
885.264	30.66
885.432	31.37
885.6	32.16
885.769	32.93
885.937	31.62
886.105	32.32
886.273	31.92
886.441	31.36
886.609	32.4
886.777	34.26
886.945	35.81
887.113	35.01
887.281	33.75
887.449	32.23
887.617	30.48
887.785	30.57
887.953	29.81
888.121	28.13
888.289	32.33
888.457	33.14
888.625	32.6
888.793	35.24
888.961	37.32
889.129	36.64
889.296	39.24
889.464	40.11
889.632	40.85
889.8	41.43
889.967	47.3
890.135	45.57
