Data from 2938826__Reflection_02.txt Node
Date: Thu Mar 12 13:34:36 EDT 2015
User: robert
Spectrometer: USB4E03002
Autoset integration time: false
Trigger mode: 4
Integration Time (sec): 1.000000E-1
Scans to average: 10
Electric dark correction enabled: false
Nonlinearity correction enabled: false
Boxcar width: 5
Stray light correction enabled: false
XAxis mode: Wavelengths
Stop averaging: false
Number of Pixels in Spectrum: 3648
>>>>>Begin Spectral Data<<<<<
177.575	-1260.29
177.794	-2878.67
178.014	-5790.7
178.233	-2478.26
178.452	-2166.44
178.672	-2282.28
178.891	-3063.93
179.11	-4773.17
179.33	6870
179.549	-4108.82
179.768	-3452.38
179.987	3828.81
180.207	2302.45
180.426	2872.46
180.645	2274.65
180.864	1086.5
181.084	772.55
181.303	871.71
181.522	735.81
181.741	879.19
181.96	742.59
182.179	669.58
182.398	630.71
182.618	793.23
182.837	855.29
183.056	816.76
183.275	1376.76
183.494	2966.43
183.713	1707.72
183.932	4955.42
184.151	-3782.18
184.37	-5362.5
184.589	-2295.88
184.808	-2339.18
185.027	-9778.05
185.246	5039.76
185.465	3656.03
185.684	2410.53
185.903	1861.67
186.122	1830.47
186.341	1065.14
186.56	604.12
186.779	731.28
186.998	661.48
187.216	656.03
187.435	784.29
187.654	793.24
187.873	700.45
188.092	685.9
188.311	702.26
188.53	630.72
188.748	739.58
188.967	943.75
189.186	755.83
189.405	760.47
189.623	961.54
189.842	730.01
190.061	792.23
190.28	780.33
190.498	620.41
190.717	654.9
190.936	871.79
191.154	980.85
191.373	1090.1
191.592	876.07
191.81	912.87
192.029	733.9
192.248	1246.13
192.466	1606.54
192.685	3293.55
192.904	-9941.03
193.122	-23458.82
193.341	9042.22
193.559	4296.84
193.778	31438.46
193.996	-3514.29
194.215	-1926.96
194.433	-1041.71
194.652	-1197.47
194.87	-1892.7
195.089	-1549.47
195.307	-1248.06
195.526	-970.91
195.744	-934.3
195.963	-987.28
196.181	-1196.87
196.399	-1323.77
196.618	-2532.77
196.836	-3043.45
197.055	-2286.93
197.273	-1312.43
197.491	-2027.23
197.71	-2975.82
197.928	-2481.5
198.146	-4177.88
198.365	-3935.71
198.583	-48011.11
198.801	12114.29
199.019	4634.44
199.238	1942.66
199.456	1551.84
199.674	1467.59
199.892	1343.6
200.111	2280.85
200.329	974.43
200.547	797.43
200.765	826.58
200.983	918.95
201.202	931.64
201.42	1574.18
201.638	2973.62
201.856	3270.34
202.074	1878.26
202.292	1955.08
202.51	1189.87
202.728	2552.38
202.946	2757.59
203.165	2336.51
203.383	2274.6
203.601	1611.52
203.819	860.28
204.037	824.11
204.255	776.74
204.473	648.13
204.691	706.33
204.909	761.97
205.127	789.64
205.345	1405.61
205.562	1521.01
205.78	1949.07
205.998	1689.29
206.216	3942.2
206.434	3263.24
206.652	-4173.53
206.87	-3700
207.088	-2695.03
207.306	-2829.3
207.523	-4685
207.741	-11002.27
207.959	7614.06
208.177	2891.72
208.395	2301.9
208.612	1723.86
208.83	1791.95
209.048	909.29
209.266	935.18
209.483	799.67
209.701	599.26
209.919	521.51
210.136	456.59
210.354	452.51
210.572	509.02
210.79	803.23
211.007	653.18
211.225	666.49
211.442	573
211.66	591.34
211.878	560.25
212.095	567.72
212.313	596.57
212.53	593.36
212.748	530.6
212.966	572.53
213.183	429.92
213.401	511.23
213.618	469.13
213.836	575.82
214.053	670.63
214.271	794.03
214.488	1200.29
214.705	1120.65
214.923	1045.41
215.14	1423.91
215.358	763.57
215.575	867.81
215.793	660.12
216.01	663.97
216.227	591.31
216.445	523.64
216.662	482.92
216.879	474.17
217.097	453.09
217.314	438.01
217.531	467.45
217.749	554.29
217.966	439.74
218.183	432
218.4	395.75
218.618	381.72
218.835	336.33
219.052	346.46
219.269	330.17
219.487	348.38
219.704	315.25
219.921	295.64
220.138	286.43
220.355	290.29
220.572	309.19
220.79	295.57
221.007	272
221.224	299.01
221.441	290.66
221.658	277.07
221.875	249.41
222.092	238.35
222.309	227.18
222.526	223.01
222.743	221.9
222.96	202.79
223.177	199.87
223.394	196.39
223.611	183.65
223.828	174.18
224.045	164.79
224.262	155.72
224.479	148.89
224.696	144.06
224.913	132.45
225.13	128.14
225.347	125.65
225.564	120.08
225.781	113.29
225.997	104.9
226.214	94.68
226.431	86.47
226.648	77.82
226.865	72.23
227.082	63.14
227.298	55.72
227.515	47.45
227.732	41.92
227.949	37.85
228.165	34.34
228.382	30.89
228.599	28.83
228.816	27.29
229.032	26.16
229.249	25.22
229.466	25.06
229.682	24.25
229.899	24.92
230.116	25.53
230.332	26.5
230.549	27.48
230.765	29.23
230.982	30.6
231.199	32.5
231.415	36.48
231.632	38.34
231.848	40.33
232.065	44.2
232.281	46.24
232.498	47.13
232.714	46.58
232.931	46.29
233.147	45.97
233.364	46.28
233.58	46.02
233.797	43.96
234.013	43.77
234.23	42.28
234.446	41.51
234.662	41.44
234.879	41.14
235.095	41.92
235.312	42.34
235.528	43.94
235.744	44.3
235.961	43.4
236.177	43.92
236.393	43.67
236.61	45.4
236.826	45.72
237.042	44.9
237.258	45.77
237.475	47.84
237.691	47.73
237.907	46.88
238.123	47.01
238.339	49.53
238.556	50.13
238.772	50.17
238.988	48.93
239.204	47.37
239.42	45.07
239.636	43.36
239.853	39.57
240.069	37.35
240.285	34.22
240.501	32
240.717	29.4
240.933	27.42
241.149	25.76
241.365	23.63
241.581	22.51
241.797	22.33
242.013	21.56
242.229	20.95
242.445	21.05
242.661	20.83
242.877	21.15
243.093	21.1
243.309	21.05
243.525	20.88
243.741	21.79
243.957	22.45
244.173	22.54
244.388	23.21
244.604	23.36
244.82	23.15
245.036	23.3
245.252	21.44
245.468	20.36
245.683	19.12
245.899	18.27
246.115	16.95
246.331	15.78
246.547	14.77
246.762	14.01
246.978	13.87
247.194	13.45
247.409	12.91
247.625	13.11
247.841	12.96
248.057	13.17
248.272	13.42
248.488	13.83
248.703	14.27
248.919	15.47
249.135	16.19
249.35	16.92
249.566	18.03
249.782	19.03
249.997	20.08
250.213	20.99
250.428	22.31
250.644	22.83
250.859	24
251.075	23.54
251.29	22.83
251.506	22.61
251.721	21.89
251.937	21.04
252.152	21.4
252.368	20.7
252.583	20.75
252.798	19.82
253.014	20.12
253.229	20.18
253.445	21.24
253.66	22.46
253.875	23.84
254.091	24.95
254.306	26.51
254.521	27.18
254.737	28.31
254.952	29.07
255.167	30.45
255.383	30.37
255.598	29.82
255.813	29.6
256.028	28.99
256.244	27.82
256.459	26.7
256.674	26.7
256.889	25.24
257.104	24.15
257.32	23.57
257.535	22.02
257.75	20.6
257.965	19.11
258.18	17.87
258.395	16.32
258.61	15.06
258.826	14.02
259.041	12.62
259.256	12.28
259.471	11.84
259.686	11.16
259.901	10.86
260.116	10.62
260.331	10.7
260.546	10.55
260.761	10.48
260.976	10.81
261.191	11.25
261.406	11.89
261.621	12.43
261.836	12.86
262.05	13.86
262.265	15.07
262.48	16.27
262.695	17.26
262.91	18.4
263.125	19.58
263.34	19.75
263.555	20.22
263.769	20.28
263.984	20.55
264.199	20.86
264.414	20.66
264.629	20.18
264.843	19.29
265.058	18.64
265.273	18.05
265.488	17.36
265.702	17.03
265.917	16.7
266.132	17.22
266.346	17.11
266.561	16.76
266.776	16.29
266.99	15.83
267.205	16.16
267.42	15.73
267.634	15.42
267.849	15.69
268.063	15.78
268.278	15.64
268.492	15.25
268.707	14.65
268.922	14.71
269.136	14.47
269.351	14.1
269.565	13.67
269.78	13.62
269.994	13.83
270.209	13.4
270.423	13.25
270.637	13.47
270.852	13.36
271.066	13.57
271.281	13.4
271.495	13.23
271.709	13.53
271.924	13.33
272.138	13.29
272.353	13.01
272.567	13.08
272.781	13.05
272.996	12.52
273.21	12.49
273.424	12.51
273.638	12.9
273.853	13.22
274.067	13.26
274.281	13.7
274.495	14.59
274.71	15.28
274.924	15.27
275.138	15.48
275.352	15.65
275.566	16.53
275.781	16.28
275.995	15.54
276.209	15.97
276.423	16.13
276.637	15.81
276.851	14.92
277.065	13.99
277.279	13.9
277.493	13.43
277.707	14.3
277.921	13.39
278.135	13.3
278.349	13.73
278.563	13.74
278.777	13.39
278.991	13.82
279.205	14.4
279.419	14.88
279.633	15.16
279.847	15.41
280.061	15.2
280.275	15
280.489	15.02
280.703	14.47
280.917	13.88
281.131	13.96
281.344	13.76
281.558	13.1
281.772	13.14
281.986	12.81
282.2	12.69
282.414	12.37
282.627	12.36
282.841	12.38
283.055	12.66
283.269	12.89
283.482	12.97
283.696	12.47
283.91	12.44
284.123	12.36
284.337	12.47
284.551	12.38
284.764	12.23
284.978	11.93
285.192	11.5
285.405	11.21
285.619	11.25
285.833	10.92
286.046	10.93
286.26	11
286.473	10.7
286.687	10.69
286.9	10.48
287.114	10.4
287.327	10.55
287.541	11.14
287.754	11.47
287.968	11.43
288.181	11.74
288.395	11.96
288.608	12.3
288.822	12.3
289.035	12.38
289.248	12.74
289.462	12.81
289.675	12.73
289.889	12.51
290.102	12.56
290.315	12.35
290.529	12.11
290.742	12.3
290.955	12.23
291.169	12.56
291.382	12.72
291.595	12.91
291.808	12.92
292.022	13.17
292.235	13.34
292.448	13.45
292.661	13.85
292.875	14.25
293.088	14.14
293.301	14.42
293.514	14.28
293.727	13.92
293.94	13.45
294.153	13.58
294.367	13.11
294.58	12.91
294.793	12.72
295.006	12.43
295.219	12.25
295.432	12.39
295.645	11.87
295.858	11.81
296.071	11.63
296.284	11.5
296.497	11.4
296.71	11.7
296.923	11.77
297.136	11.8
297.349	11.93
297.562	11.59
297.775	11.56
297.988	11.73
298.201	12
298.414	12.14
298.626	12.43
298.839	12.35
299.052	12.51
299.265	12.68
299.478	12.9
299.691	12.8
299.903	13.85
300.116	14.26
300.329	14.27
300.542	14.2
300.755	14.41
300.967	14.64
301.18	15.04
301.393	15.13
301.605	15.32
301.818	15.35
302.031	15.65
302.243	15.13
302.456	14.9
302.669	15
302.881	15.3
303.094	15.38
303.307	15.3
303.519	15.43
303.732	15.35
303.944	15.27
304.157	15.34
304.37	15.4
304.582	15.49
304.795	15.62
305.007	15.88
305.22	15.98
305.432	15.82
305.645	16.29
305.857	16.69
306.069	17.28
306.282	17.3
306.494	17.15
306.707	17.12
306.919	17.06
307.132	17.07
307.344	17.08
307.556	17.09
307.769	17.86
307.981	17.59
308.193	16.93
308.406	16.65
308.618	16.87
308.83	16.63
309.043	16.61
309.255	16.4
309.467	15.97
309.679	15.96
309.892	15.58
310.104	14.98
310.316	14.62
310.528	14.39
310.74	14.05
310.953	13.86
311.165	14.02
311.377	14.05
311.589	14.47
311.801	14.6
312.013	14.51
312.225	14.73
312.437	14.95
312.649	15.37
312.862	16.05
313.074	16.64
313.286	16.55
313.498	16.4
313.71	16.45
313.922	16.4
314.134	16.55
314.346	16.7
314.558	16.55
314.77	16.77
314.982	17.05
315.193	17.07
315.405	16.93
315.617	17.3
315.829	17.95
316.041	17.67
316.253	17.53
316.465	17.79
316.677	17.8
316.888	18.23
317.1	18.21
317.312	18.14
317.524	17.95
317.736	18.04
317.947	18.21
318.159	17.82
318.371	18.03
318.583	18.71
318.794	18.88
319.006	18.89
319.218	18.58
319.43	18.77
319.641	18.58
319.853	18.29
320.064	18.48
320.276	18.64
320.488	19.07
320.699	19.45
320.911	19.46
321.123	19.33
321.334	19.53
321.546	19.51
321.757	19.67
321.969	19.62
322.18	20.28
322.392	20.1
322.603	20.22
322.815	20.04
323.026	19.81
323.238	19.08
323.449	18.85
323.661	18.86
323.872	18.87
324.083	18.67
324.295	18.65
324.506	18.36
324.718	18.01
324.929	17.52
325.14	17.34
325.352	17.3
325.563	17.48
325.774	17.35
325.986	17.07
326.197	16.97
326.408	16.82
326.62	16.87
326.831	17.27
327.042	17.39
327.253	17.61
327.464	18.02
327.676	17.91
327.887	17.83
328.098	17.85
328.309	17.92
328.52	18.51
328.732	18.4
328.943	18.62
329.154	17.98
329.365	17.91
329.576	17.72
329.787	17.87
329.998	18.18
330.209	18.23
330.42	18.72
330.631	19.09
330.842	18.74
331.053	19.1
331.264	18.99
331.475	19.2
331.686	19.54
331.897	19.76
332.108	19.29
332.319	19.11
332.53	19.17
332.741	18.82
332.952	18.57
333.163	18.27
333.374	18.02
333.585	17.79
333.795	17.79
334.006	17.51
334.217	17.23
334.428	17.35
334.639	17.64
334.849	17.91
335.06	17.94
335.271	18.18
335.482	18.56
335.692	18.67
335.903	18.56
336.114	18.61
336.325	18.89
336.535	18.78
336.746	18.7
336.957	18.17
337.167	18.01
337.378	18
337.589	17.98
337.799	17.65
338.01	17.6
338.22	17.64
338.431	17.61
338.642	17.43
338.852	17.67
339.063	17.59
339.273	17.59
339.484	17.64
339.694	17.61
339.905	17.16
340.115	17.2
340.326	16.86
340.536	17.09
340.746	17.14
340.957	16.97
341.167	16.59
341.378	16.52
341.588	16.55
341.799	16.4
342.009	16.39
342.219	16.41
342.43	16.56
342.64	16.62
342.85	16.59
343.061	16.11
343.271	15.99
343.481	16.13
343.691	16
343.902	16.1
344.112	15.72
344.322	15.52
344.532	15.52
344.743	15.21
344.953	15.31
345.163	15.28
345.373	15.52
345.583	15.47
345.793	15.36
346.004	15.54
346.214	15.48
346.424	15.93
346.634	15.94
346.844	16.04
347.054	15.95
347.264	16.16
347.474	16.03
347.684	16.23
347.894	16.3
348.104	16.55
348.314	16.09
348.524	15.99
348.734	16.03
348.944	16.24
349.154	15.92
349.364	15.94
349.574	15.81
349.784	15.55
349.994	15.27
350.204	15.57
350.413	15.4
350.623	15.67
350.833	15.78
351.043	15.3
351.253	15.21
351.463	15.46
351.672	15.85
351.882	15.82
352.092	16.17
352.302	16.38
352.511	16.15
352.721	15.87
352.931	15.8
353.141	15.8
353.35	15.81
353.56	15.63
353.77	15.55
353.979	15.26
354.189	15.08
354.399	15.02
354.608	14.71
354.818	14.77
355.027	14.85
355.237	14.89
355.447	14.61
355.656	14.84
355.866	14.7
356.075	14.34
356.285	14.29
356.494	13.99
356.704	13.68
356.913	13.79
357.123	13.61
357.332	13.59
357.542	13.69
357.751	13.66
357.96	13.63
358.17	13.66
358.379	13.96
358.589	13.85
358.798	13.81
359.007	13.89
359.217	13.68
359.426	13.5
359.635	13.52
359.845	12.81
360.054	12.68
360.263	12.2
360.472	12.01
360.682	11.92
360.891	11.99
361.1	11.99
361.309	11.7
361.519	11.53
361.728	11.42
361.937	11.36
362.146	11.71
362.355	11.89
362.564	12.09
362.774	12.2
362.983	12.22
363.192	11.93
363.401	12.16
363.61	12.41
363.819	12.73
364.028	13.04
364.237	13.29
364.446	13.25
364.655	12.92
364.864	12.68
365.073	12.59
365.282	12.35
365.491	12.46
365.7	12.39
365.909	12.48
366.118	12.29
366.327	12.19
366.536	11.77
366.745	11.92
366.954	12.15
367.162	12.54
367.371	12.54
367.58	12.98
367.789	13.13
367.998	13.13
368.207	13.06
368.415	13.27
368.624	13.23
368.833	13.48
369.042	13.22
369.25	13.47
369.459	13.22
369.668	13.34
369.877	13.11
370.085	13.03
370.294	12.88
370.503	12.84
370.711	12.6
370.92	12.72
371.129	12.44
371.337	12.5
371.546	12.23
371.754	12.16
371.963	12.22
372.171	12.14
372.38	11.98
372.589	11.95
372.797	11.75
373.006	11.8
373.214	11.63
373.423	11.8
373.631	11.58
373.84	11.59
374.048	11.5
374.256	11.22
374.465	11.08
374.673	11.26
374.882	11.15
375.09	11.33
375.298	11.34
375.507	11.29
375.715	11.29
375.923	11.35
376.132	11.36
376.34	11.45
376.548	11.43
376.757	11.27
376.965	11.31
377.173	11.29
377.381	11.3
377.59	11.18
377.798	11.14
378.006	10.84
378.214	10.92
378.423	10.82
378.631	10.8
378.839	10.82
379.047	10.96
379.255	10.88
379.463	10.88
379.671	10.57
379.879	10.56
380.088	10.55
380.296	10.67
380.504	10.68
380.712	10.69
380.92	10.57
381.128	10.67
381.336	10.68
381.544	10.58
381.752	10.71
381.96	10.72
382.168	10.66
382.376	10.8
382.584	10.66
382.791	10.62
382.999	10.51
383.207	10.45
383.415	10.26
383.623	10.08
383.831	10.12
384.039	9.91
384.247	9.95
384.454	9.87
384.662	9.59
384.87	9.55
385.078	9.25
385.285	9.2
385.493	9.22
385.701	9.04
385.909	9.12
386.116	9.27
386.324	9.43
386.532	9.4
386.739	9.29
386.947	9.28
387.155	9.34
387.362	9.49
387.57	9.44
387.778	9.41
387.985	9.66
388.193	9.64
388.4	9.43
388.608	9.46
388.816	9.4
389.023	9.55
389.231	9.57
389.438	9.7
389.646	9.81
389.853	9.53
390.061	9.42
390.268	9.45
390.475	9.44
390.683	9.43
390.89	9.26
391.098	9.18
391.305	9.04
391.512	8.96
391.72	8.8
391.927	8.53
392.135	8.71
392.342	8.78
392.549	8.8
392.756	8.61
392.964	8.42
393.171	8.31
393.378	8.34
393.586	8.21
393.793	8.09
394	7.86
394.207	7.96
394.414	7.85
394.622	7.7
394.829	7.73
395.036	7.8
395.243	7.86
395.45	7.75
395.657	7.72
395.864	7.93
396.072	7.96
396.279	8.02
396.486	8.1
396.693	8.21
396.9	8.25
397.107	8.01
397.314	8.1
397.521	7.97
397.728	7.97
397.935	7.99
398.142	7.75
398.349	7.81
398.556	7.94
398.763	7.81
398.97	7.69
399.177	7.71
399.383	7.47
399.59	7.36
399.797	7.4
400.004	7.73
400.211	7.7
400.418	7.76
400.625	7.69
400.831	7.55
401.038	7.66
401.245	7.73
401.452	7.77
401.658	8.1
401.865	8.15
402.072	8.27
402.279	8.03
402.485	7.96
402.692	8
402.899	7.92
403.105	7.99
403.312	7.82
403.519	7.75
403.725	7.61
403.932	7.38
404.138	7.21
404.345	6.98
404.552	7.03
404.758	7.08
404.965	7.04
405.171	7.02
405.378	6.89
405.584	6.9
405.791	6.74
405.997	6.8
406.204	6.95
406.41	7.07
406.617	7.1
406.823	7.02
407.029	6.99
407.236	6.99
407.442	7.11
407.649	7.22
407.855	7.07
408.061	7.16
408.268	7.16
408.474	7.16
408.68	7.03
408.887	7.07
409.093	7.14
409.299	7.03
409.505	6.79
409.712	6.73
409.918	6.73
410.124	6.94
410.33	7.08
410.537	7.01
410.743	6.97
410.949	6.84
411.155	6.93
411.361	7.02
411.567	7.06
411.773	7.15
411.98	6.99
412.186	6.85
412.392	6.88
412.598	6.78
412.804	6.89
413.01	6.77
413.216	7.08
413.422	7.02
413.628	6.87
413.834	6.89
414.04	7.01
414.246	7.04
414.452	7.07
414.658	7.02
414.864	6.95
415.07	6.81
415.275	6.73
415.481	6.58
415.687	6.49
415.893	6.46
416.099	6.36
416.305	6.31
416.511	6.52
416.716	6.34
416.922	6.17
417.128	6.11
417.334	6
417.539	5.95
417.745	5.8
417.951	5.68
418.157	5.48
418.362	5.42
418.568	5.29
418.774	5.02
418.979	5.07
419.185	4.9
419.391	4.8
419.596	4.84
419.802	4.79
420.008	4.68
420.213	4.65
420.419	4.65
420.624	4.66
420.83	4.56
421.035	4.56
421.241	4.49
421.446	4.6
421.652	4.59
421.857	4.36
422.063	4.35
422.268	4.45
422.474	4.43
422.679	4.41
422.885	4.4
423.09	4.44
423.295	4.46
423.501	4.46
423.706	4.39
423.911	4.42
424.117	4.57
424.322	4.58
424.527	4.58
424.733	4.66
424.938	4.72
425.143	4.75
425.349	4.74
425.554	4.72
425.759	4.86
425.964	4.96
426.169	4.97
426.375	5.07
426.58	5.14
426.785	5.12
426.99	5.11
427.195	5.11
427.4	5.07
427.605	5.29
427.811	5.35
428.016	5.35
428.221	5.29
428.426	5.37
428.631	5.22
428.836	5.27
429.041	5.24
429.246	5.33
429.451	5.3
429.656	5.36
429.861	5.26
430.066	5.26
430.271	5.16
430.476	5.1
430.681	5.04
430.886	5.19
431.09	5.16
431.295	5.3
431.5	5.3
431.705	5.32
431.91	5.15
432.115	5.07
432.32	5.03
432.524	4.88
432.729	5.02
432.934	4.97
433.139	4.95
433.343	4.95
433.548	4.82
433.753	4.75
433.958	4.83
434.162	4.96
434.367	5.05
434.572	5.02
434.776	5.12
434.981	5.04
435.186	5.05
435.39	4.96
435.595	5.03
435.799	5.1
436.004	5.11
436.209	5.05
436.413	4.98
436.618	4.94
436.822	4.97
437.027	4.96
437.231	5.05
437.436	5.06
437.64	5
437.845	4.9
438.049	4.97
438.253	4.99
438.458	4.94
438.662	4.91
438.867	4.92
439.071	4.87
439.275	4.93
439.48	4.85
439.684	4.9
439.888	4.9
440.093	4.8
440.297	4.72
440.501	4.64
440.706	4.59
440.91	4.6
441.114	4.58
441.318	4.66
441.523	4.61
441.727	4.61
441.931	4.54
442.135	4.46
442.339	4.56
442.543	4.61
442.748	4.69
442.952	4.74
443.156	4.75
443.36	4.81
443.564	4.79
443.768	4.76
443.972	4.78
444.176	4.84
444.38	4.95
444.584	4.87
444.788	4.79
444.992	4.66
445.196	4.59
445.4	4.48
445.604	4.35
445.808	4.24
446.012	4.18
446.216	4.09
446.42	4.01
446.624	3.99
446.828	3.97
447.032	3.91
447.235	3.88
447.439	3.86
447.643	3.97
447.847	4.04
448.051	4.16
448.254	4.24
448.458	4.28
448.662	4.22
448.866	4.2
449.069	4.22
449.273	4.33
449.477	4.49
449.681	4.55
449.884	4.54
450.088	4.61
450.292	4.55
450.495	4.56
450.699	4.7
450.902	4.88
451.106	4.89
451.31	4.95
451.513	4.86
451.717	4.88
451.92	4.94
452.124	4.9
452.327	4.71
452.531	4.84
452.734	4.83
452.938	4.72
453.141	4.66
453.345	4.71
453.548	4.73
453.752	4.85
453.955	4.81
454.158	4.77
454.362	4.82
454.565	5.01
454.769	4.96
454.972	5.05
455.175	5.16
455.379	5.23
455.582	5.25
455.785	5.16
455.988	5.22
456.192	5.13
456.395	5.09
456.598	5.11
456.801	4.99
457.005	5.03
457.208	4.97
457.411	4.78
457.614	4.71
457.817	4.59
458.021	4.51
458.224	4.39
458.427	4.25
458.63	4.26
458.833	4.13
459.036	4.07
459.239	3.95
459.442	3.91
459.645	3.95
459.848	3.89
460.051	3.95
460.254	4.03
460.457	3.98
460.66	4.11
460.863	4.13
461.066	4.19
461.269	4.23
461.472	4.3
461.675	4.26
461.878	4.31
462.081	4.43
462.284	4.43
462.486	4.45
462.689	4.51
462.892	4.5
463.095	4.44
463.298	4.52
463.5	4.62
463.703	4.68
463.906	4.85
464.109	4.81
464.311	4.87
464.514	5.02
464.717	5.12
464.92	5.2
465.122	5.18
465.325	5.26
465.528	5.26
465.73	5.3
465.933	5.28
466.135	5.21
466.338	5.27
466.541	5.13
466.743	4.93
466.946	4.77
467.148	4.73
467.351	4.8
467.553	4.82
467.756	4.82
467.958	4.87
468.161	4.76
468.363	4.76
468.566	4.72
468.768	4.84
468.971	4.9
469.173	4.94
469.375	4.92
469.578	4.86
469.78	4.79
469.983	4.81
470.185	4.7
470.387	4.84
470.59	4.86
470.792	4.91
470.994	4.97
471.196	5.03
471.399	5.02
471.601	5
471.803	5.12
472.005	5.17
472.208	5.1
472.41	5.06
472.612	5.07
472.814	5.05
473.016	5.01
473.218	4.86
473.421	4.79
473.623	4.88
473.825	4.93
474.027	4.93
474.229	4.87
474.431	4.83
474.633	4.86
474.835	4.78
475.037	4.69
475.239	4.72
475.441	4.69
475.643	4.71
475.845	4.66
476.047	4.64
476.249	4.55
476.451	4.56
476.653	4.65
476.855	4.61
477.057	4.66
477.258	4.7
477.46	4.66
477.662	4.74
477.864	4.73
478.066	4.67
478.268	4.71
478.469	4.7
478.671	4.69
478.873	4.7
479.075	4.58
479.276	4.51
479.478	4.51
479.68	4.44
479.882	4.35
480.083	4.34
480.285	4.28
480.487	4.23
480.688	4.12
480.89	4.1
481.091	3.87
481.293	3.85
481.495	3.73
481.696	3.58
481.898	3.43
482.099	3.35
482.301	3.23
482.502	3.17
482.704	3.05
482.905	3.01
483.107	2.92
483.308	2.9
483.51	2.88
483.711	2.82
483.913	2.82
484.114	2.83
484.315	2.81
484.517	2.78
484.718	2.78
484.92	2.8
485.121	2.8
485.322	2.83
485.524	2.9
485.725	2.91
485.926	2.96
486.127	2.94
486.329	2.93
486.53	2.94
486.731	2.94
486.932	2.91
487.134	2.91
487.335	2.93
487.536	2.89
487.737	2.85
487.938	2.85
488.139	2.87
488.341	2.88
488.542	2.94
488.743	2.95
488.944	3.02
489.145	3.1
489.346	3.13
489.547	3.16
489.748	3.25
489.949	3.26
490.15	3.24
490.351	3.24
490.552	3.25
490.753	3.24
490.954	3.26
491.155	3.25
491.356	3.15
491.557	3.13
491.758	3.13
491.959	3.12
492.159	3.18
492.36	3.25
492.561	3.27
492.762	3.27
492.963	3.32
493.164	3.36
493.364	3.47
493.565	3.65
493.766	3.78
493.967	3.84
494.167	3.93
494.368	3.95
494.569	3.98
494.769	4.09
494.97	4.2
495.171	4.14
495.371	4.21
495.572	4.13
495.773	4.09
495.973	4.01
496.174	4.03
496.375	3.94
496.575	3.92
496.776	3.89
496.976	3.87
497.177	3.86
497.377	3.92
497.578	3.91
497.778	3.9
497.979	4
498.179	4.01
498.38	4.09
498.58	4.09
498.78	4.24
498.981	4.33
499.181	4.35
499.382	4.38
499.582	4.4
499.782	4.43
499.983	4.49
500.183	4.45
500.383	4.54
500.584	4.52
500.784	4.64
500.984	4.52
501.184	4.52
501.385	4.63
501.585	4.65
501.785	4.68
501.985	4.71
502.185	4.82
502.386	4.87
502.586	4.93
502.786	4.95
502.986	4.98
503.186	5.03
503.386	5.05
503.586	5.01
503.786	5.03
503.987	5.07
504.187	5.05
504.387	5.1
504.587	5.13
504.787	5.1
504.987	5.19
505.187	5.12
505.387	5.15
505.587	5.14
505.786	5.12
505.986	5.27
506.186	5.29
506.386	5.28
506.586	5.23
506.786	5.2
506.986	5.24
507.186	5.21
507.386	5.25
507.585	5.31
507.785	5.39
507.985	5.48
508.185	5.42
508.384	5.44
508.584	5.45
508.784	5.5
508.984	5.58
509.183	5.58
509.383	5.58
509.583	5.67
509.782	5.66
509.982	5.71
510.182	5.75
510.381	5.76
510.581	5.8
510.781	6.01
510.98	5.95
511.18	5.89
511.379	5.97
511.579	6.05
511.778	6.11
511.978	6.12
512.177	6.14
512.377	6.18
512.576	6.23
512.776	6.27
512.975	6.22
513.175	6.35
513.374	6.51
513.573	6.48
513.773	6.49
513.972	6.55
514.172	6.74
514.371	6.83
514.57	6.96
514.77	6.98
514.969	7.09
515.168	7.16
515.367	7.17
515.567	7.28
515.766	7.47
515.965	7.61
516.164	7.68
516.364	7.65
516.563	7.69
516.762	7.55
516.961	7.61
517.16	7.67
517.359	7.72
517.559	7.74
517.758	7.64
517.957	7.61
518.156	7.63
518.355	7.61
518.554	7.7
518.753	7.77
518.952	7.91
519.151	7.99
519.35	8.03
519.549	8.1
519.748	8.25
519.947	8.46
520.146	8.6
520.345	8.67
520.544	8.74
520.743	8.87
520.942	8.87
521.141	9.04
521.339	9.05
521.538	9.08
521.737	9.1
521.936	9.18
522.135	9.26
522.333	9.38
522.532	9.34
522.731	9.5
522.93	9.56
523.129	9.68
523.327	9.7
523.526	9.86
523.725	10.01
523.923	10.08
524.122	10.1
524.321	10.13
524.519	10.1
524.718	10.18
524.917	10.26
525.115	10.19
525.314	10.23
525.512	10.2
525.711	10.25
525.909	10.29
526.108	10.38
526.306	10.44
526.505	10.46
526.703	10.49
526.902	10.57
527.1	10.56
527.299	10.61
527.497	10.61
527.696	10.61
527.894	10.63
528.092	10.6
528.291	10.62
528.489	10.61
528.688	10.61
528.886	10.62
529.084	10.62
529.283	10.66
529.481	10.69
529.679	10.76
529.877	10.84
530.076	10.88
530.274	10.97
530.472	11.01
530.67	11.16
530.869	11.29
531.067	11.42
531.265	11.57
531.463	11.7
531.661	11.84
531.859	11.95
532.057	12.05
532.255	12.21
532.454	12.29
532.652	12.37
532.85	12.38
533.048	12.4
533.246	12.41
533.444	12.44
533.642	12.48
533.84	12.5
534.038	12.51
534.236	12.55
534.434	12.56
534.632	12.59
534.83	12.61
535.027	12.7
535.225	12.82
535.423	12.98
535.621	13.08
535.819	13.09
536.017	13.23
536.215	13.33
536.412	13.37
536.61	13.43
536.808	13.54
537.006	13.69
537.203	13.81
537.401	13.94
537.599	13.99
537.797	14.1
537.994	14.3
538.192	14.41
538.39	14.53
538.587	14.68
538.785	14.82
538.983	14.89
539.18	14.98
539.378	14.98
539.575	14.92
539.773	14.99
539.97	14.97
540.168	14.98
540.366	14.94
540.563	14.93
540.761	14.89
540.958	14.84
541.155	14.85
541.353	14.83
541.55	14.85
541.748	14.88
541.945	14.86
542.143	14.86
542.34	14.85
542.537	14.89
542.735	14.91
542.932	15.01
543.129	15.07
543.327	15.15
543.524	15.25
543.721	15.34
543.919	15.5
544.116	15.64
544.313	15.83
544.51	16.06
544.708	16.16
544.905	16.37
545.102	16.52
545.299	16.69
545.496	16.81
545.693	16.85
545.891	16.92
546.088	16.91
546.285	16.91
546.482	16.89
546.679	16.86
546.876	16.91
547.073	16.93
547.27	16.94
547.467	16.95
547.664	16.99
547.861	17.05
548.058	17.2
548.255	17.33
548.452	17.48
548.649	17.62
548.846	17.62
549.043	17.65
549.24	17.74
549.437	17.83
549.633	17.92
549.83	17.9
550.027	17.98
550.224	17.97
550.421	18
550.618	18
550.814	18.07
551.011	18.18
551.208	18.32
551.405	18.31
551.601	18.38
551.798	18.43
551.995	18.52
552.191	18.54
552.388	18.55
552.585	18.59
552.781	18.64
552.978	18.62
553.175	18.61
553.371	18.59
553.568	18.65
553.764	18.68
553.961	18.64
554.157	18.77
554.354	18.94
554.55	19.01
554.747	19.05
554.943	19.05
555.14	19.16
555.336	19.24
555.533	19.37
555.729	19.36
555.926	19.26
556.122	19.37
556.318	19.27
556.515	19.22
556.711	19.21
556.907	19.31
557.104	19.52
557.3	19.42
557.496	19.43
557.693	19.41
557.889	19.57
558.085	19.73
558.281	19.76
558.478	19.83
558.674	19.81
558.87	19.88
559.066	19.87
559.262	19.76
559.459	19.91
559.655	19.98
559.851	19.96
560.047	20.01
560.243	19.99
560.439	20.07
560.635	20.08
560.831	20.12
561.027	20.14
561.223	20.13
561.419	20.19
561.615	20.29
561.811	20.35
562.007	20.41
562.203	20.36
562.399	20.5
562.595	20.58
562.791	20.74
562.987	20.84
563.183	20.8
563.379	20.71
563.575	20.64
563.771	20.55
563.966	20.58
564.162	20.59
564.358	20.61
564.554	20.5
564.75	20.44
564.945	20.27
565.141	20.23
565.337	20.24
565.533	20.38
565.728	20.38
565.924	20.37
566.12	20.32
566.315	20.38
566.511	20.36
566.707	20.45
566.902	20.5
567.098	20.59
567.293	20.66
567.489	20.66
567.684	20.61
567.88	20.71
568.076	20.81
568.271	20.8
568.467	20.75
568.662	20.71
568.858	20.7
569.053	20.66
569.248	20.75
569.444	20.66
569.639	20.7
569.835	20.82
570.03	20.88
570.225	20.8
570.421	20.8
570.616	20.86
570.812	20.94
571.007	20.86
571.202	20.88
571.397	20.89
571.593	20.87
571.788	20.93
571.983	20.91
572.178	20.89
572.374	21.02
572.569	21.03
572.764	21.08
572.959	21.17
573.154	21.29
573.35	21.36
573.545	21.42
573.74	21.45
573.935	21.51
574.13	21.52
574.325	21.58
574.52	21.61
574.715	21.63
574.91	21.58
575.105	21.57
575.3	21.53
575.495	21.59
575.69	21.6
575.885	21.74
576.08	21.84
576.275	21.87
576.47	21.95
576.665	21.94
576.86	22.05
577.055	22.22
577.25	22.22
577.444	22.52
577.639	22.58
577.834	22.53
578.029	22.71
578.224	22.64
578.418	22.83
578.613	22.83
578.808	22.9
579.003	23.06
579.197	23.23
579.392	23.45
579.587	23.3
579.781	23.34
579.976	23.53
580.171	23.49
580.365	23.65
580.56	23.64
580.755	23.8
580.949	23.88
581.144	23.89
581.338	23.83
581.533	23.71
581.727	23.93
581.922	23.92
582.116	23.97
582.311	24.02
582.505	23.91
582.7	23.93
582.894	23.8
583.089	23.78
583.283	23.76
583.478	23.78
583.672	23.9
583.866	23.65
584.061	23.55
584.255	23.55
584.449	23.49
584.644	23.65
584.838	23.69
585.032	23.9
585.226	23.96
585.421	23.96
585.615	23.99
585.809	23.96
586.003	24.25
586.198	24.38
586.392	24.48
586.586	24.58
586.78	24.5
586.974	24.49
587.168	24.39
587.363	24.4
587.557	24.42
587.751	24.36
587.945	24.41
588.139	24.18
588.333	24.17
588.527	23.95
588.721	23.77
588.915	23.81
589.109	23.92
589.303	24.03
589.497	23.92
589.691	23.8
589.885	23.69
590.079	23.72
590.273	23.85
590.466	23.92
590.66	23.97
590.854	24.23
591.048	24.25
591.242	24.13
591.436	24.04
591.629	24.19
591.823	24.42
592.017	24.53
592.211	24.58
592.404	24.55
592.598	24.54
592.792	24.63
592.986	24.43
593.179	24.39
593.373	24.42
593.567	24.43
593.76	24.36
593.954	24.32
594.147	24.39
594.341	24.37
594.535	24.44
594.728	24.39
594.922	24.3
595.115	24.29
595.309	24.25
595.502	24.28
595.696	24.27
595.889	24.33
596.083	24.12
596.276	24.08
596.47	24.06
596.663	24.04
596.856	24.04
597.05	24.14
597.243	24.35
597.437	24.44
597.63	24.42
597.823	24.52
598.017	24.62
598.21	24.86
598.403	24.99
598.596	24.95
598.79	25.08
598.983	25.23
599.176	25.3
599.369	25.35
599.563	25.42
599.756	25.62
599.949	25.67
600.142	25.62
600.335	25.67
600.528	25.58
600.722	25.7
600.915	25.63
601.108	25.67
601.301	25.68
601.494	25.65
601.687	25.49
601.88	25.25
602.073	25.02
602.266	24.92
602.459	24.8
602.652	24.67
602.845	24.57
603.038	24.48
603.231	24.55
603.424	24.43
603.617	24.13
603.809	24.23
604.002	24.25
604.195	24.36
604.388	24.3
604.581	24.32
604.774	24.47
604.966	24.53
605.159	24.6
605.352	24.51
605.545	24.63
605.737	24.79
605.93	24.89
606.123	25.25
606.316	25.25
606.508	25.51
606.701	25.8
606.894	25.86
607.086	26
607.279	26.09
607.471	26.14
607.664	26.16
607.857	26.33
608.049	26.42
608.242	26.33
608.434	26.47
608.627	26.7
608.819	26.8
609.012	27.15
609.204	27.4
609.397	27.87
609.589	28.43
609.782	28.92
609.974	29.45
610.166	30
610.359	30.6
610.551	31.15
610.743	31.45
610.936	31.86
611.128	32.07
611.32	32.43
611.513	32.49
611.705	32.51
611.897	32.7
612.09	32.68
612.282	32.39
612.474	32.06
612.666	31.99
612.858	32.15
613.051	32.03
613.243	32.09
613.435	31.84
613.627	31.6
613.819	31.32
614.011	31.18
614.203	31.02
614.395	30.98
614.588	30.95
614.78	30.67
614.972	30.35
615.164	30.12
615.356	29.79
615.548	29.62
615.74	29.55
615.932	29.41
616.124	29.04
616.315	28.89
616.507	28.99
616.699	28.77
616.891	28.74
617.083	28.6
617.275	28.59
617.467	28.5
617.659	28.49
617.85	28.66
618.042	28.68
618.234	28.49
618.426	28.48
618.618	28.04
618.809	28.05
619.001	27.99
619.193	27.99
619.384	27.9
619.576	28.06
619.768	27.95
619.959	27.79
620.151	27.75
620.343	27.91
620.534	27.86
620.726	28.11
620.917	28.2
621.109	28.07
621.301	28.1
621.492	28.04
621.684	28
621.875	28.22
622.067	28.07
622.258	28.09
622.45	28.23
622.641	28.14
622.832	28.23
623.024	28.31
623.215	28.56
623.407	28.49
623.598	28.59
623.789	28.6
623.981	28.53
624.172	28.55
624.363	28.5
624.555	28.27
624.746	28.2
624.937	28.11
625.129	27.98
625.32	27.88
625.511	27.94
625.702	27.78
625.893	27.75
626.085	27.56
626.276	27.73
626.467	27.76
626.658	27.73
626.849	27.83
627.04	27.72
627.231	27.69
627.422	27.81
627.614	27.7
627.805	27.85
627.996	27.87
628.187	28.09
628.378	28.01
628.569	28.13
628.76	28.37
628.951	28.41
629.142	28.48
629.332	28.41
629.523	28.31
629.714	28.41
629.905	28.58
630.096	28.58
630.287	28.7
630.478	28.7
630.669	28.7
630.859	28.75
631.05	28.81
631.241	29.01
631.432	29.18
631.623	29.26
631.813	29.2
632.004	29.12
632.195	29.08
632.385	28.92
632.576	28.84
632.767	28.68
632.957	28.63
633.148	28.55
633.339	28.42
633.529	28.49
633.72	28.3
633.91	28.22
634.101	28.14
634.292	28.07
634.482	28
634.673	28.02
634.863	28.1
635.054	27.98
635.244	28.13
635.435	28.17
635.625	28.02
635.815	28.19
636.006	28.38
636.196	28.35
636.387	28.41
636.577	28.56
636.767	28.57
636.958	28.48
637.148	28.51
637.338	28.51
637.529	28.42
637.719	28.36
637.909	28.27
638.099	28.17
638.29	28.29
638.48	28.31
638.67	28.34
638.86	28.59
639.05	28.69
639.241	28.87
639.431	28.52
639.621	28.69
639.811	28.96
640.001	29
640.191	28.98
640.381	28.9
640.571	28.92
640.761	28.82
640.951	28.74
641.141	28.73
641.331	28.8
641.521	29.2
641.711	29.2
641.901	29.18
642.091	29.4
642.281	29.52
642.471	29.44
642.661	29.55
642.851	29.68
643.041	29.72
643.231	29.71
643.42	29.84
643.61	29.84
643.8	29.73
643.99	29.68
644.18	29.49
644.369	29.47
644.559	29.67
644.749	29.67
644.939	29.5
645.128	29.3
645.318	29.46
645.508	29.04
645.697	28.98
645.887	28.9
646.076	29
646.266	28.97
646.456	29.17
646.645	29.49
646.835	29.34
647.024	29.42
647.214	29.64
647.403	29.63
647.593	29.9
647.782	29.77
647.972	29.8
648.161	29.83
648.351	29.9
648.54	29.75
648.73	29.54
648.919	29.78
649.108	29.91
649.298	29.81
649.487	29.95
649.677	29.89
649.866	30.18
650.055	30.43
650.244	30.43
650.434	30.54
650.623	30.52
650.812	30.41
651.002	30
651.191	30.13
651.38	30.13
651.569	29.96
651.758	29.97
651.947	29.86
652.137	29.74
652.326	29.72
652.515	29.83
652.704	29.98
652.893	29.92
653.082	30.51
653.271	30.46
653.46	30.67
653.649	30.78
653.838	30.87
654.027	31.02
654.216	30.92
654.405	30.98
654.594	30.84
654.783	30.59
654.972	30.7
655.161	30.51
655.35	30.28
655.539	30.32
655.728	30.27
655.916	30.16
656.105	29.84
656.294	29.9
656.483	29.62
656.672	29.49
656.86	29.62
657.049	29.37
657.238	29.08
657.427	29.25
657.615	29.14
657.804	29.35
657.993	29.24
658.181	29.32
658.37	29.39
658.559	29.31
658.747	29.27
658.936	29.29
659.125	29.27
659.313	29.43
659.502	29.41
659.69	29.4
659.879	29.14
660.067	29.36
660.256	29.44
660.444	29.33
660.633	29.57
660.821	29.81
661.01	29.81
661.198	29.9
661.387	30.04
661.575	30.12
661.763	30.35
661.952	30.45
662.14	30.56
662.328	30.58
662.517	30.93
662.705	31
662.893	30.96
663.082	31.33
663.27	31.65
663.458	31.7
663.646	31.77
663.834	31.73
664.023	31.85
664.211	31.94
664.399	32.03
664.587	32.02
664.775	32.06
664.963	32.13
665.152	31.86
665.34	31.82
665.528	31.72
665.716	31.53
665.904	31.39
666.092	31.61
666.28	31.58
666.468	31.73
666.656	31.51
666.844	31.68
667.032	31.67
667.22	31.62
667.408	31.65
667.596	31.94
667.784	31.94
667.971	32.13
668.159	31.79
668.347	31.58
668.535	31.53
668.723	31.69
668.911	31.47
669.098	31.45
669.286	31.36
669.474	31.3
669.662	31.03
669.849	31.23
670.037	31.24
670.225	31.46
670.413	31.59
670.6	31.51
670.788	31.6
670.976	31.7
671.163	31.91
671.351	32.18
671.538	32.15
671.726	32.3
671.913	32.11
672.101	31.93
672.289	31.99
672.476	31.91
672.664	32.37
672.851	32.57
673.039	32.67
673.226	32.52
673.413	32.33
673.601	32.57
673.788	32.66
673.976	32.83
674.163	32.84
674.35	32.87
674.538	32.9
674.725	32.34
674.912	31.88
675.1	31.71
675.287	31.91
675.474	31.87
675.662	31.74
675.849	31.92
676.036	31.93
676.223	32.21
676.411	32.09
676.598	31.86
676.785	32.06
676.972	32.54
677.159	32.44
677.346	32.4
677.533	32.77
677.721	32.64
677.908	32.47
678.095	32.24
678.282	31.76
678.469	31.79
678.656	31.98
678.843	31.73
679.03	31.38
679.217	31.48
679.404	31.45
679.591	31.18
679.778	31.23
679.964	31.24
680.151	31.59
680.338	31.72
680.525	31.63
680.712	31.69
680.899	31.7
681.086	31.75
681.272	31.83
681.459	31.93
681.646	32.13
681.833	32.41
682.02	32.29
682.206	32.16
682.393	32.48
682.58	32.73
682.766	32.92
682.953	33.35
683.14	33.46
683.326	33.76
683.513	33.89
683.7	33.95
683.886	33.47
684.073	33.91
684.259	33.92
684.446	34.09
684.632	34.19
684.819	34.08
685.005	34.23
685.192	34.6
685.378	34.53
685.565	34.21
685.751	34.42
685.938	34.71
686.124	34.11
686.31	34.48
686.497	34.21
686.683	33.93
686.87	33.92
687.056	33.4
687.242	33.2
687.429	33.08
687.615	33.34
687.801	33.29
687.987	33.25
688.174	33.62
688.36	33.31
688.546	33.24
688.732	33.49
688.918	33.18
689.105	33.45
689.291	33.62
689.477	34.13
689.663	34.31
689.849	34.28
690.035	34.64
690.221	34.82
690.407	35.04
690.593	35.33
690.779	35.27
690.965	35.67
691.151	35.91
691.337	35.76
691.523	35.39
691.709	35.3
691.895	35.69
692.081	35.33
692.267	35.08
692.453	35.31
692.639	35.15
692.825	35.32
693.011	35.32
693.196	35.09
693.382	35.1
693.568	35.27
693.754	35.6
693.94	35.19
694.125	35.57
694.311	35.94
694.497	35.61
694.682	35.62
694.868	35.59
695.054	35.27
695.239	35.91
695.425	35.78
695.611	35.6
695.796	35.13
695.982	34.79
696.168	34.62
696.353	34.48
696.539	34.03
696.724	33.71
696.91	33.29
697.095	33.51
697.281	32.9
697.466	32.74
697.652	32.56
697.837	32.47
698.023	32.41
698.208	32.21
698.393	32.15
698.579	32.29
698.764	32.29
698.949	32.31
699.135	32.44
699.32	32.29
699.505	32.49
699.691	32.44
699.876	32.45
700.061	32.88
700.246	33.16
700.432	32.86
700.617	33.01
700.802	33.39
700.987	33.81
701.172	34.1
701.358	34.69
701.543	34.76
701.728	35.07
701.913	35.42
702.098	35.5
702.283	35.91
702.468	36.39
702.653	36.54
702.838	36.8
703.023	37.04
703.208	36.55
703.393	36.26
703.578	36.39
703.763	36.8
703.948	36.98
704.133	37.31
704.318	37.19
704.503	37.57
704.688	37.86
704.873	38
705.057	37.88
705.242	38.2
705.427	38.86
705.612	39.09
705.797	39.06
705.981	38.89
706.166	38.56
706.351	38.58
706.536	38.81
706.72	38.95
706.905	38.83
707.09	39.53
707.274	39.95
707.459	39.75
707.644	40.01
707.828	40.16
708.013	40.03
708.197	40
708.382	40.21
708.567	40.12
708.751	39.74
708.936	39.41
709.12	38.72
709.305	38.57
709.489	38.45
709.673	38.03
709.858	37.9
710.042	37.9
710.227	37.71
710.411	37.8
710.596	37.66
710.78	38.09
710.964	38.37
711.149	38.61
711.333	38.19
711.517	38.39
711.702	38.72
711.886	38.35
712.07	38.55
712.254	38.54
712.438	38.42
712.623	38.13
712.807	37.92
712.991	37.85
713.175	37.68
713.359	37.98
713.544	37.6
713.728	37.19
713.912	37.39
714.096	37.06
714.28	36.85
714.464	36.65
714.648	36.62
714.832	36.5
715.016	36.55
715.2	36.19
715.384	36.17
715.568	36.56
715.752	36.35
715.936	36.23
716.12	36.22
716.304	36.68
716.488	36.55
716.671	36.53
716.855	36.49
717.039	36.3
717.223	36.32
717.407	36.4
717.59	36.18
717.774	36.63
717.958	36.72
718.142	36.76
718.325	37.06
718.509	37.15
718.693	37.14
718.877	37.46
719.06	37.81
719.244	38.12
719.428	37.98
719.611	38.33
719.795	38.19
719.978	38.64
720.162	39.01
720.345	38.76
720.529	39.22
720.713	39.83
720.896	39.39
721.08	39.25
721.263	39.63
721.446	39.6
721.63	39.33
721.813	39.61
721.997	39.65
722.18	39.65
722.364	39.96
722.547	39.86
722.73	39.67
722.914	40.39
723.097	40.34
723.28	40.3
723.464	40.42
723.647	40.53
723.83	40.76
724.013	40.73
724.197	40.53
724.38	40.42
724.563	40.47
724.746	40.52
724.929	40.78
725.112	41.06
725.296	40.35
725.479	40.4
725.662	40.22
725.845	40.31
726.028	39.9
726.211	39.94
726.394	40.3
726.577	39.87
726.76	40.03
726.943	39.63
727.126	38.96
727.309	39.19
727.492	39.48
727.675	39.37
727.858	38.74
728.041	38.71
728.224	39.17
728.407	38.41
728.589	38.75
728.772	38.51
728.955	37.96
729.138	38.85
729.321	38.83
729.503	38.59
729.686	38.52
729.869	38.47
730.052	38.45
730.234	38.37
730.417	38.61
730.6	38.47
730.782	38.73
730.965	39.44
731.148	39.03
731.33	39.6
731.513	39.51
731.695	39.57
731.878	39.75
732.061	39.7
732.243	39.77
732.426	39.79
732.608	40.16
732.791	40.08
732.973	39.86
733.156	39.46
733.338	39.3
733.52	39.77
733.703	39.63
733.885	40.12
734.068	40.38
734.25	40.46
734.432	40.44
734.615	40.12
734.797	40.13
734.979	40.51
735.162	40.95
735.344	40.88
735.526	39.74
735.708	40.03
735.891	39.64
736.073	39.78
736.255	39.96
736.437	40
736.619	40.19
736.802	40.19
736.984	39.86
737.166	40.25
737.348	40.43
737.53	41.25
737.712	41.18
737.894	41.22
738.076	41.25
738.258	41.17
738.44	41.41
738.622	41.53
738.804	41.69
738.986	41.56
739.168	41.09
739.35	40.49
739.532	40.67
739.714	41.31
739.896	41.22
740.078	41.54
740.259	40.89
740.441	41.12
740.623	41.45
740.805	41.25
740.987	41.7
741.168	42.28
741.35	43.56
741.532	43.44
741.714	43.61
741.895	44.52
742.077	44.59
742.259	45.16
742.44	45.51
742.622	45.67
742.804	46.09
742.985	46.47
743.167	46.44
743.348	45.8
743.53	46.34
743.711	45.82
743.893	45.54
744.075	45.71
744.256	45.42
744.438	45.67
744.619	45.2
744.8	45.59
744.982	45.17
745.163	45.13
745.345	46.18
745.526	46.1
745.707	46.76
745.889	46.35
746.07	46.36
746.252	46.99
746.433	46.4
746.614	46.43
746.795	46.36
746.977	46.14
747.158	46.98
747.339	46.67
747.52	46.26
747.702	45.85
747.883	46.6
748.064	46.26
748.245	45.7
748.426	45.73
748.607	46.19
748.788	45.79
748.97	46.11
749.151	45.64
749.332	45.82
749.513	46.26
749.694	46.69
749.875	46.74
750.056	47.03
750.237	46.86
750.418	47.5
750.599	47.43
750.78	47.67
750.96	48.06
751.141	47.69
751.322	47.59
751.503	47.62
751.684	47.1
751.865	47.21
752.046	47.11
752.226	47.13
752.407	46.7
752.588	46.21
752.769	45.73
752.949	44.91
753.13	45.07
753.311	45.27
753.492	45.59
753.672	45.77
753.853	45.31
754.034	45
754.214	46.35
754.395	46.25
754.575	46.75
754.756	47.86
754.937	48.81
755.117	48.63
755.298	47.75
755.478	48.02
755.659	47.97
755.839	48.27
756.02	48.63
756.2	47.87
756.381	48.04
756.561	47.89
756.741	46.95
756.922	46.45
757.102	46.7
757.283	46.66
757.463	46.3
757.643	46.8
757.823	46.29
758.004	45.85
758.184	45.65
758.364	46.23
758.545	46.41
758.725	46.34
758.905	46.6
759.085	47.14
759.265	47.05
759.446	46.8
759.626	46.94
759.806	46.72
759.986	46.74
760.166	47.09
760.346	46.36
760.526	46.51
760.706	46.27
760.886	45.95
761.066	45.7
761.246	45.38
761.426	45.15
761.606	44.17
761.786	44.14
761.966	44.54
762.146	43.94
762.326	43.76
762.506	42.81
762.686	42.55
762.866	41.96
763.046	41.11
763.225	41.05
763.405	40.67
763.585	40.23
763.765	40.11
763.945	39.41
764.124	39.62
764.304	39.29
764.484	39.36
764.664	39.27
764.843	39.85
765.023	40.18
765.203	40.62
765.382	40.7
765.562	41.7
765.741	42.16
765.921	42.86
766.101	42.75
766.28	43.37
766.46	43.81
766.639	44.56
766.819	45.16
766.998	45.44
767.178	45.76
767.357	46.21
767.537	46.07
767.716	45.99
767.896	46.39
768.075	47.18
768.254	47.05
768.434	47.81
768.613	48.41
768.792	48.45
768.972	49.51
769.151	49.9
769.33	50.15
769.51	51.2
769.689	52.1
769.868	52.66
770.047	53.8
770.226	53.74
770.406	53.03
770.585	53.43
770.764	52.45
770.943	51.35
771.122	51.36
771.301	52.03
771.48	52.13
771.66	52.24
771.839	52.03
772.018	51.09
772.197	52.3
772.376	53.45
772.555	53.45
772.734	54.18
772.913	54.2
773.092	53.74
773.271	52.76
773.449	52.81
773.628	52.59
773.807	52.74
773.986	53.06
774.165	52.37
774.344	52.7
774.523	51.7
774.701	51.98
774.88	53.26
775.059	53.63
775.238	54.63
775.417	54.82
775.595	55.6
775.774	54.98
775.953	54.98
776.131	55.33
776.31	54.29
776.489	54.9
776.667	55.23
776.846	55.06
777.025	54.56
777.203	53.85
777.382	53.67
777.56	52.95
777.739	53.69
777.917	53.82
778.096	54.49
778.274	55.07
778.453	55.45
778.631	55.3
778.81	54.82
778.988	56.13
779.166	56.35
779.345	56.28
779.523	55.86
779.702	56.7
779.88	56.52
780.058	55.86
780.237	55.36
780.415	55.38
780.593	55.88
780.771	56.81
780.95	56.87
781.128	57.77
781.306	57.43
781.484	59.19
781.662	58.55
781.841	58.67
782.019	59.56
782.197	61
782.375	60.72
782.553	60.11
782.731	59.45
782.909	58.57
783.087	58.11
783.265	59.24
783.443	58.56
783.621	58.76
783.799	59.27
783.977	59.58
784.155	58.4
784.333	57.93
784.511	57.76
784.689	57.27
784.867	58.71
785.045	59.4
785.223	59.33
785.4	58.39
785.578	57.78
785.756	57.46
785.934	56.48
786.112	56.43
786.289	58.09
786.467	58.03
786.645	59.46
786.823	58.22
787	58.52
787.178	57.14
787.356	56.95
787.533	56.73
787.711	56.44
787.889	55.73
788.066	55.41
788.244	54.34
788.421	54.68
788.599	54.09
788.776	54.04
788.954	53.55
789.131	54.1
789.309	54.11
789.486	54.22
789.664	54.05
789.841	54.79
790.019	55.1
790.196	55.48
790.373	55.48
790.551	55.61
790.728	56.05
790.906	57.44
791.083	58.58
791.26	59.07
791.437	59.96
791.615	60.14
791.792	60.8
791.969	62.07
792.146	61.46
792.324	61.51
792.501	62.14
792.678	62.32
792.855	61.15
793.032	59.65
793.209	60.82
793.387	61.02
793.564	61.41
793.741	60.81
793.918	60.15
794.095	62.03
794.272	62.48
794.449	61.3
794.626	61.44
794.803	60.91
794.98	61.3
795.157	59.63
795.334	59.15
795.511	58.81
795.688	59.1
795.864	58.31
796.041	56.24
796.218	57.26
796.395	58.6
796.572	58.18
796.749	58.43
796.925	58.31
797.102	59.41
797.279	58.45
797.456	58.6
797.632	57.7
797.809	57.74
797.986	59.71
798.162	58.34
798.339	57.22
798.516	57.22
798.692	57.86
798.869	57.86
799.046	58.12
799.222	59.76
799.399	59.97
799.575	60.92
799.752	61.97
799.928	60.99
800.105	62.11
800.281	62.52
800.458	63.18
800.634	63.59
800.811	63.45
800.987	63.8
801.163	62.54
801.34	62.25
801.516	62.85
801.692	63.29
801.869	64.65
802.045	62.73
802.221	63.56
802.398	63.05
802.574	63.64
802.75	63.48
802.926	62.8
803.103	64.45
803.279	65.09
803.455	64.05
803.631	64.27
803.807	64.62
803.983	66.83
804.16	66.9
804.336	68.92
804.512	69.48
804.688	70.04
804.864	70.99
805.04	70.3
805.216	71.12
805.392	73.12
805.568	73.71
805.744	72.56
805.92	72.67
806.096	71.8
806.272	72.4
806.448	72.41
806.623	73.67
806.799	72.81
806.975	73.48
807.151	72.21
807.327	70.75
807.503	69.76
807.678	69.44
807.854	68.25
808.03	69.61
808.206	67.55
808.381	65.46
808.557	65.15
808.733	65.68
808.908	64.49
809.084	64.73
809.26	64.6
809.435	64.29
809.611	64.88
809.787	64.91
809.962	65.35
810.138	65.89
810.313	66.82
810.489	68.69
810.664	67.1
810.84	67.42
811.015	69.17
811.191	70.03
811.366	72.41
811.542	73.33
811.717	73.6
811.892	74.01
812.068	74.3
812.243	74.37
812.419	74.19
812.594	74.61
812.769	75.17
812.944	73.48
813.12	73.8
813.295	72.89
813.47	71.48
813.645	73.19
813.821	73.26
813.996	72.61
814.171	73.2
814.346	73.26
814.521	75.2
814.697	75.77
814.872	76.8
815.047	77.1
815.222	77.88
815.397	78.43
815.572	77.13
815.747	76.36
815.922	76.49
816.097	76.08
816.272	74.6
816.447	73.25
816.622	73.06
816.797	73.3
816.972	72.05
817.147	71.6
817.322	71.73
817.496	70.66
817.671	71.6
817.846	71.3
818.021	71.19
818.196	70.73
818.371	70.92
818.545	70.59
818.72	70.34
818.895	68.67
819.069	66.11
819.244	64.19
819.419	63.35
819.594	60.87
819.768	58.95
819.943	56.08
820.117	53.52
820.292	51.01
820.467	48.21
820.641	44.64
820.816	43.11
820.99	41.47
821.165	39.66
821.339	38.47
821.514	36.73
821.688	35.98
821.863	35.02
822.037	34.6
822.212	34.1
822.386	33.75
822.56	33.46
822.735	33.38
822.909	33.16
823.084	33.38
823.258	33.36
823.432	33.7
823.606	33.89
823.781	34.32
823.955	34.82
824.129	35.15
824.303	35.98
824.478	36.71
824.652	37.02
824.826	37.73
825	38.02
825.174	38.58
825.348	39.73
825.523	40.49
825.697	40.85
825.871	40.46
826.045	40.74
826.219	39.91
826.393	40.61
826.567	40.98
826.741	41.06
826.915	40.97
827.089	40.99
827.263	39.83
827.437	39.5
827.611	40.08
827.784	40.75
827.958	41.36
828.132	42.13
828.306	42.58
828.48	42.89
828.654	43.31
828.827	44.14
829.001	44.83
829.175	46.28
829.349	48.23
829.522	48.82
829.696	50.29
829.87	51.67
830.044	53.67
830.217	54.73
830.391	56.2
830.565	57.8
830.738	59.54
830.912	60.43
831.085	62.95
831.259	63.35
831.432	63.26
831.606	63.39
831.779	63.29
831.953	61.39
832.126	60.45
832.3	59.45
832.473	58.18
832.647	56.47
832.82	54.66
832.994	52.02
833.167	49.99
833.34	50.56
833.514	49.05
833.687	46.86
833.86	47.16
834.034	46.08
834.207	46.66
834.38	46.88
834.553	47.59
834.727	49.15
834.9	50.03
835.073	50.5
835.246	50.69
835.419	51.43
835.593	54.06
835.766	54.92
835.939	57.16
836.112	57.46
836.285	59.33
836.458	61.1
836.631	62.22
836.804	63.62
836.977	66.28
837.15	67.37
837.323	70.27
837.496	72.3
837.669	74.96
837.842	76.73
838.015	79.14
838.188	79.13
838.361	79.33
838.533	79.18
838.706	81.06
838.879	81.75
839.052	84.35
839.225	84.25
839.398	80.66
839.57	80.25
839.743	79.79
839.916	79.99
840.088	81.37
840.261	81.66
840.434	81.7
840.607	79.23
840.779	80.01
840.952	78.6
841.124	79.29
841.297	80.98
841.47	80.43
841.642	81.06
841.815	83.19
841.987	85.69
842.16	88.52
842.332	89.29
842.505	94.32
842.677	96.01
842.85	99.54
843.022	98.57
843.194	101.97
843.367	105.92
843.539	107.26
843.712	104.96
843.884	100.24
844.056	103.43
844.229	108.57
844.401	111.09
844.573	111.13
844.745	109.46
844.918	110.39
845.09	110.74
845.262	112.54
845.434	112.65
845.606	111.17
845.779	119
845.951	115.08
846.123	112.71
846.295	107.92
846.467	105.35
846.639	107.62
846.811	108.73
846.983	110.68
847.155	106.91
847.327	107.1
847.499	113.5
847.671	110
847.843	107.33
848.015	111.38
848.187	116.2
848.359	122.32
848.531	121.96
848.703	125.11
848.875	127.48
849.047	127.82
849.218	129.79
849.39	131.3
849.562	135.74
849.734	133.52
849.905	125.74
850.077	129.73
850.249	131.17
850.421	134.7
850.592	131.93
850.764	125.94
850.936	131.21
851.107	137.74
851.279	137.64
851.451	135.69
851.622	144.4
851.794	160.58
851.965	147.48
852.137	146.76
852.308	144.35
852.48	155.06
852.651	159.31
852.823	156.58
852.994	149.32
853.166	149.48
853.337	153.66
853.509	149.1
853.68	141.36
853.851	141.13
854.023	140.37
854.194	141.44
854.365	134.02
854.537	135.15
854.708	138.12
854.879	138.75
855.05	137.28
855.222	136.46
855.393	137.74
855.564	141.63
855.735	147.63
855.906	144.21
856.078	146.67
856.249	154.04
856.42	151.35
856.591	145.12
856.762	150.01
856.933	149.77
857.104	147.29
857.275	147.16
857.446	147.84
857.617	152.33
857.788	152.97
857.959	147.9
858.13	144.45
858.301	150.63
858.472	152.78
858.643	151.08
858.814	155.86
858.985	153.95
859.155	158.67
859.326	154.57
859.497	151.97
859.668	149.24
859.839	152.83
860.009	150.38
860.18	149.5
860.351	150.31
860.522	151.1
860.692	146.82
860.863	154.99
861.034	161.82
861.204	164.45
861.375	165.51
861.546	165.95
861.716	162.81
861.887	169.13
862.057	169.19
862.228	171.43
862.398	161.06
862.569	161.09
862.739	157.38
862.91	152.23
863.08	151.23
863.251	148.93
863.421	156.43
863.592	163.49
863.762	158.83
863.932	152.32
864.103	151.6
864.273	153.38
864.443	149.47
864.614	145.35
864.784	149.09
864.954	146.33
865.125	145.28
865.295	148.83
865.465	143.58
865.635	140.52
865.805	146.71
865.976	149.35
866.146	147.2
866.316	146.43
866.486	148.49
866.656	149.11
866.826	152.72
866.996	154.19
867.166	151.41
867.336	150.21
867.506	149.95
867.676	144.44
867.846	149.68
868.016	152.59
868.186	159.61
868.356	161.67
868.526	154.75
868.696	151.42
868.866	152.77
869.036	152.66
869.206	159.53
869.376	169.2
869.545	176.62
869.715	180.72
869.885	182.55
870.055	178.52
870.224	178.29
870.394	184.75
870.564	187.48
870.734	178.45
870.903	177.28
871.073	172.6
871.243	160.22
871.412	162.75
871.582	150.21
871.751	152.23
871.921	148.85
872.091	152.24
872.26	145
872.43	137.79
872.599	140.91
872.769	134.48
872.938	133.71
873.108	141.07
873.277	133.57
873.446	135.02
873.616	139.08
873.785	138.35
873.955	129.03
874.124	138.02
874.293	139.76
874.463	148.57
874.632	149.05
874.801	155.31
874.971	149.24
875.14	156.69
875.309	160.85
875.478	155.78
875.647	162.31
875.817	164.77
875.986	156.35
876.155	157.54
876.324	148.5
876.493	155.99
876.662	149.78
876.831	146.47
877	143.57
877.17	142.54
877.339	144.23
877.508	146.21
877.677	149.82
877.846	149.92
878.015	152.21
878.184	151.9
878.352	148
878.521	149.99
878.69	153.7
878.859	147.83
879.028	140.99
879.197	133.46
879.366	125.66
879.534	120.7
879.703	109.92
879.872	99.41
880.041	91.49
880.21	86.6
880.378	78.8
880.547	73.73
880.716	68.89
880.884	65.16
881.053	60.56
881.222	58.25
881.39	54.72
881.559	53.94
881.727	52.71
881.896	51.55
882.065	49.56
882.233	48.74
882.402	47.78
882.57	46.64
882.739	45.91
882.907	46.56
883.076	46.31
883.244	45.79
883.412	45.75
883.581	45.74
883.749	46.38
883.918	47.41
884.086	48.93
884.254	51.45
884.423	53.98
884.591	56.32
884.759	58.05
884.927	60.52
885.096	64.2
885.264	67.65
885.432	73.07
885.6	76.18
885.769	80.37
885.937	86.15
886.105	88.6
886.273	94.72
886.441	99.57
886.609	104.74
886.777	106.73
886.945	114.68
887.113	121.51
887.281	121.4
887.449	128.37
887.617	129.13
887.785	125.05
887.953	128.03
888.121	126.23
888.289	130.48
888.457	130.88
888.625	131.64
888.793	132.03
888.961	130.17
889.129	131.98
889.296	132.78
889.464	136.75
889.632	139.74
889.8	141.11
889.967	145.92
890.135	140.06
