Data from 2938801__Reflection_03.txt Node
Date: Thu Mar 12 22:46:13 EDT 2015
User: robert
Spectrometer: USB4E03002
Autoset integration time: false
Trigger mode: 4
Integration Time (sec): 1.000000E-1
Scans to average: 10
Electric dark correction enabled: false
Nonlinearity correction enabled: false
Boxcar width: 5
Stray light correction enabled: false
XAxis mode: Wavelengths
Stop averaging: false
Number of Pixels in Spectrum: 3648
>>>>>Begin Spectral Data<<<<<
177.575	665.42
177.794	1486.11
178.014	519.87
178.233	598
178.452	283.78
178.672	280.15
178.891	325.56
179.11	276.46
179.33	289.33
179.549	307.46
179.768	248.93
179.987	210.23
180.207	224.75
180.426	222.88
180.645	215.76
180.864	241.63
181.084	271.83
181.303	182.58
181.522	157.63
181.741	124.85
181.96	127.82
182.179	129.04
182.398	137.37
182.618	121.85
182.837	121.16
183.056	133.95
183.275	121.78
183.494	115.4
183.713	114.95
183.932	118.99
184.151	120.67
184.37	105.75
184.589	112.01
184.808	105.32
185.027	112.46
185.246	118.76
185.465	106.21
185.684	129.27
185.903	123.82
186.122	127.33
186.341	145.86
186.56	143.28
186.779	153.55
186.998	160.1
187.216	161.84
187.435	152.68
187.654	145.99
187.873	163.08
188.092	147.36
188.311	158.06
188.53	154.44
188.748	137.09
188.967	144.65
189.186	142.75
189.405	139.55
189.623	138.61
189.842	135.59
190.061	134.7
190.28	130.13
190.498	123.73
190.717	121.31
190.936	117.98
191.154	114.14
191.373	108.45
191.592	106.29
191.81	109.42
192.029	103.57
192.248	99.78
192.466	96.42
192.685	86.11
192.904	91.18
193.122	91.84
193.341	102.41
193.559	127.19
193.778	140.07
193.996	146.36
194.215	135.34
194.433	167.06
194.652	205.29
194.87	223.62
195.089	259.38
195.307	226.97
195.526	207.47
195.744	207.77
195.963	178.83
196.181	180.86
196.399	185.71
196.618	173.96
196.836	156.63
197.055	144.04
197.273	147.15
197.491	128.71
197.71	146.87
197.928	162.35
198.146	162.81
198.365	135.16
198.583	134.25
198.801	128.04
199.019	161.11
199.238	150.5
199.456	142.35
199.674	137.39
199.892	147.96
200.111	138.19
200.329	133.49
200.547	148.87
200.765	183.06
200.983	167.58
201.202	161.47
201.42	137.68
201.638	143.48
201.856	151.05
202.074	158.28
202.292	150.37
202.51	129.17
202.728	136.73
202.946	112.73
203.165	112.21
203.383	117.17
203.601	119.56
203.819	118.93
204.037	124.11
204.255	152.2
204.473	135.59
204.691	137.31
204.909	143.54
205.127	126.95
205.345	131.88
205.562	120.27
205.78	112.95
205.998	124.11
206.216	120.67
206.434	121.07
206.652	103.92
206.87	104.66
207.088	97.18
207.306	104.01
207.523	103.74
207.741	102.64
207.959	114.69
208.177	120.32
208.395	100.69
208.612	105.98
208.83	97.05
209.048	96.98
209.266	97.92
209.483	110.57
209.701	107.41
209.919	107.89
210.136	118.38
210.354	110.16
210.572	105.89
210.79	113.89
211.007	109.17
211.225	113.96
211.442	109.96
211.66	111.38
211.878	107
212.095	102.16
212.313	99.86
212.53	92.41
212.748	89.17
212.966	91.3
213.183	85.14
213.401	89.47
213.618	91.16
213.836	92.52
214.053	92.88
214.271	91.17
214.488	102.69
214.705	107.58
214.923	110.48
215.14	118.99
215.358	128.6
215.575	143.65
215.793	135.66
216.01	119.14
216.227	113.48
216.445	110.64
216.662	121.66
216.879	107.03
217.097	114.54
217.314	98.66
217.531	92.81
217.749	91.77
217.966	89.08
218.183	86.24
218.4	87.39
218.618	93.52
218.835	92.91
219.052	91.46
219.269	87.47
219.487	82.9
219.704	88.64
219.921	87.78
220.138	77.32
220.355	75.9
220.572	78.16
220.79	82.17
221.007	73.78
221.224	74.3
221.441	70.19
221.658	70.98
221.875	63.24
222.092	63.67
222.309	65.4
222.526	67.87
222.743	65.63
222.96	60.51
223.177	58.2
223.394	58.85
223.611	57.84
223.828	58.15
224.045	54.59
224.262	52.68
224.479	50.37
224.696	47.35
224.913	43.6
225.13	45.51
225.347	43.85
225.564	40.02
225.781	37.8
225.997	36.13
226.214	32.39
226.431	31.62
226.648	29.52
226.865	26.1
227.082	25.05
227.298	22.07
227.515	18.62
227.732	17.77
227.949	17.75
228.165	16.12
228.382	14.05
228.599	13.6
228.816	13.02
229.032	13.41
229.249	12.53
229.466	11.55
229.682	11.29
229.899	11.41
230.116	10.93
230.332	10.68
230.549	11.34
230.765	12.7
230.982	14.09
231.199	13.93
231.415	13.93
231.632	17.02
231.848	18.04
232.065	19.12
232.281	19.59
232.498	19.32
232.714	18.83
232.931	19.6
233.147	18.88
233.364	18.36
233.58	18.47
233.797	17.43
234.013	15.82
234.23	15.07
234.446	16.05
234.662	15.67
234.879	16.28
235.095	17.26
235.312	16.97
235.528	17.8
235.744	18.36
235.961	18.65
236.177	20.71
236.393	21.29
236.61	22.73
236.826	22.64
237.042	22.52
237.258	23.55
237.475	21.75
237.691	21.83
237.907	21.07
238.123	19.66
238.339	18.64
238.556	17.54
238.772	16.86
238.988	15.75
239.204	15.72
239.42	16.03
239.636	15.31
239.853	15.31
240.069	14.94
240.285	14.33
240.501	13.6
240.717	13.35
240.933	12.85
241.149	11.71
241.365	11.04
241.581	11.15
241.797	11.07
242.013	11.72
242.229	11.94
242.445	11.91
242.661	11.85
242.877	11.78
243.093	12.17
243.309	12.86
243.525	13.17
243.741	13.67
243.957	13.81
244.173	13.42
244.388	13.03
244.604	12.91
244.82	12.58
245.036	12.47
245.252	12.47
245.468	11.42
245.683	10.74
245.899	10.82
246.115	10.62
246.331	10.09
246.547	10.27
246.762	9.91
246.978	9.64
247.194	9.43
247.409	9.32
247.625	9.12
247.841	9.28
248.057	9.14
248.272	8.84
248.488	8.81
248.703	8.95
248.919	8.8
249.135	9.25
249.35	9.83
249.566	10.46
249.782	10.83
249.997	11.69
250.213	12.03
250.428	12.6
250.644	12.9
250.859	12.55
251.075	12.57
251.29	12.32
251.506	11.62
251.721	10.93
251.937	10.29
252.152	10.5
252.368	10.09
252.583	10.42
252.798	10.32
253.014	10.47
253.229	11.01
253.445	11.29
253.66	11.86
253.875	12.05
254.091	12.24
254.306	12.8
254.521	11.68
254.737	11.06
254.952	10.57
255.167	10.36
255.383	10.76
255.598	10.15
255.813	9.69
256.028	9.66
256.244	9.9
256.459	10.48
256.674	10.13
256.889	10.94
257.104	11.72
257.32	11.71
257.535	10.78
257.75	10.66
257.965	10.67
258.18	9.91
258.395	9.43
258.61	8.7
258.826	8.23
259.041	8.06
259.256	7.57
259.471	7.27
259.686	7.01
259.901	7.26
260.116	6.92
260.331	6.94
260.546	7.22
260.761	7.28
260.976	7.57
261.191	7.5
261.406	7.56
261.621	8.14
261.836	8.46
262.05	8.76
262.265	8.72
262.48	9.37
262.695	9.38
262.91	9.16
263.125	9.66
263.34	10.34
263.555	11.04
263.769	11.12
263.984	10.43
264.199	10.11
264.414	10.23
264.629	10.42
264.843	10.69
265.058	10.41
265.273	9.92
265.488	10.01
265.702	9.17
265.917	9.09
266.132	9.06
266.346	9.18
266.561	9.37
266.776	9.51
266.99	8.8
267.205	8.53
267.42	8.27
267.634	8.29
267.849	7.98
268.063	8.18
268.278	8.05
268.492	8.19
268.707	8.56
268.922	8.71
269.136	8.36
269.351	9.22
269.565	9
269.78	9.01
269.994	9.53
270.209	9.48
270.423	8.79
270.637	8.5
270.852	8.19
271.066	7.87
271.281	7.41
271.495	7.42
271.709	7.3
271.924	6.86
272.138	7.26
272.353	6.93
272.567	6.61
272.781	7.11
272.996	7.11
273.21	7.35
273.424	7.21
273.638	7.78
273.853	7.83
274.067	7.82
274.281	8.34
274.495	8.29
274.71	8.71
274.924	8.97
275.138	8.28
275.352	8.23
275.566	7.99
275.781	8.05
275.995	7.67
276.209	7.74
276.423	7.66
276.637	7.72
276.851	7.62
277.065	7.47
277.279	7.53
277.493	8.21
277.707	8.42
277.921	8.73
278.135	9.03
278.349	8.93
278.563	8.91
278.777	8.7
278.991	8.45
279.205	8.48
279.419	8.38
279.633	8.33
279.847	8.39
280.061	8.47
280.275	8.13
280.489	7.85
280.703	7.94
280.917	7.87
281.131	7.98
281.344	7.81
281.558	7.5
281.772	7.56
281.986	7.06
282.2	6.6
282.414	6.56
282.627	6.68
282.841	6.95
283.055	7.01
283.269	6.9
283.482	6.86
283.696	7.12
283.91	7.22
284.123	7.21
284.337	7.57
284.551	7.57
284.764	7.78
284.978	7.65
285.192	7.22
285.405	7.09
285.619	6.95
285.833	6.99
286.046	6.94
286.26	6.92
286.473	6.96
286.687	6.99
286.9	7.12
287.114	6.54
287.327	7.03
287.541	7.07
287.754	7.24
287.968	7.72
288.181	7.66
288.395	7.82
288.608	7.95
288.822	7.68
289.035	7.68
289.248	7.94
289.462	8
289.675	7.45
289.889	7.42
290.102	7
290.315	6.81
290.529	6.91
290.742	6.78
290.955	6.81
291.169	7.01
291.382	7.32
291.595	7.14
291.808	7.5
292.022	7.85
292.235	8.41
292.448	8.39
292.661	8.18
292.875	8.06
293.088	8.08
293.301	8.11
293.514	7.96
293.727	7.64
293.94	7.94
294.153	7.78
294.367	7.53
294.58	7.1
294.793	7.49
295.006	7.87
295.219	7.92
295.432	7.87
295.645	7.74
295.858	7.89
296.071	7.87
296.284	7.67
296.497	7.46
296.71	7.62
296.923	7.73
297.136	7.54
297.349	7.16
297.562	7.16
297.775	7.14
297.988	7.14
298.201	7.04
298.414	7.1
298.626	6.86
298.839	7.07
299.052	6.99
299.265	6.82
299.478	7.17
299.691	7.42
299.903	7.53
300.116	7.62
300.329	7.78
300.542	7.89
300.755	7.74
300.967	8.28
301.18	8.4
301.393	8.57
301.605	8.69
301.818	8.64
302.031	8.7
302.243	8.84
302.456	8.96
302.669	8.99
302.881	9.13
303.094	9.07
303.307	9.02
303.519	8.93
303.732	8.83
303.944	8.98
304.157	9.15
304.37	9.23
304.582	9.05
304.795	8.9
305.007	9.08
305.22	9.1
305.432	9.43
305.645	9.34
305.857	9.56
306.069	9.66
306.282	9.58
306.494	9.05
306.707	8.99
306.919	9.19
307.132	9.39
307.344	8.98
307.556	8.75
307.769	8.95
307.981	8.89
308.193	8.74
308.406	8.38
308.618	8.63
308.83	8.71
309.043	8.69
309.255	8.6
309.467	8.56
309.679	8.78
309.892	8.79
310.104	8.4
310.316	8.37
310.528	8.49
310.74	8.51
310.953	8.37
311.165	8.53
311.377	8.49
311.589	8.39
311.801	8.5
312.013	8.39
312.225	8.5
312.437	8.98
312.649	9.08
312.862	9
313.074	9.12
313.286	9.67
313.498	9.57
313.71	9.82
313.922	10
314.134	9.74
314.346	9.93
314.558	10.26
314.77	9.85
314.982	9.58
315.193	9.91
315.405	10.14
315.617	9.82
315.829	9.7
316.041	9.85
316.253	9.42
316.465	9.69
316.677	9.68
316.888	9.55
317.1	9.74
317.312	10.32
317.524	9.98
317.736	9.92
317.947	9.79
318.159	10.28
318.371	10.1
318.583	10.8
318.794	11
319.006	11.33
319.218	11.1
319.43	11.32
319.641	11.49
319.853	11.77
320.064	11.74
320.276	12.14
320.488	12.05
320.699	12.45
320.911	12.21
321.123	12.12
321.334	12
321.546	12.36
321.757	11.86
321.969	11.74
322.18	11.51
322.392	11.91
322.603	11.69
322.815	11.99
323.026	11.44
323.238	11.27
323.449	11.2
323.661	10.83
323.872	10.76
324.083	10.98
324.295	11.07
324.506	11.11
324.718	11.1
324.929	11.25
325.14	11.18
325.352	11.25
325.563	11.57
325.774	12.15
325.986	12.56
326.197	12.74
326.408	13.01
326.62	12.86
326.831	13.13
327.042	13.38
327.253	13.41
327.464	13.48
327.676	13.87
327.887	13.83
328.098	13.6
328.309	13.9
328.52	13.91
328.732	13.95
328.943	14.33
329.154	14.57
329.365	14.54
329.576	14.9
329.787	15.28
329.998	15.57
330.209	15.74
330.42	16.17
330.631	16.05
330.842	16.23
331.053	16.79
331.264	16.44
331.475	16.41
331.686	16.6
331.897	16.39
332.108	16.22
332.319	16.26
332.53	16.58
332.741	16.23
332.952	16.24
333.163	16.38
333.374	16.13
333.585	16.31
333.795	16.63
334.006	16.59
334.217	16.82
334.428	16.81
334.639	16.66
334.849	16.85
335.06	17.05
335.271	17.23
335.482	16.99
335.692	16.94
335.903	17.05
336.114	16.69
336.325	16.84
336.535	16.93
336.746	17.09
336.957	17.06
337.167	16.93
337.378	16.96
337.589	16.86
337.799	17.17
338.01	17.19
338.22	17.02
338.431	17.06
338.642	16.88
338.852	16.5
339.063	16.37
339.273	16.61
339.484	16.49
339.694	16.19
339.905	16.17
340.115	15.88
340.326	15.97
340.536	16.11
340.746	15.94
340.957	15.86
341.167	15.9
341.378	16.1
341.588	16
341.799	15.77
342.009	15.73
342.219	15.7
342.43	15.86
342.64	15.7
342.85	15.78
343.061	16.08
343.271	16.25
343.481	16.46
343.691	16.1
343.902	16.07
344.112	16.25
344.322	16.31
344.532	16.39
344.743	16.52
344.953	16.23
345.163	15.95
345.373	15.79
345.583	15.55
345.793	15.35
346.004	15.27
346.214	15.36
346.424	15.19
346.634	15.24
346.844	15.28
347.054	14.91
347.264	15.19
347.474	15.13
347.684	15.04
347.894	15.26
348.104	15.3
348.314	15.57
348.524	15.3
348.734	15.82
348.944	15.67
349.154	15.21
349.364	15.45
349.574	15.31
349.784	15.45
349.994	15.68
350.204	15.63
350.413	15.68
350.623	15.44
350.833	15.5
351.043	15.38
351.253	15.34
351.463	15.69
351.672	15.48
351.882	15.42
352.092	15.43
352.302	15.35
352.511	15.4
352.721	15.49
352.931	15.66
353.141	15.54
353.35	15.18
353.56	15.13
353.77	14.71
353.979	14.76
354.189	14.89
354.399	14.69
354.608	14.78
354.818	14.59
355.027	14.33
355.237	14.07
355.447	14.14
355.656	14.35
355.866	14.29
356.075	14.47
356.285	14.5
356.494	14.37
356.704	14.61
356.913	14.46
357.123	14.53
357.332	14.33
357.542	14.39
357.751	14.3
357.96	13.91
358.17	13.98
358.379	13.88
358.589	13.59
358.798	13.54
359.007	13.32
359.217	13.1
359.426	12.91
359.635	13.04
359.845	13.17
360.054	13.08
360.263	13.21
360.472	13.27
360.682	13.29
360.891	13.49
361.1	13.55
361.309	13.67
361.519	13.84
361.728	13.88
361.937	13.96
362.146	13.82
362.355	14.04
362.564	14.33
362.774	14.39
362.983	14.42
363.192	14.44
363.401	14.34
363.61	14.3
363.819	14.01
364.028	14
364.237	13.71
364.446	13.65
364.655	13.54
364.864	13.39
365.073	13.47
365.282	13.53
365.491	13.44
365.7	13.47
365.909	13.46
366.118	13.9
366.327	14.02
366.536	14.12
366.745	14.24
366.954	14.26
367.162	14.23
367.371	13.9
367.58	13.91
367.789	14.15
367.998	14.1
368.207	14.06
368.415	14.06
368.624	13.97
368.833	14.1
369.042	14.03
369.25	13.87
369.459	13.8
369.668	14.02
369.877	13.89
370.085	13.61
370.294	13.77
370.503	13.8
370.711	13.5
370.92	13.28
371.129	13.5
371.337	13.51
371.546	13.54
371.754	13.64
371.963	13.31
372.171	13.29
372.38	13.33
372.589	13.2
372.797	13.14
373.006	13.17
373.214	13.31
373.423	12.95
373.631	13.15
373.84	13.15
374.048	12.83
374.256	12.98
374.465	13.02
374.673	12.94
374.882	12.89
375.09	12.92
375.298	12.93
375.507	13.06
375.715	13.12
375.923	13.09
376.132	12.89
376.34	12.92
376.548	12.96
376.757	13.04
376.965	13.05
377.173	13.09
377.381	12.98
377.59	12.6
377.798	12.37
378.006	12.29
378.214	12.14
378.423	12.11
378.631	12.03
378.839	11.86
379.047	11.66
379.255	11.64
379.463	11.74
379.671	11.7
379.879	11.96
380.088	12.3
380.296	12.43
380.504	12.41
380.712	12.33
380.92	12.32
381.128	12.34
381.336	12.56
381.544	12.44
381.752	12.36
381.96	12.48
382.168	12.58
382.376	12.14
382.584	12.1
382.791	12.04
382.999	12.19
383.207	12.2
383.415	12.07
383.623	12.06
383.831	12.11
384.039	12.07
384.247	12.18
384.454	12.1
384.662	12.11
384.87	12.22
385.078	12.33
385.285	12.4
385.493	12.55
385.701	12.81
385.909	12.53
386.116	12.52
386.324	12.62
386.532	12.53
386.739	12.54
386.947	12.68
387.155	12.54
387.362	12.5
387.57	12.38
387.778	12.23
387.985	12.15
388.193	12.34
388.4	12.4
388.608	12.32
388.816	12.23
389.023	12.21
389.231	12.2
389.438	12.15
389.646	12.07
389.853	12.1
390.061	12.04
390.268	11.94
390.475	11.81
390.683	11.73
390.89	11.7
391.098	11.56
391.305	11.54
391.512	11.51
391.72	11.46
391.927	11.28
392.135	11.35
392.342	11.21
392.549	11.26
392.756	11.05
392.964	10.98
393.171	11.06
393.378	10.98
393.586	10.91
393.793	10.73
394	10.69
394.207	10.76
394.414	10.61
394.622	10.8
394.829	10.83
395.036	11.1
395.243	11.32
395.45	11.34
395.657	11.33
395.864	11.36
396.072	11.64
396.279	11.81
396.486	11.85
396.693	12.04
396.9	12
397.107	11.81
397.314	11.79
397.521	11.64
397.728	11.43
397.935	11.72
398.142	11.93
398.349	11.65
398.556	11.55
398.763	11.69
398.97	11.58
399.177	11.55
399.383	11.64
399.59	11.56
399.797	11.75
400.004	11.64
400.211	11.51
400.418	11.3
400.625	11.5
400.831	11.49
401.038	11.55
401.245	11.39
401.452	11.45
401.658	11.41
401.865	11.42
402.072	11.12
402.279	11.27
402.485	11.28
402.692	11.17
402.899	11.12
403.105	11.16
403.312	10.86
403.519	11.02
403.725	10.88
403.932	10.74
404.138	10.86
404.345	10.77
404.552	10.76
404.758	10.71
404.965	10.81
405.171	10.8
405.378	10.87
405.584	10.86
405.791	10.74
405.997	10.86
406.204	11.04
406.41	10.87
406.617	11.06
406.823	11.07
407.029	11.24
407.236	11.26
407.442	11.13
407.649	11.02
407.855	11.11
408.061	11.33
408.268	11.25
408.474	11.39
408.68	11.43
408.887	11.15
409.093	11.24
409.299	11.02
409.505	10.91
409.712	11
409.918	10.86
410.124	11
410.33	10.91
410.537	10.76
410.743	10.64
410.949	10.58
411.155	10.73
411.361	10.52
411.567	10.63
411.773	10.62
411.98	10.7
412.186	10.75
412.392	10.69
412.598	10.69
412.804	10.88
413.01	10.84
413.216	10.96
413.422	11.03
413.628	11.21
413.834	11.25
414.04	11.33
414.246	11.15
414.452	11.22
414.658	11.13
414.864	10.98
415.07	10.91
415.275	10.98
415.481	10.89
415.687	10.77
415.893	10.77
416.099	10.8
416.305	10.74
416.511	10.81
416.716	10.67
416.922	10.63
417.128	10.81
417.334	10.93
417.539	10.81
417.745	10.73
417.951	10.79
418.157	10.69
418.362	10.59
418.568	10.56
418.774	10.52
418.979	10.45
419.185	10.52
419.391	10.37
419.596	10.29
419.802	10.3
420.008	10.36
420.213	10.4
420.419	10.44
420.624	10.43
420.83	10.46
421.035	10.45
421.241	10.54
421.446	10.47
421.652	10.43
421.857	10.41
422.063	10.41
422.268	10.42
422.474	10.37
422.679	10.34
422.885	10.3
423.09	10.35
423.295	10.37
423.501	10.43
423.706	10.46
423.911	10.54
424.117	10.59
424.322	10.57
424.527	10.45
424.733	10.41
424.938	10.37
425.143	10.39
425.349	10.36
425.554	10.39
425.759	10.36
425.964	10.36
426.169	10.38
426.375	10.31
426.58	10.35
426.785	10.48
426.99	10.58
427.195	10.57
427.4	10.63
427.605	10.63
427.811	10.58
428.016	10.62
428.221	10.57
428.426	10.59
428.631	10.63
428.836	10.6
429.041	10.7
429.246	10.68
429.451	10.81
429.656	10.77
429.861	10.88
430.066	10.98
430.271	10.8
430.476	10.83
430.681	10.77
430.886	10.82
431.09	10.89
431.295	10.7
431.5	10.67
431.705	10.64
431.91	10.57
432.115	10.36
432.32	10.35
432.524	10.48
432.729	10.57
432.934	10.53
433.139	10.48
433.343	10.42
433.548	10.56
433.753	10.53
433.958	10.55
434.162	10.64
434.367	10.72
434.572	10.71
434.776	10.67
434.981	10.63
435.186	10.75
435.39	10.8
435.595	10.78
435.799	10.7
436.004	10.72
436.209	10.69
436.413	10.65
436.618	10.7
436.822	10.67
437.027	10.66
437.231	10.63
437.436	10.62
437.64	10.69
437.845	10.68
438.049	10.71
438.253	10.77
438.458	10.78
438.662	10.79
438.867	10.78
439.071	10.87
439.275	10.74
439.48	10.65
439.684	10.57
439.888	10.51
440.093	10.47
440.297	10.45
440.501	10.43
440.706	10.41
440.91	10.42
441.114	10.36
441.318	10.27
441.523	10.4
441.727	10.51
441.931	10.55
442.135	10.53
442.339	10.59
442.543	10.52
442.748	10.51
442.952	10.65
443.156	10.64
443.36	10.6
443.564	10.62
443.768	10.66
443.972	10.66
444.176	10.71
444.38	10.67
444.584	10.69
444.788	10.73
444.992	10.68
445.196	10.53
445.4	10.57
445.604	10.56
445.808	10.52
446.012	10.46
446.216	10.36
446.42	10.3
446.624	10.28
446.828	10.28
447.032	10.29
447.235	10.32
447.439	10.34
447.643	10.25
447.847	10.35
448.051	10.32
448.254	10.3
448.458	10.38
448.662	10.34
448.866	10.35
449.069	10.33
449.273	10.32
449.477	10.37
449.681	10.34
449.884	10.46
450.088	10.45
450.292	10.47
450.495	10.45
450.699	10.46
450.902	10.53
451.106	10.6
451.31	10.68
451.513	10.65
451.717	10.53
451.92	10.61
452.124	10.54
452.327	10.52
452.531	10.65
452.734	10.66
452.938	10.72
453.141	10.63
453.345	10.59
453.548	10.54
453.752	10.61
453.955	10.71
454.158	10.68
454.362	10.63
454.565	10.57
454.769	10.42
454.972	10.55
455.175	10.53
455.379	10.67
455.582	10.77
455.785	10.71
455.988	10.7
456.192	10.62
456.395	10.7
456.598	10.73
456.801	10.82
457.005	10.86
457.208	10.76
457.411	10.76
457.614	10.62
457.817	10.41
458.021	10.44
458.224	10.44
458.427	10.38
458.63	10.39
458.833	10.37
459.036	10.34
459.239	10.37
459.442	10.36
459.645	10.3
459.848	10.34
460.051	10.48
460.254	10.47
460.457	10.53
460.66	10.61
460.863	10.58
461.066	10.6
461.269	10.56
461.472	10.62
461.675	10.62
461.878	10.69
462.081	10.82
462.284	10.78
462.486	10.83
462.689	10.76
462.892	10.76
463.095	10.9
463.298	10.92
463.5	10.96
463.703	10.95
463.906	11.01
464.109	11.06
464.311	11.02
464.514	11.04
464.717	11.1
464.92	11.06
465.122	11.08
465.325	10.94
465.528	10.97
465.73	11
465.933	10.95
466.135	10.87
466.338	10.74
466.541	10.66
466.743	10.57
466.946	10.56
467.148	10.52
467.351	10.42
467.553	10.37
467.756	10.31
467.958	10.33
468.161	10.27
468.363	10.36
468.566	10.41
468.768	10.41
468.971	10.48
469.173	10.43
469.375	10.55
469.578	10.68
469.78	10.73
469.983	10.77
470.185	10.81
470.387	10.78
470.59	10.82
470.792	10.9
470.994	10.95
471.196	10.98
471.399	11.01
471.601	10.99
471.803	10.82
472.005	10.87
472.208	10.83
472.41	10.79
472.612	10.92
472.814	10.84
473.016	10.7
473.218	10.72
473.421	10.68
473.623	10.61
473.825	10.64
474.027	10.7
474.229	10.65
474.431	10.65
474.633	10.65
474.835	10.57
475.037	10.59
475.239	10.65
475.441	10.59
475.643	10.61
475.845	10.71
476.047	10.59
476.249	10.7
476.451	10.74
476.653	10.71
476.855	10.78
477.057	10.71
477.258	10.7
477.46	10.74
477.662	10.77
477.864	10.74
478.066	10.67
478.268	10.76
478.469	10.7
478.671	10.68
478.873	10.75
479.075	10.65
479.276	10.79
479.478	10.82
479.68	10.71
479.882	10.59
480.083	10.65
480.285	10.64
480.487	10.57
480.688	10.5
480.89	10.43
481.091	10.35
481.293	10.4
481.495	10.26
481.696	10.21
481.898	10.17
482.099	10.2
482.301	10.14
482.502	10.11
482.704	10.08
482.905	10.07
483.107	10.03
483.308	9.99
483.51	9.96
483.711	9.94
483.913	9.93
484.114	9.94
484.315	9.93
484.517	9.9
484.718	9.88
484.92	9.88
485.121	9.88
485.322	9.92
485.524	9.97
485.725	9.98
485.926	9.99
486.127	9.99
486.329	10.03
486.53	10.03
486.731	10.06
486.932	10.05
487.134	10.05
487.335	10.04
487.536	10.02
487.737	10.05
487.938	10.02
488.139	10.06
488.341	10.07
488.542	10.06
488.743	10.08
488.944	10.09
489.145	10.12
489.346	10.15
489.547	10.21
489.748	10.23
489.949	10.2
490.15	10.2
490.351	10.22
490.552	10.19
490.753	10.17
490.954	10.15
491.155	10.13
491.356	10.17
491.557	10.13
491.758	10.11
491.959	10.15
492.159	10.17
492.36	10.19
492.561	10.18
492.762	10.26
492.963	10.33
493.164	10.38
493.364	10.42
493.565	10.48
493.766	10.57
493.967	10.63
494.167	10.6
494.368	10.63
494.569	10.7
494.769	10.7
494.97	10.67
495.171	10.64
495.371	10.68
495.572	10.73
495.773	10.7
495.973	10.73
496.174	10.72
496.375	10.76
496.575	10.77
496.776	10.75
496.976	10.78
497.177	10.79
497.377	10.79
497.578	10.72
497.778	10.66
497.979	10.65
498.179	10.66
498.38	10.7
498.58	10.67
498.78	10.64
498.981	10.64
499.181	10.68
499.382	10.66
499.582	10.7
499.782	10.8
499.983	10.87
500.183	10.93
500.383	10.95
500.584	10.89
500.784	10.93
500.984	10.94
501.184	11.05
501.385	11.03
501.585	11.13
501.785	11.13
501.985	11.07
502.185	11.01
502.386	10.91
502.586	10.88
502.786	11.02
502.986	10.98
503.186	11.04
503.386	10.94
503.586	10.95
503.786	10.97
503.987	10.97
504.187	11.04
504.387	11.14
504.587	11.31
504.787	11.34
504.987	11.26
505.187	11.32
505.387	11.32
505.587	11.41
505.786	11.47
505.986	11.47
506.186	11.54
506.386	11.5
506.586	11.48
506.786	11.48
506.986	11.51
507.186	11.55
507.386	11.5
507.585	11.55
507.785	11.54
507.985	11.52
508.185	11.55
508.384	11.55
508.584	11.62
508.784	11.69
508.984	11.64
509.183	11.62
509.383	11.57
509.583	11.64
509.782	11.61
509.982	11.61
510.182	11.66
510.381	11.67
510.581	11.66
510.781	11.72
510.98	11.7
511.18	11.79
511.379	11.87
511.579	11.94
511.778	11.99
511.978	12.02
512.177	12.02
512.377	11.99
512.576	12.05
512.776	12.12
512.975	12.07
513.175	12.11
513.374	12.09
513.573	11.98
513.773	12.09
513.972	12.11
514.172	12.19
514.371	12.31
514.57	12.36
514.77	12.36
514.969	12.38
515.168	12.47
515.367	12.38
515.567	12.39
515.766	12.56
515.965	12.59
516.164	12.58
516.364	12.56
516.563	12.53
516.762	12.59
516.961	12.66
517.16	12.71
517.359	12.77
517.559	12.95
517.758	13.05
517.957	13.18
518.156	13.22
518.355	13.3
518.554	13.4
518.753	13.42
518.952	13.46
519.151	13.43
519.35	13.46
519.549	13.41
519.748	13.4
519.947	13.46
520.146	13.45
520.345	13.44
520.544	13.44
520.743	13.45
520.942	13.52
521.141	13.54
521.339	13.7
521.538	13.76
521.737	13.83
521.936	13.87
522.135	13.92
522.333	13.88
522.532	13.95
522.731	14.02
522.93	14.07
523.129	14.08
523.327	14.16
523.526	14.19
523.725	14.31
523.923	14.44
524.122	14.49
524.321	14.53
524.519	14.62
524.718	14.65
524.917	14.73
525.115	14.85
525.314	14.93
525.512	14.98
525.711	15.01
525.909	14.98
526.108	14.95
526.306	15.04
526.505	15.01
526.703	14.96
526.902	15.03
527.1	15.03
527.299	15.02
527.497	15.06
527.696	15.06
527.894	15.09
528.092	15.12
528.291	15.17
528.489	15.13
528.688	15.2
528.886	15.23
529.084	15.25
529.283	15.27
529.481	15.3
529.679	15.31
529.877	15.41
530.076	15.44
530.274	15.51
530.472	15.56
530.67	15.64
530.869	15.71
531.067	15.79
531.265	15.81
531.463	15.92
531.661	15.94
531.859	16.01
532.057	16
532.255	16.04
532.454	16.06
532.652	16.09
532.85	16.16
533.048	16.12
533.246	16.23
533.444	16.32
533.642	16.33
533.84	16.41
534.038	16.52
534.236	16.57
534.434	16.63
534.632	16.76
534.83	16.8
535.027	16.85
535.225	16.94
535.423	16.93
535.621	16.98
535.819	16.96
536.017	16.98
536.215	16.94
536.412	16.97
536.61	17.01
536.808	16.98
537.006	17.06
537.203	17.15
537.401	17.25
537.599	17.32
537.797	17.31
537.994	17.44
538.192	17.59
538.39	17.66
538.587	17.82
538.785	17.88
538.983	17.93
539.18	17.93
539.378	17.89
539.575	17.93
539.773	18
539.97	18.04
540.168	18
540.366	17.92
540.563	17.95
540.761	17.9
540.958	17.93
541.155	17.93
541.353	17.99
541.55	17.99
541.748	17.92
541.945	17.9
542.143	17.95
542.34	18.02
542.537	18.07
542.735	18.07
542.932	18.11
543.129	18.08
543.327	18.09
543.524	18.09
543.721	18.16
543.919	18.32
544.116	18.32
544.313	18.35
544.51	18.43
544.708	18.48
544.905	18.48
545.102	18.5
545.299	18.6
545.496	18.68
545.693	18.71
545.891	18.72
546.088	18.7
546.285	18.71
546.482	18.64
546.679	18.66
546.876	18.66
547.073	18.69
547.27	18.68
547.467	18.73
547.664	18.79
547.861	18.82
548.058	18.91
548.255	18.91
548.452	19.03
548.649	19.17
548.846	19.13
549.043	19.23
549.24	19.4
549.437	19.54
549.633	19.45
549.83	19.42
550.027	19.35
550.224	19.36
550.421	19.5
550.618	19.49
550.814	19.54
551.011	19.53
551.208	19.46
551.405	19.42
551.601	19.28
551.798	19.42
551.995	19.41
552.191	19.49
552.388	19.39
552.585	19.33
552.781	19.39
552.978	19.3
553.175	19.32
553.371	19.32
553.568	19.3
553.764	19.37
553.961	19.35
554.157	19.39
554.354	19.45
554.55	19.53
554.747	19.58
554.943	19.66
555.14	19.7
555.336	19.84
555.533	19.9
555.729	19.93
555.926	20.02
556.122	20.02
556.318	19.98
556.515	19.96
556.711	19.95
556.907	19.88
557.104	19.87
557.3	19.96
557.496	19.9
557.693	19.91
557.889	19.98
558.085	20.04
558.281	20.13
558.478	20.17
558.674	20.27
558.87	20.27
559.066	20.32
559.262	20.35
559.459	20.29
559.655	20.23
559.851	20.2
560.047	20.12
560.243	20.06
560.439	19.95
560.635	19.93
560.831	19.92
561.027	19.93
561.223	19.87
561.419	19.69
561.615	19.77
561.811	19.94
562.007	20.01
562.203	20.09
562.399	20.12
562.595	20.02
562.791	20.16
562.987	20.15
563.183	20.24
563.379	20.18
563.575	20.29
563.771	20.17
563.966	20.07
564.162	20.09
564.358	20.19
564.554	20.08
564.75	20.17
564.945	20.1
565.141	20
565.337	19.93
565.533	19.97
565.728	20.04
565.924	20.07
566.12	20.02
566.315	19.98
566.511	19.85
566.707	19.83
566.902	19.96
567.098	19.94
567.293	20.02
567.489	20.02
567.684	20.08
567.88	20.03
568.076	20.06
568.271	20.2
568.467	20.25
568.662	20.36
568.858	20.4
569.053	20.38
569.248	20.37
569.444	20.38
569.639	20.45
569.835	20.47
570.03	20.42
570.225	20.37
570.421	20.32
570.616	20.22
570.812	20.16
571.007	20.25
571.202	20.28
571.397	20.31
571.593	20.33
571.788	20.37
571.983	20.32
572.178	20.36
572.374	20.45
572.569	20.35
572.764	20.41
572.959	20.43
573.154	20.41
573.35	20.38
573.545	20.24
573.74	20.22
573.935	20.1
574.13	20.08
574.325	20.07
574.52	20.09
574.715	20.17
574.91	20.18
575.105	20.25
575.3	20.22
575.495	20.15
575.69	20.3
575.885	20.31
576.08	20.4
576.275	20.52
576.47	20.59
576.665	20.58
576.86	20.76
577.055	20.74
577.25	20.63
577.444	20.68
577.639	20.85
577.834	20.92
578.029	20.98
578.224	21.04
578.418	21.14
578.613	21.13
578.808	21.13
579.003	20.97
579.197	20.99
579.392	21.04
579.587	21.07
579.781	20.88
579.976	20.84
580.171	20.84
580.365	20.74
580.56	20.59
580.755	20.65
580.949	20.75
581.144	20.82
581.338	20.96
581.533	21.07
581.727	20.94
581.922	21.17
582.116	21.16
582.311	21.15
582.505	21.32
582.7	21.49
582.894	21.5
583.089	21.42
583.283	21.35
583.478	21.24
583.672	21.33
583.866	21.45
584.061	21.24
584.255	21.31
584.449	21.2
584.644	21.15
584.838	20.99
585.032	20.95
585.226	20.93
585.421	21.1
585.615	21.01
585.809	20.99
586.003	21.03
586.198	21.27
586.392	21.4
586.586	21.61
586.78	21.67
586.974	21.68
587.168	21.7
587.363	21.7
587.557	21.68
587.751	21.72
587.945	21.65
588.139	21.71
588.333	21.59
588.527	21.41
588.721	21.46
588.915	21.38
589.109	21.25
589.303	21.33
589.497	21.27
589.691	21.26
589.885	21.45
590.079	21.42
590.273	21.45
590.466	21.62
590.66	21.68
590.854	21.62
591.048	21.78
591.242	21.84
591.436	21.73
591.629	21.75
591.823	21.81
592.017	21.55
592.211	21.63
592.404	21.53
592.598	21.38
592.792	21.36
592.986	21.35
593.179	21.22
593.373	21.27
593.567	21.3
593.76	21.33
593.954	21.27
594.147	21.48
594.341	21.35
594.535	21.24
594.728	21.16
594.922	21.09
595.115	21.15
595.309	21.18
595.502	21.29
595.696	21.3
595.889	21.35
596.083	21.33
596.276	21.31
596.47	21.44
596.663	21.48
596.856	21.45
597.05	21.52
597.243	21.39
597.437	21.41
597.63	21.33
597.823	21.36
598.017	21.47
598.21	21.58
598.403	21.57
598.596	21.53
598.79	21.61
598.983	21.74
599.176	21.72
599.369	21.93
599.563	22.04
599.756	22.09
599.949	22.03
600.142	22.03
600.335	22.09
600.528	22.05
600.722	22.05
600.915	22.19
601.108	22.15
601.301	22.14
601.494	22.13
601.687	22.06
601.88	22.02
602.073	22.03
602.266	21.79
602.459	21.7
602.652	21.73
602.845	21.69
603.038	21.69
603.231	21.7
603.424	21.68
603.617	21.54
603.809	21.61
604.002	21.71
604.195	21.66
604.388	21.79
604.581	21.82
604.774	21.85
604.966	21.84
605.159	21.73
605.352	21.86
605.545	21.93
605.737	22.02
605.93	22.03
606.123	21.94
606.316	22.12
606.508	22.2
606.701	22.34
606.894	22.35
607.086	22.44
607.279	22.52
607.471	22.45
607.664	22.63
607.857	22.71
608.049	22.76
608.242	22.85
608.434	23.03
608.627	23.15
608.819	23.18
609.012	23.45
609.204	23.76
609.397	24.09
609.589	24.48
609.782	24.8
609.974	25.21
610.166	25.6
610.359	26.09
610.551	26.39
610.743	26.65
610.936	26.86
611.128	27.01
611.32	27.21
611.513	27.32
611.705	27.32
611.897	27.33
612.09	27.3
612.282	27.17
612.474	26.9
612.666	26.8
612.858	26.63
613.051	26.71
613.243	26.59
613.435	26.45
613.627	26.22
613.819	26.04
614.011	25.85
614.203	25.64
614.395	25.39
614.588	25.44
614.78	25.09
614.972	25.04
615.164	24.61
615.356	24.38
615.548	24.23
615.74	24.3
615.932	24.23
616.124	24.11
616.315	23.97
616.507	23.97
616.699	23.85
616.891	23.65
617.083	23.5
617.275	23.7
617.467	23.59
617.659	23.59
617.85	23.35
618.042	23.33
618.234	23.11
618.426	23.1
618.618	23.17
618.809	22.95
619.001	23.13
619.193	23.23
619.384	22.99
619.576	23.11
619.768	22.97
619.959	23.08
620.151	23.16
620.343	23.3
620.534	23.35
620.726	23.14
620.917	23.29
621.109	23.38
621.301	23.38
621.492	23.43
621.684	23.37
621.875	23.28
622.067	23.4
622.258	23.21
622.45	23.34
622.641	23.5
622.832	23.61
623.024	23.64
623.215	23.62
623.407	23.55
623.598	23.64
623.789	23.86
623.981	24.11
624.172	23.96
624.363	24.04
624.555	23.93
624.746	23.63
624.937	23.59
625.129	23.59
625.32	23.47
625.511	23.37
625.702	23.43
625.893	23.31
626.085	23.25
626.276	23.25
626.467	23.35
626.658	23.26
626.849	23.36
627.04	23.43
627.231	23.39
627.422	23.49
627.614	23.67
627.805	23.56
627.996	23.62
628.187	23.64
628.378	23.73
628.569	23.76
628.76	23.91
628.951	24.03
629.142	24.07
629.332	24.21
629.523	24.24
629.714	24.09
629.905	24.3
630.096	24.41
630.287	24.35
630.478	24.31
630.669	24.38
630.859	24.3
631.05	24.39
631.241	24.34
631.432	24.18
631.623	24.23
631.813	24.32
632.004	24.19
632.195	24.07
632.385	24
632.576	23.94
632.767	23.85
632.957	23.84
633.148	23.59
633.339	23.42
633.529	23.53
633.72	23.43
633.91	23.5
634.101	23.44
634.292	23.4
634.482	23.4
634.673	23.49
634.863	23.39
635.054	23.43
635.244	23.64
635.435	23.73
635.625	23.63
635.815	23.58
636.006	23.41
636.196	23.31
636.387	23.43
636.577	23.42
636.767	23.33
636.958	23.18
637.148	23.13
637.338	22.9
637.529	23.07
637.719	23.07
637.909	23.32
638.099	23.27
638.29	23.39
638.48	23.3
638.67	23.43
638.86	23.54
639.05	23.67
639.241	23.72
639.431	23.97
639.621	23.74
639.811	23.68
640.001	23.39
640.191	23.57
640.381	23.61
640.571	23.62
640.761	23.56
640.951	23.49
641.141	23.48
641.331	23.44
641.521	23.09
641.711	23.25
641.901	23.27
642.091	23.34
642.281	23.55
642.471	23.63
642.661	23.54
642.851	23.67
643.041	23.83
643.231	24.04
643.42	24.24
643.61	24.37
643.8	24.47
643.99	24.42
644.18	24.34
644.369	24.05
644.559	24.04
644.749	24.08
644.939	24.06
645.128	23.83
645.318	23.78
645.508	23.6
645.697	23.43
645.887	23.23
646.076	23.4
646.266	23.5
646.456	23.81
646.645	23.8
646.835	23.79
647.024	23.73
647.214	23.73
647.403	23.52
647.593	23.62
647.782	23.95
647.972	24.06
648.161	24.1
648.351	24.25
648.54	24.03
648.73	23.97
648.919	24.09
649.108	24.26
649.298	24.39
649.487	24.54
649.677	24.68
649.866	24.56
650.055	24.6
650.244	24.46
650.434	24.42
650.623	24.16
650.812	24.28
651.002	24.21
651.191	24.08
651.38	24.33
651.569	24.38
651.758	24.41
651.947	24.49
652.137	24.39
652.326	24.24
652.515	24.37
652.704	24.56
652.893	24.67
653.082	24.76
653.271	24.77
653.46	24.29
653.649	24.28
653.838	24.18
654.027	24.41
654.216	24.57
654.405	24.66
654.594	24.4
654.783	24.45
654.972	24.13
655.161	23.94
655.35	23.9
655.539	24.29
655.728	24.29
655.916	24.32
656.105	24.05
656.294	24.14
656.483	24.16
656.672	24.31
656.86	24.53
657.049	24.65
657.238	24.65
657.427	24.73
657.615	24.5
657.804	24.32
657.993	24.23
658.181	24.11
658.37	23.86
658.559	24.07
658.747	23.86
658.936	23.81
659.125	23.62
659.313	23.59
659.502	23.44
659.69	23.38
659.879	23.44
660.067	23.35
660.256	23.49
660.444	23.72
660.633	23.52
660.821	23.67
661.01	23.62
661.198	23.67
661.387	23.67
661.575	23.81
661.763	23.83
661.952	24.12
662.14	24.29
662.328	24.55
662.517	24.36
662.705	24.55
662.893	24.61
663.082	24.75
663.27	24.79
663.458	25.2
663.646	25.29
663.834	25.52
664.023	25.36
664.211	25.39
664.399	25.29
664.587	25.45
664.775	25.55
664.963	25.6
665.152	25.69
665.34	26.09
665.528	26.04
665.716	26.19
665.904	26.11
666.092	26.14
666.28	26.14
666.468	25.86
666.656	26.04
666.844	26.07
667.032	26.06
667.22	25.88
667.408	25.86
667.596	25.75
667.784	25.61
667.971	25.7
668.159	25.56
668.347	25.51
668.535	25.88
668.723	25.57
668.911	25.65
669.098	25.67
669.286	25.62
669.474	25.33
669.662	25.31
669.849	25.24
670.037	25.26
670.225	25.62
670.413	25.87
670.6	25.74
670.788	25.76
670.976	25.61
671.163	25.56
671.351	25.87
671.538	26.07
671.726	26.03
671.913	26.17
672.101	26.17
672.289	25.77
672.476	25.81
672.664	25.83
672.851	26.05
673.039	26.02
673.226	25.99
673.413	25.71
673.601	25.81
673.788	25.99
673.976	26.07
674.163	25.95
674.35	26.27
674.538	26.04
674.725	25.72
674.912	25.85
675.1	25.94
675.287	26.05
675.474	26.15
675.662	26.03
675.849	25.9
676.036	26.01
676.223	26.31
676.411	26.28
676.598	26.17
676.785	26.59
676.972	26.32
677.159	26.31
677.346	26.4
677.533	26.48
677.721	26.41
677.908	26.43
678.095	26.15
678.282	26.06
678.469	25.98
678.656	26.22
678.843	26.07
679.03	26.22
679.217	26.11
679.404	26.25
679.591	26.23
679.778	26.17
679.964	26.06
680.151	26.2
680.338	26.04
680.525	26.09
680.712	25.92
680.899	25.96
681.086	25.86
681.272	25.74
681.459	25.72
681.646	25.67
681.833	25.86
682.02	26.02
682.206	26.08
682.393	26.47
682.58	26.49
682.766	26.73
682.953	26.69
683.14	26.72
683.326	27.21
683.513	26.85
683.7	26.92
683.886	27.1
684.073	27.15
684.259	26.9
684.446	27.07
684.632	27.1
684.819	26.91
685.005	26.94
685.192	27.04
685.378	26.85
685.565	27.07
685.751	27.16
685.938	27.03
686.124	27.07
686.31	27.31
686.497	26.79
686.683	26.99
686.87	27.15
687.056	27.22
687.242	26.87
687.429	26.99
687.615	27.07
687.801	27.15
687.987	27.2
688.174	27.06
688.36	27.11
688.546	27.31
688.732	27.21
688.918	26.81
689.105	26.78
689.291	27.23
689.477	27.14
689.663	27
689.849	26.71
690.035	26.82
690.221	27.02
690.407	27.02
690.593	26.94
690.779	26.98
690.965	27.33
691.151	27.48
691.337	27.71
691.523	28.09
691.709	28.31
691.895	28.4
692.081	28.44
692.267	28.52
692.453	28.55
692.639	28.65
692.825	28.38
693.011	28.31
693.196	28.31
693.382	27.93
693.568	27.71
693.754	27.62
693.94	27.81
694.125	27.8
694.311	27.82
694.497	27.84
694.682	28.02
694.868	28.55
695.054	28.72
695.239	28.89
695.425	28.79
695.611	28.63
695.796	28.5
695.982	28.42
696.168	28.16
696.353	28.12
696.539	28.04
696.724	27.73
696.91	27.52
697.095	27.47
697.281	27.4
697.466	27.66
697.652	27.8
697.837	27.9
698.023	27.69
698.208	27.89
698.393	27.59
698.579	27.54
698.764	27.5
698.949	27.4
699.135	27.26
699.32	27.1
699.505	26.99
699.691	26.94
699.876	26.89
700.061	27.09
700.246	26.82
700.432	27.11
700.617	27.29
700.802	27.43
700.987	27.18
701.172	27.56
701.358	27.73
701.543	27.49
701.728	27.59
701.913	27.57
702.098	27.39
702.283	27.32
702.468	27.25
702.653	27
702.838	27.24
703.023	27.77
703.208	27.41
703.393	27.23
703.578	27.66
703.763	27.46
703.948	27.46
704.133	28.26
704.318	28.79
704.503	29.03
704.688	28.83
704.873	28.68
705.057	28.98
705.242	29.49
705.427	29.8
705.612	29.77
705.797	30.22
705.981	30.69
706.166	30.11
706.351	30.07
706.536	29.76
706.72	30.6
706.905	30.92
707.09	30.92
707.274	30.8
707.459	30.99
707.644	31.01
707.828	30.89
708.013	30.75
708.197	30.84
708.382	31.17
708.567	31.67
708.751	31.11
708.936	30.82
709.12	30.57
709.305	30.46
709.489	30.33
709.673	30.37
709.858	30.29
710.042	30.36
710.227	30.39
710.411	30.19
710.596	29.75
710.78	29.87
710.964	30.29
711.149	30.44
711.333	30.49
711.517	30.18
711.702	30.08
711.886	29.86
712.07	29.64
712.254	29.68
712.438	29.69
712.623	29.72
712.807	29.84
712.991	29.28
713.175	29.04
713.359	28.95
713.544	29.01
713.728	29.13
713.912	29.4
714.096	29.41
714.28	29.07
714.464	28.79
714.648	28.66
714.832	28.41
715.016	28.47
715.2	28.49
715.384	28.59
715.568	28.88
715.752	28.59
715.936	28.41
716.12	28.41
716.304	28.62
716.488	28.9
716.671	28.51
716.855	28.68
717.039	28.38
717.223	28.25
717.407	28.02
717.59	27.84
717.774	28.12
717.958	28.39
718.142	28.21
718.325	28.24
718.509	28.23
718.693	29.08
718.877	28.98
719.06	29.73
719.244	29.57
719.428	29.68
719.611	29.45
719.795	29.27
719.978	29.15
720.162	29.41
720.345	29.63
720.529	29.41
720.713	29.15
720.896	29.42
721.08	29.04
721.263	29.55
721.446	29.68
721.63	30.31
721.813	30.43
721.997	30.19
722.18	30.24
722.364	30.07
722.547	30.36
722.73	30.39
722.914	29.78
723.097	29.91
723.28	30.02
723.464	29.87
723.647	29.65
723.83	29.57
724.013	29.83
724.197	29.75
724.38	29.77
724.563	29.46
724.746	29.25
724.929	29.83
725.112	29.74
725.296	29.65
725.479	29.76
725.662	29.75
725.845	29.65
726.028	29.27
726.211	29.38
726.394	29.5
726.577	29.32
726.76	30.15
726.943	29.72
727.126	29.56
727.309	29.62
727.492	29.41
727.675	29.26
727.858	29.18
728.041	29.33
728.224	29.52
728.407	29.31
728.589	29.89
728.772	29.35
728.955	29.76
729.138	30.3
729.321	29.98
729.503	30.24
729.686	30.64
729.869	30.59
730.052	30.73
730.234	30.76
730.417	30.89
730.6	30.53
730.782	30.47
730.965	30.57
731.148	30.46
731.33	30.96
731.513	30.87
731.695	30.83
731.878	31.25
732.061	31.11
732.243	31.68
732.426	31.52
732.608	31.58
732.791	31.45
732.973	31.05
733.156	30.81
733.338	30.65
733.52	30.94
733.703	30.32
733.885	30.39
734.068	30.62
734.25	29.92
734.432	30.45
734.615	30.7
734.797	30.93
734.979	31.19
735.162	31.36
735.344	31.12
735.526	31.13
735.708	31.53
735.891	31.22
736.073	31.01
736.255	31.03
736.437	30.26
736.619	30.33
736.802	30.64
736.984	30.65
737.166	30.98
737.348	30.93
737.53	30.42
737.712	30.34
737.894	30.79
738.076	30.88
738.258	30.69
738.44	31.22
738.622	31.11
738.804	30.75
738.986	30.75
739.168	30.45
739.35	30.29
739.532	30.75
739.714	30.66
739.896	30.66
740.078	30.29
740.259	30.66
740.441	30.9
740.623	30.79
740.805	31.19
740.987	30.98
741.168	30.77
741.35	31.13
741.532	30.89
741.714	30.94
741.895	30.74
742.077	31
742.259	30.34
742.44	29.71
742.622	29.44
742.804	29.36
742.985	29.61
743.167	29.48
743.348	29.56
743.53	29.43
743.711	29.54
743.893	29.18
744.075	29.19
744.256	29.81
744.438	30.31
744.619	30.78
744.8	30.62
744.982	30.95
745.163	31.71
745.345	31.75
745.526	32.23
745.707	32.66
745.889	32.47
746.07	33.05
746.252	33.07
746.433	32.64
746.614	32.37
746.795	32.08
746.977	31.86
747.158	31.42
747.339	31.32
747.52	31.15
747.702	30.94
747.883	31.16
748.064	30.71
748.245	30.69
748.426	30.75
748.607	31.06
748.788	31.22
748.97	30.93
749.151	31.11
749.332	31.38
749.513	30.78
749.694	30.92
749.875	31.81
750.056	31.82
750.237	32.02
750.418	32.55
750.599	32.15
750.78	31.98
750.96	32.52
751.141	32.23
751.322	32
751.503	32.38
751.684	32.44
751.865	31.53
752.046	31.7
752.226	31
752.407	30.77
752.588	31.28
752.769	31.94
752.949	31.19
753.13	31.38
753.311	30.76
753.492	31.23
753.672	31.19
753.853	31.74
754.034	31.57
754.214	32.42
754.395	32.21
754.575	31.9
754.756	31.81
754.937	32.32
755.117	32.11
755.298	32.89
755.478	32.64
755.659	32.91
755.839	32.62
756.02	32.26
756.2	32.23
756.381	32.45
756.561	32.14
756.741	32.33
756.922	32.41
757.102	32.03
757.283	32.1
757.463	32.29
757.643	32.53
757.823	32.77
758.004	33.46
758.184	33.38
758.364	33.6
758.545	33.76
758.725	33.78
758.905	33.37
759.085	34.21
759.265	34
759.446	34.19
759.626	33.7
759.806	34.06
759.986	33.89
760.166	33.31
760.346	33.17
760.526	33.9
760.706	33.39
760.886	33.36
761.066	33.11
761.246	33.16
761.426	33.04
761.606	32.6
761.786	32.29
761.966	32.13
762.146	32.3
762.326	32.57
762.506	31.93
762.686	32.21
762.866	32.61
763.046	32.42
763.225	32.71
763.405	32.25
763.585	32.28
763.765	32.07
763.945	31.89
764.124	31.95
764.304	31.35
764.484	31.7
764.664	31.92
764.843	31.74
765.023	31.83
765.203	31.76
765.382	31.73
765.562	32.25
765.741	32.16
765.921	32.54
766.101	32.61
766.28	33.21
766.46	33.17
766.639	33.4
766.819	33.15
766.998	33.19
767.178	33.03
767.357	33.74
767.537	33.23
767.716	34
767.896	33.84
768.075	33.36
768.254	32.73
768.434	32.3
768.613	32.21
768.792	32.56
768.972	32.92
769.151	33.01
769.33	32.61
769.51	32.67
769.689	31.97
769.868	31.65
770.047	32.24
770.226	32.66
770.406	32.64
770.585	32.36
770.764	32.72
770.943	32.12
771.122	32.41
771.301	32.66
771.48	32.9
771.66	33.53
771.839	34.13
772.018	34.27
772.197	33.78
772.376	34.68
772.555	34.37
772.734	34.12
772.913	34.87
773.092	34.71
773.271	34.48
773.449	35.02
773.628	34.76
773.807	34.92
773.986	34.17
774.165	34.55
774.344	33.76
774.523	33.52
774.701	33.49
774.88	32.96
775.059	33.23
775.238	32.62
775.417	31.86
775.595	31.21
775.774	31.11
775.953	31.7
776.131	32.49
776.31	32.65
776.489	32.82
776.667	32.95
776.846	33.32
777.025	32.86
777.203	33.45
777.382	33.87
777.56	34.97
777.739	34.48
777.917	34.72
778.096	34.4
778.274	34.92
778.453	35.58
778.631	34.87
778.81	33.81
778.988	33.76
779.166	34.64
779.345	33.99
779.523	33.53
779.702	34.15
779.88	33.92
780.058	33.56
780.237	33.24
780.415	32.77
780.593	33.59
780.771	35.38
780.95	35.9
781.128	35.21
781.306	35.91
781.484	36.01
781.662	35.96
781.841	36.48
782.019	36.23
782.197	36.12
782.375	35.95
782.553	35.3
782.731	34.23
782.909	33.98
783.087	34.43
783.265	34.98
783.443	34.6
783.621	34.12
783.799	33.47
783.977	34.1
784.155	33.98
784.333	34.24
784.511	35.65
784.689	35.85
784.867	36.35
785.045	36.07
785.223	35.71
785.4	35.74
785.578	36.35
785.756	37.27
785.934	37.41
786.112	38.37
786.289	38.44
786.467	38.14
786.645	37.98
786.823	37.66
787	37.61
787.178	37.35
787.356	38.01
787.533	38.69
787.711	37.92
787.889	37.54
788.066	36.49
788.244	36.37
788.421	36.12
788.599	36.07
788.776	36.06
788.954	35.67
789.131	35.38
789.309	35.35
789.486	34.94
789.664	34.72
789.841	35.34
790.019	35.11
790.196	35.45
790.373	35.06
790.551	35.43
790.728	35.53
790.906	36.72
791.083	36.79
791.26	36.45
791.437	36.64
791.615	37.28
791.792	38.06
791.969	37.7
792.146	37.66
792.324	37.32
792.501	36.63
792.678	37.73
792.855	37.03
793.032	37.5
793.209	37.76
793.387	37.64
793.564	38.27
793.741	36.39
793.918	38.05
794.095	38.09
794.272	38.25
794.449	38.88
794.626	37.31
794.803	36.41
794.98	35.9
795.157	35.51
795.334	34.75
795.511	33.3
795.688	33.55
795.864	32.65
796.041	32.3
796.218	32.3
796.395	30.48
796.572	30.25
796.749	31.39
796.925	31.66
797.102	32.98
797.279	33.62
797.456	33.97
797.632	33.72
797.809	34.25
797.986	34.36
798.162	34.14
798.339	35.52
798.516	36.34
798.692	36.53
798.869	35.99
799.046	34.59
799.222	33.01
799.399	33.98
799.575	34.88
799.752	34.88
799.928	34.71
800.105	35.53
800.281	35.2
800.458	35.22
800.634	34.55
800.811	34.52
800.987	34.74
801.163	36.42
801.34	35.38
801.516	35.06
801.692	35.76
801.869	35.57
802.045	35.65
802.221	36.79
802.398	35.1
802.574	35.51
802.75	36.14
802.926	35.15
803.103	35.03
803.279	35.43
803.455	35.7
803.631	35.81
803.807	36.62
803.983	36.94
804.16	35.96
804.336	36.74
804.512	37.43
804.688	37.31
804.864	38.66
805.04	39.36
805.216	38.82
805.392	39.52
805.568	38.85
805.744	39.11
805.92	38.31
806.096	39.34
806.272	41.07
806.448	40.02
806.623	39.21
806.799	39.64
806.975	39.41
807.151	39.23
807.327	38.79
807.503	39.1
807.678	38.95
807.854	39.29
808.03	39.56
808.206	39.4
808.381	39.31
808.557	40.42
808.733	40.46
808.908	40.93
809.084	41.99
809.26	41.22
809.435	40.45
809.611	39.46
809.787	39.47
809.962	38.84
810.138	37.21
810.313	37.06
810.489	36.39
810.664	35.07
810.84	33.81
811.015	32.53
811.191	31.95
811.366	33.73
811.542	33.47
811.717	33.57
811.892	33.21
812.068	33.51
812.243	34.12
812.419	34.47
812.594	35.23
812.769	35.8
812.944	37
813.12	37.77
813.295	36.3
813.47	37.33
813.645	36.4
813.821	35.73
813.996	35.01
814.171	35.39
814.346	35.17
814.521	34.69
814.697	34.9
814.872	33.21
815.047	33.94
815.222	33.79
815.397	32.89
815.572	34.26
815.747	35.15
815.922	35.41
816.097	35.46
816.272	36.46
816.447	37.92
816.622	37.36
816.797	38.58
816.972	38.56
817.147	38.26
817.322	38.6
817.496	38.2
817.671	38.58
817.846	39.11
818.021	39.41
818.196	37.72
818.371	37.32
818.545	38.44
818.72	38.1
818.895	38.14
819.069	38.41
819.244	38.44
819.419	38.2
819.594	37.07
819.768	36.98
819.943	35.68
820.117	35.68
820.292	33.64
820.467	31.95
820.641	31.36
820.816	30.28
820.99	29.71
821.165	29.13
821.339	28.56
821.514	28.35
821.688	28.05
821.863	27.89
822.037	27.65
822.212	27.78
822.386	27.73
822.56	27.47
822.735	27.4
822.909	27.39
823.084	27.29
823.258	27.25
823.432	27.35
823.606	27.42
823.781	27.63
823.955	27.71
824.129	27.8
824.303	27.92
824.478	28.17
824.652	28.31
824.826	28.41
825	28.68
825.174	29.37
825.348	29.38
825.523	29.2
825.697	28.43
825.871	29.09
826.045	29.04
826.219	29.31
826.393	29.34
826.567	29.3
826.741	29.24
826.915	29.05
827.089	28.72
827.263	28.45
827.437	29.24
827.611	29.89
827.784	29.39
827.958	29.82
828.132	29.32
828.306	29.35
828.48	29.72
828.654	29.75
828.827	30.48
829.001	30.65
829.175	31.41
829.349	30.85
829.522	30.57
829.696	31.78
829.87	32.23
830.044	32.93
830.217	34.06
830.391	34.75
830.565	35.26
830.738	34.66
830.912	34.84
831.085	36.08
831.259	38.23
831.432	38.83
831.606	37.97
831.779	36.03
831.953	36.8
832.126	36.16
832.3	35.5
832.473	35.19
832.647	35.5
832.82	35.22
832.994	33.9
833.167	32.38
833.34	32.32
833.514	32.01
833.687	32.54
833.86	32.52
834.034	32.02
834.207	31.95
834.38	31.54
834.553	31.12
834.727	31.26
834.9	31.3
835.073	31.68
835.246	31.63
835.419	32.71
835.593	33.33
835.766	33.02
835.939	33.31
836.112	33.36
836.285	33.76
836.458	34.15
836.631	33.59
836.804	34.97
836.977	34.12
837.15	33.83
837.323	33.95
837.496	33.62
837.669	34.51
837.842	35.75
838.015	36.13
838.188	35.99
838.361	36.37
838.533	37.25
838.706	35.01
838.879	35.89
839.052	36.51
839.225	34.99
839.398	35.61
839.57	36.48
839.743	36.72
839.916	37.06
840.088	37.57
840.261	36.77
840.434	37.65
840.607	40.02
840.779	38.54
840.952	38.28
841.124	38.4
841.297	37.93
841.47	35.94
841.642	35.85
841.815	35.58
841.987	36.95
842.16	39.24
842.332	39.15
842.505	38.15
842.677	40.94
842.85	40.5
843.022	41.67
843.194	42.14
843.367	43.9
843.539	44.16
843.712	45.54
843.884	43.48
844.056	42.98
844.229	44.7
844.401	46.4
844.573	46.37
844.745	49.21
844.918	49.88
845.09	50.29
845.262	49.79
845.434	49.96
845.606	49.75
845.779	53.33
845.951	52.17
846.123	48.55
846.295	47.38
846.467	46.97
846.639	49.29
846.811	48.16
846.983	46.49
847.155	47.83
847.327	47.17
847.499	45.84
847.671	44.57
847.843	43.88
848.015	46.9
848.187	45.54
848.359	44.93
848.531	44.75
848.703	44.55
848.875	48.12
849.047	47.83
849.218	48.48
849.39	51.51
849.562	51.85
849.734	53.88
849.905	55.19
850.077	55.32
850.249	58.4
850.421	53.83
850.592	50.77
850.764	46.88
850.936	46.86
851.107	45.96
851.279	44.4
851.451	44.33
851.622	46.16
851.794	43.47
851.965	46.69
852.137	45.29
852.308	48.77
852.48	49.15
852.651	52.72
852.823	53.35
852.994	52.05
853.166	56.02
853.337	52.7
853.509	52.59
853.68	54.65
853.851	52.92
854.023	50.98
854.194	49.04
854.365	50.95
854.537	50.58
854.708	49.81
854.879	52.51
855.05	46.93
855.222	49.09
855.393	50.59
855.564	50.67
855.735	47.72
855.906	47.36
856.078	47.84
856.249	50.41
856.42	49.97
856.591	49.85
856.762	49.61
856.933	50.86
857.104	49.16
857.275	47.9
857.446	46.18
857.617	47.12
857.788	49.24
857.959	50.28
858.13	48.38
858.301	48
858.472	45.87
858.643	48
858.814	47.28
858.985	46.33
859.155	46.85
859.326	47.12
859.497	48.18
859.668	46.31
859.839	44.09
860.009	42.96
860.18	40.8
860.351	43.23
860.522	44.58
860.692	46.82
860.863	47.67
861.034	47.48
861.204	46.28
861.375	49.46
861.546	51.84
861.716	53.18
861.887	53.67
862.057	58.5
862.228	61.02
862.398	56.09
862.569	56.12
862.739	61.26
862.91	59
863.08	62.27
863.251	60.52
863.421	57.88
863.592	58.36
863.762	60.09
863.932	56.3
864.103	55.64
864.273	53.39
864.443	53.27
864.614	49.26
864.784	50.09
864.954	48.02
865.125	45.27
865.295	49.54
865.465	51.24
865.635	48.76
865.805	51.19
865.976	53.14
866.146	55.29
866.316	52.91
866.486	53.97
866.656	53.62
866.826	54.22
866.996	56.56
867.166	53.63
867.336	52.12
867.506	56.74
867.676	54.11
867.846	53.1
868.016	56.13
868.186	54.27
868.356	56.54
868.526	55.12
868.696	53.45
868.866	50.55
869.036	53.18
869.206	52.58
869.376	53.16
869.545	58.07
869.715	52.89
869.885	43.3
870.055	47.13
870.224	46.6
870.394	48.25
870.564	50.63
870.734	55.12
870.903	53.37
871.073	53.72
871.243	50.6
871.412	47.8
871.582	53.52
871.751	58.51
871.921	62.39
872.091	64.16
872.26	63.19
872.43	60.62
872.599	58.28
872.769	54.56
872.938	53.03
873.108	55.67
873.277	56.72
873.446	52
873.616	52.69
873.785	50.51
873.955	50.07
874.124	48.64
874.293	50.37
874.463	47.72
874.632	53.16
874.801	55.47
874.971	51.73
875.14	50.87
875.309	51.19
875.478	50.26
875.647	49.5
875.817	46.99
875.986	49.96
876.155	52.07
876.324	52.58
876.493	51.99
876.662	51.57
876.831	53.2
877	54.44
877.17	56.93
877.339	57.31
877.508	53.21
877.677	52.18
877.846	55.33
878.015	53.37
878.184	53.84
878.352	51.06
878.521	48.31
878.69	48.38
878.859	46.86
879.028	43.23
879.197	42.74
879.366	44.18
879.534	44.43
879.703	42.18
879.872	41.83
880.041	40.64
880.21	38.89
880.378	38.2
880.547	36
880.716	34.05
880.884	33.35
881.053	32.66
881.222	32.81
881.39	31.67
881.559	30.76
881.727	29.77
881.896	29.6
882.065	29.48
882.233	28.82
882.402	28.89
882.57	28.91
882.739	28.32
882.907	27.92
883.076	27.34
883.244	27.65
883.412	27.65
883.581	27.74
883.749	27.91
883.918	28.33
884.086	29.52
884.254	29.95
884.423	31.12
884.591	32.28
884.759	33.47
884.927	33.36
885.096	34.33
885.264	34.82
885.432	35.97
885.6	35.69
885.769	36.01
885.937	35.68
886.105	36.48
886.273	37.81
886.441	37.86
886.609	39.55
886.777	41.1
886.945	40.47
887.113	39.96
887.281	40.49
887.449	42.62
887.617	43.84
887.785	43.9
887.953	45.29
888.121	44.37
888.289	48.4
888.457	45.46
888.625	48.58
888.793	50.9
888.961	54.64
889.129	57.12
889.296	56.26
889.464	57.11
889.632	59.67
889.8	59.56
889.967	59.51
890.135	57.56
