Data from 2938839__Reflection_03.txt Node
Date: Wed Mar 11 15:54:37 EDT 2015
User: robert
Spectrometer: USB4E03002
Autoset integration time: false
Trigger mode: 4
Integration Time (sec): 1.000000E-1
Scans to average: 10
Electric dark correction enabled: false
Nonlinearity correction enabled: false
Boxcar width: 5
Stray light correction enabled: false
XAxis mode: Wavelengths
Stop averaging: false
Number of Pixels in Spectrum: 3648
>>>>>Begin Spectral Data<<<<<
177.575	-324.44
177.794	9.33
178.014	21.83
178.233	16.18
178.452	-98.39
178.672	-45.31
178.891	-38.46
179.11	1285.71
179.33	105.02
179.549	51.61
179.768	-10.6
179.987	-4.95
180.207	13.46
180.426	38.81
180.645	82.12
180.864	94.93
181.084	213.82
181.303	175.65
181.522	105.99
181.741	500
181.96	-366.22
182.179	-470.21
182.398	-278
182.618	208.84
182.837	123.76
183.056	109.52
183.275	75.31
183.494	51.1
183.713	-125.37
183.932	48.54
184.151	55.64
184.37	-1900
184.589	-410
184.808	-139.2
185.027	-126.81
185.246	-350
185.465	-233.6
185.684	-241.79
185.903	-20.42
186.122	-107.37
186.341	-33.88
186.56	22.06
186.779	125.37
186.998	182.05
187.216	164.88
187.435	175.64
187.654	170.93
187.873	166.23
188.092	121.41
188.311	117.74
188.53	103.63
188.748	78.99
188.967	84.92
189.186	196.35
189.405	169.08
189.623	143.78
189.842	272.93
190.061	1642.31
190.28	423.78
190.498	203.99
190.717	211.28
190.936	177.71
191.154	183.06
191.373	291.16
191.592	-476.54
191.81	-295.54
192.029	-165.83
192.248	-142.28
192.466	-522.22
192.685	-83.5
192.904	-25.56
193.122	-38.51
193.341	-44.84
193.559	-60.47
193.778	-69.46
193.996	-64.1
194.215	-50.84
194.433	-27.92
194.652	-105.46
194.87	-100.49
195.089	-270.23
195.307	-5150
195.526	-447.62
195.744	-1204.35
195.963	2000
196.181	-215.69
196.399	-270.87
196.618	-145.83
196.836	-23.85
197.055	15.57
197.273	9.62
197.491	-6.11
197.71	8.67
197.928	5.25
198.146	-22.64
198.365	4.28
198.583	-26.21
198.801	-52.47
199.019	-95.19
199.238	357.14
199.456	314.81
199.674	766.04
199.892	-104.23
200.111	-22.75
200.329	-29.29
200.547	7.92
200.765	-38.91
200.983	-4.72
201.202	22.14
201.42	-2.39
201.638	-5.31
201.856	1.72
202.074	-8.73
202.292	-27.47
202.51	-5.75
202.728	-63.57
202.946	-194.41
203.165	-189.26
203.383	-84.57
203.601	-23.94
203.819	75.79
204.037	106.35
204.255	248.42
204.473	155.6
204.691	147.92
204.909	70.68
205.127	92.27
205.345	73.59
205.562	73.86
205.78	70.71
205.998	66.27
206.216	66.61
206.434	48.74
206.652	40.16
206.87	42.65
207.088	35.36
207.306	1.05
207.523	-7.96
207.741	87.66
207.959	-169.49
208.177	29.44
208.395	32.3
208.612	36.18
208.83	54.73
209.048	-31.69
209.266	51.46
209.483	55.25
209.701	-1.25
209.919	47.33
210.136	32.75
210.354	-205.71
210.572	27.03
210.79	-81.9
211.007	-65.24
211.225	-29.41
211.442	-64.21
211.66	7.17
211.878	27.83
212.095	439.44
212.313	367.03
212.53	364.73
212.748	308.76
212.966	199.07
213.183	188.01
213.401	171.2
213.618	181.24
213.836	186.84
214.053	160.55
214.271	153.37
214.488	13.04
214.705	13.92
214.923	24.55
215.14	20.55
215.358	17.34
215.575	-3
215.793	-5.38
216.01	6.98
216.227	-9.12
216.445	-43.23
216.662	-19.69
216.879	0
217.097	-7.3
217.314	1.54
217.531	11.78
217.749	26.93
217.966	23.4
218.183	15.35
218.4	10.39
218.618	11.01
218.835	8.9
219.052	-1.38
219.269	3.95
219.487	8.83
219.704	-1.15
219.921	-1.18
220.138	-21.63
220.355	-13.12
220.572	-5.56
220.79	-5.87
221.007	6.52
221.224	10.34
221.441	-3.36
221.658	-8.76
221.875	-14.06
222.092	-13.75
222.309	-19.14
222.526	-11
222.743	-13.72
222.96	-23.75
223.177	-19.07
223.394	-21.88
223.611	-23.7
223.828	-12.77
224.045	-18.03
224.262	-12.63
224.479	-15.4
224.696	-7.65
224.913	-6.95
225.13	-9.33
225.347	-6.34
225.564	-9.89
225.781	-12.43
225.997	-9.34
226.214	-7.53
226.431	-6.69
226.648	-8.21
226.865	-4.38
227.082	-5.95
227.298	-5.41
227.515	-3.51
227.732	-2.23
227.949	-1.36
228.165	-0.9
228.382	-1.13
228.599	0.39
228.816	1.2
229.032	1.44
229.249	1.58
229.466	1.98
229.682	2.35
229.899	2.01
230.116	1.29
230.332	1.56
230.549	1.46
230.765	2.28
230.982	-0.48
231.199	-1.7
231.415	-1.75
231.632	-3.25
231.848	-5.84
232.065	-6.49
232.281	-6.15
232.498	-6.22
232.714	-6.23
232.931	-3.96
233.147	-5.78
233.364	-3.63
233.58	-3.32
233.797	-1.84
234.013	-1.22
234.23	1.06
234.446	0.52
234.662	-0.45
234.879	-0.73
235.095	-0.7
235.312	-2.71
235.528	-1.28
235.744	-1.34
235.961	-0.76
236.177	-1.83
236.393	-0.81
236.61	-0.96
236.826	0.06
237.042	0.39
237.258	0.8
237.475	-0.32
237.691	-0.79
237.907	-0.18
238.123	1.36
238.339	1.53
238.556	1.26
238.772	1.91
238.988	3.24
239.204	2.24
239.42	2.4
239.636	3.09
239.853	4.45
240.069	4.86
240.285	4.25
240.501	1.77
240.717	2.79
240.933	3.52
241.149	2.33
241.365	2.21
241.581	3.06
241.797	3.33
242.013	3.7
242.229	3.21
242.445	3.36
242.661	3.2
242.877	4.63
243.093	3.49
243.309	3.2
243.525	3.27
243.741	2.87
243.957	2.77
244.173	2.66
244.388	2.24
244.604	2.66
244.82	2.95
245.036	3.41
245.252	2.83
245.468	3.05
245.683	3.53
245.899	4.5
246.115	4.44
246.331	4.31
246.547	4.64
246.762	4.86
246.978	4.82
247.194	4.41
247.409	4.59
247.625	4.77
247.841	4.84
248.057	4.78
248.272	4.45
248.488	4.57
248.703	4.43
248.919	4.25
249.135	3.65
249.35	3.43
249.566	3.58
249.782	2.76
249.997	1.81
250.213	1.93
250.428	1.64
250.644	1.14
250.859	1.69
251.075	1.24
251.29	1.05
251.506	1.52
251.721	1.65
251.937	1.6
252.152	1.46
252.368	1.54
252.583	1.73
252.798	1.15
253.014	1.72
253.229	1.06
253.445	1.98
253.66	1.38
253.875	1.1
254.091	1.44
254.306	1.51
254.521	1.67
254.737	1.73
254.952	1.61
255.167	2.29
255.383	2.07
255.598	0.93
255.813	0.42
256.028	0.82
256.244	0.86
256.459	-0.01
256.674	-0.21
256.889	-0.1
257.104	0
257.32	0.42
257.535	0.89
257.75	0.63
257.965	2.1
258.18	2.29
258.395	2.87
258.61	3.4
258.826	3.72
259.041	4
259.256	4.17
259.471	4.14
259.686	3.97
259.901	3.71
260.116	3.8
260.331	3.47
260.546	3.49
260.761	3.33
260.976	3.03
261.191	2.8
261.406	2.54
261.621	2.57
261.836	2.5
262.05	2.64
262.265	2.52
262.48	2.8
262.695	2.71
262.91	2.3
263.125	2.31
263.34	1.98
263.555	2.07
263.769	2.5
263.984	2.26
264.199	2.31
264.414	2.42
264.629	2.7
264.843	2.63
265.058	2.66
265.273	3.41
265.488	3.28
265.702	3.33
265.917	3.48
266.132	3.2
266.346	3.37
266.561	3.92
266.776	3.62
266.99	3.54
267.205	3.33
267.42	3.6
267.634	3.17
267.849	3.61
268.063	3.71
268.278	3.85
268.492	3.71
268.707	3.54
268.922	3.08
269.136	2.82
269.351	3.07
269.565	3.18
269.78	2.78
269.994	2.66
270.209	2.59
270.423	2.43
270.637	2.12
270.852	2.31
271.066	2.07
271.281	2.07
271.495	2.21
271.709	2.08
271.924	2.11
272.138	2.55
272.353	2.6
272.567	2.53
272.781	2.96
272.996	3.13
273.21	2.79
273.424	3
273.638	2.9
273.853	3.1
274.067	3.22
274.281	3.22
274.495	2.84
274.71	2.24
274.924	2.16
275.138	1.57
275.352	1.29
275.566	1.34
275.781	1.42
275.995	1.65
276.209	1.65
276.423	1.62
276.637	1.34
276.851	1.26
277.065	2.1
277.279	1.45
277.493	1.65
277.707	1.52
277.921	1.97
278.135	1.43
278.349	1.21
278.563	1.21
278.777	0.69
278.991	0.92
279.205	1.05
279.419	0.58
279.633	1.2
279.847	1.32
280.061	1.81
280.275	1.54
280.489	2.1
280.703	1.98
280.917	2.15
281.131	2.6
281.344	2.5
281.558	2.41
281.772	2.87
281.986	3.07
282.2	3.17
282.414	2.73
282.627	2.9
282.841	2.81
283.055	2.91
283.269	2.69
283.482	2.64
283.696	2.82
283.91	2.99
284.123	2.91
284.337	2.63
284.551	2.55
284.764	2.73
284.978	2.44
285.192	2.28
285.405	2.31
285.619	2.22
285.833	2.1
286.046	1.99
286.26	2.2
286.473	1.96
286.687	1.85
286.9	1.82
287.114	1.82
287.327	2.17
287.541	2.01
287.754	2.25
287.968	2.47
288.181	2.71
288.395	2.56
288.608	2.08
288.822	2.11
289.035	2.03
289.248	2.07
289.462	2.22
289.675	2.27
289.889	2.88
290.102	2.59
290.315	2.48
290.529	2.62
290.742	2.69
290.955	3.07
291.169	3.37
291.382	3.65
291.595	3.86
291.808	3.74
292.022	3.66
292.235	3.65
292.448	3.77
292.661	3.79
292.875	3.77
293.088	3.88
293.301	3.96
293.514	3.62
293.727	3.41
293.94	3.37
294.153	3.36
294.367	3.08
294.58	2.88
294.793	2.98
295.006	2.87
295.219	2.67
295.432	2.66
295.645	2.5
295.858	2.66
296.071	2.94
296.284	3.04
296.497	3.18
296.71	3.28
296.923	3.19
297.136	3.04
297.349	2.99
297.562	3.19
297.775	3.33
297.988	3.4
298.201	3.62
298.414	3.48
298.626	3.07
298.839	2.91
299.052	3.01
299.265	2.87
299.478	3
299.691	3.23
299.903	3.19
300.116	3.32
300.329	3.36
300.542	3.09
300.755	3.43
300.967	4.02
301.18	4.33
301.393	4.48
301.605	4.8
301.818	4.61
302.031	4.37
302.243	4.5
302.456	3.92
302.669	4.03
302.881	4.24
303.094	3.78
303.307	3.51
303.519	3.27
303.732	3.07
303.944	3.01
304.157	3.57
304.37	3.75
304.582	3.47
304.795	3.87
305.007	3.5
305.22	3.15
305.432	3.46
305.645	3.76
305.857	4.11
306.069	4.37
306.282	4.41
306.494	3.99
306.707	4.09
306.919	4.32
307.132	4.48
307.344	4.83
307.556	5.08
307.769	5.22
307.981	4.9
308.193	4.42
308.406	4.42
308.618	4.43
308.83	4.85
309.043	4.62
309.255	4.5
309.467	4.36
309.679	4.24
309.892	4.1
310.104	3.71
310.316	3.76
310.528	3.82
310.74	3.83
310.953	3.67
311.165	3.19
311.377	3.42
311.589	3.44
311.801	3.21
312.013	3.18
312.225	3.61
312.437	3.76
312.649	4.03
312.862	4.24
313.074	4.25
313.286	4.29
313.498	4.29
313.71	4.43
313.922	4.18
314.134	4.61
314.346	4.78
314.558	4.31
314.77	4.51
314.982	4.47
315.193	4.48
315.405	4.19
315.617	4.31
315.829	4.71
316.041	4.35
316.253	4.61
316.465	4.52
316.677	4.41
316.888	4.57
317.1	4.44
317.312	3.95
317.524	3.94
317.736	3.65
317.947	4.21
318.159	4.06
318.371	4.32
318.583	4.36
318.794	4.09
319.006	4.11
319.218	4.08
319.43	4.14
319.641	4.66
319.853	4.76
320.064	5.19
320.276	4.78
320.488	4.74
320.699	4.39
320.911	4.4
321.123	4.37
321.334	4.26
321.546	4.04
321.757	4.44
321.969	4.51
322.18	4.74
322.392	4.88
322.603	5.01
322.815	5.67
323.026	6.21
323.238	6.63
323.449	7.16
323.661	7.36
323.872	7.78
324.083	7.84
324.295	8.27
324.506	8.46
324.718	8.71
324.929	8.99
325.14	9.14
325.352	9.14
325.563	9.31
325.774	9.23
325.986	9.75
326.197	10.04
326.408	10.21
326.62	10.11
326.831	10.49
327.042	10.8
327.253	10.98
327.464	11.22
327.676	11.47
327.887	11.72
328.098	12.37
328.309	12.33
328.52	12.7
328.732	13.07
328.943	13.35
329.154	13.59
329.365	14
329.576	14.23
329.787	14.19
329.998	14.75
330.209	14.94
330.42	15.03
330.631	15.33
330.842	15.44
331.053	15.76
331.264	16.17
331.475	16.14
331.686	16.47
331.897	16.95
332.108	17.55
332.319	17.83
332.53	18.18
332.741	18.41
332.952	18.6
333.163	18.72
333.374	18.82
333.585	18.87
333.795	18.71
334.006	18.69
334.217	18.5
334.428	18.59
334.639	18.71
334.849	18.56
335.06	18.54
335.271	18.72
335.482	18.89
335.692	18.64
335.903	18.87
336.114	19.43
336.325	19.8
336.535	19.81
336.746	19.72
336.957	19.51
337.167	19.94
337.378	20.09
337.589	20.01
337.799	19.99
338.01	19.89
338.22	19.24
338.431	18.98
338.642	18.68
338.852	18.72
339.063	18.6
339.273	18.68
339.484	18.2
339.694	18.51
339.905	18.71
340.115	18.68
340.326	19.15
340.536	19.9
340.746	20.02
340.957	20.09
341.167	20.64
341.378	20.88
341.588	20.92
341.799	21.47
342.009	21.25
342.219	21.24
342.43	21.55
342.64	21.58
342.85	21.43
343.061	21.35
343.271	21.1
343.481	20.7
343.691	20.66
343.902	20.69
344.112	20.32
344.322	20.25
344.532	20.15
344.743	19.98
344.953	19.72
345.163	19.77
345.373	19.79
345.583	19.82
345.793	19.91
346.004	19.95
346.214	19.79
346.424	19.79
346.634	19.88
346.844	20.13
347.054	20.06
347.264	20.27
347.474	19.94
347.684	19.79
347.894	19.74
348.104	19.76
348.314	19.61
348.524	19.86
348.734	19.79
348.944	19.73
349.154	19.66
349.364	19.78
349.574	19.6
349.784	19.83
349.994	20.26
350.204	20.36
350.413	20.38
350.623	20.46
350.833	20.26
351.043	20.04
351.253	19.92
351.463	19.9
351.672	19.86
351.882	19.73
352.092	19.72
352.302	19.7
352.511	19.59
352.721	19.57
352.931	19.61
353.141	19.49
353.35	19.84
353.56	19.93
353.77	19.87
353.979	19.81
354.189	19.84
354.399	19.64
354.608	19.35
354.818	19.61
355.027	19.6
355.237	19.53
355.447	19.57
355.656	19.37
355.866	19.36
356.075	19.53
356.285	19.41
356.494	19.49
356.704	19.6
356.913	19.42
357.123	18.99
357.332	18.95
357.542	18.79
357.751	19.04
357.96	18.75
358.17	18.6
358.379	18.3
358.589	18.15
358.798	18.38
359.007	18.33
359.217	18.5
359.426	18.61
359.635	18.58
359.845	18.63
360.054	18.53
360.263	18.73
360.472	18.74
360.682	18.76
360.891	19
361.1	18.84
361.309	18.81
361.519	18.68
361.728	18.63
361.937	18.69
362.146	18.7
362.355	18.77
362.564	18.96
362.774	19.01
362.983	19.08
363.192	18.94
363.401	18.96
363.61	19.17
363.819	19.28
364.028	19.47
364.237	19.35
364.446	19.16
364.655	18.74
364.864	18.6
365.073	18.42
365.282	18.24
365.491	18.37
365.7	18.16
365.909	17.87
366.118	17.91
366.327	17.79
366.536	17.69
366.745	17.74
366.954	18.03
367.162	18.07
367.371	18.16
367.58	18.3
367.789	18.04
367.998	18.3
368.207	18.56
368.415	18.37
368.624	18.19
368.833	18.45
369.042	18.54
369.25	18.31
369.459	18.23
369.668	18.21
369.877	18.11
370.085	18.17
370.294	17.88
370.503	17.87
370.711	17.98
370.92	18.23
371.129	18.05
371.337	18.02
371.546	18.08
371.754	17.95
371.963	18.01
372.171	17.99
372.38	18.01
372.589	18.18
372.797	18.11
373.006	18.03
373.214	18.04
373.423	17.75
373.631	17.55
373.84	17.57
374.048	17.58
374.256	17.65
374.465	17.69
374.673	17.68
374.882	17.56
375.09	17.59
375.298	17.7
375.507	17.45
375.715	17.64
375.923	18.01
376.132	18.03
376.34	18.04
376.548	17.81
376.757	17.86
376.965	17.93
377.173	18.03
377.381	18.01
377.59	18.03
377.798	18.06
378.006	18.04
378.214	17.94
378.423	17.87
378.631	18.06
378.839	18.23
379.047	18.12
379.255	18.2
379.463	18.15
379.671	17.98
379.879	17.82
380.088	18.13
380.296	18.23
380.504	18.13
380.712	18.14
380.92	18.01
381.128	17.89
381.336	17.95
381.544	17.73
381.752	17.98
381.96	18.15
382.168	18.32
382.376	18.31
382.584	18.47
382.791	18.46
382.999	18.55
383.207	18.62
383.415	18.62
383.623	18.58
383.831	18.46
384.039	18.15
384.247	18.1
384.454	18.08
384.662	17.78
384.87	17.52
385.078	17.46
385.285	17.33
385.493	17.31
385.701	17.49
385.909	17.34
386.116	17.68
386.324	17.65
386.532	17.51
386.739	17.41
386.947	17.52
387.155	17.61
387.362	17.68
387.57	17.87
387.778	17.73
387.985	17.62
388.193	17.89
388.4	17.6
388.608	17.55
388.816	17.63
389.023	17.77
389.231	17.94
389.438	17.81
389.646	18.05
389.853	17.91
390.061	17.99
390.268	18
390.475	17.88
390.683	18.03
390.89	18.22
391.098	18.16
391.305	18.15
391.512	18.16
391.72	18.32
391.927	18.09
392.135	18.2
392.342	18.43
392.549	18.43
392.756	18.44
392.964	18.46
393.171	18.42
393.378	18.46
393.586	18.46
393.793	18.34
394	18.26
394.207	18.49
394.414	18.46
394.622	18.17
394.829	18.29
395.036	18.24
395.243	18.28
395.45	18.26
395.657	18.29
395.864	18.19
396.072	18.37
396.279	18.54
396.486	18.5
396.693	18.68
396.9	18.81
397.107	18.67
397.314	18.89
397.521	18.91
397.728	18.88
397.935	18.93
398.142	18.93
398.349	18.92
398.556	18.87
398.763	18.83
398.97	18.68
399.177	18.66
399.383	18.8
399.59	18.65
399.797	18.62
400.004	18.62
400.211	18.69
400.418	18.74
400.625	18.59
400.831	18.64
401.038	18.68
401.245	18.85
401.452	18.87
401.658	18.69
401.865	18.91
402.072	18.92
402.279	19.06
402.485	18.96
402.692	18.98
402.899	18.89
403.105	18.81
403.312	18.71
403.519	18.58
403.725	18.57
403.932	18.69
404.138	18.42
404.345	18.45
404.552	18.37
404.758	18.4
404.965	18.57
405.171	18.73
405.378	18.89
405.584	18.88
405.791	18.84
405.997	18.85
406.204	18.94
406.41	18.94
406.617	18.98
406.823	19.04
407.029	19.17
407.236	19.04
407.442	19.11
407.649	18.88
407.855	18.93
408.061	18.97
408.268	18.98
408.474	18.89
408.68	18.93
408.887	18.94
409.093	18.97
409.299	19.11
409.505	19.06
409.712	19.1
409.918	19.24
410.124	19.39
410.33	19.53
410.537	19.55
410.743	19.5
410.949	19.65
411.155	19.64
411.361	19.59
411.567	19.34
411.773	19.46
411.98	19.49
412.186	19.61
412.392	19.47
412.598	19.32
412.804	19.41
413.01	19.57
413.216	19.75
413.422	19.77
413.628	19.99
413.834	20.11
414.04	20.07
414.246	20.07
414.452	20.01
414.658	20.12
414.864	20.32
415.07	20.28
415.275	20.28
415.481	20.35
415.687	20.45
415.893	20.36
416.099	20.36
416.305	20.47
416.511	20.36
416.716	20.42
416.922	20.57
417.128	20.53
417.334	20.67
417.539	20.68
417.745	20.56
417.951	20.52
418.157	20.64
418.362	20.7
418.568	20.66
418.774	20.86
418.979	20.85
419.185	20.79
419.391	20.84
419.596	20.77
419.802	20.8
420.008	20.87
420.213	20.6
420.419	20.62
420.624	20.65
420.83	20.75
421.035	20.76
421.241	20.91
421.446	20.94
421.652	20.9
421.857	20.97
422.063	20.96
422.268	20.96
422.474	21.25
422.679	21.23
422.885	21.3
423.09	21.31
423.295	21.27
423.501	21.13
423.706	21.19
423.911	21.31
424.117	21.34
424.322	21.43
424.527	21.47
424.733	21.51
424.938	21.5
425.143	21.41
425.349	21.41
425.554	21.37
425.759	21.42
425.964	21.36
426.169	21.38
426.375	21.32
426.58	21.32
426.785	21.35
426.99	21.4
427.195	21.42
427.4	21.44
427.605	21.45
427.811	21.5
428.016	21.58
428.221	21.61
428.426	21.5
428.631	21.58
428.836	21.53
429.041	21.5
429.246	21.51
429.451	21.53
429.656	21.61
429.861	21.64
430.066	21.69
430.271	21.73
430.476	21.74
430.681	21.81
430.886	21.81
431.09	21.95
431.295	21.98
431.5	22.05
431.705	22.17
431.91	22.12
432.115	22.11
432.32	22.15
432.524	22.15
432.729	22.17
432.934	22.33
433.139	22.36
433.343	22.31
433.548	22.27
433.753	22.17
433.958	22.11
434.162	22.19
434.367	22.24
434.572	22.18
434.776	22.2
434.981	22.2
435.186	22.04
435.39	22.06
435.595	22.11
435.799	22.15
436.004	22.2
436.209	22.2
436.413	22.23
436.618	22.15
436.822	22.15
437.027	22.12
437.231	22.07
437.436	22.03
437.64	22.09
437.845	21.98
438.049	22.04
438.253	22.1
438.458	22.14
438.662	22.13
438.867	22.19
439.071	22.29
439.275	22.32
439.48	22.46
439.684	22.58
439.888	22.6
440.093	22.72
440.297	22.75
440.501	22.68
440.706	22.67
440.91	22.69
441.114	22.69
441.318	22.67
441.523	22.68
441.727	22.55
441.931	22.52
442.135	22.44
442.339	22.31
442.543	22.32
442.748	22.45
442.952	22.49
443.156	22.55
443.36	22.55
443.564	22.63
443.768	22.59
443.972	22.74
444.176	22.75
444.38	22.79
444.584	22.95
444.788	22.95
444.992	22.91
445.196	22.9
445.4	22.82
445.604	22.87
445.808	22.85
446.012	22.87
446.216	22.91
446.42	22.87
446.624	22.84
446.828	22.76
447.032	22.75
447.235	22.76
447.439	22.84
447.643	22.89
447.847	22.81
448.051	22.86
448.254	22.84
448.458	22.83
448.662	22.93
448.866	22.97
449.069	22.96
449.273	22.97
449.477	22.99
449.681	22.92
449.884	22.9
450.088	23
450.292	22.97
450.495	22.96
450.699	22.92
450.902	22.88
451.106	22.86
451.31	22.92
451.513	22.9
451.717	22.81
451.92	22.8
452.124	22.82
452.327	22.73
452.531	22.65
452.734	22.64
452.938	22.63
453.141	22.69
453.345	22.71
453.548	22.66
453.752	22.67
453.955	22.75
454.158	22.74
454.362	22.73
454.565	22.81
454.769	22.93
454.972	22.96
455.175	22.97
455.379	22.85
455.582	22.81
455.785	22.79
455.988	22.79
456.192	22.66
456.395	22.69
456.598	22.56
456.801	22.53
457.005	22.54
457.208	22.49
457.411	22.58
457.614	22.64
457.817	22.67
458.021	22.75
458.224	22.68
458.427	22.82
458.63	22.9
458.833	23
459.036	23.01
459.239	23
459.442	22.95
459.645	22.88
459.848	22.91
460.051	22.83
460.254	22.84
460.457	22.87
460.66	22.85
460.863	22.74
461.066	22.68
461.269	22.72
461.472	22.65
461.675	22.79
461.878	22.77
462.081	22.7
462.284	22.81
462.486	22.77
462.689	22.83
462.892	22.82
463.095	22.85
463.298	22.9
463.5	22.9
463.703	22.94
463.906	22.93
464.109	22.99
464.311	23.08
464.514	23.03
464.717	23.09
464.92	23.06
465.122	23.11
465.325	23.23
465.528	23.31
465.73	23.24
465.933	23.27
466.135	23.25
466.338	23.34
466.541	23.24
466.743	23.22
466.946	23.17
467.148	23.22
467.351	23.15
467.553	23.04
467.756	23
467.958	22.97
468.161	22.93
468.363	22.98
468.566	22.93
468.768	22.95
468.971	23.09
469.173	23.13
469.375	23.09
469.578	23.04
469.78	23.14
469.983	23.09
470.185	23.16
470.387	23.19
470.59	23.13
470.792	23.13
470.994	23.2
471.196	23.2
471.399	23.12
471.601	23.21
471.803	23.34
472.005	23.25
472.208	23.25
472.41	23.22
472.612	23.22
472.814	23.13
473.016	23.06
473.218	22.94
473.421	22.79
473.623	22.85
473.825	22.84
474.027	22.8
474.229	22.77
474.431	22.85
474.633	22.87
474.835	22.86
475.037	22.99
475.239	23.04
475.441	23.11
475.643	23.23
475.845	23.14
476.047	23.15
476.249	23.16
476.451	23.24
476.653	23.25
476.855	23.18
477.057	23.18
477.258	23.13
477.46	23.06
477.662	23.17
477.864	23.13
478.066	23.25
478.268	23.22
478.469	23.25
478.671	23.35
478.873	23.37
479.075	23.41
479.276	23.37
479.478	23.46
479.68	23.51
479.882	23.43
480.083	23.43
480.285	23.42
480.487	23.47
480.688	23.45
480.89	23.37
481.091	23.34
481.293	23.4
481.495	23.46
481.696	23.39
481.898	23.35
482.099	23.32
482.301	23.28
482.502	23.2
482.704	23.2
482.905	23.13
483.107	23.14
483.308	23.17
483.51	23.15
483.711	23.17
483.913	23.19
484.114	23.2
484.315	23.22
484.517	23.22
484.718	23.25
484.92	23.24
485.121	23.31
485.322	23.29
485.524	23.27
485.725	23.25
485.926	23.22
486.127	23.2
486.329	23.23
486.53	23.2
486.731	23.23
486.932	23.28
487.134	23.28
487.335	23.28
487.536	23.28
487.737	23.28
487.938	23.35
488.139	23.37
488.341	23.37
488.542	23.37
488.743	23.42
488.944	23.46
489.145	23.43
489.346	23.41
489.547	23.39
489.748	23.38
489.949	23.39
490.15	23.37
490.351	23.38
490.552	23.44
490.753	23.44
490.954	23.44
491.155	23.42
491.356	23.43
491.557	23.48
491.758	23.48
491.959	23.5
492.159	23.51
492.36	23.54
492.561	23.53
492.762	23.5
492.963	23.5
493.164	23.48
493.364	23.52
493.565	23.56
493.766	23.56
493.967	23.62
494.167	23.67
494.368	23.69
494.569	23.64
494.769	23.7
494.97	23.7
495.171	23.68
495.371	23.74
495.572	23.79
495.773	23.76
495.973	23.8
496.174	23.72
496.375	23.74
496.575	23.72
496.776	23.75
496.976	23.69
497.177	23.69
497.377	23.72
497.578	23.71
497.778	23.73
497.979	23.71
498.179	23.69
498.38	23.79
498.58	23.81
498.78	23.77
498.981	23.79
499.181	23.87
499.382	23.96
499.582	23.96
499.782	24
499.983	23.98
500.183	23.99
500.383	24.08
500.584	24.11
500.784	24.17
500.984	24.27
501.184	24.28
501.385	24.25
501.585	24.23
501.785	24.25
501.985	24.27
502.185	24.26
502.386	24.35
502.586	24.35
502.786	24.31
502.986	24.33
503.186	24.49
503.386	24.48
503.586	24.49
503.786	24.54
503.987	24.59
504.187	24.56
504.387	24.61
504.587	24.59
504.787	24.53
504.987	24.64
505.187	24.64
505.387	24.56
505.587	24.58
505.786	24.57
505.986	24.61
506.186	24.62
506.386	24.64
506.586	24.65
506.786	24.74
506.986	24.8
507.186	24.65
507.386	24.62
507.585	24.62
507.785	24.68
507.985	24.68
508.185	24.65
508.384	24.76
508.584	24.76
508.784	24.74
508.984	24.71
509.183	24.73
509.383	24.88
509.583	24.94
509.782	24.93
509.982	24.92
510.182	25.02
510.381	25.03
510.581	24.97
510.781	25.04
510.98	25.08
511.18	25.13
511.379	25.14
511.579	25.14
511.778	25.08
511.978	25.13
512.177	25.08
512.377	25.11
512.576	25.13
512.776	25.1
512.975	25.11
513.175	25.07
513.374	25.09
513.573	25.14
513.773	25.18
513.972	25.29
514.172	25.3
514.371	25.37
514.57	25.35
514.77	25.42
514.969	25.49
515.168	25.6
515.367	25.72
515.567	25.68
515.766	25.62
515.965	25.58
516.164	25.58
516.364	25.61
516.563	25.63
516.762	25.72
516.961	25.78
517.16	25.81
517.359	25.77
517.559	25.73
517.758	25.76
517.957	25.77
518.156	25.79
518.355	25.82
518.554	25.78
518.753	25.79
518.952	25.77
519.151	25.74
519.35	25.76
519.549	25.71
519.748	25.74
519.947	25.76
520.146	25.83
520.345	25.84
520.544	25.83
520.743	25.85
520.942	25.94
521.141	25.91
521.339	25.92
521.538	25.93
521.737	25.9
521.936	25.93
522.135	26.01
522.333	26.01
522.532	26.06
522.731	26.06
522.93	26.15
523.129	26.2
523.327	26.17
523.526	26.16
523.725	26.1
523.923	26.17
524.122	26.12
524.321	26.13
524.519	26.17
524.718	26.11
524.917	26.17
525.115	26.14
525.314	26.14
525.512	26.2
525.711	26.19
525.909	26.24
526.108	26.23
526.306	26.24
526.505	26.21
526.703	26.23
526.902	26.29
527.1	26.28
527.299	26.31
527.497	26.32
527.696	26.33
527.894	26.34
528.092	26.3
528.291	26.36
528.489	26.37
528.688	26.36
528.886	26.39
529.084	26.41
529.283	26.42
529.481	26.39
529.679	26.35
529.877	26.4
530.076	26.39
530.274	26.46
530.472	26.45
530.67	26.46
530.869	26.47
531.067	26.44
531.265	26.43
531.463	26.45
531.661	26.47
531.859	26.49
532.057	26.42
532.255	26.44
532.454	26.5
532.652	26.55
532.85	26.58
533.048	26.65
533.246	26.67
533.444	26.66
533.642	26.66
533.84	26.72
534.038	26.8
534.236	26.82
534.434	26.81
534.632	26.8
534.83	26.72
535.027	26.74
535.225	26.66
535.423	26.7
535.621	26.64
535.819	26.68
536.017	26.69
536.215	26.66
536.412	26.67
536.61	26.72
536.808	26.72
537.006	26.78
537.203	26.76
537.401	26.86
537.599	26.81
537.797	26.87
537.994	26.82
538.192	26.77
538.39	26.77
538.587	26.81
538.785	26.82
538.983	26.82
539.18	26.83
539.378	26.88
539.575	26.88
539.773	26.9
539.97	26.93
540.168	26.94
540.366	26.98
540.563	26.94
540.761	26.96
540.958	26.98
541.155	27.03
541.353	27.06
541.55	27.05
541.748	27.01
541.945	27.05
542.143	27.07
542.34	27.11
542.537	27.11
542.735	27.14
542.932	27.15
543.129	27.13
543.327	27.11
543.524	27.08
543.721	27.08
543.919	27.05
544.116	27.01
544.313	26.98
544.51	26.96
544.708	26.92
544.905	26.94
545.102	26.93
545.299	26.93
545.496	26.89
545.693	26.89
545.891	26.97
546.088	27
546.285	26.97
546.482	26.97
546.679	27
546.876	27.05
547.073	27.13
547.27	27.09
547.467	27
547.664	27.06
547.861	27.04
548.058	26.88
548.255	26.96
548.452	26.95
548.649	26.97
548.846	26.91
549.043	26.95
549.24	26.79
549.437	26.76
549.633	26.88
549.83	26.84
550.027	26.84
550.224	26.91
550.421	26.84
550.618	26.94
550.814	27.03
551.011	27.08
551.208	27.03
551.405	27.1
551.601	27.17
551.798	27.22
551.995	27.21
552.191	27.17
552.388	27.11
552.585	27.15
552.781	27.16
552.978	27.06
553.175	27.05
553.371	27.09
553.568	27.1
553.764	27.06
553.961	27.09
554.157	27.18
554.354	27.13
554.55	27.22
554.747	27.27
554.943	27.26
555.14	27.29
555.336	27.21
555.533	27.26
555.729	27.29
555.926	27.31
556.122	27.22
556.318	27.16
556.515	27.34
556.711	27.4
556.907	27.32
557.104	27.32
557.3	27.24
557.496	27.37
557.693	27.22
557.889	27.17
558.085	27.18
558.281	27.31
558.478	27.34
558.674	27.27
558.87	27.19
559.066	27.23
559.262	27.26
559.459	27.3
559.655	27.26
559.851	27.36
560.047	27.4
560.243	27.48
560.439	27.44
560.635	27.45
560.831	27.51
561.027	27.57
561.223	27.63
561.419	27.57
561.615	27.71
561.811	27.61
562.007	27.6
562.203	27.57
562.399	27.53
562.595	27.51
562.791	27.52
562.987	27.58
563.183	27.64
563.379	27.61
563.575	27.65
563.771	27.56
563.966	27.73
564.162	27.82
564.358	27.82
564.554	27.89
564.75	27.9
564.945	27.82
565.141	27.74
565.337	27.71
565.533	27.87
565.728	27.92
565.924	27.89
566.12	27.9
566.315	27.85
566.511	27.93
566.707	27.9
566.902	27.86
567.098	27.93
567.293	28
567.489	28.01
567.684	27.85
567.88	27.8
568.076	27.85
568.271	27.8
568.467	27.76
568.662	27.75
568.858	27.82
569.053	27.95
569.248	27.97
569.444	27.97
569.639	27.93
569.835	28.05
570.03	28.04
570.225	28.12
570.421	28.15
570.616	28.24
570.812	28.25
571.007	28.16
571.202	28.12
571.397	28.09
571.593	28.09
571.788	28.11
571.983	28.02
572.178	28.07
572.374	28.1
572.569	28.06
572.764	28.08
572.959	28.1
573.154	28.22
573.35	28.14
573.545	28.19
573.74	28.18
573.935	28.12
574.13	28.2
574.325	28.22
574.52	28.19
574.715	28.22
574.91	28.22
575.105	28.18
575.3	28.14
575.495	28.16
575.69	28.15
575.885	28.19
576.08	28.24
576.275	28.16
576.47	28.09
576.665	28.04
576.86	27.92
577.055	27.86
577.25	27.89
577.444	27.96
577.639	28.05
577.834	28.13
578.029	28.06
578.224	28.08
578.418	28.12
578.613	28.14
578.808	28.04
579.003	28.14
579.197	28.07
579.392	27.96
579.587	27.88
579.781	27.87
579.976	27.69
580.171	27.63
580.365	27.51
580.56	27.54
580.755	27.55
580.949	27.81
581.144	27.88
581.338	27.9
581.533	28.01
581.727	28.03
581.922	27.99
582.116	28.24
582.311	28.29
582.505	28.47
582.7	28.41
582.894	28.53
583.089	28.41
583.283	28.42
583.478	28.44
583.672	28.48
583.866	28.31
584.061	28.35
584.255	28.24
584.449	28.4
584.644	28.31
584.838	28.37
585.032	28.12
585.226	28.13
585.421	28.05
585.615	28.18
585.809	28.02
586.003	28.24
586.198	28.12
586.392	28.04
586.586	28.09
586.78	28.13
586.974	28.11
587.168	28.53
587.363	28.5
587.557	28.63
587.751	28.54
587.945	28.59
588.139	28.57
588.333	28.71
588.527	28.75
588.721	28.7
588.915	28.85
589.109	28.93
589.303	28.65
589.497	28.69
589.691	28.57
589.885	28.58
590.079	28.61
590.273	28.62
590.466	28.57
590.66	28.54
590.854	28.4
591.048	28.3
591.242	28.22
591.436	28.3
591.629	28.42
591.823	28.56
592.017	28.56
592.211	28.52
592.404	28.33
592.598	28.37
592.792	28.34
592.986	28.49
593.179	28.46
593.373	28.53
593.567	28.52
593.76	28.46
593.954	28.43
594.147	28.58
594.341	28.75
594.535	28.93
594.728	29
594.922	29.12
595.115	29.08
595.309	29.13
595.502	29.23
595.696	29.21
595.889	29.23
596.083	29.2
596.276	29.07
596.47	29.15
596.663	29.12
596.856	29.11
597.05	29.09
597.243	29.07
597.437	29.19
597.63	29.05
597.823	29.17
598.017	29.12
598.21	29.16
598.403	29.25
598.596	29.19
598.79	29.22
598.983	29.12
599.176	29.12
599.369	29.1
599.563	28.97
599.756	29
599.949	28.92
600.142	28.93
600.335	28.82
600.528	28.86
600.722	28.96
600.915	29.01
601.108	29.03
601.301	28.95
601.494	29.09
601.687	29.16
601.88	29.19
602.073	29.24
602.266	29.3
602.459	29.46
602.652	29.44
602.845	29.38
603.038	29.35
603.231	29.46
603.424	29.64
603.617	29.55
603.809	29.54
604.002	29.54
604.195	29.39
604.388	29.29
604.581	29.31
604.774	29.38
604.966	29.36
605.159	29.31
605.352	29.33
605.545	29.33
605.737	29.33
605.93	29.26
606.123	29.33
606.316	29.53
606.508	29.48
606.701	29.33
606.894	29.26
607.086	29.14
607.279	29.3
607.471	29.16
607.664	29
607.857	29.08
608.049	29.22
608.242	29.3
608.434	29.36
608.627	29.49
608.819	29.64
609.012	29.65
609.204	29.73
609.397	29.79
609.589	29.9
609.782	29.99
609.974	30.09
610.166	30.05
610.359	30.01
610.551	29.88
610.743	29.95
610.936	29.94
611.128	30
611.32	30.05
611.513	29.87
611.705	29.89
611.897	29.98
612.09	29.79
612.282	29.84
612.474	29.8
612.666	29.89
612.858	29.9
613.051	29.94
613.243	29.88
613.435	30.03
613.627	30.08
613.819	30.08
614.011	29.95
614.203	30.11
614.395	30
614.588	30.13
614.78	30.15
614.972	30.19
615.164	30.12
615.356	30.16
615.548	29.94
615.74	30.04
615.932	30.09
616.124	30.02
616.315	29.85
616.507	29.77
616.699	29.56
616.891	29.45
617.083	29.29
617.275	29.38
617.467	29.25
617.659	29.11
617.85	28.99
618.042	28.96
618.234	28.85
618.426	28.95
618.618	29.07
618.809	29.17
619.001	29.23
619.193	29.4
619.384	29.18
619.576	29.25
619.768	29.39
619.959	29.47
620.151	29.47
620.343	29.73
620.534	29.9
620.726	29.84
620.917	29.7
621.109	29.82
621.301	29.84
621.492	29.98
621.684	30.01
621.875	30.16
622.067	30.21
622.258	30.19
622.45	29.99
622.641	29.97
622.832	30.15
623.024	30.29
623.215	30.24
623.407	30.05
623.598	29.98
623.789	30.08
623.981	30.05
624.172	30.09
624.363	29.93
624.555	30.03
624.746	29.84
624.937	29.71
625.129	29.67
625.32	29.69
625.511	29.91
625.702	29.96
625.893	29.96
626.085	29.97
626.276	29.96
626.467	30.07
626.658	30.17
626.849	30.3
627.04	30.43
627.231	30.43
627.422	30.47
627.614	30.42
627.805	30.26
627.996	30.22
628.187	30.23
628.378	30.15
628.569	30.1
628.76	30.13
628.951	30.06
629.142	29.94
629.332	29.99
629.523	29.99
629.714	29.78
629.905	30.04
630.096	30.06
630.287	29.9
630.478	30.06
630.669	30.07
630.859	29.92
631.05	29.89
631.241	29.97
631.432	29.92
631.623	29.86
631.813	30.12
632.004	30.02
632.195	29.88
632.385	30.01
632.576	29.94
632.767	30.08
632.957	30.25
633.148	30.53
633.339	30.44
633.529	30.39
633.72	30.52
633.91	30.44
634.101	30.41
634.292	30.44
634.482	30.38
634.673	30.42
634.863	30.19
635.054	30.06
635.244	29.79
635.435	29.81
635.625	30.07
635.815	29.85
636.006	29.78
636.196	29.99
636.387	30.07
636.577	30.24
636.767	30.12
636.958	30.34
637.148	30.41
637.338	30.57
637.529	30.62
637.719	30.4
637.909	30.43
638.099	30.58
638.29	30.22
638.48	30.25
638.67	30.28
638.86	30.3
639.05	30.11
639.241	29.94
639.431	29.8
639.621	29.84
639.811	29.91
640.001	30.17
640.191	30.11
640.381	30.39
640.571	30.25
640.761	30.1
640.951	30.05
641.141	30.19
641.331	30.31
641.521	30.45
641.711	30.47
641.901	30.61
642.091	30.58
642.281	30.6
642.471	30.55
642.661	30.66
642.851	30.67
643.041	30.91
643.231	30.91
643.42	31
643.61	31.05
643.8	31.13
643.99	30.83
644.18	30.75
644.369	30.88
644.559	30.91
644.749	30.97
644.939	30.85
645.128	30.71
645.318	30.77
645.508	30.79
645.697	30.63
645.887	30.47
646.076	30.72
646.266	30.67
646.456	30.52
646.645	30.63
646.835	30.82
647.024	30.98
647.214	31.03
647.403	30.98
647.593	30.85
647.782	30.94
647.972	30.93
648.161	30.79
648.351	30.95
648.54	30.91
648.73	30.93
648.919	30.72
649.108	30.7
649.298	30.64
649.487	30.61
649.677	30.76
649.866	30.76
650.055	30.84
650.244	30.91
650.434	30.8
650.623	30.91
650.812	30.73
651.002	30.74
651.191	30.95
651.38	31.25
651.569	31.42
651.758	31.41
651.947	31.69
652.137	31.73
652.326	31.71
652.515	31.76
652.704	31.64
652.893	31.78
653.082	31.93
653.271	31.89
653.46	31.57
653.649	31.55
653.838	31.4
654.027	31.23
654.216	31.36
654.405	31.29
654.594	31.19
654.783	31.19
654.972	31.18
655.161	31.15
655.35	31.24
655.539	31.18
655.728	31.28
655.916	31.44
656.105	31.43
656.294	31.15
656.483	31.16
656.672	31.2
656.86	31.35
657.049	31.3
657.238	31.26
657.427	31.18
657.615	31.38
657.804	31.18
657.993	31.08
658.181	30.97
658.37	31.07
658.559	31.22
658.747	31.3
658.936	31.42
659.125	31.15
659.313	31.06
659.502	30.97
659.69	30.94
659.879	31.09
660.067	31.22
660.256	31.24
660.444	31.26
660.633	31.09
660.821	31.01
661.01	30.98
661.198	31.21
661.387	31.32
661.575	31.35
661.763	31.22
661.952	31.19
662.14	31.03
662.328	30.99
662.517	31.23
662.705	31.33
662.893	31.35
663.082	31.32
663.27	31.16
663.458	31.17
663.646	31.12
663.834	31.33
664.023	31.33
664.211	31.43
664.399	31.5
664.587	31.23
664.775	31.31
664.963	31.46
665.152	31.22
665.34	31.52
665.528	31.69
665.716	31.71
665.904	31.65
666.092	31.6
666.28	31.76
666.468	31.77
666.656	31.61
666.844	31.65
667.032	31.48
667.22	31.78
667.408	31.79
667.596	31.69
667.784	31.83
667.971	31.83
668.159	31.74
668.347	31.63
668.535	31.75
668.723	31.93
668.911	32.04
669.098	32.17
669.286	31.81
669.474	31.9
669.662	31.85
669.849	31.69
670.037	31.84
670.225	31.99
670.413	31.84
670.6	31.75
670.788	31.69
670.976	31.64
671.163	31.51
671.351	31.56
671.538	31.47
671.726	31.3
671.913	31.4
672.101	31.14
672.289	31.23
672.476	31.21
672.664	31.3
672.851	31.67
673.039	31.78
673.226	31.8
673.413	32.01
673.601	32.04
673.788	32.23
673.976	32.41
674.163	32.58
674.35	32.49
674.538	32.76
674.725	32.8
674.912	32.72
675.1	32.55
675.287	32.62
675.474	32.84
675.662	33.01
675.849	32.9
676.036	32.87
676.223	32.75
676.411	32.56
676.598	32.41
676.785	32.48
676.972	32.25
677.159	32.16
677.346	32.33
677.533	32.21
677.721	32.17
677.908	32.08
678.095	32.05
678.282	32.02
678.469	32
678.656	31.95
678.843	31.88
679.03	32.1
679.217	32.32
679.404	32.29
679.591	32.32
679.778	32.22
679.964	32.4
680.151	32.6
680.338	32.74
680.525	32.88
680.712	33.14
680.899	33.25
681.086	33.35
681.272	33.2
681.459	32.97
681.646	32.87
681.833	33.05
682.02	33.14
682.206	32.77
682.393	32.75
682.58	32.82
682.766	32.44
682.953	32.3
683.14	32.15
683.326	32.18
683.513	32.35
683.7	32.07
683.886	31.87
684.073	31.55
684.259	31.53
684.446	31.63
684.632	31.67
684.819	31.95
685.005	31.95
685.192	31.86
685.378	32.04
685.565	32.23
685.751	32.55
685.938	32.64
686.124	33.01
686.31	33.15
686.497	33.05
686.683	32.79
686.87	32.67
687.056	32.79
687.242	32.76
687.429	32.69
687.615	32.31
687.801	32.37
687.987	32.67
688.174	32.56
688.36	32.71
688.546	32.63
688.732	32.9
688.918	33.11
689.105	32.97
689.291	33.11
689.477	33.1
689.663	33.4
689.849	33.41
690.035	33.09
690.221	33.21
690.407	32.9
690.593	33.06
690.779	33.07
690.965	32.78
691.151	32.76
691.337	32.67
691.523	32.58
691.709	32.4
691.895	32.13
692.081	32.1
692.267	32.22
692.453	32.63
692.639	32.61
692.825	32.48
693.011	32.83
693.196	33.05
693.382	32.89
693.568	33.13
693.754	33.19
693.94	33.38
694.125	33.44
694.311	33.18
694.497	32.97
694.682	33.02
694.868	33.22
695.054	32.92
695.239	32.67
695.425	32.74
695.611	32.66
695.796	32.6
695.982	32.43
696.168	32.36
696.353	32.33
696.539	32.27
696.724	32.26
696.91	32.39
697.095	32.57
697.281	32.67
697.466	32.89
697.652	32.79
697.837	33.01
698.023	33.38
698.208	33.65
698.393	33.85
698.579	34.06
698.764	33.95
698.949	33.87
699.135	33.86
699.32	33.8
699.505	33.92
699.691	33.89
699.876	33.95
700.061	33.78
700.246	33.61
700.432	33.52
700.617	33.4
700.802	33.54
700.987	33.69
701.172	33.69
701.358	33.93
701.543	33.95
701.728	34.16
701.913	33.78
702.098	33.76
702.283	33.65
702.468	33.73
702.653	33.51
702.838	33.42
703.023	33.29
703.208	33.41
703.393	33.12
703.578	33.18
703.763	33.27
703.948	33.49
704.133	33.29
704.318	33.22
704.503	33.37
704.688	33.45
704.873	33.35
705.057	33.34
705.242	33.16
705.427	33.47
705.612	33.12
705.797	33.35
705.981	33.32
706.166	33.42
706.351	34.05
706.536	33.9
706.72	34.14
706.905	34.35
707.09	34.01
707.274	34.07
707.459	34
707.644	34.15
707.828	34.08
708.013	34.09
708.197	34.29
708.382	34.01
708.567	33.87
708.751	33.3
708.936	33.26
709.12	33.63
709.305	33.58
709.489	33.63
709.673	33.43
709.858	33.36
710.042	33.32
710.227	33.57
710.411	33.12
710.596	33.56
710.78	34.11
710.964	34.12
711.149	34.24
711.333	34.48
711.517	34.61
711.702	35.06
711.886	34.59
712.07	35.06
712.254	34.82
712.438	34.98
712.623	34.72
712.807	34.77
712.991	34.98
713.175	34.82
713.359	34.73
713.544	34.36
713.728	34.08
713.912	34.45
714.096	34.32
714.28	34.4
714.464	34.39
714.648	34.35
714.832	34.1
715.016	34.34
715.2	34.28
715.384	34.73
715.568	34.81
715.752	35.04
715.936	34.95
716.12	34.77
716.304	34.56
716.488	34.68
716.671	34.57
716.855	34.72
717.039	34.57
717.223	34.9
717.407	34.76
717.59	34.86
717.774	34.55
717.958	34.82
718.142	35.03
718.325	35.41
718.509	35.62
718.693	35.48
718.877	35.6
719.06	35.34
719.244	35.04
719.428	34.45
719.611	34.59
719.795	34.8
719.978	34.73
720.162	34.89
720.345	34.79
720.529	35.21
720.713	35.65
720.896	35.25
721.08	35.58
721.263	35.35
721.446	35.75
721.63	35.65
721.813	35.62
721.997	35.41
722.18	34.96
722.364	34.59
722.547	33.62
722.73	33.59
722.914	33.93
723.097	33.71
723.28	33.85
723.464	33.91
723.647	33.68
723.83	33.48
724.013	33.07
724.197	33.66
724.38	34.17
724.563	34.47
724.746	34.61
724.929	35.25
725.112	35.06
725.296	35.25
725.479	34.83
725.662	35.55
725.845	35.78
726.028	35.95
726.211	35.79
726.394	35.5
726.577	35.48
726.76	35.35
726.943	34.38
727.126	34.72
727.309	34.78
727.492	35.35
727.675	35.04
727.858	35.21
728.041	35.45
728.224	35.31
728.407	35.36
728.589	35.49
728.772	35.33
728.955	35.39
729.138	35.19
729.321	34.51
729.503	34.32
729.686	34.29
729.869	33.85
730.052	33.5
730.234	33.3
730.417	33.58
730.6	33.36
730.782	33.56
730.965	34.1
731.148	34.3
731.33	34.89
731.513	34.8
731.695	34.78
731.878	35.19
732.061	35.66
732.243	36.04
732.426	36.1
732.608	36.64
732.791	36.84
732.973	36.72
733.156	36.87
733.338	36.85
733.52	36.93
733.703	37.15
733.885	37.25
734.068	37.05
734.25	36.9
734.432	37.1
734.615	36.9
734.797	36.9
734.979	37.1
735.162	36.75
735.344	36.92
735.526	36.67
735.708	36.24
735.891	36.27
736.073	36.28
736.255	36.45
736.437	35.83
736.619	35.59
736.802	35.35
736.984	35.69
737.166	35.86
737.348	35.47
737.53	35.97
737.712	36.34
737.894	35.86
738.076	36.53
738.258	36.19
738.44	35.95
738.622	36.54
738.804	36.74
738.986	36.35
739.168	36.39
739.35	36.92
739.532	36.86
739.714	37.07
739.896	37.49
740.078	37.05
740.259	37.29
740.441	38.09
740.623	37.55
740.805	36.72
740.987	36.64
741.168	36.28
741.35	36.27
741.532	36.27
741.714	35.9
741.895	35.42
742.077	35.63
742.259	35.29
742.44	35.3
742.622	35.31
742.804	36.18
742.985	36.41
743.167	36.46
743.348	36.26
743.53	36.2
743.711	35.77
743.893	35.78
744.075	35.44
744.256	35.83
744.438	35.84
744.619	36.25
744.8	35.64
744.982	35.47
745.163	35.6
745.345	35.74
745.526	35.84
745.707	35.91
745.889	35.86
746.07	35.48
746.252	35.69
746.433	35.55
746.614	35.37
746.795	36.09
746.977	36.25
747.158	36.81
747.339	37
747.52	37.02
747.702	37.88
747.883	38.45
748.064	38.73
748.245	38.55
748.426	38.37
748.607	38.38
748.788	38.68
748.97	38.31
749.151	37.57
749.332	37.73
749.513	38.16
749.694	37.87
749.875	38.01
750.056	38.3
750.237	38.02
750.418	37.49
750.599	37.32
750.78	36.75
750.96	37
751.141	37.32
751.322	36.58
751.503	35.92
751.684	36.97
751.865	36.58
752.046	36.54
752.226	36.93
752.407	37.08
752.588	36.86
752.769	36.64
752.949	36.1
753.13	36.1
753.311	37.09
753.492	36.95
753.672	35.97
753.853	36.05
754.034	35.67
754.214	35.91
754.395	36.07
754.575	36.36
754.756	37
754.937	37.14
755.117	36.98
755.298	36.48
755.478	36.88
755.659	36.27
755.839	36.18
756.02	36
756.2	35.31
756.381	35.42
756.561	35.03
756.741	34.51
756.922	34.74
757.102	34.63
757.283	34.58
757.463	34.28
757.643	34.49
757.823	34.46
758.004	34.77
758.184	34.83
758.364	34.76
758.545	35.38
758.725	36.29
758.905	36.07
759.085	36.79
759.265	36.8
759.446	36.39
759.626	36.45
759.806	36.82
759.986	37.52
760.166	37.86
760.346	37.62
760.526	37.75
760.706	36.8
760.886	37.31
761.066	37.01
761.246	36.91
761.426	37.49
761.606	37.36
761.786	37.15
761.966	37.17
762.146	37.52
762.326	37.99
762.506	37.66
762.686	37.81
762.866	38.08
763.046	38.03
763.225	37.7
763.405	37.61
763.585	37.85
763.765	37.89
763.945	37.6
764.124	37.02
764.304	37.18
764.484	37.63
764.664	37.86
764.843	37.59
765.023	37.64
765.203	38.17
765.382	37.88
765.562	37.91
765.741	37.92
765.921	38.47
766.101	38.7
766.28	38.43
766.46	37.78
766.639	37.67
766.819	37.62
766.998	37.99
767.178	38.05
767.357	38.67
767.537	38.61
767.716	39.07
767.896	38.29
768.075	38.53
768.254	38.55
768.434	38.66
768.613	38.63
768.792	38.44
768.972	37.61
769.151	37.2
769.33	37.05
769.51	37.4
769.689	36.66
769.868	37.04
770.047	36.99
770.226	36.36
770.406	36.49
770.585	35.57
770.764	35.61
770.943	36.07
771.122	35.68
771.301	34.58
771.48	34.59
771.66	34.63
771.839	34.31
772.018	34.22
772.197	34.85
772.376	34.21
772.555	35.23
772.734	34.72
772.913	34.78
773.092	35.08
773.271	36.08
773.449	35.44
773.628	35.36
773.807	34.97
773.986	35.11
774.165	35.23
774.344	35.99
774.523	35.58
774.701	36.31
774.88	36
775.059	36.13
775.238	36.62
775.417	36.74
775.595	37.48
775.774	37.01
775.953	36.8
776.131	36.63
776.31	36.49
776.489	36.17
776.667	35.96
776.846	36.26
777.025	35.98
777.203	35.55
777.382	35.96
777.56	35.1
777.739	36.28
777.917	36.52
778.096	36.63
778.274	36.33
778.453	36.82
778.631	37.22
778.81	36.86
778.988	37.42
779.166	37.65
779.345	38.17
779.523	39.23
779.702	39.68
779.88	39.41
780.058	39.29
780.237	39.76
780.415	39.59
780.593	38.92
780.771	38.92
780.95	38.9
781.128	38.28
781.306	37.29
781.484	36.9
781.662	35.39
781.841	34.61
782.019	34.88
782.197	34.86
782.375	34.44
782.553	35.29
782.731	35.44
782.909	36.26
783.087	37.36
783.265	37.88
783.443	36.63
783.621	37.3
783.799	37.59
783.977	36.54
784.155	35.62
784.333	35.82
784.511	35.75
784.689	34.69
784.867	34.34
785.045	34.11
785.223	33.67
785.4	34.08
785.578	33.4
785.756	33.81
785.934	34.37
786.112	35.36
786.289	36.4
786.467	35.68
786.645	36.69
786.823	35.1
787	34.56
787.178	35.4
787.356	35.79
787.533	36.59
787.711	36.85
787.889	37.53
788.066	37.51
788.244	36.65
788.421	36.85
788.599	36.52
788.776	37.75
788.954	37.66
789.131	37.39
789.309	37.5
789.486	37.3
789.664	37.42
789.841	37.33
790.019	37.22
790.196	38.33
790.373	38.38
790.551	39.18
790.728	39.59
790.906	39.75
791.083	38.71
791.26	38.42
791.437	38.12
791.615	37.65
791.792	37.69
791.969	38.11
792.146	36.36
792.324	35.98
792.501	35.5
792.678	33.85
792.855	33.41
793.032	34.69
793.209	35.62
793.387	36.04
793.564	36.35
793.741	35.53
793.918	35.18
794.095	35.6
794.272	35.76
794.449	36.53
794.626	37.46
794.803	37.91
794.98	37.4
795.157	36.9
795.334	37.55
795.511	37.31
795.688	37.2
795.864	36.08
796.041	36.62
796.218	36.02
796.395	35.79
796.572	35.72
796.749	35.87
796.925	35.81
797.102	35.77
797.279	35.03
797.456	35.43
797.632	35.97
797.809	37.13
797.986	36.4
798.162	36.98
798.339	36.3
798.516	36.61
798.692	36.78
798.869	36.24
799.046	36.42
799.222	36.04
799.399	35.2
799.575	35.08
799.752	34.69
799.928	35.23
800.105	35.09
800.281	34.71
800.458	34.61
800.634	34.66
800.811	34.28
800.987	34.09
801.163	34.33
801.34	34.69
801.516	34.61
801.692	34.5
801.869	34.38
802.045	35.18
802.221	35.9
802.398	35.76
802.574	34.43
802.75	35.18
802.926	35.8
803.103	35.17
803.279	35.34
803.455	36.01
803.631	36.57
803.807	36.35
803.983	34.96
804.16	34.39
804.336	33.28
804.512	34.5
804.688	34.69
804.864	34.76
805.04	35.71
805.216	36.01
805.392	36.26
805.568	34.99
805.744	35.28
805.92	35.71
806.096	36.28
806.272	36.39
806.448	36.34
806.623	35.73
806.799	34.8
806.975	33.76
807.151	33.71
807.327	32.73
807.503	33.51
807.678	34.73
807.854	35.54
808.03	35.48
808.206	35.91
808.381	35.95
808.557	37.34
808.733	37.62
808.908	38.33
809.084	38.96
809.26	38.04
809.435	37.42
809.611	36.64
809.787	35.8
809.962	35.44
810.138	35.89
810.313	35.05
810.489	34.77
810.664	34.1
810.84	32.35
811.015	32.04
811.191	32.92
811.366	34.11
811.542	32.98
811.717	31.98
811.892	33.28
812.068	31.65
812.243	31.26
812.419	31.53
812.594	32.76
812.769	34.32
812.944	33.74
813.12	31.92
813.295	30.09
813.47	31.18
813.645	31.08
813.821	30.61
813.996	31.55
814.171	32.99
814.346	30.96
814.521	28.53
814.697	27.59
814.872	26.5
815.047	28.42
815.222	29.49
815.397	28.07
815.572	29.94
815.747	29.19
815.922	30.99
816.097	30.34
816.272	32.83
816.447	34.14
816.622	35.86
816.797	36.46
816.972	35.4
817.147	36.56
817.322	36.13
817.496	35.25
817.671	35.13
817.846	34.8
818.021	34.25
818.196	32.47
818.371	32.93
818.545	32.89
818.72	32.75
818.895	32.09
819.069	31.57
819.244	32.86
819.419	33.44
819.594	33.62
819.768	32.68
819.943	33.15
820.117	33.72
820.292	33.98
820.467	34.3
820.641	34.59
820.816	35.61
820.99	35.8
821.165	35.61
821.339	35.45
821.514	35.65
821.688	36.06
821.863	36.07
822.037	35.9
822.212	35.86
822.386	35.86
822.56	36.06
822.735	36.08
822.909	36.26
823.084	36.45
823.258	36.66
823.432	36.69
823.606	36.5
823.781	36.78
823.955	37.05
824.129	37.31
824.303	37.47
824.478	37.44
824.652	37.43
824.826	37.52
825	37.44
825.174	37.33
825.348	37.64
825.523	37.68
825.697	36.95
825.871	36.9
826.045	36.21
826.219	36.21
826.393	36
826.567	35.64
826.741	35.28
826.915	35.13
827.089	35.09
827.263	35
827.437	35.07
827.611	35.35
827.784	34.93
827.958	35.26
828.132	35.13
828.306	35.63
828.48	35.96
828.654	35.52
828.827	36.19
829.001	36.63
829.175	36.51
829.349	36.71
829.522	36.51
829.696	37.33
829.87	37.31
830.044	37.72
830.217	37.2
830.391	37.44
830.565	37.27
830.738	37.25
830.912	36.77
831.085	36.52
831.259	36.33
831.432	36.19
831.606	35.69
831.779	35.76
831.953	34.57
832.126	34.04
832.3	33.52
832.473	34.23
832.647	34.33
832.82	33.89
832.994	33.48
833.167	34
833.34	34.84
833.514	35.45
833.687	34.69
833.86	34.63
834.034	35.08
834.207	35.21
834.38	34.95
834.553	34.31
834.727	34.41
834.9	34.46
835.073	34.53
835.246	34.45
835.419	34.06
835.593	34.94
835.766	35.07
835.939	35.41
836.112	36.5
836.285	37.01
836.458	37.18
836.631	38.11
836.804	38.5
836.977	36.5
837.15	35.25
837.323	35.2
837.496	34.88
837.669	34.01
837.842	34.26
838.015	32.29
838.188	32.89
838.361	32.51
838.533	30.7
838.706	31.45
838.879	34.85
839.052	35.1
839.225	35.64
839.398	33.81
839.57	34.8
839.743	32.75
839.916	32.76
840.088	32.81
840.261	33.96
840.434	34.24
840.607	33.84
840.779	31.19
840.952	31.5
841.124	29.91
841.297	30.94
841.47	29.5
841.642	29.33
841.815	29.48
841.987	27.75
842.16	27.89
842.332	28.68
842.505	28.58
842.677	30.7
842.85	30.72
843.022	30.06
843.194	32.02
843.367	33.17
843.539	31.79
843.712	30.5
843.884	32.41
844.056	32.63
844.229	31.29
844.401	31.52
844.573	30.52
844.745	33.26
844.918	33.55
845.09	31.57
845.262	32.55
845.434	33.99
845.606	34.68
845.779	32.91
845.951	29.68
846.123	30.69
846.295	28.28
846.467	29.28
846.639	27.98
846.811	28.6
846.983	28.27
847.155	25.31
847.327	24.01
847.499	22.17
847.671	23.99
847.843	25.62
848.015	26
848.187	31.02
848.359	30.82
848.531	29.68
848.703	31.96
848.875	33.75
849.047	35.25
849.218	35.9
849.39	38.57
849.562	35.74
849.734	33.3
849.905	36.7
850.077	29.61
850.249	26.51
850.421	26.08
850.592	22.78
850.764	19.96
850.936	19.92
851.107	21.92
851.279	21.74
851.451	23.95
851.622	25.18
851.794	20.43
851.965	24.84
852.137	28.8
852.308	28.38
852.48	29
852.651	28.41
852.823	28.11
852.994	26.78
853.166	26.22
853.337	25.12
853.509	25.33
853.68	26.33
853.851	20.75
854.023	15.85
854.194	16.07
854.365	18.5
854.537	20.52
854.708	20.76
854.879	25.15
855.05	22.73
855.222	25.02
855.393	24
855.564	23.8
855.735	27.32
855.906	31.82
856.078	27.54
856.249	27.66
856.42	23.92
856.591	30.17
856.762	29.01
856.933	35.45
857.104	34.33
857.275	35.3
857.446	36.64
857.617	39.28
857.788	39.19
857.959	40.84
858.13	37.96
858.301	41.15
858.472	31.86
858.643	32.89
858.814	30.25
858.985	29.43
859.155	30.83
859.326	27.68
859.497	23.91
859.668	23.02
859.839	19.69
860.009	18.45
860.18	21.79
860.351	25.45
860.522	22.81
860.692	21.62
860.863	22.97
861.034	23.65
861.204	27.33
861.375	29.03
861.546	31.07
861.716	38.54
861.887	41.24
862.057	38.88
862.228	41.03
862.398	38.23
862.569	37.25
862.739	37.17
862.91	39.16
863.08	37.35
863.251	40.34
863.421	34.81
863.592	32.81
863.762	35.28
863.932	32.75
864.103	32.89
864.273	33.76
864.443	34.74
864.614	35.98
864.784	25.58
864.954	23.36
865.125	18.29
865.295	18.82
865.465	11.5
865.635	9.44
865.805	10.81
865.976	12.97
866.146	15.53
866.316	10.6
866.486	11.83
866.656	16.82
866.826	16.61
866.996	20.56
867.166	24.44
867.336	26.35
867.506	28.63
867.676	28.9
867.846	27.2
868.016	28.5
868.186	32.98
868.356	28.29
868.526	29.03
868.696	32.82
868.866	30.21
869.036	28.71
869.206	30.65
869.376	30.85
869.545	31.93
869.715	30.78
869.885	30.42
870.055	28.06
870.224	32.61
870.394	29.9
870.564	27.04
870.734	27.41
870.903	27.28
871.073	27.83
871.243	23.63
871.412	22.44
871.582	22.37
871.751	21.12
871.921	23.13
872.091	21.11
872.26	24.7
872.43	25.51
872.599	23.7
872.769	24.12
872.938	23.23
873.108	23.71
873.277	21.07
873.446	21.6
873.616	19.36
873.785	20.92
873.955	21
874.124	18.54
874.293	19.33
874.463	16.69
874.632	19.81
874.801	24.43
874.971	23.79
875.14	23.79
875.309	22.99
875.478	22.78
875.647	22.31
875.817	23.98
875.986	25.14
876.155	22.86
876.324	24.36
876.493	17.42
876.662	16.78
876.831	17.71
877	18.28
877.17	20.75
877.339	22.67
877.508	21.8
877.677	19.23
877.846	22
878.015	23.91
878.184	27.36
878.352	31.16
878.521	31.94
878.69	29.33
878.859	32.69
879.028	30.76
879.197	28.72
879.366	31.86
879.534	32.52
879.703	29.76
879.872	29.69
880.041	25.97
880.21	25.1
880.378	24.5
880.547	27.47
880.716	26.83
880.884	27.59
881.053	29.2
881.222	27.95
881.39	28.71
881.559	28.62
881.727	28.93
881.896	30.08
882.065	30.31
882.233	30.91
882.402	30.98
882.57	31.09
882.739	31.02
882.907	31.13
883.076	31.42
883.244	31.44
883.412	31.5
883.581	31.87
883.749	31.66
883.918	32.27
884.086	31.46
884.254	29.96
884.423	30.39
884.591	31.14
884.759	30.43
884.927	29.62
885.096	29.64
885.264	29.77
885.432	29.89
885.6	28.96
885.769	27.71
885.937	27.68
886.105	28.68
886.273	26.87
886.441	24.7
886.609	26.6
886.777	26.44
886.945	25.61
887.113	26.35
887.281	24.63
887.449	23.9
887.617	23.25
887.785	21.01
887.953	22.06
888.121	22.23
888.289	20.09
888.457	18.26
888.625	20.33
888.793	15.33
888.961	16
889.129	16.59
889.296	16.8
889.464	16.79
889.632	20.49
889.8	19.05
889.967	17.86
890.135	21.92
