Data from 2938724__Reflection_02.txt Node
Date: Sun Mar 15 20:20:21 EDT 2015
User: robert
Spectrometer: USB4E03002
Autoset integration time: false
Trigger mode: 4
Integration Time (sec): 1.000000E-1
Scans to average: 10
Electric dark correction enabled: false
Nonlinearity correction enabled: false
Boxcar width: 5
Stray light correction enabled: false
XAxis mode: Wavelengths
Stop averaging: false
Number of Pixels in Spectrum: 3648
>>>>>Begin Spectral Data<<<<<
177.575	147.77
177.794	212.99
178.014	167.88
178.233	148.21
178.452	144.21
178.672	123.54
178.891	141.44
179.11	250
179.33	227.17
179.549	213.33
179.768	148
179.987	176.77
180.207	-176.92
180.426	1100
180.645	-41.67
180.864	-45.86
181.084	-125.81
181.303	739.47
181.522	175.53
181.741	511.65
181.96	445.54
182.179	1215.62
182.398	473.87
182.618	174.11
182.837	186.38
183.056	162.62
183.275	128.87
183.494	96.15
183.713	114.02
183.932	111.42
184.151	44.93
184.37	64.25
184.589	53.71
184.808	23.58
185.027	50
185.246	39.96
185.465	43.36
185.684	61.49
185.903	65.88
186.122	52.44
186.341	65.7
186.56	87.18
186.779	119.55
186.998	177.04
187.216	217.44
187.435	129.73
187.654	152.15
187.873	136.52
188.092	138.46
188.311	205.08
188.53	419.28
188.748	-4863.64
188.967	-1053.06
189.186	1025
189.405	126.07
189.623	295.35
189.842	47.83
190.061	13.72
190.28	46.69
190.498	54.52
190.717	99.13
190.936	85.59
191.154	-111.65
191.373	-96.87
191.592	95.12
191.81	102.99
192.029	-78.57
192.248	-54.09
192.466	-63.51
192.685	-495.65
192.904	-196.15
193.122	-239.82
193.341	-114.81
193.559	-238.46
193.778	-204.3
193.996	-302.52
194.215	-424.11
194.433	1662.5
194.652	205.82
194.87	190.56
195.089	138.25
195.307	121.42
195.526	114.91
195.744	120.13
195.963	123.62
196.181	110.31
196.399	118.73
196.618	134.38
196.836	158.8
197.055	198.65
197.273	225.41
197.491	245.83
197.71	523.49
197.928	-33800
198.146	-896.04
198.365	-707.86
198.583	-425.89
198.801	-631.58
199.019	-675.59
199.238	-844.44
199.456	-2351.35
199.674	1339.66
199.892	8455.56
200.111	-747.62
200.329	-1500
200.547	521.87
200.765	112.87
200.983	140.67
201.202	87.63
201.42	82.99
201.638	94.79
201.856	60.94
202.074	53.11
202.292	62.31
202.51	55.76
202.728	89.37
202.946	103.15
203.165	130.59
203.383	128.1
203.601	198.01
203.819	95.79
204.037	83.59
204.255	83.93
204.473	127.78
204.691	109.31
204.909	203.21
205.127	124.03
205.345	84.48
205.562	96.76
205.78	108.37
205.998	86.28
206.216	96.64
206.434	144.36
206.652	160.15
206.87	142
207.088	151.36
207.306	181
207.523	187.72
207.741	203.74
207.959	153.59
208.177	125.96
208.395	174.57
208.612	168.61
208.83	88.92
209.048	54.92
209.266	15.7
209.483	1.08
209.701	-220.9
209.919	-151.32
210.136	2.96
210.354	-27.89
210.572	33.68
210.79	11.39
211.007	18.75
211.225	20.58
211.442	32.63
211.66	43.95
211.878	50.44
212.095	61.62
212.313	62.42
212.53	54.88
212.748	72.88
212.966	75.53
213.183	83.54
213.401	84
213.618	104.17
213.836	104.19
214.053	131.21
214.271	103.96
214.488	117.94
214.705	46.82
214.923	79.54
215.14	17.6
215.358	26.45
215.575	4.46
215.793	47.66
216.01	44.3
216.227	0.89
216.445	27.2
216.662	28.88
216.879	-5.67
217.097	26.24
217.314	30.51
217.531	39.49
217.749	56.38
217.966	67.35
218.183	62.88
218.4	58.44
218.618	80.12
218.835	81.23
219.052	83.79
219.269	80.91
219.487	76.13
219.704	72.95
219.921	74
220.138	66.49
220.355	74.16
220.572	72.55
220.79	76.66
221.007	73.74
221.224	74.89
221.441	59.68
221.658	54.53
221.875	56.68
222.092	31.17
222.309	37.05
222.526	35.04
222.743	16.03
222.96	14.36
223.177	16.63
223.394	3.06
223.611	-1.52
223.828	1.56
224.045	5.9
224.262	-11.58
224.479	3.65
224.696	5.36
224.913	5.71
225.13	14.6
225.347	11.41
225.564	13.21
225.781	15.39
225.997	13.55
226.214	13.65
226.431	18.05
226.648	22.22
226.865	16.94
227.082	10.18
227.298	5.88
227.515	4.51
227.732	5.03
227.949	3.88
228.165	4.18
228.382	4.25
228.599	3.67
228.816	1.9
229.032	1.14
229.249	1.55
229.466	3.01
229.682	3.54
229.899	3.02
230.116	2.86
230.332	2.85
230.549	3.6
230.765	3
230.982	3.44
231.199	4.37
231.415	4.66
231.632	4.44
231.848	2.34
232.065	1.31
232.281	1.68
232.498	0.49
232.714	0.67
232.931	-5.45
233.147	-3.26
233.364	-3.3
233.58	-6.71
233.797	-5.67
234.013	-3.39
234.23	-0.89
234.446	1.17
234.662	0.86
234.879	2.52
235.095	1.46
235.312	7.03
235.528	6.89
235.744	6.42
235.961	9.57
236.177	8.5
236.393	7.74
236.61	7.66
236.826	6.07
237.042	6.97
237.258	7.81
237.475	5.95
237.691	5.74
237.907	3.69
238.123	1.01
238.339	0.68
238.556	2.94
238.772	1.83
238.988	1.8
239.204	2.45
239.42	1.5
239.636	-0.56
239.853	3.37
240.069	2.12
240.285	3.4
240.501	5.41
240.717	5.16
240.933	3.71
241.149	3.79
241.365	4.14
241.581	3.63
241.797	3.67
242.013	3.5
242.229	3.03
242.445	3.1
242.661	2.21
242.877	1.89
243.093	2.09
243.309	2.55
243.525	2.65
243.741	2.47
243.957	3.24
244.173	3.18
244.388	3.49
244.604	3.02
244.82	2.97
245.036	3.68
245.252	3.48
245.468	2.93
245.683	2.5
245.899	1.86
246.115	1.77
246.331	1.14
246.547	1.59
246.762	1.56
246.978	1.62
247.194	1.58
247.409	1.34
247.625	1.55
247.841	1.55
248.057	1.39
248.272	1.32
248.488	1.47
248.703	1.65
248.919	1.2
249.135	1.4
249.35	1.21
249.566	1.33
249.782	2.37
249.997	2.43
250.213	1.66
250.428	1.35
250.644	1.96
250.859	2.52
251.075	2.35
251.29	2.61
251.506	1.72
251.721	1.71
251.937	1.29
252.152	0.36
252.368	-0.24
252.583	0.81
252.798	1.38
253.014	1.74
253.229	0.15
253.445	0.49
253.66	-0.33
253.875	0.33
254.091	1.2
254.306	2.05
254.521	3.13
254.737	4.79
254.952	3.92
255.167	3.89
255.383	4.5
255.598	4.25
255.813	3.7
256.028	3.86
256.244	6.02
256.459	4.82
256.674	4.36
256.889	2.89
257.104	2.06
257.32	2.31
257.535	2.61
257.75	1.71
257.965	1.82
258.18	2.08
258.395	2.2
258.61	0.85
258.826	0.97
259.041	0.66
259.256	0.92
259.471	0.76
259.686	0.83
259.901	0.46
260.116	0.8
260.331	1.03
260.546	1.09
260.761	1.2
260.976	0.94
261.191	0.95
261.406	1.27
261.621	1.36
261.836	1.45
262.05	1.87
262.265	2.58
262.48	2.36
262.695	2.29
262.91	2.5
263.125	2.23
263.34	2.86
263.555	3.15
263.769	3.55
263.984	3.58
264.199	3.65
264.414	2.73
264.629	1.46
264.843	2.4
265.058	3.1
265.273	2.4
265.488	2.16
265.702	2.28
265.917	2.29
266.132	1.99
266.346	2.12
266.561	1.99
266.776	1.69
266.99	2.39
267.205	1.39
267.42	1.24
267.634	0.82
267.849	1.54
268.063	1.68
268.278	1.43
268.492	1.38
268.707	1.44
268.922	1.69
269.136	2.41
269.351	2.35
269.565	2.47
269.78	2.33
269.994	3.65
270.209	2.92
270.423	2.92
270.637	3.25
270.852	3.11
271.066	2.78
271.281	2.57
271.495	2.39
271.709	2.77
271.924	2.83
272.138	2.53
272.353	1.92
272.567	2.04
272.781	1.86
272.996	1.71
273.21	1.36
273.424	1.12
273.638	0.93
273.853	1.19
274.067	0.62
274.281	1.05
274.495	0.75
274.71	0.72
274.924	0.84
275.138	1.02
275.352	0.56
275.566	0.81
275.781	0.78
275.995	1.51
276.209	0.91
276.423	1.35
276.637	1.04
276.851	0.89
277.065	1.12
277.279	1.21
277.493	1.18
277.707	2.04
277.921	2.35
278.135	3.16
278.349	2.9
278.563	2.95
278.777	2.48
278.991	2.78
279.205	3.04
279.419	3.43
279.633	3.69
279.847	3.05
280.061	2.66
280.275	2.63
280.489	1.74
280.703	1.68
280.917	2.2
281.131	1.95
281.344	1.66
281.558	1.58
281.772	1.15
281.986	0.96
282.2	1.23
282.414	1.21
282.627	1.14
282.841	1.74
283.055	1.95
283.269	1.6
283.482	1.78
283.696	1.6
283.91	1.85
284.123	1.5
284.337	1.35
284.551	1.67
284.764	1.4
284.978	1.36
285.192	1.08
285.405	1.2
285.619	1.45
285.833	1.59
286.046	1.56
286.26	1.44
286.473	1.45
286.687	1.48
286.9	1.56
287.114	1.86
287.327	1.78
287.541	2.16
287.754	2.01
287.968	1.86
288.181	1.92
288.395	2.15
288.608	1.98
288.822	2.43
289.035	1.98
289.248	1.56
289.462	1.47
289.675	0.96
289.889	0.59
290.102	0.14
290.315	0
290.529	-0.09
290.742	0.15
290.955	0.56
291.169	0.53
291.382	0.68
291.595	1.03
291.808	1.05
292.022	1.77
292.235	1.9
292.448	2.1
292.661	2.28
292.875	2.51
293.088	2.08
293.301	1.76
293.514	1.64
293.727	1.74
293.94	1.71
294.153	1.74
294.367	2.18
294.58	2.22
294.793	2.19
295.006	1.9
295.219	1.75
295.432	1.95
295.645	1.9
295.858	2.14
296.071	2.38
296.284	2.35
296.497	2.28
296.71	2.01
296.923	1.88
297.136	1.78
297.349	1.85
297.562	1.99
297.775	2.01
297.988	2.07
298.201	1.81
298.414	1.92
298.626	1.88
298.839	1.99
299.052	2.01
299.265	2.45
299.478	2.95
299.691	3.36
299.903	3.85
300.116	3.84
300.329	4.22
300.542	4.17
300.755	4.23
300.967	4.33
301.18	3.87
301.393	3.81
301.605	3.53
301.818	3.29
302.031	2.87
302.243	2.31
302.456	2.43
302.669	2.8
302.881	2.92
303.094	2.86
303.307	2.91
303.519	3.47
303.732	3.75
303.944	3.78
304.157	3.5
304.37	3.76
304.582	3.85
304.795	3.43
305.007	2.85
305.22	3.09
305.432	2.99
305.645	3.01
305.857	2.83
306.069	2.32
306.282	2.43
306.494	2.92
306.707	3.1
306.919	3.01
307.132	3.35
307.344	3.45
307.556	3.22
307.769	3.07
307.981	2.98
308.193	2.92
308.406	3.1
308.618	2.8
308.83	2.8
309.043	2.32
309.255	2.68
309.467	2.81
309.679	2.99
309.892	3.61
310.104	3.72
310.316	3.86
310.528	4.16
310.74	4.18
310.953	4.12
311.165	3.92
311.377	4.18
311.589	4.13
311.801	3.73
312.013	3.99
312.225	3.49
312.437	3.58
312.649	3.55
312.862	3.4
313.074	3.32
313.286	3.65
313.498	3.9
313.71	4.01
313.922	3.73
314.134	4.52
314.346	4.04
314.558	4.3
314.77	4.41
314.982	4.33
315.193	4.35
315.405	4.3
315.617	4.39
315.829	4.19
316.041	4.33
316.253	4.38
316.465	3.73
316.677	3.52
316.888	3.08
317.1	2.65
317.312	2.96
317.524	2.85
317.736	3.38
317.947	3.52
318.159	3.54
318.371	3.56
318.583	3.5
318.794	3.85
319.006	4.46
319.218	4.98
319.43	4.92
319.641	4.98
319.853	5.28
320.064	5.45
320.276	5.61
320.488	5.77
320.699	5.76
320.911	6.03
321.123	6.06
321.334	5.62
321.546	5.38
321.757	6.43
321.969	6.35
322.18	6.42
322.392	6.81
322.603	6.6
322.815	6.96
323.026	7.25
323.238	7.77
323.449	8.24
323.661	8.48
323.872	8.9
324.083	8.42
324.295	8.36
324.506	8.45
324.718	8.06
324.929	8.24
325.14	8.57
325.352	8.64
325.563	8.4
325.774	8.23
325.986	8.33
326.197	8.24
326.408	8.76
326.62	9.14
326.831	9.42
327.042	9.94
327.253	10.55
327.464	10.33
327.676	10.61
327.887	11.11
328.098	11.31
328.309	11.95
328.52	11.99
328.732	12.23
328.943	12.49
329.154	12.51
329.365	12.6
329.576	13.16
329.787	13.9
329.998	14.36
330.209	14.61
330.42	15.37
330.631	15.27
330.842	15.75
331.053	16.17
331.264	16.8
331.475	16.98
331.686	17.13
331.897	16.73
332.108	16.63
332.319	16.59
332.53	16.69
332.741	16.66
332.952	16.96
333.163	17.44
333.374	17.55
333.585	17.19
333.795	17.6
334.006	17.89
334.217	17.7
334.428	18.09
334.639	18.57
334.849	18.58
335.06	18.92
335.271	18.63
335.482	18.36
335.692	18.33
335.903	18.26
336.114	18.64
336.325	18.45
336.535	18.61
336.746	18.74
336.957	18.15
337.167	18.09
337.378	18.13
337.589	18.44
337.799	19.19
338.01	18.88
338.22	19.17
338.431	18.93
338.642	19.09
338.852	19.47
339.063	19.54
339.273	20.03
339.484	19.96
339.694	19.52
339.905	19.9
340.115	19.58
340.326	19.55
340.536	19.5
340.746	19.58
340.957	19.37
341.167	19.34
341.378	19.14
341.588	19.07
341.799	19.5
342.009	19.62
342.219	19.47
342.43	19.24
342.64	19.7
342.85	19.91
343.061	19.78
343.271	20.36
343.481	20.33
343.691	20.21
343.902	20.1
344.112	20.37
344.322	20.32
344.532	20.18
344.743	20.37
344.953	20.73
345.163	20.79
345.373	20.99
345.583	20.69
345.793	20.66
346.004	21.09
346.214	21.19
346.424	20.78
346.634	21.13
346.844	21.51
347.054	21.5
347.264	20.86
347.474	20.48
347.684	20.25
347.894	20.16
348.104	20.53
348.314	20.57
348.524	20.51
348.734	20.2
348.944	19.72
349.154	19.37
349.364	19.34
349.574	19.6
349.784	19.77
349.994	19.86
350.204	19.88
350.413	19.68
350.623	19.78
350.833	19.93
351.043	20.38
351.253	20.51
351.463	20.6
351.672	20.56
351.882	20.64
352.092	20.91
352.302	20.94
352.511	20.87
352.721	20.59
352.931	20.37
353.141	20.01
353.35	19.89
353.56	20.01
353.77	19.62
353.979	19.58
354.189	19.54
354.399	19.44
354.608	18.94
354.818	18.88
355.027	18.91
355.237	18.76
355.447	18.81
355.656	18.74
355.866	18.66
356.075	18.81
356.285	18.67
356.494	18.52
356.704	18.41
356.913	18.72
357.123	18.65
357.332	18.69
357.542	18.47
357.751	18.5
357.96	18.55
358.17	18.75
358.379	18.79
358.589	19
358.798	18.86
359.007	18.91
359.217	18.91
359.426	19.15
359.635	19.17
359.845	19.3
360.054	19.25
360.263	19.13
360.472	18.79
360.682	18.95
360.891	18.74
361.1	19
361.309	18.93
361.519	18.79
361.728	18.58
361.937	18.57
362.146	18.62
362.355	18.47
362.564	18.5
362.774	18.66
362.983	18.88
363.192	18.97
363.401	18.66
363.61	18.63
363.819	18.8
364.028	18.81
364.237	18.95
364.446	18.72
364.655	19.04
364.864	19.09
365.073	18.74
365.282	18.25
365.491	18.34
365.7	18.45
365.909	18.32
366.118	18.27
366.327	18.46
366.536	18.42
366.745	18.32
366.954	18.21
367.162	18.31
367.371	18.59
367.58	18.76
367.789	18.63
367.998	18.25
368.207	18.71
368.415	18.73
368.624	18.64
368.833	18.49
369.042	18.8
369.25	18.69
369.459	18.4
369.668	18.32
369.877	18.36
370.085	18.44
370.294	18.91
370.503	18.4
370.711	18.34
370.92	18.32
371.129	18.15
371.337	18.03
371.546	18.03
371.754	18.2
371.963	18
372.171	17.72
372.38	17.64
372.589	17.56
372.797	17.63
373.006	17.65
373.214	17.49
373.423	17.65
373.631	17.66
373.84	17.72
374.048	17.7
374.256	18.01
374.465	18.29
374.673	18.4
374.882	18.46
375.09	18.44
375.298	18.27
375.507	18.32
375.715	18.21
375.923	18.19
376.132	18.24
376.34	18.04
376.548	17.82
376.757	17.79
376.965	17.62
377.173	17.54
377.381	17.52
377.59	17.57
377.798	17.7
378.006	17.64
378.214	17.63
378.423	17.54
378.631	17.72
378.839	17.77
379.047	17.62
379.255	17.69
379.463	17.61
379.671	17.62
379.879	17.49
380.088	17.39
380.296	17.5
380.504	17.53
380.712	17.24
380.92	16.96
381.128	17.01
381.336	17.09
381.544	16.72
381.752	17.08
381.96	17.02
382.168	17.4
382.376	17.23
382.584	17.22
382.791	17.23
382.999	17.38
383.207	17.64
383.415	17.56
383.623	17.23
383.831	17.66
384.039	17.21
384.247	17.11
384.454	16.88
384.662	16.94
384.87	16.88
385.078	16.99
385.285	17.06
385.493	17.07
385.701	17.17
385.909	17.38
386.116	17.1
386.324	17.23
386.532	17.37
386.739	17.3
386.947	17.52
387.155	17.65
387.362	17.9
387.57	17.87
387.778	17.86
387.985	17.81
388.193	17.87
388.4	17.99
388.608	17.96
388.816	18
389.023	18.06
389.231	17.84
389.438	17.85
389.646	17.44
389.853	17.58
390.061	17.44
390.268	17.54
390.475	17.39
390.683	17.55
390.89	17.6
391.098	17.76
391.305	17.98
391.512	17.96
391.72	17.78
391.927	17.84
392.135	17.72
392.342	17.82
392.549	17.7
392.756	17.74
392.964	17.44
393.171	17.37
393.378	17.17
393.586	16.8
393.793	16.78
394	16.94
394.207	16.73
394.414	16.88
394.622	17
394.829	17.18
395.036	17.37
395.243	17.42
395.45	17.44
395.657	17.49
395.864	17.62
396.072	17.71
396.279	17.52
396.486	17.59
396.693	17.41
396.9	17.28
397.107	17.31
397.314	17.07
397.521	17.24
397.728	17.1
397.935	17.07
398.142	16.86
398.349	16.72
398.556	16.77
398.763	16.63
398.97	16.85
399.177	16.64
399.383	16.44
399.59	16.54
399.797	16.38
400.004	16.53
400.211	16.56
400.418	16.86
400.625	17
400.831	16.98
401.038	17.23
401.245	17.12
401.452	17.27
401.658	17.4
401.865	17.21
402.072	17.21
402.279	17.29
402.485	17.25
402.692	17.32
402.899	17.34
403.105	17.36
403.312	17.29
403.519	17.49
403.725	17.53
403.932	17.5
404.138	17.6
404.345	17.77
404.552	17.58
404.758	17.66
404.965	17.8
405.171	17.82
405.378	17.89
405.584	17.8
405.791	17.49
405.997	17.46
406.204	17.32
406.41	17.4
406.617	17.14
406.823	17.23
407.029	17.13
407.236	16.94
407.442	16.72
407.649	16.69
407.855	16.87
408.061	16.87
408.268	16.93
408.474	16.97
408.68	16.95
408.887	17.14
409.093	17.25
409.299	17.25
409.505	17.2
409.712	17.46
409.918	17.33
410.124	17.27
410.33	17.28
410.537	17.31
410.743	17.27
410.949	17.24
411.155	17.39
411.361	17.14
411.567	17.14
411.773	17.03
411.98	16.85
412.186	17.13
412.392	17.35
412.598	17.42
412.804	17.36
413.01	17.52
413.216	17.54
413.422	17.44
413.628	17.45
413.834	17.43
414.04	17.62
414.246	17.68
414.452	17.49
414.658	17.23
414.864	17.34
415.07	17.36
415.275	17.34
415.481	17.28
415.687	17.19
415.893	17.26
416.099	17.4
416.305	17.4
416.511	17.41
416.716	17.5
416.922	17.57
417.128	17.26
417.334	17.24
417.539	17.2
417.745	17.2
417.951	17.21
418.157	17.39
418.362	17.32
418.568	17.28
418.774	17.29
418.979	17.3
419.185	17.34
419.391	17.5
419.596	17.45
419.802	17.52
420.008	17.6
420.213	17.56
420.419	17.44
420.624	17.49
420.83	17.52
421.035	17.5
421.241	17.52
421.446	17.37
421.652	17.35
421.857	17.45
422.063	17.35
422.268	17.26
422.474	17.23
422.679	17.29
422.885	17.22
423.09	17.22
423.295	17.18
423.501	17.15
423.706	17.28
423.911	17.31
424.117	17.23
424.322	17.3
424.527	17.3
424.733	17.42
424.938	17.36
425.143	17.41
425.349	17.42
425.554	17.49
425.759	17.5
425.964	17.49
426.169	17.47
426.375	17.47
426.58	17.44
426.785	17.49
426.99	17.39
427.195	17.42
427.4	17.46
427.605	17.43
427.811	17.36
428.016	17.28
428.221	17.4
428.426	17.49
428.631	17.55
428.836	17.61
429.041	17.71
429.246	17.92
429.451	17.91
429.656	17.82
429.861	17.79
430.066	17.79
430.271	17.9
430.476	17.75
430.681	17.79
430.886	17.73
431.09	17.7
431.295	17.6
431.5	17.52
431.705	17.61
431.91	17.57
432.115	17.73
432.32	17.8
432.524	17.86
432.729	17.86
432.934	17.81
433.139	17.85
433.343	17.9
433.548	18.04
433.753	18.17
433.958	18.29
434.162	18.52
434.367	18.53
434.572	18.74
434.776	18.63
434.981	18.8
435.186	18.94
435.39	19.1
435.595	19.29
435.799	19.17
436.004	19.05
436.209	18.98
436.413	18.92
436.618	18.88
436.822	18.79
437.027	18.98
437.231	18.9
437.436	18.9
437.64	18.82
437.845	18.66
438.049	18.68
438.253	18.64
438.458	18.64
438.662	18.61
438.867	18.44
439.071	18.39
439.275	18.33
439.48	18.28
439.684	18.35
439.888	18.28
440.093	18.23
440.297	18.33
440.501	18.35
440.706	18.37
440.91	18.39
441.114	18.53
441.318	18.53
441.523	18.51
441.727	18.54
441.931	18.43
442.135	18.54
442.339	18.63
442.543	18.53
442.748	18.62
442.952	18.55
443.156	18.46
443.36	18.35
443.564	18.42
443.768	18.48
443.972	18.35
444.176	18.37
444.38	18.46
444.584	18.42
444.788	18.55
444.992	18.47
445.196	18.53
445.4	18.6
445.604	18.66
445.808	18.58
446.012	18.51
446.216	18.64
446.42	18.59
446.624	18.48
446.828	18.46
447.032	18.44
447.235	18.47
447.439	18.43
447.643	18.47
447.847	18.44
448.051	18.46
448.254	18.48
448.458	18.42
448.662	18.46
448.866	18.46
449.069	18.48
449.273	18.41
449.477	18.4
449.681	18.37
449.884	18.32
450.088	18.35
450.292	18.42
450.495	18.52
450.699	18.72
450.902	18.69
451.106	18.74
451.31	18.72
451.513	18.8
451.717	18.85
451.92	18.86
452.124	18.77
452.327	18.72
452.531	18.63
452.734	18.53
452.938	18.44
453.141	18.53
453.345	18.4
453.548	18.52
453.752	18.41
453.955	18.34
454.158	18.44
454.362	18.47
454.565	18.48
454.769	18.56
454.972	18.65
455.175	18.66
455.379	18.44
455.582	18.5
455.785	18.42
455.988	18.51
456.192	18.57
456.395	18.5
456.598	18.57
456.801	18.71
457.005	18.67
457.208	18.55
457.411	18.6
457.614	18.75
457.817	18.84
458.021	18.84
458.224	18.81
458.427	18.81
458.63	18.77
458.833	18.73
459.036	18.66
459.239	18.63
459.442	18.64
459.645	18.52
459.848	18.47
460.051	18.51
460.254	18.47
460.457	18.46
460.66	18.47
460.863	18.44
461.066	18.44
461.269	18.53
461.472	18.59
461.675	18.56
461.878	18.55
462.081	18.61
462.284	18.54
462.486	18.56
462.689	18.54
462.892	18.4
463.095	18.46
463.298	18.42
463.5	18.42
463.703	18.44
463.906	18.62
464.109	18.64
464.311	18.72
464.514	18.63
464.717	18.76
464.92	18.91
465.122	19.18
465.325	19.33
465.528	19.35
465.73	19.29
465.933	19.26
466.135	19.2
466.338	19.31
466.541	19.23
466.743	19.31
466.946	19.31
467.148	19.27
467.351	19.18
467.553	19.12
467.756	19.18
467.958	19.13
468.161	19.03
468.363	18.96
468.566	18.98
468.768	18.96
468.971	18.9
469.173	18.93
469.375	18.79
469.578	18.75
469.78	18.7
469.983	18.75
470.185	18.71
470.387	18.82
470.59	18.88
470.792	18.67
470.994	18.75
471.196	18.93
471.399	18.74
471.601	18.76
471.803	18.69
472.005	18.71
472.208	18.64
472.41	18.67
472.612	18.66
472.814	18.74
473.016	18.85
473.218	18.8
473.421	18.65
473.623	18.71
473.825	18.73
474.027	18.76
474.229	18.76
474.431	18.67
474.633	18.71
474.835	18.77
475.037	18.65
475.239	18.66
475.441	18.64
475.643	18.71
475.845	18.75
476.047	18.78
476.249	18.74
476.451	18.62
476.653	18.74
476.855	18.89
477.057	18.78
477.258	18.85
477.46	18.8
477.662	18.83
477.864	18.85
478.066	18.96
478.268	18.97
478.469	18.94
478.671	18.93
478.873	18.88
479.075	18.81
479.276	18.96
479.478	18.91
479.68	19.05
479.882	19.09
480.083	19.01
480.285	18.99
480.487	19.04
480.688	19.12
480.89	19.23
481.091	19.22
481.293	19.18
481.495	19.07
481.696	19.1
481.898	19.05
482.099	19.1
482.301	19.11
482.502	19.06
482.704	19.03
482.905	19.01
483.107	18.97
483.308	18.95
483.51	18.89
483.711	18.91
483.913	18.87
484.114	18.87
484.315	18.82
484.517	18.82
484.718	18.8
484.92	18.79
485.121	18.81
485.322	18.79
485.524	18.83
485.725	18.89
485.926	18.89
486.127	18.87
486.329	18.92
486.53	18.89
486.731	18.91
486.932	18.89
487.134	18.89
487.335	18.88
487.536	18.95
487.737	18.94
487.938	18.94
488.139	18.9
488.341	18.95
488.542	18.96
488.743	19.02
488.944	19.01
489.145	19.07
489.346	19.05
489.547	19.05
489.748	19.05
489.949	19.01
490.15	19.04
490.351	19.09
490.552	19.08
490.753	19
490.954	19
491.155	19.01
491.356	19.03
491.557	19.09
491.758	19.08
491.959	19.04
492.159	19.07
492.36	19.03
492.561	19.04
492.762	19.09
492.963	19.09
493.164	19.05
493.364	19.01
493.565	18.96
493.766	18.9
493.967	18.88
494.167	18.9
494.368	18.92
494.569	19
494.769	19.03
494.97	18.87
495.171	18.93
495.371	19.04
495.572	19.06
495.773	19.07
495.973	19.09
496.174	19.09
496.375	19.15
496.575	19.22
496.776	19.21
496.976	19.12
497.177	19.26
497.377	19.19
497.578	19.15
497.778	19.05
497.979	19.08
498.179	19.12
498.38	19.19
498.58	19.1
498.78	19.04
498.981	19.04
499.181	19.1
499.382	19.1
499.582	19.14
499.782	19.12
499.983	19.23
500.183	19.27
500.383	19.29
500.584	19.26
500.784	19.34
500.984	19.27
501.184	19.22
501.385	19.31
501.585	19.26
501.785	19.39
501.985	19.4
502.185	19.48
502.386	19.42
502.586	19.41
502.786	19.47
502.986	19.48
503.186	19.57
503.386	19.62
503.586	19.5
503.786	19.54
503.987	19.53
504.187	19.61
504.387	19.56
504.587	19.59
504.787	19.54
504.987	19.53
505.187	19.46
505.387	19.4
505.587	19.36
505.786	19.35
505.986	19.29
506.186	19.24
506.386	19.22
506.586	19.29
506.786	19.39
506.986	19.42
507.186	19.37
507.386	19.4
507.585	19.54
507.785	19.55
507.985	19.59
508.185	19.72
508.384	19.65
508.584	19.61
508.784	19.53
508.984	19.45
509.183	19.58
509.383	19.62
509.583	19.73
509.782	19.66
509.982	19.74
510.182	19.69
510.381	19.67
510.581	19.82
510.781	19.83
510.98	19.86
511.18	19.85
511.379	19.78
511.579	19.83
511.778	19.68
511.978	19.66
512.177	19.62
512.377	19.67
512.576	19.54
512.776	19.47
512.975	19.46
513.175	19.43
513.374	19.45
513.573	19.45
513.773	19.37
513.972	19.39
514.172	19.47
514.371	19.41
514.57	19.47
514.77	19.53
514.969	19.56
515.168	19.57
515.367	19.67
515.567	19.7
515.766	19.79
515.965	19.97
516.164	19.94
516.364	19.85
516.563	19.98
516.762	19.94
516.961	20
517.16	20.01
517.359	20.04
517.559	20.03
517.758	20.02
517.957	20.02
518.156	20.02
518.355	20.13
518.554	20.14
518.753	20.09
518.952	20.09
519.151	20.13
519.35	20.13
519.549	20.13
519.748	20.08
519.947	20.05
520.146	20.07
520.345	19.93
520.544	19.97
520.743	20.01
520.942	20.11
521.141	20.17
521.339	20.19
521.538	20.3
521.737	20.26
521.936	20.32
522.135	20.41
522.333	20.37
522.532	20.44
522.731	20.37
522.93	20.5
523.129	20.44
523.327	20.42
523.526	20.41
523.725	20.38
523.923	20.41
524.122	20.46
524.321	20.42
524.519	20.46
524.718	20.45
524.917	20.44
525.115	20.43
525.314	20.49
525.512	20.48
525.711	20.47
525.909	20.42
526.108	20.43
526.306	20.43
526.505	20.47
526.703	20.44
526.902	20.45
527.1	20.49
527.299	20.42
527.497	20.42
527.696	20.43
527.894	20.44
528.092	20.48
528.291	20.48
528.489	20.48
528.688	20.45
528.886	20.43
529.084	20.47
529.283	20.48
529.481	20.52
529.679	20.51
529.877	20.57
530.076	20.59
530.274	20.56
530.472	20.58
530.67	20.55
530.869	20.56
531.067	20.63
531.265	20.58
531.463	20.51
531.661	20.49
531.859	20.52
532.057	20.47
532.255	20.48
532.454	20.51
532.652	20.48
532.85	20.57
533.048	20.55
533.246	20.5
533.444	20.54
533.642	20.6
533.84	20.64
534.038	20.62
534.236	20.62
534.434	20.52
534.632	20.51
534.83	20.56
535.027	20.53
535.225	20.64
535.423	20.67
535.621	20.67
535.819	20.74
536.017	20.77
536.215	20.84
536.412	20.9
536.61	21
536.808	21.12
537.006	21.19
537.203	21.2
537.401	21.29
537.599	21.35
537.797	21.43
537.994	21.46
538.192	21.47
538.39	21.51
538.587	21.62
538.785	21.68
538.983	21.81
539.18	21.93
539.378	22.09
539.575	22.14
539.773	22.31
539.97	22.47
540.168	22.53
540.366	22.69
540.563	22.76
540.761	22.78
540.958	22.82
541.155	22.78
541.353	22.79
541.55	22.76
541.748	22.79
541.945	22.73
542.143	22.69
542.34	22.72
542.537	22.66
542.735	22.68
542.932	22.71
543.129	22.87
543.327	22.97
543.524	23.19
543.721	23.43
543.919	23.6
544.116	23.87
544.313	24.19
544.51	24.46
544.708	24.83
544.905	25.12
545.102	25.41
545.299	25.56
545.496	25.76
545.693	25.73
545.891	25.7
546.088	25.7
546.285	25.58
546.482	25.42
546.679	25.2
546.876	24.94
547.073	24.75
547.27	24.58
547.467	24.36
547.664	24.03
547.861	23.89
548.058	23.81
548.255	23.66
548.452	23.53
548.649	23.44
548.846	23.34
549.043	23.36
549.24	23.25
549.437	23.19
549.633	23.14
549.83	23.2
550.027	23.08
550.224	22.94
550.421	22.94
550.618	22.87
550.814	22.84
551.011	22.78
551.208	22.57
551.405	22.53
551.601	22.49
551.798	22.4
551.995	22.39
552.191	22.39
552.388	22.24
552.585	22.24
552.781	22.23
552.978	22.14
553.175	22.22
553.371	22.22
553.568	22.18
553.764	22.07
553.961	22.17
554.157	21.99
554.354	21.95
554.55	22.07
554.747	21.94
554.943	21.93
555.14	21.9
555.336	21.86
555.533	21.86
555.729	21.77
555.926	21.74
556.122	21.76
556.318	21.85
556.515	21.91
556.711	21.97
556.907	21.99
557.104	21.97
557.3	22.09
557.496	22.05
557.693	22.13
557.889	22.15
558.085	22.28
558.281	22.19
558.478	22.29
558.674	22.34
558.87	22.24
559.066	22.15
559.262	22.16
559.459	22.2
559.655	21.99
559.851	22.01
560.047	22.06
560.243	21.88
560.439	21.88
560.635	21.68
560.831	21.46
561.027	21.47
561.223	21.57
561.419	21.57
561.615	21.36
561.811	21.62
562.007	21.5
562.203	21.37
562.399	21.46
562.595	21.47
562.791	21.51
562.987	21.5
563.183	21.55
563.379	21.59
563.575	21.61
563.771	21.82
563.966	21.7
564.162	21.81
564.358	22
564.554	22.14
564.75	22.24
564.945	22.34
565.141	22.42
565.337	22.48
565.533	22.41
565.728	22.45
565.924	22.34
566.12	22.48
566.315	22.46
566.511	22.46
566.707	22.4
566.902	22.25
567.098	22.28
567.293	22.21
567.489	22.05
567.684	22.04
567.88	22.03
568.076	22.08
568.271	22.07
568.467	22.11
568.662	22.11
568.858	21.95
569.053	22.06
569.248	22.05
569.444	22.15
569.639	22.27
569.835	22.36
570.03	22.45
570.225	22.42
570.421	22.32
570.616	22.22
570.812	21.99
571.007	22.18
571.202	22.19
571.397	22.13
571.593	22.09
571.788	22.11
571.983	22.1
572.178	22.03
572.374	22.02
572.569	22.04
572.764	22.1
572.959	22.33
573.154	22.31
573.35	22.27
573.545	22.32
573.74	22.46
573.935	22.46
574.13	22.57
574.325	22.51
574.52	22.67
574.715	22.76
574.91	22.88
575.105	22.93
575.3	22.89
575.495	22.99
575.69	23.05
575.885	22.99
576.08	23.1
576.275	23.11
576.47	23.38
576.665	23.42
576.86	23.42
577.055	23.4
577.25	23.37
577.444	23.56
577.639	23.66
577.834	23.81
578.029	23.95
578.224	23.9
578.418	23.96
578.613	23.86
578.808	23.87
579.003	24
579.197	24.12
579.392	24.16
579.587	24.08
579.781	24.03
579.976	23.88
580.171	23.96
580.365	24.02
580.56	23.94
580.755	23.91
580.949	23.93
581.144	23.81
581.338	23.74
581.533	23.75
581.727	23.84
581.922	23.82
582.116	24.04
582.311	24.09
582.505	24
582.7	24.05
582.894	24.24
583.089	24.35
583.283	24.48
583.478	24.64
583.672	24.78
583.866	24.79
584.061	24.77
584.255	24.59
584.449	24.48
584.644	24.8
584.838	24.85
585.032	24.87
585.226	24.84
585.421	24.95
585.615	24.93
585.809	24.74
586.003	24.83
586.198	25
586.392	25.07
586.586	25.16
586.78	25.12
586.974	25.15
587.168	25.02
587.363	24.96
587.557	24.81
587.751	24.66
587.945	24.8
588.139	24.78
588.333	24.64
588.527	24.73
588.721	24.59
588.915	24.34
589.109	24.34
589.303	24.32
589.497	24.42
589.691	24.47
589.885	24.48
590.079	24.39
590.273	24.28
590.466	24.32
590.66	24.3
590.854	24.5
591.048	24.64
591.242	24.57
591.436	24.79
591.629	24.88
591.823	25.07
592.017	25.22
592.211	25.5
592.404	25.64
592.598	25.94
592.792	25.94
592.986	25.83
593.179	25.82
593.373	25.91
593.567	25.77
593.76	25.59
593.954	25.44
594.147	25.41
594.341	25.18
594.535	24.96
594.728	24.78
594.922	24.75
595.115	24.66
595.309	24.67
595.502	24.68
595.696	24.77
595.889	24.68
596.083	24.68
596.276	24.62
596.47	24.61
596.663	24.62
596.856	24.64
597.05	24.76
597.243	24.8
597.437	25
597.63	25
597.823	24.94
598.017	24.94
598.21	24.96
598.403	25.1
598.596	25.26
598.79	25.45
598.983	25.5
599.176	25.39
599.369	25.41
599.563	25.34
599.756	25.26
599.949	25.27
600.142	25.29
600.335	25.3
600.528	25.06
600.722	24.93
600.915	24.93
601.108	24.7
601.301	24.61
601.494	24.75
601.687	24.63
601.88	24.7
602.073	24.58
602.266	24.63
602.459	24.5
602.652	24.63
602.845	24.73
603.038	24.68
603.231	24.8
603.424	24.91
603.617	24.82
603.809	24.77
604.002	24.84
604.195	24.79
604.388	24.93
604.581	25
604.774	25.05
604.966	24.96
605.159	24.94
605.352	24.99
605.545	24.88
605.737	25.1
605.93	25.18
606.123	25.18
606.316	25.46
606.508	25.45
606.701	25.72
606.894	25.92
607.086	26.25
607.279	26.41
607.471	26.74
607.664	27.16
607.857	27.31
608.049	27.67
608.242	28.24
608.434	28.95
608.627	29.9
608.819	30.65
609.012	31.69
609.204	32.73
609.397	33.89
609.589	35.29
609.782	36.65
609.974	38.26
610.166	39.85
610.359	41.12
610.551	42.28
610.743	43.3
610.936	44.27
611.128	44.94
611.32	45.33
611.513	45.76
611.705	45.56
611.897	45.36
612.09	44.73
612.282	43.84
612.474	43.11
612.666	42.31
612.858	41.36
613.051	40.51
613.243	39.64
613.435	39.02
613.627	38.26
613.819	37.7
614.011	37.06
614.203	36.52
614.395	35.94
614.588	35.32
614.78	34.64
614.972	34.07
615.164	33.41
615.356	32.94
615.548	32.47
615.74	31.84
615.932	31.26
616.124	30.76
616.315	30.17
616.507	30.08
616.699	29.66
616.891	29.56
617.083	29.24
617.275	29.09
617.467	28.75
617.659	28.59
617.85	28.67
618.042	28.44
618.234	28.33
618.426	28.41
618.618	28.1
618.809	28.18
619.001	27.95
619.193	28.05
619.384	28
619.576	27.92
619.768	27.67
619.959	27.54
620.151	27.56
620.343	27.63
620.534	27.6
620.726	27.78
620.917	27.84
621.109	27.91
621.301	27.78
621.492	27.79
621.684	27.88
621.875	28.04
622.067	28.16
622.258	28.32
622.45	28.31
622.641	28.54
622.832	28.46
623.024	28.48
623.215	28.78
623.407	28.96
623.598	29
623.789	29.09
623.981	29.31
624.172	29.23
624.363	29.05
624.555	29
624.746	28.83
624.937	28.79
625.129	28.8
625.32	28.8
625.511	28.71
625.702	28.65
625.893	28.54
626.085	28.28
626.276	28.21
626.467	28.27
626.658	28.25
626.849	28.36
627.04	28.39
627.231	28.39
627.422	28.17
627.614	28.28
627.805	28.38
627.996	28.51
628.187	28.72
628.378	28.97
628.569	29.18
628.76	29.36
628.951	29.33
629.142	29.59
629.332	29.87
629.523	30.21
629.714	30.36
629.905	30.63
630.096	30.73
630.287	30.86
630.478	30.74
630.669	30.68
630.859	30.42
631.05	30.28
631.241	30.03
631.432	29.79
631.623	29.61
631.813	29.25
632.004	28.79
632.195	28.69
632.385	28.18
632.576	28.25
632.767	27.8
632.957	27.94
633.148	27.82
633.339	27.86
633.529	27.66
633.72	27.55
633.91	27.44
634.101	27.48
634.292	27.11
634.482	27.16
634.673	26.84
634.863	26.99
635.054	26.77
635.244	26.78
635.435	26.69
635.625	26.86
635.815	26.57
636.006	26.79
636.196	26.9
636.387	27.1
636.577	27.31
636.767	27.32
636.958	27.36
637.148	27.49
637.338	27.48
637.529	27.46
637.719	27.36
637.909	27.73
638.099	27.64
638.29	27.53
638.48	27.49
638.67	27.34
638.86	27.4
639.05	27.66
639.241	27.5
639.431	27.67
639.621	27.89
639.811	27.95
640.001	27.68
640.191	27.76
640.381	27.98
640.571	28.02
640.761	28.19
640.951	28.24
641.141	28.15
641.331	28.3
641.521	28.08
641.711	27.84
641.901	27.72
642.091	27.69
642.281	27.56
642.471	27.56
642.661	27.55
642.851	27.51
643.041	27.39
643.231	27.13
643.42	27.35
643.61	27.45
643.8	27.4
643.99	27.31
644.18	27.29
644.369	27.13
644.559	26.96
644.749	26.8
644.939	26.89
645.128	27.15
645.318	27.44
645.508	27.6
645.697	27.66
645.887	27.53
646.076	27.82
646.266	27.97
646.456	28.11
646.645	28.23
646.835	28.63
647.024	28.38
647.214	28.31
647.403	28.03
647.593	27.94
647.782	27.9
647.972	28.05
648.161	28.03
648.351	28.49
648.54	28.98
648.73	29.07
648.919	28.89
649.108	29.24
649.298	29.23
649.487	29.69
649.677	29.62
649.866	29.65
650.055	30
650.244	29.94
650.434	29.63
650.623	29.32
650.812	29.32
651.002	29.37
651.191	29.21
651.38	29.14
651.569	29.16
651.758	29.38
651.947	29.66
652.137	29.47
652.326	29.64
652.515	29.48
652.704	29.57
652.893	29.56
653.082	29.48
653.271	29.34
653.46	29.38
653.649	29.11
653.838	28.97
654.027	28.75
654.216	28.89
654.405	28.79
654.594	29
654.783	29.08
654.972	28.93
655.161	29.03
655.35	28.95
655.539	29.26
655.728	29.64
655.916	29.71
656.105	29.7
656.294	29.43
656.483	29.38
656.672	29.52
656.86	29.47
657.049	29.48
657.238	29.44
657.427	29.67
657.615	29.53
657.804	29.22
657.993	28.96
658.181	29.1
658.37	29.2
658.559	29.11
658.747	28.89
658.936	28.74
659.125	29
659.313	28.95
659.502	28.92
659.69	29.01
659.879	29.02
660.067	29.28
660.256	29.2
660.444	29.23
660.633	29.36
660.821	29.52
661.01	29.65
661.198	29.52
661.387	29.56
661.575	29.82
661.763	29.43
661.952	29.61
662.14	29.48
662.328	29.52
662.517	29.33
662.705	29.31
662.893	29.19
663.082	29.06
663.27	28.84
663.458	28.87
663.646	28.4
663.834	29.01
664.023	28.91
664.211	28.98
664.399	28.98
664.587	29.27
664.775	29.32
664.963	29.09
665.152	29.23
665.34	29.52
665.528	29.78
665.716	30.07
665.904	29.66
666.092	29.57
666.28	29.16
666.468	29.02
666.656	28.68
666.844	28.7
667.032	28.77
667.22	28.63
667.408	28.33
667.596	28.19
667.784	28.24
667.971	28.41
668.159	28.47
668.347	28.91
668.535	29.1
668.723	29.37
668.911	29.24
669.098	29.22
669.286	29.41
669.474	29.6
669.662	29.83
669.849	29.94
670.037	30.07
670.225	29.98
670.413	29.84
670.6	29.73
670.788	29.96
670.976	30.23
671.163	30.49
671.351	30.44
671.538	30.6
671.726	30.45
671.913	30.17
672.101	30.1
672.289	30.1
672.476	29.91
672.664	30
672.851	29.62
673.039	29.62
673.226	29.59
673.413	29.43
673.601	29.34
673.788	29.32
673.976	29.48
674.163	29.29
674.35	29.52
674.538	29.83
674.725	29.59
674.912	29.93
675.1	29.99
675.287	30.03
675.474	30.23
675.662	30.37
675.849	30.68
676.036	30.56
676.223	30.69
676.411	30.9
676.598	30.73
676.785	31.09
676.972	30.77
677.159	30.83
677.346	31.02
677.533	31.08
677.721	31.02
677.908	30.89
678.095	31.13
678.282	30.94
678.469	30.65
678.656	30.87
678.843	30.91
679.03	31.2
679.217	31.24
679.404	31.02
679.591	31.07
679.778	31.04
679.964	31.11
680.151	30.84
680.338	30.89
680.525	30.83
680.712	31.01
680.899	30.87
681.086	30.82
681.272	30.55
681.459	30.54
681.646	30.4
681.833	30.21
682.02	30.09
682.206	30.2
682.393	30.29
682.58	30.6
682.766	30.29
682.953	30.23
683.14	30.26
683.326	30.41
683.513	30.5
683.7	30.49
683.886	30.84
684.073	30.67
684.259	30.65
684.446	30.49
684.632	30.52
684.819	30.76
685.005	31.09
685.192	30.99
685.378	31.13
685.565	31.37
685.751	31.67
685.938	31.74
686.124	31.87
686.31	31.96
686.497	32.07
686.683	32.09
686.87	32.06
687.056	31.8
687.242	31.95
687.429	31.7
687.615	31.76
687.801	31.75
687.987	31.52
688.174	31.47
688.36	31.94
688.546	32.02
688.732	31.77
688.918	31.77
689.105	31.58
689.291	31.27
689.477	31.55
689.663	31.15
689.849	30.98
690.035	31.13
690.221	31.54
690.407	31.1
690.593	31.62
690.779	31.9
690.965	31.61
691.151	31.87
691.337	31.94
691.523	31.82
691.709	32.13
691.895	32.18
692.081	32.03
692.267	31.81
692.453	31.79
692.639	31.36
692.825	31.19
693.011	31.36
693.196	31.65
693.382	32.07
693.568	32.1
693.754	32.23
693.94	32.64
694.125	32.72
694.311	32.72
694.497	32.36
694.682	32.5
694.868	32.34
695.054	32.27
695.239	32.24
695.425	32.02
695.611	31.78
695.796	31.18
695.982	30.69
696.168	30.51
696.353	30.34
696.539	30.65
696.724	30.5
696.91	30.31
697.095	30.66
697.281	30.52
697.466	30.54
697.652	30.89
697.837	31.12
698.023	31.55
698.208	31.51
698.393	31.42
698.579	31.44
698.764	31.71
698.949	31.92
699.135	31.76
699.32	31.76
699.505	31.98
699.691	31.64
699.876	31.58
700.061	31.48
700.246	31.75
700.432	32.19
700.617	32.36
700.802	32.11
700.987	32.27
701.172	32.21
701.358	32.27
701.543	32.16
701.728	32.37
701.913	32.67
702.098	32.82
702.283	32.9
702.468	32.78
702.653	32.74
702.838	33.13
703.023	33.05
703.208	33.21
703.393	33.15
703.578	33.26
703.763	33.57
703.948	33.89
704.133	33.75
704.318	34.02
704.503	34.25
704.688	34.61
704.873	34.62
705.057	35.57
705.242	35.98
705.427	36.23
705.612	36.83
705.797	37.52
705.981	37.94
706.166	38.17
706.351	38.28
706.536	38.69
706.72	38.98
706.905	38.91
707.09	38.57
707.274	38.57
707.459	38.73
707.644	38.23
707.828	38.18
708.013	37.95
708.197	37.87
708.382	37.86
708.567	37.38
708.751	37.06
708.936	36.97
709.12	37.17
709.305	36.6
709.489	36.35
709.673	36.43
709.858	35.95
710.042	35.59
710.227	35.59
710.411	35.44
710.596	35.48
710.78	35.62
710.964	36.02
711.149	35.81
711.333	36.43
711.517	36.77
711.702	36.65
711.886	36.53
712.07	36.36
712.254	36.38
712.438	36.22
712.623	35.94
712.807	35.74
712.991	35.52
713.175	35.06
713.359	34.86
713.544	34.94
713.728	34.8
713.912	34.8
714.096	34.77
714.28	34.48
714.464	34.5
714.648	34.63
714.832	34.18
715.016	33.67
715.2	33.63
715.384	33.25
715.568	32.97
715.752	32.95
715.936	32.85
716.12	32.87
716.304	32.85
716.488	32.61
716.671	32.46
716.855	32.59
717.039	32.96
717.223	32.95
717.407	33.27
717.59	33.41
717.774	33.35
717.958	33.58
718.142	33.59
718.325	33.62
718.509	33.93
718.693	33.68
718.877	33.77
719.06	34.04
719.244	34.34
719.428	34.13
719.611	34.11
719.795	34.24
719.978	34.31
720.162	34.59
720.345	34.54
720.529	34.29
720.713	34.65
720.896	34.89
721.08	34.54
721.263	34.21
721.446	34.24
721.63	34.11
721.813	34.44
721.997	33.99
722.18	33.92
722.364	34.21
722.547	33.57
722.73	33.77
722.914	33.85
723.097	33.37
723.28	33.51
723.464	34.07
723.647	33.57
723.83	34.14
724.013	34.57
724.197	34.5
724.38	34.2
724.563	35.37
724.746	35.07
724.929	35.13
725.112	35.53
725.296	35.82
725.479	35.09
725.662	35.77
725.845	34.36
726.028	34.3
726.211	34.09
726.394	34.76
726.577	34.32
726.76	34.4
726.943	34.36
727.126	34.27
727.309	33.44
727.492	33.97
727.675	33.62
727.858	34.33
728.041	34.48
728.224	34.77
728.407	34.62
728.589	34.93
728.772	34.98
728.955	35.09
729.138	35.43
729.321	35.88
729.503	34.86
729.686	35.38
729.869	35.14
730.052	35.23
730.234	34.95
730.417	34.75
730.6	34.21
730.782	34.72
730.965	33.9
731.148	33.87
731.33	33.92
731.513	34.63
731.695	34.19
731.878	34.18
732.061	34.08
732.243	34.18
732.426	34.3
732.608	34.33
732.791	33.33
732.973	33.89
733.156	33.79
733.338	33.9
733.52	34
733.703	34
733.885	34.45
734.068	34.21
734.25	34.09
734.432	33.89
734.615	33.96
734.797	34.49
734.979	34.67
735.162	34.49
735.344	34.91
735.526	34.68
735.708	34.87
735.891	34.17
736.073	34.48
736.255	34.21
736.437	33.87
736.619	34.09
736.802	34.17
736.984	34.17
737.166	34.27
737.348	33.75
737.53	34.02
737.712	33.83
737.894	33.96
738.076	33.5
738.258	33.56
738.44	33.8
738.622	34.04
738.804	33.79
738.986	33.52
739.168	33.57
739.35	33.28
739.532	33
739.714	33.02
739.896	33.43
740.078	33.34
740.259	33.91
740.441	34.16
740.623	34.09
740.805	33.7
740.987	33.87
741.168	33.52
741.35	33.83
741.532	33.48
741.714	33.57
741.895	32.94
742.077	33.09
742.259	33.18
742.44	32.91
742.622	32.78
742.804	33.44
742.985	33.79
743.167	33.98
743.348	34.18
743.53	34.59
743.711	34.81
743.893	35.35
744.075	35.62
744.256	35
744.438	34.81
744.619	34.23
744.8	34.17
744.982	33.69
745.163	33.78
745.345	34.07
745.526	34.6
745.707	34.54
745.889	34.2
746.07	33.59
746.252	33.69
746.433	34.22
746.614	35.24
746.795	35.3
746.977	35.59
747.158	35.38
747.339	34.87
747.52	34.79
747.702	34
747.883	34.44
748.064	34.41
748.245	34.9
748.426	33.94
748.607	33.47
748.788	33.24
748.97	32.99
749.151	33.9
749.332	34.2
749.513	33.12
749.694	33.43
749.875	32.74
750.056	33.71
750.237	33.37
750.418	33.88
750.599	33.88
750.78	34.69
750.96	35.59
751.141	34.72
751.322	35.17
751.503	35.97
751.684	35.88
751.865	37.15
752.046	37.28
752.226	37.23
752.407	38.01
752.588	38.11
752.769	38.47
752.949	37.47
753.13	37.59
753.311	37.36
753.492	37.29
753.672	37.43
753.853	36.63
754.034	35.86
754.214	36.34
754.395	35.63
754.575	35.84
754.756	35.17
754.937	35.19
755.117	35.68
755.298	35.26
755.478	35.93
755.659	36.42
755.839	36.34
756.02	36.67
756.2	36.28
756.381	36.03
756.561	36.05
756.741	36.06
756.922	36.15
757.102	35.59
757.283	35.49
757.463	34.52
757.643	34.14
757.823	33.98
758.004	33.8
758.184	33.8
758.364	33.99
758.545	34.06
758.725	33.6
758.905	33.02
759.085	33.02
759.265	33.16
759.446	33.77
759.626	33.93
759.806	34.28
759.986	34.27
760.166	34.07
760.346	33.7
760.526	33.34
760.706	33.62
760.886	33.97
761.066	34.12
761.246	33.56
761.426	33.24
761.606	33.65
761.786	33.52
761.966	34.13
762.146	34.25
762.326	34.69
762.506	34.13
762.686	33.48
762.866	33.81
763.046	33.91
763.225	34.27
763.405	34.66
763.585	33.72
763.765	33.38
763.945	33.2
764.124	33.68
764.304	33.64
764.484	34.55
764.664	34.87
764.843	34.56
765.023	34.23
765.203	33.91
765.382	33.93
765.562	34.67
765.741	35.58
765.921	35.15
766.101	34.65
766.28	34.69
766.46	33.66
766.639	33.9
766.819	33.74
766.998	33.82
767.178	34.22
767.357	33.63
767.537	33.84
767.716	33.36
767.896	33.42
768.075	33.73
768.254	33.47
768.434	34.01
768.613	34.3
768.792	34.83
768.972	35.12
769.151	35.63
769.33	35.86
769.51	36.52
769.689	36.04
769.868	36.14
770.047	36.01
770.226	35.22
770.406	35.22
770.585	35.01
770.764	34.55
770.943	35.45
771.122	35.09
771.301	34.56
771.48	32.22
771.66	31.9
771.839	32.81
772.018	32.44
772.197	33.36
772.376	33.11
772.555	33.25
772.734	34.13
772.913	32.23
773.092	31.13
773.271	31.94
773.449	33.31
773.628	33.97
773.807	32.97
773.986	33.81
774.165	33.28
774.344	34.98
774.523	35.03
774.701	34.1
774.88	35.18
775.059	35.65
775.238	34.99
775.417	35.5
775.595	36.6
775.774	37.75
775.953	37.91
776.131	38.82
776.31	36.5
776.489	35.73
776.667	36.48
776.846	37.8
777.025	38.2
777.203	38.7
777.382	37.7
777.56	36.61
777.739	35.65
777.917	34.74
778.096	34.34
778.274	35.01
778.453	35.25
778.631	35.48
778.81	33.89
778.988	34.8
779.166	35
779.345	34.81
779.523	36.34
779.702	36.18
779.88	36.06
780.058	36.82
780.237	37.21
780.415	37.1
780.593	36.8
780.771	37.73
780.95	36.45
781.128	36.55
781.306	37.43
781.484	36.23
781.662	36.83
781.841	36.86
782.019	35.93
782.197	34.49
782.375	34.46
782.553	35.23
782.731	33.84
782.909	34.62
783.087	35.23
783.265	34.71
783.443	33.95
783.621	34
783.799	34.08
783.977	33.59
784.155	34.5
784.333	34.18
784.511	33.78
784.689	33.82
784.867	33.35
785.045	33.38
785.223	34.06
785.4	34.63
785.578	35.15
785.756	34.26
785.934	34.64
786.112	35.36
786.289	35.89
786.467	34.97
786.645	36.75
786.823	37.3
787	35.75
787.178	34.9
787.356	34.94
787.533	33.87
787.711	34.55
787.889	34.14
788.066	33.9
788.244	33.69
788.421	33.86
788.599	32.45
788.776	32.43
788.954	32.3
789.131	32.54
789.309	32.52
789.486	32.87
789.664	32.83
789.841	33.61
790.019	33.61
790.196	34.04
790.373	33.43
790.551	34.24
790.728	33.29
790.906	34.43
791.083	34.78
791.26	35.1
791.437	35.81
791.615	36.65
791.792	36.43
791.969	36.68
792.146	36.76
792.324	37.8
792.501	37.21
792.678	37.28
792.855	36.52
793.032	34.98
793.209	35.62
793.387	34.97
793.564	34.21
793.741	34.06
793.918	33.24
794.095	33.04
794.272	33.25
794.449	33.22
794.626	33.95
794.803	34.04
794.98	36.72
795.157	34.85
795.334	35
795.511	36.48
795.688	36.17
795.864	37.59
796.041	39.08
796.218	39.04
796.395	39.47
796.572	39.38
796.749	39.53
796.925	38.15
797.102	40.08
797.279	39.84
797.456	37.81
797.632	37.29
797.809	36.75
797.986	34.87
798.162	34.39
798.339	34.16
798.516	33.73
798.692	33.79
798.869	34.42
799.046	33.92
799.222	32.96
799.399	33.73
799.575	35.9
799.752	35.09
799.928	36.13
800.105	37.66
800.281	38.21
800.458	39.23
800.634	39.94
800.811	38.33
800.987	38.65
801.163	38.43
801.34	37.94
801.516	36.94
801.692	37.05
801.869	37.12
802.045	35.78
802.221	34.65
802.398	33.54
802.574	33.11
802.75	36.15
802.926	35.86
803.103	37.17
803.279	38.5
803.455	38.57
803.631	39.59
803.807	41.02
803.983	41.05
804.16	40.78
804.336	41.53
804.512	41.75
804.688	40.98
804.864	40.27
805.04	39.61
805.216	39.48
805.392	39.05
805.568	38.91
805.744	37.33
805.92	37.33
806.096	38.62
806.272	37.3
806.448	36.58
806.623	36.85
806.799	37.81
806.975	38.38
807.151	37.71
807.327	36.55
807.503	35.02
807.678	34.8
807.854	33.95
808.03	32.66
808.206	33.4
808.381	33.25
808.557	32.73
808.733	32.29
808.908	32.48
809.084	31.81
809.26	33.25
809.435	34.56
809.611	34.3
809.787	34.99
809.962	35.05
810.138	36.94
810.313	37.59
810.489	36.93
810.664	38.22
810.84	37.29
811.015	38.98
811.191	39.36
811.366	39.31
811.542	39.77
811.717	39.18
811.892	39.17
812.068	37.74
812.243	37.48
812.419	37.21
812.594	34.61
812.769	34.91
812.944	33.3
813.12	33.08
813.295	34.78
813.47	32.34
813.645	34.09
813.821	36.64
813.996	37.56
814.171	37.06
814.346	37.99
814.521	38.28
814.697	39.95
814.872	40.16
815.047	39.72
815.222	38.51
815.397	38.65
815.572	38.18
815.747	36.15
815.922	35.22
816.097	37.18
816.272	35.89
816.447	36.54
816.622	34.26
816.797	34.33
816.972	35.26
817.147	33.96
817.322	34.67
817.496	33.79
817.671	35.15
817.846	35.95
818.021	34.22
818.196	34.64
818.371	34.43
818.545	35.54
818.72	34.15
818.895	33.12
819.069	32.83
819.244	32.41
819.419	32.63
819.594	31.07
819.768	30.27
819.943	31.32
820.117	30.61
820.292	30.22
820.467	30.6
820.641	30.48
820.816	30.73
820.99	31.6
821.165	31.72
821.339	30.83
821.514	30.83
821.688	30.74
821.863	30.04
822.037	30.32
822.212	30.37
822.386	29.9
822.56	30.1
822.735	30.02
822.909	29.43
823.084	29.02
823.258	29.48
823.432	29.37
823.606	29
823.781	29.39
823.955	29.26
824.129	29.13
824.303	29.21
824.478	29.11
824.652	29.07
824.826	29.53
825	30.13
825.174	30.24
825.348	30.58
825.523	30.66
825.697	29.89
825.871	29.91
826.045	30.22
826.219	30.21
826.393	30.47
826.567	30.6
826.741	30.22
826.915	30.32
827.089	29.87
827.263	30.26
827.437	30.69
827.611	31.04
827.784	31.42
827.958	31.62
828.132	31.49
828.306	31.69
828.48	31.36
828.654	32.07
828.827	32.28
829.001	32.47
829.175	31.9
829.349	32.11
829.522	32.18
829.696	31.74
829.87	31.33
830.044	32.24
830.217	31.67
830.391	31.74
830.565	32.36
830.738	31.69
830.912	32.48
831.085	32.07
831.259	32.37
831.432	32.78
831.606	32.51
831.779	32.67
831.953	33.77
832.126	33.1
832.3	33.16
832.473	31.91
832.647	32.33
832.82	31.76
832.994	32.75
833.167	32.23
833.34	31.81
833.514	31.84
833.687	31.9
833.86	31.14
834.034	31.73
834.207	31.81
834.38	32.42
834.553	32.96
834.727	33.12
834.9	32.72
835.073	32.71
835.246	33.24
835.419	34.05
835.593	33.94
835.766	33.85
835.939	34.32
836.112	34.34
836.285	34.27
836.458	34.36
836.631	33.83
836.804	33.56
836.977	33.93
837.15	32.77
837.323	31.81
837.496	30.84
837.669	30.92
837.842	30.73
838.015	31.32
838.188	32.93
838.361	31.91
838.533	33.24
838.706	32.48
838.879	33.88
839.052	31.83
839.225	34.51
839.398	35.48
839.57	36.94
839.743	36.66
839.916	37.28
840.088	36.67
840.261	36.22
840.434	35.46
840.607	36.65
840.779	36.92
840.952	40.1
841.124	38.65
841.297	38.72
841.47	38.46
841.642	37.58
841.815	36.18
841.987	33.75
842.16	35.88
842.332	34.72
842.505	34.58
842.677	35.26
842.85	37.95
843.022	38.34
843.194	37.79
843.367	36.43
843.539	37.34
843.712	36.96
843.884	38.95
844.056	36.4
844.229	37.23
844.401	38.79
844.573	41.11
844.745	35.62
844.918	35.64
845.09	38.94
845.262	41.14
845.434	42.4
845.606	43.82
845.779	45.71
845.951	45.6
846.123	44.61
846.295	43.99
846.467	38.79
846.639	40.44
846.811	41.33
846.983	39.4
847.155	40.3
847.327	36.7
847.499	36.73
847.671	34.47
847.843	37.31
848.015	43.02
848.187	46.41
848.359	48.4
848.531	47.06
848.703	41.45
848.875	40.1
849.047	36.43
849.218	43
849.39	42.77
849.562	41.85
849.734	41.91
849.905	39.23
850.077	35.7
850.249	36.03
850.421	39.55
850.592	42.85
850.764	39.78
850.936	38.79
851.107	37.5
851.279	37.25
851.451	37.85
851.622	35.25
851.794	37.6
851.965	38.39
852.137	36.88
852.308	32.53
852.48	30.61
852.651	35.15
852.823	35.1
852.994	31.51
853.166	31.25
853.337	28.62
853.509	31.62
853.68	25.83
853.851	21.91
854.023	26.58
854.194	32.72
854.365	33.83
854.537	35.99
854.708	42.62
854.879	45.68
855.05	47.53
855.222	48.9
855.393	45.32
855.564	50.84
855.735	54.39
855.906	52.02
856.078	51.25
856.249	52.16
856.42	52.59
856.591	47.87
856.762	42.23
856.933	43.11
857.104	37.35
857.275	36.6
857.446	35.2
857.617	37.17
857.788	37.74
857.959	34.73
858.13	34.35
858.301	35.08
858.472	36.85
858.643	42.85
858.814	42.3
858.985	49.73
859.155	57.29
859.326	55.21
859.497	59.49
859.668	59.51
859.839	63
860.009	63.95
860.18	60.54
860.351	57.5
860.522	55.72
860.692	55.4
860.863	54.8
861.034	48.87
861.204	53.09
861.375	53.96
861.546	47.75
861.716	43.7
861.887	41.84
862.057	45.72
862.228	44.15
862.398	48.54
862.569	46.44
862.739	49.17
862.91	49.83
863.08	46.41
863.251	39.04
863.421	46.83
863.592	45.06
863.762	38.59
863.932	35.48
864.103	35.83
864.273	36.2
864.443	38.06
864.614	33.7
864.784	31.63
864.954	31.38
865.125	32.09
865.295	31.97
865.465	39.42
865.635	48.33
865.805	50.22
865.976	51.14
866.146	51.39
866.316	51.07
866.486	50.26
866.656	54.94
866.826	53.35
866.996	54.9
867.166	46.77
867.336	40.01
867.506	34.79
867.676	37
867.846	34.11
868.016	28.84
868.186	29.25
868.356	33.68
868.526	27.92
868.696	29.85
868.866	28.85
869.036	35.02
869.206	35.83
869.376	33.94
869.545	31.19
869.715	32.94
869.885	31.82
870.055	27.74
870.224	27.68
870.394	28.83
870.564	24.9
870.734	31.46
870.903	32.58
871.073	31.03
871.243	35.09
871.412	30.61
871.582	38.3
871.751	38.14
871.921	35.82
872.091	29.04
872.26	34.87
872.43	39.09
872.599	35.68
872.769	35.47
872.938	34.95
873.108	27.59
873.277	31.02
873.446	25.52
873.616	27.81
873.785	27.61
873.955	33.67
874.124	30.53
874.293	26.74
874.463	30.88
874.632	29.79
874.801	35.28
874.971	34.86
875.14	29.98
875.309	37.42
875.478	35.25
875.647	38.4
875.817	36.12
875.986	38.72
876.155	36.32
876.324	36.9
876.493	40.01
876.662	32.09
876.831	37.78
877	36.32
877.17	30.91
877.339	31.25
877.508	33.68
877.677	34.45
877.846	30.88
878.015	33.05
878.184	23.67
878.352	25.31
878.521	25.18
878.69	25.66
878.859	25.55
879.028	23.84
879.197	28.01
879.366	26.04
879.534	25.54
879.703	25.72
879.872	25.97
880.041	29.3
880.21	27.76
880.378	28.66
880.547	27.96
880.716	30.12
880.884	30.11
881.053	27.92
881.222	28.18
881.39	26.94
881.559	26.56
881.727	26.84
881.896	26.47
882.065	26.05
882.233	26.19
882.402	26.23
882.57	25.33
882.739	25.62
882.907	25.7
883.076	25.74
883.244	26.01
883.412	26.55
883.581	26.71
883.749	26.26
883.918	26.55
884.086	26.48
884.254	26.22
884.423	27.37
884.591	26.65
884.759	24.8
884.927	24.46
885.096	25.42
885.264	23.92
885.432	21.35
885.6	22.17
885.769	22.55
885.937	21.65
886.105	22.57
886.273	23.19
886.441	22.99
886.609	26.41
886.777	26.6
886.945	26.39
887.113	26.74
887.281	27.48
887.449	24.21
887.617	24.78
887.785	24.36
887.953	22.38
888.121	19.16
888.289	21.31
888.457	23.87
888.625	25.19
888.793	25.15
888.961	25.85
889.129	26.93
889.296	33.45
889.464	31.23
889.632	33.98
889.8	36.8
889.967	37.45
890.135	36.48
