Data from 2938823__Reflection_01.txt Node
Date: Thu Mar 12 14:12:24 EDT 2015
User: robert
Spectrometer: USB4E03002
Autoset integration time: false
Trigger mode: 4
Integration Time (sec): 1.000000E-1
Scans to average: 10
Electric dark correction enabled: false
Nonlinearity correction enabled: false
Boxcar width: 5
Stray light correction enabled: false
XAxis mode: Wavelengths
Stop averaging: false
Number of Pixels in Spectrum: 3648
>>>>>Begin Spectral Data<<<<<
177.575	86.15
177.794	127.42
178.014	134.2
178.233	156.03
178.452	149.16
178.672	183.8
178.891	191.17
179.11	254.14
179.33	245.17
179.549	277.52
179.768	330.81
179.987	462.36
180.207	460.53
180.426	364.94
180.645	445.08
180.864	555.38
181.084	328.43
181.303	463.94
181.522	349.79
181.741	523.72
181.96	529.83
182.179	292.56
182.398	260.95
182.618	222.2
182.837	242.23
183.056	205.41
183.275	249.62
183.494	199.81
183.713	154.37
183.932	184.33
184.151	202.79
184.37	237.47
184.589	217.79
184.808	244.02
185.027	307.49
185.246	278.27
185.465	285.43
185.684	272.12
185.903	367.91
186.122	622.79
186.341	300.41
186.56	264.34
186.779	415.52
186.998	568.39
187.216	335.05
187.435	212.79
187.654	264.45
187.873	274.04
188.092	383.25
188.311	3673.68
188.53	-5135.71
188.748	-2441.94
188.967	-22350
189.186	654.55
189.405	437.93
189.623	931.96
189.842	-475.82
190.061	-710.92
190.28	-865.69
190.498	85000
190.717	729.37
190.936	17860
191.154	1651.61
191.373	945.63
191.592	-2133.33
191.81	791.84
192.029	1378.67
192.248	695.49
192.466	506.47
192.685	392.67
192.904	479.37
193.122	335.74
193.341	248.42
193.559	175.47
193.778	159.12
193.996	140.16
194.215	148.59
194.433	129.22
194.652	138.63
194.87	133.33
195.089	189.59
195.307	157.97
195.526	204.44
195.744	135.92
195.963	299.03
196.181	-12980
196.399	421.34
196.618	406.7
196.836	419.32
197.055	4650
197.273	325.1
197.491	230.22
197.71	293.29
197.928	265.17
198.146	432.88
198.365	310.03
198.583	275.48
198.801	352.77
199.019	446.18
199.238	424.6
199.456	285.51
199.674	415.72
199.892	567.92
200.111	291.38
200.329	285.1
200.547	318.7
200.765	301.6
200.983	221.05
201.202	228.57
201.42	189.53
201.638	171.95
201.856	156.86
202.074	130.36
202.292	156.74
202.51	190.18
202.728	205.77
202.946	189.81
203.165	162.22
203.383	202.8
203.601	161.54
203.819	188.44
204.037	309.19
204.255	250.8
204.473	281.12
204.691	178.62
204.909	148.15
205.127	122.82
205.345	149.58
205.562	161.6
205.78	113.3
205.998	127.31
206.216	112.9
206.434	98.24
206.652	100.58
206.87	104.03
207.088	108.38
207.306	107.61
207.523	102.79
207.741	89.1
207.959	115.71
208.177	135.67
208.395	144.59
208.612	141.37
208.83	167.54
209.048	186.46
209.266	160.34
209.483	162.74
209.701	148.86
209.919	173.97
210.136	214.91
210.354	197.23
210.572	162.77
210.79	139.63
211.007	140.48
211.225	122.08
211.442	149.86
211.66	136.64
211.878	152.08
212.095	-17.14
212.313	-5.74
212.53	-21.68
212.748	-4.07
212.966	-1.75
213.183	5.91
213.401	-26.63
213.618	-22.42
213.836	-28.37
214.053	2.85
214.271	10.2
214.488	130.76
214.705	133.51
214.923	110.89
215.14	94.1
215.358	114.44
215.575	108.06
215.793	124.4
216.01	137.03
216.227	144.06
216.445	137.14
216.662	158.07
216.879	127.62
217.097	121.57
217.314	127.95
217.531	118.2
217.749	110.36
217.966	100.3
218.183	99.91
218.4	84.52
218.618	76.12
218.835	71.66
219.052	69.12
219.269	72.04
219.487	70.13
219.704	75.63
219.921	63.35
220.138	61.86
220.355	65.68
220.572	50.06
220.79	55.5
221.007	61.1
221.224	59.41
221.441	55.06
221.658	50.52
221.875	48.67
222.092	43.61
222.309	44.96
222.526	42.67
222.743	44.07
222.96	50.82
223.177	49
223.394	46.2
223.611	47
223.828	48.8
224.045	51.53
224.262	50.71
224.479	47.12
224.696	46.19
224.913	44.06
225.13	38.07
225.347	33.29
225.564	28.48
225.781	29.09
225.997	24.48
226.214	21.12
226.431	17.8
226.648	15.68
226.865	13.87
227.082	12.39
227.298	9.66
227.515	10.58
227.732	10.39
227.949	10.7
228.165	9.14
228.382	9.29
228.599	8.73
228.816	8.95
229.032	9.26
229.249	9.57
229.466	9.94
229.682	11.48
229.899	11.68
230.116	12.22
230.332	13.11
230.549	13.42
230.765	13.76
230.982	14.44
231.199	14.27
231.415	14.64
231.632	14.79
231.848	15.33
232.065	13.28
232.281	13.75
232.498	13.45
232.714	11.41
232.931	12.03
233.147	11.17
233.364	10.41
233.58	9.85
233.797	8.76
234.013	10
234.23	9.22
234.446	9.72
234.662	9.67
234.879	8.45
235.095	10.36
235.312	11.16
235.528	14.17
235.744	14.39
235.961	15.99
236.177	17.11
236.393	17.7
236.61	19.6
236.826	19.72
237.042	18.95
237.258	19.6
237.475	18.35
237.691	17.6
237.907	15.56
238.123	16.12
238.339	15.94
238.556	14.42
238.772	15.52
238.988	14.89
239.204	14.6
239.42	13.85
239.636	13.66
239.853	14.1
240.069	13.81
240.285	14.03
240.501	13.13
240.717	12.36
240.933	12.65
241.149	10.79
241.365	10.28
241.581	10.46
241.797	10.07
242.013	9.68
242.229	9.9
242.445	9.9
242.661	10.18
242.877	10.37
243.093	10.17
243.309	10.25
243.525	10.47
243.741	10.22
243.957	10.1
244.173	10.74
244.388	11.81
244.604	11.33
244.82	10.71
245.036	9.93
245.252	9.75
245.468	9.29
245.683	9.02
245.899	8.49
246.115	8.48
246.331	8.42
246.547	8.31
246.762	7.8
246.978	7.62
247.194	7.67
247.409	7.45
247.625	7.54
247.841	7.79
248.057	7.81
248.272	7.98
248.488	7.99
248.703	7.98
248.919	8.32
249.135	8.42
249.35	8.36
249.566	8.52
249.782	8.68
249.997	8.58
250.213	8.25
250.428	8.89
250.644	9.28
250.859	9.49
251.075	9.22
251.29	8.75
251.506	8.9
251.721	9.08
251.937	8.52
252.152	8.87
252.368	8.92
252.583	9.21
252.798	8.63
253.014	8.85
253.229	8.98
253.445	9
253.66	9.01
253.875	8.49
254.091	9.57
254.306	10.57
254.521	10.84
254.737	10.38
254.952	10.62
255.167	10.98
255.383	9.84
255.598	9.52
255.813	9.21
256.028	9.27
256.244	9.54
256.459	8.14
256.674	7.89
256.889	7.66
257.104	8.29
257.32	7.63
257.535	7.2
257.75	7.35
257.965	6.47
258.18	6.4
258.395	5.82
258.61	5.54
258.826	5.42
259.041	4.89
259.256	4.9
259.471	4.55
259.686	4.39
259.901	4.42
260.116	4.6
260.331	4.64
260.546	4.62
260.761	4.68
260.976	4.82
261.191	4.98
261.406	5.29
261.621	5.07
261.836	5.41
262.05	5.58
262.265	5.73
262.48	5.24
262.695	5.45
262.91	5.69
263.125	5.92
263.34	5.76
263.555	5.72
263.769	5.63
263.984	5.72
264.199	6.39
264.414	7.07
264.629	7.21
264.843	7.41
265.058	7.8
265.273	7.6
265.488	6.74
265.702	6.77
265.917	6.6
266.132	7.06
266.346	7.11
266.561	6.87
266.776	6.86
266.99	6.91
267.205	7.14
267.42	6.95
267.634	6.94
267.849	7.24
268.063	7.96
268.278	8.14
268.492	8.08
268.707	7.82
268.922	7.86
269.136	7.19
269.351	6.8
269.565	6.37
269.78	6.36
269.994	6.35
270.209	6.09
270.423	5.36
270.637	4.87
270.852	4.96
271.066	4.81
271.281	4.37
271.495	4.58
271.709	4.91
271.924	5.03
272.138	5.29
272.353	5.03
272.567	5.2
272.781	5.31
272.996	5.58
273.21	5.34
273.424	5.53
273.638	5.58
273.853	5.54
274.067	5.44
274.281	5.78
274.495	5.56
274.71	5.86
274.924	5.85
275.138	5.74
275.352	5.61
275.566	5.82
275.781	6.26
275.995	6.57
276.209	6.83
276.423	6.44
276.637	6.36
276.851	6.45
277.065	6.9
277.279	7.16
277.493	7.52
277.707	7.55
277.921	7.27
278.135	6.57
278.349	6.04
278.563	6.22
278.777	6.06
278.991	5.67
279.205	5.59
279.419	5.33
279.633	5.37
279.847	5.08
280.061	5.32
280.275	5.67
280.489	6
280.703	6.19
280.917	6.1
281.131	6.18
281.344	6.19
281.558	6.04
281.772	6.12
281.986	5.86
282.2	5.8
282.414	5.28
282.627	5.19
282.841	5.3
283.055	5.13
283.269	5.01
283.482	4.99
283.696	4.95
283.91	5.15
284.123	5.11
284.337	5.05
284.551	4.77
284.764	4.83
284.978	4.77
285.192	4.34
285.405	4.48
285.619	4.43
285.833	4.47
286.046	4.55
286.26	4.32
286.473	4.15
286.687	4.58
286.9	4.97
287.114	5.26
287.327	5.24
287.541	5.73
287.754	5.72
287.968	5.62
288.181	5.52
288.395	5.44
288.608	5.48
288.822	5.73
289.035	5.6
289.248	5.69
289.462	5.78
289.675	5.6
289.889	5.47
290.102	5.49
290.315	5.66
290.529	5.74
290.742	5.98
290.955	5.62
291.169	5.32
291.382	5.12
291.595	5.11
291.808	4.75
292.022	4.69
292.235	4.73
292.448	4.58
292.661	4.59
292.875	4.77
293.088	4.61
293.301	5.05
293.514	5.13
293.727	5.3
293.94	5.08
294.153	5.18
294.367	5.36
294.58	5.03
294.793	5.22
295.006	5.43
295.219	5.37
295.432	5.56
295.645	5.6
295.858	5.58
296.071	5.53
296.284	5.82
296.497	6.16
296.71	6.08
296.923	6.33
297.136	6.25
297.349	6.19
297.562	6.33
297.775	6.18
297.988	6.29
298.201	6.45
298.414	6.44
298.626	6.19
298.839	5.94
299.052	6.38
299.265	6.35
299.478	6.47
299.691	6.47
299.903	6.56
300.116	6.94
300.329	7.1
300.542	6.78
300.755	7.1
300.967	7.03
301.18	7.41
301.393	7.02
301.605	7.19
301.818	6.96
302.031	7.09
302.243	6.65
302.456	6.49
302.669	6.69
302.881	6.98
303.094	6.88
303.307	7.18
303.519	7.04
303.732	7.11
303.944	7.2
304.157	7.67
304.37	7.7
304.582	8.11
304.795	7.84
305.007	7.85
305.22	8.1
305.432	8.33
305.645	8.36
305.857	8.51
306.069	8.84
306.282	9.02
306.494	9.09
306.707	9
306.919	8.95
307.132	9.23
307.344	9.16
307.556	9.28
307.769	8.91
307.981	8.75
308.193	8.56
308.406	8.65
308.618	8.31
308.83	7.93
309.043	7.98
309.255	7.89
309.467	7.8
309.679	7.52
309.892	7.16
310.104	7.46
310.316	7.53
310.528	7.5
310.74	7.2
310.953	7.36
311.165	7.15
311.377	7.2
311.589	7.52
311.801	7.47
312.013	7.6
312.225	7.93
312.437	7.78
312.649	7.83
312.862	8.03
313.074	8.3
313.286	8.32
313.498	8.89
313.71	8.8
313.922	8.52
314.134	8.74
314.346	8.8
314.558	8.76
314.77	8.77
314.982	8.91
315.193	9.3
315.405	9.14
315.617	9.19
315.829	9.29
316.041	9.58
316.253	9.68
316.465	9.97
316.677	9.88
316.888	9.89
317.1	10.2
317.312	10.16
317.524	10.07
317.736	10.02
317.947	9.87
318.159	9.43
318.371	9.49
318.583	9.67
318.794	9.43
319.006	9.72
319.218	9.63
319.43	9.58
319.641	9.74
319.853	9.51
320.064	9.58
320.276	9.85
320.488	10.28
320.699	10.2
320.911	10.2
321.123	10.22
321.334	9.96
321.546	10.06
321.757	10.17
321.969	10.49
322.18	10.62
322.392	11.06
322.603	10.65
322.815	10.7
323.026	10.67
323.238	10.35
323.449	10.42
323.661	10.18
323.872	10.35
324.083	10.05
324.295	9.68
324.506	9.41
324.718	9.47
324.929	9.48
325.14	9.45
325.352	9.72
325.563	9.97
325.774	10.01
325.986	10.33
326.197	10.08
326.408	10.2
326.62	10.28
326.831	10.4
327.042	10.07
327.253	10.38
327.464	10.41
327.676	10.09
327.887	10
328.098	10.18
328.309	10.32
328.52	10.59
328.732	10.83
328.943	11.07
329.154	11.36
329.365	11.54
329.576	11.78
329.787	12.29
329.998	12.51
330.209	12.52
330.42	12.01
330.631	12.03
330.842	11.98
331.053	12.27
331.264	12.26
331.475	12.31
331.686	12.25
331.897	12.03
332.108	11.7
332.319	12
332.53	11.92
332.741	12.18
332.952	12.17
333.163	12.29
333.374	12.18
333.585	11.73
333.795	11.86
334.006	11.96
334.217	12.28
334.428	12
334.639	11.46
334.849	11.61
335.06	11.64
335.271	11.86
335.482	11.89
335.692	11.45
335.903	11.55
336.114	11.26
336.325	11.3
336.535	10.42
336.746	10.7
336.957	10.9
337.167	10.97
337.378	10.7
337.589	10.46
337.799	10.27
338.01	10.28
338.22	10.21
338.431	10.25
338.642	10.03
338.852	10.67
339.063	10.73
339.273	10.57
339.484	10.57
339.694	10.89
339.905	10.84
340.115	11.12
340.326	10.99
340.536	11.19
340.746	11.25
340.957	11.44
341.167	11.38
341.378	11.37
341.588	11.43
341.799	11.53
342.009	11.55
342.219	11.64
342.43	11.47
342.64	11.66
342.85	11.47
343.061	11.37
343.271	11.09
343.481	11.13
343.691	11.17
343.902	11.24
344.112	11.01
344.322	10.98
344.532	10.83
344.743	10.72
344.953	10.72
345.163	10.71
345.373	10.89
345.583	11.07
345.793	10.64
346.004	10.22
346.214	10.29
346.424	10.5
346.634	10.31
346.844	10.14
347.054	10.01
347.264	9.87
347.474	10.07
347.684	9.98
347.894	9.9
348.104	10.26
348.314	10.57
348.524	10.43
348.734	10.43
348.944	10.53
349.154	10.49
349.364	10.42
349.574	10.43
349.784	10.43
349.994	10
350.204	9.85
350.413	9.95
350.623	9.84
350.833	10.22
351.043	9.97
351.253	10.2
351.463	10.67
351.672	10.9
351.882	11.16
352.092	10.96
352.302	10.95
352.511	11.28
352.721	11.14
352.931	11.3
353.141	10.73
353.35	10.85
353.56	10.58
353.77	10.33
353.979	10.38
354.189	10.25
354.399	10.11
354.608	10.12
354.818	10.05
355.027	9.85
355.237	9.65
355.447	9.62
355.656	9.43
355.866	9.28
356.075	9.26
356.285	9.32
356.494	9.25
356.704	9.49
356.913	9.71
357.123	9.62
357.332	9.97
357.542	10.14
357.751	10.23
357.96	10.19
358.17	10.27
358.379	10.23
358.589	10.04
358.798	10.09
359.007	10.16
359.217	10.17
359.426	10.1
359.635	9.84
359.845	9.74
360.054	9.7
360.263	9.65
360.472	9.66
360.682	9.53
360.891	9.39
361.1	9.24
361.309	9.11
361.519	8.95
361.728	8.96
361.937	8.86
362.146	8.84
362.355	8.64
362.564	8.67
362.774	8.66
362.983	8.73
363.192	8.78
363.401	8.87
363.61	8.87
363.819	8.79
364.028	8.61
364.237	8.74
364.446	8.45
364.655	8.58
364.864	8.52
365.073	8.63
365.282	8.57
365.491	8.74
365.7	8.93
365.909	8.98
366.118	9.09
366.327	9.18
366.536	9.05
366.745	9.29
366.954	9.41
367.162	9.34
367.371	8.94
367.58	9.01
367.789	9
367.998	8.93
368.207	8.84
368.415	8.63
368.624	8.57
368.833	8.75
369.042	8.65
369.25	8.71
369.459	8.93
369.668	9.29
369.877	9.27
370.085	9.2
370.294	8.82
370.503	8.83
370.711	9.07
370.92	9.22
371.129	9.11
371.337	9.11
371.546	8.89
371.754	8.81
371.963	8.73
372.171	8.54
372.38	8.32
372.589	8.35
372.797	8.44
373.006	8.17
373.214	8.02
373.423	7.86
373.631	7.61
373.84	7.91
374.048	7.73
374.256	7.41
374.465	7.46
374.673	7.4
374.882	7.54
375.09	7.29
375.298	7.44
375.507	7.39
375.715	7.38
375.923	7.39
376.132	7.08
376.34	6.93
376.548	7.02
376.757	7.09
376.965	7.23
377.173	7.09
377.381	7.15
377.59	7.13
377.798	6.9
378.006	7
378.214	7.02
378.423	7.06
378.631	7.26
378.839	7.23
379.047	7.13
379.255	7.04
379.463	7.03
379.671	6.72
379.879	6.57
380.088	6.63
380.296	6.69
380.504	6.71
380.712	6.71
380.92	6.6
381.128	6.55
381.336	6.69
381.544	6.76
381.752	6.85
381.96	7.22
382.168	7.1
382.376	7.12
382.584	6.83
382.791	6.78
382.999	6.71
383.207	6.67
383.415	6.55
383.623	6.36
383.831	6.36
384.039	6.08
384.247	5.95
384.454	5.96
384.662	5.96
384.87	6.08
385.078	6.11
385.285	6.05
385.493	6.11
385.701	6.26
385.909	6.21
386.116	5.96
386.324	5.98
386.532	5.66
386.739	5.7
386.947	5.7
387.155	5.82
387.362	5.75
387.57	5.73
387.778	5.51
387.985	5.59
388.193	5.55
388.4	5.63
388.608	5.8
388.816	6.06
389.023	6.05
389.231	6.17
389.438	5.94
389.646	6
389.853	6.11
390.061	6.23
390.268	6.04
390.475	6.01
390.683	6.05
390.89	5.86
391.098	5.73
391.305	5.75
391.512	5.7
391.72	5.66
391.927	5.46
392.135	5.38
392.342	5.38
392.549	5.43
392.756	5.39
392.964	5.44
393.171	5.49
393.378	5.63
393.586	5.68
393.793	5.55
394	5.53
394.207	5.64
394.414	5.57
394.622	5.54
394.829	5.52
395.036	5.51
395.243	5.19
395.45	5.22
395.657	5.01
395.864	4.9
396.072	5.01
396.279	5.14
396.486	5.09
396.693	5.23
396.9	5.06
397.107	4.94
397.314	5.06
397.521	5.14
397.728	5.2
397.935	5.31
398.142	5.11
398.349	4.83
398.556	4.75
398.763	4.78
398.97	4.65
399.177	4.71
399.383	4.59
399.59	4.61
399.797	4.74
400.004	4.5
400.211	4.42
400.418	4.62
400.625	4.88
400.831	4.73
401.038	4.75
401.245	4.87
401.452	5.02
401.658	5.05
401.865	4.93
402.072	4.75
402.279	4.71
402.485	4.76
402.692	4.69
402.899	4.66
403.105	4.88
403.312	4.92
403.519	4.61
403.725	4.42
403.932	4.39
404.138	4.37
404.345	4.34
404.552	4.53
404.758	4.47
404.965	4.53
405.171	4.4
405.378	4.25
405.584	4.08
405.791	4.17
405.997	4.34
406.204	4.69
406.41	4.74
406.617	4.68
406.823	4.59
407.029	4.7
407.236	4.7
407.442	4.88
407.649	4.97
407.855	5.11
408.061	5.26
408.268	5.15
408.474	4.84
408.68	4.79
408.887	4.99
409.093	5.08
409.299	5.11
409.505	5.03
409.712	4.89
409.918	4.86
410.124	4.95
410.33	4.88
410.537	4.94
410.743	5.15
410.949	5.11
411.155	5.02
411.361	4.95
411.567	4.83
411.773	4.82
411.98	4.93
412.186	4.89
412.392	4.66
412.598	4.62
412.804	4.53
413.01	4.36
413.216	4.41
413.422	4.45
413.628	4.56
413.834	4.62
414.04	4.49
414.246	4.44
414.452	4.3
414.658	4.29
414.864	4.3
415.07	4.22
415.275	4.4
415.481	4.28
415.687	4.31
415.893	4.26
416.099	4.14
416.305	4.14
416.511	4.14
416.716	4.17
416.922	4.15
417.128	4.2
417.334	4.27
417.539	4.19
417.745	4.22
417.951	4.12
418.157	3.96
418.362	4.04
418.568	4.08
418.774	4.05
418.979	4.06
419.185	4.12
419.391	4.06
419.596	4.01
419.802	3.98
420.008	4.03
420.213	4.07
420.419	4.13
420.624	4.01
420.83	4.04
421.035	4.01
421.241	4
421.446	3.84
421.652	3.73
421.857	3.81
422.063	3.81
422.268	3.75
422.474	3.67
422.679	3.73
422.885	3.78
423.09	3.75
423.295	3.79
423.501	3.81
423.706	3.9
423.911	3.98
424.117	3.89
424.322	3.87
424.527	3.93
424.733	3.94
424.938	3.87
425.143	3.9
425.349	3.88
425.554	3.81
425.759	3.82
425.964	3.88
426.169	3.9
426.375	3.95
426.58	3.98
426.785	3.83
426.99	3.79
427.195	3.84
427.4	3.81
427.605	3.88
427.811	3.87
428.016	3.92
428.221	3.92
428.426	3.9
428.631	3.9
428.836	3.93
429.041	4.06
429.246	4.16
429.451	4.15
429.656	4.12
429.861	4
430.066	4.02
430.271	3.95
430.476	3.93
430.681	3.92
430.886	3.99
431.09	3.98
431.295	4.03
431.5	4.05
431.705	4.01
431.91	4.09
432.115	4.13
432.32	4.12
432.524	4.05
432.729	4.07
432.934	4.05
433.139	4.06
433.343	4.11
433.548	4.1
433.753	4.09
433.958	4.02
434.162	3.94
434.367	3.86
434.572	3.96
434.776	4.07
434.981	3.98
435.186	4.02
435.39	3.93
435.595	3.85
435.799	3.82
436.004	3.88
436.209	4.01
436.413	4.01
436.618	4.12
436.822	4.06
437.027	4.02
437.231	4.1
437.436	4.15
437.64	4.12
437.845	4.01
438.049	3.95
438.253	3.88
438.458	3.81
438.662	3.83
438.867	3.82
439.071	3.87
439.275	3.82
439.48	3.75
439.684	3.71
439.888	3.73
440.093	3.79
440.297	3.74
440.501	3.79
440.706	3.79
440.91	3.79
441.114	3.82
441.318	3.77
441.523	3.82
441.727	3.86
441.931	3.86
442.135	3.93
442.339	3.95
442.543	4.01
442.748	3.99
442.952	4.03
443.156	3.98
443.36	3.87
443.564	3.95
443.768	3.96
443.972	3.92
444.176	3.89
444.38	3.89
444.584	3.87
444.788	3.92
444.992	3.97
445.196	3.98
445.4	3.99
445.604	3.96
445.808	3.97
446.012	3.92
446.216	3.93
446.42	3.93
446.624	3.87
446.828	3.82
447.032	3.81
447.235	3.68
447.439	3.71
447.643	3.7
447.847	3.77
448.051	3.69
448.254	3.76
448.458	3.77
448.662	3.76
448.866	3.8
449.069	3.79
449.273	3.74
449.477	3.81
449.681	3.77
449.884	3.81
450.088	3.9
450.292	3.84
450.495	3.74
450.699	3.78
450.902	3.77
451.106	3.67
451.31	3.85
451.513	3.96
451.717	4.03
451.92	4
452.124	3.97
452.327	3.89
452.531	3.96
452.734	3.95
452.938	3.77
453.141	3.73
453.345	3.87
453.548	3.73
453.752	3.66
453.955	3.55
454.158	3.57
454.362	3.6
454.565	3.58
454.769	3.68
454.972	3.71
455.175	3.78
455.379	3.81
455.582	3.74
455.785	3.75
455.988	3.78
456.192	3.84
456.395	3.77
456.598	3.85
456.801	3.78
457.005	3.65
457.208	3.7
457.411	3.72
457.614	3.77
457.817	3.73
458.021	3.71
458.224	3.65
458.427	3.6
458.63	3.63
458.833	3.55
459.036	3.61
459.239	3.56
459.442	3.53
459.645	3.51
459.848	3.48
460.051	3.48
460.254	3.53
460.457	3.56
460.66	3.51
460.863	3.47
461.066	3.5
461.269	3.48
461.472	3.57
461.675	3.54
461.878	3.58
462.081	3.63
462.284	3.68
462.486	3.6
462.689	3.66
462.892	3.63
463.095	3.68
463.298	3.7
463.5	3.82
463.703	3.85
463.906	3.93
464.109	4.06
464.311	4.05
464.514	4.05
464.717	4.05
464.92	4.06
465.122	4.18
465.325	4.13
465.528	4.16
465.73	4.09
465.933	4.13
466.135	4.02
466.338	3.9
466.541	3.88
466.743	3.87
466.946	3.9
467.148	3.82
467.351	3.84
467.553	3.88
467.756	3.84
467.958	3.87
468.161	3.79
468.363	3.84
468.566	3.9
468.768	3.84
468.971	3.84
469.173	3.9
469.375	3.89
469.578	3.9
469.78	3.87
469.983	3.87
470.185	3.76
470.387	3.83
470.59	3.88
470.792	3.88
470.994	3.98
471.196	3.99
471.399	3.96
471.601	3.99
471.803	3.94
472.005	4.05
472.208	4
472.41	4.04
472.612	3.94
472.814	3.88
473.016	3.86
473.218	3.79
473.421	3.87
473.623	3.83
473.825	3.81
474.027	3.86
474.229	3.82
474.431	3.88
474.633	3.92
474.835	3.93
475.037	3.89
475.239	3.88
475.441	3.96
475.643	3.81
475.845	3.87
476.047	3.92
476.249	4.02
476.451	4.11
476.653	4.1
476.855	3.99
477.057	4.02
477.258	4.08
477.46	4.01
477.662	3.93
477.864	4.09
478.066	4.08
478.268	3.99
478.469	3.94
478.671	3.88
478.873	3.9
479.075	3.92
479.276	3.89
479.478	3.9
479.68	3.86
479.882	3.92
480.083	3.79
480.285	3.75
480.487	3.8
480.688	3.8
480.89	3.78
481.091	3.75
481.293	3.73
481.495	3.67
481.696	3.63
481.898	3.65
482.099	3.64
482.301	3.61
482.502	3.6
482.704	3.59
482.905	3.57
483.107	3.51
483.308	3.48
483.51	3.48
483.711	3.45
483.913	3.43
484.114	3.4
484.315	3.39
484.517	3.41
484.718	3.39
484.92	3.35
485.121	3.33
485.322	3.35
485.524	3.33
485.725	3.33
485.926	3.36
486.127	3.4
486.329	3.5
486.53	3.48
486.731	3.48
486.932	3.51
487.134	3.55
487.335	3.57
487.536	3.57
487.737	3.58
487.938	3.57
488.139	3.56
488.341	3.54
488.542	3.49
488.743	3.53
488.944	3.49
489.145	3.5
489.346	3.49
489.547	3.46
489.748	3.46
489.949	3.5
490.15	3.51
490.351	3.54
490.552	3.55
490.753	3.56
490.954	3.53
491.155	3.5
491.356	3.46
491.557	3.47
491.758	3.46
491.959	3.46
492.159	3.42
492.36	3.44
492.561	3.49
492.762	3.45
492.963	3.45
493.164	3.52
493.364	3.59
493.565	3.67
493.766	3.72
493.967	3.79
494.167	3.86
494.368	3.99
494.569	4.05
494.769	3.99
494.97	4.17
495.171	4.16
495.371	4.19
495.572	4.24
495.773	4.23
495.973	4.15
496.174	4.18
496.375	4.14
496.575	4.03
496.776	4.03
496.976	4.08
497.177	4
497.377	3.96
497.578	3.94
497.778	3.99
497.979	3.98
498.179	4.04
498.38	4.05
498.58	4.14
498.78	4.24
498.981	4.16
499.181	4.13
499.382	4.17
499.582	4.29
499.782	4.24
499.983	4.19
500.183	4.2
500.383	4.18
500.584	4.21
500.784	4.14
500.984	4.2
501.184	4.35
501.385	4.37
501.585	4.4
501.785	4.37
501.985	4.58
502.185	4.56
502.386	4.67
502.586	4.74
502.786	4.77
502.986	4.89
503.186	4.85
503.386	4.83
503.586	4.95
503.786	4.97
503.987	5.04
504.187	5.11
504.387	5.18
504.587	5.17
504.787	5.25
504.987	5.34
505.187	5.31
505.387	5.34
505.587	5.44
505.786	5.45
505.986	5.56
506.186	5.57
506.386	5.5
506.586	5.49
506.786	5.46
506.986	5.39
507.186	5.34
507.386	5.42
507.585	5.4
507.785	5.45
507.985	5.5
508.185	5.45
508.384	5.54
508.584	5.54
508.784	5.64
508.984	5.73
509.183	5.84
509.383	5.94
509.583	5.93
509.782	6.06
509.982	6.15
510.182	6.22
510.381	6.24
510.581	6.28
510.781	6.29
510.98	6.39
511.18	6.42
511.379	6.51
511.579	6.48
511.778	6.66
511.978	6.63
512.177	6.6
512.377	6.54
512.576	6.7
512.776	6.76
512.975	6.84
513.175	6.85
513.374	6.86
513.573	6.93
513.773	7.02
513.972	7
514.172	7.2
514.371	7.34
514.57	7.55
514.77	7.57
514.969	7.67
515.168	7.75
515.367	7.94
515.567	8.1
515.766	8.08
515.965	8.23
516.164	8.33
516.364	8.45
516.563	8.5
516.762	8.56
516.961	8.68
517.16	8.79
517.359	8.94
517.559	8.9
517.758	8.96
517.957	9.05
518.156	9.12
518.355	9.16
518.554	9.19
518.753	9.26
518.952	9.33
519.151	9.39
519.35	9.39
519.549	9.42
519.748	9.54
519.947	9.62
520.146	9.69
520.345	9.76
520.544	9.87
520.743	9.92
520.942	9.99
521.141	10.1
521.339	10.19
521.538	10.26
521.737	10.33
521.936	10.38
522.135	10.44
522.333	10.56
522.532	10.6
522.731	10.65
522.93	10.89
523.129	11.02
523.327	11.17
523.526	11.29
523.725	11.52
523.923	11.64
524.122	11.86
524.321	12.02
524.519	12.03
524.718	12.19
524.917	12.35
525.115	12.36
525.314	12.43
525.512	12.48
525.711	12.57
525.909	12.6
526.108	12.73
526.306	12.74
526.505	12.8
526.703	12.96
526.902	13.05
527.1	13.13
527.299	13.21
527.497	13.32
527.696	13.35
527.894	13.41
528.092	13.4
528.291	13.43
528.489	13.48
528.688	13.54
528.886	13.56
529.084	13.6
529.283	13.61
529.481	13.63
529.679	13.65
529.877	13.76
530.076	13.84
530.274	13.97
530.472	14.08
530.67	14.22
530.869	14.35
531.067	14.53
531.265	14.65
531.463	14.85
531.661	15.01
531.859	15.11
532.057	15.22
532.255	15.32
532.454	15.4
532.652	15.46
532.85	15.51
533.048	15.6
533.246	15.69
533.444	15.75
533.642	15.77
533.84	15.85
534.038	15.98
534.236	16.04
534.434	16.12
534.632	16.26
534.83	16.41
535.027	16.53
535.225	16.62
535.423	16.72
535.621	16.86
535.819	17.03
536.017	17.1
536.215	17.23
536.412	17.29
536.61	17.4
536.808	17.49
537.006	17.47
537.203	17.55
537.401	17.63
537.599	17.66
537.797	17.7
537.994	17.87
538.192	18.01
538.39	18.13
538.587	18.27
538.785	18.33
538.983	18.48
539.18	18.72
539.378	18.83
539.575	19
539.773	19.14
539.97	19.24
540.168	19.19
540.366	19.24
540.563	19.25
540.761	19.3
540.958	19.39
541.155	19.46
541.353	19.46
541.55	19.53
541.748	19.56
541.945	19.6
542.143	19.68
542.34	19.79
542.537	19.86
542.735	19.92
542.932	20.04
543.129	20.08
543.327	20.14
543.524	20.3
543.721	20.43
543.919	20.53
544.116	20.65
544.313	20.78
544.51	20.9
544.708	21.09
544.905	21.27
545.102	21.41
545.299	21.58
545.496	21.73
545.693	21.83
545.891	21.95
546.088	22.02
546.285	22.14
546.482	22.17
546.679	22.19
546.876	22.2
547.073	22.2
547.27	22.27
547.467	22.3
547.664	22.27
547.861	22.27
548.058	22.25
548.255	22.3
548.452	22.24
548.649	22.35
548.846	22.44
549.043	22.48
549.24	22.6
549.437	22.5
549.633	22.45
549.83	22.47
550.027	22.51
550.224	22.6
550.421	22.78
550.618	22.87
550.814	22.9
551.011	22.93
551.208	22.77
551.405	22.86
551.601	22.98
551.798	23.09
551.995	23.12
552.191	23.26
552.388	23.19
552.585	23.15
552.781	23.15
552.978	23.18
553.175	23.21
553.371	23.35
553.568	23.31
553.764	23.31
553.961	23.34
554.157	23.42
554.354	23.35
554.55	23.46
554.747	23.49
554.943	23.62
555.14	23.65
555.336	23.74
555.533	23.91
555.729	24.02
555.926	23.99
556.122	24.16
556.318	24.2
556.515	24.34
556.711	24.24
556.907	24.27
557.104	24.24
557.3	24.24
557.496	24.29
557.693	24.3
557.889	24.45
558.085	24.65
558.281	24.53
558.478	24.59
558.674	24.62
558.87	24.78
559.066	24.88
559.262	24.94
559.459	24.96
559.655	24.91
559.851	25.04
560.047	24.95
560.243	25.01
560.439	25.08
560.635	25.26
560.831	25.26
561.027	25.29
561.223	25.31
561.419	25.4
561.615	25.59
561.811	25.68
562.007	25.57
562.203	25.68
562.399	25.72
562.595	25.79
562.791	25.69
562.987	25.7
563.183	25.81
563.379	25.85
563.575	25.84
563.771	25.86
563.966	26
564.162	26.13
564.358	26.03
564.554	25.97
564.75	25.99
564.945	26.07
565.141	26.05
565.337	26.05
565.533	26.14
565.728	26.14
565.924	26.1
566.12	26
566.315	26.08
566.511	26.21
566.707	26.26
566.902	26.3
567.098	26.23
567.293	26.32
567.489	26.27
567.684	26.25
567.88	26.32
568.076	26.42
568.271	26.41
568.467	26.37
568.662	26.38
568.858	26.44
569.053	26.48
569.248	26.72
569.444	26.84
569.639	26.9
569.835	26.94
570.03	27.06
570.225	27.01
570.421	27.16
570.616	27.23
570.812	27.27
571.007	27.22
571.202	27.21
571.397	27.17
571.593	27.15
571.788	27.22
571.983	27.23
572.178	27.1
572.374	27.13
572.569	27.12
572.764	27.09
572.959	27.11
573.154	27.29
573.35	27.39
573.545	27.35
573.74	27.35
573.935	27.41
574.13	27.47
574.325	27.6
574.52	27.72
574.715	27.79
574.91	27.9
575.105	27.84
575.3	27.78
575.495	27.83
575.69	27.93
575.885	28.03
576.08	28.03
576.275	28.11
576.47	28.17
576.665	28.2
576.86	28.38
577.055	28.35
577.25	28.52
577.444	28.63
577.639	28.81
577.834	28.77
578.029	28.92
578.224	28.98
578.418	29.06
578.613	29.13
578.808	29.1
579.003	28.94
579.197	29.05
579.392	29.06
579.587	29.07
579.781	29.02
579.976	29.09
580.171	29.04
580.365	29.11
580.56	29.09
580.755	29.02
580.949	29.1
581.144	29.36
581.338	29.36
581.533	29.41
581.727	29.33
581.922	29.25
582.116	29.29
582.311	29.31
582.505	29.42
582.7	29.33
582.894	29.4
583.089	29.47
583.283	29.4
583.478	29.52
583.672	29.51
583.866	29.59
584.061	29.67
584.255	29.82
584.449	29.91
584.644	29.94
584.838	29.96
585.032	30.07
585.226	30.1
585.421	30.07
585.615	29.94
585.809	30
586.003	30.29
586.198	30.38
586.392	30.13
586.586	30.15
586.78	29.98
586.974	30.05
587.168	29.95
587.363	29.99
587.557	29.99
587.751	30.06
587.945	30.09
588.139	29.91
588.333	29.98
588.527	30.2
588.721	30.05
588.915	30.04
589.109	30.07
589.303	30.23
589.497	30.28
589.691	30.27
589.885	30.25
590.079	30.18
590.273	30.06
590.466	30.09
590.66	30.08
590.854	30.36
591.048	30.48
591.242	30.54
591.436	30.56
591.629	30.61
591.823	30.77
592.017	30.91
592.211	31.01
592.404	31.12
592.598	31.04
592.792	31.27
592.986	31.11
593.179	31.08
593.373	30.89
593.567	30.81
593.76	30.7
593.954	30.62
594.147	30.48
594.341	30.33
594.535	30.36
594.728	30.47
594.922	30.26
595.115	30.26
595.309	30.37
595.502	30.42
595.696	30.31
595.889	30.28
596.083	30.23
596.276	30.3
596.47	30.39
596.663	30.51
596.856	30.37
597.05	30.42
597.243	30.5
597.437	30.42
597.63	30.51
597.823	30.73
598.017	30.82
598.21	30.88
598.403	30.86
598.596	30.98
598.79	30.83
598.983	30.92
599.176	30.89
599.369	30.77
599.563	30.88
599.756	31
599.949	30.9
600.142	30.87
600.335	30.94
600.528	31.04
600.722	31.13
600.915	31.2
601.108	31.12
601.301	31.2
601.494	31.36
601.687	31.36
601.88	31.03
602.073	31.03
602.266	31.03
602.459	30.83
602.652	30.75
602.845	30.48
603.038	30.55
603.231	30.68
603.424	30.63
603.617	30.52
603.809	30.5
604.002	30.68
604.195	30.63
604.388	30.62
604.581	30.76
604.774	30.78
604.966	30.99
605.159	31.05
605.352	31.04
605.545	31.08
605.737	31.01
605.93	31.08
606.123	31.29
606.316	31.37
606.508	31.44
606.701	31.52
606.894	31.59
607.086	31.58
607.279	31.55
607.471	31.57
607.664	31.66
607.857	31.96
608.049	32.27
608.242	32.24
608.434	32.38
608.627	32.71
608.819	33.1
609.012	33.47
609.204	33.82
609.397	34.14
609.589	34.54
609.782	35.12
609.974	35.73
610.166	36.06
610.359	36.61
610.551	37.18
610.743	37.46
610.936	37.66
611.128	37.99
611.32	38.23
611.513	38.47
611.705	38.53
611.897	38.34
612.09	38.16
612.282	38.01
612.474	37.9
612.666	37.75
612.858	37.63
613.051	37.39
613.243	37.06
613.435	36.65
613.627	36.41
613.819	36.26
614.011	36.34
614.203	36.04
614.395	35.76
614.588	35.56
614.78	35.36
614.972	35.22
615.164	34.93
615.356	34.73
615.548	34.73
615.74	34.57
615.932	34.39
616.124	33.94
616.315	33.9
616.507	33.78
616.699	33.68
616.891	33.57
617.083	33.49
617.275	33.49
617.467	33.45
617.659	33.52
617.85	33.37
618.042	33.38
618.234	33.44
618.426	33.28
618.618	33.22
618.809	32.99
619.001	33
619.193	32.79
619.384	32.78
619.576	32.91
619.768	32.73
619.959	32.91
620.151	32.89
620.343	32.79
620.534	32.72
620.726	32.72
620.917	32.75
621.109	32.63
621.301	32.73
621.492	32.85
621.684	32.84
621.875	32.88
622.067	32.65
622.258	32.72
622.45	32.82
622.641	32.91
622.832	33.12
623.024	33.28
623.215	33.28
623.407	33.35
623.598	33.35
623.789	33.3
623.981	33.31
624.172	33.56
624.363	33.44
624.555	33.3
624.746	33.34
624.937	33.19
625.129	33.06
625.32	33.09
625.511	32.94
625.702	32.94
625.893	32.76
626.085	32.71
626.276	32.47
626.467	32.4
626.658	32.57
626.849	32.55
627.04	32.67
627.231	32.66
627.422	32.69
627.614	32.85
627.805	32.74
627.996	32.8
628.187	32.94
628.378	33.08
628.569	33.22
628.76	33.19
628.951	33.3
629.142	33.22
629.332	33.35
629.523	33.45
629.714	33.22
629.905	33.48
630.096	33.65
630.287	33.77
630.478	33.88
630.669	33.84
630.859	34
631.05	34
631.241	34.01
631.432	33.99
631.623	34.05
631.813	34.24
632.004	34.11
632.195	34.06
632.385	33.73
632.576	33.76
632.767	33.96
632.957	33.79
633.148	33.69
633.339	33.48
633.529	33.36
633.72	33.13
633.91	33.06
634.101	32.95
634.292	32.89
634.482	33.08
634.673	32.87
634.863	32.58
635.054	32.6
635.244	32.4
635.435	32.61
635.625	32.61
635.815	32.46
636.006	32.49
636.196	32.61
636.387	32.57
636.577	32.57
636.767	32.71
636.958	32.72
637.148	32.68
637.338	32.99
637.529	32.9
637.719	33
637.909	33.12
638.099	33.29
638.29	33.03
638.48	33.23
638.67	33.28
638.86	33.16
639.05	33.3
639.241	33.24
639.431	33.04
639.621	33.14
639.811	33.08
640.001	33.3
640.191	33.1
640.381	33.42
640.571	33.37
640.761	33.19
640.951	33.3
641.141	33.21
641.331	33.26
641.521	33.53
641.711	33.49
641.901	33.52
642.091	33.5
642.281	33.59
642.471	33.51
642.661	33.44
642.851	33.47
643.041	33.46
643.231	33.41
643.42	33.41
643.61	33.23
643.8	33.19
643.99	33.02
644.18	33
644.369	32.99
644.559	33.06
644.749	32.87
644.939	32.78
645.128	32.83
645.318	32.87
645.508	32.86
645.697	32.97
645.887	33.13
646.076	33.22
646.266	33.24
646.456	33.14
646.645	33.18
646.835	33.39
647.024	33.64
647.214	33.54
647.403	33.56
647.593	33.82
647.782	33.63
647.972	33.71
648.161	33.92
648.351	33.93
648.54	34.26
648.73	34.24
648.919	34.27
649.108	34.33
649.298	34.39
649.487	34.46
649.677	34.38
649.866	34.53
650.055	34.39
650.244	34.37
650.434	34.29
650.623	34.24
650.812	34.22
651.002	34.35
651.191	34.31
651.38	34.31
651.569	34.31
651.758	34.11
651.947	34.05
652.137	34.15
652.326	34.06
652.515	34.16
652.704	34.19
652.893	34.06
653.082	33.86
653.271	34.02
653.46	34.04
653.649	34.34
653.838	34.53
654.027	34.6
654.216	34.63
654.405	34.72
654.594	34.66
654.783	34.48
654.972	34.66
655.161	34.73
655.35	34.5
655.539	34.66
655.728	34.49
655.916	34.5
656.105	34.46
656.294	34.28
656.483	34.29
656.672	34.4
656.86	34.25
657.049	34.26
657.238	34.22
657.427	34.21
657.615	34.07
657.804	34.04
657.993	33.97
658.181	33.96
658.37	34.08
658.559	34.02
658.747	33.82
658.936	34
659.125	33.85
659.313	33.98
659.502	33.83
659.69	33.82
659.879	33.78
660.067	33.79
660.256	33.87
660.444	33.86
660.633	33.97
660.821	34.16
661.01	34.35
661.198	34.38
661.387	34.18
661.575	34.51
661.763	34.79
661.952	34.65
662.14	34.88
662.328	34.81
662.517	34.73
662.705	34.78
662.893	34.87
663.082	34.67
663.27	34.95
663.458	35.15
663.646	35.18
663.834	35.11
664.023	35.52
664.211	35
664.399	35.06
664.587	35.25
664.775	35.26
664.963	35.16
665.152	35.26
665.34	35.2
665.528	35.32
665.716	35.12
665.904	35.01
666.092	35.1
666.28	35.46
666.468	35.27
666.656	35.14
666.844	35.13
667.032	35.22
667.22	35.05
667.408	34.86
667.596	34.7
667.784	34.88
667.971	34.88
668.159	34.63
668.347	34.59
668.535	34.74
668.723	34.55
668.911	34.59
669.098	34.38
669.286	34.58
669.474	34.72
669.662	34.63
669.849	34.56
670.037	34.69
670.225	34.73
670.413	34.54
670.6	34.67
670.788	35.04
670.976	34.75
671.163	34.83
671.351	34.85
671.538	34.82
671.726	34.84
671.913	35.01
672.101	35.05
672.289	35.32
672.476	35.45
672.664	35.35
672.851	35.44
673.039	35.55
673.226	35.47
673.413	35.25
673.601	35.54
673.788	35.75
673.976	35.73
674.163	35.62
674.35	35.44
674.538	35.47
674.725	35.55
674.912	35.45
675.1	35.69
675.287	35.78
675.474	35.88
675.662	35.58
675.849	35.79
676.036	35.77
676.223	35.83
676.411	35.8
676.598	35.86
676.785	35.85
676.972	35.94
677.159	35.72
677.346	35.69
677.533	35.63
677.721	35.63
677.908	35.46
678.095	35.22
678.282	35.13
678.469	34.87
678.656	34.99
678.843	35.33
679.03	35.35
679.217	35.48
679.404	35.51
679.591	35.48
679.778	35.44
679.964	35.43
680.151	35.54
680.338	35.48
680.525	35.73
680.712	35.86
680.899	35.56
681.086	35.58
681.272	35.85
681.459	35.85
681.646	36.04
681.833	36.21
682.02	36.38
682.206	36.35
682.393	36.53
682.58	36.6
682.766	36.45
682.953	36.58
683.14	36.72
683.326	36.59
683.513	36.68
683.7	36.43
683.886	36.36
684.073	36.13
684.259	36.06
684.446	35.93
684.632	35.9
684.819	35.94
685.005	35.95
685.192	35.7
685.378	35.58
685.565	35.52
685.751	35.74
685.938	35.79
686.124	35.89
686.31	35.87
686.497	36.07
686.683	35.6
686.87	35.61
687.056	35.68
687.242	35.57
687.429	35.53
687.615	35.6
687.801	35.47
687.987	35.25
688.174	35.09
688.36	35.31
688.546	35.42
688.732	35.8
688.918	35.83
689.105	35.6
689.291	35.59
689.477	35.64
689.663	35.88
689.849	35.82
690.035	36.14
690.221	36.47
690.407	36.4
690.593	36.19
690.779	36.36
690.965	36.5
691.151	36.76
691.337	36.9
691.523	37.08
691.709	36.84
691.895	37.07
692.081	37.07
692.267	36.69
692.453	37.02
692.639	36.99
692.825	36.56
693.011	36.65
693.196	36.72
693.382	36.65
693.568	36.6
693.754	36.92
693.94	37.05
694.125	37.18
694.311	37.32
694.497	37.07
694.682	36.99
694.868	37.03
695.054	36.92
695.239	36.68
695.425	36.63
695.611	36.16
695.796	36.09
695.982	36.04
696.168	35.92
696.353	35.79
696.539	35.75
696.724	35.76
696.91	35.97
697.095	36.02
697.281	36.04
697.466	36.08
697.652	36.35
697.837	35.94
698.023	35.8
698.208	35.78
698.393	35.76
698.579	35.63
698.764	35.49
698.949	35.39
699.135	35.13
699.32	34.99
699.505	34.97
699.691	34.84
699.876	35.2
700.061	35.32
700.246	35.17
700.432	35.35
700.617	35.49
700.802	35.49
700.987	35.54
701.172	35.79
701.358	35.84
701.543	35.79
701.728	36.32
701.913	35.78
702.098	35.81
702.283	36.02
702.468	36.01
702.653	36.29
702.838	36.65
703.023	36.52
703.208	36.43
703.393	36.73
703.578	36.65
703.763	36.28
703.948	36.56
704.133	36.62
704.318	36.77
704.503	36.8
704.688	36.99
704.873	37.18
705.057	37.88
705.242	38.18
705.427	38.52
705.612	38.87
705.797	38.93
705.981	39.38
706.166	39.57
706.351	39.73
706.536	39.93
706.72	39.49
706.905	39.31
707.09	39.06
707.274	39.09
707.459	38.87
707.644	38.9
707.828	39.17
708.013	38.8
708.197	38.69
708.382	38.35
708.567	38.49
708.751	38.59
708.936	38.7
709.12	38.89
709.305	38.5
709.489	38.18
709.673	37.88
709.858	37.67
710.042	38.12
710.227	37.51
710.411	37.65
710.596	37.4
710.78	37.39
710.964	37.67
711.149	37.42
711.333	37.77
711.517	38.02
711.702	38.19
711.886	37.99
712.07	37.82
712.254	38.25
712.438	38.31
712.623	38.27
712.807	38.15
712.991	37.95
713.175	37.81
713.359	37.8
713.544	37.34
713.728	37.25
713.912	37.25
714.096	37.09
714.28	36.82
714.464	36.56
714.648	36.59
714.832	36.72
715.016	36.47
715.2	36.29
715.384	36.32
715.568	36.84
715.752	37.16
715.936	37.17
716.12	37.12
716.304	37.29
716.488	37.47
716.671	37.3
716.855	37.41
717.039	37.14
717.223	37.36
717.407	36.83
717.59	36.66
717.774	36.21
717.958	36.24
718.142	36.15
718.325	35.93
718.509	36.09
718.693	36.1
718.877	35.5
719.06	36.37
719.244	36.16
719.428	36.25
719.611	36.45
719.795	36.56
719.978	36.57
720.162	36.81
720.345	37.3
720.529	37.18
720.713	37.27
720.896	37.67
721.08	37.52
721.263	38.01
721.446	38.29
721.63	38.03
721.813	38.21
721.997	37.61
722.18	37.36
722.364	36.65
722.547	36.43
722.73	36.48
722.914	36.74
723.097	35.86
723.28	35.47
723.464	35.5
723.647	35.42
723.83	35.41
724.013	36.04
724.197	35.86
724.38	36.19
724.563	35.97
724.746	35.87
724.929	35.71
725.112	35.75
725.296	35.54
725.479	35.36
725.662	35.97
725.845	36.06
726.028	36.21
726.211	36.3
726.394	36.44
726.577	36.93
726.76	37.33
726.943	37.4
727.126	37.98
727.309	38.21
727.492	38.26
727.675	37.61
727.858	37.48
728.041	37.6
728.224	37.82
728.407	37.65
728.589	37.49
728.772	37.27
728.955	37.11
729.138	37.11
729.321	37.33
729.503	37.22
729.686	37.49
729.869	37.32
730.052	36.71
730.234	36.85
730.417	37.27
730.6	37.47
730.782	37.62
730.965	37.48
731.148	37.33
731.33	37.19
731.513	36.97
731.695	36.77
731.878	36.91
732.061	37.15
732.243	36.8
732.426	36.35
732.608	36.05
732.791	36.07
732.973	36.62
733.156	36.59
733.338	36.72
733.52	37.1
733.703	37.17
733.885	37.26
734.068	37.51
734.25	37.68
734.432	37.93
734.615	38.33
734.797	38.28
734.979	38.12
735.162	38.63
735.344	38.52
735.526	38.49
735.708	38.43
735.891	38.63
736.073	38.9
736.255	39.36
736.437	39.48
736.619	39.38
736.802	38.72
736.984	38.32
737.166	37.94
737.348	37.76
737.53	38.1
737.712	37.96
737.894	37.55
738.076	37.3
738.258	37.17
738.44	37.06
738.622	36.76
738.804	37.04
738.986	37.6
739.168	37.34
739.35	37.69
739.532	37.18
739.714	37.66
739.896	38.01
740.078	37.88
740.259	37.96
740.441	38.07
740.623	38.39
740.805	38.72
740.987	38.65
741.168	39.34
741.35	39.71
741.532	39.8
741.714	39.64
741.895	39.46
742.077	39.83
742.259	39.73
742.44	39.57
742.622	39.53
742.804	39.67
742.985	39.46
743.167	38.92
743.348	38.31
743.53	38.42
743.711	38.84
743.893	39.36
744.075	39.08
744.256	39.76
744.438	40.36
744.619	40.73
744.8	41.07
744.982	41.21
745.163	41.56
745.345	41.83
745.526	42.07
745.707	41.29
745.889	41.53
746.07	41.83
746.252	41.02
746.433	40.47
746.614	40.31
746.795	40.08
746.977	40.21
747.158	40.3
747.339	40.2
747.52	40.73
747.702	41.57
747.883	40.97
748.064	40.65
748.245	39.95
748.426	41.14
748.607	41.02
748.788	40.67
748.97	40.14
749.151	39.89
749.332	39.39
749.513	38.44
749.694	37.45
749.875	37.35
750.056	38.05
750.237	38.54
750.418	38.01
750.599	37.45
750.78	38.04
750.96	38.52
751.141	38.52
751.322	38.93
751.503	39.21
751.684	39.62
751.865	39.94
752.046	39.63
752.226	40.1
752.407	39.31
752.588	39.61
752.769	39.03
752.949	38.61
753.13	38.95
753.311	39.22
753.492	39.88
753.672	39.98
753.853	39.44
754.034	39.12
754.214	39.88
754.395	40.39
754.575	41.49
754.756	41.74
754.937	42.16
755.117	41.63
755.298	42.29
755.478	41.46
755.659	41.57
755.839	41.76
756.02	41.45
756.2	40.42
756.381	40.43
756.561	39.97
756.741	39.74
756.922	39.18
757.102	39.64
757.283	38.89
757.463	38.58
757.643	38.55
757.823	39.08
758.004	38.99
758.184	39.01
758.364	38.67
758.545	38.11
758.725	38.47
758.905	38.64
759.085	38.54
759.265	38.02
759.446	38.51
759.626	38.1
759.806	37.76
759.986	38.02
760.166	37.59
760.346	37.71
760.526	37.23
760.706	36.29
760.886	36.29
761.066	36.09
761.246	37.03
761.426	36.9
761.606	37.1
761.786	37.04
761.966	36.5
762.146	36.31
762.326	36.43
762.506	36.32
762.686	36.89
762.866	37.01
763.046	36.65
763.225	36.35
763.405	36.31
763.585	36.21
763.765	36.08
763.945	35.95
764.124	35.92
764.304	36
764.484	36.32
764.664	35.88
764.843	35.4
765.023	35.78
765.203	35.54
765.382	35.83
765.562	35.98
765.741	35.97
765.921	36.56
766.101	37.06
766.28	36.94
766.46	37
766.639	37.31
766.819	37.75
766.998	37.87
767.178	38.29
767.357	38.23
767.537	38.2
767.716	38.57
767.896	38.87
768.075	38.51
768.254	38.13
768.434	38.83
768.613	38.86
768.792	39.44
768.972	39.49
769.151	38.74
769.33	38.7
769.51	38.46
769.689	37.98
769.868	37.78
770.047	38.49
770.226	39
770.406	38.43
770.585	39.82
770.764	39.15
770.943	39.82
771.122	41.02
771.301	40.86
771.48	41.57
771.66	42.14
771.839	42.86
772.018	42.86
772.197	42.42
772.376	42.96
772.555	42.03
772.734	42.42
772.913	42.35
773.092	42.52
773.271	42.2
773.449	42.92
773.628	43.19
773.807	42.14
773.986	42.41
774.165	42.99
774.344	43.66
774.523	43.3
774.701	44.13
774.88	43.28
775.059	43.13
775.238	43.52
775.417	42.51
775.595	41.86
775.774	42.8
775.953	42.15
776.131	41.47
776.31	40.12
776.489	40.36
776.667	39.91
776.846	40.22
777.025	39.82
777.203	39.71
777.382	39.85
777.56	39.19
777.739	39.37
777.917	40.3
778.096	40.78
778.274	40.92
778.453	41.14
778.631	40.86
778.81	40.59
778.988	40.33
779.166	40.93
779.345	40.95
779.523	41.1
779.702	40.69
779.88	40.18
780.058	39.57
780.237	39.65
780.415	39.34
780.593	39.33
780.771	39.5
780.95	40.86
781.128	40.86
781.306	41.04
781.484	41.46
781.662	41.13
781.841	42.14
782.019	42.18
782.197	42.82
782.375	43.09
782.553	43.88
782.731	44.36
782.909	43.95
783.087	43.11
783.265	42.81
783.443	43.66
783.621	44.6
783.799	43.41
783.977	43.61
784.155	43.03
784.333	43.74
784.511	43.02
784.689	42.12
784.867	41.6
785.045	42.4
785.223	42.29
785.4	41.62
785.578	40.91
785.756	41.19
785.934	40.65
786.112	41.42
786.289	41.46
786.467	41.43
786.645	41.42
786.823	41
787	40.16
787.178	40.48
787.356	41.24
787.533	40.46
787.711	39.74
787.889	40.18
788.066	39.57
788.244	38.94
788.421	38.75
788.599	39.72
788.776	39.52
788.954	40.32
789.131	40.26
789.309	39.91
789.486	41.17
789.664	41.54
789.841	42.14
790.019	42.65
790.196	43.17
790.373	43.46
790.551	43.49
790.728	44.18
790.906	44.3
791.083	43.39
791.26	43.62
791.437	42.54
791.615	43.97
791.792	43.77
791.969	43.87
792.146	42.61
792.324	43.4
792.501	42.57
792.678	42.15
792.855	41.34
793.032	42.69
793.209	42.11
793.387	42.42
793.564	41.4
793.741	41.44
793.918	40.18
794.095	40.33
794.272	39.63
794.449	40.05
794.626	40.97
794.803	41.68
794.98	41.52
795.157	41.73
795.334	40.89
795.511	40.82
795.688	41.22
795.864	40.48
796.041	40.68
796.218	39.56
796.395	39.99
796.572	39.25
796.749	38.69
796.925	38.93
797.102	38.31
797.279	39.25
797.456	38.67
797.632	38.93
797.809	38.99
797.986	38.68
798.162	40.17
798.339	39.79
798.516	40.31
798.692	40.7
798.869	39.88
799.046	40.04
799.222	40.08
799.399	40.56
799.575	39.48
799.752	40.01
799.928	40.33
800.105	40.3
800.281	39.96
800.458	39.79
800.634	39.65
800.811	40.78
800.987	41.67
801.163	41.99
801.34	42.56
801.516	43.86
801.692	45.26
801.869	45.05
802.045	45.1
802.221	45.39
802.398	46
802.574	45.65
802.75	44.64
802.926	43.83
803.103	43.84
803.279	43.35
803.455	42.54
803.631	41.75
803.807	41.72
803.983	41.16
804.16	40.87
804.336	40.53
804.512	40.66
804.688	41.03
804.864	41.93
805.04	42.24
805.216	41.98
805.392	42.24
805.568	42.63
805.744	43.76
805.92	44.63
806.096	44.51
806.272	46.34
806.448	46.54
806.623	45.97
806.799	46.53
806.975	45.49
807.151	46.01
807.327	45.64
807.503	46.1
807.678	46.59
807.854	45.91
808.03	45.72
808.206	42.01
808.381	42.73
808.557	44.3
808.733	43.16
808.908	44.2
809.084	44.47
809.26	43.51
809.435	44.32
809.611	43.44
809.787	43.4
809.962	45.43
810.138	47.66
810.313	48.03
810.489	47.47
810.664	46.9
810.84	47.07
811.015	47.26
811.191	48.05
811.366	46.89
811.542	46.76
811.717	46.13
811.892	44.18
812.068	43.26
812.243	42.97
812.419	43.3
812.594	43.51
812.769	42.25
812.944	40.66
813.12	39.58
813.295	38.5
813.47	39.32
813.645	40.38
813.821	40.66
813.996	40.53
814.171	40.26
814.346	38.36
814.521	38.78
814.697	39.39
814.872	39.41
815.047	41.16
815.222	41.86
815.397	41.21
815.572	41.05
815.747	41.56
815.922	41.46
816.097	41.3
816.272	41.75
816.447	42.21
816.622	42.38
816.797	43.33
816.972	42.84
817.147	42.04
817.322	42.43
817.496	42.17
817.671	42.05
817.846	41.25
818.021	41.4
818.196	42.07
818.371	41.07
818.545	41.36
818.72	41.42
818.895	40.61
819.069	40.21
819.244	40.39
819.419	40.61
819.594	40
819.768	40.2
819.943	38.77
820.117	38.04
820.292	37.52
820.467	36.74
820.641	36.27
820.816	36.21
820.99	35.38
821.165	34.28
821.339	33.62
821.514	33.15
821.688	32.69
821.863	32.62
822.037	32.24
822.212	32.48
822.386	32.32
822.56	32.04
822.735	32
822.909	32.16
823.084	32.22
823.258	32.15
823.432	32.02
823.606	32.27
823.781	31.94
823.955	32.42
824.129	31.98
824.303	31.89
824.478	31.72
824.652	31.74
824.826	31.85
825	32.04
825.174	32.3
825.348	32.53
825.523	32.52
825.697	33.5
825.871	33.04
826.045	33.64
826.219	33.77
826.393	34.19
826.567	33.91
826.741	33.77
826.915	33.59
827.089	33.64
827.263	33.98
827.437	33.98
827.611	33.74
827.784	33.94
827.958	34.27
828.132	33.94
828.306	33.77
828.48	34.04
828.654	34.45
828.827	34.26
829.001	34.49
829.175	34.57
829.349	34.91
829.522	35.68
829.696	36.58
829.87	36.33
830.044	37.56
830.217	39.3
830.391	39.74
830.565	39.7
830.738	41.55
830.912	42.67
831.085	43.29
831.259	43.41
831.432	43.55
831.606	42.26
831.779	42.57
831.953	41.61
832.126	39.98
832.3	39.69
832.473	38.98
832.647	37.92
832.82	35.9
832.994	35.78
833.167	35.87
833.34	35.17
833.514	35.12
833.687	34.85
833.86	35
834.034	35.82
834.207	35.72
834.38	36.24
834.553	37
834.727	37.56
834.9	37.53
835.073	36.95
835.246	36.92
835.419	37.01
835.593	36.4
835.766	36.98
835.939	36.48
836.112	37.13
836.285	37.69
836.458	36.46
836.631	36.19
836.804	36.74
836.977	35.9
837.15	37.75
837.323	38.59
837.496	40.22
837.669	38.24
837.842	39.7
838.015	40.46
838.188	40.26
838.361	42.69
838.533	44.93
838.706	46.46
838.879	48.8
839.052	46.71
839.225	46.9
839.398	46.74
839.57	49.67
839.743	47.93
839.916	46.46
840.088	45.07
840.261	43.1
840.434	42.06
840.607	40.16
840.779	42.07
840.952	44.49
841.124	44.63
841.297	45.56
841.47	44.43
841.642	44.82
841.815	44.32
841.987	45.86
842.16	47.3
842.332	49.1
842.505	50.07
842.677	49.52
842.85	47.59
843.022	47.96
843.194	49.4
843.367	51.39
843.539	52.17
843.712	53.97
843.884	53.6
844.056	55.4
844.229	55.4
844.401	55.52
844.573	54.25
844.745	54.46
844.918	54.56
845.09	56.81
845.262	56.39
845.434	53.86
845.606	54.32
845.779	53.02
845.951	51.12
846.123	50.17
846.295	50.87
846.467	53.22
846.639	52.55
846.811	52.55
846.983	52.06
847.155	50.72
847.327	56.13
847.499	56.81
847.671	56.59
847.843	59.92
848.015	60.81
848.187	60.56
848.359	59.81
848.531	58.75
848.703	59
848.875	58.22
849.047	58.4
849.218	56.88
849.39	55.42
849.562	58.52
849.734	58.09
849.905	55.56
850.077	54.37
850.249	52.94
850.421	56.08
850.592	56.37
850.764	51.2
850.936	52.7
851.107	52.52
851.279	52.44
851.451	50.05
851.622	49.63
851.794	49.17
851.965	48.73
852.137	52.55
852.308	52.53
852.48	53.53
852.651	54.51
852.823	54.86
852.994	53.22
853.166	51.5
853.337	51.46
853.509	51
853.68	52.5
853.851	53.12
854.023	51.09
854.194	51.48
854.365	49.73
854.537	49.1
854.708	52.37
854.879	56.6
855.05	60.93
855.222	63.94
855.393	63.37
855.564	64.39
855.735	65.99
855.906	65.52
856.078	65.89
856.249	66.16
856.42	68.97
856.591	66.74
856.762	67.4
856.933	65.2
857.104	68.54
857.275	68.49
857.446	72.38
857.617	72.72
857.788	71.85
857.959	69.74
858.13	69.72
858.301	67.6
858.472	66.64
858.643	65.43
858.814	68.65
858.985	63.16
859.155	64.68
859.326	56.56
859.497	53.81
859.668	56.13
859.839	55.83
860.009	54.07
860.18	54.35
860.351	55.09
860.522	50.34
860.692	48.21
860.863	51.9
861.034	48.12
861.204	52.04
861.375	56.28
861.546	58.11
861.716	57.84
861.887	58.82
862.057	62.7
862.228	64.23
862.398	66.87
862.569	67.73
862.739	65.9
862.91	66.33
863.08	65.18
863.251	61.95
863.421	60.66
863.592	64.71
863.762	62.79
863.932	57.63
864.103	52.28
864.273	50.91
864.443	48.75
864.614	52.57
864.784	55.53
864.954	58.72
865.125	59.06
865.295	60.95
865.465	57.15
865.635	58.75
865.805	56.89
865.976	59.21
866.146	62.59
866.316	64.29
866.486	62.17
866.656	58.97
866.826	61.58
866.996	60.85
867.166	60.67
867.336	63.12
867.506	63.5
867.676	64.26
867.846	63.19
868.016	60.95
868.186	59.01
868.356	60.7
868.526	66.35
868.696	62.99
868.866	63.26
869.036	55.34
869.206	53.56
869.376	53.59
869.545	52.94
869.715	55.73
869.885	54.48
870.055	56.46
870.224	51.44
870.394	46.37
870.564	49.96
870.734	50.88
870.903	54.95
871.073	53.82
871.243	53.36
871.412	55.87
871.582	54.96
871.751	59.33
871.921	56.77
872.091	60.52
872.26	60.62
872.43	54.26
872.599	53.39
872.769	54.73
872.938	55.5
873.108	55.44
873.277	55.04
873.446	50.61
873.616	47.33
873.785	48.73
873.955	48.08
874.124	52.18
874.293	50.84
874.463	54.09
874.632	52
874.801	50.56
874.971	49.96
875.14	50.48
875.309	55.9
875.478	63.39
875.647	65.58
875.817	63.6
875.986	59.59
876.155	63
876.324	60.65
876.493	61.1
876.662	63.6
876.831	64.98
877	65.88
877.17	62.45
877.339	60.93
877.508	53.5
877.677	55.52
877.846	55.51
878.015	56.59
878.184	54.25
878.352	56.33
878.521	53.34
878.69	53.04
878.859	52.85
879.028	52.79
879.197	48.77
879.366	53.17
879.534	50.91
879.703	50.23
879.872	47.68
880.041	47.63
880.21	43.92
880.378	43.61
880.547	41.57
880.716	39.56
880.884	38.15
881.053	37.08
881.222	35.5
881.39	34.74
881.559	34.2
881.727	33.32
881.896	32.62
882.065	32.35
882.233	32.03
882.402	31.5
882.57	31.52
882.739	31.55
882.907	30.95
883.076	31.49
883.244	31.25
883.412	31.05
883.581	31.92
883.749	32.32
883.918	32.35
884.086	32.82
884.254	33.38
884.423	33.49
884.591	34.55
884.759	35.51
884.927	34.99
885.096	35.22
885.264	36.63
885.432	37.68
885.6	38.4
885.769	40.45
885.937	39.98
886.105	39.8
886.273	41.48
886.441	39.69
886.609	38.92
886.777	40.64
886.945	41.46
887.113	40.83
887.281	37.49
887.449	39.33
887.617	41.1
887.785	40.17
887.953	41.51
888.121	43.52
888.289	46.95
888.457	53.72
888.625	55.28
888.793	56.16
888.961	55.14
889.129	62.15
889.296	59.28
889.464	56.91
889.632	60.31
889.8	63.3
889.967	62.16
890.135	62.55
