Data from 2938766__Reflection_01.txt Node
Date: Fri Mar 13 16:02:25 EDT 2015
User: robert
Spectrometer: USB4E03002
Autoset integration time: false
Trigger mode: 4
Integration Time (sec): 1.000000E-1
Scans to average: 10
Electric dark correction enabled: false
Nonlinearity correction enabled: false
Boxcar width: 5
Stray light correction enabled: false
XAxis mode: Wavelengths
Stop averaging: false
Number of Pixels in Spectrum: 3648
>>>>>Begin Spectral Data<<<<<
177.575	-139.26
177.794	-738.1
178.014	-561.54
178.233	-765.22
178.452	-4050
178.672	-120.27
178.891	-203.23
179.11	213.73
179.33	-2271.43
179.549	-1240
179.768	122.03
179.987	24.2
180.207	12.77
180.426	25.1
180.645	41.64
180.864	24.21
181.084	47.11
181.303	50.1
181.522	5.52
181.741	2.27
181.96	8.14
182.179	-15.08
182.398	-29.92
182.618	-19.69
182.837	-10.64
183.056	-48.31
183.275	6.3
183.494	-35.03
183.713	-2.84
183.932	13.4
184.151	12.61
184.37	37.33
184.589	38.45
184.808	51.52
185.027	34.44
185.246	35.45
185.465	28.89
185.684	18.46
185.903	37.42
186.122	38.7
186.341	41.16
186.56	43.32
186.779	42.1
186.998	24.76
187.216	1.54
187.435	1.91
187.654	-24.07
187.873	12.14
188.092	38.54
188.311	-4.38
188.53	-22.09
188.748	-11.39
188.967	-12.01
189.186	-168.39
189.405	-81.01
189.623	-50.25
189.842	-39.93
190.061	-33.45
190.28	-135.21
190.498	-235.54
190.717	-109.09
190.936	-242.38
191.154	-230.73
191.373	-224.63
191.592	-122.34
191.81	-127.65
192.029	-80.22
192.248	-18.49
192.466	-33.62
192.685	-30.59
192.904	-23.73
193.122	-66.26
193.341	-46.85
193.559	-44.31
193.778	-40.96
193.996	-2.3
194.215	13.42
194.433	-0.19
194.652	-124.14
194.87	-172.94
195.089	-286.99
195.307	-201.64
195.526	-103.81
195.744	-116.85
195.963	-115.74
196.181	-68.1
196.399	-88.59
196.618	-42.86
196.836	-44.5
197.055	-73.24
197.273	-22.72
197.491	-26.93
197.71	-40.51
197.928	-11.92
198.146	16.43
198.365	25.98
198.583	-5.12
198.801	9.76
199.019	-2.33
199.238	-20.95
199.456	-19.48
199.674	-16.17
199.892	-0.31
200.111	6.28
200.329	7.96
200.547	7.08
200.765	3.15
200.983	27.22
201.202	10.49
201.42	-1.17
201.638	31.86
201.856	39.76
202.074	39.69
202.292	47.13
202.51	10.09
202.728	15.53
202.946	16.22
203.165	18.63
203.383	-5.92
203.601	-12.41
203.819	-0.7
204.037	-1.16
204.255	-3.62
204.473	3.92
204.691	-45.35
204.909	6.08
205.127	-37.76
205.345	-97.78
205.562	-65.51
205.78	-49.23
205.998	-10.4
206.216	1.66
206.434	15.31
206.652	16.35
206.87	16.38
207.088	25.73
207.306	17.36
207.523	36.84
207.741	48.99
207.959	60.92
208.177	49.41
208.395	37.15
208.612	44.74
208.83	26.9
209.048	-63.51
209.266	-149.41
209.483	-58.67
209.701	-69.88
209.919	-190.05
210.136	-99.46
210.354	-96.26
210.572	-18.06
210.79	-6.78
211.007	-42.88
211.225	-35.04
211.442	-14.99
211.66	-7.02
211.878	-1.72
212.095	-79.61
212.313	-30.97
212.53	-28.35
212.748	-28.2
212.966	-38.03
213.183	-42.01
213.401	-26.45
213.618	-34.69
213.836	-38.33
214.053	-52.27
214.271	-53
214.488	-1.91
214.705	-7.97
214.923	-12.2
215.14	-5.1
215.358	-7.05
215.575	5.91
215.793	1.83
216.01	3.8
216.227	20.29
216.445	30.67
216.662	27.71
216.879	32.75
217.097	36.07
217.314	38.01
217.531	40.75
217.749	44.67
217.966	33.62
218.183	35.17
218.4	45.68
218.618	37.35
218.835	31.34
219.052	34.54
219.269	30.23
219.487	21.81
219.704	16.02
219.921	5.26
220.138	13.11
220.355	9.73
220.572	4.41
220.79	-4.29
221.007	-11.37
221.224	-8.4
221.441	-6.08
221.658	0.93
221.875	4.5
222.092	9.4
222.309	13.8
222.526	8.76
222.743	8.38
222.96	4.74
223.177	3.41
223.394	8.76
223.611	11.82
223.828	8.49
224.045	0.5
224.262	-1.34
224.479	-2.8
224.696	-4.47
224.913	-3.13
225.13	0.99
225.347	2.89
225.564	4.02
225.781	1.32
225.997	-1
226.214	-2.38
226.431	-0.02
226.648	-0.09
226.865	0.91
227.082	0.94
227.298	2.01
227.515	1.06
227.732	1.56
227.949	1.94
228.165	2.62
228.382	3.41
228.599	4.6
228.816	4.82
229.032	4.84
229.249	4.58
229.466	4.56
229.682	4.35
229.899	4.98
230.116	4.94
230.332	5.07
230.549	4.86
230.765	4.84
230.982	4.79
231.199	3.24
231.415	3.33
231.632	2.33
231.848	1.97
232.065	2.23
232.281	1.31
232.498	0.48
232.714	-0.33
232.931	0.26
233.147	1.4
233.364	1.55
233.58	3.66
233.797	3.55
234.013	4.77
234.23	4.23
234.446	2.29
234.662	3.29
234.879	5.07
235.095	5.56
235.312	5.28
235.528	4.11
235.744	3.31
235.961	3.71
236.177	4.17
236.393	4.31
236.61	4.46
236.826	5.81
237.042	4.88
237.258	3.84
237.475	4.17
237.691	4.56
237.907	3.96
238.123	5.34
238.339	4.01
238.556	3.05
238.772	4.12
238.988	3.67
239.204	3.66
239.42	5.08
239.636	5.55
239.853	5.05
240.069	4.64
240.285	4.6
240.501	3.35
240.717	3.69
240.933	3.55
241.149	2.49
241.365	3
241.581	2.72
241.797	2.17
242.013	1.7
242.229	1.88
242.445	1.95
242.661	1.89
242.877	2.26
243.093	2.01
243.309	2.53
243.525	2.39
243.741	2.81
243.957	2.79
244.173	2.76
244.388	3.47
244.604	3.53
244.82	3.63
245.036	3.29
245.252	3
245.468	2.96
245.683	3.19
245.899	3.66
246.115	3.24
246.331	3.32
246.547	3.49
246.762	3.31
246.978	3.38
247.194	3.22
247.409	3.67
247.625	3.72
247.841	3.78
248.057	3.62
248.272	3.65
248.488	3.59
248.703	3.49
248.919	3.16
249.135	2.65
249.35	2.16
249.566	2.13
249.782	1.82
249.997	1.9
250.213	2.11
250.428	2.35
250.644	1.97
250.859	1.89
251.075	2.09
251.29	2.54
251.506	3.36
251.721	4.21
251.937	4.28
252.152	4.21
252.368	4.32
252.583	3.94
252.798	3.61
253.014	4.11
253.229	3.97
253.445	4.9
253.66	4.69
253.875	4.56
254.091	3.47
254.306	3.38
254.521	2.68
254.737	2.05
254.952	2.75
255.167	3.07
255.383	2.59
255.598	2.45
255.813	0.05
256.028	-0.14
256.244	-0.45
256.459	-0.3
256.674	-0.59
256.889	-0.24
257.104	0.21
257.32	0.14
257.535	-0.54
257.75	-0.67
257.965	0.32
258.18	1.59
258.395	1.97
258.61	2.61
258.826	2.62
259.041	2.81
259.256	2.8
259.471	2.73
259.686	2.82
259.901	3.11
260.116	3.06
260.331	2.88
260.546	2.86
260.761	2.82
260.976	2.54
261.191	2.88
261.406	2.93
261.621	2.97
261.836	2.89
262.05	2.6
262.265	2.02
262.48	2.33
262.695	2.58
262.91	2.32
263.125	2.07
263.34	2.05
263.555	1.49
263.769	1.51
263.984	1.26
264.199	1.71
264.414	1.63
264.629	2.13
264.843	2.4
265.058	2.36
265.273	2.19
265.488	2.1
265.702	1.72
265.917	1.87
266.132	1.74
266.346	1.86
266.561	1.42
266.776	1.67
266.99	1.92
267.205	1.9
267.42	1.73
267.634	1.66
267.849	1.7
268.063	1.75
268.278	2.11
268.492	1.84
268.707	1.83
268.922	1.79
269.136	1.52
269.351	1.08
269.565	0.93
269.78	0.94
269.994	1.07
270.209	1.4
270.423	1.79
270.637	1.74
270.852	2
271.066	1.99
271.281	2.15
271.495	2.61
271.709	2.62
271.924	2.68
272.138	2.38
272.353	2.22
272.567	1.92
272.781	1.61
272.996	1.53
273.21	1.19
273.424	1.16
273.638	1.32
273.853	1.13
274.067	1.64
274.281	1.57
274.495	1.8
274.71	1.91
274.924	1.78
275.138	1.98
275.352	1.81
275.566	2.65
275.781	2.82
275.995	2.76
276.209	2.56
276.423	2.34
276.637	1.99
276.851	2.03
277.065	2.03
277.279	2.46
277.493	2.85
277.707	2.75
277.921	2.21
278.135	1.97
278.349	1.65
278.563	1.65
278.777	1.35
278.991	1.73
279.205	1.43
279.419	1.69
279.633	1.84
279.847	1.56
280.061	1.63
280.275	1.45
280.489	1.11
280.703	0.96
280.917	1.09
281.131	1.27
281.344	0.97
281.558	1.21
281.772	1.08
281.986	0.89
282.2	0.78
282.414	1.13
282.627	1.35
282.841	1.89
283.055	2.31
283.269	2.42
283.482	2.61
283.696	2.72
283.91	2.78
284.123	2.91
284.337	2.95
284.551	2.81
284.764	2.58
284.978	2.39
285.192	2.18
285.405	2.13
285.619	1.93
285.833	2.05
286.046	2.09
286.26	2.07
286.473	1.97
286.687	2.05
286.9	2.09
287.114	2.02
287.327	2.44
287.541	2.52
287.754	2.49
287.968	2.51
288.181	2.29
288.395	2.68
288.608	2.79
288.822	2.52
289.035	2.42
289.248	2.28
289.462	2.4
289.675	2.17
289.889	2.05
290.102	2
290.315	1.99
290.529	1.81
290.742	1.32
290.955	1.27
291.169	1.63
291.382	1.6
291.595	1.8
291.808	1.45
292.022	1.17
292.235	1
292.448	1.09
292.661	1.2
292.875	1.12
293.088	1.1
293.301	0.78
293.514	0.86
293.727	0.85
293.94	0.89
294.153	1.17
294.367	1.41
294.58	1.79
294.793	1.44
295.006	1.45
295.219	1.32
295.432	1.7
295.645	1.96
295.858	1.81
296.071	2.03
296.284	2.11
296.497	2.36
296.71	2.52
296.923	2.65
297.136	3.04
297.349	2.95
297.562	3.06
297.775	3.14
297.988	3.26
298.201	3.34
298.414	3.13
298.626	3.35
298.839	3.25
299.052	3.03
299.265	2.98
299.478	2.71
299.691	3.29
299.903	3.38
300.116	2.98
300.329	3
300.542	2.77
300.755	2.9
300.967	2.59
301.18	2.53
301.393	2.57
301.605	2.44
301.818	2.37
302.031	1.8
302.243	1.89
302.456	2
302.669	1.81
302.881	1.86
303.094	2.04
303.307	2.17
303.519	2.03
303.732	2.37
303.944	2.3
304.157	2.63
304.37	2.72
304.582	2.94
304.795	3.07
305.007	3.32
305.22	3.5
305.432	3.34
305.645	3.44
305.857	3.84
306.069	3.48
306.282	3.61
306.494	3.52
306.707	3.43
306.919	2.89
307.132	2.52
307.344	2.47
307.556	2.48
307.769	2.62
307.981	2.52
308.193	2.36
308.406	2.47
308.618	2.26
308.83	2.25
309.043	2.42
309.255	2.54
309.467	2.6
309.679	2.43
309.892	2.61
310.104	2.5
310.316	2.6
310.528	2.56
310.74	2.93
310.953	3.34
311.165	3.35
311.377	3.07
311.589	3.33
311.801	3.67
312.013	4.1
312.225	4.18
312.437	4.34
312.649	4.22
312.862	4.18
313.074	3.86
313.286	3.31
313.498	3.43
313.71	3.66
313.922	3.75
314.134	3.49
314.346	3.36
314.558	2.87
314.77	2.82
314.982	3.13
315.193	3.3
315.405	3.07
315.617	3.5
315.829	3.48
316.041	3.87
316.253	3.77
316.465	3.71
316.677	3.47
316.888	3.82
317.1	3.78
317.312	3.64
317.524	3.48
317.736	3.74
317.947	3.82
318.159	3.82
318.371	3.76
318.583	3.87
318.794	3.86
319.006	3.89
319.218	4.27
319.43	4.29
319.641	4.44
319.853	5.01
320.064	5.23
320.276	5.55
320.488	6.08
320.699	6.14
320.911	6.49
321.123	7.13
321.334	7.18
321.546	6.89
321.757	7.45
321.969	7.54
322.18	6.99
322.392	6.92
322.603	6.42
322.815	6.22
323.026	6.29
323.238	6.37
323.449	6.4
323.661	6.65
323.872	7.19
324.083	6.93
324.295	6.96
324.506	7.47
324.718	7.88
324.929	8.42
325.14	8.93
325.352	9.27
325.563	9.38
325.774	9.42
325.986	9.74
326.197	9.8
326.408	10.59
326.62	10.95
326.831	11.36
327.042	11.54
327.253	11.92
327.464	11.97
327.676	12.2
327.887	12.27
328.098	12.83
328.309	12.95
328.52	13.16
328.732	13.31
328.943	13.99
329.154	14.29
329.365	14.83
329.576	15.21
329.787	15.8
329.998	16.48
330.209	16.99
330.42	17.31
330.631	17.77
330.842	18.41
331.053	18.53
331.264	18.6
331.475	18.88
331.686	19.22
331.897	19.68
332.108	19.68
332.319	19.89
332.53	20.36
332.741	20.86
332.952	21.27
333.163	21.43
333.374	21.77
333.585	21.97
333.795	22.3
334.006	21.92
334.217	22.15
334.428	22.63
334.639	22.8
334.849	22.91
335.06	22.65
335.271	22.8
335.482	22.97
335.692	23.16
335.903	23.09
336.114	23.35
336.325	23.96
336.535	24.03
336.746	24.11
336.957	24.07
337.167	24.14
337.378	24.47
337.589	24.36
337.799	24.19
338.01	24.66
338.22	25
338.431	24.62
338.642	24.8
338.852	24.57
339.063	24.57
339.273	24.74
339.484	24.95
339.694	25.15
339.905	25.23
340.115	25.77
340.326	25.14
340.536	25.28
340.746	25.69
340.957	25.94
341.167	25.91
341.378	25.94
341.588	25.9
341.799	25.71
342.009	25.52
342.219	25.68
342.43	25.27
342.64	25.72
342.85	25.72
343.061	25.68
343.271	25.27
343.481	25.5
343.691	25.67
343.902	25.79
344.112	25.67
344.322	25.66
344.532	25.6
344.743	25.78
344.953	25.63
345.163	25.72
345.373	25.59
345.583	25.78
345.793	25.66
346.004	25.7
346.214	25.61
346.424	25.71
346.634	25.93
346.844	25.68
347.054	25.59
347.264	25.48
347.474	25.49
347.684	25.59
347.894	25.35
348.104	25.61
348.314	25.56
348.524	25.62
348.734	25.52
348.944	25.01
349.154	25.43
349.364	25.62
349.574	25.65
349.784	25.79
349.994	25.66
350.204	25.79
350.413	25.44
350.623	25.33
350.833	25.03
351.043	25.2
351.253	25.53
351.463	25.53
351.672	25.08
351.882	24.85
352.092	24.56
352.302	24.62
352.511	24.76
352.721	24.79
352.931	24.51
353.141	24.5
353.35	24.26
353.56	24.34
353.77	24.44
353.979	24.86
354.189	25.03
354.399	25
354.608	25.06
354.818	24.7
355.027	24.71
355.237	24.99
355.447	25.31
355.656	25.46
355.866	25.28
356.075	25.08
356.285	24.78
356.494	24.8
356.704	24.76
356.913	24.53
357.123	24.58
357.332	24.69
357.542	24.53
357.751	24.45
357.96	24.43
358.17	24.29
358.379	24.26
358.589	24.2
358.798	24.22
359.007	24.13
359.217	24.26
359.426	24.34
359.635	24.25
359.845	24.38
360.054	24.28
360.263	24.23
360.472	24.5
360.682	24.47
360.891	24.55
361.1	24.44
361.309	24.44
361.519	24.31
361.728	24.28
361.937	24.21
362.146	24.13
362.355	24.07
362.564	24.31
362.774	24.2
362.983	24.21
363.192	24.14
363.401	24.21
363.61	24.16
363.819	24.25
364.028	24.31
364.237	24.43
364.446	24.26
364.655	24.28
364.864	23.99
365.073	23.94
365.282	23.83
365.491	23.94
365.7	23.83
365.909	23.76
366.118	23.87
366.327	23.8
366.536	23.83
366.745	23.94
366.954	23.97
367.162	24.01
367.371	23.93
367.58	23.89
367.789	23.8
367.998	23.79
368.207	23.91
368.415	23.91
368.624	23.79
368.833	23.88
369.042	23.75
369.25	23.55
369.459	23.61
369.668	23.66
369.877	23.69
370.085	23.62
370.294	23.73
370.503	23.53
370.711	23.36
370.92	23.37
371.129	23.01
371.337	23.11
371.546	23.23
371.754	23.17
371.963	23.13
372.171	23.02
372.38	22.95
372.589	22.86
372.797	22.99
373.006	23.1
373.214	23.18
373.423	23.16
373.631	23.14
373.84	22.95
374.048	22.85
374.256	22.77
374.465	22.99
374.673	23.19
374.882	23.13
375.09	23.12
375.298	23.15
375.507	23.02
375.715	23.13
375.923	23.15
376.132	23.13
376.34	23.07
376.548	23.14
376.757	23.14
376.965	23.07
377.173	22.96
377.381	23.01
377.59	23.16
377.798	23.33
378.006	23.22
378.214	23.1
378.423	23.34
378.631	23.45
378.839	23.38
379.047	23.23
379.255	23.29
379.463	23.47
379.671	23.29
379.879	22.92
380.088	22.69
380.296	22.94
380.504	22.87
380.712	22.93
380.92	22.9
381.128	22.83
381.336	22.83
381.544	22.52
381.752	22.55
381.96	22.66
382.168	22.93
382.376	23.18
382.584	22.97
382.791	23.12
382.999	22.84
383.207	22.83
383.415	23.04
383.623	23.12
383.831	23.42
384.039	23.33
384.247	23.26
384.454	22.9
384.662	22.48
384.87	22.72
385.078	22.67
385.285	22.85
385.493	22.91
385.701	22.8
385.909	22.82
386.116	22.7
386.324	22.57
386.532	22.89
386.739	22.99
386.947	23.36
387.155	23.17
387.362	23.2
387.57	23.16
387.778	23.09
387.985	23.12
388.193	23.17
388.4	23.3
388.608	23.43
388.816	23.14
389.023	23.31
389.231	23.08
389.438	23.09
389.646	23.13
389.853	23.1
390.061	22.96
390.268	23.03
390.475	23.03
390.683	23.05
390.89	22.99
391.098	22.97
391.305	22.9
391.512	23.03
391.72	23.02
391.927	23.01
392.135	22.88
392.342	22.97
392.549	22.99
392.756	23.07
392.964	22.96
393.171	23.08
393.378	23.1
393.586	23.11
393.793	23.18
394	23.22
394.207	23.19
394.414	23.23
394.622	23.24
394.829	23.26
395.036	23.15
395.243	23.13
395.45	23.03
395.657	23.12
395.864	23.03
396.072	22.82
396.279	22.92
396.486	22.94
396.693	23.16
396.9	23.31
397.107	23.12
397.314	23.2
397.521	23.24
397.728	23.29
397.935	23.34
398.142	23.49
398.349	23.65
398.556	23.67
398.763	23.55
398.97	23.48
399.177	23.46
399.383	23.53
399.59	23.45
399.797	23.51
400.004	23.48
400.211	23.41
400.418	23.25
400.625	23.35
400.831	23.18
401.038	23.36
401.245	23.26
401.452	23.27
401.658	23.13
401.865	23.14
402.072	23.13
402.279	23.33
402.485	23.43
402.692	23.63
402.899	23.55
403.105	23.76
403.312	23.79
403.519	23.88
403.725	23.83
403.932	24.02
404.138	24.11
404.345	24.24
404.552	24.12
404.758	24.04
404.965	23.96
405.171	24.04
405.378	23.99
405.584	23.95
405.791	23.76
405.997	23.88
406.204	23.96
406.41	23.95
406.617	23.83
406.823	23.86
407.029	23.89
407.236	23.97
407.442	23.9
407.649	23.77
407.855	23.78
408.061	23.92
408.268	23.85
408.474	23.92
408.68	23.86
408.887	23.88
409.093	23.85
409.299	23.82
409.505	23.72
409.712	23.81
409.918	23.88
410.124	23.96
410.33	24.1
410.537	24
410.743	23.94
410.949	24.04
411.155	24.01
411.361	24.02
411.567	23.98
411.773	24.09
411.98	24.06
412.186	24.13
412.392	24.05
412.598	24.08
412.804	24.15
413.01	24.2
413.216	24.15
413.422	24.33
413.628	24.28
413.834	24.33
414.04	24.31
414.246	24.22
414.452	24.11
414.658	24.15
414.864	24.03
415.07	23.96
415.275	23.94
415.481	24.03
415.687	23.89
415.893	24.06
416.099	24.21
416.305	24.21
416.511	24.16
416.716	24.18
416.922	24.19
417.128	24.34
417.334	24.46
417.539	24.4
417.745	24.37
417.951	24.46
418.157	24.36
418.362	24.37
418.568	24.48
418.774	24.63
418.979	24.63
419.185	24.7
419.391	24.62
419.596	24.7
419.802	24.74
420.008	24.8
420.213	24.78
420.419	24.82
420.624	24.83
420.83	24.78
421.035	24.73
421.241	24.77
421.446	24.73
421.652	24.78
421.857	24.7
422.063	24.7
422.268	24.64
422.474	24.63
422.679	24.62
422.885	24.57
423.09	24.54
423.295	24.61
423.501	24.65
423.706	24.68
423.911	24.78
424.117	24.81
424.322	24.8
424.527	24.78
424.733	24.78
424.938	24.85
425.143	24.86
425.349	24.92
425.554	24.91
425.759	24.96
425.964	24.95
426.169	24.87
426.375	24.86
426.58	24.82
426.785	24.87
426.99	24.89
427.195	24.78
427.4	24.76
427.605	24.8
427.811	24.68
428.016	24.67
428.221	24.61
428.426	24.67
428.631	24.72
428.836	24.72
429.041	24.76
429.246	24.74
429.451	24.72
429.656	24.69
429.861	24.68
430.066	24.78
430.271	24.8
430.476	24.9
430.681	24.8
430.886	24.74
431.09	24.77
431.295	24.75
431.5	24.82
431.705	24.94
431.91	25.03
432.115	25.06
432.32	25.09
432.524	24.99
432.729	24.99
432.934	25.08
433.139	25.12
433.343	25.19
433.548	25.25
433.753	25.29
433.958	25.32
434.162	25.37
434.367	25.3
434.572	25.36
434.776	25.41
434.981	25.37
435.186	25.3
435.39	25.26
435.595	25.38
435.799	25.26
436.004	25.16
436.209	25.1
436.413	25
436.618	25.01
436.822	24.84
437.027	24.78
437.231	24.89
437.436	24.86
437.64	24.89
437.845	24.75
438.049	24.81
438.253	24.85
438.458	24.89
438.662	25.04
438.867	25.08
439.071	25.25
439.275	25.35
439.48	25.27
439.684	25.41
439.888	25.36
440.093	25.43
440.297	25.43
440.501	25.49
440.706	25.46
440.91	25.48
441.114	25.4
441.318	25.36
441.523	25.29
441.727	25.34
441.931	25.23
442.135	25.35
442.339	25.39
442.543	25.39
442.748	25.39
442.952	25.4
443.156	25.32
443.36	25.4
443.564	25.43
443.768	25.52
443.972	25.57
444.176	25.63
444.38	25.65
444.584	25.55
444.788	25.54
444.992	25.53
445.196	25.65
445.4	25.69
445.604	25.72
445.808	25.8
446.012	25.71
446.216	25.64
446.42	25.58
446.624	25.55
446.828	25.57
447.032	25.58
447.235	25.58
447.439	25.54
447.643	25.53
447.847	25.52
448.051	25.42
448.254	25.43
448.458	25.48
448.662	25.53
448.866	25.54
449.069	25.5
449.273	25.57
449.477	25.62
449.681	25.67
449.884	25.62
450.088	25.56
450.292	25.64
450.495	25.73
450.699	25.7
450.902	25.6
451.106	25.66
451.31	25.74
451.513	25.71
451.717	25.58
451.92	25.59
452.124	25.56
452.327	25.71
452.531	25.68
452.734	25.7
452.938	25.73
453.141	25.85
453.345	25.76
453.548	25.79
453.752	25.74
453.955	25.76
454.158	25.79
454.362	25.93
454.565	25.85
454.769	25.81
454.972	25.8
455.175	25.76
455.379	25.83
455.582	25.91
455.785	25.82
455.988	25.85
456.192	25.96
456.395	25.72
456.598	25.59
456.801	25.55
457.005	25.66
457.208	25.63
457.411	25.6
457.614	25.5
457.817	25.49
458.021	25.56
458.224	25.45
458.427	25.5
458.63	25.63
458.833	25.69
459.036	25.71
459.239	25.76
459.442	25.82
459.645	25.9
459.848	25.94
460.051	25.93
460.254	25.91
460.457	25.99
460.66	25.93
460.863	25.84
461.066	25.81
461.269	25.79
461.472	25.62
461.675	25.62
461.878	25.57
462.081	25.57
462.284	25.58
462.486	25.61
462.689	25.63
462.892	25.68
463.095	25.78
463.298	25.79
463.5	25.73
463.703	25.84
463.906	25.8
464.109	25.8
464.311	25.77
464.514	25.71
464.717	25.83
464.92	25.8
465.122	25.8
465.325	25.8
465.528	25.86
465.73	25.85
465.933	25.85
466.135	25.7
466.338	25.7
466.541	25.67
466.743	25.72
466.946	25.77
467.148	25.82
467.351	25.79
467.553	25.75
467.756	25.82
467.958	25.9
468.161	25.88
468.363	25.97
468.566	25.96
468.768	25.96
468.971	25.88
469.173	25.72
469.375	25.74
469.578	25.83
469.78	25.85
469.983	25.76
470.185	25.73
470.387	25.79
470.59	25.75
470.792	25.73
470.994	25.83
471.196	25.91
471.399	25.98
471.601	25.97
471.803	25.85
472.005	25.78
472.208	25.84
472.41	25.93
472.612	25.94
472.814	26.02
473.016	26.05
473.218	26.02
473.421	26.01
473.623	25.93
473.825	25.87
474.027	25.98
474.229	26.03
474.431	26
474.633	25.9
474.835	25.91
475.037	25.79
475.239	25.83
475.441	25.82
475.643	25.8
475.845	25.81
476.047	25.84
476.249	25.9
476.451	25.92
476.653	25.85
476.855	25.92
477.057	25.91
477.258	26
477.46	25.96
477.662	26.05
477.864	26.17
478.066	26.14
478.268	26.08
478.469	26.03
478.671	26
478.873	26.11
479.075	26.07
479.276	26.12
479.478	26.19
479.68	26.27
479.882	26.26
480.083	26.17
480.285	26.23
480.487	26.31
480.688	26.31
480.89	26.35
481.091	26.32
481.293	26.34
481.495	26.29
481.696	26.28
481.898	26.24
482.099	26.23
482.301	26.27
482.502	26.24
482.704	26.24
482.905	26.27
483.107	26.19
483.308	26.21
483.51	26.18
483.711	26.18
483.913	26.18
484.114	26.13
484.315	26.11
484.517	26.07
484.718	26.09
484.92	26.07
485.121	26.04
485.322	26.12
485.524	26.1
485.725	26.15
485.926	26.12
486.127	26.11
486.329	26.18
486.53	26.21
486.731	26.25
486.932	26.25
487.134	26.27
487.335	26.28
487.536	26.28
487.737	26.29
487.938	26.26
488.139	26.34
488.341	26.38
488.542	26.4
488.743	26.37
488.944	26.4
489.145	26.4
489.346	26.44
489.547	26.4
489.748	26.42
489.949	26.42
490.15	26.42
490.351	26.42
490.552	26.43
490.753	26.41
490.954	26.41
491.155	26.42
491.356	26.43
491.557	26.41
491.758	26.46
491.959	26.45
492.159	26.45
492.36	26.49
492.561	26.42
492.762	26.4
492.963	26.45
493.164	26.52
493.364	26.52
493.565	26.56
493.766	26.59
493.967	26.62
494.167	26.63
494.368	26.66
494.569	26.67
494.769	26.83
494.97	26.89
495.171	26.86
495.371	26.79
495.572	26.78
495.773	26.8
495.973	26.76
496.174	26.76
496.375	26.81
496.575	26.78
496.776	26.79
496.976	26.75
497.177	26.75
497.377	26.73
497.578	26.81
497.778	26.82
497.979	26.86
498.179	26.83
498.38	26.86
498.58	26.87
498.78	26.91
498.981	26.85
499.181	26.86
499.382	26.77
499.582	26.83
499.782	26.89
499.983	26.94
500.183	26.96
500.383	27.06
500.584	27
500.784	27
500.984	27.04
501.184	27.15
501.385	27.14
501.585	27.15
501.785	27.15
501.985	27.03
502.185	27.02
502.386	26.95
502.586	26.87
502.786	26.91
502.986	26.9
503.186	26.88
503.386	26.91
503.586	26.97
503.786	27.09
503.987	27.17
504.187	27.23
504.387	27.26
504.587	27.3
504.787	27.36
504.987	27.36
505.187	27.34
505.387	27.46
505.587	27.4
505.786	27.28
505.986	27.23
506.186	27.14
506.386	27.03
506.586	27.01
506.786	27.08
506.986	27.07
507.186	27.06
507.386	27.13
507.585	27.12
507.785	27.13
507.985	27.1
508.185	27.13
508.384	27.14
508.584	27.2
508.784	27.22
508.984	27.16
509.183	27.2
509.383	27.23
509.583	27.26
509.782	27.22
509.982	27.3
510.182	27.43
510.381	27.41
510.581	27.51
510.781	27.52
510.98	27.52
511.18	27.54
511.379	27.5
511.579	27.55
511.778	27.56
511.978	27.51
512.177	27.47
512.377	27.46
512.576	27.46
512.776	27.38
512.975	27.43
513.175	27.52
513.374	27.52
513.573	27.6
513.773	27.55
513.972	27.56
514.172	27.64
514.371	27.58
514.57	27.55
514.77	27.59
514.969	27.73
515.168	27.72
515.367	27.71
515.567	27.73
515.766	27.71
515.965	27.79
516.164	27.8
516.364	27.82
516.563	27.91
516.762	27.94
516.961	28.04
517.16	27.93
517.359	27.97
517.559	27.96
517.758	28
517.957	27.98
518.156	27.95
518.355	27.91
518.554	27.9
518.753	27.89
518.952	27.92
519.151	27.87
519.35	27.95
519.549	27.86
519.748	27.8
519.947	27.78
520.146	27.84
520.345	27.82
520.544	27.84
520.743	27.83
520.942	27.91
521.141	27.89
521.339	27.9
521.538	27.93
521.737	27.99
521.936	28.09
522.135	28.14
522.333	28.07
522.532	28.23
522.731	28.26
522.93	28.36
523.129	28.37
523.327	28.4
523.526	28.45
523.725	28.39
523.923	28.48
524.122	28.47
524.321	28.42
524.519	28.48
524.718	28.53
524.917	28.52
525.115	28.52
525.314	28.56
525.512	28.58
525.711	28.51
525.909	28.46
526.108	28.49
526.306	28.5
526.505	28.5
526.703	28.49
526.902	28.43
527.1	28.45
527.299	28.38
527.497	28.32
527.696	28.32
527.894	28.32
528.092	28.33
528.291	28.31
528.489	28.27
528.688	28.29
528.886	28.31
529.084	28.31
529.283	28.28
529.481	28.31
529.679	28.39
529.877	28.41
530.076	28.45
530.274	28.47
530.472	28.47
530.67	28.5
530.869	28.5
531.067	28.5
531.265	28.52
531.463	28.56
531.661	28.63
531.859	28.51
532.057	28.55
532.255	28.58
532.454	28.6
532.652	28.64
532.85	28.69
533.048	28.73
533.246	28.71
533.444	28.69
533.642	28.68
533.84	28.71
534.038	28.81
534.236	28.81
534.434	28.8
534.632	28.84
534.83	28.85
535.027	28.86
535.225	28.9
535.423	28.91
535.621	28.99
535.819	29.06
536.017	28.98
536.215	28.94
536.412	28.95
536.61	28.99
536.808	28.99
537.006	29.01
537.203	29.01
537.401	29.03
537.599	29.08
537.797	29
537.994	29.07
538.192	29.18
538.39	29.24
538.587	29.23
538.785	29.25
538.983	29.27
539.18	29.27
539.378	29.29
539.575	29.29
539.773	29.31
539.97	29.32
540.168	29.28
540.366	29.23
540.563	29.21
540.761	29.22
540.958	29.21
541.155	29.27
541.353	29.23
541.55	29.24
541.748	29.22
541.945	29.22
542.143	29.3
542.34	29.31
542.537	29.34
542.735	29.33
542.932	29.34
543.129	29.4
543.327	29.42
543.524	29.54
543.721	29.57
543.919	29.64
544.116	29.65
544.313	29.65
544.51	29.68
544.708	29.73
544.905	29.86
545.102	29.89
545.299	29.93
545.496	29.95
545.693	29.93
545.891	30.02
546.088	30
546.285	30.09
546.482	30.1
546.679	30.09
546.876	30.07
547.073	30.04
547.27	30
547.467	29.99
547.664	29.97
547.861	29.93
548.058	29.85
548.255	29.8
548.452	29.74
548.649	29.68
548.846	29.72
549.043	29.62
549.24	29.63
549.437	29.61
549.633	29.52
549.83	29.52
550.027	29.6
550.224	29.54
550.421	29.59
550.618	29.53
550.814	29.55
551.011	29.53
551.208	29.67
551.405	29.69
551.601	29.75
551.798	29.73
551.995	29.59
552.191	29.55
552.388	29.63
552.585	29.6
552.781	29.62
552.978	29.69
553.175	29.66
553.371	29.53
553.568	29.4
553.764	29.44
553.961	29.48
554.157	29.59
554.354	29.5
554.55	29.48
554.747	29.56
554.943	29.52
555.14	29.35
555.336	29.38
555.533	29.52
555.729	29.62
555.926	29.69
556.122	29.67
556.318	29.61
556.515	29.69
556.711	29.71
556.907	29.68
557.104	29.63
557.3	29.82
557.496	29.69
557.693	29.63
557.889	29.6
558.085	29.5
558.281	29.51
558.478	29.61
558.674	29.53
558.87	29.54
559.066	29.46
559.262	29.64
559.459	29.66
559.655	29.84
559.851	29.92
560.047	29.99
560.243	29.95
560.439	30.06
560.635	29.98
560.831	30.09
561.027	30.13
561.223	30.16
561.419	30.17
561.615	30.16
561.811	30.14
562.007	30.09
562.203	29.93
562.399	29.99
562.595	29.89
562.791	29.95
562.987	29.89
563.183	29.8
563.379	29.81
563.575	29.7
563.771	29.62
563.966	29.69
564.162	29.75
564.358	29.89
564.554	29.94
564.75	29.93
564.945	29.97
565.141	30.01
565.337	30.13
565.533	30.14
565.728	30.19
565.924	30.23
566.12	30.07
566.315	30.1
566.511	30.1
566.707	30.06
566.902	30.05
567.098	30.06
567.293	30.13
567.489	30.12
567.684	30.08
567.88	30.16
568.076	30.22
568.271	30.43
568.467	30.37
568.662	30.45
568.858	30.55
569.053	30.62
569.248	30.62
569.444	30.51
569.639	30.42
569.835	30.42
570.03	30.35
570.225	30.32
570.421	30.26
570.616	30.31
570.812	30.21
571.007	30.2
571.202	30.19
571.397	30.16
571.593	30.2
571.788	30.31
571.983	30.41
572.178	30.36
572.374	30.44
572.569	30.4
572.764	30.32
572.959	30.26
573.154	30.23
573.35	30.22
573.545	30.2
573.74	30.22
573.935	30.13
574.13	30.04
574.325	30.09
574.52	30.08
574.715	30.17
574.91	30.27
575.105	30.38
575.3	30.37
575.495	30.44
575.69	30.5
575.885	30.52
576.08	30.6
576.275	30.71
576.47	30.76
576.665	30.84
576.86	30.9
577.055	30.84
577.25	30.85
577.444	30.95
577.639	31
577.834	31.12
578.029	31.19
578.224	31.12
578.418	31.18
578.613	31.26
578.808	31.19
579.003	31.14
579.197	31.23
579.392	31.21
579.587	31.27
579.781	31.17
579.976	31.08
580.171	31.03
580.365	31.09
580.56	30.96
580.755	30.97
580.949	30.9
581.144	30.77
581.338	30.72
581.533	30.88
581.727	30.66
581.922	30.75
582.116	30.78
582.311	30.85
582.505	30.95
582.7	30.92
582.894	30.82
583.089	30.88
583.283	31.17
583.478	31.26
583.672	31.3
583.866	31.48
584.061	31.44
584.255	31.46
584.449	31.43
584.644	31.43
584.838	31.53
585.032	31.64
585.226	31.67
585.421	31.61
585.615	31.57
585.809	31.64
586.003	31.53
586.198	31.6
586.392	31.6
586.586	31.61
586.78	31.65
586.974	31.69
587.168	31.86
587.363	31.85
587.557	31.79
587.751	31.81
587.945	31.64
588.139	31.71
588.333	31.77
588.527	31.76
588.721	31.75
588.915	31.72
589.109	31.73
589.303	31.62
589.497	31.65
589.691	31.62
589.885	31.7
590.079	31.76
590.273	31.89
590.466	31.86
590.66	31.84
590.854	31.89
591.048	31.84
591.242	32
591.436	32.13
591.629	32.26
591.823	32.46
592.017	32.67
592.211	32.74
592.404	32.69
592.598	32.73
592.792	32.88
592.986	32.85
593.179	32.94
593.373	32.82
593.567	32.73
593.76	32.48
593.954	32.37
594.147	32.15
594.341	32.09
594.535	32.02
594.728	32.11
594.922	32.05
595.115	32
595.309	31.9
595.502	31.92
595.696	31.87
595.889	31.99
596.083	31.92
596.276	32.04
596.47	31.99
596.663	32.17
596.856	32.1
597.05	32.17
597.243	32.18
597.437	32.37
597.63	32.41
597.823	32.52
598.017	32.52
598.21	32.75
598.403	32.74
598.596	32.88
598.79	32.88
598.983	32.86
599.176	32.91
599.369	32.99
599.563	32.86
599.756	32.88
599.949	32.99
600.142	32.94
600.335	32.81
600.528	32.74
600.722	32.77
600.915	32.71
601.108	32.82
601.301	32.89
601.494	33.01
601.687	33.12
601.88	33.24
602.073	33.15
602.266	33.19
602.459	33.18
602.652	33.27
602.845	33.27
603.038	33.05
603.231	33.02
603.424	32.96
603.617	32.82
603.809	32.78
604.002	32.68
604.195	32.68
604.388	32.69
604.581	32.73
604.774	32.63
604.966	32.63
605.159	32.77
605.352	32.72
605.545	32.65
605.737	32.85
605.93	32.95
606.123	33.11
606.316	33.08
606.508	33.18
606.701	33.22
606.894	33.4
607.086	33.44
607.279	33.67
607.471	33.77
607.664	33.91
607.857	33.94
608.049	34.03
608.242	34.27
608.434	34.64
608.627	34.93
608.819	35.37
609.012	35.79
609.204	36.39
609.397	36.94
609.589	37.66
609.782	38.41
609.974	39.19
610.166	39.98
610.359	40.45
610.551	41.03
610.743	41.69
610.936	42.23
611.128	42.62
611.32	42.8
611.513	42.78
611.705	42.94
611.897	42.71
612.09	42.37
612.282	42.06
612.474	41.98
612.666	41.6
612.858	41.29
613.051	40.76
613.243	40.52
613.435	40.2
613.627	39.91
613.819	39.42
614.011	39.28
614.203	39.25
614.395	39.07
614.588	38.63
614.78	38.62
614.972	38.2
615.164	37.94
615.356	37.48
615.548	37.25
615.74	37.07
615.932	37
616.124	36.83
616.315	36.48
616.507	36.28
616.699	36.02
616.891	35.57
617.083	35.71
617.275	35.58
617.467	35.57
617.659	35.53
617.85	35.62
618.042	35.45
618.234	35.34
618.426	35.45
618.618	35.11
618.809	35.25
619.001	35.4
619.193	35.09
619.384	35.16
619.576	35.12
619.768	34.97
619.959	34.87
620.151	34.84
620.343	34.85
620.534	34.6
620.726	34.78
620.917	34.84
621.109	34.8
621.301	34.99
621.492	35.19
621.684	35.39
621.875	35.55
622.067	35.69
622.258	35.87
622.45	35.92
622.641	36.23
622.832	36.13
623.024	36.21
623.215	36.12
623.407	35.89
623.598	35.8
623.789	35.58
623.981	35.62
624.172	35.64
624.363	35.56
624.555	35.62
624.746	35.48
624.937	35.72
625.129	35.61
625.32	35.63
625.511	35.82
625.702	35.76
625.893	35.8
626.085	35.72
626.276	35.69
626.467	35.62
626.658	35.52
626.849	35.52
627.04	35.41
627.231	35.37
627.422	35.31
627.614	35.33
627.805	35.42
627.996	35.41
628.187	35.68
628.378	35.76
628.569	35.86
628.76	35.95
628.951	36.03
629.142	36.26
629.332	36.53
629.523	36.77
629.714	36.98
629.905	37.01
630.096	37.11
630.287	36.92
630.478	36.95
630.669	37.03
630.859	37.09
631.05	36.98
631.241	36.84
631.432	36.73
631.623	36.69
631.813	36.28
632.004	36.04
632.195	36.03
632.385	35.95
632.576	35.69
632.767	35.44
632.957	35.42
633.148	35.32
633.339	35.1
633.529	34.94
633.72	34.91
633.91	35.04
634.101	35.08
634.292	35.08
634.482	35.07
634.673	35.08
634.863	35.35
635.054	35.27
635.244	35.42
635.435	35.48
635.625	35.6
635.815	35.59
636.006	35.76
636.196	35.77
636.387	35.8
636.577	35.64
636.767	35.85
636.958	35.67
637.148	35.7
637.338	35.63
637.529	35.63
637.719	35.51
637.909	35.63
638.099	35.47
638.29	35.61
638.48	35.5
638.67	35.6
638.86	35.47
639.05	35.48
639.241	35.31
639.431	35.4
639.621	35.58
639.811	35.64
640.001	35.6
640.191	35.42
640.381	35.45
640.571	35.65
640.761	35.88
640.951	36.09
641.141	36.13
641.331	36.32
641.521	36.15
641.711	36.18
641.901	36.22
642.091	36.18
642.281	36.27
642.471	36.24
642.661	36.21
642.851	36.13
643.041	35.95
643.231	36.24
643.42	36.36
643.61	36.4
643.8	36.41
643.99	36.39
644.18	36.39
644.369	36.45
644.559	36.41
644.749	36.4
644.939	36.44
645.128	36.53
645.318	36.26
645.508	36.16
645.697	36.33
645.887	36.14
646.076	36.19
646.266	36.11
646.456	36.37
646.645	36.31
646.835	36.42
647.024	36.45
647.214	36.31
647.403	36.34
647.593	36.35
647.782	36.4
647.972	36.53
648.161	36.58
648.351	36.7
648.54	36.49
648.73	36.65
648.919	36.46
649.108	36.35
649.298	36.61
649.487	36.87
649.677	37.04
649.866	37.14
650.055	37.22
650.244	37.39
650.434	37.43
650.623	37.32
650.812	37.24
651.002	37.38
651.191	37.54
651.38	37.46
651.569	37.44
651.758	37.52
651.947	37.49
652.137	37.56
652.326	37.54
652.515	37.47
652.704	37.65
652.893	37.99
653.082	37.98
653.271	38
653.46	38.08
653.649	38.03
653.838	38
654.027	37.83
654.216	37.71
654.405	37.47
654.594	37.64
654.783	37.63
654.972	37.34
655.161	37.36
655.35	37.42
655.539	37.16
655.728	36.89
655.916	36.77
656.105	36.94
656.294	37
656.483	37.11
656.672	36.92
656.86	37.17
657.049	37.14
657.238	37.1
657.427	36.88
657.615	36.98
657.804	37.05
657.993	36.97
658.181	36.83
658.37	36.73
658.559	36.83
658.747	37.16
658.936	36.98
659.125	36.85
659.313	36.87
659.502	37
659.69	36.96
659.879	37.16
660.067	37.44
660.256	37.33
660.444	37.54
660.633	37.6
660.821	37.37
661.01	37.66
661.198	38.2
661.387	38.29
661.575	38.37
661.763	38.49
661.952	38.28
662.14	37.95
662.328	38.28
662.517	38.33
662.705	38.48
662.893	38.61
663.082	38.29
663.27	37.85
663.458	37.78
663.646	37.88
663.834	38.13
664.023	38.2
664.211	38.37
664.399	38.27
664.587	38.52
664.775	38.34
664.963	37.93
665.152	38
665.34	38.02
665.528	38.05
665.716	37.83
665.904	37.7
666.092	37.62
666.28	38.02
666.468	38.25
666.656	37.86
666.844	37.69
667.032	38.04
667.22	38.15
667.408	38.31
667.596	38.36
667.784	38.69
667.971	38.58
668.159	38.9
668.347	38.89
668.535	38.93
668.723	38.9
668.911	38.97
669.098	38.96
669.286	38.82
669.474	38.92
669.662	39.1
669.849	38.9
670.037	38.93
670.225	38.69
670.413	38.2
670.6	38.09
670.788	38.15
670.976	38.22
671.163	38.18
671.351	38.37
671.538	38.05
671.726	37.73
671.913	37.97
672.101	38.03
672.289	38.24
672.476	38.29
672.664	38.27
672.851	38.52
673.039	38.47
673.226	38.51
673.413	38.7
673.601	38.86
673.788	38.82
673.976	38.81
674.163	38.86
674.35	38.71
674.538	39.21
674.725	39.28
674.912	39.14
675.1	39.39
675.287	39.66
675.474	39.36
675.662	39.81
675.849	39.87
676.036	39.35
676.223	39.2
676.411	39.3
676.598	39.12
676.785	39.28
676.972	39.5
677.159	39.47
677.346	39.12
677.533	39.53
677.721	39.08
677.908	39.39
678.095	39.77
678.282	39.99
678.469	40.1
678.656	39.99
678.843	39.83
679.03	39.87
679.217	39.83
679.404	40.22
679.591	39.99
679.778	40.08
679.964	40.15
680.151	40.27
680.338	40.28
680.525	40.18
680.712	40.18
680.899	40.32
681.086	39.96
681.272	39.92
681.459	39.82
681.646	39.61
681.833	39.71
682.02	39.58
682.206	39.49
682.393	39.45
682.58	39.55
682.766	39.56
682.953	39.33
683.14	39.61
683.326	39.51
683.513	39.45
683.7	39.52
683.886	39.41
684.073	39.63
684.259	39.63
684.446	39.82
684.632	39.9
684.819	39.82
685.005	39.79
685.192	39.45
685.378	39.51
685.565	39.5
685.751	39.84
685.938	40.03
686.124	39.78
686.31	39.75
686.497	39.62
686.683	39.53
686.87	39.91
687.056	40.04
687.242	40.11
687.429	40.17
687.615	40.06
687.801	40.08
687.987	40.13
688.174	39.82
688.36	40.03
688.546	40.2
688.732	39.95
688.918	39.69
689.105	39.82
689.291	40.12
689.477	40.13
689.663	40.27
689.849	40.19
690.035	39.97
690.221	40.41
690.407	40.36
690.593	40.38
690.779	40.41
690.965	40.67
691.151	40.7
691.337	40.53
691.523	40.81
691.709	40.81
691.895	40.87
692.081	40.76
692.267	40.66
692.453	40.81
692.639	40.44
692.825	40.83
693.011	41.04
693.196	41.11
693.382	41.17
693.568	40.76
693.754	40.8
693.94	40.67
694.125	41.22
694.311	41.09
694.497	40.71
694.682	40.74
694.868	40.49
695.054	40.09
695.239	40.24
695.425	40.36
695.611	40.7
695.796	40.64
695.982	40.72
696.168	40.4
696.353	40.55
696.539	40.45
696.724	40.5
696.91	40.59
697.095	40.6
697.281	40.53
697.466	40.31
697.652	40.07
697.837	39.85
698.023	39.77
698.208	39.87
698.393	39.63
698.579	39.82
698.764	39.81
698.949	39.76
699.135	39.56
699.32	39.51
699.505	39.75
699.691	40.07
699.876	40.09
700.061	40.08
700.246	39.84
700.432	39.97
700.617	39.99
700.802	40
700.987	40.34
701.172	40.59
701.358	40.38
701.543	40.39
701.728	40.15
701.913	40.68
702.098	40.97
702.283	41.36
702.468	41.53
702.653	41.58
702.838	41.66
703.023	41.8
703.208	41.95
703.393	42.3
703.578	42.16
703.763	42.34
703.948	42.35
704.133	42.4
704.318	42.57
704.503	42.75
704.688	42.89
704.873	43.02
705.057	42.89
705.242	43.25
705.427	43.16
705.612	43.49
705.797	43.6
705.981	43.9
706.166	44.1
706.351	44.62
706.536	44.71
706.72	44.74
706.905	44.89
707.09	45.29
707.274	45.11
707.459	45.55
707.644	45.69
707.828	45.36
708.013	45.22
708.197	45.1
708.382	44.55
708.567	44.92
708.751	44.91
708.936	45.02
709.12	44.78
709.305	44.91
709.489	44.59
709.673	44.42
709.858	44.81
710.042	44.7
710.227	44.53
710.411	44.84
710.596	44.48
710.78	44.55
710.964	44.3
711.149	43.8
711.333	43.89
711.517	44.09
711.702	44.14
711.886	44.24
712.07	43.96
712.254	43.83
712.438	43.42
712.623	43.36
712.807	43.34
712.991	43.36
713.175	43.74
713.359	43.27
713.544	42.99
713.728	42.55
713.912	41.95
714.096	42.21
714.28	41.97
714.464	42.15
714.648	42.08
714.832	41.47
715.016	41.42
715.2	41.04
715.384	40.9
715.568	41.01
715.752	40.86
715.936	41.17
716.12	40.73
716.304	40.89
716.488	40.53
716.671	40.36
716.855	40.95
717.039	40.78
717.223	40.77
717.407	40.7
717.59	40.64
717.774	40.73
717.958	40.17
718.142	40.11
718.325	40.32
718.509	40.71
718.693	40.75
718.877	40.51
719.06	40.63
719.244	40.65
719.428	40.69
719.611	40.7
719.795	41.04
719.978	41.5
720.162	42.21
720.345	42.05
720.529	41.52
720.713	41.4
720.896	41.46
721.08	41.31
721.263	41.88
721.446	41.84
721.63	41.55
721.813	41.54
721.997	41.26
722.18	40.45
722.364	40.32
722.547	40.55
722.73	40.69
722.914	40.53
723.097	41.35
723.28	40.29
723.464	40.28
723.647	40.23
723.83	40.25
724.013	40.11
724.197	40.43
724.38	40.41
724.563	40.77
724.746	41.01
724.929	41.1
725.112	40.63
725.296	41.03
725.479	41.08
725.662	41.46
725.845	41.67
726.028	42.19
726.211	42.29
726.394	42.6
726.577	42.4
726.76	42.43
726.943	42.77
727.126	42.21
727.309	42.74
727.492	42.97
727.675	42.61
727.858	42.29
728.041	42.39
728.224	42.76
728.407	42.59
728.589	42.41
728.772	42.08
728.955	41.69
729.138	41.77
729.321	41.2
729.503	41.1
729.686	41.04
729.869	41.29
730.052	41.47
730.234	41.05
730.417	40.62
730.6	40.45
730.782	40.9
730.965	41.18
731.148	41.38
731.33	41.65
731.513	41.57
731.695	41.59
731.878	41.29
732.061	41.33
732.243	41.58
732.426	42.24
732.608	42.62
732.791	42.56
732.973	42.54
733.156	42.45
733.338	42.26
733.52	42.6
733.703	42.56
733.885	42.81
734.068	42.34
734.25	42.17
734.432	42.15
734.615	41.93
734.797	41.38
734.979	41.46
735.162	41.94
735.344	42.39
735.526	41.93
735.708	42.32
735.891	42.11
736.073	42.25
736.255	42.4
736.437	42.08
736.619	42.41
736.802	43.13
736.984	43.03
737.166	42.81
737.348	42.86
737.53	43.14
737.712	43.06
737.894	43.12
738.076	43.15
738.258	42.74
738.44	42.88
738.622	42.42
738.804	42.11
738.986	42.11
739.168	41.85
739.35	41.16
739.532	41
739.714	40.59
739.896	40.42
740.078	40.46
740.259	40.26
740.441	40.01
740.623	40.1
740.805	40.03
740.987	39.43
741.168	39.81
741.35	40.09
741.532	40.84
741.714	41.24
741.895	41.62
742.077	41.46
742.259	42.3
742.44	43
742.622	43.21
742.804	43.96
742.985	44.7
743.167	44.77
743.348	44.7
743.53	43.78
743.711	43.9
743.893	43.57
744.075	44.02
744.256	44.23
744.438	43.53
744.619	43.69
744.8	43.41
744.982	43.31
745.163	43.37
745.345	43.36
745.526	43.85
745.707	43.95
745.889	44.07
746.07	43.53
746.252	42.75
746.433	43.16
746.614	43.25
746.795	42.17
746.977	41.46
747.158	40.91
747.339	41.14
747.52	40.87
747.702	40.47
747.883	40.26
748.064	40.81
748.245	40.89
748.426	40.95
748.607	40.45
748.788	41.65
748.97	42.19
749.151	42.37
749.332	42.8
749.513	43.28
749.694	43.56
749.875	43.88
750.056	43.49
750.237	43.41
750.418	42.9
750.599	42.96
750.78	42.2
750.96	42.45
751.141	42.7
751.322	42.01
751.503	41.8
751.684	41.87
751.865	41.92
752.046	42.11
752.226	42.25
752.407	42.89
752.588	43.24
752.769	44.07
752.949	43.03
753.13	43.17
753.311	43.69
753.492	43.35
753.672	43.09
753.853	42.83
754.034	42.37
754.214	42.02
754.395	41.65
754.575	41.52
754.756	40.96
754.937	41.83
755.117	41.77
755.298	41.51
755.478	41.59
755.659	41.89
755.839	42.44
756.02	42.65
756.2	42.96
756.381	43.28
756.561	42.82
756.741	42.21
756.922	41.73
757.102	41.2
757.283	41.21
757.463	40.42
757.643	40.22
757.823	40.09
758.004	39.89
758.184	39.36
758.364	39.22
758.545	39.46
758.725	39.84
758.905	39.94
759.085	39.98
759.265	39.57
759.446	39.94
759.626	39.79
759.806	39.84
759.986	39.49
760.166	40.07
760.346	39.93
760.526	39.75
760.706	39.4
760.886	39.57
761.066	39.76
761.246	40.05
761.426	39.97
761.606	40.17
761.786	40.2
761.966	40.6
762.146	40.8
762.326	41
762.506	41.1
762.686	41.38
762.866	40.97
763.046	41.03
763.225	41.25
763.405	41.21
763.585	41.29
763.765	41.15
763.945	41.11
764.124	41.06
764.304	40.96
764.484	40.83
764.664	40.85
764.843	41.02
765.023	41.19
765.203	41.19
765.382	41.15
765.562	40.8
765.741	41.19
765.921	41.46
766.101	41.16
766.28	41.01
766.46	40.67
766.639	40.34
766.819	40.39
766.998	39.49
767.178	39.24
767.357	39.84
767.537	39.51
767.716	39.12
767.896	38.84
768.075	39.33
768.254	39.26
768.434	40.12
768.613	40.13
768.792	39.84
768.972	40.61
769.151	40.39
769.33	40.03
769.51	41.02
769.689	40.51
769.868	40.25
770.047	39.5
770.226	40.04
770.406	40.54
770.585	41.27
770.764	41.76
770.943	42.03
771.122	42.42
771.301	42.63
771.48	41.94
771.66	41.98
771.839	42.15
772.018	42.25
772.197	42.02
772.376	40.82
772.555	40.64
772.734	41.15
772.913	40.59
773.092	40.1
773.271	39.3
773.449	39.45
773.628	40.24
773.807	40.28
773.986	40.96
774.165	40.51
774.344	40.9
774.523	41.35
774.701	41.01
774.88	40.51
775.059	41.35
775.238	41.61
775.417	42.18
775.595	41.73
775.774	42.31
775.953	41.21
776.131	41.28
776.31	40.86
776.489	40.09
776.667	39.63
776.846	40.86
777.025	40.8
777.203	40.86
777.382	40.83
777.56	41.05
777.739	40.52
777.917	41.21
778.096	41.37
778.274	41.07
778.453	41.53
778.631	41.03
778.81	40.11
778.988	39.78
779.166	40.38
779.345	39.78
779.523	39.61
779.702	39.67
779.88	39.58
780.058	40.15
780.237	40.67
780.415	40.2
780.593	40.42
780.771	40.33
780.95	40.42
781.128	40.08
781.306	40.76
781.484	41.14
781.662	41.06
781.841	41.13
782.019	40.48
782.197	40.52
782.375	41.39
782.553	40.94
782.731	41.37
782.909	41.23
783.087	42.42
783.265	41.89
783.443	41.61
783.621	42.04
783.799	42.56
783.977	42.38
784.155	42.04
784.333	41.15
784.511	41.9
784.689	41.93
784.867	42.26
785.045	40.71
785.223	40.85
785.4	40.83
785.578	41.46
785.756	41.19
785.934	41.91
786.112	42.65
786.289	41.79
786.467	41.86
786.645	41.78
786.823	41.1
787	40.76
787.178	39.64
787.356	39.08
787.533	37.51
787.711	36.47
787.889	35.75
788.066	35.2
788.244	35.83
788.421	35.41
788.599	34.57
788.776	34.42
788.954	35.1
789.131	35.97
789.309	36.34
789.486	36.09
789.664	37.27
789.841	37.47
790.019	37.77
790.196	38.73
790.373	40.5
790.551	41.88
790.728	42.36
790.906	42.33
791.083	41.82
791.26	40.46
791.437	41.35
791.615	41.14
791.792	40.45
791.969	39.76
792.146	38.27
792.324	37.17
792.501	36.45
792.678	36.24
792.855	36.66
793.032	36.19
793.209	36.79
793.387	36.78
793.564	36.42
793.741	36.88
793.918	37.1
794.095	38.19
794.272	38.56
794.449	38.59
794.626	38.69
794.803	37.9
794.98	38.52
795.157	38.98
795.334	38.69
795.511	37.96
795.688	38.16
795.864	37.86
796.041	37.24
796.218	36.34
796.395	36.81
796.572	35.55
796.749	35.63
796.925	35.62
797.102	36.56
797.279	36.96
797.456	37.95
797.632	37.69
797.809	38.91
797.986	38.95
798.162	39.33
798.339	38.51
798.516	39.18
798.692	39.38
798.869	38.87
799.046	37.55
799.222	37.22
799.399	36.09
799.575	36.18
799.752	35.84
799.928	36.45
800.105	36.62
800.281	36.82
800.458	36.77
800.634	36.21
800.811	37.25
800.987	37.42
801.163	37.65
801.34	37.73
801.516	37.99
801.692	37.52
801.869	36.99
802.045	35.94
802.221	35.91
802.398	36.87
802.574	37.62
802.75	37.01
802.926	38.13
803.103	36.46
803.279	36.46
803.455	36.31
803.631	37.06
803.807	36.06
803.983	36.67
804.16	36.48
804.336	35.31
804.512	34.19
804.688	34.19
804.864	32.92
805.04	34.99
805.216	36.64
805.392	37.11
805.568	35.29
805.744	35.62
805.92	36.01
806.096	36.34
806.272	37.1
806.448	37.95
806.623	38.53
806.799	38.08
806.975	37.74
807.151	36.69
807.327	36.29
807.503	36.07
807.678	36.57
807.854	36.32
808.03	36.49
808.206	36.21
808.381	35.06
808.557	34.56
808.733	35.07
808.908	34.68
809.084	34.17
809.26	32.51
809.435	33.81
809.611	34.83
809.787	34
809.962	33.83
810.138	33.37
810.313	34.45
810.489	35.26
810.664	36.12
810.84	36.19
811.015	37.56
811.191	39.72
811.366	39.96
811.542	39.14
811.717	40.06
811.892	39.97
812.068	41.18
812.243	39.93
812.419	40.2
812.594	39.42
812.769	38.64
812.944	37.26
813.12	35.15
813.295	35.01
813.47	35.06
813.645	35.06
813.821	35.41
813.996	34.37
814.171	35.95
814.346	34.37
814.521	33.86
814.697	33.71
814.872	34.07
815.047	34.89
815.222	35.09
815.397	34.23
815.572	34.67
815.747	34.41
815.922	34.64
816.097	33.97
816.272	33.94
816.447	34.45
816.622	34.75
816.797	33.35
816.972	33.15
817.147	33.89
817.322	34.12
817.496	34.31
817.671	34.99
817.846	34.51
818.021	34.19
818.196	35.62
818.371	35.1
818.545	34.91
818.72	36.39
818.895	36.65
819.069	34.96
819.244	35.61
819.419	35.09
819.594	33.81
819.768	33.46
819.943	34.54
820.117	33.53
820.292	33.66
820.467	34.06
820.641	33.42
820.816	33.94
820.99	34.53
821.165	34.31
821.339	34.33
821.514	34.43
821.688	34.43
821.863	33.9
822.037	33.93
822.212	33.67
822.386	33.54
822.56	33.64
822.735	33.56
822.909	33.2
823.084	33.08
823.258	32.99
823.432	32.97
823.606	32.84
823.781	33.12
823.955	33.17
824.129	33.05
824.303	33.24
824.478	33.11
824.652	32.69
824.826	32.92
825	32.81
825.174	32.6
825.348	32.4
825.523	32.41
825.697	32.16
825.871	32.35
826.045	32.73
826.219	32.51
826.393	32.3
826.567	33.07
826.741	33.48
826.915	33.56
827.089	33.8
827.263	34.08
827.437	34.8
827.611	34.53
827.784	34.15
827.958	34.13
828.132	33.93
828.306	34.37
828.48	34.21
828.654	33.88
828.827	33.77
829.001	33.58
829.175	33.39
829.349	32.03
829.522	32.06
829.696	31.79
829.87	31.56
830.044	31.9
830.217	32.08
830.391	30.18
830.565	29.24
830.738	28.75
830.912	28.39
831.085	27.27
831.259	28.27
831.432	28.1
831.606	27.84
831.779	28.68
831.953	28.71
832.126	27.91
832.3	28.34
832.473	28.4
832.647	30.45
832.82	29.84
832.994	30.32
833.167	30.41
833.34	31.16
833.514	31.75
833.687	31.21
833.86	31.02
834.034	31.41
834.207	31.95
834.38	31.96
834.553	31.29
834.727	31.56
834.9	31.88
835.073	32.01
835.246	31.05
835.419	30.54
835.593	31.46
835.766	31.02
835.939	31.15
836.112	30.99
836.285	31.23
836.458	31.29
836.631	32.04
836.804	31.26
836.977	30.26
837.15	30.57
837.323	31.26
837.496	30.91
837.669	31.65
837.842	31.03
838.015	31.82
838.188	31.94
838.361	30.2
838.533	29.71
838.706	30.67
838.879	30.46
839.052	31.51
839.225	31.92
839.398	30.13
839.57	29.36
839.743	28.59
839.916	27.73
840.088	28.96
840.261	29.95
840.434	30.46
840.607	29.56
840.779	29.83
840.952	30.37
841.124	28.9
841.297	29.98
841.47	30.95
841.642	32.93
841.815	34.54
841.987	32.56
842.16	32.08
842.332	31.62
842.505	32.84
842.677	33.38
842.85	31.18
843.022	32.96
843.194	32.6
843.367	31.83
843.539	29.45
843.712	30.45
843.884	30.82
844.056	34.11
844.229	34.48
844.401	35.69
844.573	34.91
844.745	34.88
844.918	34.08
845.09	35.71
845.262	36.12
845.434	38.21
845.606	35.72
845.779	37.8
845.951	34.06
846.123	32.85
846.295	30.9
846.467	31.6
846.639	33.77
846.811	34.48
846.983	34.07
847.155	36.7
847.327	36.93
847.499	36.87
847.671	38.51
847.843	39.71
848.015	41.36
848.187	43.73
848.359	46.23
848.531	44.42
848.703	41.82
848.875	39.68
849.047	39.09
849.218	37.15
849.39	38.19
849.562	36.9
849.734	36.7
849.905	35.02
850.077	32.79
850.249	31.01
850.421	31.32
850.592	31.06
850.764	29.84
850.936	26.98
851.107	25.03
851.279	22.95
851.451	22.45
851.622	26
851.794	24.68
851.965	25.75
852.137	28.18
852.308	28.49
852.48	29.65
852.651	31.82
852.823	34.33
852.994	38.01
853.166	40.75
853.337	36.51
853.509	35.25
853.68	38.76
853.851	37
854.023	30.75
854.194	31.34
854.365	33.66
854.537	32.64
854.708	30.06
854.879	29.85
855.05	31.41
855.222	33.54
855.393	32.93
855.564	28.45
855.735	28.47
855.906	31.48
856.078	29.69
856.249	27.44
856.42	25.66
856.591	26.95
856.762	26.83
856.933	22.07
857.104	20.68
857.275	22.89
857.446	30.72
857.617	33.27
857.788	36.63
857.959	37.5
858.13	34.74
858.301	35.46
858.472	32.62
858.643	29.83
858.814	29.85
858.985	30.39
859.155	24.47
859.326	21.96
859.497	23.75
859.668	18.51
859.839	18.22
860.009	21.1
860.18	24.39
860.351	27.73
860.522	28.23
860.692	27.89
860.863	28.01
861.034	26.81
861.204	26.11
861.375	22.04
861.546	24.07
861.716	29.32
861.887	28.12
862.057	26.79
862.228	26.56
862.398	24.66
862.569	24
862.739	26.98
862.91	30.98
863.08	29.91
863.251	33.98
863.421	30.89
863.592	25.86
863.762	29.85
863.932	28.63
864.103	26.5
864.273	25.59
864.443	24.96
864.614	23.6
864.784	17.75
864.954	17.45
865.125	10.65
865.295	14.62
865.465	14.52
865.635	10.05
865.805	7.54
865.976	8.45
866.146	10.64
866.316	16.23
866.486	15.82
866.656	20.24
866.826	21.24
866.996	22.66
867.166	21.99
867.336	23.2
867.506	24.3
867.676	23.23
867.846	26.75
868.016	29.48
868.186	30.59
868.356	28.9
868.526	29.2
868.696	28.8
868.866	35.11
869.036	35.91
869.206	36.22
869.376	33.94
869.545	38.6
869.715	33.19
869.885	28.97
870.055	24.14
870.224	24.12
870.394	24.2
870.564	21.71
870.734	17.7
870.903	15.87
871.073	15.68
871.243	16.05
871.412	14.18
871.582	16.62
871.751	21.89
871.921	24.31
872.091	27.25
872.26	29.62
872.43	32.1
872.599	33.32
872.769	33.42
872.938	35.59
873.108	35.17
873.277	32.83
873.446	33.66
873.616	29.33
873.785	29.99
873.955	27.15
874.124	25.83
874.293	25.37
874.463	25.23
874.632	25.64
874.801	23.95
874.971	22.76
875.14	24.12
875.309	23.9
875.478	23.39
875.647	22.68
875.817	22.03
875.986	25.97
876.155	26.39
876.324	27.55
876.493	27.28
876.662	28.68
876.831	33.32
877	34.17
877.17	35.22
877.339	36.27
877.508	36.6
877.677	38.52
877.846	33.88
878.015	31.74
878.184	27.18
878.352	28.29
878.521	29.2
878.69	27.79
878.859	27.25
879.028	25.77
879.197	27.46
879.366	26.3
879.534	26.05
879.703	27.05
879.872	26.62
880.041	26.66
880.21	27.16
880.378	25.09
880.547	24.7
880.716	25.65
880.884	26.66
881.053	26.89
881.222	27.54
881.39	27.15
881.559	27.61
881.727	27.45
881.896	27.02
882.065	26.71
882.233	27.11
882.402	27.45
882.57	27.2
882.739	26.59
882.907	25.77
883.076	25.78
883.244	25.57
883.412	24.9
883.581	25.59
883.749	26.32
883.918	26.33
884.086	25.36
884.254	25.24
884.423	25.67
884.591	25.31
884.759	25.54
884.927	25.07
885.096	23.95
885.264	23.69
885.432	23.15
885.6	23.13
885.769	21.61
885.937	24.25
886.105	22.64
886.273	21.3
886.441	21.47
886.609	21.68
886.777	19.42
886.945	22.23
887.113	22.71
887.281	22.78
887.449	22.06
887.617	22.2
887.785	18.68
887.953	20.63
888.121	22.26
888.289	20.96
888.457	19.43
888.625	22.66
888.793	23.02
888.961	23.64
889.129	21.85
889.296	21.25
889.464	22.74
889.632	23.81
889.8	22.84
889.967	19.43
890.135	23.51
