Data from 2938725__Reflection_02.txt Node
Date: Sun Mar 15 20:13:46 EDT 2015
User: robert
Spectrometer: USB4E03002
Autoset integration time: false
Trigger mode: 4
Integration Time (sec): 1.000000E-1
Scans to average: 10
Electric dark correction enabled: false
Nonlinearity correction enabled: false
Boxcar width: 5
Stray light correction enabled: false
XAxis mode: Wavelengths
Stop averaging: false
Number of Pixels in Spectrum: 3648
>>>>>Begin Spectral Data<<<<<
177.575	45.96
177.794	-125.97
178.014	9.65
178.233	-11.48
178.452	-140.91
178.672	-133.04
178.891	39.07
179.11	0.92
179.33	-70.45
179.549	-229.81
179.768	1038.71
179.987	401.69
180.207	1960
180.426	69.87
180.645	26.53
180.864	1177.78
181.084	-159.3
181.303	48.31
181.522	-9.68
181.741	-100.4
181.96	-75.41
182.179	-95.95
182.398	-35.37
182.618	-48.58
182.837	-55.33
183.056	-22.2
183.275	-6.71
183.494	-1.17
183.713	-14.24
183.932	-5.5
184.151	7.95
184.37	-6.21
184.589	-6.24
184.808	-9.98
185.027	-5.45
185.246	12
185.465	10.57
185.684	10.72
185.903	24.86
186.122	33.58
186.341	18.51
186.56	30.73
186.779	28.04
186.998	32.59
187.216	67.61
187.435	44.41
187.654	43.53
187.873	-3.28
188.092	-6.94
188.311	-148.39
188.53	-108.2
188.748	1.99
188.967	-15.67
189.186	41.74
189.405	10.94
189.623	10.25
189.842	39.14
190.061	48.26
190.28	70.48
190.498	51.15
190.717	56.94
190.936	62.39
191.154	25.92
191.373	30.78
191.592	-4.2
191.81	-27.44
192.029	-108.52
192.248	-74.13
192.466	-212.57
192.685	-667.06
192.904	0
193.122	-1207.69
193.341	-279.03
193.559	-183.8
193.778	-537.68
193.996	-77.5
194.215	-3.47
194.433	-6.21
194.652	611.76
194.87	-248.89
195.089	22.44
195.307	64.97
195.526	32.85
195.744	15.48
195.963	9.25
196.181	17.04
196.399	31.12
196.618	-6.45
196.836	1.08
197.055	13.27
197.273	18.36
197.491	-23.26
197.71	-55.43
197.928	-27.04
198.146	-28.51
198.365	-4.31
198.583	-41.19
198.801	-65.89
199.019	-39.22
199.238	-12.66
199.456	-38.79
199.674	-41.78
199.892	-5.33
200.111	32.82
200.329	-14.29
200.547	13.95
200.765	22.78
200.983	98.56
201.202	65.69
201.42	69.22
201.638	43.49
201.856	52.09
202.074	75.89
202.292	76.17
202.51	62.47
202.728	78.48
202.946	57.4
203.165	59
203.383	49.27
203.601	45.22
203.819	38.61
204.037	46.39
204.255	36.39
204.473	11.02
204.691	-29.89
204.909	-52.34
205.127	-45.55
205.345	-63.91
205.562	-90.87
205.78	-59.51
205.998	-38.22
206.216	-48.04
206.434	-69.38
206.652	-60.45
206.87	-37.96
207.088	-13.94
207.306	-9.78
207.523	-16.54
207.741	-21.19
207.959	-22.91
208.177	-104.17
208.395	-161.5
208.612	-79.61
208.83	-67.42
209.048	-13
209.266	23.56
209.483	65.45
209.701	53.3
209.919	59.55
210.136	51.93
210.354	24.74
210.572	36.08
210.79	32.55
211.007	35.63
211.225	16.67
211.442	15.07
211.66	-1.01
211.878	-8.8
212.095	6.09
212.313	15.76
212.53	2.82
212.748	6.42
212.966	21.97
213.183	29.36
213.401	13.31
213.618	30.75
213.836	38.69
214.053	45.14
214.271	33.83
214.488	31.67
214.705	31.6
214.923	36.37
215.14	62.02
215.358	51.36
215.575	39.56
215.793	41.64
216.01	43.07
216.227	29.87
216.445	3.91
216.662	0.31
216.879	-16.32
217.097	-31.92
217.314	-20.15
217.531	-48.82
217.749	-32.34
217.966	-26.96
218.183	-12.67
218.4	-3.85
218.618	-10.55
218.835	-3.32
219.052	2.74
219.269	3.79
219.487	12.44
219.704	27.28
219.921	30.06
220.138	27.85
220.355	37.88
220.572	30.69
220.79	16.62
221.007	10.53
221.224	24.36
221.441	27.38
221.658	41.32
221.875	29.64
222.092	8.23
222.309	-1.32
222.526	-13.3
222.743	-27.45
222.96	-27.19
223.177	-17.75
223.394	-16.01
223.611	-17.59
223.828	-23.52
224.045	-26.58
224.262	-24.46
224.479	-14.56
224.696	-8.76
224.913	-7.57
225.13	-4.49
225.347	-1.19
225.564	4.81
225.781	9.94
225.997	11.47
226.214	15.02
226.431	13.68
226.648	11.25
226.865	8.73
227.082	9.3
227.298	10.08
227.515	9.63
227.732	8.25
227.949	6.24
228.165	6.57
228.382	6.61
228.599	5.59
228.816	5.55
229.032	6.17
229.249	5.72
229.466	4.16
229.682	3.97
229.899	3.51
230.116	3.99
230.332	3.6
230.549	3.33
230.765	2.89
230.982	3.03
231.199	2.27
231.415	3.77
231.632	3.68
231.848	4.66
232.065	4.17
232.281	5.53
232.498	6.21
232.714	4.74
232.931	4.46
233.147	4.16
233.364	2.81
233.58	4.93
233.797	5.23
234.013	4.6
234.23	6.04
234.446	6.91
234.662	5.74
234.879	5.18
235.095	8.07
235.312	6.15
235.528	5.7
235.744	7.43
235.961	5.23
236.177	1.23
236.393	1.25
236.61	0.88
236.826	2.29
237.042	2.22
237.258	-0.07
237.475	-0.18
237.691	1.89
237.907	1.39
238.123	1.26
238.339	1.56
238.556	3.49
238.772	3.61
238.988	4.21
239.204	3.98
239.42	4.5
239.636	5.91
239.853	4.25
240.069	3.41
240.285	4.15
240.501	4.01
240.717	4.58
240.933	3.95
241.149	4.04
241.365	4.35
241.581	3.59
241.797	3.9
242.013	4.01
242.229	3.67
242.445	3.6
242.661	3.42
242.877	3.38
243.093	3.28
243.309	3.85
243.525	4.41
243.741	4.31
243.957	4.01
244.173	3.95
244.388	4.04
244.604	5.27
244.82	5.61
245.036	5.96
245.252	6.56
245.468	6.08
245.683	5.71
245.899	5.83
246.115	5.77
246.331	6.19
246.547	6.32
246.762	6.37
246.978	6.03
247.194	6.12
247.409	6.2
247.625	5.95
247.841	6.09
248.057	6.12
248.272	5.91
248.488	5.68
248.703	5.49
248.919	5.39
249.135	4.91
249.35	5.15
249.566	4.61
249.782	3.94
249.997	3.24
250.213	3.09
250.428	3.76
250.644	3.03
250.859	3.39
251.075	3.67
251.29	3.13
251.506	3.39
251.721	2.87
251.937	3.11
252.152	3.06
252.368	3.42
252.583	3.18
252.798	1.94
253.014	2.22
253.229	2.65
253.445	2.54
253.66	2.61
253.875	2.38
254.091	2.83
254.306	3.2
254.521	4.11
254.737	4.17
254.952	5.17
255.167	6.63
255.383	6.24
255.598	5.04
255.813	4.97
256.028	4.46
256.244	4.22
256.459	3.22
256.674	2.37
256.889	1.38
257.104	1.19
257.32	0.79
257.535	0.72
257.75	1.59
257.965	1.99
258.18	1.73
258.395	2.04
258.61	2.4
258.826	2.57
259.041	3.02
259.256	3.5
259.471	3.76
259.686	3.77
259.901	3.65
260.116	3.76
260.331	3.69
260.546	3.9
260.761	3.96
260.976	3.87
261.191	4
261.406	3.42
261.621	3.3
261.836	2.94
262.05	2.55
262.265	2.24
262.48	1.64
262.695	1.42
262.91	0.73
263.125	1.22
263.34	1.22
263.555	0.87
263.769	1.69
263.984	1.9
264.199	1.58
264.414	1.93
264.629	2.75
264.843	2.91
265.058	2.65
265.273	2.76
265.488	2.02
265.702	1.85
265.917	2.52
266.132	2.66
266.346	2.4
266.561	2.71
266.776	2.39
266.99	2.05
267.205	2.04
267.42	1.93
267.634	2.18
267.849	1.49
268.063	1.34
268.278	1.41
268.492	0.86
268.707	1.15
268.922	0.94
269.136	1.39
269.351	1.83
269.565	2.07
269.78	1.73
269.994	1.71
270.209	2.52
270.423	2.45
270.637	2.02
270.852	2.36
271.066	2.1
271.281	2.51
271.495	2.62
271.709	2
271.924	1.76
272.138	2.35
272.353	2.52
272.567	2.35
272.781	2.63
272.996	2.61
273.21	3.01
273.424	3.11
273.638	3.02
273.853	2.41
274.067	2.57
274.281	2.42
274.495	2.22
274.71	2.29
274.924	1.85
275.138	2.32
275.352	2.35
275.566	2.05
275.781	1.68
275.995	1.48
276.209	1.05
276.423	1.02
276.637	1.31
276.851	0.93
277.065	0.59
277.279	0.95
277.493	0.58
277.707	0.34
277.921	0.01
278.135	0.15
278.349	0.56
278.563	1.14
278.777	1.16
278.991	1.05
279.205	2.16
279.419	1.97
279.633	2.23
279.847	2.4
280.061	2.49
280.275	2.51
280.489	2.97
280.703	2.97
280.917	3.26
281.131	3.6
281.344	3.93
281.558	3.92
281.772	4.09
281.986	4.32
282.2	4.44
282.414	4.7
282.627	5.05
282.841	4.73
283.055	4.22
283.269	4.22
283.482	3.93
283.696	3.49
283.91	2.85
284.123	2.9
284.337	2.4
284.551	2.18
284.764	2
284.978	1.65
285.192	1.46
285.405	1.49
285.619	1.37
285.833	1.51
286.046	1.74
286.26	1.76
286.473	1.8
286.687	2.26
286.9	2.11
287.114	2.31
287.327	2.48
287.541	2.44
287.754	2.76
287.968	3.02
288.181	2.81
288.395	2.85
288.608	2.92
288.822	2.98
289.035	2.77
289.248	2.72
289.462	2.61
289.675	2.53
289.889	2.79
290.102	2.7
290.315	2.42
290.529	2.53
290.742	2.46
290.955	2.73
291.169	2.62
291.382	2.56
291.595	2.44
291.808	2.31
292.022	1.98
292.235	2.24
292.448	2.57
292.661	2.48
292.875	2.73
293.088	3
293.301	3.24
293.514	3.7
293.727	3.69
293.94	3.81
294.153	3.92
294.367	4.23
294.58	3.81
294.793	3.55
295.006	4.01
295.219	3.91
295.432	3.47
295.645	3.16
295.858	2.63
296.071	2.81
296.284	2.67
296.497	2.91
296.71	2.76
296.923	2.87
297.136	2.76
297.349	2.9
297.562	2.81
297.775	2.97
297.988	2.72
298.201	2.85
298.414	2.72
298.626	3.09
298.839	2.77
299.052	2.99
299.265	3.05
299.478	3.45
299.691	3
299.903	2.78
300.116	3.22
300.329	3.8
300.542	4.03
300.755	4.12
300.967	4.19
301.18	4.03
301.393	4.15
301.605	4.42
301.818	4.07
302.031	4.17
302.243	4.46
302.456	4
302.669	3.66
302.881	3.84
303.094	3.43
303.307	3.32
303.519	3.71
303.732	3.61
303.944	3.26
304.157	3.21
304.37	3.36
304.582	3.74
304.795	4
305.007	4.5
305.22	4.61
305.432	4.79
305.645	4.82
305.857	4.54
306.069	4.47
306.282	4.87
306.494	5.31
306.707	5.25
306.919	4.75
307.132	4.2
307.344	4.08
307.556	3.48
307.769	3.9
307.981	3.76
308.193	4.09
308.406	4.38
308.618	4.06
308.83	3.98
309.043	4.1
309.255	4.62
309.467	4.92
309.679	4.48
309.892	4.73
310.104	4.8
310.316	4.67
310.528	4.75
310.74	4.62
310.953	4.69
311.165	4.62
311.377	4.45
311.589	4.28
311.801	4
312.013	4.23
312.225	4.46
312.437	4.04
312.649	4.37
312.862	4.55
313.074	4.28
313.286	4.63
313.498	4.53
313.71	4.57
313.922	4.46
314.134	5.33
314.346	5.58
314.558	5.28
314.77	5.22
314.982	5.28
315.193	4.82
315.405	5.11
315.617	4.35
315.829	4.39
316.041	4.66
316.253	4.47
316.465	4.09
316.677	3.63
316.888	3.83
317.1	4.44
317.312	4.4
317.524	4.82
317.736	5.01
317.947	5.08
318.159	5.3
318.371	5.48
318.583	6.05
318.794	5.65
319.006	5.88
319.218	5.63
319.43	5.53
319.641	5.39
319.853	5.39
320.064	5.73
320.276	5.96
320.488	6.2
320.699	5.47
320.911	5.16
321.123	5.69
321.334	5.29
321.546	5.51
321.757	5.85
321.969	5.8
322.18	5.58
322.392	5.22
322.603	5.31
322.815	5.2
323.026	5.57
323.238	5.54
323.449	5.98
323.661	6.65
323.872	6.71
324.083	6.27
324.295	6.59
324.506	6.63
324.718	6.68
324.929	7.02
325.14	7.18
325.352	7.44
325.563	7.57
325.774	7.27
325.986	7.23
326.197	7.25
326.408	7.21
326.62	7.27
326.831	7.5
327.042	7.7
327.253	7.85
327.464	7.49
327.676	7.42
327.887	7.82
328.098	7.53
328.309	7.64
328.52	7.79
328.732	8.3
328.943	8.25
329.154	8.25
329.365	8.31
329.576	8.01
329.787	8.55
329.998	8.73
330.209	8.57
330.42	9.07
330.631	8.78
330.842	9.18
331.053	9.3
331.264	9.68
331.475	9.95
331.686	10.01
331.897	10.12
332.108	9.68
332.319	9.42
332.53	9.49
332.741	9.25
332.952	9.59
333.163	8.99
333.374	8.46
333.585	8.33
333.795	8.13
334.006	8.05
334.217	7.73
334.428	8.27
334.639	8.56
334.849	8.21
335.06	8.34
335.271	8.42
335.482	8.66
335.692	8.76
335.903	8.41
336.114	8.71
336.325	8.53
336.535	8.76
336.746	8.01
336.957	8.3
337.167	8.82
337.378	8.64
337.589	8.61
337.799	8.64
338.01	8.83
338.22	9.15
338.431	8.72
338.642	8.64
338.852	8.65
339.063	9.09
339.273	8.91
339.484	8.47
339.694	8.76
339.905	8.52
340.115	8.4
340.326	8.41
340.536	8.27
340.746	8.5
340.957	8.62
341.167	8.7
341.378	8.41
341.588	8.39
341.799	8.51
342.009	8.42
342.219	8.51
342.43	8.69
342.64	8.99
342.85	9.09
343.061	8.89
343.271	8.91
343.481	8.71
343.691	8.73
343.902	8.25
344.112	8.05
344.322	8.01
344.532	7.86
344.743	7.65
344.953	7.08
345.163	6.85
345.373	6.88
345.583	6.66
345.793	6.85
346.004	7.12
346.214	7.46
346.424	7.75
346.634	7.8
346.844	8.06
347.054	7.99
347.264	8.35
347.474	8.2
347.684	8.09
347.894	8.25
348.104	8.21
348.314	7.83
348.524	7.69
348.734	7.3
348.944	6.9
349.154	6.96
349.364	7.06
349.574	7.31
349.784	7.76
349.994	7.48
350.204	7.51
350.413	7.41
350.623	7.8
350.833	7.92
351.043	7.86
351.253	8.23
351.463	8.15
351.672	8.28
351.882	7.85
352.092	7.62
352.302	8.18
352.511	8.02
352.721	8.11
352.931	7.98
353.141	8.13
353.35	8.38
353.56	8.25
353.77	8.39
353.979	8.43
354.189	8.39
354.399	8.28
354.608	8.04
354.818	8.4
355.027	8.69
355.237	8.77
355.447	8.7
355.656	8.87
355.866	8.77
356.075	8.6
356.285	8.54
356.494	8.55
356.704	8.58
356.913	8.42
357.123	8.09
357.332	7.92
357.542	7.87
357.751	7.7
357.96	7.55
358.17	7.51
358.379	7.27
358.589	7.17
358.798	7.35
359.007	7.59
359.217	7.62
359.426	7.79
359.635	7.46
359.845	7.17
360.054	7.3
360.263	7.31
360.472	7.64
360.682	7.83
360.891	7.71
361.1	7.42
361.309	7.17
361.519	7.24
361.728	7.38
361.937	7.67
362.146	7.61
362.355	7.53
362.564	7.61
362.774	7.55
362.983	7.48
363.192	7.75
363.401	8.15
363.61	8.33
363.819	8.38
364.028	8.46
364.237	8.21
364.446	8.37
364.655	8.78
364.864	8.6
365.073	8.42
365.282	8.23
365.491	7.63
365.7	7.47
365.909	7.33
366.118	7.39
366.327	6.94
366.536	7.25
366.745	7.32
366.954	6.9
367.162	6.94
367.371	6.98
367.58	7.44
367.789	7.6
367.998	7.39
368.207	7.45
368.415	7.34
368.624	7.51
368.833	7.2
369.042	7.45
369.25	7.36
369.459	7.33
369.668	7.11
369.877	6.99
370.085	7.45
370.294	7.47
370.503	7.52
370.711	7.16
370.92	7.22
371.129	7.27
371.337	6.92
371.546	7.02
371.754	7.16
371.963	7.1
372.171	6.98
372.38	6.8
372.589	6.77
372.797	6.6
373.006	6.88
373.214	6.79
373.423	7.05
373.631	7
373.84	6.61
374.048	6.18
374.256	6.42
374.465	6.36
374.673	6.32
374.882	6.48
375.09	6.82
375.298	6.88
375.507	6.81
375.715	6.84
375.923	7.31
376.132	7.68
376.34	7.74
376.548	7.47
376.757	7.45
376.965	7.64
377.173	7.28
377.381	7.06
377.59	6.91
377.798	6.99
378.006	6.66
378.214	6.37
378.423	6.33
378.631	6.28
378.839	6.33
379.047	6.37
379.255	6.19
379.463	6.27
379.671	6.38
379.879	6.29
380.088	5.99
380.296	6.17
380.504	6.25
380.712	6.29
380.92	6.26
381.128	6.41
381.336	6.22
381.544	6.21
381.752	6.37
381.96	6.1
382.168	6.32
382.376	6.51
382.584	6.37
382.791	6.13
382.999	5.95
383.207	6.2
383.415	5.94
383.623	5.97
383.831	5.95
384.039	5.96
384.247	6.02
384.454	6.02
384.662	5.9
384.87	5.92
385.078	5.99
385.285	5.87
385.493	5.75
385.701	6
385.909	5.85
386.116	5.74
386.324	5.68
386.532	5.65
386.739	5.51
386.947	5.58
387.155	5.39
387.362	5.36
387.57	5.59
387.778	5.55
387.985	5.41
388.193	5.59
388.4	5.44
388.608	5.28
388.816	5.22
389.023	5.41
389.231	5.23
389.438	5.41
389.646	5.55
389.853	5.4
390.061	5.41
390.268	5.58
390.475	5.58
390.683	5.66
390.89	5.72
391.098	5.69
391.305	5.44
391.512	5.43
391.72	5.3
391.927	5.12
392.135	5.05
392.342	4.84
392.549	4.67
392.756	4.6
392.964	4.7
393.171	4.64
393.378	4.57
393.586	4.71
393.793	4.67
394	4.6
394.207	4.51
394.414	4.6
394.622	4.74
394.829	4.66
395.036	4.52
395.243	4.43
395.45	4.45
395.657	4.5
395.864	4.38
396.072	4.48
396.279	4.37
396.486	4.35
396.693	4.27
396.9	4.36
397.107	4.31
397.314	4.68
397.521	4.64
397.728	4.51
397.935	4.66
398.142	4.62
398.349	4.7
398.556	4.77
398.763	4.82
398.97	5
399.177	5.01
399.383	4.85
399.59	4.43
399.797	4.51
400.004	4.62
400.211	4.38
400.418	4.23
400.625	4.09
400.831	4.21
401.038	4.18
401.245	3.98
401.452	3.74
401.658	4.01
401.865	4.01
402.072	3.83
402.279	3.78
402.485	3.78
402.692	3.99
402.899	4.08
403.105	4.19
403.312	4.39
403.519	4.3
403.725	4.58
403.932	4.56
404.138	4.83
404.345	4.98
404.552	5.05
404.758	5.13
404.965	5.12
405.171	5.11
405.378	4.88
405.584	4.91
405.791	5.19
405.997	4.89
406.204	4.9
406.41	4.82
406.617	4.75
406.823	4.8
407.029	4.75
407.236	4.82
407.442	4.75
407.649	4.83
407.855	4.69
408.061	4.61
408.268	4.9
408.474	4.93
408.68	4.78
408.887	4.62
409.093	4.46
409.299	4.58
409.505	4.55
409.712	4.5
409.918	4.49
410.124	4.49
410.33	4.36
410.537	4.06
410.743	4.02
410.949	3.77
411.155	3.75
411.361	3.81
411.567	3.8
411.773	3.85
411.98	3.89
412.186	3.78
412.392	3.76
412.598	3.63
412.804	3.99
413.01	4.13
413.216	4.46
413.422	4.61
413.628	4.67
413.834	4.81
414.04	4.68
414.246	4.52
414.452	4.55
414.658	4.52
414.864	4.44
415.07	4.28
415.275	4.18
415.481	4.02
415.687	3.96
415.893	3.9
416.099	3.7
416.305	3.72
416.511	3.89
416.716	3.87
416.922	3.98
417.128	4.05
417.334	4.14
417.539	4.2
417.745	4.24
417.951	4.28
418.157	4.16
418.362	4.09
418.568	3.99
418.774	3.9
418.979	3.88
419.185	3.85
419.391	3.84
419.596	3.72
419.802	3.68
420.008	3.75
420.213	3.83
420.419	3.96
420.624	4.03
420.83	4.06
421.035	4.07
421.241	4.2
421.446	4.12
421.652	4.2
421.857	4.19
422.063	4.24
422.268	4.25
422.474	4.25
422.679	4.13
422.885	4.2
423.09	4.19
423.295	4.21
423.501	4.14
423.706	4.1
423.911	3.98
424.117	4.08
424.322	3.93
424.527	3.92
424.733	3.86
424.938	3.93
425.143	3.81
425.349	3.8
425.554	3.75
425.759	3.78
425.964	3.83
426.169	3.94
426.375	3.86
426.58	3.93
426.785	3.98
426.99	4
427.195	4.11
427.4	4.25
427.605	4.37
427.811	4.44
428.016	4.22
428.221	4.17
428.426	4.06
428.631	4.01
428.836	4.01
429.041	3.87
429.246	3.82
429.451	3.8
429.656	3.65
429.861	3.58
430.066	3.68
430.271	3.81
430.476	3.94
430.681	3.96
430.886	4.03
431.09	4.17
431.295	4.17
431.5	4.11
431.705	3.99
431.91	4.07
432.115	4.06
432.32	4.08
432.524	4.18
432.729	4.21
432.934	4.34
433.139	4.37
433.343	4.25
433.548	4.19
433.753	4.27
433.958	4.37
434.162	4.36
434.367	4.27
434.572	4.19
434.776	4.25
434.981	4.11
435.186	3.9
435.39	3.94
435.595	3.96
435.799	4.08
436.004	3.99
436.209	3.86
436.413	3.94
436.618	4.11
436.822	4.01
437.027	3.87
437.231	3.87
437.436	4.01
437.64	3.87
437.845	3.86
438.049	3.87
438.253	3.92
438.458	3.97
438.662	3.89
438.867	3.92
439.071	4.04
439.275	4.03
439.48	3.97
439.684	3.99
439.888	4.06
440.093	4.06
440.297	4.1
440.501	4.03
440.706	4
440.91	4
441.114	3.89
441.318	3.84
441.523	3.87
441.727	4.05
441.931	4.01
442.135	3.96
442.339	4.02
442.543	3.93
442.748	4.08
442.952	4.2
443.156	4.24
443.36	4.3
443.564	4.27
443.768	4.3
443.972	4.32
444.176	4.23
444.38	4.24
444.584	4.22
444.788	4.29
444.992	4.21
445.196	4.14
445.4	4.13
445.604	4.01
445.808	4.09
446.012	3.98
446.216	3.95
446.42	4.06
446.624	4.03
446.828	3.91
447.032	3.86
447.235	3.82
447.439	3.82
447.643	3.77
447.847	3.91
448.051	3.88
448.254	3.9
448.458	3.87
448.662	3.74
448.866	3.7
449.069	3.78
449.273	3.83
449.477	3.81
449.681	3.81
449.884	3.88
450.088	3.84
450.292	3.76
450.495	3.79
450.699	3.71
450.902	3.83
451.106	3.92
451.31	3.96
451.513	3.88
451.717	4.01
451.92	3.9
452.124	3.85
452.327	3.77
452.531	3.8
452.734	3.84
452.938	3.86
453.141	3.78
453.345	3.71
453.548	3.6
453.752	3.68
453.955	3.51
454.158	3.63
454.362	3.68
454.565	3.83
454.769	3.82
454.972	3.8
455.175	3.77
455.379	3.77
455.582	3.8
455.785	3.93
455.988	3.93
456.192	3.97
456.395	3.89
456.598	3.76
456.801	3.77
457.005	3.94
457.208	4.06
457.411	4.23
457.614	4.23
457.817	4.13
458.021	4.04
458.224	3.98
458.427	3.94
458.63	3.96
458.833	4
459.036	3.98
459.239	3.81
459.442	3.77
459.645	3.76
459.848	3.82
460.051	3.85
460.254	3.84
460.457	3.85
460.66	3.92
460.863	3.9
461.066	3.9
461.269	3.88
461.472	3.97
461.675	3.95
461.878	3.84
462.081	3.79
462.284	3.85
462.486	3.92
462.689	3.96
462.892	3.94
463.095	3.96
463.298	3.9
463.5	3.84
463.703	3.8
463.906	3.79
464.109	3.86
464.311	3.96
464.514	3.97
464.717	3.97
464.92	3.92
465.122	3.84
465.325	3.89
465.528	4.01
465.73	4.07
465.933	4.12
466.135	4.01
466.338	3.94
466.541	3.93
466.743	3.88
466.946	3.82
467.148	3.8
467.351	3.95
467.553	3.94
467.756	3.76
467.958	3.77
468.161	3.83
468.363	3.93
468.566	3.92
468.768	3.94
468.971	3.94
469.173	3.94
469.375	3.91
469.578	3.67
469.78	3.6
469.983	3.68
470.185	3.64
470.387	3.51
470.59	3.49
470.792	3.49
470.994	3.4
471.196	3.41
471.399	3.36
471.601	3.46
471.803	3.64
472.005	3.77
472.208	3.85
472.41	3.76
472.612	3.68
472.814	3.72
473.016	3.73
473.218	3.7
473.421	3.83
473.623	3.94
473.825	3.95
474.027	3.89
474.229	3.86
474.431	3.81
474.633	3.89
474.835	3.98
475.037	3.95
475.239	4.09
475.441	4.15
475.643	4.1
475.845	4.17
476.047	4.1
476.249	4.22
476.451	4.13
476.653	4.12
476.855	4.11
477.057	4.14
477.258	4.01
477.46	3.94
477.662	3.95
477.864	3.86
478.066	3.94
478.268	3.92
478.469	3.85
478.671	3.88
478.873	3.91
479.075	3.92
479.276	3.93
479.478	4.09
479.68	4.08
479.882	4
480.083	4.06
480.285	3.92
480.487	3.96
480.688	3.86
480.89	3.84
481.091	3.78
481.293	3.78
481.495	3.79
481.696	3.86
481.898	3.93
482.099	3.97
482.301	3.94
482.502	3.96
482.704	3.98
482.905	4.03
483.107	4.05
483.308	4.09
483.51	4.09
483.711	4.11
483.913	4.06
484.114	4.03
484.315	4.03
484.517	4.03
484.718	4.02
484.92	4.02
485.121	4.04
485.322	4.03
485.524	4.03
485.725	4.05
485.926	4.02
486.127	4.05
486.329	4.05
486.53	4.08
486.731	4.11
486.932	4.09
487.134	4.13
487.335	4.1
487.536	4.11
487.737	4.14
487.938	4.13
488.139	4.12
488.341	4.12
488.542	4.12
488.743	4.04
488.944	4.02
489.145	4.04
489.346	3.99
489.547	3.96
489.748	3.96
489.949	3.9
490.15	3.96
490.351	3.92
490.552	3.88
490.753	3.93
490.954	3.98
491.155	4.04
491.356	4.05
491.557	4.07
491.758	4.12
491.959	4.11
492.159	4.14
492.36	4.11
492.561	4.16
492.762	4.19
492.963	4.15
493.164	4.17
493.364	4.13
493.565	4.14
493.766	4.11
493.967	4.1
494.167	4.13
494.368	4.05
494.569	4.01
494.769	3.99
494.97	3.96
495.171	4.03
495.371	4.05
495.572	4.05
495.773	4.11
495.973	4.11
496.174	4.15
496.375	4.11
496.575	4.05
496.776	4.07
496.976	4.19
497.177	4.23
497.377	4.19
497.578	4.18
497.778	4.18
497.979	4.15
498.179	4.2
498.38	4.23
498.58	4.28
498.78	4.44
498.981	4.45
499.181	4.39
499.382	4.42
499.582	4.48
499.782	4.43
499.983	4.56
500.183	4.54
500.383	4.52
500.584	4.51
500.784	4.49
500.984	4.36
501.184	4.38
501.385	4.44
501.585	4.4
501.785	4.36
501.985	4.38
502.185	4.3
502.386	4.42
502.586	4.45
502.786	4.48
502.986	4.53
503.186	4.67
503.386	4.71
503.586	4.74
503.786	4.82
503.987	4.84
504.187	4.88
504.387	4.9
504.587	4.76
504.787	4.77
504.987	4.81
505.187	4.94
505.387	4.97
505.587	4.89
505.786	4.86
505.986	4.89
506.186	4.85
506.386	4.97
506.586	4.9
506.786	4.95
506.986	4.98
507.186	4.97
507.386	4.89
507.585	4.97
507.785	5.12
507.985	5.16
508.185	5.12
508.384	5.17
508.584	5.09
508.784	5.2
508.984	5.25
509.183	5.24
509.383	5.19
509.583	5.19
509.782	5.18
509.982	5.07
510.182	5.13
510.381	5.1
510.581	5.2
510.781	5.28
510.98	5.3
511.18	5.39
511.379	5.41
511.579	5.47
511.778	5.54
511.978	5.61
512.177	5.63
512.377	5.58
512.576	5.68
512.776	5.72
512.975	5.68
513.175	5.77
513.374	5.69
513.573	5.7
513.773	5.82
513.972	5.78
514.172	5.79
514.371	5.97
514.57	6.01
514.77	6.08
514.969	6.03
515.168	6.08
515.367	6.09
515.567	6.18
515.766	6.32
515.965	6.31
516.164	6.48
516.364	6.52
516.563	6.5
516.762	6.57
516.961	6.54
517.16	6.67
517.359	6.79
517.559	6.83
517.758	6.9
517.957	6.96
518.156	6.96
518.355	6.92
518.554	6.94
518.753	7.03
518.952	7.12
519.151	7.15
519.35	7.18
519.549	7.17
519.748	7.15
519.947	7.13
520.146	7.16
520.345	7.23
520.544	7.31
520.743	7.37
520.942	7.35
521.141	7.31
521.339	7.38
521.538	7.42
521.737	7.43
521.936	7.53
522.135	7.65
522.333	7.68
522.532	7.72
522.731	7.76
522.93	7.74
523.129	7.87
523.327	7.96
523.526	8.02
523.725	8
523.923	8.15
524.122	8.25
524.321	8.26
524.519	8.27
524.718	8.33
524.917	8.45
525.115	8.55
525.314	8.52
525.512	8.52
525.711	8.61
525.909	8.69
526.108	8.78
526.306	8.83
526.505	8.97
526.703	9.06
526.902	9.17
527.1	9.24
527.299	9.3
527.497	9.42
527.696	9.5
527.894	9.58
528.092	9.65
528.291	9.68
528.489	9.74
528.688	9.76
528.886	9.8
529.084	9.79
529.283	9.79
529.481	9.84
529.679	9.87
529.877	9.94
530.076	9.97
530.274	10.03
530.472	10.09
530.67	10.1
530.869	10.16
531.067	10.22
531.265	10.39
531.463	10.45
531.661	10.54
531.859	10.56
532.057	10.57
532.255	10.66
532.454	10.73
532.652	10.81
532.85	10.9
533.048	10.97
533.246	11.02
533.444	11
533.642	11.09
533.84	11.13
534.038	11.24
534.236	11.33
534.434	11.34
534.632	11.37
534.83	11.37
535.027	11.42
535.225	11.45
535.423	11.57
535.621	11.69
535.819	11.75
536.017	11.81
536.215	11.78
536.412	11.81
536.61	11.9
536.808	11.98
537.006	12
537.203	12.01
537.401	12.09
537.599	12.19
537.797	12.25
537.994	12.34
538.192	12.48
538.39	12.74
538.587	12.93
538.785	13.11
538.983	13.28
539.18	13.57
539.378	13.86
539.575	14.07
539.773	14.2
539.97	14.3
540.168	14.51
540.366	14.64
540.563	14.72
540.761	14.89
540.958	14.99
541.155	15.09
541.353	15.17
541.55	15.22
541.748	15.33
541.945	15.36
542.143	15.45
542.34	15.48
542.537	15.55
542.735	15.67
542.932	15.73
543.129	15.87
543.327	15.99
543.524	16.18
543.721	16.49
543.919	16.72
544.116	17.12
544.313	17.56
544.51	17.99
544.708	18.41
544.905	18.77
545.102	19.15
545.299	19.39
545.496	19.69
545.693	19.85
545.891	19.86
546.088	19.87
546.285	19.74
546.482	19.45
546.679	19.2
546.876	18.93
547.073	18.67
547.27	18.41
547.467	18.21
547.664	17.96
547.861	17.77
548.058	17.6
548.255	17.38
548.452	17.28
548.649	17.28
548.846	17.17
549.043	17.02
549.24	16.95
549.437	16.79
549.633	16.72
549.83	16.58
550.027	16.47
550.224	16.31
550.421	16.22
550.618	16.07
550.814	15.94
551.011	15.8
551.208	15.78
551.405	15.7
551.601	15.65
551.798	15.44
551.995	15.42
552.191	15.3
552.388	15.25
552.585	15.24
552.781	15.22
552.978	15.07
553.175	15.03
553.371	14.99
553.568	14.81
553.764	14.74
553.961	14.77
554.157	14.67
554.354	14.69
554.55	14.6
554.747	14.53
554.943	14.53
555.14	14.6
555.336	14.58
555.533	14.56
555.729	14.78
555.926	14.72
556.122	14.71
556.318	14.7
556.515	14.54
556.711	14.64
556.907	14.61
557.104	14.56
557.3	14.44
557.496	14.37
557.693	14.39
557.889	14.28
558.085	14.25
558.281	14.28
558.478	14.15
558.674	14.18
558.87	13.94
559.066	13.98
559.262	13.91
559.459	14.07
559.655	14.19
559.851	14.21
560.047	14.24
560.243	14.39
560.439	14.4
560.635	14.39
560.831	14.44
561.027	14.53
561.223	14.51
561.419	14.48
561.615	14.38
561.811	14.32
562.007	14.32
562.203	14.23
562.399	14.11
562.595	14
562.791	14.09
562.987	14.09
563.183	14.07
563.379	13.99
563.575	14.05
563.771	14.1
563.966	14.14
564.162	14.11
564.358	14.14
564.554	14.16
564.75	14.38
564.945	14.48
565.141	14.44
565.337	14.6
565.533	14.65
565.728	14.71
565.924	14.69
566.12	14.73
566.315	14.78
566.511	14.78
566.707	14.75
566.902	14.72
567.098	14.66
567.293	14.65
567.489	14.64
567.684	14.68
567.88	14.7
568.076	14.76
568.271	14.68
568.467	14.72
568.662	14.66
568.858	14.81
569.053	14.81
569.248	14.84
569.444	14.97
569.639	14.76
569.835	14.79
570.03	14.84
570.225	14.9
570.421	14.87
570.616	14.74
570.812	14.92
571.007	14.88
571.202	14.84
571.397	14.86
571.593	14.86
571.788	14.96
571.983	14.98
572.178	14.84
572.374	14.83
572.569	14.92
572.764	14.9
572.959	14.86
573.154	14.74
573.35	14.82
573.545	14.83
573.74	14.76
573.935	14.84
574.13	14.85
574.325	14.92
574.52	14.9
574.715	14.97
574.91	15.19
575.105	15.27
575.3	15.39
575.495	15.47
575.69	15.57
575.885	15.73
576.08	15.97
576.275	16.07
576.47	16.14
576.665	16.23
576.86	16.24
577.055	16.3
577.25	16.42
577.444	16.63
577.639	16.71
577.834	16.87
578.029	16.89
578.224	16.79
578.418	16.9
578.613	17.04
578.808	16.93
579.003	17.1
579.197	17.03
579.392	16.96
579.587	16.91
579.781	16.82
579.976	16.81
580.171	17.01
580.365	16.96
580.56	16.83
580.755	16.87
580.949	16.99
581.144	16.86
581.338	16.96
581.533	16.9
581.727	17
581.922	16.94
582.116	16.97
582.311	16.77
582.505	17
582.7	17.12
582.894	17.07
583.089	17.09
583.283	17.18
583.478	17.11
583.672	17.3
583.866	17.22
584.061	17.4
584.255	17.27
584.449	17.47
584.644	17.33
584.838	17.4
585.032	17.41
585.226	17.63
585.421	17.7
585.615	17.82
585.809	17.83
586.003	17.99
586.198	18.07
586.392	18.2
586.586	18.09
586.78	18.08
586.974	17.99
587.168	17.96
587.363	17.88
587.557	17.78
587.751	17.7
587.945	17.65
588.139	17.43
588.333	17.25
588.527	17.12
588.721	17.08
588.915	16.96
589.109	16.92
589.303	16.98
589.497	16.78
589.691	16.85
589.885	16.86
590.079	16.96
590.273	17
590.466	17.17
590.66	17.36
590.854	17.58
591.048	17.78
591.242	17.77
591.436	17.82
591.629	18.11
591.823	18.07
592.017	18.08
592.211	17.9
592.404	17.95
592.598	17.79
592.792	17.68
592.986	17.29
593.179	17.24
593.373	17.31
593.567	17.29
593.76	17.03
593.954	17.02
594.147	16.91
594.341	17.07
594.535	17.1
594.728	17.05
594.922	16.87
595.115	17.07
595.309	16.95
595.502	16.94
595.696	16.93
595.889	17
596.083	16.91
596.276	16.95
596.47	16.68
596.663	16.7
596.856	16.74
597.05	16.78
597.243	16.72
597.437	16.78
597.63	16.69
597.823	16.74
598.017	16.79
598.21	16.93
598.403	17.13
598.596	17.37
598.79	17.44
598.983	17.51
599.176	17.54
599.369	17.48
599.563	17.51
599.756	17.6
599.949	17.49
600.142	17.43
600.335	17.37
600.528	17.02
600.722	16.95
600.915	16.79
601.108	16.58
601.301	16.72
601.494	16.79
601.687	16.73
601.88	16.53
602.073	16.59
602.266	16.51
602.459	16.47
602.652	16.55
602.845	16.6
603.038	16.62
603.231	16.75
603.424	16.55
603.617	16.49
603.809	16.51
604.002	16.56
604.195	16.4
604.388	16.44
604.581	16.49
604.774	16.57
604.966	16.5
605.159	16.42
605.352	16.42
605.545	16.61
605.737	16.68
605.93	16.78
606.123	16.91
606.316	17.21
606.508	17.37
606.701	17.47
606.894	17.6
607.086	17.72
607.279	18.12
607.471	18.47
607.664	18.69
607.857	18.93
608.049	19.37
608.242	19.84
608.434	20.52
608.627	21.54
608.819	22.59
609.012	23.8
609.204	25.26
609.397	26.7
609.589	28.18
609.782	29.94
609.974	31.9
610.166	33.62
610.359	35.44
610.551	37.13
610.743	38.42
610.936	39.65
611.128	40.38
611.32	40.8
611.513	41.02
611.705	41.08
611.897	40.81
612.09	40.17
612.282	39.37
612.474	38.47
612.666	37.41
612.858	36.34
613.051	35.37
613.243	34.52
613.435	34
613.627	33.06
613.819	32.38
614.011	31.46
614.203	30.61
614.395	29.92
614.588	29.05
614.78	28.1
614.972	27.32
615.164	26.28
615.356	25.57
615.548	24.64
615.74	24.25
615.932	23.6
616.124	22.99
616.315	22.59
616.507	22.11
616.699	21.84
616.891	21.5
617.083	21.23
617.275	21.03
617.467	20.83
617.659	20.63
617.85	20.18
618.042	19.78
618.234	19.67
618.426	19.38
618.618	19.21
618.809	18.99
619.001	18.96
619.193	18.77
619.384	18.81
619.576	18.67
619.768	18.46
619.959	18.34
620.151	18.33
620.343	18.28
620.534	18.47
620.726	18.61
620.917	18.56
621.109	18.49
621.301	18.67
621.492	18.75
621.684	18.82
621.875	18.85
622.067	19.13
622.258	19.21
622.45	19.43
622.641	19.46
622.832	19.5
623.024	19.61
623.215	19.61
623.407	19.67
623.598	19.6
623.789	19.62
623.981	19.8
624.172	19.6
624.363	19.77
624.555	19.75
624.746	19.72
624.937	19.59
625.129	19.48
625.32	19.62
625.511	19.41
625.702	19.41
625.893	19.19
626.085	19.17
626.276	19.25
626.467	19.02
626.658	18.92
626.849	18.89
627.04	18.8
627.231	18.71
627.422	18.72
627.614	18.71
627.805	18.6
627.996	18.81
628.187	18.86
628.378	18.84
628.569	19.05
628.76	19.19
628.951	19.46
629.142	19.89
629.332	20.36
629.523	20.45
629.714	20.81
629.905	21.05
630.096	21.19
630.287	21.22
630.478	21.29
630.669	21.18
630.859	21.11
631.05	20.94
631.241	20.42
631.432	20.08
631.623	19.73
631.813	19.33
632.004	19.13
632.195	18.87
632.385	18.51
632.576	18.34
632.767	18.41
632.957	18.07
633.148	18.06
633.339	18.01
633.529	17.83
633.72	17.76
633.91	17.78
634.101	17.61
634.292	17.45
634.482	17.35
634.673	17.11
634.863	16.8
635.054	16.89
635.244	16.44
635.435	16.48
635.625	16.69
635.815	16.75
636.006	16.7
636.196	16.91
636.387	17.1
636.577	17.36
636.767	17.39
636.958	17.58
637.148	17.48
637.338	17.62
637.529	17.53
637.719	17.26
637.909	17.32
638.099	17.27
638.29	16.94
638.48	16.86
638.67	16.73
638.86	16.68
639.05	16.56
639.241	16.68
639.431	16.68
639.621	16.76
639.811	17.27
640.001	17.07
640.191	17.04
640.381	17.16
640.571	17.18
640.761	17.19
640.951	17.24
641.141	17.31
641.331	17.27
641.521	17.32
641.711	17.52
641.901	16.88
642.091	17.21
642.281	17.05
642.471	17.1
642.661	17.04
642.851	16.79
643.041	16.66
643.231	16.48
643.42	16.62
643.61	16.3
643.8	16.01
643.99	16.24
644.18	15.9
644.369	16.2
644.559	16.09
644.749	16
644.939	16.24
645.128	16.27
645.318	16.38
645.508	16.22
645.697	16.47
645.887	16.64
646.076	16.44
646.266	16.68
646.456	16.68
646.645	16.72
646.835	16.77
647.024	16.75
647.214	16.9
647.403	16.76
647.593	16.87
647.782	17.01
647.972	16.9
648.161	17.02
648.351	16.8
648.54	16.82
648.73	16.93
648.919	17.34
649.108	17.38
649.298	17.38
649.487	17.61
649.677	17.65
649.866	17.65
650.055	17.81
650.244	18.07
650.434	18.22
650.623	18.21
650.812	18.29
651.002	18.07
651.191	18.03
651.38	18.28
651.569	18.36
651.758	18.28
651.947	18.2
652.137	18.23
652.326	17.87
652.515	17.64
652.704	17.57
652.893	17.43
653.082	17.26
653.271	17.42
653.46	17.24
653.649	17.07
653.838	17.16
654.027	17.3
654.216	17.05
654.405	17.26
654.594	17.43
654.783	17.43
654.972	17.32
655.161	17.38
655.35	17.19
655.539	17.13
655.728	17.2
655.916	16.88
656.105	16.88
656.294	17.03
656.483	17.02
656.672	17.17
656.86	17.08
657.049	16.9
657.238	16.78
657.427	17.11
657.615	17.14
657.804	17.05
657.993	17.13
658.181	16.97
658.37	17
658.559	16.85
658.747	16.78
658.936	16.82
659.125	17.4
659.313	17.49
659.502	17.2
659.69	17.23
659.879	17.24
660.067	17.52
660.256	17.47
660.444	17.52
660.633	17.74
660.821	17.72
661.01	17.87
661.198	17.37
661.387	17.41
661.575	17.67
661.763	17.69
661.952	17.57
662.14	17.27
662.328	17.4
662.517	17.27
662.705	17.1
662.893	17.16
663.082	17
663.27	17.3
663.458	17.49
663.646	17.15
663.834	17.04
664.023	17.05
664.211	17.32
664.399	17.28
664.587	17.21
664.775	17.35
664.963	17.52
665.152	17.83
665.34	17.82
665.528	17.47
665.716	17.33
665.904	17.31
666.092	17.47
666.28	17.4
666.468	17.36
666.656	17.68
666.844	17.79
667.032	17.64
667.22	17.47
667.408	17.53
667.596	17.68
667.784	17.85
667.971	18.12
668.159	18.16
668.347	18.16
668.535	18.35
668.723	18.16
668.911	18.12
669.098	17.82
669.286	17.75
669.474	17.53
669.662	17.65
669.849	17.65
670.037	17.49
670.225	17.39
670.413	17.13
670.6	16.76
670.788	16.54
670.976	16.23
671.163	16.43
671.351	16.24
671.538	16.22
671.726	15.95
671.913	15.85
672.101	16
672.289	15.97
672.476	16
672.664	16.17
672.851	16.44
673.039	16.86
673.226	16.77
673.413	16.56
673.601	16.25
673.788	16.49
673.976	16.8
674.163	16.57
674.35	16.79
674.538	16.76
674.725	16.86
674.912	16.78
675.1	16.56
675.287	16.5
675.474	16.62
675.662	16.76
675.849	16.36
676.036	16.13
676.223	16.41
676.411	16.16
676.598	16.29
676.785	16.46
676.972	16.27
677.159	16.03
677.346	16.09
677.533	16.64
677.721	16.89
677.908	16.96
678.095	16.96
678.282	16.86
678.469	16.95
678.656	16.73
678.843	16.65
679.03	16.81
679.217	16.97
679.404	16.9
679.591	16.69
679.778	16.58
679.964	16.67
680.151	16.76
680.338	16.6
680.525	16.78
680.712	16.88
680.899	16.73
681.086	16.5
681.272	16.61
681.459	16.71
681.646	16.74
681.833	16.61
682.02	16.52
682.206	16.52
682.393	16.57
682.58	16.67
682.766	16.68
682.953	16.53
683.14	16.62
683.326	16.65
683.513	16.68
683.7	16.74
683.886	16.9
684.073	16.95
684.259	17.05
684.446	16.86
684.632	16.52
684.819	16.57
685.005	16.85
685.192	16.82
685.378	16.31
685.565	16.27
685.751	16
685.938	16.01
686.124	15.94
686.31	15.94
686.497	16.15
686.683	16.37
686.87	16.76
687.056	16.75
687.242	17.2
687.429	17.79
687.615	18
687.801	17.89
687.987	17.74
688.174	18.13
688.36	18.14
688.546	18.14
688.732	17.83
688.918	17.76
689.105	17.86
689.291	17.54
689.477	17.12
689.663	17.15
689.849	17.32
690.035	17.65
690.221	17.24
690.407	17.03
690.593	16.77
690.779	16.91
690.965	16.88
691.151	16.67
691.337	17.18
691.523	17.59
691.709	17.28
691.895	17.57
692.081	17.21
692.267	17.66
692.453	17.68
692.639	17.98
692.825	18.06
693.011	17.89
693.196	18.31
693.382	17.95
693.568	17.48
693.754	17.9
693.94	17.88
694.125	18.09
694.311	17.55
694.497	17.64
694.682	17.74
694.868	17.75
695.054	17.84
695.239	18.02
695.425	17.87
695.611	17.74
695.796	17.85
695.982	17.25
696.168	17.5
696.353	17.64
696.539	17.74
696.724	17.45
696.91	17.29
697.095	17.23
697.281	16.84
697.466	16.98
697.652	17.22
697.837	16.93
698.023	17.1
698.208	17.14
698.393	17.16
698.579	17.07
698.764	17.17
698.949	17.29
699.135	17.35
699.32	17.5
699.505	17.4
699.691	17.47
699.876	17.48
700.061	17.43
700.246	16.99
700.432	16.98
700.617	17.02
700.802	17.26
700.987	17.42
701.172	17.35
701.358	17.21
701.543	17.03
701.728	17.48
701.913	17.47
702.098	17.66
702.283	18.23
702.468	18.19
702.653	17.88
702.838	17.76
703.023	17.35
703.208	17.35
703.393	17.33
703.578	17.6
703.763	17.4
703.948	17.43
704.133	17.39
704.318	17.5
704.503	17.65
704.688	18.44
704.873	18.59
705.057	18.99
705.242	18.94
705.427	18.91
705.612	19.09
705.797	19.35
705.981	19.98
706.166	20.67
706.351	20.88
706.536	20.96
706.72	21.09
706.905	20.93
707.09	20.85
707.274	21.36
707.459	22.04
707.644	22.17
707.828	22.09
708.013	21.75
708.197	21.26
708.382	21.04
708.567	21.78
708.751	21.44
708.936	21.77
709.12	21.33
709.305	21.1
709.489	21.05
709.673	21.12
709.858	21.01
710.042	20.88
710.227	21.15
710.411	21.37
710.596	20.85
710.78	21.05
710.964	20.74
711.149	21.08
711.333	21.61
711.517	21.16
711.702	20.95
711.886	20.76
712.07	20.8
712.254	20.43
712.438	19.76
712.623	19.34
712.807	18.93
712.991	18.95
713.175	18.36
713.359	17.44
713.544	17.4
713.728	17.65
713.912	17.32
714.096	17.31
714.28	17.07
714.464	16.76
714.648	16.9
714.832	17.18
715.016	16.86
715.2	17.4
715.384	17.5
715.568	17.62
715.752	17.04
715.936	17.63
716.12	17.41
716.304	17.49
716.488	18.02
716.671	18.43
716.855	18.1
717.039	17.76
717.223	17.69
717.407	17.25
717.59	16.72
717.774	16.59
717.958	16.25
718.142	16.19
718.325	16.28
718.509	16.05
718.693	15.46
718.877	15.54
719.06	16.09
719.244	15.89
719.428	16.54
719.611	17.09
719.795	17.3
719.978	16.77
720.162	17.23
720.345	17.09
720.529	16.86
720.713	16.8
720.896	16.85
721.08	17.09
721.263	17.34
721.446	17.24
721.63	16.38
721.813	16.26
721.997	16.42
722.18	15.68
722.364	15.93
722.547	15.87
722.73	16.32
722.914	16.49
723.097	16.41
723.28	16.24
723.464	16.18
723.647	17.08
723.83	17.53
724.013	17.89
724.197	18.34
724.38	18.49
724.563	18.54
724.746	18.51
724.929	18.9
725.112	19.09
725.296	18.93
725.479	18.52
725.662	18.31
725.845	17.9
726.028	17.3
726.211	17.54
726.394	17.68
726.577	17.96
726.76	17.55
726.943	16.61
727.126	16.03
727.309	16.27
727.492	16.65
727.675	16.42
727.858	16.45
728.041	16.98
728.224	16.75
728.407	16.57
728.589	16.27
728.772	16.52
728.955	16.43
729.138	16.63
729.321	16.68
729.503	16.12
729.686	15.97
729.869	16.38
730.052	16.56
730.234	16.38
730.417	16.31
730.6	16.39
730.782	16.42
730.965	16.87
731.148	16.65
731.33	16.14
731.513	16.57
731.695	16.5
731.878	16.25
732.061	15.77
732.243	15.63
732.426	15.52
732.608	15.58
732.791	15.32
732.973	14.99
733.156	15.66
733.338	16.16
733.52	16.58
733.703	17.03
733.885	16.87
734.068	17.04
734.25	17.56
734.432	17.77
734.615	17.78
734.797	18.29
734.979	18.17
735.162	17.39
735.344	17.29
735.526	17.18
735.708	16.87
735.891	16.92
736.073	17.23
736.255	16.53
736.437	15.78
736.619	15.66
736.802	15.23
736.984	15.97
737.166	16.2
737.348	15.95
737.53	16.16
737.712	16.21
737.894	16.3
738.076	15.6
738.258	15.51
738.44	15.9
738.622	15.8
738.804	15.6
738.986	14.72
739.168	14.58
739.35	14.97
739.532	14.31
739.714	14.25
739.896	13.73
740.078	14.15
740.259	14.54
740.441	14.74
740.623	14.95
740.805	14.97
740.987	15.49
741.168	15.4
741.35	14.97
741.532	15.53
741.714	15.78
741.895	16.06
742.077	16.12
742.259	16.18
742.44	16.32
742.622	16.62
742.804	16.89
742.985	16.6
743.167	16.93
743.348	16.5
743.53	16.11
743.711	15.84
743.893	16.32
744.075	16.15
744.256	16.69
744.438	16.92
744.619	17.07
744.8	17.06
744.982	16.36
745.163	16.53
745.345	16.5
745.526	16.29
745.707	16.46
745.889	16.11
746.07	16.39
746.252	15.78
746.433	15.4
746.614	14.85
746.795	15.01
746.977	16.1
747.158	15.85
747.339	16.73
747.52	17.1
747.702	16.77
747.883	16.87
748.064	16.42
748.245	16.11
748.426	16.16
748.607	15.73
748.788	15.93
748.97	15.98
749.151	16.2
749.332	16.53
749.513	16.47
749.694	16.9
749.875	17.41
750.056	17.98
750.237	18.67
750.418	18.41
750.599	19.01
750.78	18.64
750.96	18.26
751.141	17.83
751.322	16.5
751.503	16.49
751.684	15.6
751.865	15.38
752.046	15.24
752.226	14.76
752.407	15
752.588	14.77
752.769	14.72
752.949	14.98
753.13	15.33
753.311	16.04
753.492	15.25
753.672	16.59
753.853	16.06
754.034	15.78
754.214	16.29
754.395	16.77
754.575	17.15
754.756	17.42
754.937	17.53
755.117	17.61
755.298	18.13
755.478	19.13
755.659	18.42
755.839	18.64
756.02	18.53
756.2	17.86
756.381	17.06
756.561	16.39
756.741	15.56
756.922	14.72
757.102	14.74
757.283	14.44
757.463	13.73
757.643	14.3
757.823	13.61
758.004	13.19
758.184	13.12
758.364	13.01
758.545	13.63
758.725	14.1
758.905	14.63
759.085	13.85
759.265	13.55
759.446	14.17
759.626	14.66
759.806	15.19
759.986	15.68
760.166	15.88
760.346	15.75
760.526	15.08
760.706	14.76
760.886	14.51
761.066	15.16
761.246	14.96
761.426	14.44
761.606	13.57
761.786	13.68
761.966	14
762.146	14.35
762.326	14.84
762.506	15.47
762.686	16.07
762.866	16.43
763.046	16.42
763.225	16.71
763.405	17.18
763.585	17
763.765	17.3
763.945	17.05
764.124	17.01
764.304	16.99
764.484	16.94
764.664	16.76
764.843	16.47
765.023	16.44
765.203	16.45
765.382	16.23
765.562	16.51
765.741	16.61
765.921	17.38
766.101	16.88
766.28	16.89
766.46	17.02
766.639	16.94
766.819	17.33
766.998	16.88
767.178	17.52
767.357	17.8
767.537	18.12
767.716	17.72
767.896	17.26
768.075	17.48
768.254	17.57
768.434	18.07
768.613	18.3
768.792	18.76
768.972	19.88
769.151	19.49
769.33	19.26
769.51	18.34
769.689	17.65
769.868	17.37
770.047	18.4
770.226	18.01
770.406	17.17
770.585	16.42
770.764	15.72
770.943	14.87
771.122	14.7
771.301	14.39
771.48	14.89
771.66	15.43
771.839	16.3
772.018	15.72
772.197	15.86
772.376	15.4
772.555	15.06
772.734	14.9
772.913	14.39
773.092	14.91
773.271	14.81
773.449	15.6
773.628	16.1
773.807	15.39
773.986	14.94
774.165	14.74
774.344	15.69
774.523	16.68
774.701	16.66
774.88	18.25
775.059	18.58
775.238	18.47
775.417	17.53
775.595	16.36
775.774	15.73
775.953	15.45
776.131	16.46
776.31	16
776.489	15.5
776.667	15.63
776.846	14.49
777.025	12.76
777.203	12.6
777.382	13.08
777.56	12.92
777.739	13.01
777.917	13.55
778.096	13.41
778.274	13.53
778.453	13.06
778.631	12.85
778.81	12.62
778.988	13.1
779.166	13.36
779.345	13.36
779.523	14.36
779.702	14.13
779.88	14.27
780.058	13.07
780.237	13.16
780.415	13.9
780.593	14
780.771	14.65
780.95	15.85
781.128	17.01
781.306	16.88
781.484	17.65
781.662	19.66
781.841	19.58
782.019	20.28
782.197	20.61
782.375	20.19
782.553	19.79
782.731	19.33
782.909	17.52
783.087	16.1
783.265	16.57
783.443	15.31
783.621	13.2
783.799	12.7
783.977	11.59
784.155	9.74
784.333	9.76
784.511	10.07
784.689	9.98
784.867	11.2
785.045	11.76
785.223	10.77
785.4	11.15
785.578	10.97
785.756	12.17
785.934	13.95
786.112	16.04
786.289	16.37
786.467	17.57
786.645	17.5
786.823	16.65
787	15.63
787.178	16.66
787.356	16.8
787.533	16.86
787.711	16.24
787.889	15.37
788.066	14.8
788.244	15.77
788.421	15.67
788.599	15.37
788.776	15.48
788.954	16.28
789.131	15.13
789.309	15.06
789.486	14.89
789.664	14.35
789.841	14.44
790.019	14.39
790.196	13.03
790.373	12.05
790.551	12.57
790.728	14.3
790.906	14.88
791.083	14.84
791.26	14.81
791.437	13.8
791.615	15.01
791.792	14.39
791.969	14.52
792.146	15.68
792.324	16.09
792.501	17.03
792.678	14.62
792.855	14.59
793.032	15.92
793.209	16.85
793.387	19.37
793.564	17.89
793.741	18.46
793.918	18.61
794.095	17.95
794.272	17.26
794.449	16.06
794.626	17.23
794.803	16.52
794.98	15.86
795.157	14.92
795.334	14.02
795.511	15.17
795.688	14.91
795.864	14.2
796.041	15.63
796.218	15.56
796.395	15.97
796.572	16.37
796.749	16.29
796.925	15.87
797.102	16.29
797.279	16.55
797.456	16.82
797.632	18.01
797.809	16.96
797.986	16.15
798.162	18.36
798.339	19.62
798.516	19.3
798.692	19.52
798.869	19.81
799.046	19.16
799.222	19.04
799.399	18.73
799.575	17.3
799.752	18.97
799.928	18.03
800.105	16.26
800.281	15.42
800.458	15.43
800.634	14.91
800.811	15.51
800.987	16.01
801.163	15.04
801.34	14.95
801.516	14.73
801.692	14.2
801.869	13.47
802.045	11.99
802.221	10.52
802.398	9.94
802.574	9.61
802.75	9
802.926	8
803.103	9.5
803.279	9.67
803.455	10.26
803.631	12.03
803.807	13.15
803.983	15.22
804.16	14.99
804.336	14.58
804.512	16.16
804.688	16.47
804.864	16.56
805.04	15.23
805.216	14.19
805.392	14.2
805.568	12.74
805.744	14.34
805.92	13.77
806.096	15.41
806.272	15.69
806.448	15.49
806.623	14.61
806.799	14.54
806.975	15.31
807.151	15.61
807.327	15.64
807.503	14.31
807.678	12.94
807.854	12.73
808.03	11.06
808.206	13.67
808.381	12.45
808.557	13.14
808.733	13.66
808.908	13.51
809.084	15.24
809.26	15.87
809.435	17.18
809.611	15.56
809.787	14.72
809.962	15.88
810.138	14.54
810.313	14.1
810.489	13.51
810.664	12.5
810.84	14.29
811.015	14.48
811.191	12.58
811.366	12.18
811.542	13.73
811.717	14.51
811.892	14.75
812.068	16.6
812.243	17.81
812.419	17.2
812.594	17.87
812.769	16.42
812.944	11.74
813.12	12.36
813.295	13.28
813.47	15
813.645	13.86
813.821	12.74
813.996	10.18
814.171	9.88
814.346	11.08
814.521	11.26
814.697	11.74
814.872	14.08
815.047	14.32
815.222	13.03
815.397	12.36
815.572	13.01
815.747	15.75
815.922	16.41
816.097	16
816.272	16.3
816.447	16.77
816.622	16.09
816.797	15.62
816.972	16.21
817.147	16.89
817.322	16.42
817.496	16.38
817.671	16.2
817.846	15.46
818.021	15.04
818.196	13.38
818.371	12.8
818.545	12.82
818.72	13.8
818.895	14.19
819.069	14.2
819.244	14.66
819.419	14.95
819.594	13.54
819.768	13.39
819.943	14.06
820.117	14.69
820.292	15.25
820.467	16.51
820.641	15.91
820.816	16.36
820.99	15.56
821.165	15.05
821.339	15.23
821.514	15.3
821.688	15.68
821.863	15.62
822.037	15.72
822.212	15.8
822.386	15.32
822.56	15.69
822.735	15.55
822.909	15.88
823.084	16.19
823.258	15.9
823.432	15.81
823.606	15.55
823.781	15.5
823.955	15.19
824.129	15.17
824.303	15.4
824.478	15.04
824.652	14.93
824.826	15
825	14.64
825.174	15.04
825.348	15.5
825.523	16.07
825.697	16.3
825.871	16.63
826.045	16.63
826.219	15.89
826.393	16.3
826.567	16.59
826.741	16.16
826.915	16.13
827.089	15.95
827.263	15.86
827.437	15.72
827.611	15.53
827.784	15.56
827.958	15
828.132	15.47
828.306	15.19
828.48	14.98
828.654	14.93
828.827	14.57
829.001	14.42
829.175	13.72
829.349	13.34
829.522	13.32
829.696	13.69
829.87	13.69
830.044	13.79
830.217	13.52
830.391	12.74
830.565	13.46
830.738	14.39
830.912	14.87
831.085	16.2
831.259	17.23
831.432	16.58
831.606	16.44
831.779	16.57
831.953	17.04
832.126	16.72
832.3	16.77
832.473	15.41
832.647	15.19
832.82	15.96
832.994	14.86
833.167	14.45
833.34	15.89
833.514	14.92
833.687	14.94
833.86	15.04
834.034	15.1
834.207	14.91
834.38	16.2
834.553	17.17
834.727	17.15
834.9	17.94
835.073	18.39
835.246	18
835.419	17.91
835.593	18.27
835.766	17.28
835.939	17.24
836.112	18.1
836.285	15.67
836.458	13.77
836.631	13.75
836.804	13.83
836.977	11.86
837.15	10.27
837.323	10.73
837.496	10.19
837.669	11.02
837.842	11.1
838.015	11.82
838.188	14.02
838.361	13.96
838.533	12.68
838.706	10.69
838.879	11.8
839.052	15.42
839.225	17
839.398	18.12
839.57	18.87
839.743	19.76
839.916	17.82
840.088	17.81
840.261	17.9
840.434	18.63
840.607	19.51
840.779	18.97
840.952	16.88
841.124	16.95
841.297	15.3
841.47	13.2
841.642	12.54
841.815	13.97
841.987	15.73
842.16	16.31
842.332	16.19
842.505	14.67
842.677	14.75
842.85	15.07
843.022	12.75
843.194	14.16
843.367	17.61
843.539	17.06
843.712	14.8
843.884	13.12
844.056	11.39
844.229	9.49
844.401	11.16
844.573	11.39
844.745	12.41
844.918	13.89
845.09	14.74
845.262	17.92
845.434	18.73
845.606	20.31
845.779	22.02
845.951	26.26
846.123	26.8
846.295	26.27
846.467	27.67
846.639	27.81
846.811	26.58
846.983	24.99
847.155	20.55
847.327	21.3
847.499	22.14
847.671	15.81
847.843	11.72
848.015	15.01
848.187	19.09
848.359	16.68
848.531	13.01
848.703	14.89
848.875	12.41
849.047	12.19
849.218	10.86
849.39	8.59
849.562	12.99
849.734	15.06
849.905	10.23
850.077	7.21
850.249	15.18
850.421	13.65
850.592	14.95
850.764	16.73
850.936	13.73
851.107	12.93
851.279	17.43
851.451	14.56
851.622	15.18
851.794	19.51
851.965	15.79
852.137	6.66
852.308	11.03
852.48	10.76
852.651	9.64
852.823	12.84
852.994	13.61
853.166	14.46
853.337	20.3
853.509	19.97
853.68	15.73
853.851	16.43
854.023	18.47
854.194	21.9
854.365	21.7
854.537	24.21
854.708	24.76
854.879	29.51
855.05	25.86
855.222	19.19
855.393	17.45
855.564	19.08
855.735	19.14
855.906	21.09
856.078	17.52
856.249	15.01
856.42	15.28
856.591	13.44
856.762	7.48
856.933	5.89
857.104	8.68
857.275	9.63
857.446	10.86
857.617	13.63
857.788	13.32
857.959	9.51
858.13	9.85
858.301	10.97
858.472	10.81
858.643	10.66
858.814	10.59
858.985	14.9
859.155	13.87
859.326	12.88
859.497	13.29
859.668	18.45
859.839	18.81
860.009	17.91
860.18	15.9
860.351	17.8
860.522	17.06
860.692	16.41
860.863	15.32
861.034	17.32
861.204	14.81
861.375	13
861.546	5.23
861.716	5.2
861.887	9.8
862.057	11.76
862.228	14.71
862.398	19.89
862.569	17.68
862.739	14.43
862.91	12.75
863.08	19.23
863.251	18.24
863.421	23
863.592	29.42
863.762	27.92
863.932	27.95
864.103	23.41
864.273	23.02
864.443	24.98
864.614	24.28
864.784	24.4
864.954	18.17
865.125	17.23
865.295	11.49
865.465	5.82
865.635	7.83
865.805	9.34
865.976	9.68
866.146	8.16
866.316	10.75
866.486	11.01
866.656	10.53
866.826	11.54
866.996	15.54
867.166	19.48
867.336	15.24
867.506	10.13
867.676	12.83
867.846	11.78
868.016	14.24
868.186	8.49
868.356	7.69
868.526	8.06
868.696	9.2
868.866	6.94
869.036	6.17
869.206	11.98
869.376	17.02
869.545	12.32
869.715	14.48
869.885	12.33
870.055	11.99
870.224	13.56
870.394	11.04
870.564	15.46
870.734	16.74
870.903	14.56
871.073	11.57
871.243	9.15
871.412	6.28
871.582	6.79
871.751	4.34
871.921	3.88
872.091	1.57
872.26	5.86
872.43	0.66
872.599	7.24
872.769	7.18
872.938	7.32
873.108	5.74
873.277	3.18
873.446	-6.1
873.616	-4.94
873.785	7.43
873.955	9.06
874.124	1.79
874.293	6.47
874.463	4.25
874.632	8.07
874.801	9.63
874.971	10.65
875.14	15.31
875.309	20.96
875.478	20.12
875.647	8.77
875.817	9.37
875.986	13.49
876.155	10.38
876.324	5.63
876.493	3.49
876.662	5.21
876.831	4.36
877	6.88
877.17	10.23
877.339	7.52
877.508	8.88
877.677	7.86
877.846	12.9
878.015	11.42
878.184	12.46
878.352	13.55
878.521	15.05
878.69	14.93
878.859	15.53
879.028	14.16
879.197	16.7
879.366	15.87
879.534	18.16
879.703	13.53
879.872	13.58
880.041	14.89
880.21	15.04
880.378	13.68
880.547	14.44
880.716	12.77
880.884	13.4
881.053	13.48
881.222	14.53
881.39	15.21
881.559	16.04
881.727	17.03
881.896	17.19
882.065	17.19
882.233	16.98
882.402	16.48
882.57	16.5
882.739	15.73
882.907	15.68
883.076	14.88
883.244	14.36
883.412	13.94
883.581	13.62
883.749	12.48
883.918	12.31
884.086	11.52
884.254	12.35
884.423	12.2
884.591	13.43
884.759	14.14
884.927	16.14
885.096	15.77
885.264	15.49
885.432	14.97
885.6	16.01
885.769	16.41
885.937	18.69
886.105	17.37
886.273	19.12
886.441	17.36
886.609	15.62
886.777	13.58
886.945	14.55
887.113	13.67
887.281	11.59
887.449	7.62
887.617	6.05
887.785	7.12
887.953	10.47
888.121	8.06
888.289	7
888.457	9.74
888.625	4.26
888.793	3.45
888.961	4.98
889.129	5.6
889.296	10.06
889.464	9.77
889.632	6.06
889.8	-2.26
889.967	-1.12
890.135	-1.19
