Data from 2938740__Reflection_02.txt Node
Date: Sun Mar 15 12:24:11 EDT 2015
User: robert
Spectrometer: USB4E03002
Autoset integration time: false
Trigger mode: 4
Integration Time (sec): 1.000000E-1
Scans to average: 10
Electric dark correction enabled: false
Nonlinearity correction enabled: false
Boxcar width: 5
Stray light correction enabled: false
XAxis mode: Wavelengths
Stop averaging: false
Number of Pixels in Spectrum: 3648
>>>>>Begin Spectral Data<<<<<
177.575	-95.65
177.794	-258.27
178.014	-427.5
178.233	-779.17
178.452	778.87
178.672	355.32
178.891	177.71
179.11	130.32
179.33	117.43
179.549	82.91
179.768	77.92
179.987	70.22
180.207	75.92
180.426	104.92
180.645	106.09
180.864	88.97
181.084	74.51
181.303	79.13
181.522	64.51
181.741	45.87
181.96	70.44
182.179	74.46
182.398	96.17
182.618	112.2
182.837	91.61
183.056	87.64
183.275	96.88
183.494	101.05
183.713	113.74
183.932	115.61
184.151	125.05
184.37	103.32
184.589	102.39
184.808	100.91
185.027	75.46
185.246	63.28
185.465	58.13
185.684	54.86
185.903	58.3
186.122	53.47
186.341	64.08
186.56	65.54
186.779	73.78
186.998	72.81
187.216	70.91
187.435	76.6
187.654	81.58
187.873	103.82
188.092	111.25
188.311	101.73
188.53	90.42
188.748	79.54
188.967	82.32
189.186	94.49
189.405	85.19
189.623	85.26
189.842	90.86
190.061	81.12
190.28	79.41
190.498	81.12
190.717	89.71
190.936	87.18
191.154	87.79
191.373	88.21
191.592	75.9
191.81	84.97
192.029	92.52
192.248	99.37
192.466	111.67
192.685	101.08
192.904	96.88
193.122	100.21
193.341	117.93
193.559	131.33
193.778	127.49
193.996	140.55
194.215	124.71
194.433	114.04
194.652	111.47
194.87	107.46
195.089	111.1
195.307	97.86
195.526	97.49
195.744	86.39
195.963	73.76
196.181	72.21
196.399	65.26
196.618	73.06
196.836	64.93
197.055	58.49
197.273	52.68
197.491	48.64
197.71	52.77
197.928	52.21
198.146	50.32
198.365	52.93
198.583	52.78
198.801	49.91
199.019	53.04
199.238	46.56
199.456	56.88
199.674	63.46
199.892	69.1
200.111	70.11
200.329	63.79
200.547	63.66
200.765	69.15
200.983	67.74
201.202	74.6
201.42	67.48
201.638	69.37
201.856	67.37
202.074	67.24
202.292	61.95
202.51	70.96
202.728	69.44
202.946	75.23
203.165	76.9
203.383	75.17
203.601	73.12
203.819	70.97
204.037	81.52
204.255	77.1
204.473	85.86
204.691	86.11
204.909	78.57
205.127	80.07
205.345	78.22
205.562	80.84
205.78	84.81
205.998	76.58
206.216	72.29
206.434	72.4
206.652	75.37
206.87	64.99
207.088	63.91
207.306	62.62
207.523	65.78
207.741	60.26
207.959	50.82
208.177	49.57
208.395	62.35
208.612	72.33
208.83	66.6
209.048	65.18
209.266	65.67
209.483	66.74
209.701	59.45
209.919	56.07
210.136	65.97
210.354	77.93
210.572	76.89
210.79	65.86
211.007	66.1
211.225	67.44
211.442	71.28
211.66	69.01
211.878	75.93
212.095	80.21
212.313	81.27
212.53	70.73
212.748	71.04
212.966	73.59
213.183	63.21
213.401	61.39
213.618	63.26
213.836	58.78
214.053	57.99
214.271	54.87
214.488	57.84
214.705	56.93
214.923	60.01
215.14	60.84
215.358	56.85
215.575	79.22
215.793	81.46
216.01	75.89
216.227	79.12
216.445	89.05
216.662	81.96
216.879	80.36
217.097	76.83
217.314	76.69
217.531	72.69
217.749	73.25
217.966	65.95
218.183	67.52
218.4	66.13
218.618	74.33
218.835	62.27
219.052	56.67
219.269	54.93
219.487	50.32
219.704	52.2
219.921	46.95
220.138	47.09
220.355	38.59
220.572	38.79
220.79	36.24
221.007	26.7
221.224	33.22
221.441	36.93
221.658	38.54
221.875	34.76
222.092	34.6
222.309	34.48
222.526	33.94
222.743	30.78
222.96	21.33
223.177	22.66
223.394	26.89
223.611	23.8
223.828	23.97
224.045	22.21
224.262	25.27
224.479	22.37
224.696	22.78
224.913	21.33
225.13	20.11
225.347	23.91
225.564	23.81
225.781	19.28
225.997	17.05
226.214	16.47
226.431	13.81
226.648	12.26
226.865	13.23
227.082	12.98
227.298	9.59
227.515	11.66
227.732	11.74
227.949	9.99
228.165	9.07
228.382	8.68
228.599	7.93
228.816	8.59
229.032	7.85
229.249	7.51
229.466	7.12
229.682	8.16
229.899	7.01
230.116	6.01
230.332	6.31
230.549	7.26
230.765	7.1
230.982	6.71
231.199	6.07
231.415	6.77
231.632	6.61
231.848	6.48
232.065	6.27
232.281	5.72
232.498	5.04
232.714	5.81
232.931	5.25
233.147	5.91
233.364	6.71
233.58	6.27
233.797	5.46
234.013	4.57
234.23	4.92
234.446	4.15
234.662	5.26
234.879	5.48
235.095	4.37
235.312	5.22
235.528	5.51
235.744	5.21
235.961	6.77
236.177	7.12
236.393	7.59
236.61	7.49
236.826	6.91
237.042	6.46
237.258	8.1
237.475	8.24
237.691	6.99
237.907	7.78
238.123	7.73
238.339	6.24
238.556	6.98
238.772	7.75
238.988	7.97
239.204	8.89
239.42	9.53
239.636	7.41
239.853	6.84
240.069	8.14
240.285	7.1
240.501	7.29
240.717	7.35
240.933	7.13
241.149	7.39
241.365	7.47
241.581	7.48
241.797	7.29
242.013	7.02
242.229	7.53
242.445	6.96
242.661	7.2
242.877	7.92
243.093	7.27
243.309	6.96
243.525	6.36
243.741	6.66
243.957	6.12
244.173	5.93
244.388	6.51
244.604	6.06
244.82	6.39
245.036	6.18
245.252	4.37
245.468	4.87
245.683	4.81
245.899	4.97
246.115	4.64
246.331	4.95
246.547	4.85
246.762	4.76
246.978	4.67
247.194	4.61
247.409	4.34
247.625	4.96
247.841	4.83
248.057	5.16
248.272	5.12
248.488	4.81
248.703	4.86
248.919	4.78
249.135	4.62
249.35	4.63
249.566	5.39
249.782	6.1
249.997	5.58
250.213	6.08
250.428	5.95
250.644	6.34
250.859	6.87
251.075	6.38
251.29	7.04
251.506	7.64
251.721	7.89
251.937	7.23
252.152	7.26
252.368	7.73
252.583	7.41
252.798	6.67
253.014	5.8
253.229	5.69
253.445	6.28
253.66	6.09
253.875	6.2
254.091	5.77
254.306	5.2
254.521	5.11
254.737	4.5
254.952	4.22
255.167	4.86
255.383	5.44
255.598	5.99
255.813	5.76
256.028	6.16
256.244	6.34
256.459	7.32
256.674	7.66
256.889	6.88
257.104	6.68
257.32	6.83
257.535	6.2
257.75	5.48
257.965	5.35
258.18	5.46
258.395	5.19
258.61	4.92
258.826	4.69
259.041	4.35
259.256	4.66
259.471	4.71
259.686	4.59
259.901	4.66
260.116	5.01
260.331	4.89
260.546	4.75
260.761	4.81
260.976	4.59
261.191	4.28
261.406	4.45
261.621	4.09
261.836	3.81
262.05	4.2
262.265	4.36
262.48	4.42
262.695	4.49
262.91	4.08
263.125	3.85
263.34	4.05
263.555	4.59
263.769	5.01
263.984	4.99
264.199	5.55
264.414	5.71
264.629	6.39
264.843	5.95
265.058	6
265.273	6.85
265.488	6.27
265.702	6.53
265.917	5.87
266.132	5.31
266.346	5.32
266.561	5.37
266.776	5.22
266.99	4.92
267.205	5.1
267.42	4.75
267.634	4.61
267.849	4.63
268.063	4.59
268.278	5.54
268.492	5.39
268.707	5.88
268.922	5.2
269.136	4.88
269.351	5.04
269.565	4.98
269.78	5.09
269.994	5.01
270.209	5.25
270.423	5.3
270.637	4.72
270.852	4.86
271.066	4.44
271.281	4.6
271.495	4.69
271.709	4.25
271.924	4.3
272.138	4.01
272.353	3.7
272.567	4.13
272.781	3.72
272.996	3.57
273.21	3.69
273.424	4.02
273.638	4.12
273.853	4.26
274.067	4.47
274.281	4.52
274.495	5
274.71	5.46
274.924	4.92
275.138	5.33
275.352	5.39
275.566	5.27
275.781	5.2
275.995	5.15
276.209	5.31
276.423	5.02
276.637	4.95
276.851	5.05
277.065	4.4
277.279	4.71
277.493	4.4
277.707	4.57
277.921	4.36
278.135	4.19
278.349	4.26
278.563	3.79
278.777	3.98
278.991	4.14
279.205	4.46
279.419	4.72
279.633	4.21
279.847	4.48
280.061	4.17
280.275	4.48
280.489	4.31
280.703	4.72
280.917	4.49
281.131	4.4
281.344	4.16
281.558	3.66
281.772	4.12
281.986	4.39
282.2	4.26
282.414	4.34
282.627	4.28
282.841	3.9
283.055	3.49
283.269	3.97
283.482	4.05
283.696	3.84
283.91	3.57
284.123	3.16
284.337	3.09
284.551	2.93
284.764	3.2
284.978	3.48
285.192	3.62
285.405	3.49
285.619	3.26
285.833	3.3
286.046	3.32
286.26	3.43
286.473	3.63
286.687	3.52
286.9	3.67
287.114	3.27
287.327	2.84
287.541	2.99
287.754	3.38
287.968	3.33
288.181	3.4
288.395	3.69
288.608	4.02
288.822	3.73
289.035	3.51
289.248	3.4
289.462	3.6
289.675	3.58
289.889	3.89
290.102	3.52
290.315	3.65
290.529	3.58
290.742	3.41
290.955	3.43
291.169	3.4
291.382	3.53
291.595	3.28
291.808	3.37
292.022	3.03
292.235	2.88
292.448	2.8
292.661	2.83
292.875	2.87
293.088	3.02
293.301	2.38
293.514	2.59
293.727	2.96
293.94	3.65
294.153	3.83
294.367	4.09
294.58	4.04
294.793	4.31
295.006	4.1
295.219	3.61
295.432	3.41
295.645	3.84
295.858	3.8
296.071	3.53
296.284	3.21
296.497	2.99
296.71	2.99
296.923	3.04
297.136	3.18
297.349	3.14
297.562	3.53
297.775	3.77
297.988	3.82
298.201	4
298.414	4.05
298.626	4.21
298.839	4.3
299.052	4.43
299.265	4.46
299.478	4.29
299.691	4.37
299.903	4.3
300.116	4.18
300.329	4.06
300.542	3.92
300.755	4.17
300.967	4.24
301.18	4.35
301.393	4.73
301.605	4.41
301.818	4.09
302.031	4.13
302.243	3.83
302.456	3.88
302.669	3.96
302.881	4.02
303.094	3.98
303.307	4.13
303.519	4.27
303.732	4.11
303.944	4.59
304.157	5.16
304.37	5.31
304.582	5.64
304.795	5.83
305.007	6.05
305.22	6.32
305.432	6.48
305.645	6.23
305.857	6.2
306.069	6.32
306.282	6.15
306.494	6.28
306.707	6.18
306.919	6.08
307.132	5.71
307.344	5.86
307.556	5.74
307.769	5.8
307.981	5.42
308.193	5.19
308.406	5.01
308.618	5.08
308.83	4.84
309.043	4.92
309.255	5.06
309.467	5.19
309.679	4.64
309.892	4.96
310.104	4.89
310.316	5.57
310.528	5.99
310.74	5.73
310.953	5.71
311.165	5.46
311.377	5.69
311.589	5.76
311.801	6.04
312.013	5.96
312.225	5.54
312.437	5.52
312.649	5.4
312.862	5.17
313.074	5.37
313.286	5.66
313.498	5.93
313.71	6.06
313.922	6.13
314.134	5.55
314.346	6.24
314.558	6.38
314.77	6.05
314.982	6.57
315.193	6.56
315.405	6.81
315.617	6.66
315.829	6.86
316.041	6.68
316.253	6.88
316.465	7.57
316.677	7.68
316.888	7.89
317.1	8.23
317.312	7.75
317.524	7.48
317.736	7.89
317.947	8.02
318.159	8.17
318.371	8.26
318.583	8.18
318.794	7.99
319.006	7.58
319.218	7.18
319.43	7.32
319.641	7.8
319.853	8.18
320.064	7.89
320.276	7.86
320.488	8.45
320.699	8.28
320.911	8.43
321.123	8.06
321.334	8.29
321.546	8.4
321.757	8.12
321.969	7.96
322.18	8.4
322.392	8.43
322.603	8.72
322.815	8.19
323.026	8.1
323.238	7.86
323.449	8.1
323.661	8.18
323.872	8.36
324.083	9.03
324.295	8.41
324.506	8.01
324.718	7.77
324.929	7.56
325.14	7.7
325.352	7.96
325.563	7.57
325.774	7.5
325.986	7.47
326.197	7.95
326.408	7.22
326.62	7.16
326.831	7.25
327.042	7.43
327.253	7.23
327.464	7.64
327.676	7.84
327.887	8.18
328.098	8.63
328.309	9.04
328.52	8.46
328.732	9.09
328.943	9.61
329.154	10.22
329.365	10.22
329.576	10.11
329.787	9.38
329.998	9.38
330.209	9.57
330.42	9.48
330.631	9.58
330.842	9.81
331.053	9.5
331.264	9.17
331.475	8.89
331.686	8.55
331.897	9.27
332.108	9.43
332.319	9.7
332.53	9.85
332.741	9.46
332.952	9.59
333.163	9.75
333.374	9.81
333.585	9.88
333.795	9.87
334.006	10.06
334.217	9.92
334.428	10.15
334.639	9.65
334.849	9.71
335.06	9.92
335.271	9.52
335.482	9.43
335.692	9.94
335.903	10.22
336.114	9.69
336.325	9.89
336.535	10.11
336.746	10.28
336.957	10.22
337.167	10.34
337.378	10.18
337.589	9.72
337.799	9.83
338.01	9.27
338.22	8.91
338.431	9.5
338.642	9.57
338.852	9.21
339.063	9.05
339.273	9.25
339.484	8.86
339.694	8.92
339.905	9.32
340.115	8.94
340.326	8.9
340.536	9.62
340.746	8.98
340.957	8.69
341.167	8.96
341.378	9.05
341.588	9.2
341.799	9.6
342.009	9.47
342.219	9.25
342.43	9.49
342.64	9.92
342.85	9.33
343.061	9.95
343.271	9.95
343.481	9.73
343.691	9.36
343.902	9.09
344.112	8.9
344.322	9.14
344.532	9.49
344.743	9.29
344.953	9.1
345.163	9.09
345.373	8.87
345.583	8.75
345.793	8.8
346.004	8.95
346.214	9.15
346.424	9.01
346.634	8.94
346.844	8.59
347.054	8.29
347.264	8.18
347.474	8.19
347.684	8.18
347.894	8.57
348.104	8.62
348.314	8.46
348.524	8.4
348.734	8.13
348.944	8.29
349.154	8.1
349.364	8.63
349.574	8.81
349.784	8.61
349.994	8.74
350.204	8.53
350.413	8.41
350.623	8.64
350.833	8.51
351.043	8.6
351.253	8.45
351.463	8.53
351.672	8.56
351.882	8.34
352.092	8.3
352.302	8.21
352.511	8.69
352.721	8.77
352.931	8.65
353.141	8.64
353.35	8.98
353.56	8.99
353.77	9.36
353.979	9.45
354.189	9.37
354.399	9.74
354.608	9.63
354.818	9.65
355.027	9.75
355.237	9.2
355.447	9.07
355.656	8.75
355.866	8.61
356.075	8.37
356.285	8.1
356.494	8.45
356.704	8.72
356.913	8.66
357.123	8.18
357.332	7.92
357.542	8.32
357.751	8.61
357.96	8.98
358.17	9.04
358.379	8.99
358.589	8.92
358.798	8.5
359.007	8.14
359.217	8.32
359.426	8.41
359.635	8.65
359.845	8.38
360.054	8.1
360.263	7.79
360.472	7.83
360.682	7.87
360.891	7.85
361.1	7.88
361.309	7.74
361.519	7.51
361.728	7.61
361.937	7.29
362.146	7.48
362.355	7.59
362.564	7.48
362.774	7.5
362.983	7.6
363.192	7.79
363.401	8.02
363.61	8.01
363.819	8.17
364.028	8.02
364.237	8.41
364.446	8.55
364.655	8.45
364.864	8.47
365.073	8.64
365.282	8.53
365.491	8.48
365.7	8.06
365.909	8.1
366.118	8.2
366.327	8.27
366.536	8.01
366.745	7.94
366.954	8.04
367.162	8.2
367.371	7.99
367.58	7.86
367.789	7.74
367.998	8.12
368.207	8.2
368.415	8.22
368.624	8.11
368.833	8.16
369.042	8.11
369.25	8.01
369.459	7.94
369.668	7.92
369.877	7.91
370.085	7.94
370.294	7.96
370.503	8
370.711	7.78
370.92	7.69
371.129	7.9
371.337	7.9
371.546	7.93
371.754	7.95
371.963	7.9
372.171	8.1
372.38	8.13
372.589	8.05
372.797	8.16
373.006	7.94
373.214	8.09
373.423	7.86
373.631	7.96
373.84	7.7
374.048	7.81
374.256	8.07
374.465	8.08
374.673	7.89
374.882	7.69
375.09	7.39
375.298	7.67
375.507	7.44
375.715	7.23
375.923	7.12
376.132	7.2
376.34	6.98
376.548	6.85
376.757	6.81
376.965	6.93
377.173	6.93
377.381	7.07
377.59	6.94
377.798	7.12
378.006	7.2
378.214	7.09
378.423	7.01
378.631	7.1
378.839	6.98
379.047	6.94
379.255	6.85
379.463	6.89
379.671	6.81
379.879	6.87
380.088	6.84
380.296	6.92
380.504	6.95
380.712	7.01
380.92	6.89
381.128	6.94
381.336	6.9
381.544	6.95
381.752	7.04
381.96	6.88
382.168	6.97
382.376	6.9
382.584	6.91
382.791	7.1
382.999	6.99
383.207	7.15
383.415	7.15
383.623	7.11
383.831	7.09
384.039	7.02
384.247	7.11
384.454	6.8
384.662	6.7
384.87	6.54
385.078	6.2
385.285	6.24
385.493	6.34
385.701	6.22
385.909	6.3
386.116	6.31
386.324	6.3
386.532	6.39
386.739	6.34
386.947	6.35
387.155	6.44
387.362	6.61
387.57	6.66
387.778	6.39
387.985	6.41
388.193	6.4
388.4	6.33
388.608	6.48
388.816	6.65
389.023	6.89
389.231	6.87
389.438	6.82
389.646	6.78
389.853	6.84
390.061	7
390.268	6.98
390.475	6.96
390.683	6.9
390.89	6.67
391.098	6.25
391.305	6.16
391.512	6.24
391.72	6.22
391.927	6.15
392.135	6.15
392.342	6.05
392.549	6.05
392.756	6
392.964	5.92
393.171	6.12
393.378	6.24
393.586	6.17
393.793	6.15
394	6.12
394.207	6.04
394.414	6.25
394.622	6.13
394.829	6.1
395.036	6.2
395.243	6.3
395.45	6.02
395.657	6.32
395.864	6.64
396.072	6.61
396.279	6.8
396.486	6.98
396.693	6.81
396.9	6.94
397.107	6.92
397.314	6.87
397.521	6.88
397.728	6.96
397.935	6.81
398.142	6.51
398.349	6.58
398.556	6.52
398.763	6.48
398.97	6.53
399.177	6.47
399.383	6.55
399.59	6.37
399.797	6.59
400.004	6.47
400.211	6.1
400.418	6.41
400.625	6.37
400.831	6.38
401.038	6.41
401.245	6.1
401.452	6.11
401.658	6.11
401.865	6.24
402.072	6.23
402.279	6.4
402.485	6.63
402.692	6.28
402.899	6.46
403.105	6.45
403.312	6.57
403.519	6.83
403.725	6.81
403.932	6.87
404.138	6.99
404.345	6.87
404.552	6.91
404.758	6.89
404.965	6.98
405.171	6.92
405.378	6.75
405.584	6.67
405.791	6.56
405.997	6.56
406.204	6.71
406.41	6.62
406.617	6.56
406.823	6.61
407.029	6.56
407.236	6.61
407.442	6.48
407.649	6.69
407.855	6.54
408.061	6.35
408.268	6.37
408.474	5.98
408.68	5.96
408.887	5.92
409.093	5.77
409.299	5.89
409.505	5.9
409.712	5.9
409.918	5.65
410.124	5.78
410.33	6.11
410.537	6.18
410.743	6.44
410.949	6.43
411.155	6.56
411.361	6.57
411.567	6.54
411.773	6.65
411.98	6.72
412.186	7.06
412.392	7.03
412.598	6.98
412.804	7
413.01	7.01
413.216	7.07
413.422	7
413.628	7.32
413.834	7.39
414.04	7.38
414.246	7.31
414.452	7.34
414.658	7.45
414.864	7.54
415.07	7.54
415.275	7.55
415.481	7.47
415.687	7.42
415.893	7.25
416.099	7.31
416.305	7.25
416.511	7.35
416.716	7.27
416.922	7.2
417.128	7.06
417.334	6.95
417.539	6.77
417.745	6.86
417.951	7
418.157	6.89
418.362	6.8
418.568	6.8
418.774	6.76
418.979	6.69
419.185	6.71
419.391	6.7
419.596	6.71
419.802	6.75
420.008	6.68
420.213	6.73
420.419	6.78
420.624	6.88
420.83	6.8
421.035	6.73
421.241	6.78
421.446	6.71
421.652	6.73
421.857	6.78
422.063	6.77
422.268	6.81
422.474	6.74
422.679	6.76
422.885	6.7
423.09	6.77
423.295	6.86
423.501	6.78
423.706	6.79
423.911	6.84
424.117	6.89
424.322	6.92
424.527	6.86
424.733	6.88
424.938	6.94
425.143	7.02
425.349	6.98
425.554	6.95
425.759	7.06
425.964	7.04
426.169	7
426.375	6.95
426.58	6.86
426.785	6.98
426.99	6.88
427.195	6.77
427.4	6.7
427.605	6.79
427.811	6.84
428.016	6.75
428.221	6.88
428.426	6.98
428.631	7.11
428.836	7.17
429.041	7.15
429.246	7.21
429.451	7.34
429.656	7.28
429.861	7.34
430.066	7.4
430.271	7.61
430.476	7.59
430.681	7.52
430.886	7.4
431.09	7.6
431.295	7.63
431.5	7.55
431.705	7.59
431.91	7.66
432.115	7.58
432.32	7.68
432.524	7.57
432.729	7.68
432.934	7.67
433.139	7.66
433.343	7.56
433.548	7.51
433.753	7.57
433.958	7.56
434.162	7.51
434.367	7.62
434.572	7.58
434.776	7.59
434.981	7.56
435.186	7.59
435.39	7.61
435.595	7.59
435.799	7.8
436.004	7.87
436.209	7.88
436.413	7.95
436.618	7.93
436.822	7.91
437.027	7.88
437.231	7.9
437.436	7.95
437.64	7.93
437.845	8.12
438.049	7.97
438.253	7.98
438.458	7.93
438.662	7.97
438.867	7.91
439.071	7.85
439.275	7.94
439.48	7.91
439.684	7.84
439.888	7.93
440.093	7.87
440.297	7.9
440.501	8
440.706	8.07
440.91	8.11
441.114	8.17
441.318	8.22
441.523	8.2
441.727	8.18
441.931	8.24
442.135	8.32
442.339	8.38
442.543	8.3
442.748	8.25
442.952	8.11
443.156	8
443.36	8.01
443.564	8.09
443.768	8.06
443.972	8.25
444.176	8.27
444.38	8.16
444.584	8.09
444.788	8.17
444.992	8.15
445.196	8.17
445.4	8.17
445.604	8.09
445.808	8.08
446.012	8.14
446.216	7.99
446.42	8.03
446.624	8.05
446.828	8.08
447.032	8.07
447.235	8.08
447.439	8.1
447.643	8.07
447.847	8.19
448.051	8.12
448.254	8.07
448.458	8.09
448.662	8.01
448.866	8.04
449.069	8.01
449.273	8.1
449.477	8.13
449.681	8.13
449.884	8.11
450.088	7.99
450.292	8.15
450.495	8.13
450.699	8
450.902	8.07
451.106	8.15
451.31	8.13
451.513	8.02
451.717	7.97
451.92	8.08
452.124	8.22
452.327	8.27
452.531	8.23
452.734	8.25
452.938	8.44
453.141	8.39
453.345	8.42
453.548	8.38
453.752	8.54
453.955	8.57
454.158	8.51
454.362	8.59
454.565	8.64
454.769	8.45
454.972	8.52
455.175	8.56
455.379	8.61
455.582	8.51
455.785	8.52
455.988	8.37
456.192	8.34
456.395	8.34
456.598	8.38
456.801	8.4
457.005	8.47
457.208	8.39
457.411	8.37
457.614	8.26
457.817	8.17
458.021	8.2
458.224	8.28
458.427	8.32
458.63	8.37
458.833	8.34
459.036	8.23
459.239	8.25
459.442	8.25
459.645	8.22
459.848	8.28
460.051	8.3
460.254	8.31
460.457	8.27
460.66	8.21
460.863	8.17
461.066	8.13
461.269	8.14
461.472	8.12
461.675	8.06
461.878	8.07
462.081	8.11
462.284	8.11
462.486	8.2
462.689	8.19
462.892	8.21
463.095	8.27
463.298	8.22
463.5	8.27
463.703	8.25
463.906	8.23
464.109	8.26
464.311	8.16
464.514	8.12
464.717	8.06
464.92	8
465.122	8.11
465.325	8.12
465.528	8.19
465.73	8.17
465.933	8.13
466.135	8.23
466.338	8.21
466.541	8.19
466.743	8.3
466.946	8.36
467.148	8.45
467.351	8.32
467.553	8.23
467.756	8.14
467.958	8.19
468.161	8.37
468.363	8.49
468.566	8.53
468.768	8.64
468.971	8.64
469.173	8.52
469.375	8.54
469.578	8.62
469.78	8.66
469.983	8.74
470.185	8.72
470.387	8.6
470.59	8.44
470.792	8.35
470.994	8.37
471.196	8.39
471.399	8.41
471.601	8.26
471.803	8.25
472.005	8.28
472.208	8.29
472.41	8.33
472.612	8.35
472.814	8.39
473.016	8.44
473.218	8.37
473.421	8.38
473.623	8.43
473.825	8.49
474.027	8.45
474.229	8.43
474.431	8.34
474.633	8.36
474.835	8.36
475.037	8.37
475.239	8.33
475.441	8.34
475.643	8.31
475.845	8.36
476.047	8.43
476.249	8.5
476.451	8.55
476.653	8.55
476.855	8.61
477.057	8.53
477.258	8.47
477.46	8.57
477.662	8.6
477.864	8.51
478.066	8.48
478.268	8.56
478.469	8.51
478.671	8.51
478.873	8.57
479.075	8.43
479.276	8.53
479.478	8.62
479.68	8.6
479.882	8.69
480.083	8.79
480.285	8.8
480.487	8.65
480.688	8.72
480.89	8.83
481.091	8.78
481.293	8.86
481.495	8.83
481.696	8.79
481.898	8.75
482.099	8.63
482.301	8.55
482.502	8.48
482.704	8.5
482.905	8.44
483.107	8.34
483.308	8.34
483.51	8.28
483.711	8.28
483.913	8.28
484.114	8.29
484.315	8.3
484.517	8.34
484.718	8.35
484.92	8.35
485.121	8.37
485.322	8.41
485.524	8.42
485.725	8.45
485.926	8.46
486.127	8.48
486.329	8.4
486.53	8.39
486.731	8.41
486.932	8.41
487.134	8.39
487.335	8.39
487.536	8.39
487.737	8.44
487.938	8.48
488.139	8.48
488.341	8.45
488.542	8.51
488.743	8.51
488.944	8.46
489.145	8.51
489.346	8.54
489.547	8.54
489.748	8.58
489.949	8.54
490.15	8.56
490.351	8.52
490.552	8.52
490.753	8.53
490.954	8.57
491.155	8.54
491.356	8.53
491.557	8.52
491.758	8.56
491.959	8.52
492.159	8.49
492.36	8.5
492.561	8.57
492.762	8.59
492.963	8.58
493.164	8.58
493.364	8.61
493.565	8.6
493.766	8.62
493.967	8.57
494.167	8.54
494.368	8.57
494.569	8.51
494.769	8.42
494.97	8.52
495.171	8.53
495.371	8.59
495.572	8.66
495.773	8.72
495.973	8.71
496.174	8.73
496.375	8.81
496.575	8.75
496.776	8.76
496.976	8.76
497.177	8.69
497.377	8.71
497.578	8.7
497.778	8.7
497.979	8.69
498.179	8.78
498.38	8.77
498.58	8.76
498.78	8.79
498.981	8.79
499.181	8.83
499.382	8.87
499.582	8.92
499.782	8.96
499.983	9.05
500.183	9.06
500.383	8.99
500.584	9.01
500.784	8.97
500.984	9.08
501.184	9.08
501.385	9.06
501.585	9.09
501.785	9
501.985	8.97
502.185	8.93
502.386	8.94
502.586	8.96
502.786	9.02
502.986	9.07
503.186	8.99
503.386	9.06
503.586	9.13
503.786	9.14
503.987	9.25
504.187	9.31
504.387	9.26
504.587	9.28
504.787	9.27
504.987	9.15
505.187	9.18
505.387	9.36
505.587	9.28
505.786	9.3
505.986	9.34
506.186	9.26
506.386	9.23
506.586	9.37
506.786	9.36
506.986	9.47
507.186	9.63
507.386	9.55
507.585	9.55
507.785	9.61
507.985	9.7
508.185	9.69
508.384	9.83
508.584	9.78
508.784	9.75
508.984	9.79
509.183	9.84
509.383	9.81
509.583	9.91
509.782	9.78
509.982	9.81
510.182	9.82
510.381	9.85
510.581	9.79
510.781	9.78
510.98	9.73
511.18	9.65
511.379	9.57
511.579	9.58
511.778	9.59
511.978	9.6
512.177	9.62
512.377	9.5
512.576	9.48
512.776	9.54
512.975	9.58
513.175	9.6
513.374	9.72
513.573	9.75
513.773	9.84
513.972	9.81
514.172	9.89
514.371	9.97
514.57	10.1
514.77	10.11
514.969	10.13
515.168	10.22
515.367	10.24
515.567	10.17
515.766	10.14
515.965	10.14
516.164	10.28
516.364	10.26
516.563	10.27
516.762	10.32
516.961	10.33
517.16	10.34
517.359	10.3
517.559	10.36
517.758	10.36
517.957	10.44
518.156	10.5
518.355	10.49
518.554	10.56
518.753	10.6
518.952	10.55
519.151	10.63
519.35	10.6
519.549	10.7
519.748	10.71
519.947	10.85
520.146	10.89
520.345	10.83
520.544	10.83
520.743	10.87
520.942	10.82
521.141	10.87
521.339	10.83
521.538	10.86
521.737	10.87
521.936	10.9
522.135	10.92
522.333	10.87
522.532	10.93
522.731	10.91
522.93	11.01
523.129	11.11
523.327	11.25
523.526	11.32
523.725	11.3
523.923	11.28
524.122	11.36
524.321	11.32
524.519	11.41
524.718	11.44
524.917	11.44
525.115	11.42
525.314	11.4
525.512	11.33
525.711	11.39
525.909	11.47
526.108	11.53
526.306	11.54
526.505	11.61
526.703	11.63
526.902	11.65
527.1	11.73
527.299	11.75
527.497	11.77
527.696	11.77
527.894	11.75
528.092	11.74
528.291	11.81
528.489	11.79
528.688	11.81
528.886	11.84
529.084	11.86
529.283	11.86
529.481	11.85
529.679	11.87
529.877	11.93
530.076	11.99
530.274	12.05
530.472	12.04
530.67	12.11
530.869	12.15
531.067	12.15
531.265	12.22
531.463	12.3
531.661	12.39
531.859	12.46
532.057	12.51
532.255	12.52
532.454	12.55
532.652	12.56
532.85	12.55
533.048	12.56
533.246	12.57
533.444	12.6
533.642	12.58
533.84	12.56
534.038	12.59
534.236	12.61
534.434	12.61
534.632	12.66
534.83	12.74
535.027	12.85
535.225	12.94
535.423	13
535.621	12.97
535.819	13.06
536.017	13.12
536.215	13.19
536.412	13.24
536.61	13.32
536.808	13.34
537.006	13.36
537.203	13.31
537.401	13.31
537.599	13.42
537.797	13.53
537.994	13.63
538.192	13.7
538.39	13.74
538.587	13.76
538.785	13.86
538.983	13.88
539.18	13.97
539.378	14.09
539.575	14.2
539.773	14.21
539.97	14.26
540.168	14.34
540.366	14.4
540.563	14.37
540.761	14.36
540.958	14.35
541.155	14.38
541.353	14.35
541.55	14.37
541.748	14.37
541.945	14.44
542.143	14.41
542.34	14.34
542.537	14.35
542.735	14.44
542.932	14.53
543.129	14.51
543.327	14.65
543.524	14.79
543.721	14.87
543.919	14.97
544.116	15.04
544.313	15.14
544.51	15.34
544.708	15.48
544.905	15.52
545.102	15.65
545.299	15.85
545.496	15.91
545.693	15.84
545.891	15.87
546.088	15.77
546.285	15.72
546.482	15.63
546.679	15.57
546.876	15.55
547.073	15.49
547.27	15.41
547.467	15.34
547.664	15.31
547.861	15.25
548.058	15.16
548.255	15.2
548.452	15.25
548.649	15.36
548.846	15.36
549.043	15.21
549.24	15.29
549.437	15.24
549.633	15.16
549.83	15.12
550.027	15.3
550.224	15.38
550.421	15.41
550.618	15.38
550.814	15.44
551.011	15.39
551.208	15.38
551.405	15.43
551.601	15.51
551.798	15.6
551.995	15.51
552.191	15.4
552.388	15.51
552.585	15.55
552.781	15.49
552.978	15.45
553.175	15.5
553.371	15.53
553.568	15.45
553.764	15.43
553.961	15.42
554.157	15.42
554.354	15.49
554.55	15.33
554.747	15.34
554.943	15.33
555.14	15.36
555.336	15.29
555.533	15.31
555.729	15.3
555.926	15.24
556.122	15.19
556.318	15.23
556.515	15.27
556.711	15.28
556.907	15.18
557.104	15.19
557.3	15.2
557.496	15.24
557.693	15.23
557.889	15.35
558.085	15.33
558.281	15.37
558.478	15.45
558.674	15.29
558.87	15.42
559.066	15.53
559.262	15.47
559.459	15.36
559.655	15.41
559.851	15.37
560.047	15.4
560.243	15.57
560.439	15.57
560.635	15.57
560.831	15.74
561.027	15.76
561.223	15.77
561.419	15.85
561.615	16.01
561.811	15.88
562.007	15.85
562.203	15.77
562.399	15.68
562.595	15.62
562.791	15.73
562.987	15.72
563.183	15.54
563.379	15.51
563.575	15.5
563.771	15.39
563.966	15.37
564.162	15.58
564.358	15.49
564.554	15.57
564.75	15.69
564.945	15.4
565.141	15.49
565.337	15.58
565.533	15.54
565.728	15.58
565.924	15.57
566.12	15.68
566.315	15.6
566.511	15.68
566.707	15.46
566.902	15.46
567.098	15.64
567.293	15.49
567.489	15.53
567.684	15.61
567.88	15.58
568.076	15.56
568.271	15.66
568.467	15.69
568.662	15.79
568.858	16
569.053	15.97
569.248	15.92
569.444	16.04
569.639	15.98
569.835	15.94
570.03	15.96
570.225	16.08
570.421	16.02
570.616	15.98
570.812	16
571.007	15.94
571.202	15.92
571.397	15.97
571.593	16.02
571.788	16
571.983	16.11
572.178	16.26
572.374	16.29
572.569	16.28
572.764	16.34
572.959	16.4
573.154	16.51
573.35	16.61
573.545	16.73
573.74	16.56
573.935	16.65
574.13	16.59
574.325	16.5
574.52	16.48
574.715	16.49
574.91	16.58
575.105	16.64
575.3	16.67
575.495	16.68
575.69	16.61
575.885	16.66
576.08	16.67
576.275	16.83
576.47	16.87
576.665	17.02
576.86	17.2
577.055	17.21
577.25	17.19
577.444	17.22
577.639	17.23
577.834	17.26
578.029	17.56
578.224	17.61
578.418	17.46
578.613	17.57
578.808	17.6
579.003	17.5
579.197	17.55
579.392	17.48
579.587	17.52
579.781	17.51
579.976	17.55
580.171	17.48
580.365	17.46
580.56	17.51
580.755	17.44
580.949	17.36
581.144	17.35
581.338	17.34
581.533	17.3
581.727	17.26
581.922	17.06
582.116	17.06
582.311	17.07
582.505	17.31
582.7	17.15
582.894	17.15
583.089	17.19
583.283	17.46
583.478	17.59
583.672	17.58
583.866	17.59
584.061	17.7
584.255	17.59
584.449	17.59
584.644	17.63
584.838	17.83
585.032	18.03
585.226	17.94
585.421	17.68
585.615	17.5
585.809	17.78
586.003	17.93
586.198	18.27
586.392	18.36
586.586	18.28
586.78	18.12
586.974	18.08
587.168	17.98
587.363	18.03
587.557	18.13
587.751	18.19
587.945	18.12
588.139	17.99
588.333	17.76
588.527	17.91
588.721	17.77
588.915	17.79
589.109	17.86
589.303	17.87
589.497	17.79
589.691	17.78
589.885	17.78
590.079	17.6
590.273	17.59
590.466	17.69
590.66	17.65
590.854	17.74
591.048	17.77
591.242	17.79
591.436	17.84
591.629	17.94
591.823	17.88
592.017	18.06
592.211	18.18
592.404	18.28
592.598	18.29
592.792	18.29
592.986	18.5
593.179	18.45
593.373	18.42
593.567	18.35
593.76	18.34
593.954	18.56
594.147	18.38
594.341	18.25
594.535	18.13
594.728	17.95
594.922	17.85
595.115	17.68
595.309	17.68
595.502	17.67
595.696	17.63
595.889	17.53
596.083	17.39
596.276	17.33
596.47	17.27
596.663	17.28
596.856	17.35
597.05	17.34
597.243	17.35
597.437	17.27
597.63	17.34
597.823	17.41
598.017	17.36
598.21	17.42
598.403	17.48
598.596	17.61
598.79	17.47
598.983	17.41
599.176	17.46
599.369	17.48
599.563	17.58
599.756	17.55
599.949	17.51
600.142	17.74
600.335	17.58
600.528	17.6
600.722	17.65
600.915	17.84
601.108	17.98
601.301	17.93
601.494	18.02
601.687	17.98
601.88	18.07
602.073	18.13
602.266	18.09
602.459	18.18
602.652	18.08
602.845	18.09
603.038	18.06
603.231	18.02
603.424	18.02
603.617	17.94
603.809	17.92
604.002	17.77
604.195	17.58
604.388	17.55
604.581	17.58
604.774	17.62
604.966	17.54
605.159	17.66
605.352	17.84
605.545	17.95
605.737	17.9
605.93	18
606.123	17.98
606.316	18.18
606.508	18.3
606.701	18.33
606.894	18.45
607.086	18.79
607.279	18.73
607.471	18.45
607.664	18.61
607.857	18.95
608.049	19.26
608.242	19.42
608.434	19.68
608.627	20.06
608.819	20.4
609.012	20.84
609.204	21.14
609.397	21.78
609.589	22.69
609.782	23.36
609.974	24
610.166	24.63
610.359	25.45
610.551	26.09
610.743	26.57
610.936	27.27
611.128	27.63
611.32	28.1
611.513	28.35
611.705	28.18
611.897	28.01
612.09	27.91
612.282	27.65
612.474	27.27
612.666	26.95
612.858	26.66
613.051	26.24
613.243	25.99
613.435	25.5
613.627	25.1
613.819	25.06
614.011	25.02
614.203	24.64
614.395	24.4
614.588	24.07
614.78	23.59
614.972	23.11
615.164	22.78
615.356	22.53
615.548	22.32
615.74	22.15
615.932	21.67
616.124	21.27
616.315	21.1
616.507	20.7
616.699	20.6
616.891	20.58
617.083	20.42
617.275	19.99
617.467	19.8
617.659	19.6
617.85	19.33
618.042	19.07
618.234	18.7
618.426	18.56
618.618	18.67
618.809	18.81
619.001	18.89
619.193	19.1
619.384	19.23
619.576	19.08
619.768	18.95
619.959	19.04
620.151	19.18
620.343	19.38
620.534	19.39
620.726	19.33
620.917	19.22
621.109	19
621.301	18.93
621.492	19.09
621.684	19.17
621.875	19.23
622.067	19.19
622.258	19.26
622.45	19.12
622.641	19.21
622.832	19.2
623.024	19.11
623.215	19.14
623.407	19.06
623.598	19.04
623.789	19.17
623.981	19.3
624.172	19.5
624.363	19.52
624.555	19.82
624.746	19.68
624.937	19.73
625.129	19.64
625.32	19.85
625.511	19.71
625.702	19.66
625.893	19.58
626.085	19.48
626.276	19.34
626.467	19.28
626.658	19.12
626.849	19.04
627.04	18.83
627.231	18.98
627.422	18.95
627.614	19.1
627.805	19.08
627.996	19.09
628.187	19.15
628.378	19.22
628.569	19.41
628.76	19.47
628.951	19.62
629.142	19.99
629.332	20.06
629.523	20.08
629.714	20.24
629.905	20.44
630.096	20.71
630.287	20.87
630.478	21.06
630.669	21.08
630.859	20.94
631.05	20.97
631.241	20.76
631.432	20.67
631.623	20.62
631.813	20.38
632.004	20.3
632.195	20.05
632.385	19.76
632.576	19.4
632.767	19.01
632.957	19.12
633.148	18.97
633.339	18.76
633.529	18.7
633.72	18.69
633.91	18.7
634.101	18.54
634.292	18.33
634.482	18.37
634.673	18.43
634.863	18.59
635.054	18.49
635.244	18.53
635.435	18.65
635.625	18.76
635.815	18.65
636.006	18.36
636.196	18.31
636.387	18.3
636.577	18.27
636.767	18.43
636.958	18.44
637.148	18.31
637.338	18.52
637.529	18.57
637.719	18.3
637.909	18.24
638.099	18.4
638.29	18.3
638.48	18.37
638.67	18.68
638.86	18.62
639.05	18.5
639.241	18.74
639.431	18.43
639.621	18.34
639.811	18.38
640.001	18.43
640.191	18.37
640.381	18.49
640.571	18.63
640.761	18.17
640.951	18.09
641.141	18.21
641.331	18.13
641.521	18.09
641.711	18.19
641.901	18.58
642.091	18.64
642.281	18.86
642.471	18.85
642.661	18.78
642.851	19.18
643.041	19.23
643.231	19.02
643.42	19.03
643.61	19.22
643.8	19.19
643.99	18.96
644.18	19.03
644.369	18.86
644.559	19.16
644.749	19.32
644.939	19.13
645.128	18.98
645.318	19.14
645.508	19.52
645.697	19.67
645.887	19.58
646.076	19.52
646.266	19.36
646.456	19.55
646.645	19.1
646.835	19.13
647.024	19.01
647.214	18.89
647.403	19.13
647.593	18.62
647.782	18.51
647.972	18.63
648.161	18.93
648.351	19.18
648.54	19.19
648.73	19.52
648.919	19.54
649.108	19.93
649.298	20.26
649.487	20.24
649.677	20.48
649.866	20.6
650.055	20.78
650.244	20.47
650.434	20.45
650.623	20.39
650.812	20.37
651.002	20.11
651.191	19.85
651.38	19.77
651.569	19.69
651.758	19.52
651.947	19.24
652.137	19.27
652.326	19.2
652.515	19.22
652.704	19.23
652.893	19.12
653.082	19.25
653.271	19.26
653.46	19.37
653.649	19.47
653.838	19.68
654.027	19.89
654.216	19.48
654.405	19.42
654.594	19.61
654.783	19.59
654.972	19.75
655.161	19.67
655.35	19.7
655.539	19.67
655.728	19.46
655.916	19.11
656.105	18.98
656.294	19.34
656.483	19.35
656.672	19.05
656.86	19
657.049	18.8
657.238	18.77
657.427	18.64
657.615	18.48
657.804	18.35
657.993	18.18
658.181	18.27
658.37	18.16
658.559	18.44
658.747	18.49
658.936	18.52
659.125	18.19
659.313	18.13
659.502	18.35
659.69	18.26
659.879	18.37
660.067	18.79
660.256	18.85
660.444	18.9
660.633	18.8
660.821	18.84
661.01	18.7
661.198	19.07
661.387	19.18
661.575	19.03
661.763	19.28
661.952	19.53
662.14	19.34
662.328	19.19
662.517	19.41
662.705	19.46
662.893	19.48
663.082	19.62
663.27	19.82
663.458	20.01
663.646	20.18
663.834	20.02
664.023	19.72
664.211	19.92
664.399	19.88
664.587	19.41
664.775	19.38
664.963	19.25
665.152	19.46
665.34	19.41
665.528	19.25
665.716	19.06
665.904	19.23
666.092	19.35
666.28	19.21
666.468	19.23
666.656	19.33
666.844	19.18
667.032	19.06
667.22	18.94
667.408	18.82
667.596	19.08
667.784	19.15
667.971	19.17
668.159	19.17
668.347	19.06
668.535	18.98
668.723	18.92
668.911	19.18
669.098	19.13
669.286	19.3
669.474	19.34
669.662	19.25
669.849	19.35
670.037	19.21
670.225	19.19
670.413	19.28
670.6	19.26
670.788	19.39
670.976	19.57
671.163	19.92
671.351	19.75
671.538	19.57
671.726	19.36
671.913	19.28
672.101	19.13
672.289	18.96
672.476	18.89
672.664	19.08
672.851	19.16
673.039	18.86
673.226	18.74
673.413	18.53
673.601	18.28
673.788	18.49
673.976	18.44
674.163	18.49
674.35	18.75
674.538	19.01
674.725	18.97
674.912	19.01
675.1	18.9
675.287	19.1
675.474	19.54
675.662	19.67
675.849	19.78
676.036	19.61
676.223	19.45
676.411	19.45
676.598	19.28
676.785	19.41
676.972	19.12
677.159	19.27
677.346	18.95
677.533	18.77
677.721	19.12
677.908	18.99
678.095	19.28
678.282	19.48
678.469	19.54
678.656	19.61
678.843	19.52
679.03	19.62
679.217	19.75
679.404	19.86
679.591	19.85
679.778	19.82
679.964	19.87
680.151	19.71
680.338	19.41
680.525	19.3
680.712	19.13
680.899	19.28
681.086	19.42
681.272	19.27
681.459	18.99
681.646	18.92
681.833	18.97
682.02	18.84
682.206	18.99
682.393	19.5
682.58	19.51
682.766	19.67
682.953	19.31
683.14	19.13
683.326	19.04
683.513	19.52
683.7	19.76
683.886	19.92
684.073	19.88
684.259	19.78
684.446	19.53
684.632	19.55
684.819	19.54
685.005	19.79
685.192	19.65
685.378	19.91
685.565	19.71
685.751	19.92
685.938	19.53
686.124	19.75
686.31	19.69
686.497	19.87
686.683	19.69
686.87	19.91
687.056	20.08
687.242	20.17
687.429	20
687.615	20.01
687.801	19.81
687.987	19.79
688.174	19.94
688.36	19.95
688.546	19.85
688.732	19.9
688.918	19.38
689.105	19.36
689.291	19.28
689.477	19.19
689.663	19.25
689.849	19.13
690.035	19.37
690.221	19.17
690.407	19.41
690.593	19.39
690.779	19.48
690.965	19.8
691.151	19.64
691.337	20.31
691.523	20.5
691.709	20.49
691.895	20.45
692.081	20.39
692.267	20.28
692.453	20.28
692.639	20.33
692.825	20.31
693.011	20.6
693.196	20.83
693.382	20.46
693.568	20.41
693.754	20.29
693.94	20.44
694.125	20.43
694.311	20.66
694.497	20.49
694.682	20.7
694.868	20.9
695.054	20.73
695.239	20.76
695.425	20.66
695.611	20.8
695.796	20.7
695.982	20.63
696.168	20.66
696.353	20.59
696.539	20.75
696.724	20.78
696.91	20.7
697.095	20.65
697.281	20.46
697.466	20.63
697.652	20.36
697.837	20.24
698.023	20.07
698.208	20.06
698.393	20.09
698.579	19.9
698.764	19.73
698.949	19.42
699.135	19.48
699.32	19.45
699.505	19.25
699.691	19.34
699.876	19.64
700.061	19.66
700.246	19.52
700.432	19.69
700.617	19.77
700.802	19.79
700.987	20.06
701.172	20.62
701.358	20.78
701.543	20.88
701.728	21.04
701.913	20.89
702.098	20.92
702.283	21.02
702.468	20.72
702.653	20.89
702.838	21.34
703.023	21.72
703.208	21.49
703.393	21.46
703.578	21.75
703.763	22.26
703.948	22.76
704.133	23.16
704.318	23.37
704.503	23.86
704.688	24.09
704.873	23.91
705.057	24.35
705.242	23.87
705.427	24.21
705.612	24.23
705.797	23.91
705.981	23.77
706.166	23.85
706.351	24.16
706.536	23.99
706.72	23.98
706.905	24.15
707.09	24.05
707.274	24.18
707.459	24.26
707.644	24.67
707.828	24.72
708.013	24.36
708.197	24.46
708.382	24.16
708.567	24.42
708.751	24.38
708.936	24.02
709.12	23.93
709.305	23.67
709.489	23.57
709.673	23.18
709.858	23.11
710.042	23.68
710.227	23.8
710.411	23.95
710.596	24.05
710.78	24.11
710.964	24.07
711.149	23.5
711.333	23.99
711.517	24.03
711.702	24.21
711.886	24.1
712.07	23.85
712.254	23.27
712.438	23.26
712.623	22.61
712.807	22.34
712.991	22.35
713.175	22.17
713.359	21.81
713.544	22.08
713.728	21.35
713.912	21.19
714.096	20.79
714.28	20.81
714.464	20.6
714.648	20.81
714.832	20.6
715.016	20.77
715.2	20.76
715.384	21.07
715.568	20.16
715.752	20.15
715.936	20.01
716.12	19.93
716.304	19.97
716.488	19.69
716.671	19.29
716.855	19.51
717.039	19.06
717.223	19.21
717.407	18.86
717.59	19.18
717.774	19.59
717.958	19.79
718.142	20.24
718.325	20.1
718.509	20.39
718.693	20.54
718.877	20.74
719.06	21.03
719.244	21.05
719.428	20.94
719.611	20.9
719.795	20.41
719.978	20.11
720.162	19.93
720.345	19.93
720.529	19.9
720.713	20.02
720.896	19.75
721.08	19.68
721.263	20.02
721.446	20.18
721.63	19.57
721.813	20.08
721.997	20.23
722.18	19.93
722.364	20.4
722.547	20.32
722.73	20.29
722.914	19.85
723.097	20.21
723.28	19.63
723.464	19.42
723.647	20.22
723.83	20.12
724.013	20.25
724.197	20.84
724.38	20.75
724.563	21.09
724.746	21.13
724.929	21.32
725.112	21.16
725.296	21.32
725.479	21.37
725.662	21.42
725.845	21.83
726.028	21.64
726.211	21
726.394	20.82
726.577	20.23
726.76	19.91
726.943	20.3
727.126	20.47
727.309	20.73
727.492	20.7
727.675	20.41
727.858	19.8
728.041	19.83
728.224	19.97
728.407	19.75
728.589	20.01
728.772	20.14
728.955	20.19
729.138	20.07
729.321	19.97
729.503	20.32
729.686	20.06
729.869	20.21
730.052	20.53
730.234	20.29
730.417	20.24
730.6	20.19
730.782	20.12
730.965	19.88
731.148	19.94
731.33	20.45
731.513	20.16
731.695	20.24
731.878	20.72
732.061	20.58
732.243	21.14
732.426	21.52
732.608	21.93
732.791	22.09
732.973	22.18
733.156	22
733.338	21.76
733.52	21.99
733.703	22.45
733.885	22.41
734.068	22.61
734.25	22.11
734.432	22.27
734.615	21.84
734.797	22.01
734.979	21.76
735.162	21.9
735.344	22.68
735.526	22.58
735.708	22.09
735.891	21.89
736.073	22.18
736.255	23.39
736.437	23.2
736.619	23.59
736.802	23.39
736.984	23.82
737.166	24.28
737.348	23.46
737.53	23.73
737.712	24.68
737.894	24.04
738.076	24.06
738.258	23.11
738.44	23
738.622	23.32
738.804	23.56
738.986	23.55
739.168	23
739.35	22.65
739.532	21.91
739.714	21.7
739.896	21.91
740.078	21.16
740.259	20.86
740.441	20.92
740.623	20.94
740.805	20.95
740.987	21.24
741.168	21.6
741.35	22.12
741.532	22.29
741.714	22.24
741.895	22.15
742.077	22.38
742.259	22.54
742.44	22.91
742.622	22.32
742.804	22.29
742.985	22.15
743.167	22.04
743.348	21.67
743.53	22.1
743.711	21.7
743.893	22.73
744.075	22.92
744.256	24.04
744.438	23.53
744.619	24.33
744.8	24.11
744.982	24.33
745.163	24.47
745.345	24.82
745.526	25.03
745.707	25.23
745.889	24.64
746.07	24.64
746.252	24.1
746.433	25.45
746.614	25.49
746.795	25.97
746.977	25.19
747.158	24.69
747.339	24.34
747.52	23.69
747.702	23.89
747.883	24.09
748.064	23.92
748.245	23.82
748.426	23
748.607	22.85
748.788	22.36
748.97	22.97
749.151	23.34
749.332	23.43
749.513	23.95
749.694	23.64
749.875	24.06
750.056	23.99
750.237	23.97
750.418	23.88
750.599	22.57
750.78	22.38
750.96	21.86
751.141	21.8
751.322	21.74
751.503	21.94
751.684	21.66
751.865	20.8
752.046	20.55
752.226	20.93
752.407	21.29
752.588	21.78
752.769	22.14
752.949	22.32
753.13	22.5
753.311	22.62
753.492	22.55
753.672	23.15
753.853	23.84
754.034	24.65
754.214	25.02
754.395	24.09
754.575	24.56
754.756	24.56
754.937	24.61
755.117	24.86
755.298	24.69
755.478	24.78
755.659	25.17
755.839	24.14
756.02	23.39
756.2	22.91
756.381	23.35
756.561	23.35
756.741	23.38
756.922	23.23
757.102	22.67
757.283	23.09
757.463	22.94
757.643	22.56
757.823	23.44
758.004	24.09
758.184	23.71
758.364	23.46
758.545	23.64
758.725	24.11
758.905	24.53
759.085	24.11
759.265	23.23
759.446	23.35
759.626	22.82
759.806	22.09
759.986	22.74
760.166	22.85
760.346	23.1
760.526	22.84
760.706	21.76
760.886	21.2
761.066	22.12
761.246	23.28
761.426	23.23
761.606	23.3
761.786	23.71
761.966	22.75
762.146	21.91
762.326	21.7
762.506	21.76
762.686	21.85
762.866	22.16
763.046	21.51
763.225	20.52
763.405	19.82
763.585	19.83
763.765	19.95
763.945	19.56
764.124	20.35
764.304	20.64
764.484	20.53
764.664	20.87
764.843	20.83
765.023	21.12
765.203	21.69
765.382	22.12
765.562	22.19
765.741	22.67
765.921	23.16
766.101	23.66
766.28	23.58
766.46	23.67
766.639	23.53
766.819	23.61
766.998	23.85
767.178	23.69
767.357	24.48
767.537	24.52
767.716	23.84
767.896	23.59
768.075	22.97
768.254	22.93
768.434	23.02
768.613	24.2
768.792	24.53
768.972	24.14
769.151	24.81
769.33	24.44
769.51	25
769.689	24.78
769.868	25.13
770.047	25.38
770.226	25
770.406	24.92
770.585	23.27
770.764	22.54
770.943	22.84
771.122	22.78
771.301	23.33
771.48	22.7
771.66	22.86
771.839	22.66
772.018	22.09
772.197	23.37
772.376	23.74
772.555	24.73
772.734	25.6
772.913	25.14
773.092	24.9
773.271	23.97
773.449	24.83
773.628	25.28
773.807	25.74
773.986	25.94
774.165	25.61
774.344	26.07
774.523	25.3
774.701	25.02
774.88	25.83
775.059	25.57
775.238	26.49
775.417	26.12
775.595	25.89
775.774	26.17
775.953	26.55
776.131	26.56
776.31	25.53
776.489	25.7
776.667	25.61
776.846	25.28
777.025	25.52
777.203	24.23
777.382	25.24
777.56	25.58
777.739	25.84
777.917	25.48
778.096	25.14
778.274	25.15
778.453	26.48
778.631	26.83
778.81	27.43
778.988	27.97
779.166	28.83
779.345	27.59
779.523	27.48
779.702	27.5
779.88	28.91
780.058	28.49
780.237	29.46
780.415	28.45
780.593	28.03
780.771	27.5
780.95	28.18
781.128	28.1
781.306	28.89
781.484	28.34
781.662	28.5
781.841	27.72
782.019	28.01
782.197	27.87
782.375	27.61
782.553	27.86
782.731	27.93
782.909	26.55
783.087	25.76
783.265	26.08
783.443	26.73
783.621	26.72
783.799	26.55
783.977	27.38
784.155	26.88
784.333	28.68
784.511	28.12
784.689	27.87
784.867	27.33
785.045	27.51
785.223	26.89
785.4	26.46
785.578	26.63
785.756	27.16
785.934	26.9
786.112	26.74
786.289	25.41
786.467	25.82
786.645	25.28
786.823	26.97
787	28.27
787.178	26.79
787.356	27.35
787.533	26.54
787.711	25.52
787.889	25.04
788.066	24.71
788.244	24.61
788.421	24.28
788.599	24.59
788.776	24.09
788.954	23.39
789.131	23.65
789.309	24.08
789.486	24.07
789.664	24.62
789.841	24.08
790.019	23.69
790.196	22.96
790.373	23.69
790.551	23.76
790.728	23.11
790.906	23.25
791.083	24
791.26	23.57
791.437	23.47
791.615	23.2
791.792	24.11
791.969	25.35
792.146	24.7
792.324	25.34
792.501	25.47
792.678	25.54
792.855	26.11
793.032	27.55
793.209	27.91
793.387	27.73
793.564	27.01
793.741	26.84
793.918	26.82
794.095	28.22
794.272	26.6
794.449	26.13
794.626	26.71
794.803	26.17
794.98	25.37
795.157	25.38
795.334	26.32
795.511	25.96
795.688	26.09
795.864	26.19
796.041	26.23
796.218	27.11
796.395	28.14
796.572	27.52
796.749	27.73
796.925	27.71
797.102	27.43
797.279	26.49
797.456	26.87
797.632	26.22
797.809	25.79
797.986	26.11
798.162	25.12
798.339	25.28
798.516	24.77
798.692	24.08
798.869	23.46
799.046	23.09
799.222	23.4
799.399	24.07
799.575	24.06
799.752	22.99
799.928	23.15
800.105	23.99
800.281	23.39
800.458	24.01
800.634	24.61
800.811	25.04
800.987	25.63
801.163	25.38
801.34	24.59
801.516	25.83
801.692	26.96
801.869	25.9
802.045	25.26
802.221	25.81
802.398	25.96
802.574	26.77
802.75	27.4
802.926	25.7
803.103	26.44
803.279	26.95
803.455	24.6
803.631	25.21
803.807	25.61
803.983	26.03
804.16	25.44
804.336	24.77
804.512	23.9
804.688	23.43
804.864	24.91
805.04	23.64
805.216	23.79
805.392	24.54
805.568	24.64
805.744	23.47
805.92	23.23
806.096	23
806.272	23.82
806.448	23.39
806.623	23.91
806.799	24.3
806.975	25.87
807.151	25.04
807.327	24.46
807.503	22.7
807.678	23.62
807.854	23.5
808.03	23.33
808.206	22.31
808.381	21.89
808.557	20.33
808.733	19.49
808.908	17.55
809.084	18.88
809.26	20.65
809.435	21.9
809.611	22.91
809.787	23.2
809.962	24.29
810.138	25.56
810.313	26.44
810.489	25.97
810.664	24.24
810.84	26.61
811.015	26.13
811.191	26
811.366	25.66
811.542	23.45
811.717	23.42
811.892	22.88
812.068	22.18
812.243	22.21
812.419	22.99
812.594	26.5
812.769	25.23
812.944	24.78
813.12	24.29
813.295	24.76
813.47	27.2
813.645	27.01
813.821	27.04
813.996	27.06
814.171	27.22
814.346	26.98
814.521	26.02
814.697	26.08
814.872	26.13
815.047	26.96
815.222	25.95
815.397	24.08
815.572	25.58
815.747	24.56
815.922	23.91
816.097	22.28
816.272	21.73
816.447	20.79
816.622	20.01
816.797	21.67
816.972	20.15
817.147	19.82
817.322	20.8
817.496	19.62
817.671	20.21
817.846	21.16
818.021	20.23
818.196	21.09
818.371	21.48
818.545	21.78
818.72	21.59
818.895	21.95
819.069	22.43
819.244	22.71
819.419	22.41
819.594	21.71
819.768	20.94
819.943	21.61
820.117	21.08
820.292	20.67
820.467	19.93
820.641	19.09
820.816	18.42
820.99	18.17
821.165	17.87
821.339	17.49
821.514	17.53
821.688	17.68
821.863	17.55
822.037	17.42
822.212	17.04
822.386	16.72
822.56	16.32
822.735	16.4
822.909	16.4
823.084	16.15
823.258	16.23
823.432	16
823.606	15.84
823.781	16.09
823.955	16.12
824.129	16.24
824.303	16.53
824.478	16.84
824.652	16.99
824.826	17.45
825	17.66
825.174	17.89
825.348	18.41
825.523	18.32
825.697	17.94
825.871	18.84
826.045	18.84
826.219	18.91
826.393	19.11
826.567	19.53
826.741	19.48
826.915	19.21
827.089	19.07
827.263	19
827.437	19.04
827.611	19.02
827.784	18.56
827.958	19.76
828.132	20.29
828.306	20.21
828.48	19.95
828.654	19.62
828.827	19.74
829.001	20.27
829.175	20.82
829.349	20.84
829.522	21.26
829.696	21.03
829.87	19.75
830.044	19.32
830.217	19.49
830.391	19.37
830.565	20.31
830.738	23.27
830.912	22.95
831.085	22.08
831.259	21.66
831.432	21.45
831.606	23.01
831.779	21.83
831.953	21.87
832.126	21.7
832.3	21.87
832.473	20.43
832.647	18.91
832.82	19.23
832.994	19.52
833.167	20.31
833.34	20.56
833.514	19.94
833.687	20.24
833.86	20.08
834.034	20.01
834.207	20.36
834.38	20.65
834.553	20.86
834.727	20.68
834.9	20.31
835.073	19.86
835.246	19.99
835.419	20.08
835.593	20.45
835.766	20.67
835.939	22.42
836.112	22.05
836.285	21.96
836.458	20.89
836.631	19.31
836.804	19.86
836.977	20.44
837.15	21
837.323	19.9
837.496	19.44
837.669	20.13
837.842	19.23
838.015	21.28
838.188	22.54
838.361	24.66
838.533	27.36
838.706	27.75
838.879	29.84
839.052	31.52
839.225	32.23
839.398	33.69
839.57	33.09
839.743	31.12
839.916	29.68
840.088	30.25
840.261	28.89
840.434	29.68
840.607	28.91
840.779	27.92
840.952	26.42
841.124	27.27
841.297	26.49
841.47	28.11
841.642	30.03
841.815	30.31
841.987	29.23
842.16	31.2
842.332	30.82
842.505	31.71
842.677	33.05
842.85	31.22
843.022	30.9
843.194	32.34
843.367	32.96
843.539	32.28
843.712	31.37
843.884	34.24
844.056	34.17
844.229	32.87
844.401	32.45
844.573	31.69
844.745	32.02
844.918	33.46
845.09	31.84
845.262	30.88
845.434	31.24
845.606	33.67
845.779	32.91
845.951	31.14
846.123	32.25
846.295	37.8
846.467	37.57
846.639	37.5
846.811	34.83
846.983	37.01
847.155	35.96
847.327	35.24
847.499	37.9
847.671	38.3
847.843	39.12
848.015	41.11
848.187	38.94
848.359	42.15
848.531	45.9
848.703	47.64
848.875	49.3
849.047	49.81
849.218	52.9
849.39	50.95
849.562	48.33
849.734	48.16
849.905	48.02
850.077	48.38
850.249	48.29
850.421	43.41
850.592	42.97
850.764	43.75
850.936	42.61
851.107	41.56
851.279	40.27
851.451	39.53
851.622	39.7
851.794	35.92
851.965	38.45
852.137	36.43
852.308	40.97
852.48	40.74
852.651	38.35
852.823	45.08
852.994	43.72
853.166	42.03
853.337	46.42
853.509	47.4
853.68	50.45
853.851	47.97
854.023	45.08
854.194	42.78
854.365	43.24
854.537	42.13
854.708	36.79
854.879	38.03
855.05	38.6
855.222	35.44
855.393	32.83
855.564	35.86
855.735	33.22
855.906	34.91
856.078	35.44
856.249	33.92
856.42	35.03
856.591	33.71
856.762	33.12
856.933	33.15
857.104	32.33
857.275	36.09
857.446	34.59
857.617	37.64
857.788	40.72
857.959	43.21
858.13	48.22
858.301	47.21
858.472	50.09
858.643	47.8
858.814	48.37
858.985	52.65
859.155	53.43
859.326	49.64
859.497	49.03
859.668	45.78
859.839	43.54
860.009	41.05
860.18	42.3
860.351	41.41
860.522	44.15
860.692	43.84
860.863	42.1
861.034	40.44
861.204	44.14
861.375	45.99
861.546	48.4
861.716	45.91
861.887	48.08
862.057	49.76
862.228	51.09
862.398	50.52
862.569	55.3
862.739	53.73
862.91	52.69
863.08	49.13
863.251	44.88
863.421	41.85
863.592	42.94
863.762	39.01
863.932	34.87
864.103	36.14
864.273	36.23
864.443	34.36
864.614	34.74
864.784	33.31
864.954	33.4
865.125	35.59
865.295	38.43
865.465	39.55
865.635	37.85
865.805	38.89
865.976	36.07
866.146	37.13
866.316	32.26
866.486	34.07
866.656	35.18
866.826	35.49
866.996	35.28
867.166	34.6
867.336	33.82
867.506	36.69
867.676	39.45
867.846	39.21
868.016	35.55
868.186	37.33
868.356	34.58
868.526	36.76
868.696	34.28
868.866	32.41
869.036	31.28
869.206	30.67
869.376	32.27
869.545	31.38
869.715	30.79
869.885	35.03
870.055	37.63
870.224	41.57
870.394	36.98
870.564	39.85
870.734	42.33
870.903	40.07
871.073	43.39
871.243	42.08
871.412	42.03
871.582	44.13
871.751	42.27
871.921	40.81
872.091	36.26
872.26	34.85
872.43	31.2
872.599	27.59
872.769	28.08
872.938	30.06
873.108	32.45
873.277	30.63
873.446	31.63
873.616	30.87
873.785	29.1
873.955	32.73
874.124	36.76
874.293	39.29
874.463	40.88
874.632	40.36
874.801	37.49
874.971	36.59
875.14	37.2
875.309	36.82
875.478	41.15
875.647	40.62
875.817	38.55
875.986	38.6
876.155	34.06
876.324	36.1
876.493	40.6
876.662	39.08
876.831	36.66
877	40.14
877.17	38.15
877.339	32.1
877.508	36.53
877.677	33.83
877.846	28.79
878.015	32.28
878.184	30.72
878.352	27.65
878.521	27.5
878.69	28.2
878.859	29.16
879.028	31.42
879.197	29.36
879.366	25.9
879.534	29.26
879.703	29.23
879.872	29.03
880.041	26.61
880.21	26.59
880.378	25.29
880.547	24.21
880.716	21.37
880.884	19
881.053	18.54
881.222	18.24
881.39	16.2
881.559	16.6
881.727	16.11
881.896	16.67
882.065	16.17
882.233	16.3
882.402	16
882.57	16.46
882.739	16.68
882.907	17.7
883.076	17.96
883.244	18.88
883.412	19.4
883.581	19.97
883.749	19.92
883.918	20
884.086	20.03
884.254	21.09
884.423	20.89
884.591	21.96
884.759	21.66
884.927	21.82
885.096	20.54
885.264	21.39
885.432	21.39
885.6	22.66
885.769	24.81
885.937	27.71
886.105	27.08
886.273	25.54
886.441	26.92
886.609	28.15
886.777	28.72
886.945	31.96
887.113	30.41
887.281	31.21
887.449	30.89
887.617	30.28
887.785	27.19
887.953	31.01
888.121	35.71
888.289	35.58
888.457	36.8
888.625	33.76
888.793	34.86
888.961	36.89
889.129	37.09
889.296	37.58
889.464	37.82
889.632	39.39
889.8	37.79
889.967	37.49
890.135	36.73
